Data from USB4F104151__94__11-32-08-690.txt Node

Date: Fri Mar 14 11:32:08 EDT 2025
User: louis
Spectrometer: USB4F10415
Trigger mode: 4
Integration Time (sec): 5.000000E-2
Scans to average: 1
Electric dark correction enabled: true
Nonlinearity correction enabled: false
Boxcar width: 0
XAxis mode: Wavelengths
Number of Pixels in Spectrum: 3648
>>>>>Begin Spectral Data<<<<<
178.204	-123.05
178.424	-123.05
178.644	-123.05
178.864	-112.81
179.084	-100.52
179.304	-6.31
179.524	-30.89
179.744	57.17
179.964	77.65
180.184	-0.17
180.404	59.22
180.624	-47.27
180.844	-65.71
181.064	-51.37
181.283	-18.6
181.503	-24.75
181.723	51.03
181.943	1.88
182.163	128.85
182.383	55.12
182.602	55.12
182.822	126.8
183.042	63.32
183.262	14.17
183.482	1.88
183.701	-12.46
183.921	1.88
184.141	-20.65
184.361	83.8
184.58	26.45
184.8	81.75
185.02	14.17
185.239	116.56
185.459	-22.7
185.679	42.84
185.898	36.69
186.118	63.32
186.338	-2.22
186.557	67.41
186.777	-45.23
186.997	-2.22
187.216	51.03
187.436	34.64
187.655	1.88
187.875	65.36
188.095	-80.04
188.314	81.75
188.534	104.28
188.753	100.18
188.973	42.84
189.192	122.71
189.412	10.07
189.631	18.26
189.851	53.08
190.07	91.99
190.29	-22.7
190.509	32.6
190.729	30.55
190.948	67.41
191.168	149.33
191.387	38.74
191.607	-32.94
191.826	44.88
192.045	48.98
192.265	-71.85
192.484	26.45
192.704	42.84
192.923	-30.89
193.142	106.32
193.362	79.7
193.581	67.41
193.8	149.33
194.02	83.8
194.239	122.71
194.458	14.17
194.678	18.26
194.897	18.26
195.116	10.07
195.335	28.5
195.555	5.97
195.774	-41.13
195.993	-10.41
196.212	141.14
196.432	-49.32
196.651	42.84
196.87	-20.65
197.089	132.95
197.308	28.5
197.528	137.04
197.747	-8.36
197.966	22.36
198.185	89.94
198.404	-0.17
198.623	32.6
198.842	-14.51
199.062	-39.08
199.281	75.6
199.5	36.69
199.719	63.32
199.938	55.12
200.157	57.17
200.376	128.85
200.595	120.66
200.814	51.03
201.033	-32.94
201.252	116.56
201.471	5.97
201.69	59.22
201.909	61.27
202.128	42.84
202.347	63.32
202.566	26.45
202.785	51.03
203.004	-41.13
203.223	108.37
203.442	-43.18
203.661	71.51
203.879	16.21
204.098	59.22
204.317	65.36
204.536	44.88
204.755	51.03
204.974	65.36
205.193	-6.31
205.411	100.18
205.63	118.61
205.849	46.93
206.068	51.03
206.287	26.45
206.505	116.56
206.724	32.6
206.943	-28.84
207.162	10.07
207.381	87.89
207.599	20.31
207.818	57.17
208.037	102.23
208.255	67.41
208.474	34.64
208.693	51.03
208.911	16.21
209.13	36.69
209.349	16.21
209.567	-2.22
209.786	1.88
210.005	51.03
210.223	-2.22
210.442	-28.84
210.661	87.89
210.879	5.97
211.098	67.41
211.316	73.56
211.535	83.8
211.753	1.88
211.972	89.94
212.191	-65.71
212.409	5.97
212.628	59.22
212.846	83.8
213.065	59.22
213.283	100.18
213.502	-26.79
213.72	8.02
213.938	40.79
214.157	26.45
214.375	57.17
214.594	10.07
214.812	61.27
215.031	83.8
215.249	-22.7
215.467	18.26
215.686	96.08
215.904	44.88
216.122	69.46
216.341	124.76
216.559	24.4
216.778	38.74
216.996	128.85
217.214	-8.36
217.432	22.36
217.651	5.97
217.869	114.52
218.087	89.94
218.306	-12.46
218.524	22.36
218.742	91.99
218.96	63.32
219.179	22.36
219.397	67.41
219.615	71.51
219.833	38.74
220.051	1.88
220.27	87.89
220.488	38.74
220.706	-14.51
220.924	5.97
221.142	44.88
221.36	-6.31
221.578	28.5
221.796	67.41
222.015	-6.31
222.233	48.98
222.451	118.61
222.669	10.07
222.887	28.5
223.105	12.12
223.323	-47.27
223.541	-24.75
223.759	91.99
223.977	10.07
224.195	81.75
224.413	-32.94
224.631	53.08
224.849	-59.56
225.067	81.75
225.285	59.22
225.503	53.08
225.721	1.88
225.939	38.74
226.157	110.42
226.375	198.48
226.592	42.84
226.81	71.51
227.028	63.32
227.246	51.03
227.464	14.17
227.682	100.18
227.9	75.6
228.117	83.8
228.335	51.03
228.553	-2.22
228.771	73.56
228.989	77.65
229.206	102.23
229.424	-32.94
229.642	96.08
229.86	34.64
230.077	75.6
230.295	63.32
230.513	161.62
230.731	153.43
230.948	132.95
231.166	116.56
231.384	85.84
231.601	-26.79
231.819	85.84
232.037	-2.22
232.254	-24.75
232.472	-47.27
232.689	24.4
232.907	122.71
233.125	59.22
233.342	-47.27
233.56	122.71
233.777	87.89
233.995	83.8
234.213	61.27
234.43	67.41
234.648	28.5
234.865	59.22
235.083	48.98
235.3	1.88
235.518	1.88
235.735	-8.36
235.953	63.32
236.17	48.98
236.388	-65.71
236.605	-18.6
236.822	51.03
237.04	108.37
237.257	71.51
237.475	-16.55
237.692	30.55
237.909	106.32
238.127	38.74
238.344	59.22
238.562	81.75
238.779	-104.62
238.996	-8.36
239.214	10.07
239.431	48.98
239.648	57.17
239.865	75.6
240.083	40.79
240.3	63.32
240.517	24.4
240.735	106.32
240.952	51.03
241.169	91.99
241.386	-4.27
241.603	16.21
241.821	-12.46
242.038	63.32
242.255	53.08
242.472	-2.22
242.689	57.17
242.907	87.89
243.124	91.99
243.341	-20.65
243.558	-14.51
243.775	46.93
243.992	-18.6
244.209	12.12
244.426	108.37
244.643	-4.27
244.86	-26.79
245.078	26.45
245.295	83.8
245.512	61.27
245.729	71.51
245.946	77.65
246.163	10.07
246.38	5.97
246.597	116.56
246.814	-30.89
247.031	48.98
247.248	75.6
247.464	8.02
247.681	44.88
247.898	75.6
248.115	48.98
248.332	-47.27
248.549	71.51
248.766	87.89
248.983	8.02
249.2	34.64
249.417	155.47
249.633	46.93
249.85	53.08
250.067	38.74
250.284	-8.36
250.501	-6.31
250.717	98.13
250.934	36.69
251.151	53.08
251.368	26.45
251.585	34.64
251.801	55.12
252.018	24.4
252.235	36.69
252.451	-30.89
252.668	-34.99
252.885	91.99
253.102	71.51
253.318	-49.32
253.535	-0.17
253.752	36.69
253.968	46.93
254.185	22.36
254.401	12.12
254.618	-37.03
254.835	1.88
255.051	8.02
255.268	-39.08
255.484	71.51
255.701	89.94
255.917	32.6
256.134	-75.95
256.351	65.36
256.567	-30.89
256.784	48.98
257	-92.33
257.217	94.04
257.433	36.69
257.65	42.84
257.866	-18.6
258.082	-28.84
258.299	-24.75
258.515	34.64
258.732	-39.08
258.948	26.45
259.165	32.6
259.381	16.21
259.597	75.6
259.814	81.75
260.03	48.98
260.246	63.32
260.463	108.37
260.679	87.89
260.895	59.22
261.112	165.71
261.328	34.64
261.544	1.88
261.761	135
261.977	-14.51
262.193	-2.22
262.409	71.51
262.626	10.07
262.842	24.4
263.058	20.31
263.274	46.93
263.49	59.22
263.707	48.98
263.923	42.84
264.139	24.4
264.355	18.26
264.571	153.43
264.787	65.36
265.004	30.55
265.22	71.51
265.436	40.79
265.652	8.02
265.868	83.8
266.084	124.76
266.3	81.75
266.516	-0.17
266.732	-10.41
266.948	51.03
267.164	63.32
267.38	-30.89
267.596	124.76
267.812	67.41
268.028	30.55
268.244	-22.7
268.46	16.21
268.676	-32.94
268.892	108.37
269.108	59.22
269.324	-32.94
269.54	-18.6
269.756	67.41
269.972	-26.79
270.188	-22.7
270.403	32.6
270.619	42.84
270.835	110.42
271.051	5.97
271.267	-20.65
271.483	87.89
271.698	55.12
271.914	116.56
272.13	-10.41
272.346	63.32
272.562	16.21
272.777	1.88
272.993	83.8
273.209	48.98
273.425	83.8
273.64	83.8
273.856	48.98
274.072	16.21
274.287	104.28
274.503	63.32
274.719	79.7
274.934	26.45
275.15	12.12
275.366	14.17
275.581	-41.13
275.797	40.79
276.012	51.03
276.228	81.75
276.444	30.55
276.659	61.27
276.875	-30.89
277.09	61.27
277.306	10.07
277.521	42.84
277.737	63.32
277.952	46.93
278.168	81.75
278.383	57.17
278.599	96.08
278.814	32.6
279.03	38.74
279.245	106.32
279.461	59.22
279.676	83.8
279.892	3.93
280.107	-2.22
280.322	40.79
280.538	-26.79
280.753	46.93
280.969	44.88
281.184	108.37
281.399	116.56
281.615	-14.51
281.83	-8.36
282.045	61.27
282.26	69.46
282.476	1.88
282.691	87.89
282.906	51.03
283.122	-32.94
283.337	128.85
283.552	94.04
283.767	16.21
283.983	44.88
284.198	112.47
284.413	46.93
284.628	-2.22
284.843	8.02
285.058	51.03
285.274	36.69
285.489	-0.17
285.704	157.52
285.919	44.88
286.134	42.84
286.349	-18.6
286.564	51.03
286.779	122.71
286.995	46.93
287.21	-8.36
287.425	34.64
287.64	10.07
287.855	38.74
288.07	-26.79
288.285	5.97
288.5	42.84
288.715	100.18
288.93	20.31
289.145	65.36
289.36	16.21
289.575	-18.6
289.79	87.89
290.004	-12.46
290.219	100.18
290.434	20.31
290.649	36.69
290.864	36.69
291.079	34.64
291.294	5.97
291.509	16.21
291.724	44.88
291.938	5.97
292.153	46.93
292.368	34.64
292.583	65.36
292.798	98.13
293.012	61.27
293.227	75.6
293.442	-43.18
293.657	51.03
293.871	67.41
294.086	91.99
294.301	55.12
294.516	46.93
294.73	18.26
294.945	-14.51
295.16	40.79
295.374	79.7
295.589	77.65
295.804	-39.08
296.018	81.75
296.233	108.37
296.447	-0.17
296.662	81.75
296.877	73.56
297.091	69.46
297.306	26.45
297.52	42.84
297.735	67.41
297.949	24.4
298.164	10.07
298.378	-0.17
298.593	85.84
298.807	59.22
299.022	73.56
299.236	34.64
299.451	16.21
299.665	-32.94
299.88	126.8
300.094	14.17
300.309	10.07
300.523	32.6
300.737	65.36
300.952	96.08
301.166	51.03
301.381	-6.31
301.595	30.55
301.809	69.46
302.024	57.17
302.238	-4.27
302.452	63.32
302.667	71.51
302.881	22.36
303.095	124.76
303.309	63.32
303.524	75.6
303.738	-2.22
303.952	38.74
304.166	100.18
304.381	-24.75
304.595	98.13
304.809	55.12
305.023	28.5
305.237	34.64
305.452	34.64
305.666	108.37
305.88	51.03
306.094	71.51
306.308	-0.17
306.522	67.41
306.736	16.21
306.95	38.74
307.164	46.93
307.379	10.07
307.593	57.17
307.807	116.56
308.021	46.93
308.235	83.8
308.449	18.26
308.663	87.89
308.877	104.28
309.091	46.93
309.305	-26.79
309.519	16.21
309.733	100.18
309.947	24.4
310.161	51.03
310.374	63.32
310.588	98.13
310.802	42.84
311.016	-30.89
311.23	-0.17
311.444	18.26
311.658	108.37
311.872	130.9
312.085	89.94
312.299	120.66
312.513	139.09
312.727	5.97
312.941	26.45
313.154	63.32
313.368	36.69
313.582	55.12
313.796	69.46
314.009	63.32
314.223	96.08
314.437	91.99
314.651	169.81
314.864	26.45
315.078	-30.89
315.292	-32.94
315.505	20.31
315.719	63.32
315.933	53.08
316.146	3.93
316.36	65.36
316.573	147.28
316.787	51.03
317.001	85.84
317.214	-43.18
317.428	-14.51
317.641	1.88
317.855	-6.31
318.068	48.98
318.282	-10.41
318.495	91.99
318.709	157.52
318.922	124.76
319.136	106.32
319.349	108.37
319.563	1.88
319.776	91.99
319.99	30.55
320.203	26.45
320.417	98.13
320.63	42.84
320.843	87.89
321.057	18.26
321.27	16.21
321.483	73.56
321.697	114.52
321.91	51.03
322.124	18.26
322.337	67.41
322.55	51.03
322.763	42.84
322.977	51.03
323.19	24.4
323.403	8.02
323.617	61.27
323.83	55.12
324.043	57.17
324.256	34.64
324.469	16.21
324.683	91.99
324.896	-0.17
325.109	55.12
325.322	-30.89
325.535	48.98
325.748	108.37
325.962	46.93
326.175	34.64
326.388	63.32
326.601	51.03
326.814	5.97
327.027	34.64
327.24	89.94
327.453	5.97
327.666	91.99
327.879	89.94
328.092	124.76
328.305	32.6
328.518	10.07
328.731	34.64
328.944	69.46
329.157	75.6
329.37	-12.46
329.583	173.91
329.796	73.56
330.009	-49.32
330.222	-8.36
330.435	98.13
330.648	73.56
330.861	44.88
331.073	-20.65
331.286	132.95
331.499	100.18
331.712	44.88
331.925	38.74
332.138	-0.17
332.35	83.8
332.563	53.08
332.776	130.9
332.989	-55.47
333.202	110.42
333.414	-10.41
333.627	16.21
333.84	-10.41
334.053	75.6
334.265	14.17
334.478	63.32
334.691	18.26
334.903	75.6
335.116	75.6
335.329	100.18
335.541	46.93
335.754	91.99
335.966	59.22
336.179	5.97
336.392	-26.79
336.604	1.88
336.817	108.37
337.029	3.93
337.242	87.89
337.454	61.27
337.667	106.32
337.88	63.32
338.092	8.02
338.305	34.64
338.517	32.6
338.729	65.36
338.942	120.66
339.154	44.88
339.367	14.17
339.579	98.13
339.792	42.84
340.004	104.28
340.217	87.89
340.429	75.6
340.641	-49.32
340.854	44.88
341.066	48.98
341.278	104.28
341.491	73.56
341.703	28.5
341.915	40.79
342.128	108.37
342.34	59.22
342.552	53.08
342.764	-34.99
342.977	-39.08
343.189	81.75
343.401	69.46
343.613	-6.31
343.826	81.75
344.038	42.84
344.25	34.64
344.462	1.88
344.674	81.75
344.886	14.17
345.099	65.36
345.311	75.6
345.523	5.97
345.735	30.55
345.947	73.56
346.159	75.6
346.371	57.17
346.583	-26.79
346.795	100.18
347.007	14.17
347.219	38.74
347.431	57.17
347.643	104.28
347.855	48.98
348.067	165.71
348.279	-59.56
348.491	46.93
348.703	-2.22
348.915	38.74
349.127	14.17
349.339	10.07
349.551	44.88
349.763	102.23
349.975	71.51
350.187	132.95
350.399	67.41
350.61	48.98
350.822	-14.51
351.034	55.12
351.246	34.64
351.458	65.36
351.669	87.89
351.881	14.17
352.093	61.27
352.305	71.51
352.517	100.18
352.728	102.23
352.94	65.36
353.152	106.32
353.363	32.6
353.575	63.32
353.787	104.28
353.999	38.74
354.21	124.76
354.422	-41.13
354.633	91.99
354.845	18.26
355.057	38.74
355.268	79.7
355.48	108.37
355.692	46.93
355.903	36.69
356.115	34.64
356.326	-22.7
356.538	132.95
356.749	-10.41
356.961	55.12
357.172	63.32
357.384	10.07
357.595	145.24
357.807	40.79
358.018	59.22
358.23	34.64
358.441	73.56
358.653	30.55
358.864	24.4
359.075	100.18
359.287	83.8
359.498	87.89
359.709	44.88
359.921	67.41
360.132	71.51
360.344	75.6
360.555	51.03
360.766	26.45
360.977	-4.27
361.189	59.22
361.4	38.74
361.611	124.76
361.823	98.13
362.034	46.93
362.245	32.6
362.456	10.07
362.667	34.64
362.879	53.08
363.09	16.21
363.301	-10.41
363.512	16.21
363.723	91.99
363.935	26.45
364.146	94.04
364.357	24.4
364.568	51.03
364.779	53.08
364.99	16.21
365.201	18.26
365.412	59.22
365.623	51.03
365.834	79.7
366.045	-47.27
366.256	96.08
366.467	16.21
366.678	75.6
366.889	26.45
367.1	46.93
367.311	-16.55
367.522	30.55
367.733	59.22
367.944	59.22
368.155	40.79
368.366	46.93
368.577	91.99
368.788	91.99
368.999	42.84
369.209	85.84
369.42	106.32
369.631	178
369.842	94.04
370.053	63.32
370.264	118.61
370.474	104.28
370.685	79.7
370.896	-28.84
371.107	120.66
371.317	12.12
371.528	28.5
371.739	116.56
371.95	26.45
372.16	71.51
372.371	38.74
372.582	83.8
372.792	53.08
373.003	12.12
373.214	91.99
373.424	81.75
373.635	24.4
373.846	130.9
374.056	57.17
374.267	124.76
374.477	63.32
374.688	91.99
374.898	116.56
375.109	16.21
375.319	16.21
375.53	81.75
375.74	63.32
375.951	18.26
376.161	67.41
376.372	67.41
376.582	-12.46
376.793	83.8
377.003	26.45
377.214	16.21
377.424	96.08
377.635	46.93
377.845	55.12
378.055	85.84
378.266	34.64
378.476	-26.79
378.686	104.28
378.897	71.51
379.107	161.62
379.317	36.69
379.528	-18.6
379.738	42.84
379.948	-14.51
380.158	32.6
380.369	12.12
380.579	73.56
380.789	83.8
380.999	51.03
381.21	137.04
381.42	149.33
381.63	8.02
381.84	110.42
382.05	1.88
382.261	28.5
382.471	81.75
382.681	26.45
382.891	94.04
383.101	42.84
383.311	1.88
383.521	83.8
383.731	89.94
383.941	124.76
384.151	51.03
384.361	89.94
384.571	83.8
384.781	81.75
384.991	108.37
385.201	130.9
385.411	75.6
385.621	12.12
385.831	77.65
386.041	100.18
386.251	40.79
386.461	75.6
386.671	65.36
386.881	30.55
387.091	59.22
387.301	108.37
387.511	12.12
387.72	145.24
387.93	126.8
388.14	69.46
388.35	91.99
388.56	106.32
388.769	104.28
388.979	48.98
389.189	18.26
389.399	83.8
389.609	51.03
389.818	116.56
390.028	108.37
390.238	40.79
390.447	5.97
390.657	40.79
390.867	132.95
391.076	8.02
391.286	63.32
391.496	102.23
391.705	110.42
391.915	79.7
392.125	151.38
392.334	132.95
392.544	53.08
392.753	98.13
392.963	63.32
393.172	112.47
393.382	77.65
393.591	116.56
393.801	26.45
394.01	151.38
394.22	112.47
394.429	73.56
394.639	87.89
394.848	135
395.058	122.71
395.267	65.36
395.477	163.67
395.686	73.56
395.895	124.76
396.105	122.71
396.314	145.24
396.524	77.65
396.733	94.04
396.942	139.09
397.152	112.47
397.361	163.67
397.57	149.33
397.78	91.99
397.989	110.42
398.198	186.19
398.407	175.95
398.617	161.62
398.826	151.38
399.035	98.13
399.244	212.82
399.453	83.8
399.663	110.42
399.872	124.76
400.081	161.62
400.29	137.04
400.499	94.04
400.708	116.56
400.917	116.56
401.127	53.08
401.336	130.9
401.545	85.84
401.754	212.82
401.963	100.18
402.172	132.95
402.381	124.76
402.59	182.1
402.799	104.28
403.008	161.62
403.217	132.95
403.426	91.99
403.635	87.89
403.844	206.67
404.053	171.86
404.262	188.24
404.471	218.96
404.68	171.86
404.888	122.71
405.097	130.9
405.306	161.62
405.515	214.87
405.724	239.44
405.933	206.67
406.142	155.47
406.35	161.62
406.559	182.1
406.768	202.58
406.977	182.1
407.185	239.44
407.394	202.58
407.603	157.52
407.812	221.01
408.02	304.98
408.229	149.33
408.438	239.44
408.646	284.5
408.855	241.49
409.064	210.77
409.272	268.11
409.481	282.45
409.69	296.78
409.898	288.59
410.107	268.11
410.315	372.56
410.524	368.46
410.733	331.6
410.941	329.55
411.15	388.94
411.358	415.57
411.567	296.78
411.775	450.38
411.984	374.61
412.192	452.43
412.401	464.72
412.609	485.2
412.818	470.86
413.026	423.76
413.234	468.81
413.443	493.39
413.651	491.34
413.86	528.21
414.068	649.04
414.276	542.54
414.485	540.49
414.693	649.04
414.901	712.52
415.11	661.32
415.318	673.61
415.526	710.47
415.734	743.24
415.943	681.8
416.151	802.63
416.359	730.95
416.567	800.59
416.776	880.46
416.984	968.52
417.192	1003.33
417.4	784.2
417.608	864.07
417.817	958.28
418.025	1062.73
418.233	1089.35
418.441	991.05
418.649	1058.63
418.857	1230.66
419.065	1210.18
419.273	1206.08
419.481	1306.43
419.689	1378.11
419.897	1296.19
420.105	1400.64
420.313	1423.17
420.521	1550.14
420.729	1480.51
420.937	1601.34
421.145	1564.48
421.353	1799.99
421.561	1734.46
421.769	1773.37
421.977	1937.21
422.185	1886.01
422.393	1953.59
422.601	2150.2
422.809	2096.95
423.017	2082.61
423.224	2234.16
423.432	2393.9
423.64	2250.55
423.848	2479.92
424.056	2303.79
424.263	2580.27
424.471	2590.51
424.679	2692.91
424.887	2866.99
425.094	2916.14
425.302	2924.33
425.51	2918.18
425.718	3016.49
425.925	3233.57
426.133	3233.57
426.341	3520.29
426.548	3600.16
426.756	3532.58
426.964	3655.45
427.171	3878.68
427.379	4034.33
427.586	3921.69
427.794	4114.2
428.001	4310.8
428.209	4546.32
428.417	4495.12
428.624	4775.69
428.832	4650.77
429.039	4675.34
429.247	4630.29
429.454	5181.19
429.662	5422.85
429.869	5076.74
430.076	5568.26
430.284	5396.23
430.491	5672.7
430.699	5981.95
430.906	5850.88
431.114	6072.06
431.321	6176.5
431.528	6455.03
431.736	6706.93
431.943	7104.23
432.15	6788.85
432.358	6932.2
432.565	7259.88
432.772	7128.81
432.979	7616.23
433.187	7767.77
433.394	7853.79
433.601	8247
433.808	8523.48
434.016	8279.77
434.223	8861.39
434.43	9072.33
434.637	9103.05
434.844	9432.77
435.052	9703.11
435.259	9723.58
435.466	9737.92
435.673	9688.77
435.88	10282.68
436.087	11105.96
436.294	10817.2
436.501	10544.82
436.708	10743.47
436.915	11202.22
437.122	11589.28
437.329	11615.91
437.537	12035.74
437.743	12183.2
437.95	12230.3
438.157	12861.07
438.364	13420.17
438.571	13000.33
438.778	13198.99
438.985	14710.39
439.192	13747.84
439.399	14249.6
439.606	14227.07
439.813	14780.02
440.02	15867.49
440.227	15330.92
440.433	15162.99
440.64	15799.91
440.847	15605.35
441.054	16279.13
441.261	17350.22
441.467	16948.82
441.674	17198.67
441.881	17761.86
442.088	17802.82
442.294	17753.67
442.501	18251.33
442.708	18429.5
442.914	19164.72
443.121	20194.85
443.328	19527.21
443.534	20893.21
443.741	20543
443.948	19912.23
444.154	21386.77
444.361	21513.74
444.568	21689.87
444.774	21657.1
444.981	21327.38
445.187	22320.64
445.394	23358.96
445.6	23113.2
445.807	25503.18
446.013	24294.88
446.22	24188.39
446.426	25427.41
446.633	25728.46
446.839	26594.75
447.046	25279.96
447.252	27203
447.459	27016.63
447.665	26871.23
447.871	28341.67
448.078	29189.53
448.284	27882.92
448.491	28681.63
448.697	29681.04
448.903	30176.65
449.11	30311.81
449.316	29715.86
449.522	30664.07
449.728	31415.67
449.935	31470.97
450.141	31405.43
450.347	32230.76
450.553	31468.92
450.76	31556.98
450.966	32378.22
451.172	32302.44
451.378	33303.9
451.584	32079.21
451.791	33109.34
451.997	33035.61
452.203	33650
452.409	33627.48
452.615	33234.27
452.821	32275.82
453.027	32054.64
453.233	33307.99
453.44	32249.19
453.646	32683.36
453.852	32744.8
454.058	33066.33
454.264	32079.21
454.47	32685.41
454.676	31812.98
454.882	32802.14
455.088	29865.36
455.294	30741.89
455.5	31253.88
455.705	31378.81
455.911	30117.26
456.117	29652.37
456.323	28911
456.529	27635.12
456.735	28769.69
456.941	27884.97
457.147	27792.81
457.352	26809.79
457.558	26252.74
457.764	26596.8
457.97	25806.28
458.176	25470.42
458.381	25239
458.587	24079.85
458.793	23817.71
458.999	22666.75
459.204	24585.69
459.41	23619.05
459.616	22437.37
459.821	21890.57
460.027	21913.09
460.233	21685.77
460.438	20289.06
460.644	20708.89
460.85	19889.7
461.055	19844.65
461.261	19408.43
461.466	18075.2
461.672	17528.39
461.878	18703.93
462.083	17307.21
462.289	17135.18
462.494	16907.86
462.7	16397.92
462.905	15832.68
463.111	16297.56
463.316	16356.96
463.522	16049.76
463.727	16033.38
463.932	15920.74
464.138	15795.81
464.343	15877.73
464.549	15201.9
464.754	16193.12
464.959	15855.2
465.165	15509.1
465.37	15046.26
465.575	14769.78
465.781	15298.16
465.986	15304.3
466.191	14798.45
466.397	14288.51
466.602	13827.71
466.807	14292.6
467.012	14392.95
467.218	14216.83
467.423	14186.11
467.628	14108.29
467.833	14634.61
468.038	14087.81
468.244	13704.84
468.449	14354.04
468.654	13637.25
468.859	13911.68
469.064	13715.08
469.269	13209.23
469.474	13248.14
469.679	13500.04
469.885	13242
470.09	13397.64
470.295	13053.58
470.5	12940.94
470.705	12871.31
470.91	12676.76
471.115	12441.24
471.32	12748.43
471.525	12594.84
471.73	12297.88
471.935	12387.99
472.139	11773.6
472.344	11962.01
472.549	11794.08
472.754	11726.5
472.959	11527.85
473.164	11237.03
473.369	11228.84
473.574	11556.52
473.778	11447.97
473.983	11316.9
474.188	11232.94
474.393	10585.78
474.598	10862.26
474.802	10598.07
475.007	10798.77
475.212	10774.19
475.417	10563.25
475.621	10165.95
475.826	10221.24
476.031	10147.51
476.235	9789.12
476.44	10186.43
476.645	9791.17
476.849	9901.76
477.054	9782.98
477.259	9836.22
477.463	9766.59
477.668	9281.22
477.872	9520.84
478.077	9250.5
478.282	9213.64
478.486	8937.16
478.691	9062.09
478.895	9205.45
479.1	9146.06
479.304	9225.93
479.509	8758.99
479.713	8644.31
479.918	8814.29
480.122	8451.8
480.326	8683.22
480.531	8662.74
480.735	8613.59
480.94	8371.93
481.144	8767.18
481.348	8349.4
481.553	8398.55
481.757	8201.94
481.961	8386.26
482.166	8484.56
482.37	8429.27
482.574	8169.18
482.778	8328.92
482.983	8300.25
483.187	8363.73
483.391	8259.29
483.595	8476.37
483.8	8285.91
484.004	8292.05
484.208	8476.37
484.412	8335.06
484.616	8369.88
484.821	8396.5
485.025	8199.9
485.229	8193.75
485.433	8255.19
485.637	8210.14
485.841	8201.94
486.045	8197.85
486.249	8201.94
486.453	8197.85
486.657	8433.36
486.861	8290.01
487.065	8083.16
487.269	8392.41
487.473	8124.12
487.677	8654.55
487.881	8310.49
488.085	8201.94
488.289	8353.49
488.493	8308.44
488.697	8244.95
488.901	8281.81
489.105	8279.77
489.309	8148.7
489.512	8240.86
489.716	8445.65
489.92	8068.83
490.124	8206.04
490.328	8578.77
490.531	8314.58
490.735	8449.75
490.939	8388.31
491.143	8591.06
491.346	8349.4
491.55	8607.44
491.754	8578.77
491.958	8607.44
492.161	8586.96
492.365	8810.19
492.569	8652.5
492.772	8672.98
492.976	8781.52
493.18	8691.41
493.383	9164.49
493.587	8906.45
493.79	9033.42
493.994	8957.64
494.197	8904.4
494.401	9316.04
494.605	9338.57
494.808	9133.77
495.012	9332.42
495.215	9322.18
495.419	9475.78
495.622	9490.12
495.825	9377.48
496.029	9533.12
496.232	9807.55
496.436	9590.47
496.639	9920.19
496.843	9922.24
497.046	9916.09
497.249	10188.47
497.453	10280.63
497.656	10356.41
497.859	10432.18
498.063	10460.85
498.266	10790.58
498.469	10763.95
498.673	10710.71
498.876	10927.79
499.079	11355.82
499.282	10884.78
499.485	11292.33
499.689	11427.49
499.892	11658.92
500.095	11474.6
500.298	11769.51
500.501	11683.49
500.705	12097.18
500.908	12211.87
501.111	12209.82
501.314	12580.5
501.517	12738.19
501.72	12584.6
501.923	12631.7
502.126	12865.17
502.329	13207.18
502.532	13420.17
502.735	13598.34
502.938	13348.49
503.141	13608.58
503.344	13995.65
503.547	14003.84
503.75	13997.7
503.953	14366.33
504.156	14620.28
504.359	14595.7
504.562	14556.79
504.765	14921.33
504.968	15113.84
505.17	15537.77
505.373	15222.38
505.576	15670.89
505.779	15765.09
505.982	15898.21
506.185	16588.38
506.387	16410.2
506.59	16580.18
506.793	16852.56
506.996	16735.83
507.198	17399.37
507.401	17112.66
507.604	17555.02
507.807	17829.45
508.009	17710.66
508.212	17903.17
508.415	18101.83
508.617	18734.65
508.82	18404.92
509.022	18593.34
509.225	18941.49
509.428	19174.96
509.63	19371.57
509.833	19590.7
510.035	20162.08
510.238	19869.22
510.44	20227.62
510.643	20545.05
510.845	20723.23
511.048	20565.53
511.25	21347.86
511.453	21196.31
511.655	21968.39
511.858	21792.26
512.06	22038.02
512.262	22046.21
512.465	22507.01
512.667	22930.94
512.87	22941.18
513.072	23078.39
513.274	23684.59
513.477	23813.61
513.679	24055.27
513.881	24282.59
514.084	24755.68
514.286	24628.7
514.488	25064.92
514.69	25728.46
514.893	25800.14
515.095	26045.9
515.297	26152.39
515.499	26467.78
515.701	26883.52
515.904	27110.84
516.106	27514.29
516.308	27551.15
516.51	28190.12
516.712	28153.26
516.914	28687.78
517.116	29134.23
517.318	29267.35
517.52	29519.25
517.722	29437.33
517.925	29838.73
518.127	30442.88
518.329	31114.62
518.531	30625.15
518.733	31444.34
518.935	31704.43
519.136	31989.1
519.338	32394.6
519.54	32793.95
519.742	33336.66
519.944	33580.37
520.146	34104.65
520.348	34223.44
520.55	34485.58
520.752	34514.25
520.954	35200.32
521.155	35134.78
521.357	35675.44
521.559	35863.86
521.761	36822.31
521.963	36738.34
522.164	36945.19
522.366	37688.6
522.568	37842.2
522.77	38182.16
522.971	39013.63
523.173	38882.56
523.375	39288.06
523.576	39126.27
523.778	39593.21
523.98	40500.46
524.181	40860.9
524.383	40629.48
524.584	40778.98
524.786	41385.18
524.988	41510.11
525.189	42335.44
525.391	42425.55
525.592	42915.01
525.794	43396.29
525.995	43228.35
526.197	43543.74
526.398	43666.62
526.6	44412.08
526.801	44299.44
527.003	44512.43
527.204	44868.78
527.406	45634.72
527.607	45143.2
527.808	45507.74
528.01	44973.22
528.211	45401.25
528.412	46969.99
528.614	46705.8
528.815	46695.56
529.016	47492.22
529.218	47166.6
529.419	47398.02
529.62	47019.14
529.822	47471.74
530.023	47377.54
530.224	48100.47
530.425	48340.08
530.626	47985.79
530.828	48583.79
531.029	49046.63
531.23	48804.97
531.431	48835.69
531.632	48675.95
531.833	49364.07
532.035	49052.78
532.236	49761.37
532.437	49376.36
532.638	49564.77
532.839	50060.38
533.04	50220.12
533.241	49605.73
533.442	50512.98
533.643	50078.81
533.844	50000.99
534.045	50500.69
534.246	49878.11
534.447	50773.07
534.648	50768.97
534.849	50707.54
535.05	50779.21
535.251	50361.43
535.451	50433.11
535.652	50932.81
535.853	50711.63
536.054	51106.89
536.255	51127.37
536.456	50596.95
536.657	51424.32
536.857	51106.89
537.058	50934.86
537.259	51678.27
537.46	51676.22
537.66	51321.93
537.861	51522.63
538.062	51194.95
538.263	51442.76
538.463	50994.25
538.664	51151.94
538.865	51549.25
539.065	51549.25
539.266	51035.21
539.466	51874.88
539.667	50693.2
539.868	51917.89
540.068	51231.82
540.269	51090.51
540.469	51491.91
540.67	51254.34
540.87	51448.9
541.071	51815.49
541.271	51498.05
541.472	51403.84
541.672	51264.58
541.873	51184.71
542.073	50676.82
542.274	51874.88
542.474	51227.72
542.675	51076.17
542.875	51680.32
543.075	51383.37
543.276	50781.26
543.476	51872.83
543.676	51162.18
543.877	51825.73
544.077	51188.81
544.277	51164.23
544.478	50959.44
544.678	51821.63
544.878	51301.45
545.078	51692.61
545.279	51291.21
545.479	51493.96
545.679	51883.07
545.879	51573.83
546.079	51129.42
546.28	51405.89
546.48	51141.7
546.68	51348.55
546.88	51663.94
547.08	51592.26
547.28	51299.4
547.48	50814.03
547.68	51559.49
547.88	51121.23
548.081	51268.68
548.281	50951.24
548.481	51493.96
548.681	51481.67
548.881	51153.99
549.081	51455.04
549.28	51018.83
549.48	51539.01
549.68	51207.24
549.88	51788.86
550.08	51197
550.28	51360.84
550.48	51309.64
550.68	51186.76
550.88	51342.41
551.08	51473.48
551.279	51305.54
551.479	51047.5
551.679	51274.82
551.879	51027.02
552.079	51438.66
552.278	51045.45
552.478	51289.16
552.678	51211.34
552.878	51510.34
553.077	51219.53
553.277	50555.99
553.477	51549.25
553.676	50680.91
553.876	51051.59
554.076	50734.16
554.275	50824.27
554.475	50445.4
554.674	50789.45
554.874	50642
555.074	50390.1
555.273	50728.02
555.473	50916.43
555.672	50584.66
555.872	50689.1
556.071	50740.3
556.271	50375.76
556.47	50236.5
556.67	49685.6
556.869	50254.93
557.068	50343
557.268	49384.55
557.467	49982.55
557.667	49734.75
557.866	49534.05
558.065	49671.26
558.265	49425.51
558.464	49269.86
558.663	49566.82
558.863	48839.79
559.062	49945.69
559.261	48630.9
559.461	49368.16
559.66	48364.66
559.859	48559.22
560.058	48288.88
560.258	48352.37
560.457	47797.37
560.656	48540.78
560.855	47830.14
561.054	48204.92
561.253	47754.36
561.453	48088.18
561.652	48286.84
561.851	47860.86
562.05	47602.81
562.249	47447.17
562.448	47524.99
562.647	47428.74
562.846	47107.21
563.045	46830.73
563.244	46632.08
563.443	47070.34
563.642	46623.89
563.841	46097.56
564.04	46191.76
564.239	46488.72
564.438	45794.46
564.637	46290.07
564.836	45501.6
565.035	44862.63
565.234	45319.33
565.432	44997.8
565.631	45212.84
565.83	44854.44
566.029	44457.13
566.228	44405.94
566.427	44737.71
566.625	44242.1
566.824	43535.55
567.023	43865.27
567.222	43400.38
567.42	43627.71
567.619	43699.39
567.818	43265.22
568.016	43203.78
568.215	43408.57
568.414	42765.51
568.612	42908.87
568.811	42857.67
569.01	42407.12
569.208	41721.05
569.407	41940.18
569.605	41667.8
569.804	42030.29
570.002	41424.09
570.201	41452.76
570.4	40875.24
570.598	40824.04
570.797	40389.87
570.995	40836.33
571.193	40097.01
571.392	40582.38
571.59	40262.89
571.789	40017.14
571.987	39709.94
572.186	39339.26
572.384	39312.64
572.582	39668.98
572.781	39300.35
572.979	38477.07
573.177	39247.1
573.376	38991.11
573.574	38456.59
573.772	38415.63
573.971	38302.99
574.169	38307.08
574.367	37842.2
574.565	38120.72
574.763	37690.65
574.962	37508.38
575.16	37365.02
575.358	37557.53
575.556	36771.11
575.754	37387.55
575.952	36658.47
576.151	37313.82
576.349	36515.11
576.547	36244.78
576.745	36693.29
576.943	36351.27
577.141	36117.81
577.339	35835.19
577.537	35839.28
577.735	36064.56
577.933	35216.7
578.131	35464.5
578.329	35358.01
578.527	34966.85
578.725	34925.89
578.923	35138.88
579.121	34776.39
579.319	34463.05
579.516	34841.92
579.714	34426.18
579.912	34624.84
580.11	34430.28
580.308	34256.2
580.506	34030.93
580.704	33574.23
580.901	34114.89
581.099	34420.04
581.297	33506.65
581.495	33584.47
581.692	33711.44
581.89	32910.69
582.088	33129.82
582.285	33008.99
582.483	32968.03
582.681	32892.26
582.878	32718.18
583.076	32515.43
583.274	32927.07
583.471	32150.89
583.669	32294.25
583.866	31649.14
584.064	32230.76
584.262	31319.42
584.459	31714.67
584.657	31690.1
584.854	31778.16
585.052	31184.25
585.249	31599.99
585.447	31343.99
585.644	31008.12
585.841	31305.08
586.039	31448.44
586.236	30836.09
586.434	30555.52
586.631	30504.32
586.828	30946.69
587.026	30514.56
587.223	30465.41
587.42	30481.8
587.618	30360.97
587.815	30035.34
588.012	29781.39
588.21	29603.22
588.407	30023.05
588.604	29758.86
588.801	29447.57
588.999	29382.04
589.196	29441.43
589.393	29058.46
589.59	28958.11
589.787	28945.82
589.984	28675.49
590.182	28528.03
590.379	29257.11
590.576	28630.43
590.773	28364.2
590.97	28487.07
591.167	28333.48
591.364	27915.69
591.561	28067.24
591.758	27758
591.955	27811.24
592.152	27895.21
592.349	27776.43
592.546	27887.02
592.743	27624.88
592.94	27387.32
593.137	27375.03
593.334	27612.59
593.531	27139.51
593.727	27553.2
593.924	27227.57
594.121	26744.25
594.318	27411.89
594.515	26666.43
594.712	27102.65
594.908	26615.23
595.105	26701.25
595.302	26486.21
595.499	26396.1
595.696	26301.89
595.892	25916.87
596.089	26506.69
596.286	26119.62
596.482	26219.97
596.679	26117.57
596.876	26011.08
597.072	25822.67
597.269	25843.15
597.466	25431.51
597.662	25880.01
597.859	25382.35
598.055	25394.64
598.252	25277.91
598.448	25253.33
598.645	25509.33
598.841	24849.88
599.038	24939.99
599.234	24985.05
599.431	24817.11
599.627	24546.78
599.824	24511.97
600.02	24462.82
600.217	24651.23
600.413	24403.42
600.609	24106.47
600.806	24471.01
601.002	24401.38
601.198	23961.06
601.395	24317.41
601.591	23840.23
601.787	23801.32
601.984	23639.53
602.18	23571.95
602.376	23637.48
602.572	23395.82
602.769	23647.72
602.965	23418.35
603.161	23274.99
603.357	22953.46
603.553	23150.07
603.75	23274.99
603.946	22699.51
604.142	22928.89
604.338	22564.35
604.534	22785.53
604.73	22574.59
604.926	22488.57
605.122	22617.6
605.318	22291.97
605.514	22132.23
605.71	22382.08
605.906	22275.59
606.102	22066.69
606.298	22121.99
606.494	22040.07
606.69	22048.26
606.886	21931.53
607.082	21702.15
607.278	21761.55
607.474	21532.17
607.67	21669.39
607.866	21386.77
608.062	21771.79
608.257	21499.41
608.453	21227.03
608.649	21165.59
608.845	20991.51
609.041	21345.81
609.236	21052.95
609.432	21249.55
609.628	21292.56
609.824	20977.17
610.019	20760.09
610.215	20739.61
610.411	20899.35
610.606	20854.3
610.802	20731.42
610.998	20549.15
611.193	20905.49
611.389	20311.58
611.584	20452.89
611.78	20356.64
611.976	20389.41
612.171	20653.59
612.367	20317.73
612.562	20106.79
612.758	19828.26
612.953	19893.8
613.149	20200.99
613.344	19883.56
613.539	19992.1
613.735	19748.39
613.93	20106.79
614.126	19600.94
614.321	19959.33
614.517	19662.38
614.712	19813.93
614.907	19502.64
615.103	19789.35
615.298	19400.24
615.493	19555.88
615.688	19172.91
615.884	19725.86
616.079	19095.09
616.274	19191.34
616.47	19144.24
616.665	19138.1
616.86	18898.48
617.055	19013.17
617.25	19109.43
617.445	19097.14
617.641	18802.23
617.836	19103.28
618.031	18564.67
618.226	18671.16
618.421	18712.12
618.616	18808.37
618.811	18370.11
619.006	18832.95
619.201	18071.11
619.396	18316.86
619.591	18126.4
619.786	18521.66
619.981	17819.21
620.176	18157.12
620.371	17608.26
620.566	17886.79
620.761	17813.06
620.956	17882.69
621.151	17868.36
621.346	17561.16
621.541	17303.12
621.735	17479.24
621.93	17305.17
622.125	17086.03
622.32	17057.36
622.515	16803.41
622.709	16991.83
622.904	16983.63
623.099	16471.64
623.294	16617.05
623.488	16625.24
623.683	16514.65
623.878	16320.09
624.072	16395.87
624.267	16361.05
624.462	15992.42
624.656	15943.27
624.851	16180.83
625.046	15844.96
625.24	15582.82
625.435	15724.13
625.629	15699.56
625.824	15478.38
626.018	15597.16
626.213	15214.19
626.407	15703.65
626.602	14966.38
626.796	15117.93
626.991	15390.31
627.185	15044.21
627.38	14972.53
627.574	14696.05
627.768	14763.64
627.963	14679.67
628.157	14530.17
628.352	14700.15
628.546	14141.05
628.74	14319.23
628.935	14282.36
629.129	14364.28
629.323	13850.24
629.517	13870.72
629.712	13758.08
629.906	13772.42
630.1	13557.38
630.294	13790.85
630.489	13393.54
630.683	13696.64
630.877	13301.39
631.071	13172.36
631.265	13481.61
631.459	13307.53
631.653	13244.04
631.848	13383.31
632.042	13149.84
632.236	13201.04
632.43	12949.14
632.624	13108.88
632.818	12924.56
633.012	12756.63
633.206	12748.43
633.4	12777.11
633.594	12486.29
633.788	12465.82
633.982	12474.01
634.176	12508.82
634.369	12338.84
634.563	12199.58
634.757	11933.34
634.951	11898.53
635.145	12121.76
635.339	12070.56
635.533	12009.12
635.726	11945.63
635.92	11822.75
636.114	11656.87
636.308	11634.34
636.501	11632.29
636.695	11538.09
636.889	11273.9
637.083	11318.95
637.276	11484.84
637.47	11265.71
637.664	10960.56
637.857	11120.3
638.051	10770.1
638.244	10995.37
638.438	10983.09
638.632	10880.69
638.825	10790.58
639.019	10710.71
639.212	10591.92
639.406	10591.92
639.599	10510
639.793	10557.11
639.986	10297.02
640.18	10493.62
640.373	10331.83
640.567	10133.18
640.76	10198.71
640.954	10073.79
641.147	10079.93
641.34	9991.87
641.534	9950.91
641.727	9985.72
641.92	9952.96
642.114	9766.59
642.307	9508.55
642.5	9756.35
642.694	9402.05
642.887	9373.38
643.08	9520.84
643.273	9410.25
643.467	9350.85
643.66	9387.72
643.853	9215.69
644.046	9369.29
644.239	9103.05
644.432	9254.6
644.626	9055.95
644.819	9006.8
645.012	9027.28
645.205	8971.98
645.398	8978.12
645.591	8808.14
645.784	8758.99
645.977	8619.73
646.17	8589.01
646.363	8623.83
646.556	8455.89
646.749	8576.72
646.942	8570.58
647.135	8347.35
647.328	8419.03
647.521	8335.06
647.714	8238.81
647.907	8296.15
648.099	8353.49
648.292	8265.43
648.485	8257.24
648.678	8109.79
648.871	8054.49
649.064	7943.9
649.256	7978.72
649.449	7950.04
649.642	7868.13
649.835	7800.54
650.027	7739.1
650.22	7841.5
650.413	7710.43
650.605	7745.25
650.798	7675.62
650.991	7694.05
651.183	7540.45
651.376	7536.35
651.568	7560.93
651.761	7589.6
651.954	7421.67
652.146	7354.09
652.339	7317.22
652.531	7476.96
652.724	7384.8
652.916	7237.35
653.109	7243.49
653.301	7143.14
653.494	7200.49
653.686	7034.6
653.879	7196.39
654.071	7124.71
654.263	6889.2
654.456	7108.33
654.648	7020.27
654.84	6876.91
655.033	6948.59
655.225	6838
655.417	6928.11
655.61	6788.85
655.802	6725.36
655.994	6739.69
656.186	6684.4
656.379	6627.06
656.571	6850.28
656.763	6674.16
656.955	6598.38
657.148	6534.9
657.34	6506.23
657.532	6510.32
657.724	6235.89
657.916	6448.88
658.108	6440.69
658.3	6541.04
658.492	6412.02
658.684	6203.13
658.876	6448.88
659.068	6285.05
659.26	6223.61
659.452	6149.88
659.644	6186.74
659.836	6190.84
660.028	6362.87
660.22	6151.93
660.412	6051.58
660.604	5881.6
660.796	6123.26
660.988	6004.47
661.18	5818.11
661.372	5867.26
661.563	5873.4
661.755	5869.31
661.947	5953.27
662.139	5816.06
662.331	5852.92
662.522	5750.53
662.714	5842.68
662.906	5629.7
663.097	5635.84
663.289	5537.54
663.481	5545.73
663.673	5629.7
663.864	5644.03
664.056	5568.26
664.247	5551.87
664.439	5586.69
664.631	5572.35
664.822	5701.37
665.014	5613.31
665.205	5611.26
665.397	5424.9
665.588	5535.49
665.78	5646.08
665.971	5658.37
666.163	5474.05
666.354	5314.31
666.546	5322.5
666.737	5363.46
666.929	5375.75
667.12	5351.17
667.311	5426.95
667.503	5375.75
667.694	5308.16
667.885	5428.99
668.077	5383.94
668.268	5146.37
668.459	5314.31
668.651	5269.25
668.842	5322.5
669.033	5179.14
669.224	5048.07
669.416	5332.74
669.607	5158.66
669.798	5373.7
669.989	5310.21
670.18	5216.01
670.371	5234.44
670.563	5064.46
670.754	5199.62
670.945	5170.95
671.136	5158.66
671.327	5150.47
671.518	5269.25
671.709	5070.6
671.9	5261.06
672.091	5148.42
672.282	5011.21
672.473	5273.35
672.664	5136.13
672.855	5129.99
673.046	5175.05
673.237	5191.43
673.428	5105.42
673.619	5148.42
673.809	5166.85
674	5170.95
674.191	5318.4
674.382	5105.42
674.573	5277.44
674.764	5170.95
674.954	5197.57
675.145	5162.76
675.336	5134.09
675.527	5093.13
675.717	5091.08
675.908	5179.14
676.099	5148.42
676.289	5158.66
676.48	5248.77
676.671	5181.19
676.861	5273.35
677.052	5140.23
677.243	5207.81
677.433	5181.19
677.624	5136.13
677.814	5179.14
678.005	5418.75
678.195	5379.84
678.386	5207.81
678.576	5123.85
678.767	5375.75
678.957	5181.19
679.148	5449.47
679.338	5365.51
679.529	5263.11
679.719	5314.31
679.909	5381.89
680.1	5342.98
680.29	5629.7
680.481	5539.58
680.671	5459.71
680.861	5390.08
681.052	5418.75
681.242	5267.2
681.432	5476.1
681.622	5457.67
681.813	5408.51
682.003	5428.99
682.193	5308.16
682.383	5515.01
682.573	5539.58
682.764	5533.44
682.954	5506.82
683.144	5670.65
683.334	5412.61
683.524	5523.2
683.714	5502.72
683.904	5586.69
684.094	5482.24
684.284	5611.26
684.474	5811.96
684.664	5465.86
684.854	5508.87
685.044	5564.16
685.234	5455.62
685.424	5631.74
685.614	5414.66
685.804	5480.19
685.994	5472
686.184	5455.62
686.374	5414.66
686.564	5539.58
686.753	5367.56
686.943	5357.32
687.133	5332.74
687.323	5535.49
687.513	5472
687.702	5390.08
687.892	5306.12
688.082	5396.23
688.272	5443.33
688.461	5398.27
688.651	5342.98
688.841	5400.32
689.03	5322.5
689.22	5091.08
689.41	5269.25
689.599	5277.44
689.789	5179.14
689.979	5293.83
690.168	5080.84
690.358	5156.61
690.547	5113.61
690.737	5226.25
690.926	5027.59
691.116	4966.15
691.305	5158.66
691.495	4976.39
691.684	5103.37
691.874	5072.65
692.063	4949.77
692.252	5115.66
692.442	5013.26
692.631	4871.95
692.82	4933.39
693.01	4867.85
693.199	4773.64
693.388	4669.2
693.578	4736.78
693.767	4744.97
693.956	4908.81
694.146	4906.76
694.335	4824.84
694.524	4857.61
694.713	4933.39
694.902	4837.13
695.092	4843.28
695.281	4843.28
695.47	5015.3
695.659	4861.71
695.848	4976.39
696.037	4884.23
696.226	4837.13
696.415	4820.75
696.604	4859.66
696.793	4771.6
696.982	4835.08
697.171	4857.61
697.36	4859.66
697.549	4800.27
697.738	4882.19
697.927	4921.1
698.116	4781.84
698.305	4837.13
698.494	4867.85
698.683	4904.71
698.872	4968.2
699.061	4880.14
699.25	4935.43
699.438	4822.8
699.627	4994.83
699.816	4876.04
700.005	5236.49
700.193	4884.23
700.382	4830.99
700.571	4910.86
700.76	5066.5
700.948	5103.37
701.137	5078.79
701.326	5158.66
701.514	4876.04
701.703	4994.83
701.892	5035.78
702.08	5080.84
702.269	4957.96
702.457	5070.6
702.646	5003.02
702.834	4984.59
703.023	5072.65
703.212	5197.57
703.4	5162.76
703.589	5144.33
703.777	5134.09
703.965	4974.35
704.154	5048.07
704.342	5062.41
704.531	5132.04
704.719	4974.35
704.907	5269.25
705.096	5068.55
705.284	5162.76
705.472	5285.64
705.661	5080.84
705.849	5052.17
706.037	5283.59
706.226	5271.3
706.414	5211.91
706.602	5332.74
706.79	5373.7
706.979	5342.98
707.167	5277.44
707.355	5248.77
707.543	5459.71
707.731	5406.47
707.919	5265.16
708.107	5297.92
708.296	5213.96
708.484	5457.67
708.672	5342.98
708.86	5381.89
709.048	5314.31
709.236	5334.79
709.424	5361.41
709.612	5365.51
709.8	5459.71
709.988	5474.05
710.176	5355.27
710.364	5469.95
710.551	5461.76
710.739	5615.36
710.927	5547.78
711.115	5629.7
711.303	5549.82
711.491	5605.12
711.679	5553.92
711.866	5482.24
712.054	5564.16
712.242	5490.43
712.43	5723.9
712.617	5617.41
712.805	5609.22
712.993	5619.46
713.181	5527.3
713.368	5637.89
713.556	5670.65
713.744	5543.68
713.931	5664.51
714.119	5701.37
714.306	5639.94
714.494	5578.5
714.682	5762.81
714.869	5609.22
715.057	5822.2
715.244	5605.12
715.432	5717.76
715.619	5646.08
715.807	5863.16
715.994	5809.92
716.182	5738.24
716.369	5955.32
716.556	5877.5
716.744	5773.05
716.931	5646.08
717.119	5945.08
717.306	5996.28
717.493	5762.81
717.681	5932.79
717.868	5953.27
718.055	5869.31
718.242	5773.05
718.43	5977.85
718.617	5930.75
718.804	5916.41
718.991	5908.22
719.179	5877.5
719.366	5775.1
719.553	6047.48
719.74	6027
719.927	5908.22
720.114	5992.19
720.301	5803.77
720.488	5930.75
720.676	5986.04
720.863	6024.95
721.05	6170.36
721.237	5891.84
721.424	6039.29
721.611	6137.59
721.798	5863.16
721.985	5904.12
722.172	5891.84
722.358	5945.08
722.545	5983.99
722.732	5967.61
722.919	6119.16
723.106	5940.99
723.293	6125.3
723.48	6004.47
723.667	6072.06
723.853	5873.4
724.04	6051.58
724.227	6080.25
724.414	5981.95
724.6	6080.25
724.787	6276.85
724.974	6156.02
725.161	5949.18
725.347	5844.73
725.534	6008.57
725.72	6092.54
725.907	6067.96
726.094	6129.4
726.28	6067.96
726.467	6047.48
726.653	6160.12
726.84	6088.44
727.027	6217.46
727.213	6014.71
727.4	6018.81
727.586	6024.95
727.773	6080.25
727.959	6051.58
728.145	6158.07
728.332	5914.36
728.518	6039.29
728.705	6117.11
728.891	6172.41
729.077	5981.95
729.264	5983.99
729.45	6076.15
729.636	6172.41
729.823	5998.33
730.009	6293.24
730.195	6127.35
730.382	6072.06
730.568	6043.39
730.754	6153.98
730.94	5953.27
731.126	6051.58
731.313	6063.86
731.499	6133.5
731.685	6020.86
731.871	6174.46
732.057	6041.34
732.243	6184.69
732.429	6070.01
732.615	6063.86
732.801	6088.44
732.987	6012.67
733.173	6117.11
733.359	6078.2
733.545	5922.55
733.731	6162.17
733.917	6076.15
734.103	6178.55
734.289	6174.46
734.475	6035.19
734.661	6145.78
734.847	6127.35
735.033	5932.79
735.219	6094.58
735.404	6010.62
735.59	5930.75
735.776	5998.33
735.962	5924.6
736.148	6117.11
736.333	6178.55
736.519	5959.42
736.705	6014.71
736.89	5885.69
737.076	5973.75
737.262	5930.75
737.447	5924.6
737.633	5715.71
737.819	5981.95
738.004	5822.2
738.19	5963.51
738.375	5852.92
738.561	5873.4
738.747	5789.44
738.932	5871.36
739.118	5879.55
739.303	5889.79
739.489	5844.73
739.674	5744.38
739.859	5820.16
740.045	5842.68
740.23	5777.15
740.416	5728
740.601	5666.56
740.786	5574.4
740.972	5652.22
741.157	5715.71
741.342	5504.77
741.528	5486.34
741.713	5711.61
741.898	5480.19
742.084	5572.35
742.269	5613.31
742.454	5424.9
742.639	5654.27
742.824	5367.56
743.01	5611.26
743.195	5500.67
743.38	5478.15
743.565	5506.82
743.75	5465.86
743.935	5338.88
744.12	5359.36
744.305	5351.17
744.49	5297.92
744.675	5330.69
744.86	5185.29
745.045	5287.68
745.23	5281.54
745.415	5129.99
745.6	5322.5
745.785	4929.29
745.97	5183.24
746.155	5013.26
746.34	5011.21
746.525	5007.11
746.71	4990.73
746.895	4873.99
747.079	5019.4
747.264	4818.7
747.449	4923.15
747.634	4882.19
747.819	4912.91
748.003	4802.32
748.188	4683.53
748.373	4687.63
748.557	4683.53
748.742	4595.47
748.927	4679.44
749.111	4736.78
749.296	4519.7
749.481	4519.7
749.665	4618
749.85	4407.06
750.034	4531.98
750.219	4398.87
750.404	4196.12
750.588	4454.16
750.773	4372.24
750.957	4347.67
751.141	4273.94
751.326	4341.52
751.51	4253.46
751.695	4298.52
751.879	4163.35
752.064	4118.29
752.248	4122.39
752.432	4151.06
752.617	4001.56
752.801	3999.51
752.985	3995.42
753.17	3942.17
753.354	3950.36
753.538	3827.48
753.722	3792.67
753.907	3712.8
754.091	3780.38
754.275	3823.39
754.459	3727.13
754.643	3624.73
754.828	3718.94
755.012	3755.8
755.196	3647.26
755.38	3655.45
755.564	3557.15
755.748	3448.61
755.932	3565.34
756.116	3397.41
756.3	3338.02
756.484	3383.07
756.668	3413.79
756.852	3368.74
757.036	3387.17
757.22	3307.3
757.404	3219.24
757.588	3252
757.772	3276.58
757.956	3135.27
758.14	3284.77
758.323	3129.13
758.507	3135.27
758.691	3000.1
758.875	3176.23
759.059	3098.41
759.242	3082.02
759.426	3020.58
759.61	3034.92
759.794	3118.89
759.977	2983.72
760.161	2965.29
760.345	2897.71
760.528	2885.42
760.712	2907.94
760.895	2838.31
761.079	2817.83
761.263	2758.44
761.446	2836.27
761.63	2828.07
761.813	2897.71
761.997	2819.88
762.18	2776.87
762.364	2694.96
762.547	2662.19
762.731	2639.66
762.914	2674.48
763.098	2645.8
763.281	2748.2
763.464	2768.68
763.648	2711.34
763.831	2625.33
764.015	2692.91
764.198	2701.1
764.381	2654
764.564	2574.13
764.748	2563.89
764.931	2588.46
765.114	2639.66
765.297	2656.04
765.481	2475.82
765.664	2365.23
765.847	2481.97
766.03	2311.99
766.213	2469.68
766.397	2422.58
766.58	2443.06
766.763	2434.86
766.946	2375.47
767.129	2414.38
767.312	2354.99
767.495	2418.48
767.678	2334.51
767.861	2311.99
768.044	2328.37
768.227	2322.23
768.41	2287.41
768.593	2309.94
768.776	2389.81
768.959	2258.74
769.142	2336.56
769.324	2271.03
769.507	2197.3
769.69	2152.24
769.873	2139.96
770.056	2129.72
770.239	2225.97
770.421	2248.5
770.604	2090.81
770.787	2205.49
770.97	2119.48
771.152	2088.76
771.335	2203.44
771.518	2045.75
771.7	2107.19
771.883	2086.71
772.066	2055.99
772.248	1994.55
772.431	2090.81
772.613	2088.76
772.796	2025.27
772.978	1998.65
773.161	1886.01
773.343	1998.65
773.526	1984.31
773.708	1918.78
773.891	1820.47
774.073	1972.02
774.256	1886.01
774.438	1865.53
774.621	1918.78
774.803	1906.49
774.985	1726.27
775.168	1859.38
775.35	1730.36
775.532	1873.72
775.715	1713.98
775.897	1713.98
776.079	1738.55
776.261	1693.5
776.444	1722.17
776.626	1759.03
776.808	1724.22
776.99	1683.26
777.173	1711.93
777.355	1644.35
777.537	1673.02
777.719	1619.77
777.901	1648.44
778.083	1603.39
778.265	1580.86
778.447	1578.81
778.629	1582.91
778.811	1589.05
778.993	1484.61
779.175	1425.22
779.357	1408.83
779.539	1486.65
779.721	1474.37
779.903	1488.7
780.085	1500.99
780.267	1451.84
780.449	1521.47
780.631	1423.17
780.812	1417.02
780.994	1314.63
781.176	1343.3
781.358	1347.39
781.54	1320.77
781.721	1312.58
781.903	1331.01
782.085	1300.29
782.267	1369.92
782.448	1242.95
782.63	1324.87
782.812	1154.88
782.993	1314.63
783.175	1331.01
783.357	1320.77
783.538	1240.9
783.72	1148.74
783.901	1197.89
784.083	1158.98
784.264	1222.47
784.446	1136.45
784.627	1050.44
784.809	1097.54
784.99	1158.98
785.172	1099.59
785.353	1091.4
785.535	1140.55
785.716	1023.81
785.897	1017.67
786.079	962.37
786.26	1099.59
786.441	1140.55
786.623	1056.58
786.804	968.52
786.985	859.98
787.167	1003.33
787.348	966.47
787.529	1036.1
787.71	1068.87
787.891	919.37
788.073	837.45
788.254	915.27
788.435	968.52
788.616	870.22
788.797	943.94
788.978	884.55
789.159	939.85
789.34	991.05
789.522	900.94
789.703	788.3
789.884	907.08
790.065	878.41
790.246	857.93
790.427	851.78
790.607	843.59
790.788	919.37
790.969	798.54
791.15	866.12
791.331	837.45
791.512	792.39
791.693	776.01
791.874	831.3
792.054	804.68
792.235	878.41
792.416	788.3
792.597	802.63
792.778	677.71
792.958	859.98
793.139	794.44
793.32	790.35
793.5	812.87
793.681	702.28
793.862	724.81
794.042	862.02
794.223	718.67
794.404	724.81
794.584	606.03
794.765	745.29
794.945	661.32
795.126	739.15
795.306	776.01
795.487	771.91
795.667	687.95
795.848	753.48
796.028	700.23
796.209	704.33
796.389	644.94
796.57	673.61
796.75	630.6
796.93	683.85
797.111	673.61
797.291	696.14
797.471	665.42
797.652	689.99
797.832	540.49
798.012	577.36
798.192	655.18
798.373	593.74
798.553	624.46
798.733	706.38
798.913	546.64
799.093	597.84
799.274	563.02
799.454	638.8
799.634	671.56
799.814	595.79
799.994	563.02
800.174	581.45
800.354	571.21
800.534	509.77
800.714	700.23
800.894	503.63
801.074	491.34
801.254	501.58
801.434	636.75
801.614	530.25
801.794	501.58
801.974	1111.88
802.154	554.83
802.334	515.92
802.514	474.96
802.693	507.73
802.873	509.77
803.053	657.23
803.233	550.73
803.413	501.58
803.592	474.96
803.772	509.77
803.952	554.83
804.131	481.1
804.311	563.02
804.491	649.04
804.67	517.97
804.85	466.77
805.03	505.68
805.209	456.53
805.389	477.01
805.568	560.97
805.748	493.39
805.928	395.09
806.107	509.77
806.287	540.49
806.466	431.95
806.646	421.71
806.825	474.96
807.004	419.66
807.184	534.35
807.363	429.9
807.543	425.81
807.722	456.53
807.901	395.09
808.081	442.19
808.26	415.57
808.439	436.05
808.619	395.09
808.798	397.14
808.977	431.95
809.156	440.14
809.336	427.85
809.515	511.82
809.694	374.61
809.873	450.38
810.052	370.51
810.231	409.42
810.411	343.89
810.59	481.1
810.769	450.38
810.948	425.81
811.127	333.65
811.306	319.31
811.485	431.95
811.664	458.57
811.843	448.33
812.022	345.94
812.201	436.05
812.38	395.09
812.559	386.9
812.737	456.53
812.916	331.6
813.095	415.57
813.274	415.57
813.453	458.57
813.632	409.42
813.811	352.08
813.989	261.97
814.168	399.18
814.347	397.14
814.526	350.03
814.704	374.61
814.883	380.75
815.062	292.69
815.24	368.46
815.419	296.78
815.598	345.94
815.776	329.55
815.955	333.65
816.133	214.87
816.312	331.6
816.49	304.98
816.669	313.17
816.847	345.94
817.026	368.46
817.204	304.98
817.383	313.17
817.561	229.2
817.74	321.36
817.918	343.89
818.097	304.98
818.275	411.47
818.453	358.22
818.632	386.9
818.81	259.92
818.988	321.36
819.167	255.83
819.345	280.4
819.523	313.17
819.701	380.75
819.879	315.22
820.058	194.39
820.236	282.45
820.414	227.15
820.592	231.25
820.77	290.64
820.948	313.17
821.127	264.02
821.305	331.6
821.483	280.4
821.661	302.93
821.839	288.59
822.017	259.92
822.195	206.67
822.373	284.5
822.551	272.21
822.729	194.39
822.907	216.91
823.085	247.63
823.262	270.16
823.44	206.67
823.618	259.92
823.796	268.11
823.974	280.4
824.152	255.83
824.329	251.73
824.507	300.88
824.685	278.35
824.863	204.63
825.04	221.01
825.218	364.37
825.396	245.59
825.574	251.73
825.751	227.15
825.929	304.98
826.107	159.57
826.284	298.83
826.462	218.96
826.639	223.06
826.817	241.49
826.994	130.9
827.172	206.67
827.349	212.82
827.527	249.68
827.704	292.69
827.882	261.97
828.059	190.29
828.237	239.44
828.414	237.39
828.591	139.09
828.769	296.78
828.946	173.91
829.124	280.4
829.301	253.78
829.478	221.01
829.655	239.44
829.833	182.1
830.01	81.75
830.187	169.81
830.364	255.83
830.542	286.54
830.719	261.97
830.896	251.73
831.073	157.52
831.25	198.48
831.427	188.24
831.604	178
831.782	190.29
831.959	198.48
832.136	194.39
832.313	196.43
832.49	212.82
832.667	145.24
832.844	135
833.021	175.95
833.198	175.95
833.374	145.24
833.551	231.25
833.728	206.67
833.905	241.49
834.082	124.76
834.259	188.24
834.436	309.07
834.612	108.37
834.789	198.48
834.966	135
835.143	196.43
835.319	188.24
835.496	198.48
835.673	165.71
835.85	163.67
836.026	237.39
836.203	243.54
836.38	167.76
836.556	147.28
836.733	169.81
836.909	221.01
837.086	81.75
837.262	120.66
837.439	155.47
837.616	87.89
837.792	96.08
837.968	169.81
838.145	178
838.321	87.89
838.498	167.76
838.674	208.72
838.851	81.75
839.027	112.47
839.203	65.36
839.38	157.52
839.556	173.91
839.732	157.52
839.909	198.48
840.085	214.87
840.261	87.89
840.437	87.89
840.614	106.32
840.79	214.87
840.966	272.21
841.142	161.62
841.318	53.08
841.494	182.1
841.671	163.67
841.847	161.62
842.023	22.36
842.199	165.71
842.375	132.95
842.551	73.56
842.727	130.9
842.903	137.04
843.079	126.8
843.255	137.04
843.431	155.47
843.607	182.1
843.783	118.61
843.959	114.52
844.134	157.52
844.31	147.28
844.486	100.18
844.662	10.07
844.838	24.4
845.013	149.33
845.189	165.71
845.365	124.76
845.541	100.18
845.716	106.32
845.892	128.85
846.068	165.71
846.244	40.79
846.419	81.75
846.595	55.12
846.77	126.8
846.946	104.28
847.122	89.94
847.297	75.6
847.473	208.72
847.648	91.99
847.824	124.76
847.999	83.8
848.175	151.38
848.35	122.71
848.526	96.08
848.701	182.1
848.876	147.28
849.052	83.8
849.227	100.18
849.403	116.56
849.578	42.84
849.753	61.27
849.929	132.95
850.104	61.27
850.279	57.17
850.454	145.24
850.63	114.52
850.805	83.8
850.98	79.7
851.155	-6.31
851.33	79.7
851.505	63.32
851.681	130.9
851.856	79.7
852.031	100.18
852.206	151.38
852.381	26.45
852.556	48.98
852.731	75.6
852.906	67.41
853.081	108.37
853.256	141.14
853.431	104.28
853.606	59.22
853.781	34.64
853.956	57.17
854.131	112.47
854.305	61.27
854.48	34.64
854.655	36.69
854.83	57.17
855.005	73.56
855.18	122.71
855.354	120.66
855.529	14.17
855.704	-6.31
855.879	65.36
856.053	42.84
856.228	98.13
856.403	67.41
856.577	98.13
856.752	24.4
856.926	108.37
857.101	69.46
857.276	42.84
857.45	116.56
857.625	122.71
857.799	67.41
857.974	65.36
858.148	48.98
858.323	-6.31
858.497	110.42
858.672	67.41
858.846	100.18
859.02	75.6
859.195	30.55
859.369	63.32
859.543	77.65
859.718	91.99
859.892	28.5
860.066	116.56
860.241	18.26
860.415	81.75
860.589	51.03
860.763	22.36
860.938	14.17
861.112	61.27
861.286	26.45
861.46	87.89
861.634	51.03
861.808	40.79
861.982	5.97
862.157	48.98
862.331	69.46
862.505	-14.51
862.679	51.03
862.853	1.88
863.027	63.32
863.201	102.23
863.375	1.88
863.549	96.08
863.722	48.98
863.896	130.9
864.07	36.69
864.244	-2.22
864.418	89.94
864.592	18.26
864.766	89.94
864.939	42.84
865.113	1.88
865.287	91.99
865.461	-0.17
865.634	38.74
865.808	44.88
865.982	61.27
866.156	110.42
866.329	-2.22
866.503	32.6
866.676	118.61
866.85	87.89
867.024	-20.65
867.197	73.56
867.371	71.51
867.544	59.22
867.718	22.36
867.891	100.18
868.065	5.97
868.238	89.94
868.412	-45.23
868.585	53.08
868.759	30.55
868.932	51.03
869.105	40.79
869.279	32.6
869.452	40.79
869.625	63.32
869.799	32.6
869.972	34.64
870.145	30.55
870.319	22.36
870.492	18.26
870.665	-49.32
870.838	12.12
871.011	-59.56
871.185	55.12
871.358	-77.99
871.531	-2.22
871.704	63.32
871.877	108.37
872.05	20.31
872.223	65.36
872.396	53.08
872.569	30.55
872.742	20.31
872.915	106.32
873.088	1.88
873.261	3.93
873.434	51.03
873.607	44.88
873.78	91.99
873.953	14.17
874.126	53.08
874.299	59.22
874.471	51.03
874.644	75.6
874.817	124.76
874.99	157.52
875.163	-8.36
875.335	61.27
875.508	32.6
875.681	98.13
875.853	18.26
876.026	8.02
876.199	51.03
876.371	59.22
876.544	157.52
876.717	91.99
876.889	-57.51
877.062	14.17
877.234	5.97
877.407	3.93
877.579	51.03
877.752	-39.08
877.924	57.17
878.097	65.36
878.269	59.22
878.442	59.22
878.614	108.37
878.786	46.93
878.959	-14.51
879.131	48.98
879.303	-12.46
879.476	-8.36
879.648	1.88
879.82	73.56
879.993	-0.17
880.165	-10.41
880.337	-6.31
880.509	-2.22
880.681	-24.75
880.854	10.07
881.026	42.84
881.198	126.8
881.37	89.94
881.542	16.21
881.714	-24.75
881.886	16.21
882.058	28.5
882.23	57.17
882.402	-6.31
882.574	63.32
882.746	100.18
882.918	32.6
883.09	57.17
883.262	81.75
883.434	42.84
883.606	26.45
883.778	53.08
883.95	87.89
884.122	-59.56
884.293	65.36
884.465	57.17
884.637	67.41
884.809	-22.7
884.98	-8.36
885.152	98.13
885.324	102.23
885.496	-0.17
885.667	-63.66
885.839	63.32
886.011	44.88
886.182	16.21
886.354	5.97
886.525	18.26
886.697	79.7
886.869	22.36
887.04	-2.22
887.212	130.9
887.383	89.94
887.555	14.17
887.726	1.88
887.897	-6.31
888.069	63.32
888.24	108.37
888.412	16.21
888.583	61.27
888.754	48.98
888.926	-14.51
889.097	42.84
889.268	-10.41
889.44	-53.42
889.611	55.12
889.782	36.69
889.953	-57.51
890.125	83.8
890.296	-26.79
890.467	55.12
890.638	-20.65
890.809	44.88
890.98	22.36
891.151	32.6
891.323	42.84
891.494	34.64
891.665	-67.75
891.836	-10.41
892.007	83.8
892.178	108.37
892.349	14.17
892.52	26.45
892.691	-6.31
892.862	-8.36
893.032	-55.47
893.203	16.21
893.374	100.18
893.545	91.99
893.716	-14.51
893.887	16.21
894.057	10.07
894.228	38.74
894.399	-10.41
894.57	55.12
894.74	3.93
894.911	73.56
895.082	-2.22
895.253	-47.27
895.423	10.07
895.594	-0.17
895.764	85.84
895.935	26.45
896.106	14.17
896.276	26.45
896.447	59.22
896.617	16.21
896.788	-8.36
896.958	57.17
897.129	-6.31
897.299	-20.65
897.47	110.42
897.64	18.26
897.81	-59.56
897.981	20.31
898.151	-10.41
898.322	36.69
898.492	26.45
898.662	-47.27
898.832	48.98
899.003	10.07
899.173	16.21
899.343	8.02
899.513	-2.22
