Data from USB4F104151__48__11-30-30-712.txt Node

Date: Fri Mar 14 11:30:30 EDT 2025
User: louis
Spectrometer: USB4F10415
Trigger mode: 4
Integration Time (sec): 5.000000E-2
Scans to average: 1
Electric dark correction enabled: true
Nonlinearity correction enabled: false
Boxcar width: 0
XAxis mode: Wavelengths
Number of Pixels in Spectrum: 3648
>>>>>Begin Spectral Data<<<<<
178.204	-130.56
178.424	-130.56
178.644	-130.56
178.864	-157.18
179.084	-210.43
179.304	-11.78
179.524	-3.58
179.744	14.85
179.964	10.75
180.184	-5.63
180.404	20.99
180.624	-9.73
180.844	-50.69
181.064	8.7
181.283	29.18
181.503	-17.92
181.723	14.85
181.943	-11.78
182.163	61.95
182.383	-38.4
182.602	37.38
182.822	37.38
183.042	78.33
183.262	76.29
183.482	29.18
183.701	-9.73
183.921	20.99
184.141	-5.63
184.361	107.01
184.58	57.86
184.8	39.42
185.02	31.23
185.239	72.19
185.459	-22.02
185.679	-22.02
185.898	-9.73
186.118	27.14
186.338	-73.21
186.557	49.66
186.777	-3.58
186.997	47.62
187.216	12.8
187.436	82.43
187.655	25.09
187.875	59.9
188.095	14.85
188.314	74.24
188.534	137.73
188.753	8.7
188.973	-3.58
189.192	61.95
189.412	84.48
189.631	45.57
189.851	20.99
190.07	51.71
190.29	-3.58
190.509	31.23
190.729	-24.06
190.948	78.33
191.168	131.58
191.387	25.09
191.607	59.9
191.826	43.52
192.045	12.8
192.265	-52.74
192.484	37.38
192.704	-3.58
192.923	-101.89
193.142	104.96
193.362	-46.59
193.581	74.24
193.8	59.9
194.02	25.09
194.239	20.99
194.458	0.51
194.678	41.47
194.897	61.95
195.116	-28.16
195.335	14.85
195.555	-52.74
195.774	107.01
195.993	2.56
196.212	43.52
196.432	-36.35
196.651	12.8
196.87	0.51
197.089	29.18
197.308	8.7
197.528	66.05
197.747	12.8
197.966	41.47
198.185	109.05
198.404	-11.78
198.623	-17.92
198.842	2.56
199.062	39.42
199.281	76.29
199.5	4.61
199.719	33.28
199.938	59.9
200.157	78.33
200.376	82.43
200.595	47.62
200.814	43.52
201.033	33.28
201.252	74.24
201.471	92.67
201.69	61.95
201.909	127.49
202.128	-15.87
202.347	43.52
202.566	-26.11
202.785	12.8
203.004	-32.26
203.223	72.19
203.442	4.61
203.661	16.9
203.879	47.62
204.098	49.66
204.317	-40.45
204.536	68.09
204.755	-19.97
204.974	31.23
205.193	39.42
205.411	94.72
205.63	70.14
205.849	-19.97
206.068	-34.3
206.287	70.14
206.505	76.29
206.724	-30.21
206.943	66.05
207.162	94.72
207.381	90.62
207.599	53.76
207.818	39.42
208.037	-19.97
208.255	-1.54
208.474	8.7
208.693	10.75
208.911	-5.63
209.13	37.38
209.349	14.85
209.567	162.3
209.786	72.19
210.005	29.18
210.223	8.7
210.442	-52.74
210.661	29.18
210.879	92.67
211.098	68.09
211.316	59.9
211.535	18.94
211.753	31.23
211.972	51.71
212.191	49.66
212.409	57.86
212.628	33.28
212.846	66.05
213.065	70.14
213.283	135.68
213.502	4.61
213.72	37.38
213.938	49.66
214.157	92.67
214.375	-52.74
214.594	20.99
214.812	53.76
215.031	37.38
215.249	20.99
215.467	53.76
215.686	78.33
215.904	49.66
216.122	-11.78
216.341	86.53
216.559	61.95
216.778	-11.78
216.996	2.56
217.214	64
217.432	29.18
217.651	-50.69
217.869	10.75
218.087	-11.78
218.306	55.81
218.524	12.8
218.742	66.05
218.96	-7.68
219.179	78.33
219.397	45.57
219.615	139.77
219.833	8.7
220.051	-46.59
220.27	102.91
220.488	84.48
220.706	-11.78
220.924	-32.26
221.142	41.47
221.36	43.52
221.578	-26.11
221.796	64
222.015	41.47
222.233	0.51
222.451	53.76
222.669	8.7
222.887	-19.97
223.105	16.9
223.323	47.62
223.541	2.56
223.759	55.81
223.977	37.38
224.195	-11.78
224.413	102.91
224.631	98.81
224.849	-13.82
225.067	64
225.285	8.7
225.503	37.38
225.721	8.7
225.939	78.33
226.157	0.51
226.375	49.66
226.592	-13.82
226.81	-77.31
227.028	66.05
227.246	45.57
227.464	31.23
227.682	-46.59
227.9	55.81
228.117	39.42
228.335	86.53
228.553	45.57
228.771	68.09
228.989	45.57
229.206	96.77
229.424	90.62
229.642	-11.78
229.86	64
230.077	84.48
230.295	2.56
230.513	25.09
230.731	74.24
230.948	78.33
231.166	84.48
231.384	-3.58
231.601	29.18
231.819	8.7
232.037	-65.02
232.254	-15.87
232.472	-7.68
232.689	94.72
232.907	78.33
233.125	33.28
233.342	14.85
233.56	53.76
233.777	16.9
233.995	98.81
234.213	45.57
234.43	51.71
234.648	25.09
234.865	78.33
235.083	45.57
235.3	152.06
235.518	57.86
235.735	86.53
235.953	4.61
236.17	-19.97
236.388	-19.97
236.605	-19.97
236.822	82.43
237.04	29.18
237.257	45.57
237.475	16.9
237.692	-9.73
237.909	102.91
238.127	4.61
238.344	-19.97
238.562	-26.11
238.779	-69.12
238.996	25.09
239.214	76.29
239.431	78.33
239.648	29.18
239.865	-5.63
240.083	68.09
240.3	47.62
240.517	-48.64
240.735	-54.78
240.952	45.57
241.169	88.57
241.386	25.09
241.603	37.38
241.821	45.57
242.038	100.86
242.255	-13.82
242.472	-42.5
242.689	-11.78
242.907	68.09
243.124	31.23
243.341	-67.07
243.558	61.95
243.775	-5.63
243.992	12.8
244.209	-15.87
244.426	109.05
244.643	20.99
244.86	33.28
245.078	-13.82
245.295	100.86
245.512	8.7
245.729	-11.78
245.946	4.61
246.163	45.57
246.38	20.99
246.597	61.95
246.814	4.61
247.031	2.56
247.248	70.14
247.464	61.95
247.681	45.57
247.898	109.05
248.115	10.75
248.332	-28.16
248.549	41.47
248.766	123.39
248.983	49.66
249.2	96.77
249.417	33.28
249.633	-13.82
249.85	49.66
250.067	25.09
250.284	-13.82
250.501	68.09
250.717	12.8
250.934	8.7
251.151	-5.63
251.368	59.9
251.585	80.38
251.801	16.9
252.018	-38.4
252.235	-3.58
252.451	23.04
252.668	23.04
252.885	29.18
253.102	41.47
253.318	43.52
253.535	18.94
253.752	-3.58
253.968	37.38
254.185	29.18
254.401	-15.87
254.618	12.8
254.835	-19.97
255.051	92.67
255.268	45.57
255.484	23.04
255.701	41.47
255.917	57.86
256.134	61.95
256.351	-38.4
256.567	8.7
256.784	43.52
257	-22.02
257.217	39.42
257.433	78.33
257.65	47.62
257.866	66.05
258.082	-19.97
258.299	-7.68
258.515	84.48
258.732	-7.68
258.948	37.38
259.165	25.09
259.381	14.85
259.597	47.62
259.814	-46.59
260.03	-28.16
260.246	-54.78
260.463	84.48
260.679	102.91
260.895	61.95
261.112	49.66
261.328	94.72
261.544	-17.92
261.761	147.97
261.977	94.72
262.193	29.18
262.409	20.99
262.626	70.14
262.842	-1.54
263.058	45.57
263.274	90.62
263.49	78.33
263.707	-7.68
263.923	86.53
264.139	-44.54
264.355	23.04
264.571	53.76
264.787	111.1
265.004	109.05
265.22	104.96
265.436	-38.4
265.652	41.47
265.868	-110.08
266.084	-75.26
266.3	-17.92
266.516	-32.26
266.732	-36.35
266.948	-5.63
267.164	51.71
267.38	-15.87
267.596	16.9
267.812	70.14
268.028	68.09
268.244	-71.17
268.46	76.29
268.676	39.42
268.892	-3.58
269.108	16.9
269.324	0.51
269.54	-32.26
269.756	37.38
269.972	-28.16
270.188	41.47
270.403	27.14
270.619	-3.58
270.835	16.9
271.051	-42.5
271.267	18.94
271.483	55.81
271.698	121.34
271.914	10.75
272.13	94.72
272.346	25.09
272.562	90.62
272.777	131.58
272.993	33.28
273.209	37.38
273.425	57.86
273.64	-42.5
273.856	76.29
274.072	-40.45
274.287	61.95
274.503	76.29
274.719	4.61
274.934	0.51
275.15	37.38
275.366	-85.5
275.581	10.75
275.797	74.24
276.012	72.19
276.228	2.56
276.444	-46.59
276.659	90.62
276.875	-15.87
277.09	0.51
277.306	0.51
277.521	84.48
277.737	-36.35
277.952	66.05
278.168	49.66
278.383	-42.5
278.599	39.42
278.814	90.62
279.03	78.33
279.245	74.24
279.461	-11.78
279.676	0.51
279.892	-22.02
280.107	35.33
280.322	-36.35
280.538	78.33
280.753	66.05
280.969	33.28
281.184	12.8
281.399	16.9
281.615	2.56
281.83	82.43
282.045	61.95
282.26	55.81
282.476	35.33
282.691	8.7
282.906	47.62
283.122	29.18
283.337	10.75
283.552	-5.63
283.767	10.75
283.983	49.66
284.198	45.57
284.413	31.23
284.628	-5.63
284.843	31.23
285.058	78.33
285.274	18.94
285.489	-11.78
285.704	92.67
285.919	-30.21
286.134	20.99
286.349	98.81
286.564	45.57
286.779	96.77
286.995	20.99
287.21	-56.83
287.425	-7.68
287.64	10.75
287.855	47.62
288.07	-38.4
288.285	39.42
288.5	74.24
288.715	100.86
288.93	25.09
289.145	-19.97
289.36	92.67
289.575	-1.54
289.79	102.91
290.004	10.75
290.219	-5.63
290.434	43.52
290.649	-32.26
290.864	4.61
291.079	-38.4
291.294	111.1
291.509	45.57
291.724	-3.58
291.938	61.95
292.153	53.76
292.368	23.04
292.583	12.8
292.798	78.33
293.012	2.56
293.227	33.28
293.442	-5.63
293.657	86.53
293.871	55.81
294.086	31.23
294.301	70.14
294.516	61.95
294.73	27.14
294.945	29.18
295.16	92.67
295.374	45.57
295.589	78.33
295.804	35.33
296.018	0.51
296.233	66.05
296.447	-44.54
296.662	55.81
296.877	96.77
297.091	8.7
297.306	-11.78
297.52	27.14
297.735	-11.78
297.949	35.33
298.164	61.95
298.378	-7.68
298.593	-52.74
298.807	4.61
299.022	70.14
299.236	49.66
299.451	29.18
299.665	45.57
299.88	-7.68
300.094	66.05
300.309	10.75
300.523	8.7
300.737	-32.26
300.952	16.9
301.166	23.04
301.381	-3.58
301.595	117.25
301.809	49.66
302.024	59.9
302.238	-3.58
302.452	37.38
302.667	4.61
302.881	18.94
303.095	147.97
303.309	86.53
303.524	37.38
303.738	8.7
303.952	61.95
304.166	29.18
304.381	-11.78
304.595	127.49
304.809	27.14
305.023	25.09
305.237	-7.68
305.452	27.14
305.666	-5.63
305.88	66.05
306.094	51.71
306.308	10.75
306.522	-34.3
306.736	31.23
306.95	68.09
307.164	-1.54
307.379	51.71
307.593	43.52
307.807	37.38
308.021	68.09
308.235	25.09
308.449	20.99
308.663	-13.82
308.877	121.34
309.091	55.81
309.305	-38.4
309.519	-36.35
309.733	61.95
309.947	37.38
310.161	33.28
310.374	53.76
310.588	-19.97
310.802	-30.21
311.016	-5.63
311.23	70.14
311.444	-1.54
311.658	68.09
311.872	82.43
312.085	88.57
312.299	92.67
312.513	57.86
312.727	82.43
312.941	53.76
313.154	0.51
313.368	4.61
313.582	41.47
313.796	33.28
314.009	80.38
314.223	72.19
314.437	-22.02
314.651	80.38
314.864	29.18
315.078	18.94
315.292	12.8
315.505	86.53
315.719	18.94
315.933	-13.82
316.146	14.85
316.36	2.56
316.573	27.14
316.787	55.81
317.001	-1.54
317.214	23.04
317.428	20.99
317.641	125.44
317.855	37.38
318.068	18.94
318.282	61.95
318.495	88.57
318.709	16.9
318.922	6.66
319.136	98.81
319.349	37.38
319.563	-19.97
319.776	111.1
319.99	-11.78
320.203	10.75
320.417	2.56
320.63	39.42
320.843	68.09
321.057	6.66
321.27	29.18
321.483	51.71
321.697	137.73
321.91	20.99
322.124	25.09
322.337	51.71
322.55	94.72
322.763	68.09
322.977	53.76
323.19	29.18
323.403	70.14
323.617	86.53
323.83	80.38
324.043	6.66
324.256	12.8
324.469	-7.68
324.683	61.95
324.896	25.09
325.109	55.81
325.322	35.33
325.535	8.7
325.748	76.29
325.962	43.52
326.175	74.24
326.388	12.8
326.601	70.14
326.814	-3.58
327.027	2.56
327.24	37.38
327.453	113.15
327.666	78.33
327.879	82.43
328.092	25.09
328.305	90.62
328.518	39.42
328.731	2.56
328.944	-22.02
329.157	27.14
329.37	78.33
329.583	66.05
329.796	61.95
330.009	-19.97
330.222	72.19
330.435	78.33
330.648	2.56
330.861	45.57
331.073	8.7
331.286	12.8
331.499	45.57
331.712	25.09
331.925	82.43
332.138	10.75
332.35	84.48
332.563	-46.59
332.776	70.14
332.989	-28.16
333.202	39.42
333.414	41.47
333.627	16.9
333.84	-11.78
334.053	70.14
334.265	-11.78
334.478	8.7
334.691	61.95
334.903	-38.4
335.116	14.85
335.329	78.33
335.541	8.7
335.754	70.14
335.966	35.33
336.179	29.18
336.392	-1.54
336.604	68.09
336.817	76.29
337.029	53.76
337.242	72.19
337.454	156.16
337.667	14.85
337.88	49.66
338.092	-11.78
338.305	-11.78
338.517	43.52
338.729	70.14
338.942	45.57
339.154	27.14
339.367	-36.35
339.579	115.2
339.792	82.43
340.004	70.14
340.217	37.38
340.429	156.16
340.641	29.18
340.854	29.18
341.066	76.29
341.278	57.86
341.491	90.62
341.703	74.24
341.915	-1.54
342.128	37.38
342.34	61.95
342.552	66.05
342.764	45.57
342.977	18.94
343.189	18.94
343.401	102.91
343.613	45.57
343.826	41.47
344.038	16.9
344.25	-7.68
344.462	78.33
344.674	37.38
344.886	-69.12
345.099	49.66
345.311	39.42
345.523	-1.54
345.735	33.28
345.947	4.61
346.159	88.57
346.371	-11.78
346.583	49.66
346.795	147.97
347.007	-1.54
347.219	23.04
347.431	47.62
347.643	49.66
347.855	18.94
348.067	53.76
348.279	12.8
348.491	12.8
348.703	-11.78
348.915	-15.87
349.127	45.57
349.339	25.09
349.551	-46.59
349.763	100.86
349.975	27.14
350.187	109.05
350.399	86.53
350.61	45.57
350.822	12.8
351.034	102.91
351.246	53.76
351.458	45.57
351.669	2.56
351.881	94.72
352.093	127.49
352.305	43.52
352.517	82.43
352.728	139.77
352.94	20.99
353.152	80.38
353.363	12.8
353.575	90.62
353.787	70.14
353.999	35.33
354.21	66.05
354.422	23.04
354.633	-3.58
354.845	43.52
355.057	72.19
355.268	8.7
355.48	102.91
355.692	23.04
355.903	-48.64
356.115	45.57
356.326	-58.88
356.538	59.9
356.749	90.62
356.961	68.09
357.172	25.09
357.384	-9.73
357.595	84.48
357.807	29.18
358.018	-3.58
358.23	111.1
358.441	74.24
358.653	96.77
358.864	12.8
359.075	12.8
359.287	61.95
359.498	57.86
359.709	4.61
359.921	29.18
360.132	-15.87
360.344	16.9
360.555	-13.82
360.766	76.29
360.977	2.56
361.189	70.14
361.4	35.33
361.611	-5.63
361.823	90.62
362.034	33.28
362.245	20.99
362.456	53.76
362.667	-5.63
362.879	47.62
363.09	61.95
363.301	107.01
363.512	57.86
363.723	-32.26
363.935	37.38
364.146	49.66
364.357	76.29
364.568	111.1
364.779	-65.02
364.99	78.33
365.201	-60.93
365.412	76.29
365.623	-28.16
365.834	66.05
366.045	-15.87
366.256	33.28
366.467	27.14
366.678	45.57
366.889	49.66
367.1	57.86
367.311	51.71
367.522	74.24
367.733	-13.82
367.944	72.19
368.155	-44.54
368.366	49.66
368.577	39.42
368.788	76.29
368.999	20.99
369.209	59.9
369.42	168.45
369.631	172.54
369.842	61.95
370.053	16.9
370.264	98.81
370.474	18.94
370.685	12.8
370.896	51.71
371.107	43.52
371.317	119.29
371.528	-11.78
371.739	20.99
371.95	41.47
372.16	37.38
372.371	33.28
372.582	70.14
372.792	51.71
373.003	78.33
373.214	43.52
373.424	74.24
373.635	86.53
373.846	20.99
374.056	53.76
374.267	-65.02
374.477	90.62
374.688	-40.45
374.898	-22.02
375.109	-13.82
375.319	29.18
375.53	166.4
375.74	72.19
375.951	-38.4
376.161	78.33
376.372	12.8
376.582	59.9
376.793	78.33
377.003	4.61
377.214	45.57
377.424	12.8
377.635	92.67
377.845	4.61
378.055	115.2
378.266	-44.54
378.476	0.51
378.686	-30.21
378.897	18.94
379.107	92.67
379.317	59.9
379.528	47.62
379.738	86.53
379.948	10.75
380.158	27.14
380.369	12.8
380.579	74.24
380.789	25.09
380.999	53.76
381.21	68.09
381.42	10.75
381.63	12.8
381.84	51.71
382.05	68.09
382.261	18.94
382.471	61.95
382.681	98.81
382.891	102.91
383.101	90.62
383.311	12.8
383.521	-9.73
383.731	-30.21
383.941	49.66
384.151	4.61
384.361	125.44
384.571	100.86
384.781	23.04
384.991	68.09
385.201	129.53
385.411	107.01
385.621	39.42
385.831	70.14
386.041	111.1
386.251	107.01
386.461	70.14
386.671	43.52
386.881	70.14
387.091	47.62
387.301	29.18
387.511	16.9
387.72	70.14
387.93	66.05
388.14	68.09
388.35	29.18
388.56	90.62
388.769	125.44
388.979	37.38
389.189	35.33
389.399	66.05
389.609	29.18
389.818	111.1
390.028	135.68
390.238	111.1
390.447	47.62
390.657	88.57
390.867	29.18
391.076	27.14
391.286	53.76
391.496	143.87
391.705	27.14
391.915	23.04
392.125	59.9
392.334	-13.82
392.544	92.67
392.753	8.7
392.963	-32.26
393.172	49.66
393.382	61.95
393.591	135.68
393.801	33.28
394.01	109.05
394.22	47.62
394.429	78.33
394.639	96.77
394.848	76.29
395.058	133.63
395.267	102.91
395.477	113.15
395.686	160.25
395.895	123.39
396.105	98.81
396.314	156.16
396.524	68.09
396.733	92.67
396.942	59.9
397.152	59.9
397.361	115.2
397.57	18.94
397.78	119.29
397.989	123.39
398.198	184.83
398.407	115.2
398.617	150.01
398.826	94.72
399.035	84.48
399.244	102.91
399.453	143.87
399.663	86.53
399.872	172.54
400.081	37.38
400.29	203.26
400.499	16.9
400.708	80.38
400.917	109.05
401.127	121.34
401.336	98.81
401.545	180.73
401.754	147.97
401.963	186.88
402.172	96.77
402.381	59.9
402.59	59.9
402.799	119.29
403.008	98.81
403.217	94.72
403.426	70.14
403.635	-30.21
403.844	66.05
404.053	66.05
404.262	129.53
404.471	107.01
404.68	123.39
404.888	119.29
405.097	74.24
405.306	131.58
405.515	78.33
405.724	119.29
405.933	125.44
406.142	168.45
406.35	233.98
406.559	152.06
406.768	176.64
406.977	221.69
407.185	164.35
407.394	184.83
407.603	152.06
407.812	154.11
408.02	225.79
408.229	197.12
408.438	102.91
408.646	174.59
408.855	260.6
409.064	264.7
409.272	209.4
409.481	328.19
409.69	217.6
409.898	246.27
410.107	201.21
410.315	209.4
410.524	248.32
410.733	315.9
410.941	295.42
411.15	270.84
411.358	311.8
411.567	377.34
411.775	315.9
411.984	348.67
412.192	399.87
412.401	352.76
412.609	418.3
412.818	438.78
413.026	426.49
413.234	502.26
413.443	332.28
413.651	406.01
413.86	545.27
414.068	512.5
414.276	518.65
414.485	537.08
414.693	606.71
414.901	647.67
415.11	651.77
415.318	596.47
415.526	627.19
415.734	692.73
415.943	586.23
416.151	700.92
416.359	715.25
416.567	682.49
416.776	780.79
416.984	772.6
417.192	872.95
417.4	727.54
417.608	889.33
417.817	926.19
418.025	895.47
418.233	1001.97
418.441	965.11
418.649	963.06
418.857	1118.7
419.065	1153.52
419.273	1118.7
419.481	1092.08
419.689	1118.7
419.897	1298.92
420.105	1204.72
420.313	1380.84
420.521	1290.73
420.729	1464.81
420.937	1475.05
421.145	1503.72
421.353	1460.71
421.561	1618.41
421.769	1677.8
421.977	1683.94
422.185	1688.04
422.393	1864.16
422.601	1962.47
422.809	1913.31
423.017	1880.55
423.224	2044.38
423.432	2091.49
423.64	2062.82
423.848	2345.44
424.056	2257.37
424.263	2507.23
424.471	2288.09
424.679	2576.86
424.887	2476.51
425.094	2648.54
425.302	2744.79
425.51	2697.69
425.718	2953.68
425.925	2875.86
426.133	2894.29
426.341	3174.86
426.548	3295.69
426.756	3246.54
426.964	3314.13
427.171	3525.07
427.379	3592.65
427.586	3686.86
427.794	3729.86
428.001	3969.48
428.209	4153.79
428.417	3953.09
428.624	4374.97
428.832	4440.51
429.039	4307.39
429.247	4344.25
429.454	4850.1
429.662	5056.95
429.869	4837.81
430.076	5171.63
430.284	4882.87
430.491	5231.02
430.699	5370.29
430.906	5663.15
431.114	5491.12
431.321	5788.07
431.528	5796.26
431.736	6121.89
431.943	6597.02
432.15	6222.24
432.358	6347.17
432.565	6853.02
432.772	6783.38
432.979	7000.47
433.187	7258.51
433.394	7278.99
433.601	7784.84
433.808	7813.51
434.016	7727.5
434.223	8083.84
434.43	8569.21
434.637	8245.63
434.844	8909.18
435.052	8847.74
435.259	8741.24
435.466	9044.34
435.673	8948.09
435.88	9605.49
436.087	10062.18
436.294	9933.16
436.501	9722.22
436.708	9965.93
436.915	10275.17
437.122	10836.31
437.329	10715.48
437.537	11268.44
437.743	11239.76
437.95	11059.54
438.157	11905.35
438.364	12294.47
438.571	12333.38
438.778	12153.16
438.985	13467.95
439.192	12841.28
439.399	13357.36
439.606	12951.87
439.813	13549.87
440.02	14504.23
440.227	14190.89
440.433	14143.78
440.64	14670.11
440.847	14379.3
441.054	15016.22
441.261	15747.34
441.467	15696.14
441.674	15829.26
441.881	16617.73
442.088	16380.17
442.294	16425.22
442.501	17029.37
442.708	17334.52
442.914	17846.51
443.121	18493.67
443.328	18329.83
443.534	19415.26
443.741	18870.5
443.948	18645.22
444.154	19988.69
444.361	19523.8
444.568	19853.52
444.774	19988.69
444.981	20099.28
445.187	20723.91
445.394	21956.78
445.6	21487.8
445.807	23400.6
446.013	22345.9
446.22	22841.51
446.426	23672.98
446.633	24055.95
446.839	24639.62
447.046	23578.78
447.252	24737.93
447.459	25036.93
447.665	24891.52
447.871	26067.06
448.078	27347.04
448.284	25718.9
448.491	26613.87
448.697	27394.14
448.903	27963.48
449.11	27822.17
449.316	27521.12
449.522	28350.54
449.728	28891.21
449.935	29141.06
450.141	28950.6
450.347	29577.28
450.553	28794.95
450.76	29315.14
450.966	30160.95
451.172	29478.97
451.378	30580.78
451.584	29763.64
451.791	30443.57
451.997	30378.03
452.203	31103.01
452.409	30978.09
452.615	30869.54
452.821	29917.24
453.027	29349.95
453.233	30746.67
453.44	29511.74
453.646	29853.75
453.852	29898.81
454.058	30398.51
454.264	29495.36
454.47	29859.9
454.676	29210.69
454.882	30588.97
455.088	28141.65
455.294	28231.76
455.5	28612.68
455.705	28639.31
455.911	27476.06
456.117	27017.32
456.323	26785.9
456.529	25104.51
456.735	26288.24
456.941	25761.91
457.147	25387.13
457.352	24459.4
457.558	24301.71
457.764	24305.81
457.97	23885.97
458.176	23214.24
458.381	23113.89
458.587	21987.5
458.793	22112.43
458.999	20910.27
459.204	22417.58
459.41	21510.33
459.616	20273.35
459.821	20447.43
460.027	20156.62
460.233	19665.11
460.438	19077.34
460.644	19116.25
460.85	17983.73
461.055	17672.43
461.261	17789.17
461.466	16527.62
461.672	16113.93
461.878	17254.65
462.083	16064.78
462.289	16046.35
462.494	15526.16
462.7	15061.27
462.905	14602.53
463.111	15231.26
463.316	15276.31
463.522	14827.81
463.727	14602.53
463.932	14993.69
464.138	14653.73
464.343	14807.33
464.549	14311.72
464.754	14870.81
464.959	14584.1
465.165	14319.91
465.37	13912.36
465.575	13304.12
465.781	14049.58
465.986	14231.85
466.191	13488.43
466.397	13326.64
466.602	12667.2
466.807	13144.38
467.012	13134.14
467.218	12984.63
467.423	12769.6
467.628	12982.59
467.833	13453.62
468.038	12960.06
468.244	12775.74
468.449	13414.71
468.654	12728.64
468.859	12665.15
469.064	12697.92
469.269	11733.32
469.474	12310.85
469.679	12570.94
469.885	12024.14
470.09	12161.35
470.295	12157.25
470.5	11839.82
470.705	11813.2
470.91	11555.15
471.115	11409.75
471.32	11391.31
471.525	11546.96
471.73	11309.4
471.935	11319.64
472.139	10748.25
472.344	11114.84
472.549	10932.57
472.754	10774.88
472.959	10725.72
473.164	10475.87
473.369	10434.91
473.574	10592.61
473.778	10352.99
473.983	10473.82
474.188	10357.09
474.393	9933.16
474.598	9797.99
474.802	9769.32
475.007	9714.03
475.212	9924.97
475.417	9552.24
475.621	9384.3
475.826	9628.01
476.031	9308.53
476.235	9122.16
476.44	9230.71
476.645	9009.53
476.849	9081.21
477.054	8909.18
477.259	8753.53
477.463	8718.71
477.668	8530.3
477.872	8702.33
478.077	8614.27
478.282	8434.05
478.486	8309.12
478.691	8249.73
478.895	8319.36
479.1	8436.1
479.304	8253.83
479.509	7926.15
479.713	8208.77
479.918	7868.81
480.122	7799.18
480.326	7836.04
480.531	7965.06
480.735	7850.38
480.94	7811.46
481.144	7932.29
481.348	7682.44
481.553	7786.89
481.757	7491.98
481.961	7760.27
482.166	7801.22
482.37	7690.63
482.574	7604.62
482.778	7508.37
482.983	7711.11
483.187	7477.65
483.391	7641.48
483.595	7637.39
483.8	7395.73
484.004	7532.94
484.208	7657.87
484.412	7467.41
484.616	7547.28
484.821	7530.89
485.025	7512.46
485.229	7565.71
485.433	7633.29
485.637	7639.44
485.841	7414.16
486.045	7453.07
486.249	7567.76
486.453	7604.62
486.657	7491.98
486.861	7762.31
487.065	7461.26
487.269	7467.41
487.473	7266.71
487.677	7555.47
487.881	7645.58
488.085	7590.28
488.289	7600.52
488.493	7588.24
488.697	7600.52
488.901	7551.37
489.105	7569.8
489.309	7623.05
489.512	7569.8
489.716	7487.89
489.92	7674.25
490.124	7688.59
490.328	7709.07
490.531	7627.15
490.735	7735.69
490.939	7700.87
491.143	7817.61
491.346	7833.99
491.55	8024.45
491.754	7854.47
491.958	7973.25
492.161	8028.55
492.365	7926.15
492.569	7948.68
492.772	7913.86
492.976	8227.2
493.18	8028.55
493.383	8241.54
493.587	7971.21
493.79	8210.82
493.994	8096.13
494.197	8196.48
494.401	8472.96
494.605	8352.13
494.808	8503.68
495.012	8573.31
495.215	8417.66
495.419	8769.91
495.622	8733.05
495.825	8573.31
496.029	8638.84
496.232	9113.97
496.436	8866.17
496.639	9120.12
496.843	9120.12
497.046	9148.79
497.249	9367.92
497.453	9265.52
497.656	9554.29
497.859	9476.46
498.063	9415.02
498.266	9642.35
498.469	9744.75
498.673	9746.8
498.876	9668.97
499.079	10209.64
499.282	10154.34
499.485	10647.9
499.689	10355.04
499.892	10309.99
500.095	10416.48
500.298	10828.12
500.501	10512.74
500.705	11342.16
500.908	11057.5
501.111	11120.98
501.314	11307.35
501.517	11526.48
501.72	11551.06
501.923	11508.05
502.126	12069.19
502.329	12026.18
502.532	12185.93
502.735	12214.6
502.938	12370.24
503.141	12493.12
503.344	12329.28
503.547	12421.44
503.75	12869.95
503.953	12833.08
504.156	13214.01
504.359	13238.58
504.562	13420.85
504.765	13586.74
504.968	13979.95
505.17	13924.65
505.373	14029.1
505.576	13943.08
505.779	14307.62
505.982	14444.84
506.185	14723.36
506.387	14571.81
506.59	14725.41
506.793	15132.95
506.996	15001.88
507.198	15630.61
507.401	15126.81
507.604	15552.79
507.807	15968.52
508.009	15855.89
508.212	15851.79
508.415	16294.15
508.617	16357.64
508.82	16689.41
509.022	16687.36
509.225	17051.9
509.428	16994.56
509.63	17152.25
509.833	17211.64
510.035	17709.3
510.238	17570.04
510.44	17989.87
510.643	17959.15
510.845	18503.91
511.048	18333.93
511.25	18618.6
511.453	18319.59
511.655	19171.55
511.858	18946.27
512.06	19204.31
512.262	19388.63
512.465	19579.09
512.667	19847.38
512.87	19884.24
513.072	19847.38
513.274	20199.63
513.477	20527.3
513.679	20654.28
513.881	21092.54
514.084	21031.1
514.286	20984
514.488	21422.27
514.69	21872.82
514.893	21911.73
515.095	21866.67
515.297	22077.62
515.499	22505.64
515.701	22519.98
515.904	22888.61
516.106	22620.33
516.308	23206.05
516.51	23134.37
516.712	23539.86
516.914	23761.05
517.116	24369.29
517.318	24385.68
517.52	24230.03
517.722	24512.65
517.925	25131.14
518.127	25163.9
518.329	25286.78
518.531	25362.56
518.733	25667.7
518.935	25774.2
519.136	26302.57
519.338	26329.2
519.54	26536.04
519.742	27033.7
519.944	27074.66
520.146	27449.44
520.348	27643.99
520.55	27807.83
520.752	27727.96
520.954	28260.43
521.155	28420.17
521.357	28545.1
521.559	28844.1
521.761	29208.64
521.963	29364.29
522.164	29280.32
522.366	29667.39
522.568	29935.67
522.77	29745.21
522.971	30443.57
523.173	30437.42
523.375	30814.25
523.576	30806.06
523.778	31318.05
523.98	31264.8
524.181	31359.01
524.383	31897.63
524.584	32092.18
524.786	32229.4
524.988	32008.22
525.189	32782.35
525.391	32692.24
525.592	32937.99
525.794	33128.45
525.995	33378.31
526.197	33568.77
526.398	33585.15
526.6	33683.45
526.801	33607.68
527.003	34007.03
527.204	34031.61
527.406	34607.09
527.607	34328.56
527.808	34922.48
528.01	34125.82
528.211	34492.4
528.412	35385.32
528.614	35696.61
528.815	35428.32
529.016	35848.16
529.218	35493.86
529.419	35889.12
529.62	35805.15
529.822	35796.96
530.023	35827.68
530.224	36124.63
530.425	36022.23
530.626	35796.96
530.828	36151.26
531.029	36761.55
531.23	36734.93
531.431	36577.23
531.632	36675.54
531.833	36659.15
532.035	36493.27
532.236	37060.55
532.437	37263.3
532.638	36945.87
532.839	37353.41
533.04	37521.35
533.241	36816.85
533.442	37971.9
533.643	37412.81
533.844	37152.71
534.045	37601.22
534.246	37277.64
534.447	37740.48
534.648	37689.28
534.849	37900.22
535.05	37656.51
535.251	37590.98
535.451	37603.27
535.652	37750.72
535.853	37932.99
536.054	37646.27
536.255	38074.3
536.456	37394.37
536.657	38221.75
536.857	37971.9
537.058	38029.24
537.259	38025.15
537.46	38184.89
537.66	37775.3
537.861	37908.41
538.062	38117.31
538.263	37787.58
538.463	37824.45
538.664	38156.22
538.865	38369.21
539.065	38129.59
539.266	37808.06
539.466	38299.58
539.667	37867.45
539.868	37973.95
540.068	38272.95
540.269	38070.2
540.469	38399.93
540.67	37932.99
540.87	38143.93
541.071	37992.38
541.271	38201.27
541.472	38193.08
541.672	37562.31
541.873	37818.3
542.073	37650.37
542.274	38262.71
542.474	37795.78
542.675	37830.59
542.875	38461.37
543.075	38102.97
543.276	37584.83
543.476	38250.42
543.676	37582.79
543.877	38340.53
544.077	38002.62
544.277	37738.43
544.478	37943.23
544.678	38029.24
544.878	37849.02
545.078	38066.11
545.279	37779.39
545.479	37832.64
545.679	37584.83
545.879	37730.24
546.079	37720
546.28	37777.34
546.48	37787.58
546.68	37783.49
546.88	38264.76
547.08	37926.85
547.28	37967.8
547.48	37562.31
547.68	37683.14
547.88	37781.44
548.081	38141.88
548.281	37861.31
548.481	37615.55
548.681	38000.57
548.881	37988.28
549.081	38102.97
549.28	37836.73
549.48	37765.06
549.68	37468.1
549.88	38006.72
550.08	37758.91
550.28	38035.39
550.48	37666.75
550.68	37945.28
550.88	37599.17
551.08	37832.64
551.279	38016.96
551.479	37341.13
551.679	37560.26
551.879	37871.55
552.079	38002.62
552.278	37451.72
552.478	37633.99
552.678	37685.18
552.878	38088.63
553.077	37781.44
553.277	37369.8
553.477	37742.53
553.676	36620.24
553.876	37435.33
554.076	36988.88
554.275	37662.66
554.475	37271.5
554.674	37468.1
554.874	37291.97
555.074	37332.93
555.273	37238.73
555.473	37316.55
555.672	36786.13
555.872	37214.15
556.071	37027.79
556.271	37382.09
556.47	36741.07
556.67	36831.18
556.869	36886.48
557.068	36937.68
557.268	36806.61
557.467	36562.9
557.667	36501.46
557.866	36706.26
558.065	36650.96
558.265	36091.87
558.464	35887.07
558.663	35848.16
558.863	36202.46
559.062	36431.83
559.261	35667.94
559.461	36263.89
559.66	35502.05
559.859	35909.6
560.058	35350.5
560.258	35880.92
560.457	35334.12
560.656	35649.5
560.855	35489.76
561.054	35379.17
561.253	34863.08
561.453	35155.94
561.652	35502.05
561.851	35413.99
562.05	35080.17
562.249	34922.48
562.448	35229.67
562.647	35020.78
562.846	34891.76
563.045	34916.33
563.244	34162.68
563.443	34340.85
563.642	33906.68
563.841	34189.3
564.04	33894.39
564.239	34301.94
564.438	34080.76
564.637	33667.07
564.836	34007.03
565.035	33558.53
565.234	33718.27
565.432	33320.96
565.631	33105.93
565.83	33544.19
566.029	33157.13
566.228	33255.43
566.427	33284.1
566.625	33126.41
566.824	32434.19
567.023	32638.99
567.222	32219.16
567.42	32761.87
567.619	32618.51
567.818	32071.7
568.016	32358.42
568.215	32335.89
568.414	32176.15
568.612	32274.45
568.811	31717.4
569.01	31842.33
569.208	31285.28
569.407	31766.56
569.605	31047.72
569.804	31328.29
570.002	31199.27
570.201	31350.82
570.4	31062.05
570.598	30832.68
570.797	30636.08
570.995	30566.45
571.193	30324.79
571.392	30562.35
571.59	29997.11
571.789	30208.05
571.987	30054.45
572.186	30068.79
572.384	29898.81
572.582	30076.98
572.781	30195.76
572.979	29368.38
573.177	29882.42
573.376	29456.45
573.574	29548.61
573.772	29216.83
573.971	29005.89
574.169	28723.27
574.367	28569.68
574.565	29272.13
574.763	28901.45
574.962	28811.34
575.16	28383.31
575.358	28264.53
575.556	28289.1
575.754	28483.66
575.952	28344.4
576.151	28444.75
576.349	28139.6
576.547	28110.93
576.745	28094.55
576.943	27955.29
577.141	27926.61
577.339	27897.94
577.537	27742.3
577.735	27564.12
577.933	27048.04
578.131	27455.58
578.329	27344.99
578.527	27222.11
578.725	27099.23
578.923	27287.65
579.121	27060.32
579.319	26904.68
579.516	26771.56
579.714	26740.84
579.912	26525.8
580.11	26282.09
580.308	26540.14
580.506	26302.57
580.704	25903.22
580.901	26482.8
581.099	26347.63
581.297	26257.52
581.495	26077.3
581.692	26177.65
581.89	25991.28
582.088	25882.74
582.285	25692.28
582.483	26239.09
582.681	25399.42
582.878	25401.47
583.076	24889.48
583.274	25577.59
583.471	25243.77
583.669	25237.63
583.866	25211.01
584.064	25088.13
584.262	24604.81
584.459	25034.88
584.657	24486.03
584.854	24875.14
585.052	24393.87
585.249	24680.58
585.447	24434.83
585.644	24488.07
585.841	24410.25
586.039	24146.06
586.236	24422.54
586.434	24053.9
586.631	23779.48
586.828	24084.62
587.026	24035.47
587.223	24092.82
587.42	23390.36
587.618	24066.19
587.815	23292.06
588.012	23376.03
588.21	23349.4
588.407	23824.53
588.604	23378.08
588.801	22960.29
588.999	23025.82
589.196	22999.2
589.393	23003.3
589.59	23099.55
589.787	22894.75
589.984	22718.63
590.182	22487.21
590.379	22810.79
590.576	22599.85
590.773	22689.96
590.97	22614.18
591.167	22706.34
591.364	22214.83
591.561	22454.44
591.758	22094
591.955	22247.6
592.152	22290.6
592.349	21969.07
592.546	22050.99
592.743	21770.42
592.94	21948.59
593.137	21797.04
593.334	21944.5
593.531	21364.92
593.727	21491.9
593.924	21557.43
594.121	21620.92
594.318	21465.27
594.515	20957.38
594.712	21366.97
594.908	21199.04
595.105	21285.05
595.302	20601.03
595.499	21024.96
595.696	20867.27
595.892	20865.22
596.089	20920.51
596.286	20881.6
596.482	20963.52
596.679	20689.09
596.876	20967.62
597.072	20521.16
597.269	20660.42
597.466	20179.15
597.662	19986.64
597.859	20033.74
598.055	20433.1
598.252	20037.84
598.448	19740.88
598.645	20185.29
598.841	20134.09
599.038	20113.61
599.234	19738.83
599.431	19581.14
599.627	19663.06
599.824	19837.14
600.02	19558.61
600.217	19724.5
600.413	19308.76
600.609	19243.23
600.806	19642.58
601.002	19450.07
601.198	19026.14
601.395	18940.13
601.591	19294.43
601.787	19222.75
601.984	19200.22
602.18	19159.26
602.376	18856.16
602.572	18933.98
602.769	18895.07
602.965	18602.21
603.161	18702.56
603.357	18309.35
603.553	18346.22
603.75	18428.13
603.946	18612.45
604.142	18383.08
604.338	18290.92
604.534	18360.55
604.73	17850.61
604.926	17930.48
605.122	18174.19
605.318	18098.41
605.514	17748.21
605.71	17826.03
605.906	17686.77
606.102	17869.04
606.298	17823.98
606.494	17836.27
606.69	17756.4
606.886	17731.83
607.082	17361.14
607.278	17690.87
607.474	17244.41
607.67	17430.77
607.866	17078.52
608.062	17561.84
608.257	17318.14
608.453	17254.65
608.649	17264.89
608.845	17062.14
609.041	17033.47
609.236	17375.48
609.432	17008.89
609.628	16988.41
609.824	17004.8
610.019	16779.52
610.215	16910.59
610.411	16920.83
610.606	16793.86
610.802	16732.42
610.998	16484.61
611.193	16754.94
611.389	16693.51
611.584	16990.46
611.78	16294.15
611.976	16711.94
612.171	16642.31
612.367	16326.92
612.562	16429.32
612.758	16130.31
612.953	16392.45
613.149	16277.77
613.344	16177.42
613.539	16283.91
613.735	16154.89
613.93	16331.01
614.126	15876.37
614.321	16138.51
614.517	16140.55
614.712	15864.08
614.907	15845.65
615.103	16032.01
615.298	15950.09
615.493	15677.71
615.688	15548.69
615.884	15911.18
616.079	15485.2
616.274	15780.11
616.47	15726.86
616.665	15853.84
616.86	15655.19
617.055	15669.52
617.25	15528.21
617.445	15477.01
617.641	15188.25
617.836	15388.95
618.031	15264.02
618.226	15450.39
618.421	15501.59
618.616	15319.32
618.811	15036.7
619.006	15321.37
619.201	15020.31
619.396	15091.99
619.591	14946.59
619.786	14836
619.981	14463.27
620.176	14772.51
620.371	14395.68
620.566	14319.91
620.761	14405.92
620.956	14573.86
621.151	14301.48
621.346	14403.88
621.541	14315.81
621.735	14524.71
621.93	13967.66
622.125	14235.94
622.32	13861.16
622.515	14151.98
622.709	13953.32
622.904	14086.44
623.099	13879.6
623.294	13764.91
623.488	13529.39
623.683	13670.7
623.878	13386.04
624.072	13316.4
624.267	13259.06
624.462	13250.87
624.656	13275.45
624.851	13246.77
625.046	12996.92
625.24	12958.01
625.435	12716.35
625.629	12953.91
625.824	12865.85
626.018	12697.92
626.213	12513.6
626.407	12720.45
626.602	12208.45
626.796	12370.24
626.991	12476.74
627.185	12230.98
627.38	12317
627.574	12079.43
627.768	11897.16
627.963	12091.72
628.157	12005.7
628.352	11989.32
628.546	11778.38
628.74	11854.16
628.935	11667.79
629.129	11655.5
629.323	11395.41
629.517	11250
629.712	11563.34
629.906	11329.88
630.1	11311.44
630.294	11262.29
630.489	10953.05
630.683	11264.34
630.877	11161.94
631.071	10907.99
631.265	11108.69
631.459	11014.49
631.653	10832.22
631.848	10836.31
632.042	10924.38
632.236	10748.25
632.43	10891.61
632.624	10608.99
632.818	10565.98
633.012	10490.21
633.206	10439.01
633.4	10512.74
633.594	10266.98
633.788	10512.74
633.982	10283.36
634.176	10217.83
634.369	10162.53
634.563	9800.04
634.757	10058.09
634.951	10152.29
635.145	9935.21
635.339	9910.63
635.533	9750.89
635.726	9863.53
635.92	9681.26
636.114	9728.36
636.308	9621.87
636.501	9445.74
636.695	9689.45
636.889	9466.22
637.083	9646.44
637.276	9210.23
637.47	9288.05
637.664	9306.48
637.857	9388.4
638.051	9269.62
638.244	9224.56
638.438	9277.81
638.632	9027.96
638.825	9013.62
639.019	9075.06
639.212	8948.09
639.406	8839.55
639.599	8739.19
639.793	8655.23
639.986	8642.94
640.18	8802.68
640.373	8763.77
640.567	8499.58
640.76	8313.22
640.954	8599.93
641.147	8393.09
641.34	8388.99
641.534	8413.57
641.727	8327.55
641.92	8352.13
642.114	8147.33
642.307	8282.5
642.5	8237.44
642.694	8096.13
642.887	7885.19
643.08	8114.56
643.273	8034.69
643.467	7819.66
643.66	7864.71
643.853	7768.46
644.046	7801.22
644.239	7926.15
644.432	7752.07
644.626	7573.9
644.819	7528.85
645.012	7655.82
645.205	7651.72
645.398	7440.78
645.591	7561.61
645.784	7485.84
645.977	7324.05
646.17	7414.16
646.363	7201.17
646.556	7217.55
646.749	7111.06
646.942	7166.35
647.135	7287.18
647.328	7078.29
647.521	7162.26
647.714	6902.17
647.907	7043.48
648.099	6930.84
648.292	7008.66
648.485	6906.26
648.678	6793.62
648.871	6998.42
649.064	6912.41
649.256	6982.04
649.449	6789.53
649.642	6730.14
649.835	6652.31
650.027	6705.56
650.22	6506.91
650.413	6588.83
650.605	6476.19
650.798	6564.25
650.991	6508.96
651.183	6336.93
651.376	6445.47
651.568	6351.26
651.761	6287.78
651.954	6205.86
652.146	6277.54
652.339	6353.31
652.531	6156.71
652.724	6214.05
652.916	6035.88
653.109	6087.08
653.301	6216.1
653.494	5986.72
653.686	5994.92
653.879	6207.91
654.071	5947.81
654.263	5908.9
654.456	5927.33
654.648	6017.44
654.84	5816.74
655.033	5962.15
655.225	5908.9
655.417	5738.92
655.61	5804.46
655.802	5769.64
655.994	5689.77
656.186	5839.27
656.379	5648.81
656.571	5671.34
656.763	5724.58
656.955	5575.08
657.148	5769.64
657.34	5353.9
657.532	5411.25
657.724	5388.72
657.916	5460.4
658.108	5509.55
658.3	5341.61
658.492	5394.86
658.684	5407.15
658.876	5452.2
659.068	5358
659.26	5394.86
659.452	5296.56
659.644	5380.53
659.836	5323.18
660.028	5329.33
660.22	5099.95
660.412	5196.21
660.604	5206.45
660.796	5194.16
660.988	4993.46
661.18	5237.17
661.372	5005.75
661.563	5163.44
661.755	4987.32
661.947	4952.5
662.139	4897.21
662.331	4993.46
662.522	4874.68
662.714	4846.01
662.906	4899.25
663.097	4833.72
663.289	4762.04
663.481	4714.94
663.673	4846.01
663.864	4815.29
664.056	4909.49
664.247	4661.69
664.439	4764.09
664.631	4749.75
664.822	4846.01
665.014	4649.4
665.205	4714.94
665.397	4764.09
665.588	4608.44
665.78	4637.11
665.971	4628.92
666.163	4764.09
666.354	4671.93
666.546	4612.54
666.737	4467.13
666.929	4510.14
667.12	4723.13
667.311	4639.16
667.503	4581.82
667.694	4671.93
667.885	4657.59
668.077	4635.07
668.268	4567.48
668.459	4434.36
668.651	4473.28
668.842	4440.51
669.033	4477.37
669.224	4364.73
669.416	4571.58
669.607	4487.61
669.798	4506.04
669.989	4547
670.18	4350.4
670.371	4391.36
670.563	4538.81
670.754	4512.19
670.945	4309.44
671.136	4426.17
671.327	4360.64
671.518	4532.67
671.709	4473.28
671.9	4512.19
672.091	4495.8
672.282	4407.74
672.473	4286.91
672.664	4315.58
672.855	4489.66
673.046	4288.96
673.237	4411.84
673.428	4508.09
673.619	4405.69
673.809	4239.81
674	4645.31
674.191	4481.47
674.382	4358.59
674.573	4469.18
674.764	4358.59
674.954	4432.32
675.145	4295.1
675.336	4432.32
675.527	4420.03
675.717	4460.99
675.908	4514.24
676.099	4428.22
676.289	4368.83
676.48	4420.03
676.671	4522.43
676.861	4499.9
677.052	4463.04
677.243	4407.74
677.433	4481.47
677.624	4518.33
677.814	4544.95
678.005	4577.72
678.195	4454.84
678.386	4592.06
678.576	4413.88
678.767	4467.13
678.957	4528.57
679.148	4682.17
679.338	4444.6
679.529	4680.12
679.719	4499.9
679.909	4610.49
680.1	4714.94
680.29	4725.18
680.481	4647.35
680.671	4686.26
680.861	4602.3
681.052	4805.05
681.242	4764.09
681.432	4784.57
681.622	4749.75
681.813	4805.05
682.003	4686.26
682.193	4731.32
682.383	4895.16
682.573	4891.06
682.764	4827.57
682.954	4829.62
683.144	4903.35
683.334	4653.5
683.524	4884.92
683.714	4782.52
683.904	4792.76
684.094	4950.45
684.284	4833.72
684.474	4837.81
684.664	4825.53
684.854	4827.57
685.044	4895.16
685.234	4755.9
685.424	4774.33
685.614	4639.16
685.804	4704.7
685.994	4747.7
686.184	4645.31
686.374	4694.46
686.564	4798.9
686.753	4762.04
686.943	4581.82
687.133	4737.46
687.323	4647.35
687.513	4534.71
687.702	4696.5
687.892	4600.25
688.082	4620.73
688.272	4596.15
688.461	4520.38
688.651	4637.11
688.841	4493.76
689.03	4538.81
689.22	4440.51
689.41	4336.06
689.599	4268.48
689.789	4448.7
689.979	4352.45
690.168	4329.92
690.358	4209.09
690.547	4309.44
690.737	4264.38
690.926	4264.38
691.116	4143.55
691.305	4209.09
691.495	4190.66
691.684	4090.31
691.874	4090.31
692.063	4022.72
692.252	4155.84
692.442	4116.93
692.631	3992
692.82	3893.7
693.01	3846.6
693.199	3893.7
693.388	4030.91
693.578	3903.94
693.767	3920.32
693.956	3819.97
694.146	3856.84
694.335	3764.68
694.524	3721.67
694.713	3795.4
694.902	3713.48
695.092	3637.7
695.281	3666.38
695.47	3762.63
695.659	3428.81
695.848	3611.08
696.037	3582.41
696.226	3680.71
696.415	3658.18
696.604	3635.66
696.793	3695.05
696.982	3594.7
697.171	3609.03
697.36	3547.59
697.549	3576.27
697.738	3453.39
697.927	3455.44
698.116	3625.42
698.305	3518.92
698.494	3506.63
698.683	3400.14
698.872	3617.22
699.061	3400.14
699.25	3510.73
699.438	3557.83
699.627	3555.79
699.816	3486.15
700.005	3326.41
700.193	3506.63
700.382	3510.73
700.571	3566.03
700.76	3486.15
700.948	3400.14
701.137	3359.18
701.326	3555.79
701.514	3443.15
701.703	3545.55
701.892	3353.04
702.08	3660.23
702.269	3416.52
702.457	3500.49
702.646	3580.36
702.834	3496.39
703.023	3576.27
703.212	3523.02
703.4	3434.96
703.589	3379.66
703.777	3543.5
703.965	3443.15
704.154	3449.29
704.342	3346.89
704.531	3389.9
704.719	3350.99
704.907	3502.54
705.096	3551.69
705.284	3375.56
705.472	3477.96
705.661	3480.01
705.849	3606.98
706.037	3475.91
706.226	3568.07
706.414	3465.68
706.602	3510.73
706.79	3453.39
706.979	3582.41
707.167	3482.06
707.355	3637.7
707.543	3494.35
707.731	3662.28
707.919	3633.61
708.107	3627.46
708.296	3525.07
708.484	3551.69
708.672	3690.95
708.86	3717.58
709.048	3686.86
709.236	3754.44
709.424	3768.77
709.612	3676.62
709.8	3652.04
709.988	3740.1
710.176	3842.5
710.364	3721.67
710.551	3690.95
710.739	3615.18
710.927	3871.17
711.115	3897.8
711.303	3932.61
711.491	3856.84
711.679	3811.78
711.866	3762.63
712.054	3920.32
712.242	3729.86
712.43	3910.08
712.617	3908.04
712.805	3887.56
712.993	3860.93
713.181	3852.74
713.368	3949
713.556	4100.55
713.744	3899.84
713.931	4071.87
714.119	3985.86
714.306	3983.81
714.494	3961.28
714.682	4049.35
714.869	4067.78
715.057	4184.51
715.244	4045.25
715.432	4297.15
715.619	4237.76
715.807	4164.03
715.994	4202.94
716.182	4161.98
716.369	4223.42
716.556	4309.44
716.744	4284.86
716.931	4303.29
717.119	4288.96
717.306	4237.76
717.493	4202.94
717.681	4190.66
717.868	4315.58
718.055	4442.56
718.242	4366.78
718.43	4325.82
718.617	4428.22
718.804	4510.14
718.991	4469.18
719.179	4485.56
719.366	4571.58
719.553	4489.66
719.74	4501.95
719.927	4555.19
720.114	4469.18
720.301	4538.81
720.488	4559.29
720.676	4585.91
720.863	4659.64
721.05	4751.8
721.237	4641.21
721.424	4669.88
721.611	4723.13
721.798	4610.49
721.985	4846.01
722.172	4706.74
722.358	4661.69
722.545	4858.29
722.732	4846.01
722.919	4676.02
723.106	4745.66
723.293	4716.98
723.48	4649.4
723.667	4874.68
723.853	4925.88
724.04	5026.23
724.227	4962.74
724.414	4919.73
724.6	4846.01
724.787	4968.88
724.974	5065.14
725.161	4927.92
725.347	4856.25
725.534	5206.45
725.72	4999.6
725.907	5075.38
726.094	5054.9
726.28	5007.8
726.467	5128.63
726.653	4956.6
726.84	5058.99
727.027	5120.43
727.213	5018.04
727.4	5145.01
727.586	5206.45
727.773	5188.02
727.959	5231.02
728.145	5124.53
728.332	5071.28
728.518	5220.78
728.705	5427.63
728.891	5343.66
729.077	5116.34
729.264	5036.47
729.45	5102
729.636	5314.99
729.823	5163.44
730.009	5302.7
730.195	5401.01
730.382	5374.38
730.568	5364.14
730.754	5405.1
730.94	5378.48
731.126	5437.87
731.313	5466.54
731.499	5407.15
731.685	5439.92
731.871	5523.88
732.057	5530.03
732.243	5398.96
732.429	5519.79
732.615	5386.67
732.801	5435.82
732.987	5515.69
733.173	5427.63
733.359	5544.36
733.545	5409.2
733.731	5687.72
733.917	5613.99
734.103	5657
734.289	5550.51
734.475	5575.08
734.661	5616.04
734.847	5538.22
735.033	5613.99
735.219	5622.19
735.404	5669.29
735.59	5513.64
735.776	5568.94
735.962	5534.12
736.148	5611.95
736.333	5630.38
736.519	5697.96
736.705	5722.54
736.89	5636.52
737.076	5720.49
737.262	5452.2
737.447	5534.12
737.633	5484.97
737.819	5556.65
738.004	5566.89
738.19	5542.32
738.375	5628.33
738.561	5521.84
738.747	5564.84
738.932	5517.74
739.118	5489.07
739.303	5546.41
739.489	5513.64
739.674	5419.44
739.859	5536.17
740.045	5450.16
740.23	5603.75
740.416	5419.44
740.601	5538.22
740.786	5540.27
740.972	5575.08
741.157	5654.95
741.342	5476.78
741.528	5489.07
741.713	5407.15
741.898	5466.54
742.084	5249.46
742.269	5353.9
742.454	5345.71
742.639	5343.66
742.824	5327.28
743.01	5257.65
743.195	5484.97
743.38	5206.45
743.565	5192.11
743.75	5257.65
743.935	5185.97
744.12	5300.66
744.305	5034.42
744.49	5009.84
744.675	5091.76
744.86	5132.72
745.045	4925.88
745.23	5169.59
745.415	5228.98
745.6	4952.5
745.785	4897.21
745.97	4932.02
746.155	4850.1
746.34	4899.25
746.525	4975.03
746.71	4919.73
746.895	4907.45
747.079	4749.75
747.264	4927.92
747.449	4903.35
747.634	4772.28
747.819	4837.81
748.003	4680.12
748.188	4667.83
748.373	4579.77
748.557	4815.29
748.742	4602.3
748.927	4467.13
749.111	4581.82
749.296	4606.39
749.481	4485.56
749.665	4585.91
749.85	4430.27
750.034	4512.19
750.219	4370.88
750.404	4368.83
750.588	4327.87
750.773	4319.68
750.957	4286.91
751.141	4094.4
751.326	4153.79
751.51	4104.64
751.695	3998.15
751.879	4118.98
752.064	4172.22
752.248	4035.01
752.432	4075.97
752.617	4133.31
752.801	3914.18
752.985	3961.28
753.17	4020.67
753.354	3856.84
753.538	3764.68
753.722	3883.46
753.907	3733.96
754.091	3822.02
754.275	3727.82
754.459	3779.01
754.643	3684.81
754.828	3561.93
755.012	3606.98
755.196	3609.03
755.38	3508.68
755.564	3631.56
755.748	3453.39
755.932	3627.46
756.116	3453.39
756.3	3412.43
756.484	3455.44
756.668	3322.32
756.852	3418.57
757.036	3369.42
757.22	3312.08
757.404	3256.78
757.588	3121.62
757.772	3240.4
757.956	3330.51
758.14	3281.36
758.323	3252.69
758.507	3232.21
758.691	3144.14
758.875	3205.58
759.059	3094.99
759.242	2955.73
759.426	3146.19
759.61	3115.47
759.794	3058.13
759.977	2978.26
760.161	3092.94
760.345	3142.1
760.528	2906.58
760.712	3029.46
760.895	2873.81
761.079	2920.92
761.263	2900.44
761.446	2798.04
761.63	2752.98
761.813	2865.62
761.997	2779.61
762.18	2828.76
762.364	2779.61
762.547	2785.75
762.731	2867.67
762.914	2779.61
763.098	2685.4
763.281	2709.97
763.464	2681.3
763.648	2740.69
763.831	2626.01
764.015	2699.73
764.198	2650.58
764.381	2597.34
764.564	2617.82
764.748	2615.77
764.931	2585.05
765.114	2535.9
765.297	2632.15
765.481	2462.17
765.664	2494.94
765.847	2429.4
766.03	2437.59
766.213	2388.44
766.397	2437.59
766.58	2437.59
766.763	2288.09
766.946	2324.96
767.129	2494.94
767.312	2468.31
767.495	2398.68
767.678	2345.44
767.861	2290.14
768.044	2445.79
768.227	2404.83
768.41	2320.86
768.593	2433.5
768.776	2298.33
768.959	2306.52
769.142	2331.1
769.324	2238.94
769.507	2200.03
769.69	2240.99
769.873	2288.09
770.056	2277.85
770.239	2181.6
770.421	2075.1
770.604	2146.78
770.787	2081.25
770.97	2120.16
771.152	2095.58
771.335	2142.69
771.518	2075.1
771.7	2062.82
771.883	2021.86
772.066	2116.06
772.248	1982.95
772.431	2120.16
772.613	2075.1
772.796	2068.96
772.978	2042.34
773.161	2134.5
773.343	1976.8
773.526	1901.03
773.708	1919.46
773.891	1890.79
774.073	1878.5
774.256	1950.18
774.438	1888.74
774.621	1845.73
774.803	1843.68
774.985	1888.74
775.168	1737.19
775.35	1741.29
775.532	1862.12
775.715	1798.63
775.897	1794.53
776.079	1804.77
776.261	1761.77
776.444	1720.81
776.626	1704.42
776.808	1716.71
776.99	1571.3
777.173	1599.98
777.355	1591.78
777.537	1675.75
777.719	1602.02
777.901	1552.87
778.083	1571.3
778.265	1503.72
778.447	1520.1
778.629	1591.78
778.811	1534.44
778.993	1495.53
779.175	1577.45
779.357	1509.86
779.539	1409.51
779.721	1432.04
779.903	1479.15
780.085	1417.71
780.267	1429.99
780.449	1366.51
780.631	1409.51
780.812	1450.47
780.994	1405.42
781.176	1346.03
781.358	1393.13
781.54	1311.21
781.721	1296.88
781.903	1278.44
782.085	1294.83
782.267	1354.22
782.448	1249.77
782.63	1315.31
782.812	1163.76
782.993	1255.92
783.175	1298.92
783.357	1231.34
783.538	1206.77
783.72	1176.05
783.901	1231.34
784.083	1202.67
784.264	1114.61
784.446	1120.75
784.627	1110.51
784.809	1196.53
784.99	1157.61
785.172	1159.66
785.353	1032.69
785.535	1184.24
785.716	1094.13
785.897	1028.59
786.079	995.82
786.26	1155.57
786.441	1100.27
786.623	940.53
786.804	1069.55
786.985	1024.5
787.167	1038.83
787.348	983.54
787.529	1077.74
787.71	891.38
787.891	961.01
788.073	922.1
788.254	1051.12
788.435	983.54
788.616	856.56
788.797	872.95
788.978	1008.11
789.159	963.06
789.34	952.82
789.522	840.18
789.703	831.99
789.884	1008.11
790.065	954.87
790.246	952.82
790.427	819.7
790.607	961.01
790.788	840.18
790.969	788.98
791.15	928.24
791.331	831.99
791.512	854.51
791.693	825.84
791.874	766.45
792.054	864.75
792.235	891.38
792.416	780.79
792.597	737.78
792.778	872.95
792.958	838.13
793.139	821.75
793.32	834.04
793.5	715.25
793.681	772.6
793.862	741.88
794.042	754.16
794.223	784.88
794.404	678.39
794.584	649.72
794.765	725.49
794.945	838.13
795.126	705.01
795.306	815.6
795.487	657.91
795.667	672.25
795.848	725.49
796.028	717.3
796.209	700.92
796.389	702.97
796.57	659.96
796.75	698.87
796.93	702.97
797.111	758.26
797.291	635.38
797.471	690.68
797.652	651.77
797.832	686.58
798.012	684.53
798.192	565.75
798.373	614.9
798.553	616.95
798.733	643.57
798.913	545.27
799.093	610.81
799.274	551.42
799.454	645.62
799.634	600.57
799.814	553.46
799.994	627.19
800.174	600.57
800.354	551.42
800.534	619
800.714	594.42
800.894	473.59
801.074	504.31
801.254	594.42
801.434	608.76
801.614	502.26
801.794	528.89
801.974	1268.2
802.154	530.94
802.334	602.61
802.514	537.08
802.693	602.61
802.873	610.81
803.053	602.61
803.233	479.74
803.413	508.41
803.592	451.07
803.772	489.98
803.952	504.31
804.131	492.02
804.311	530.94
804.491	578.04
804.67	473.59
804.85	426.49
805.03	477.69
805.209	387.58
805.389	449.02
805.568	399.87
805.748	444.92
805.928	512.5
806.107	502.26
806.287	418.3
806.466	485.88
806.646	473.59
806.825	506.36
807.004	492.02
807.184	455.16
807.363	471.54
807.543	520.7
807.722	436.73
807.901	471.54
808.081	539.13
808.26	397.82
808.439	453.11
808.619	436.73
808.798	381.43
808.977	367.1
809.156	451.07
809.336	438.78
809.515	545.27
809.694	504.31
809.873	365.05
810.052	408.06
810.231	438.78
810.411	422.39
810.59	422.39
810.769	326.14
810.948	399.87
811.127	363
811.306	381.43
811.485	383.48
811.664	422.39
811.843	461.3
812.022	371.19
812.201	399.87
812.38	373.24
812.559	438.78
812.737	406.01
812.916	393.72
813.095	356.86
813.274	391.67
813.453	440.83
813.632	360.95
813.811	453.11
813.989	344.57
814.168	324.09
814.347	328.19
814.526	270.84
814.704	348.67
814.883	412.15
815.062	299.52
815.24	385.53
815.419	324.09
815.598	391.67
815.776	344.57
815.955	305.66
816.133	281.08
816.312	412.15
816.49	274.94
816.669	348.67
816.847	363
817.026	356.86
817.204	250.36
817.383	264.7
817.561	291.32
817.74	395.77
817.918	268.8
818.097	338.43
818.275	260.6
818.453	246.27
818.632	291.32
818.81	258.56
818.988	260.6
819.167	324.09
819.345	332.28
819.523	197.12
819.701	309.76
819.879	256.51
820.058	258.56
820.236	315.9
820.414	205.31
820.592	197.12
820.77	322.04
820.948	229.88
821.127	215.55
821.305	268.8
821.483	274.94
821.661	281.08
821.839	258.56
822.017	248.32
822.195	338.43
822.373	340.47
822.551	272.89
822.729	268.8
822.907	283.13
823.085	207.36
823.262	242.17
823.44	287.23
823.618	223.74
823.796	279.04
823.974	238.08
824.152	154.11
824.329	201.21
824.507	186.88
824.685	266.75
824.863	270.84
825.04	221.69
825.218	299.52
825.396	242.17
825.574	272.89
825.751	213.5
825.929	283.13
826.107	131.58
826.284	233.98
826.462	193.02
826.639	242.17
826.817	193.02
826.994	270.84
827.172	141.82
827.349	260.6
827.527	197.12
827.704	186.88
827.882	178.69
828.059	205.31
828.237	158.21
828.414	242.17
828.591	170.49
828.769	168.45
828.946	147.97
829.124	180.73
829.301	219.64
829.478	223.74
829.655	233.98
829.833	264.7
830.01	193.02
830.187	254.46
830.364	133.63
830.542	172.54
830.719	246.27
830.896	100.86
831.073	295.42
831.25	190.97
831.427	199.16
831.604	193.02
831.782	135.68
831.959	182.78
832.136	199.16
832.313	236.03
832.49	166.4
832.667	172.54
832.844	143.87
833.021	223.74
833.198	201.21
833.374	180.73
833.551	190.97
833.728	104.96
833.905	154.11
834.082	129.53
834.259	176.64
834.436	188.93
834.612	154.11
834.789	143.87
834.966	141.82
835.143	229.88
835.319	72.19
835.496	184.83
835.673	170.49
835.85	160.25
836.026	172.54
836.203	176.64
836.38	143.87
836.556	180.73
836.733	219.64
836.909	141.82
837.086	168.45
837.262	78.33
837.439	147.97
837.616	121.34
837.792	162.3
837.968	164.35
838.145	125.44
838.321	201.21
838.498	168.45
838.674	213.5
838.851	43.52
839.027	86.53
839.203	147.97
839.38	201.21
839.556	109.05
839.732	207.36
839.909	147.97
840.085	100.86
840.261	160.25
840.437	242.17
840.614	68.09
840.79	135.68
840.966	135.68
841.142	143.87
841.318	102.91
841.494	170.49
841.671	209.4
841.847	66.05
842.023	135.68
842.199	127.49
842.375	168.45
842.551	-11.78
842.727	88.57
842.903	217.6
843.079	102.91
843.255	160.25
843.431	102.91
843.607	80.38
843.783	37.38
843.959	113.15
844.134	74.24
844.31	131.58
844.486	82.43
844.662	70.14
844.838	184.83
845.013	121.34
845.189	139.77
845.365	117.25
845.541	160.25
845.716	123.39
845.892	197.12
846.068	74.24
846.244	20.99
846.419	139.77
846.595	102.91
846.77	119.29
846.946	92.67
847.122	43.52
847.297	86.53
847.473	184.83
847.648	51.71
847.824	90.62
847.999	70.14
848.175	51.71
848.35	139.77
848.526	94.72
848.701	164.35
848.876	86.53
849.052	78.33
849.227	135.68
849.403	61.95
849.578	119.29
849.753	94.72
849.929	88.57
850.104	53.76
850.279	45.57
850.454	82.43
850.63	23.04
850.805	76.29
850.98	107.01
851.155	49.66
851.33	-13.82
851.505	37.38
851.681	100.86
851.856	150.01
852.031	117.25
852.206	51.71
852.381	41.47
852.556	111.1
852.731	55.81
852.906	94.72
853.081	145.92
853.256	66.05
853.431	90.62
853.606	70.14
853.781	51.71
853.956	-11.78
854.131	119.29
854.305	-15.87
854.48	70.14
854.655	82.43
854.83	39.42
855.005	2.56
855.18	18.94
855.354	70.14
855.529	102.91
855.704	94.72
855.879	121.34
856.053	74.24
856.228	45.57
856.403	92.67
856.577	64
856.752	61.95
856.926	92.67
857.101	45.57
857.276	111.1
857.45	-17.92
857.625	31.23
857.799	68.09
857.974	27.14
858.148	23.04
858.323	74.24
858.497	53.76
858.672	80.38
858.846	90.62
859.02	147.97
859.195	29.18
859.369	70.14
859.543	86.53
859.718	39.42
859.892	109.05
860.066	41.47
860.241	-28.16
860.415	104.96
860.589	119.29
860.763	53.76
860.938	61.95
861.112	27.14
861.286	92.67
861.46	78.33
861.634	84.48
861.808	31.23
861.982	-46.59
862.157	-5.63
862.331	31.23
862.505	61.95
862.679	10.75
862.853	53.76
863.027	51.71
863.201	76.29
863.375	47.62
863.549	61.95
863.722	61.95
863.896	68.09
864.07	18.94
864.244	8.7
864.418	127.49
864.592	29.18
864.766	37.38
864.939	45.57
865.113	23.04
865.287	109.05
865.461	-17.92
865.634	57.86
865.808	37.38
865.982	-24.06
866.156	33.28
866.329	-19.97
866.503	-7.68
866.676	51.71
866.85	53.76
867.024	43.52
867.197	33.28
867.371	-9.73
867.544	82.43
867.718	53.76
867.891	29.18
868.065	74.24
868.238	12.8
868.412	45.57
868.585	59.9
868.759	29.18
868.932	2.56
869.105	102.91
869.279	53.76
869.452	-15.87
869.625	76.29
869.799	-19.97
869.972	10.75
870.145	94.72
870.319	86.53
870.492	31.23
870.665	-30.21
870.838	8.7
871.011	4.61
871.185	80.38
871.358	37.38
871.531	115.2
871.704	0.51
871.877	74.24
872.05	-52.74
872.223	-77.31
872.396	88.57
872.569	27.14
872.742	0.51
872.915	94.72
873.088	20.99
873.261	-30.21
873.434	0.51
873.607	8.7
873.78	29.18
873.953	20.99
874.126	82.43
874.299	51.71
874.471	-13.82
874.644	4.61
874.817	82.43
874.99	78.33
875.163	64
875.335	-28.16
875.508	4.61
875.681	64
875.853	43.52
876.026	10.75
876.199	47.62
876.371	68.09
876.544	43.52
876.717	-17.92
876.889	14.85
877.062	94.72
877.234	-36.35
877.407	16.9
877.579	31.23
877.752	-3.58
877.924	64
878.097	23.04
878.269	90.62
878.442	4.61
878.614	61.95
878.786	88.57
878.959	70.14
879.131	43.52
879.303	68.09
879.476	37.38
879.648	68.09
879.82	-15.87
879.993	12.8
880.165	53.76
880.337	-28.16
880.509	16.9
880.681	-15.87
880.854	8.7
881.026	66.05
881.198	47.62
881.37	2.56
881.542	61.95
881.714	-60.93
881.886	-11.78
882.058	-67.07
882.23	-22.02
882.402	-3.58
882.574	-7.68
882.746	-19.97
882.918	29.18
883.09	-5.63
883.262	6.66
883.434	84.48
883.606	16.9
883.778	-19.97
883.95	12.8
884.122	41.47
884.293	82.43
884.465	53.76
884.637	-28.16
884.809	16.9
884.98	66.05
885.152	55.81
885.324	16.9
885.496	35.33
885.667	20.99
885.839	2.56
886.011	61.95
886.182	-24.06
886.354	0.51
886.525	-11.78
886.697	51.71
886.869	72.19
887.04	-17.92
887.212	96.77
887.383	117.25
887.555	-11.78
887.726	20.99
887.897	8.7
888.069	-85.5
888.24	45.57
888.412	18.94
888.583	29.18
888.754	51.71
888.926	70.14
889.097	-40.45
889.268	-7.68
889.44	-44.54
889.611	-28.16
889.782	-44.54
889.953	-28.16
890.125	90.62
890.296	-34.3
890.467	16.9
890.638	59.9
890.809	61.95
890.98	-11.78
891.151	14.85
891.323	25.09
891.494	20.99
891.665	23.04
891.836	29.18
892.007	49.66
892.178	-13.82
892.349	2.56
892.52	61.95
892.691	4.61
892.862	-24.06
893.032	8.7
893.203	10.75
893.374	10.75
893.545	33.28
893.716	51.71
893.887	4.61
894.057	-65.02
894.228	-44.54
894.399	-22.02
894.57	-7.68
894.74	25.09
894.911	0.51
895.082	33.28
895.253	16.9
895.423	-60.93
895.594	10.75
895.764	2.56
895.935	-28.16
896.106	-44.54
896.276	-36.35
896.447	53.76
896.617	-19.97
896.788	-60.93
896.958	-34.3
897.129	29.18
897.299	-48.64
897.47	18.94
897.64	14.85
897.81	12.8
897.981	45.57
898.151	-60.93
898.322	29.18
898.492	61.95
898.662	20.99
898.832	29.18
899.003	-73.21
899.173	25.09
899.343	-11.78
899.513	51.71
