Data from USB4F104151__45__11-30-25-863.txt Node

Date: Fri Mar 14 11:30:25 EDT 2025
User: louis
Spectrometer: USB4F10415
Trigger mode: 4
Integration Time (sec): 5.000000E-2
Scans to average: 1
Electric dark correction enabled: true
Nonlinearity correction enabled: false
Boxcar width: 0
XAxis mode: Wavelengths
Number of Pixels in Spectrum: 3648
>>>>>Begin Spectral Data<<<<<
178.204	-94.21
178.424	-94.21
178.644	-94.21
178.864	-96.25
179.084	-198.65
179.304	4.1
179.524	14.34
179.744	-2.05
179.964	12.29
180.184	38.91
180.404	22.53
180.624	-53.25
180.844	20.48
181.064	-71.68
181.283	57.34
181.503	-53.25
181.723	10.24
181.943	20.48
182.163	94.21
182.383	-47.1
182.602	59.39
182.822	-18.43
183.042	92.16
183.262	-43.01
183.482	24.58
183.701	38.91
183.921	-30.72
184.141	55.3
184.361	51.2
184.58	10.24
184.8	-10.24
185.02	55.3
185.239	28.67
185.459	40.96
185.679	36.86
185.898	-2.05
186.118	59.39
186.338	36.86
186.557	67.58
186.777	-10.24
186.997	73.73
187.216	51.2
187.436	69.63
187.655	83.97
187.875	55.3
188.095	24.58
188.314	14.34
188.534	104.45
188.753	-55.3
188.973	30.72
189.192	112.64
189.412	22.53
189.631	43.01
189.851	-4.1
190.07	139.26
190.29	38.91
190.509	26.62
190.729	-86.01
190.948	53.25
191.168	159.74
191.387	43.01
191.607	-36.86
191.826	83.97
192.045	36.86
192.265	69.63
192.484	79.87
192.704	-40.96
192.923	4.1
193.142	102.4
193.362	20.48
193.581	81.92
193.8	75.77
194.02	61.44
194.239	51.2
194.458	86.01
194.678	96.25
194.897	71.68
195.116	4.1
195.335	8.19
195.555	12.29
195.774	-38.91
195.993	20.48
196.212	69.63
196.432	34.82
196.651	-2.05
196.87	4.1
197.089	96.25
197.308	69.63
197.528	12.29
197.747	14.34
197.966	14.34
198.185	116.73
198.404	-28.67
198.623	75.77
198.842	98.3
199.062	4.1
199.281	38.91
199.5	22.53
199.719	-12.29
199.938	47.1
200.157	120.83
200.376	30.72
200.595	100.35
200.814	90.11
201.033	47.1
201.252	38.91
201.471	63.49
201.69	83.97
201.909	28.67
202.128	51.2
202.347	-14.34
202.566	40.96
202.785	-30.72
203.004	28.67
203.223	88.06
203.442	-47.1
203.661	-2.05
203.879	-28.67
204.098	28.67
204.317	-67.58
204.536	108.54
204.755	-8.19
204.974	79.87
205.193	14.34
205.411	75.77
205.63	22.53
205.849	38.91
206.068	94.21
206.287	14.34
206.505	51.2
206.724	14.34
206.943	-67.58
207.162	6.14
207.381	45.06
207.599	6.14
207.818	94.21
208.037	24.58
208.255	-18.43
208.474	38.91
208.693	38.91
208.911	26.62
209.13	53.25
209.349	-10.24
209.567	59.39
209.786	22.53
210.005	79.87
210.223	51.2
210.442	12.29
210.661	77.82
210.879	12.29
211.098	36.86
211.316	-2.05
211.535	40.96
211.753	-55.3
211.972	-24.58
212.191	-26.62
212.409	55.3
212.628	122.88
212.846	-28.67
213.065	53.25
213.283	106.49
213.502	-2.05
213.72	18.43
213.938	53.25
214.157	79.87
214.375	30.72
214.594	-28.67
214.812	63.49
215.031	-24.58
215.249	75.77
215.467	26.62
215.686	38.91
215.904	77.82
216.122	24.58
216.341	131.07
216.559	28.67
216.778	94.21
216.996	149.5
217.214	22.53
217.432	10.24
217.651	24.58
217.869	102.4
218.087	-26.62
218.306	14.34
218.524	77.82
218.742	94.21
218.96	36.86
219.179	-2.05
219.397	22.53
219.615	161.79
219.833	96.25
220.051	6.14
220.27	106.49
220.488	94.21
220.706	59.39
220.924	51.2
221.142	34.82
221.36	-12.29
221.578	2.05
221.796	77.82
222.015	30.72
222.233	26.62
222.451	53.25
222.669	28.67
222.887	38.91
223.105	-6.14
223.323	18.43
223.541	-26.62
223.759	28.67
223.977	73.73
224.195	90.11
224.413	71.68
224.631	22.53
224.849	69.63
225.067	163.84
225.285	28.67
225.503	106.49
225.721	-92.16
225.939	88.06
226.157	92.16
226.375	71.68
226.592	55.3
226.81	92.16
227.028	32.77
227.246	100.35
227.464	-10.24
227.682	-2.05
227.9	6.14
228.117	43.01
228.335	18.43
228.553	75.77
228.771	69.63
228.989	16.38
229.206	-43.01
229.424	75.77
229.642	43.01
229.86	24.58
230.077	55.3
230.295	63.49
230.513	88.06
230.731	59.39
230.948	30.72
231.166	149.5
231.384	2.05
231.601	-38.91
231.819	61.44
232.037	38.91
232.254	30.72
232.472	38.91
232.689	6.14
232.907	38.91
233.125	26.62
233.342	-45.06
233.56	75.77
233.777	36.86
233.995	26.62
234.213	86.01
234.43	51.2
234.648	36.86
234.865	-2.05
235.083	98.3
235.3	47.1
235.518	34.82
235.735	32.77
235.953	22.53
236.17	61.44
236.388	-12.29
236.605	10.24
236.822	24.58
237.04	92.16
237.257	22.53
237.475	6.14
237.692	43.01
237.909	8.19
238.127	4.1
238.344	16.38
238.562	65.54
238.779	-26.62
238.996	-26.62
239.214	-2.05
239.431	118.78
239.648	38.91
239.865	112.64
240.083	55.3
240.3	16.38
240.517	69.63
240.735	20.48
240.952	112.64
241.169	92.16
241.386	110.59
241.603	22.53
241.821	6.14
242.038	75.77
242.255	43.01
242.472	0
242.689	83.97
242.907	43.01
243.124	69.63
243.341	6.14
243.558	55.3
243.775	-30.72
243.992	-63.49
244.209	51.2
244.426	18.43
244.643	98.3
244.86	55.3
245.078	83.97
245.295	96.25
245.512	61.44
245.729	2.05
245.946	-43.01
246.163	51.2
246.38	120.83
246.597	10.24
246.814	2.05
247.031	30.72
247.248	40.96
247.464	20.48
247.681	28.67
247.898	10.24
248.115	16.38
248.332	45.06
248.549	110.59
248.766	116.73
248.983	98.3
249.2	75.77
249.417	36.86
249.633	51.2
249.85	147.45
250.067	22.53
250.284	10.24
250.501	133.12
250.717	43.01
250.934	-2.05
251.151	75.77
251.368	-18.43
251.585	88.06
251.801	69.63
252.018	69.63
252.235	92.16
252.451	6.14
252.668	6.14
252.885	55.3
253.102	75.77
253.318	-12.29
253.535	-4.1
253.752	69.63
253.968	88.06
254.185	12.29
254.401	20.48
254.618	22.53
254.835	-18.43
255.051	77.82
255.268	69.63
255.484	22.53
255.701	22.53
255.917	61.44
256.134	-6.14
256.351	22.53
256.567	30.72
256.784	53.25
257	-14.34
257.217	71.68
257.433	43.01
257.65	34.82
257.866	71.68
258.082	-6.14
258.299	-69.63
258.515	40.96
258.732	38.91
258.948	-10.24
259.165	-22.53
259.381	-28.67
259.597	45.06
259.814	-34.82
260.03	-32.77
260.246	38.91
260.463	73.73
260.679	102.4
260.895	102.4
261.112	73.73
261.328	-2.05
261.544	-6.14
261.761	51.2
261.977	-24.58
262.193	63.49
262.409	83.97
262.626	30.72
262.842	30.72
263.058	10.24
263.274	36.86
263.49	34.82
263.707	104.45
263.923	67.58
264.139	-104.45
264.355	63.49
264.571	55.3
264.787	-10.24
265.004	96.25
265.22	12.29
265.436	40.96
265.652	-65.53
265.868	81.92
266.084	2.05
266.3	112.64
266.516	40.96
266.732	20.48
266.948	81.92
267.164	86.01
267.38	-26.62
267.596	38.91
267.812	75.77
268.028	20.48
268.244	-18.43
268.46	18.43
268.676	22.53
268.892	57.34
269.108	-10.24
269.324	63.49
269.54	14.34
269.756	43.01
269.972	-43.01
270.188	61.44
270.403	-75.77
270.619	22.53
270.835	47.1
271.051	20.48
271.267	88.06
271.483	24.58
271.698	104.45
271.914	6.14
272.13	77.82
272.346	43.01
272.562	26.62
272.777	137.21
272.993	47.1
273.209	63.49
273.425	28.67
273.64	20.48
273.856	124.93
274.072	-24.58
274.287	47.1
274.503	28.67
274.719	4.1
274.934	14.34
275.15	20.48
275.366	38.91
275.581	98.3
275.797	38.91
276.012	43.01
276.228	40.96
276.444	14.34
276.659	59.39
276.875	-12.29
277.09	28.67
277.306	51.2
277.521	38.91
277.737	34.82
277.952	129.02
278.168	79.87
278.383	26.62
278.599	69.63
278.814	32.77
279.03	77.82
279.245	63.49
279.461	53.25
279.676	96.25
279.892	-24.58
280.107	53.25
280.322	22.53
280.538	67.58
280.753	0
280.969	61.44
281.184	2.05
281.399	96.25
281.615	73.73
281.83	90.11
282.045	-18.43
282.26	-71.68
282.476	102.4
282.691	75.77
282.906	-30.72
283.122	30.72
283.337	0
283.552	51.2
283.767	-26.62
283.983	108.54
284.198	38.91
284.413	38.91
284.628	-34.82
284.843	22.53
285.058	53.25
285.274	55.3
285.489	20.48
285.704	34.82
285.919	59.39
286.134	47.1
286.349	34.82
286.564	-36.86
286.779	59.39
286.995	73.73
287.21	36.86
287.425	88.06
287.64	-20.48
287.855	49.15
288.07	14.34
288.285	40.96
288.5	86.01
288.715	118.78
288.93	-2.05
289.145	47.1
289.36	83.97
289.575	6.14
289.79	36.86
290.004	36.86
290.219	61.44
290.434	-14.34
290.649	-16.38
290.864	-2.05
291.079	10.24
291.294	-38.91
291.509	73.73
291.724	20.48
291.938	-51.2
292.153	38.91
292.368	2.05
292.583	79.87
292.798	22.53
293.012	0
293.227	30.72
293.442	-10.24
293.657	47.1
293.871	104.45
294.086	0
294.301	161.79
294.516	-16.38
294.73	4.1
294.945	51.2
295.16	71.68
295.374	104.45
295.589	90.11
295.804	55.3
296.018	-6.14
296.233	88.06
296.447	81.92
296.662	12.29
296.877	86.01
297.091	57.34
297.306	59.39
297.52	-12.29
297.735	26.62
297.949	16.38
298.164	0
298.378	-22.53
298.593	-32.77
298.807	-20.48
299.022	163.84
299.236	45.06
299.451	55.3
299.665	47.1
299.88	-30.72
300.094	6.14
300.309	2.05
300.523	6.14
300.737	-24.58
300.952	79.87
301.166	40.96
301.381	-18.43
301.595	24.58
301.809	26.62
302.024	40.96
302.238	20.48
302.452	75.77
302.667	-2.05
302.881	51.2
303.095	63.49
303.309	22.53
303.524	6.14
303.738	-18.43
303.952	126.97
304.166	63.49
304.381	-18.43
304.595	63.49
304.809	26.62
305.023	61.44
305.237	36.86
305.452	0
305.666	104.45
305.88	30.72
306.094	65.54
306.308	55.3
306.522	63.49
306.736	20.48
306.95	79.87
307.164	26.62
307.379	71.68
307.593	114.69
307.807	108.54
308.021	55.3
308.235	53.25
308.449	-4.1
308.663	67.58
308.877	79.87
309.091	14.34
309.305	73.73
309.519	-16.38
309.733	96.25
309.947	-38.91
310.161	63.49
310.374	77.82
310.588	12.29
310.802	4.1
311.016	26.62
311.23	4.1
311.444	38.91
311.658	61.44
311.872	43.01
312.085	88.06
312.299	71.68
312.513	118.78
312.727	20.48
312.941	-32.77
313.154	67.58
313.368	36.86
313.582	79.87
313.796	-2.05
314.009	38.91
314.223	55.3
314.437	73.73
314.651	6.14
314.864	24.58
315.078	-20.48
315.292	61.44
315.505	-14.34
315.719	92.16
315.933	30.72
316.146	16.38
316.36	16.38
316.573	106.49
316.787	-2.05
317.001	43.01
317.214	75.77
317.428	10.24
317.641	26.62
317.855	63.49
318.068	79.87
318.282	0
318.495	69.63
318.709	75.77
318.922	34.82
319.136	6.14
319.349	55.3
319.563	65.54
319.776	118.78
319.99	-20.48
320.203	116.73
320.417	32.77
320.63	-18.43
320.843	94.21
321.057	108.54
321.27	10.24
321.483	61.44
321.697	108.54
321.91	-18.43
322.124	40.96
322.337	38.91
322.55	6.14
322.763	61.44
322.977	2.05
323.19	83.97
323.403	-12.29
323.617	129.02
323.83	55.3
324.043	86.01
324.256	6.14
324.469	-18.43
324.683	81.92
324.896	51.2
325.109	10.24
325.322	8.19
325.535	79.87
325.748	59.39
325.962	63.49
326.175	-20.48
326.388	83.97
326.601	96.25
326.814	26.62
327.027	45.06
327.24	108.54
327.453	-30.72
327.666	-24.58
327.879	14.34
328.092	53.25
328.305	-24.58
328.518	81.92
328.731	8.19
328.944	34.82
329.157	63.49
329.37	30.72
329.583	61.44
329.796	100.35
330.009	-8.19
330.222	100.35
330.435	69.63
330.648	100.35
330.861	63.49
331.073	-26.62
331.286	38.91
331.499	-2.05
331.712	-2.05
331.925	38.91
332.138	34.82
332.35	71.68
332.563	94.21
332.776	102.4
332.989	36.86
333.202	30.72
333.414	49.15
333.627	43.01
333.84	57.34
334.053	47.1
334.265	-10.24
334.478	32.77
334.691	55.3
334.903	63.49
335.116	22.53
335.329	-55.3
335.541	36.86
335.754	51.2
335.966	67.58
336.179	-34.82
336.392	65.54
336.604	18.43
336.817	30.72
337.029	59.39
337.242	6.14
337.454	32.77
337.667	53.25
337.88	92.16
338.092	53.25
338.305	59.39
338.517	49.15
338.729	34.82
338.942	108.54
339.154	-8.19
339.367	59.39
339.579	67.58
339.792	6.14
340.004	-34.82
340.217	24.58
340.429	102.4
340.641	2.05
340.854	-43.01
341.066	71.68
341.278	106.49
341.491	18.43
341.703	43.01
341.915	104.45
342.128	96.25
342.34	55.3
342.552	-6.14
342.764	2.05
342.977	79.87
343.189	86.01
343.401	14.34
343.613	-6.14
343.826	14.34
344.038	-22.53
344.25	55.3
344.462	59.39
344.674	26.62
344.886	-18.43
345.099	6.14
345.311	63.49
345.523	43.01
345.735	12.29
345.947	22.53
346.159	4.1
346.371	32.77
346.583	77.82
346.795	83.97
347.007	20.48
347.219	94.21
347.431	47.1
347.643	47.1
347.855	30.72
348.067	112.64
348.279	55.3
348.491	-4.1
348.703	94.21
348.915	-30.72
349.127	55.3
349.339	53.25
349.551	67.58
349.763	86.01
349.975	0
350.187	-8.19
350.399	6.14
350.61	71.68
350.822	59.39
351.034	63.49
351.246	6.14
351.458	86.01
351.669	63.49
351.881	92.16
352.093	-18.43
352.305	63.49
352.517	61.44
352.728	133.12
352.94	65.54
353.152	2.05
353.363	-47.1
353.575	77.82
353.787	149.5
353.999	-4.1
354.21	83.97
354.422	-47.1
354.633	75.77
354.845	61.44
355.057	-6.14
355.268	63.49
355.48	75.77
355.692	55.3
355.903	38.91
356.115	4.1
356.326	34.82
356.538	61.44
356.749	141.31
356.961	116.73
357.172	45.06
357.384	-79.87
357.595	67.58
357.807	0
358.018	45.06
358.23	75.77
358.441	81.92
358.653	55.3
358.864	94.21
359.075	86.01
359.287	0
359.498	112.64
359.709	120.83
359.921	124.93
360.132	2.05
360.344	45.06
360.555	12.29
360.766	100.35
360.977	47.1
361.189	83.97
361.4	43.01
361.611	71.68
361.823	38.91
362.034	67.58
362.245	14.34
362.456	43.01
362.667	51.2
362.879	49.15
363.09	36.86
363.301	63.49
363.512	32.77
363.723	116.73
363.935	-2.05
364.146	55.3
364.357	22.53
364.568	88.06
364.779	59.39
364.99	98.3
365.201	43.01
365.412	110.59
365.623	-49.15
365.834	77.82
366.045	88.06
366.256	98.3
366.467	47.1
366.678	71.68
366.889	47.1
367.1	45.06
367.311	96.25
367.522	0
367.733	79.87
367.944	102.4
368.155	43.01
368.366	86.01
368.577	79.87
368.788	104.45
368.999	26.62
369.209	26.62
369.42	67.58
369.631	79.87
369.842	12.29
370.053	24.58
370.264	73.73
370.474	-10.24
370.685	47.1
370.896	30.72
371.107	94.21
371.317	55.3
371.528	59.39
371.739	102.4
371.95	124.93
372.16	20.48
372.371	-36.86
372.582	112.64
372.792	71.68
373.003	108.54
373.214	59.39
373.424	63.49
373.635	-10.24
373.846	67.58
374.056	26.62
374.267	63.49
374.477	106.49
374.688	55.3
374.898	4.1
375.109	122.88
375.319	47.1
375.53	120.83
375.74	92.16
375.951	-28.67
376.161	4.1
376.372	10.24
376.582	-30.72
376.793	51.2
377.003	26.62
377.214	0
377.424	2.05
377.635	55.3
377.845	69.63
378.055	96.25
378.266	12.29
378.476	63.49
378.686	104.45
378.897	63.49
379.107	22.53
379.317	59.39
379.528	51.2
379.738	34.82
379.948	57.34
380.158	98.3
380.369	55.3
380.579	120.83
380.789	22.53
380.999	71.68
381.21	83.97
381.42	96.25
381.63	14.34
381.84	51.2
382.05	120.83
382.261	22.53
382.471	69.63
382.681	47.1
382.891	90.11
383.101	94.21
383.311	51.2
383.521	-20.48
383.731	63.49
383.941	77.82
384.151	43.01
384.361	92.16
384.571	102.4
384.781	71.68
384.991	98.3
385.201	73.73
385.411	40.96
385.621	71.68
385.831	28.67
386.041	43.01
386.251	126.97
386.461	86.01
386.671	88.06
386.881	61.44
387.091	30.72
387.301	79.87
387.511	-4.1
387.72	131.07
387.93	143.36
388.14	-14.34
388.35	-20.48
388.56	65.54
388.769	135.17
388.979	69.63
389.189	71.68
389.399	45.06
389.609	14.34
389.818	20.48
390.028	86.01
390.238	10.24
390.447	14.34
390.657	36.86
390.867	30.72
391.076	10.24
391.286	100.35
391.496	-2.05
391.705	26.62
391.915	55.3
392.125	75.77
392.334	49.15
392.544	143.36
392.753	53.25
392.963	32.77
393.172	45.06
393.382	73.73
393.591	16.38
393.801	-2.05
394.01	167.93
394.22	34.82
394.429	79.87
394.639	22.53
394.848	126.97
395.058	53.25
395.267	-32.77
395.477	38.91
395.686	67.58
395.895	135.17
396.105	100.35
396.314	34.82
396.524	98.3
396.733	96.25
396.942	104.45
397.152	133.12
397.361	112.64
397.57	176.13
397.78	45.06
397.989	145.41
398.198	47.1
398.407	26.62
398.617	116.73
398.826	94.21
399.035	124.93
399.244	88.06
399.453	124.93
399.663	114.69
399.872	45.06
400.081	55.3
400.29	133.12
400.499	110.59
400.708	118.78
400.917	86.01
401.127	163.84
401.336	61.44
401.545	131.07
401.754	145.41
401.963	108.54
402.172	67.58
402.381	73.73
402.59	147.45
402.799	59.39
403.008	157.69
403.217	129.02
403.426	116.73
403.635	71.68
403.844	59.39
404.053	139.26
404.262	102.4
404.471	176.13
404.68	143.36
404.888	182.27
405.097	65.54
405.306	176.13
405.515	63.49
405.724	120.83
405.933	167.93
406.142	174.08
406.35	194.56
406.559	161.79
406.768	194.56
406.977	296.96
407.185	133.12
407.394	210.94
407.603	110.59
407.812	165.89
408.02	235.52
408.229	176.13
408.438	229.37
408.646	237.56
408.855	210.94
409.064	256
409.272	204.8
409.481	192.51
409.69	241.66
409.898	139.26
410.107	272.38
410.315	217.08
410.524	268.28
410.733	276.48
410.941	270.33
411.15	307.2
411.358	303.1
411.567	299
411.775	313.34
411.984	360.44
412.192	301.05
412.401	350.2
412.609	407.55
412.818	380.92
413.026	391.16
413.234	391.16
413.443	356.35
413.651	448.51
413.86	489.46
414.068	483.32
414.276	538.62
414.485	511.99
414.693	526.33
414.901	565.24
415.11	538.62
415.318	530.42
415.526	520.18
415.734	563.19
415.943	585.72
416.151	579.58
416.359	616.44
416.567	628.73
416.776	720.89
416.984	741.36
417.192	735.22
417.4	706.55
417.608	772.08
417.817	743.41
418.025	868.34
418.233	813.04
418.441	864.24
418.649	884.72
418.857	966.64
419.065	1030.13
419.273	948.21
419.481	1066.99
419.689	1030.13
419.897	1060.85
420.105	1120.24
420.313	1226.73
420.521	1265.64
420.729	1308.65
420.937	1288.17
421.145	1308.65
421.353	1406.95
421.561	1486.83
421.769	1472.49
421.977	1533.93
422.185	1509.35
422.393	1628.14
422.601	1789.92
422.809	1771.49
423.017	1724.39
423.224	1734.63
423.432	1875.94
423.64	1908.71
423.848	2047.97
424.056	1886.18
424.263	2076.64
424.471	2215.9
424.679	2172.89
424.887	2240.48
425.094	2367.45
425.302	2369.5
425.51	2527.19
425.718	2592.73
425.925	2654.17
426.133	2611.16
426.341	2809.81
426.548	2832.34
426.756	2897.88
426.964	3071.95
427.171	3164.11
427.379	3082.19
427.586	3178.45
427.794	3348.43
428.001	3553.23
428.209	3655.62
428.417	3585.99
428.624	3700.68
428.832	3848.13
429.039	3864.52
429.247	3698.63
429.454	4308.93
429.662	4493.24
429.869	4212.67
430.076	4573.11
430.284	4423.61
430.491	4466.62
430.699	4837.3
430.906	4865.97
431.114	4820.92
431.321	5035.96
431.528	5271.47
431.736	5506.99
431.943	5810.09
432.15	5523.37
432.358	5787.56
432.565	5830.57
432.772	5832.61
432.979	6301.6
433.187	6215.59
433.394	6281.12
433.601	6668.19
433.808	6889.37
434.016	6780.82
434.223	7006.1
434.43	7468.94
434.637	7311.25
434.844	7958.41
435.052	8042.37
435.259	7968.65
435.466	7870.34
435.673	8007.56
435.88	8439.68
436.087	8904.57
436.294	8697.72
436.501	8652.67
436.708	8757.11
436.915	8986.49
437.122	9488.24
437.329	9647.98
437.537	9834.35
437.743	9801.58
437.95	10086.25
438.157	10506.08
438.364	10985.3
438.571	10739.55
438.778	10776.41
438.985	11710.29
439.192	11325.27
439.399	11812.68
439.606	11556.69
439.813	12136.26
440.02	13029.18
440.227	12525.38
440.433	12339.01
440.64	13002.55
440.847	12787.52
441.054	13129.53
441.261	13995.82
441.467	14124.84
441.674	14100.26
441.881	14851.87
442.088	14561.06
442.294	14483.24
442.501	14997.28
442.708	15263.51
442.914	15673.1
443.121	16242.44
443.328	15865.61
443.534	17037.05
443.741	16330.5
443.948	16506.63
444.154	17430.26
444.361	17334.01
444.568	17817.33
444.774	17667.83
444.981	18071.28
445.187	18257.64
445.394	18839.26
445.6	18845.41
445.807	20573.89
446.013	19750.61
446.22	20047.57
446.426	20940.48
446.633	21026.5
446.839	21561.01
447.046	20973.25
447.252	22142.64
447.459	22216.37
447.665	22238.89
447.871	23197.34
448.078	24090.26
448.284	22419.11
448.491	23512.73
448.697	24202.89
448.903	24632.97
449.11	24637.06
449.316	24422.03
449.522	25060.99
449.728	25706.1
449.935	25470.59
450.141	25960.05
450.347	26056.31
450.553	25140.86
450.76	25392.76
450.966	26574.44
451.172	26308.21
451.378	26932.84
451.584	26525.29
451.791	27018.85
451.997	26719.85
452.203	27031.14
452.409	27360.86
452.615	26953.32
452.821	26244.72
453.027	26041.97
453.233	27237.98
453.44	25966.2
453.646	26590.83
453.852	26680.94
454.058	26850.92
454.264	26156.66
454.47	26781.29
454.676	25814.65
454.882	26748.52
455.088	24413.84
455.294	24868.48
455.5	25220.74
455.705	25550.46
455.911	24483.47
456.117	23897.75
456.323	23252.64
456.529	22329
456.735	23350.94
456.941	22662.82
457.147	22087.34
457.352	21419.71
457.558	21219
457.764	21241.53
457.97	20965.06
458.176	20238.03
458.381	20383.43
458.587	19578.58
458.793	19465.94
458.999	18384.62
459.204	19719.89
459.41	19109.6
459.616	17782.51
459.821	17991.41
460.027	17499.89
460.233	17444.6
460.438	16756.48
460.644	16850.69
460.85	16207.62
461.055	15785.74
461.261	15918.86
461.466	14554.91
461.672	14196.52
461.878	15300.37
462.083	14110.5
462.289	13918
462.494	13612.85
462.7	13018.94
462.905	12934.97
463.111	13170.49
463.316	13268.79
463.522	13133.62
463.727	12689.21
463.932	12896.06
464.138	12969.79
464.343	12855.1
464.549	12490.56
464.754	12980.03
464.959	12820.28
465.165	12615.49
465.37	12117.83
465.575	11888.46
465.781	12275.52
465.986	12289.86
466.191	11888.46
466.397	11759.44
466.602	11181.91
466.807	11777.87
467.012	11442
467.218	11538.26
467.423	11081.56
467.628	11413.33
467.833	11859.79
468.038	11171.67
468.244	11388.75
468.449	11409.23
468.654	11134.81
468.859	11034.46
469.064	10989.4
469.269	10702.68
469.474	10657.63
469.679	10823.51
469.885	10512.22
470.09	10741.6
470.295	10604.38
470.5	10477.41
470.705	10375.01
470.91	10164.07
471.115	10184.55
471.32	10430.3
471.525	10282.85
471.73	9992.04
471.935	9992.04
472.139	9684.84
472.344	9762.67
472.549	9709.42
472.754	9502.58
472.959	9336.69
473.164	9164.66
473.369	8953.72
473.574	9412.46
473.778	9238.39
473.983	9033.59
474.188	9160.56
474.393	8853.37
474.598	8689.53
474.802	8394.62
475.007	8574.85
475.212	8519.55
475.417	8411.01
475.621	8247.17
475.826	8474.49
476.031	8124.29
476.235	7823.24
476.44	8023.94
476.645	7968.65
476.849	7956.36
477.054	7665.55
477.259	7722.89
477.463	7665.55
477.668	7655.31
477.872	7761.8
478.077	7495.57
478.282	7184.27
478.486	7223.19
478.691	7272.34
478.895	7327.63
479.1	7202.71
479.304	7135.12
479.509	6981.53
479.713	7098.26
479.918	6950.81
480.122	6727.58
480.326	6926.23
480.531	6858.65
480.735	6799.26
480.94	6703
481.144	6991.77
481.348	6606.75
481.553	6737.82
481.757	6807.45
481.961	6713.24
482.166	6731.67
482.37	6559.64
482.574	6746.01
482.778	6803.35
482.983	6870.94
483.187	6565.79
483.391	6805.4
483.595	6528.92
483.8	6543.26
484.004	6655.9
484.208	6571.93
484.412	6592.41
484.616	6711.19
484.821	6674.33
485.025	6555.55
485.229	6606.75
485.433	6672.28
485.637	6469.53
485.841	6672.28
486.045	6508.44
486.249	6621.08
486.453	6459.29
486.657	6629.27
486.861	6655.9
487.065	6465.44
487.269	6549.4
487.473	6326.18
487.677	6678.43
487.881	6823.83
488.085	6727.58
488.289	6829.98
488.493	6596.51
488.697	6684.57
488.901	6680.47
489.105	6645.66
489.309	6844.31
489.512	6795.16
489.716	6913.94
489.92	6533.02
490.124	6549.4
490.328	6719.39
490.531	7002.01
490.735	6698.91
490.939	6942.61
491.143	6694.81
491.346	6848.41
491.55	6932.37
491.754	6852.5
491.958	6905.75
492.161	6985.62
492.365	6879.13
492.569	6987.67
492.772	6862.74
492.976	7251.86
493.18	7198.61
493.383	7372.69
493.587	7350.16
493.79	7350.16
493.994	7217.04
494.197	7303.06
494.401	7628.68
494.605	7239.57
494.808	7671.69
495.012	7391.12
495.215	7612.3
495.419	7868.3
495.622	7700.36
495.825	7722.89
496.029	7794.57
496.232	7958.41
496.436	8013.7
496.639	7989.13
496.843	7976.84
497.046	8193.92
497.249	8335.23
497.453	8447.87
497.656	8396.67
497.859	8351.62
498.063	8288.13
498.266	8826.75
498.469	8656.76
498.673	8734.59
498.876	8841.08
499.079	8867.7
499.282	8884.09
499.485	9238.39
499.689	9267.06
499.892	9310.07
500.095	9445.23
500.298	9596.78
500.501	9668.46
500.705	9824.11
500.908	9852.78
501.111	9881.45
501.314	9848.68
501.517	10297.19
501.72	10276.71
501.923	10624.86
502.126	10454.88
502.329	10614.62
502.532	10766.17
502.735	10778.46
502.938	10991.45
503.141	11136.85
503.344	11102.04
503.547	11446.1
503.75	11280.21
503.953	11538.26
504.156	11659.09
504.359	11736.91
504.562	11765.58
504.765	12169.03
504.968	12189.51
505.17	12220.23
505.373	12353.35
505.576	12554.05
505.779	12738.37
505.982	12906.3
506.185	13051.7
506.387	12984.12
506.59	13164.34
506.793	13496.11
506.996	13479.73
507.198	14118.7
507.401	13858.6
507.604	13930.28
507.807	14495.52
508.009	14634.78
508.212	14448.42
508.415	14497.57
508.617	14718.75
508.82	14815.01
509.022	14778.14
509.225	15609.62
509.428	15279.89
509.63	15359.77
509.833	15652.63
510.035	15904.53
510.238	15654.67
510.44	15828.75
510.643	16344.84
510.845	16340.74
511.048	16381.7
511.25	16611.07
511.453	16719.62
511.655	17297.14
511.858	16897.79
512.06	17245.94
512.262	17653.49
512.465	17579.76
512.667	17698.55
512.87	18382.57
513.072	18052.84
513.274	18573.03
513.477	18724.58
513.679	18845.41
513.881	19156.7
514.084	19238.62
514.286	19324.63
514.488	19691.22
514.69	20248.27
514.893	20004.56
515.095	20223.69
515.297	20422.34
515.499	20502.22
515.701	20752.07
515.904	21196.48
516.106	21288.64
516.308	21493.43
516.51	21407.42
516.712	21526.2
516.914	22103.73
517.116	22058.67
517.318	22455.98
517.52	22263.47
517.722	23115.42
517.925	22771.36
518.127	23443.1
518.329	23547.54
518.531	23568.02
518.733	24018.58
518.935	24514.19
519.136	24223.37
519.338	24764.04
519.54	24809.09
519.742	25173.63
519.944	25069.19
520.146	25785.97
520.348	25925.24
520.55	25923.19
520.752	25998.96
520.954	26682.98
521.155	26732.14
521.357	27025
521.559	27285.09
521.761	27696.73
521.963	27866.71
522.164	27981.4
522.366	27960.92
522.568	28634.7
522.77	28515.92
522.971	29273.67
523.173	29019.72
523.375	29388.35
523.576	29259.33
523.778	29666.88
523.98	30131.76
524.181	30266.93
524.383	30916.14
524.584	31026.73
524.786	30834.22
524.988	31301.15
525.189	31477.28
525.391	31649.31
525.592	32015.9
525.794	32017.94
525.995	32177.69
526.197	32411.15
526.398	32351.76
526.6	32869.9
526.801	33302.02
527.003	33506.82
527.204	33304.07
527.406	33611.26
527.607	33725.95
527.808	33975.8
528.01	33582.59
528.211	33875.45
528.412	34622.96
528.614	34485.75
528.815	34731.5
529.016	35542.5
529.218	35038.7
529.419	35519.97
529.62	35149.29
529.822	35380.71
530.023	35093.99
530.224	35329.51
530.425	35794.4
530.626	35732.96
530.828	35610.08
531.029	36707.79
531.23	36365.78
531.431	36097.5
531.632	36832.72
531.833	36373.97
532.035	36750.8
532.236	36425.17
532.437	36779.47
532.638	37055.95
532.839	37481.92
533.04	37184.97
533.241	36953.55
533.442	37440.96
533.643	37438.92
533.844	37354.95
534.045	37594.56
534.246	37211.59
534.447	37952.96
534.648	37316.04
534.849	37606.85
535.05	37328.33
535.251	37930.43
535.451	37488.07
535.652	38045.12
535.853	37838.27
536.054	37772.74
536.255	37926.33
536.456	37420.48
536.657	38829.49
536.857	37787.07
537.058	37963.2
537.259	38032.83
537.46	38350.26
537.66	38165.95
537.861	38176.19
538.062	38182.33
538.263	38079.93
538.463	37719.49
538.664	38258.1
538.865	38350.26
539.065	38538.68
539.266	37838.27
539.466	38469.04
539.667	37914.05
539.868	38612.4
540.068	38413.75
540.269	37897.66
540.469	38274.49
540.67	38647.22
540.87	38182.33
541.071	38258.1
541.271	38714.8
541.472	38413.75
541.672	38407.61
541.873	37971.39
542.073	37756.35
542.274	38567.35
542.474	38108.6
542.675	38167.99
542.875	38393.27
543.075	38176.19
543.276	37785.02
543.476	38411.7
543.676	37983.68
543.877	38333.88
544.077	38575.54
544.277	38004.16
544.478	38614.45
544.678	38583.73
544.878	38241.72
545.078	38747.57
545.279	38153.66
545.479	38133.18
545.679	37961.15
545.879	38313.4
546.079	38141.37
546.28	38249.91
546.48	37791.17
546.68	38344.12
546.88	38292.92
547.08	38249.91
547.28	38399.41
547.48	37903.81
547.68	38415.8
547.88	38096.31
548.081	38317.5
548.281	38469.04
548.481	38004.16
548.681	38176.19
548.881	38307.26
549.081	37977.53
549.28	38378.93
549.48	38303.16
549.68	38065.6
549.88	38333.88
550.08	37987.77
550.28	38405.56
550.48	38069.69
550.68	38493.62
550.88	37952.96
551.08	38423.99
551.279	38020.54
551.479	37713.34
551.679	38387.13
551.879	37535.17
552.079	37961.15
552.278	37907.9
552.478	38477.24
552.678	38090.17
552.878	38469.04
553.077	37768.64
553.277	37825.98
553.477	38079.93
553.676	37453.25
553.876	37670.34
554.076	37873.09
554.275	37701.06
554.475	37193.16
554.674	37967.29
554.874	37924.29
555.074	37133.77
555.273	37555.65
555.473	37725.63
555.672	37612.99
555.872	37563.84
556.071	37150.15
556.271	37739.97
556.47	37582.27
556.67	36642.26
556.869	37121.48
557.068	37365.19
557.268	37217.74
557.467	36910.54
557.667	36928.97
557.866	36591.06
558.065	36738.51
558.265	36292.05
558.464	36226.52
558.663	36775.37
558.863	36185.56
559.062	36601.3
559.261	36193.75
559.461	36900.3
559.66	35782.11
559.859	36070.87
560.058	35845.6
560.258	35577.31
560.457	35798.49
560.656	35952.09
560.855	35368.42
561.054	35950.04
561.253	35055.08
561.453	35634.66
561.652	35429.86
561.851	35306.98
562.05	35059.18
562.249	34528.75
562.448	34989.55
562.647	34631.15
562.846	34643.44
563.045	34536.94
563.244	34268.66
563.443	34743.79
563.642	33992.19
563.841	34055.67
564.04	33945.08
564.239	34272.76
564.438	33709.57
564.637	33895.93
564.836	33666.56
565.035	33269.25
565.234	33701.37
565.432	33179.14
565.631	33164.81
565.83	33082.89
566.029	33101.32
566.228	32853.51
566.427	32646.67
566.625	32863.75
566.824	32370.19
567.023	32355.86
567.222	31647.26
567.42	32458.26
567.619	31870.49
567.818	31481.38
568.016	31565.34
568.215	31761.95
568.414	31303.2
568.612	31596.06
568.811	31133.22
569.01	31319.59
569.208	30656.04
569.407	31135.27
569.605	30688.81
569.804	30662.19
570.002	30557.74
570.201	30465.58
570.4	30234.16
570.598	30047.8
570.797	29802.04
570.995	29828.66
571.193	29509.18
571.392	29961.78
571.59	29568.57
571.789	29519.42
571.987	29009.48
572.186	28864.07
572.384	29226.56
572.582	29124.16
572.781	28671.56
572.979	28227.15
573.177	28544.59
573.376	28610.12
573.574	28057.17
573.772	28259.92
573.971	28120.66
574.169	27930.2
574.367	27614.81
574.565	27782.74
574.763	27934.29
574.962	27647.58
575.16	27270.75
575.358	27266.66
575.556	27049.57
575.754	27360.86
575.952	26922.6
576.151	26758.76
576.349	26605.16
576.547	26844.77
576.745	26605.16
576.943	26701.42
577.141	26611.31
577.339	26293.87
577.537	26510.96
577.735	26209.9
577.933	26181.23
578.131	26121.84
578.329	25726.58
578.527	25587.32
578.725	25837.17
578.923	25837.17
579.121	25466.49
579.319	25312.89
579.516	25591.42
579.714	25454.2
579.912	24854.15
580.11	24829.57
580.308	25306.75
580.506	24952.45
580.704	24665.74
580.901	25028.23
581.099	24845.96
581.297	24579.72
581.495	24333.96
581.692	24530.57
581.89	24376.97
582.088	24368.78
582.285	24358.54
582.483	24000.15
582.681	23897.75
582.878	24254.09
583.076	23623.32
583.274	24184.46
583.471	23651.99
583.669	23584.41
583.866	23490.2
584.064	23692.95
584.262	23271.07
584.459	23144.09
584.657	23187.1
584.854	23277.21
585.052	22996.64
585.249	23084.7
585.447	23080.61
585.644	22585
585.841	23072.42
586.039	23004.83
586.236	22634.15
586.434	22654.63
586.631	22490.79
586.828	22687.4
587.026	22521.51
587.223	22335.15
587.42	22062.77
587.618	21651.13
587.815	21989.04
588.012	21948.08
588.21	21716.66
588.407	22093.49
588.604	21771.96
588.801	21552.82
588.999	21538.49
589.196	21581.49
589.393	21380.79
589.59	21362.36
589.787	21431.99
589.984	21145.28
590.182	21268.16
590.379	20981.44
590.576	20860.61
590.773	20891.33
590.97	20911.81
591.167	21057.21
591.364	20594.37
591.561	20643.53
591.758	20395.72
591.955	20475.59
592.152	20657.86
592.349	20188.88
592.546	20627.14
592.743	20436.68
592.94	20186.83
593.137	20293.32
593.334	20172.49
593.531	19873.49
593.727	19943.12
593.924	20158.16
594.121	19592.92
594.318	20158.16
594.515	19345.11
594.712	19863.25
594.908	19609.3
595.105	19343.06
595.302	19255
595.499	19615.44
595.696	19332.83
595.892	19502.81
596.089	19191.52
596.286	19240.67
596.482	18990.81
596.679	18943.71
596.876	19066.59
597.072	18808.54
597.269	18943.71
597.466	18876.13
597.662	18786.02
597.859	18792.16
598.055	18556.64
598.252	18378.47
598.448	18525.93
598.645	18464.49
598.841	18308.84
599.038	18251.5
599.234	18165.48
599.431	18116.33
599.627	17876.72
599.824	18040.56
600.02	18005.74
600.217	18157.29
600.413	18044.65
600.609	17716.98
600.806	17829.62
601.002	17641.2
601.198	17766.13
601.395	17286.9
601.591	17454.84
601.787	17485.56
601.984	17196.79
602.18	17633.01
602.376	17403.64
602.572	17225.47
602.769	17276.66
602.965	16934.65
603.161	17399.54
603.357	17053.44
603.553	16727.81
603.75	16807.68
603.946	16758.53
604.142	17016.57
604.338	16504.58
604.534	16580.35
604.73	16404.23
604.926	16539.4
605.122	16498.44
605.318	16480
605.514	16396.04
605.71	16078.6
605.906	16299.78
606.102	16287.5
606.298	15961.87
606.494	16047.88
606.69	16381.7
606.886	16070.41
607.082	15910.67
607.278	15892.24
607.474	15695.63
607.67	15916.81
607.866	15468.31
608.062	15861.52
608.257	15791.89
608.453	15574.8
608.649	15658.77
608.845	15447.83
609.041	15576.85
609.236	15347.48
609.432	15255.32
609.628	15320.85
609.824	15333.14
610.019	15154.97
610.215	15238.94
610.411	15120.15
610.606	15126.3
610.802	15191.83
610.998	15197.98
611.193	14999.32
611.389	15105.82
611.584	14784.29
611.78	14878.49
611.976	14829.34
612.171	14964.51
612.367	14989.08
612.562	14853.92
612.758	14767.9
612.953	14696.22
613.149	14798.62
613.344	14464.8
613.539	14759.71
613.735	14647.07
613.93	14741.28
614.126	14395.17
614.321	14479.14
614.517	14456.61
614.712	14700.32
614.907	14366.5
615.103	14298.92
615.298	14114.6
615.493	14415.65
615.688	14214.95
615.884	14554.91
616.079	14382.88
616.274	14116.65
616.47	14075.69
616.665	14315.3
616.86	14135.08
617.055	14061.35
617.25	13874.99
617.445	13885.23
617.641	13793.07
617.836	13915.95
618.031	13850.41
618.226	13756.21
618.421	13639.47
618.616	13793.07
618.811	13449.01
619.006	13678.38
619.201	13436.72
619.396	13532.98
619.591	13068.09
619.786	13645.62
619.981	13256.5
620.176	13332.28
620.371	12961.59
620.566	13289.27
620.761	13236.02
620.956	12801.85
621.151	12816.19
621.346	12971.83
621.541	12504.9
621.735	12812.09
621.93	12719.93
622.125	12732.22
622.32	12427.07
622.515	12455.75
622.709	12293.96
622.904	12613.44
623.099	12212.04
623.294	12332.87
623.488	11997
623.683	12257.09
623.878	11906.89
624.072	12091.21
624.267	11921.23
624.462	11851.6
624.656	11806.54
624.851	11833.16
625.046	11669.33
625.24	11544.4
625.435	11448.15
625.629	11573.07
625.824	11523.92
626.018	11515.73
626.213	11140.95
626.407	11229.01
626.602	11218.77
626.796	11175.77
626.991	11179.86
627.185	11011.93
627.38	11011.93
627.574	10829.66
627.768	10833.75
627.963	10614.62
628.157	10616.67
628.352	10659.68
628.546	10577.76
628.74	10723.16
628.935	10553.18
629.129	10389.35
629.323	10424.16
629.517	10088.29
629.712	10205.03
629.906	10291.04
630.1	10114.92
630.294	10252.13
630.489	9930.6
630.683	10184.55
630.877	10069.86
631.071	10010.47
631.265	9918.31
631.459	9820.01
631.653	9822.06
631.848	9875.31
632.042	9660.27
632.236	9473.9
632.43	9639.79
632.624	9504.62
632.818	9434.99
633.012	9387.89
633.206	9152.37
633.4	9295.73
633.594	9373.55
633.788	9279.35
633.982	9351.03
634.176	9127.8
634.369	8869.75
634.563	8918.9
634.757	9009.01
634.951	9088.89
635.145	9023.35
635.339	9066.36
635.533	8820.6
635.726	8742.78
635.92	8722.3
636.114	8814.46
636.308	8507.26
636.501	8388.48
636.695	8550.27
636.889	8411.01
637.083	8398.72
637.276	8378.24
637.47	8384.38
637.664	8222.59
637.857	8159.11
638.051	8288.13
638.244	8136.58
638.438	7999.37
638.632	8025.99
638.825	7872.39
639.019	8030.09
639.212	7780.23
639.406	7866.25
639.599	7821.19
639.793	7794.57
639.986	7591.82
640.18	7722.89
640.373	7763.85
640.567	7358.35
640.76	7583.63
640.954	7397.26
641.147	7507.85
641.34	7450.51
641.534	7233.43
641.727	7378.83
641.92	7296.91
642.114	7309.2
642.307	7362.45
642.5	7253.91
642.694	7057.3
642.887	7075.73
643.08	7098.26
643.273	7018.39
643.467	7094.16
643.66	6961.05
643.853	6893.46
644.046	6774.68
644.239	6821.78
644.432	6852.5
644.626	6840.22
644.819	6750.1
645.012	6598.56
645.205	6862.74
645.398	6901.65
645.591	6616.99
645.784	6436.77
645.977	6416.29
646.17	6508.44
646.363	6324.13
646.556	6428.57
646.749	6401.95
646.942	6487.97
647.135	6360.99
647.328	6281.12
647.521	6363.04
647.714	6109.09
647.907	6252.45
648.099	6072.23
648.292	6094.76
648.485	6150.05
648.678	6016.93
648.871	6002.6
649.064	6033.32
649.256	6158.24
649.449	5826.47
649.642	5871.53
649.835	5832.61
650.027	5844.9
650.22	5805.99
650.413	5887.91
650.605	5812.14
650.798	5640.11
650.991	5646.25
651.183	5869.48
651.376	5539.76
651.568	5691.31
651.761	5576.62
651.954	5496.75
652.146	5693.35
652.339	5607.34
652.531	5543.85
652.724	5449.64
652.916	5441.45
653.109	5382.06
653.301	5363.63
653.494	5253.04
653.686	5285.81
653.879	5369.77
654.071	5318.57
654.263	5257.14
654.456	5205.94
654.648	5273.52
654.84	5261.23
655.033	5148.59
655.225	5113.78
655.417	5081.01
655.61	5316.53
655.802	5167.03
655.994	5128.11
656.186	5042.1
656.379	5074.87
656.571	5029.81
656.763	4964.28
656.955	4872.12
657.148	4839.35
657.34	4941.75
657.532	4829.11
657.724	5189.55
657.916	4845.49
658.108	4843.45
658.3	4734.9
658.492	4937.65
658.684	4741.05
658.876	4786.1
659.068	4900.79
659.26	4745.14
659.452	4773.82
659.644	4798.39
659.836	4646.84
660.028	4591.55
660.22	4624.31
660.412	4556.73
660.604	4583.35
660.796	4476.86
660.988	4816.82
661.18	4663.22
661.372	4472.76
661.563	4573.11
661.755	4462.52
661.947	4554.68
662.139	4505.53
662.331	4403.13
662.522	4534.2
662.714	4530.11
662.906	4507.58
663.097	4501.44
663.289	4454.33
663.481	4378.56
663.673	4409.28
663.864	4380.61
664.056	4251.58
664.247	4370.37
664.439	4298.69
664.631	4450.24
664.822	4368.32
665.014	4458.43
665.205	4298.69
665.397	4247.49
665.588	4165.57
665.78	4272.06
665.971	4321.21
666.163	4306.88
666.354	4302.78
666.546	4298.69
666.737	4370.37
666.929	4396.99
667.12	4331.45
667.311	4241.34
667.503	4362.17
667.694	4392.89
667.885	4247.49
668.077	4403.13
668.268	4061.12
668.459	4310.97
668.651	4331.45
668.842	4167.62
669.033	4298.69
669.224	4155.33
669.416	4403.13
669.607	4208.58
669.798	4253.63
669.989	4278.21
670.18	4188.1
670.371	4145.09
670.563	4331.45
670.754	4274.11
670.945	4229.06
671.136	4265.92
671.327	4294.59
671.518	4212.67
671.709	4278.21
671.9	4286.4
672.091	4292.54
672.282	4263.87
672.473	4265.92
672.664	4274.11
672.855	4345.79
673.046	4241.34
673.237	4321.21
673.428	4339.65
673.619	4247.49
673.809	4282.3
674	4431.8
674.191	4347.84
674.382	4468.67
674.573	4515.77
674.764	4378.56
674.954	4388.8
675.145	4356.03
675.336	4564.92
675.527	4433.85
675.717	4368.32
675.908	4536.25
676.099	4526.01
676.289	4530.11
676.48	4532.15
676.671	4528.06
676.861	4630.46
677.052	4526.01
677.243	4593.59
677.433	4644.79
677.624	4691.9
677.814	4607.93
678.005	4782.01
678.195	4687.8
678.386	4698.04
678.576	4622.27
678.767	4806.58
678.957	4913.08
679.148	4814.77
679.338	4851.64
679.529	4798.39
679.719	4974.52
679.909	5052.34
680.1	4974.52
680.29	4964.28
680.481	5001.14
680.671	5074.87
680.861	4999.09
681.052	5097.39
681.242	5021.62
681.432	5238.7
681.622	4995
681.813	5019.57
682.003	5148.59
682.193	5109.68
682.383	5277.62
682.573	5222.32
682.764	5167.03
682.954	5246.9
683.144	5314.48
683.334	4958.13
683.524	5423.02
683.714	5435.31
683.904	5169.07
684.094	5246.9
684.284	5361.58
684.474	5463.98
684.664	5175.22
684.854	5418.93
685.044	5226.42
685.234	5269.42
685.424	5298.1
685.614	5240.75
685.804	5228.46
685.994	5449.64
686.184	5265.33
686.374	5334.96
686.564	5289.9
686.753	5124.02
686.943	5187.5
687.133	5140.4
687.323	5126.07
687.513	5330.86
687.702	5072.82
687.892	5060.53
688.082	5150.64
688.272	5285.81
688.461	5011.38
688.651	5044.15
688.841	5156.79
689.03	4906.93
689.22	4995
689.41	5054.39
689.599	4962.23
689.789	4886.45
689.979	4829.11
690.168	4857.78
690.358	4915.12
690.547	4788.15
690.737	4726.71
690.926	4685.75
691.116	4675.51
691.305	4716.47
691.495	4679.61
691.684	4638.65
691.874	4534.2
692.063	4681.66
692.252	4691.9
692.442	4511.68
692.631	4374.46
692.82	4495.29
693.01	4526.01
693.199	4519.87
693.388	4384.7
693.578	4509.63
693.767	4499.39
693.956	4364.22
694.146	4345.79
694.335	4294.59
694.524	4155.33
694.713	4403.13
694.902	4204.48
695.092	4265.92
695.281	4263.87
695.47	4292.54
695.659	4179.9
695.848	4356.03
696.037	4126.66
696.226	4116.42
696.415	4265.92
696.604	4284.35
696.793	4126.66
696.982	4114.37
697.171	4233.15
697.36	4227.01
697.549	4116.42
697.738	4128.7
697.927	4077.51
698.116	4065.22
698.305	4241.34
698.494	4173.76
698.683	4118.47
698.872	4192.19
699.061	4046.79
699.25	4171.71
699.438	4100.03
699.627	4274.11
699.816	4306.88
700.005	4102.08
700.193	4157.38
700.382	4175.81
700.571	4190.14
700.76	4196.29
700.948	4417.47
701.137	4184
701.326	4175.81
701.514	4097.99
701.703	4278.21
701.892	4110.27
702.08	4272.06
702.269	4159.42
702.457	4143.04
702.646	4200.38
702.834	4190.14
703.023	4186.05
703.212	4229.06
703.4	4130.75
703.589	4188.1
703.777	4163.52
703.965	4335.55
704.154	4196.29
704.342	4151.23
704.531	4224.96
704.719	4192.19
704.907	4298.69
705.096	4188.1
705.284	4317.12
705.472	4421.56
705.661	4290.49
705.849	4462.52
706.037	4431.8
706.226	4351.93
706.414	4298.69
706.602	4323.26
706.79	4431.8
706.979	4413.37
707.167	4419.52
707.355	4427.71
707.543	4577.21
707.731	4630.46
707.919	4474.81
708.107	4546.49
708.296	4671.42
708.484	4515.77
708.672	4558.78
708.86	4575.16
709.048	4585.4
709.236	4597.69
709.424	4634.55
709.612	4669.37
709.8	4614.07
709.988	4665.27
710.176	4536.25
710.364	4730.81
710.551	4822.97
710.739	4849.59
710.927	4763.58
711.115	4818.87
711.303	4929.46
711.491	4857.78
711.679	4747.19
711.866	4822.97
712.054	4868.02
712.242	4765.62
712.43	4894.65
712.617	4904.89
712.805	4810.68
712.993	4929.46
713.181	4863.93
713.368	5042.1
713.556	4935.6
713.744	5066.67
713.931	5228.46
714.119	5085.11
714.306	5064.63
714.494	5103.54
714.682	5167.03
714.869	4986.8
715.057	5144.5
715.244	5115.83
715.432	5289.9
715.619	5040.05
715.807	5349.29
715.994	5230.51
716.182	5248.94
716.369	5304.24
716.556	5394.35
716.744	5367.73
716.931	5326.77
717.119	5412.78
717.306	5400.49
717.493	5396.4
717.681	5582.76
717.868	5470.12
718.055	5580.71
718.242	5525.42
718.43	5580.71
718.617	5515.18
718.804	5660.59
718.991	5646.25
719.179	5631.91
719.366	5607.34
719.553	5674.92
719.74	5732.26
719.927	5752.74
720.114	5732.26
720.301	5656.49
720.488	5799.85
720.676	5724.07
720.863	5709.74
721.05	5773.22
721.237	5683.11
721.424	5844.9
721.611	5834.66
721.798	5820.33
721.985	5765.03
722.172	5863.33
722.358	5994.4
722.545	5965.73
722.732	5830.57
722.919	6117.28
723.106	5912.49
723.293	5926.82
723.48	5990.31
723.667	5978.02
723.853	5978.02
724.04	6096.8
724.227	6219.68
724.414	6215.59
724.6	6084.52
724.787	6193.06
724.974	6092.71
725.161	6295.46
725.347	6061.99
725.534	6213.54
725.72	6207.39
725.907	6211.49
726.094	6168.48
726.28	6356.89
726.467	6299.55
726.653	6338.46
726.84	6229.92
727.027	6371.23
727.213	6256.54
727.4	6391.71
727.586	6367.13
727.773	6363.04
727.959	6434.72
728.145	6465.44
728.332	6363.04
728.518	6463.39
728.705	6451.1
728.891	6492.06
729.077	6459.29
729.264	6559.64
729.45	6481.82
729.636	6651.8
729.823	6524.83
730.009	6612.89
730.195	6463.39
730.382	6494.11
730.568	6619.03
730.754	6832.02
730.94	6565.79
731.126	6522.78
731.313	6635.42
731.499	6639.51
731.685	6651.8
731.871	6649.75
732.057	6690.71
732.243	6541.21
732.429	6676.38
732.615	6678.43
732.801	6651.8
732.987	6614.94
733.173	6705.05
733.359	6928.28
733.545	6559.64
733.731	6811.54
733.917	6727.58
734.103	6610.84
734.289	6666.14
734.475	6672.28
734.661	6821.78
734.847	6606.75
735.033	6913.94
735.219	6629.27
735.404	6612.89
735.59	6664.09
735.776	6674.33
735.962	6834.07
736.148	6827.93
736.333	6629.27
736.519	6694.81
736.705	6803.35
736.89	6764.44
737.076	6623.13
737.262	6623.13
737.447	6641.56
737.633	6748.06
737.819	6760.34
738.004	6664.09
738.19	6666.14
738.375	6655.9
738.561	6721.43
738.747	6573.98
738.932	6662.04
739.118	6715.29
739.303	6612.89
739.489	6633.37
739.674	6535.07
739.859	6559.64
740.045	6490.01
740.23	6619.03
740.416	6526.88
740.601	6557.6
740.786	6485.92
740.972	6467.49
741.157	6508.44
741.342	6369.18
741.528	6508.44
741.713	6516.64
741.898	6379.42
742.084	6401.95
742.269	6389.66
742.454	6336.42
742.639	6410.14
742.824	6154.15
743.01	6338.46
743.195	6295.46
743.38	6317.98
743.565	6399.9
743.75	6295.46
743.935	6229.92
744.12	6363.04
744.305	6074.28
744.49	6141.86
744.675	6289.31
744.86	6084.52
745.045	6113.19
745.23	5998.5
745.415	5978.02
745.6	5959.59
745.785	5898.15
745.97	5924.77
746.155	5975.97
746.34	5814.18
746.525	5664.68
746.71	5849
746.895	5765.03
747.079	5701.55
747.264	5631.91
747.449	5740.46
747.634	5496.75
747.819	5658.54
748.003	5560.24
748.188	5535.66
748.373	5377.97
748.557	5492.65
748.742	5511.08
748.927	5556.14
749.111	5406.64
749.296	5367.73
749.481	5230.51
749.665	5377.97
749.85	5146.55
750.034	5097.39
750.219	5246.9
750.404	5183.41
750.588	5146.55
750.773	5240.75
750.957	5085.11
751.141	4951.99
751.326	4962.23
751.51	4855.73
751.695	5033.91
751.879	4892.6
752.064	4876.21
752.248	4626.36
752.432	4878.26
752.617	4675.51
752.801	4741.05
752.985	4720.57
753.17	4628.41
753.354	4634.55
753.538	4618.17
753.722	4577.21
753.907	4550.59
754.091	4519.87
754.275	4376.51
754.459	4331.45
754.643	4298.69
754.828	4319.17
755.012	4427.71
755.196	4253.63
755.38	4188.1
755.564	4118.47
755.748	4270.01
755.932	4114.37
756.116	4145.09
756.3	3971.01
756.484	3944.39
756.668	4077.51
756.852	3893.19
757.036	3905.48
757.22	3885
757.404	3807.17
757.588	3723.21
757.772	3862.47
757.956	3827.65
758.14	3858.37
758.323	3788.74
758.507	3700.68
758.691	3659.72
758.875	3717.06
759.059	3608.52
759.242	3577.8
759.426	3659.72
759.61	3610.57
759.794	3504.07
759.977	3565.51
760.161	3540.94
760.345	3463.12
760.528	3387.34
760.712	3510.22
760.895	3340.24
761.079	3454.92
761.263	3295.18
761.446	3256.27
761.63	3291.09
761.813	3405.77
761.997	3225.55
762.18	3266.51
762.364	3129.3
762.547	3311.57
762.731	3135.44
762.914	3207.12
763.098	3067.86
763.281	3174.35
763.464	3090.38
763.648	3139.54
763.831	3143.63
764.015	2977.75
764.198	2992.08
764.381	2947.03
764.564	3114.96
764.748	3053.52
764.931	2971.6
765.114	3010.51
765.297	2932.69
765.481	2863.06
765.664	2871.25
765.847	3069.91
766.03	2801.62
766.213	2901.97
766.397	2908.12
766.58	2848.72
766.763	3002.32
766.946	2738.13
767.129	2789.33
767.312	2824.15
767.495	2795.48
767.678	2734.04
767.861	2969.55
768.044	2779.09
768.227	2740.18
768.41	2580.44
768.593	2707.41
768.776	2701.27
768.959	2672.6
769.142	2709.46
769.324	2633.69
769.507	2633.69
769.69	2666.46
769.873	2723.8
770.056	2668.5
770.239	2623.45
770.421	2512.86
770.604	2414.56
770.787	2340.83
770.97	2467.8
771.152	2428.89
771.335	2500.57
771.518	2357.21
771.7	2410.46
771.883	2459.61
772.066	2336.73
772.248	2387.93
772.431	2430.94
772.613	2299.87
772.796	2193.37
772.978	2279.39
773.161	2385.88
773.343	2222.05
773.526	2242.53
773.708	2162.65
773.891	2244.57
774.073	2181.09
774.256	2164.7
774.438	2191.33
774.621	2111.46
774.803	2093.02
774.985	2133.98
775.168	2127.84
775.35	2062.3
775.532	1978.34
775.715	1978.34
775.897	2064.35
776.079	1867.75
776.261	1978.34
776.444	1955.81
776.626	1998.82
776.808	1994.72
776.99	1787.88
777.173	1890.28
777.355	1820.64
777.537	1796.07
777.719	1863.65
777.901	1818.6
778.083	1832.93
778.265	1806.31
778.447	1714.15
778.629	1851.36
778.811	1757.16
778.993	1828.84
779.175	1759.21
779.357	1642.47
779.539	1609.7
779.721	1781.73
779.903	1656.81
780.085	1628.14
780.267	1642.47
780.449	1665
780.631	1564.65
780.812	1648.61
780.994	1624.04
781.176	1542.12
781.358	1505.26
781.54	1454.06
781.721	1529.83
781.903	1497.07
782.085	1554.41
782.267	1466.35
782.448	1513.45
782.63	1406.95
782.812	1402.86
782.993	1452.01
783.175	1429.48
783.357	1472.49
783.538	1374.19
783.72	1337.32
783.901	1267.69
784.083	1292.27
784.264	1331.18
784.446	1243.12
784.627	1314.8
784.809	1320.94
784.99	1359.85
785.172	1310.7
785.353	1230.83
785.535	1243.12
785.716	1296.36
785.897	1251.31
786.079	1255.4
786.26	1261.55
786.441	1036.27
786.623	1138.67
786.804	1222.64
786.985	1224.69
787.167	1163.25
787.348	1161.2
787.529	1048.56
787.71	1128.43
787.891	1099.76
788.073	1161.2
788.254	1126.38
788.435	1118.19
788.616	1087.47
788.797	1075.18
788.978	1095.66
789.159	1071.09
789.34	1069.04
789.522	989.17
789.703	987.12
789.884	1083.38
790.065	1026.03
790.246	1054.7
790.427	1009.65
790.607	1028.08
790.788	1062.9
790.969	866.29
791.15	929.78
791.331	999.41
791.512	913.39
791.693	915.44
791.874	976.88
792.054	911.35
792.235	854
792.416	851.95
792.597	954.35
792.778	854
792.958	829.43
793.139	886.77
793.32	882.67
793.5	874.48
793.681	948.21
793.862	911.35
794.042	817.14
794.223	739.32
794.404	813.04
794.584	788.47
794.765	684.02
794.945	854
795.126	849.91
795.306	868.34
795.487	735.22
795.667	735.22
795.848	796.66
796.028	813.04
796.209	798.71
796.389	782.32
796.57	747.51
796.75	720.89
796.93	821.24
797.111	718.84
797.291	763.89
797.471	735.22
797.652	698.36
797.832	692.21
798.012	741.36
798.192	645.11
798.373	706.55
798.553	671.73
798.733	804.85
798.913	632.82
799.093	612.34
799.274	679.93
799.454	677.88
799.634	759.8
799.814	702.45
799.994	636.92
800.174	677.88
800.354	759.8
800.534	608.25
800.714	628.73
800.894	618.49
801.074	626.68
801.254	538.62
801.434	661.49
801.614	661.49
801.794	600.05
801.974	1388.52
802.154	626.68
802.334	692.21
802.514	550.9
802.693	575.48
802.873	624.63
803.053	641.01
803.233	544.76
803.413	579.58
803.592	624.63
803.772	503.8
803.952	591.86
804.131	481.27
804.311	636.92
804.491	604.15
804.67	528.38
804.85	493.56
805.03	641.01
805.209	636.92
805.389	440.31
805.568	536.57
805.748	489.46
805.928	555
806.107	548.86
806.287	595.96
806.466	544.76
806.646	522.23
806.825	563.19
807.004	532.47
807.184	563.19
807.363	555
807.543	507.9
807.722	454.65
807.901	497.66
808.081	448.51
808.26	464.89
808.439	481.27
808.619	653.3
808.798	454.65
808.977	563.19
809.156	536.57
809.336	446.46
809.515	466.94
809.694	440.31
809.873	483.32
810.052	497.66
810.231	526.33
810.411	477.18
810.59	509.94
810.769	462.84
810.948	481.27
811.127	423.93
811.306	436.22
811.485	505.85
811.664	405.5
811.843	479.22
812.022	432.12
812.201	419.83
812.38	391.16
812.559	487.42
812.737	440.31
812.916	378.87
813.095	399.35
813.274	423.93
813.453	423.93
813.632	505.85
813.811	520.18
813.989	327.67
814.168	446.46
814.347	401.4
814.526	385.02
814.704	487.42
814.883	452.6
815.062	413.69
815.24	423.93
815.419	366.59
815.598	387.07
815.776	335.87
815.955	342.01
816.133	342.01
816.312	466.94
816.49	372.73
816.669	432.12
816.847	350.2
817.026	364.54
817.204	387.07
817.383	329.72
817.561	251.9
817.74	366.59
817.918	409.59
818.097	432.12
818.275	370.68
818.453	333.82
818.632	309.24
818.81	350.2
818.988	415.74
819.167	350.2
819.345	272.38
819.523	284.67
819.701	323.58
819.879	387.07
820.058	319.48
820.236	364.54
820.414	299
820.592	290.81
820.77	299
820.948	323.58
821.127	278.52
821.305	397.31
821.483	178.17
821.661	323.58
821.839	362.49
822.017	282.62
822.195	270.33
822.373	284.67
822.551	290.81
822.729	319.48
822.907	288.76
823.085	266.24
823.262	354.3
823.44	229.37
823.618	264.19
823.796	272.38
823.974	294.91
824.152	292.86
824.329	385.02
824.507	274.43
824.685	333.82
824.863	284.67
825.04	292.86
825.218	276.48
825.396	249.85
825.574	301.05
825.751	299
825.929	292.86
826.107	167.93
826.284	256
826.462	303.1
826.639	202.75
826.817	124.93
826.994	272.38
827.172	145.41
827.349	299
827.527	237.56
827.704	266.24
827.882	274.43
828.059	258.04
828.237	233.47
828.414	235.52
828.591	198.65
828.769	272.38
828.946	247.8
829.124	282.62
829.301	333.82
829.478	251.9
829.655	231.42
829.833	133.12
830.01	251.9
830.187	243.71
830.364	227.32
830.542	296.96
830.719	243.71
830.896	231.42
831.073	219.13
831.25	276.48
831.427	225.28
831.604	258.04
831.782	182.27
831.959	235.52
832.136	245.76
832.313	223.23
832.49	251.9
832.667	145.41
832.844	184.32
833.021	342.01
833.198	182.27
833.374	260.09
833.551	194.56
833.728	202.75
833.905	225.28
834.082	102.4
834.259	192.51
834.436	198.65
834.612	157.69
834.789	206.84
834.966	325.63
835.143	225.28
835.319	120.83
835.496	174.08
835.673	227.32
835.85	233.47
836.026	194.56
836.203	163.84
836.38	104.45
836.556	221.18
836.733	122.88
836.909	233.47
837.086	223.23
837.262	153.6
837.439	151.55
837.616	202.75
837.792	202.75
837.968	135.17
838.145	172.03
838.321	194.56
838.498	102.4
838.674	186.37
838.851	120.83
839.027	231.42
839.203	169.98
839.38	212.99
839.556	172.03
839.732	174.08
839.909	167.93
840.085	118.78
840.261	169.98
840.437	165.89
840.614	202.75
840.79	190.46
840.966	126.97
841.142	153.6
841.318	145.41
841.494	184.32
841.671	169.98
841.847	108.54
842.023	129.02
842.199	210.94
842.375	186.37
842.551	86.01
842.727	178.17
842.903	182.27
843.079	104.45
843.255	219.13
843.431	155.65
843.607	258.04
843.783	104.45
843.959	212.99
844.134	116.73
844.31	178.17
844.486	108.54
844.662	77.82
844.838	161.79
845.013	243.71
845.189	151.55
845.365	198.65
845.541	83.97
845.716	112.64
845.892	235.52
846.068	108.54
846.244	88.06
846.419	192.51
846.595	63.49
846.77	153.6
846.946	77.82
847.122	110.59
847.297	159.74
847.473	204.8
847.648	71.68
847.824	137.21
847.999	110.59
848.175	94.21
848.35	157.69
848.526	231.42
848.701	126.97
848.876	118.78
849.052	108.54
849.227	108.54
849.403	145.41
849.578	98.3
849.753	147.45
849.929	178.17
850.104	145.41
850.279	79.87
850.454	120.83
850.63	77.82
850.805	118.78
850.98	110.59
851.155	102.4
851.33	69.63
851.505	106.49
851.681	131.07
851.856	102.4
852.031	83.97
852.206	161.79
852.381	55.3
852.556	43.01
852.731	184.32
852.906	88.06
853.081	71.68
853.256	155.65
853.431	65.54
853.606	129.02
853.781	71.68
853.956	94.21
854.131	135.17
854.305	63.49
854.48	116.73
854.655	43.01
854.83	32.77
855.005	94.21
855.18	88.06
855.354	59.39
855.529	129.02
855.704	120.83
855.879	79.87
856.053	34.82
856.228	96.25
856.403	30.72
856.577	34.82
856.752	43.01
856.926	96.25
857.101	86.01
857.276	88.06
857.45	104.45
857.625	120.83
857.799	145.41
857.974	143.36
858.148	-38.91
858.323	55.3
858.497	71.68
858.672	94.21
858.846	53.25
859.02	51.2
859.195	2.05
859.369	51.2
859.543	77.82
859.718	55.3
859.892	63.49
860.066	55.3
860.241	69.63
860.415	108.54
860.589	53.25
860.763	28.67
860.938	53.25
861.112	55.3
861.286	100.35
861.46	10.24
861.634	-34.82
861.808	75.77
861.982	112.64
862.157	77.82
862.331	61.44
862.505	75.77
862.679	28.67
862.853	28.67
863.027	63.49
863.201	90.11
863.375	63.49
863.549	57.34
863.722	30.72
863.896	79.87
864.07	24.58
864.244	124.93
864.418	96.25
864.592	61.44
864.766	83.97
864.939	51.2
865.113	61.44
865.287	102.4
865.461	55.3
865.634	92.16
865.808	-4.1
865.982	47.1
866.156	96.25
866.329	28.67
866.503	45.06
866.676	100.35
866.85	2.05
867.024	18.43
867.197	122.88
867.371	22.53
867.544	69.63
867.718	-59.39
867.891	83.97
868.065	51.2
868.238	-18.43
868.412	106.49
868.585	88.06
868.759	14.34
868.932	18.43
869.105	69.63
869.279	34.82
869.452	104.45
869.625	53.25
869.799	-10.24
869.972	-47.1
870.145	-2.05
870.319	118.78
870.492	88.06
870.665	14.34
870.838	16.38
871.011	-16.38
871.185	49.15
871.358	16.38
871.531	18.43
871.704	-24.58
871.877	-20.48
872.05	-6.14
872.223	6.14
872.396	86.01
872.569	55.3
872.742	24.58
872.915	36.86
873.088	-18.43
873.261	20.48
873.434	55.3
873.607	14.34
873.78	51.2
873.953	-18.43
874.126	57.34
874.299	65.54
874.471	-28.67
874.644	79.87
874.817	30.72
874.99	120.83
875.163	16.38
875.335	102.4
875.508	69.63
875.681	98.3
875.853	51.2
876.026	45.06
876.199	-47.1
876.371	-34.82
876.544	26.62
876.717	102.4
876.889	14.34
877.062	-30.72
877.234	6.14
877.407	102.4
877.579	83.97
877.752	6.14
877.924	-12.29
878.097	102.4
878.269	26.62
878.442	24.58
878.614	88.06
878.786	55.3
878.959	55.3
879.131	57.34
879.303	10.24
879.476	47.1
879.648	71.68
879.82	10.24
879.993	53.25
880.165	65.54
880.337	22.53
880.509	-43.01
880.681	38.91
880.854	55.3
881.026	-12.29
881.198	47.1
881.37	30.72
881.542	-2.05
881.714	53.25
881.886	-28.67
882.058	88.06
882.23	83.97
882.402	67.58
882.574	22.53
882.746	16.38
882.918	18.43
883.09	73.73
883.262	63.49
883.434	-12.29
883.606	8.19
883.778	75.77
883.95	18.43
884.122	-51.2
884.293	53.25
884.465	45.06
884.637	18.43
884.809	-10.24
884.98	14.34
885.152	36.86
885.324	53.25
885.496	81.92
885.667	53.25
885.839	28.67
886.011	28.67
886.182	14.34
886.354	51.2
886.525	69.63
886.697	-10.24
886.869	43.01
887.04	49.15
887.212	110.59
887.383	92.16
887.555	49.15
887.726	32.77
887.897	47.1
888.069	-30.72
888.24	59.39
888.412	-2.05
888.583	-32.77
888.754	26.62
888.926	-18.43
889.097	-2.05
889.268	75.77
889.44	28.67
889.611	16.38
889.782	-45.06
889.953	-10.24
890.125	124.93
890.296	-38.91
890.467	-45.06
890.638	-2.05
890.809	6.14
890.98	-69.63
891.151	-8.19
891.323	14.34
891.494	77.82
891.665	-10.24
891.836	32.77
892.007	45.06
892.178	-14.34
892.349	-2.05
892.52	53.25
892.691	36.86
892.862	30.72
893.032	-32.77
893.203	-28.67
893.374	20.48
893.545	47.1
893.716	-16.38
893.887	112.64
894.057	-18.43
894.228	36.86
894.399	-2.05
894.57	122.88
894.74	-43.01
894.911	45.06
895.082	34.82
895.253	-34.82
895.423	-10.24
895.594	92.16
895.764	75.77
895.935	22.53
896.106	36.86
896.276	30.72
896.447	79.87
896.617	-28.67
896.788	88.06
896.958	-2.05
897.129	-28.67
897.299	4.1
897.47	-12.29
897.64	38.91
897.81	55.3
897.981	36.86
898.151	-2.05
898.322	114.69
898.492	14.34
898.662	69.63
898.832	2.05
899.003	43.01
899.173	22.53
899.343	20.48
899.513	10.24
