Data from USB4F104151__23__11-29-55-256.txt Node

Date: Fri Mar 14 11:29:55 EDT 2025
User: louis
Spectrometer: USB4F10415
Trigger mode: 4
Integration Time (sec): 5.000000E-2
Scans to average: 1
Electric dark correction enabled: true
Nonlinearity correction enabled: false
Boxcar width: 0
XAxis mode: Wavelengths
Number of Pixels in Spectrum: 3648
>>>>>Begin Spectral Data<<<<<
178.204	-98.47
178.424	-98.47
178.644	-98.47
178.864	-133.29
179.084	-145.58
179.304	46.93
179.524	32.6
179.744	20.31
179.964	32.6
180.184	44.88
180.404	-28.84
180.624	8.02
180.844	-28.84
181.064	-73.9
181.283	-8.36
181.503	-59.56
181.723	14.17
181.943	-20.65
182.163	81.75
182.383	-41.13
182.602	22.36
182.822	20.31
183.042	57.17
183.262	44.88
183.482	44.88
183.701	14.17
183.921	34.64
184.141	55.12
184.361	40.79
184.58	61.27
184.8	36.69
185.02	-16.55
185.239	77.65
185.459	16.21
185.679	-4.27
185.898	30.55
186.118	79.7
186.338	53.08
186.557	77.65
186.777	14.17
186.997	51.03
187.216	-32.94
187.436	114.52
187.655	65.36
187.875	16.21
188.095	32.6
188.314	28.5
188.534	139.09
188.753	40.79
188.973	20.31
189.192	73.56
189.412	63.32
189.631	8.02
189.851	77.65
190.07	48.98
190.29	-0.17
190.509	40.79
190.729	18.26
190.948	65.36
191.168	163.67
191.387	44.88
191.607	44.88
191.826	63.32
192.045	61.27
192.265	26.45
192.484	46.93
192.704	59.22
192.923	32.6
193.142	106.32
193.362	96.08
193.581	36.69
193.8	51.03
194.02	69.46
194.239	36.69
194.458	3.93
194.678	110.42
194.897	67.41
195.116	-41.13
195.335	22.36
195.555	24.4
195.774	63.32
195.993	12.12
196.212	51.03
196.432	69.46
196.651	38.74
196.87	10.07
197.089	59.22
197.308	83.8
197.528	81.75
197.747	-67.75
197.966	85.84
198.185	77.65
198.404	40.79
198.623	44.88
198.842	130.9
199.062	94.04
199.281	57.17
199.5	77.65
199.719	65.36
199.938	-34.99
200.157	102.23
200.376	73.56
200.595	59.22
200.814	55.12
201.033	12.12
201.252	155.47
201.471	51.03
201.69	106.32
201.909	48.98
202.128	-28.84
202.347	40.79
202.566	53.08
202.785	-59.56
203.004	-37.03
203.223	104.28
203.442	20.31
203.661	48.98
203.879	-0.17
204.098	143.19
204.317	-2.22
204.536	98.13
204.755	-53.42
204.974	46.93
205.193	40.79
205.411	71.51
205.63	24.4
205.849	73.56
206.068	77.65
206.287	-4.27
206.505	112.47
206.724	38.74
206.943	22.36
207.162	16.21
207.381	89.94
207.599	10.07
207.818	-24.75
208.037	8.02
208.255	8.02
208.474	-4.27
208.693	118.61
208.911	16.21
209.13	57.17
209.349	46.93
209.567	71.51
209.786	98.13
210.005	89.94
210.223	-8.36
210.442	-8.36
210.661	44.88
210.879	77.65
211.098	91.99
211.316	20.31
211.535	-4.27
211.753	38.74
211.972	96.08
212.191	-59.56
212.409	71.51
212.628	77.65
212.846	3.93
213.065	89.94
213.283	32.6
213.502	-47.27
213.72	46.93
213.938	55.12
214.157	-4.27
214.375	73.56
214.594	-20.65
214.812	81.75
215.031	-22.7
215.249	-4.27
215.467	38.74
215.686	87.89
215.904	85.84
216.122	28.5
216.341	89.94
216.559	67.41
216.778	57.17
216.996	34.64
217.214	5.97
217.432	-26.79
217.651	-12.46
217.869	24.4
218.087	1.88
218.306	106.32
218.524	53.08
218.742	8.02
218.96	57.17
219.179	124.76
219.397	98.13
219.615	128.85
219.833	63.32
220.051	40.79
220.27	28.5
220.488	59.22
220.706	59.22
220.924	40.79
221.142	73.56
221.36	46.93
221.578	38.74
221.796	-37.03
222.015	-8.36
222.233	61.27
222.451	81.75
222.669	16.21
222.887	28.5
223.105	65.36
223.323	-8.36
223.541	94.04
223.759	118.61
223.977	40.79
224.195	89.94
224.413	114.52
224.631	28.5
224.849	75.6
225.067	147.28
225.285	-8.36
225.503	16.21
225.721	-6.31
225.939	24.4
226.157	14.17
226.375	147.28
226.592	-28.84
226.81	63.32
227.028	69.46
227.246	65.36
227.464	79.7
227.682	44.88
227.9	38.74
228.117	40.79
228.335	-0.17
228.553	-2.22
228.771	22.36
228.989	75.6
229.206	69.46
229.424	-16.55
229.642	75.6
229.86	22.36
230.077	22.36
230.295	77.65
230.513	46.93
230.731	38.74
230.948	139.09
231.166	87.89
231.384	36.69
231.601	-63.66
231.819	96.08
232.037	-20.65
232.254	8.02
232.472	77.65
232.689	32.6
232.907	67.41
233.125	-28.84
233.342	67.41
233.56	20.31
233.777	81.75
233.995	20.31
234.213	-4.27
234.43	-2.22
234.648	-53.42
234.865	-2.22
235.083	63.32
235.3	124.76
235.518	-2.22
235.735	55.12
235.953	114.52
236.17	38.74
236.388	20.31
236.605	-8.36
236.822	-12.46
237.04	40.79
237.257	36.69
237.475	94.04
237.692	63.32
237.909	24.4
238.127	12.12
238.344	59.22
238.562	102.23
238.779	46.93
238.996	26.45
239.214	24.4
239.431	30.55
239.648	-16.55
239.865	32.6
240.083	73.56
240.3	34.64
240.517	79.7
240.735	-14.51
240.952	100.18
241.169	57.17
241.386	94.04
241.603	65.36
241.821	55.12
242.038	57.17
242.255	89.94
242.472	-88.23
242.689	55.12
242.907	69.46
243.124	38.74
243.341	51.03
243.558	65.36
243.775	-16.55
243.992	8.02
244.209	28.5
244.426	65.36
244.643	67.41
244.86	-18.6
245.078	71.51
245.295	38.74
245.512	30.55
245.729	53.08
245.946	20.31
246.163	30.55
246.38	36.69
246.597	57.17
246.814	114.52
247.031	40.79
247.248	139.09
247.464	-8.36
247.681	40.79
247.898	71.51
248.115	8.02
248.332	55.12
248.549	77.65
248.766	118.61
248.983	55.12
249.2	28.5
249.417	-8.36
249.633	57.17
249.85	32.6
250.067	32.6
250.284	94.04
250.501	48.98
250.717	12.12
250.934	14.17
251.151	61.27
251.368	1.88
251.585	65.36
251.801	-18.6
252.018	46.93
252.235	14.17
252.451	-20.65
252.668	20.31
252.885	106.32
253.102	73.56
253.318	14.17
253.535	14.17
253.752	42.84
253.968	57.17
254.185	8.02
254.401	-75.95
254.618	73.56
254.835	-18.6
255.051	65.36
255.268	40.79
255.484	-28.84
255.701	44.88
255.917	20.31
256.134	38.74
256.351	-8.36
256.567	32.6
256.784	94.04
257	-26.79
257.217	85.84
257.433	91.99
257.65	38.74
257.866	3.93
258.082	63.32
258.299	22.36
258.515	98.13
258.732	-0.17
258.948	-57.51
259.165	73.56
259.381	46.93
259.597	89.94
259.814	-28.84
260.03	36.69
260.246	77.65
260.463	20.31
260.679	3.93
260.895	87.89
261.112	51.03
261.328	-16.55
261.544	10.07
261.761	34.64
261.977	53.08
262.193	-8.36
262.409	63.32
262.626	57.17
262.842	89.94
263.058	81.75
263.274	42.84
263.49	16.21
263.707	100.18
263.923	30.55
264.139	44.88
264.355	81.75
264.571	28.5
264.787	1.88
265.004	65.36
265.22	22.36
265.436	12.12
265.652	22.36
265.868	73.56
266.084	-2.22
266.3	91.99
266.516	16.21
266.732	46.93
266.948	71.51
267.164	-61.61
267.38	87.89
267.596	32.6
267.812	130.9
268.028	48.98
268.244	12.12
268.46	32.6
268.676	61.27
268.892	63.32
269.108	-57.51
269.324	-20.65
269.54	24.4
269.756	81.75
269.972	48.98
270.188	20.31
270.403	36.69
270.619	32.6
270.835	85.84
271.051	48.98
271.267	8.02
271.483	-24.75
271.698	65.36
271.914	32.6
272.13	12.12
272.346	53.08
272.562	71.51
272.777	98.13
272.993	16.21
273.209	32.6
273.425	40.79
273.64	91.99
273.856	40.79
274.072	-73.9
274.287	46.93
274.503	16.21
274.719	81.75
274.934	20.31
275.15	-2.22
275.366	48.98
275.581	16.21
275.797	28.5
276.012	3.93
276.228	77.65
276.444	-8.36
276.659	114.52
276.875	75.6
277.09	55.12
277.306	1.88
277.521	73.56
277.737	36.69
277.952	55.12
278.168	-32.94
278.383	8.02
278.599	77.65
278.814	89.94
279.03	48.98
279.245	178
279.461	81.75
279.676	48.98
279.892	36.69
280.107	63.32
280.322	5.97
280.538	128.85
280.753	53.08
280.969	124.76
281.184	-8.36
281.399	38.74
281.615	73.56
281.83	26.45
282.045	55.12
282.26	22.36
282.476	34.64
282.691	89.94
282.906	38.74
283.122	57.17
283.337	22.36
283.552	8.02
283.767	32.6
283.983	67.41
284.198	-4.27
284.413	53.08
284.628	-80.04
284.843	24.4
285.058	48.98
285.274	22.36
285.489	40.79
285.704	38.74
285.919	36.69
286.134	5.97
286.349	-8.36
286.564	40.79
286.779	38.74
286.995	1.88
287.21	-10.41
287.425	83.8
287.64	-0.17
287.855	139.09
288.07	-8.36
288.285	8.02
288.5	57.17
288.715	69.46
288.93	89.94
289.145	10.07
289.36	63.32
289.575	-34.99
289.79	22.36
290.004	16.21
290.219	57.17
290.434	16.21
290.649	77.65
290.864	75.6
291.079	53.08
291.294	-18.6
291.509	51.03
291.724	77.65
291.938	5.97
292.153	32.6
292.368	38.74
292.583	83.8
292.798	32.6
293.012	30.55
293.227	-49.32
293.442	46.93
293.657	46.93
293.871	77.65
294.086	61.27
294.301	122.71
294.516	40.79
294.73	40.79
294.945	36.69
295.16	38.74
295.374	87.89
295.589	53.08
295.804	1.88
296.018	-0.17
296.233	155.47
296.447	59.22
296.662	-65.71
296.877	91.99
297.091	40.79
297.306	32.6
297.52	38.74
297.735	44.88
297.949	12.12
298.164	18.26
298.378	87.89
298.593	102.23
298.807	-24.75
299.022	38.74
299.236	61.27
299.451	-0.17
299.665	28.5
299.88	8.02
300.094	36.69
300.309	38.74
300.523	91.99
300.737	-34.99
300.952	32.6
301.166	98.13
301.381	63.32
301.595	20.31
301.809	63.32
302.024	65.36
302.238	-16.55
302.452	28.5
302.667	16.21
302.881	96.08
303.095	79.7
303.309	5.97
303.524	22.36
303.738	79.7
303.952	24.4
304.166	32.6
304.381	10.07
304.595	114.52
304.809	65.36
305.023	36.69
305.237	18.26
305.452	63.32
305.666	30.55
305.88	118.61
306.094	85.84
306.308	40.79
306.522	102.23
306.736	67.41
306.95	14.17
307.164	-28.84
307.379	16.21
307.593	147.28
307.807	75.6
308.021	30.55
308.235	34.64
308.449	-8.36
308.663	40.79
308.877	63.32
309.091	36.69
309.305	81.75
309.519	24.4
309.733	8.02
309.947	28.5
310.161	77.65
310.374	16.21
310.588	1.88
310.802	-26.79
311.016	81.75
311.23	24.4
311.444	-6.31
311.658	-16.55
311.872	67.41
312.085	30.55
312.299	51.03
312.513	73.56
312.727	16.21
312.941	24.4
313.154	34.64
313.368	61.27
313.582	59.22
313.796	-32.94
314.009	67.41
314.223	14.17
314.437	85.84
314.651	-4.27
314.864	57.17
315.078	8.02
315.292	-20.65
315.505	20.31
315.719	36.69
315.933	24.4
316.146	-0.17
316.36	-30.89
316.573	106.32
316.787	79.7
317.001	28.5
317.214	8.02
317.428	73.56
317.641	24.4
317.855	-24.75
318.068	40.79
318.282	-10.41
318.495	110.42
318.709	16.21
318.922	53.08
319.136	16.21
319.349	32.6
319.563	46.93
319.776	51.03
319.99	32.6
320.203	87.89
320.417	-16.55
320.63	91.99
320.843	46.93
321.057	32.6
321.27	85.84
321.483	32.6
321.697	81.75
321.91	8.02
322.124	55.12
322.337	8.02
322.55	65.36
322.763	18.26
322.977	63.32
323.19	42.84
323.403	-8.36
323.617	-8.36
323.83	65.36
324.043	-59.56
324.256	65.36
324.469	8.02
324.683	63.32
324.896	24.4
325.109	14.17
325.322	-92.33
325.535	126.8
325.748	126.8
325.962	55.12
326.175	32.6
326.388	61.27
326.601	18.26
326.814	69.46
327.027	10.07
327.24	85.84
327.453	16.21
327.666	65.36
327.879	89.94
328.092	75.6
328.305	55.12
328.518	3.93
328.731	108.37
328.944	8.02
329.157	24.4
329.37	63.32
329.583	143.19
329.796	69.46
330.009	71.51
330.222	71.51
330.435	81.75
330.648	48.98
330.861	38.74
331.073	48.98
331.286	106.32
331.499	51.03
331.712	30.55
331.925	61.27
332.138	89.94
332.35	30.55
332.563	44.88
332.776	-8.36
332.989	-2.22
333.202	44.88
333.414	83.8
333.627	55.12
333.84	14.17
334.053	69.46
334.265	16.21
334.478	67.41
334.691	77.65
334.903	44.88
335.116	32.6
335.329	57.17
335.541	102.23
335.754	63.32
335.966	1.88
336.179	16.21
336.392	5.97
336.604	75.6
336.817	104.28
337.029	42.84
337.242	-10.41
337.454	104.28
337.667	57.17
337.88	79.7
338.092	57.17
338.305	48.98
338.517	14.17
338.729	53.08
338.942	122.71
339.154	-20.65
339.367	71.51
339.579	96.08
339.792	-47.27
340.004	16.21
340.217	10.07
340.429	122.71
340.641	-59.56
340.854	87.89
341.066	22.36
341.278	137.04
341.491	73.56
341.703	94.04
341.915	30.55
342.128	61.27
342.34	12.12
342.552	-8.36
342.764	91.99
342.977	1.88
343.189	81.75
343.401	53.08
343.613	-6.31
343.826	79.7
344.038	-22.7
344.25	79.7
344.462	-0.17
344.674	112.47
344.886	53.08
345.099	12.12
345.311	98.13
345.523	12.12
345.735	8.02
345.947	81.75
346.159	32.6
346.371	16.21
346.583	40.79
346.795	69.46
347.007	3.93
347.219	51.03
347.431	65.36
347.643	106.32
347.855	24.4
348.067	77.65
348.279	77.65
348.491	46.93
348.703	24.4
348.915	73.56
349.127	-16.55
349.339	65.36
349.551	30.55
349.763	87.89
349.975	61.27
350.187	98.13
350.399	145.24
350.61	-16.55
350.822	-14.51
351.034	24.4
351.246	32.6
351.458	-4.27
351.669	24.4
351.881	24.4
352.093	73.56
352.305	89.94
352.517	85.84
352.728	104.28
352.94	16.21
353.152	28.5
353.363	28.5
353.575	114.52
353.787	38.74
353.999	3.93
354.21	24.4
354.422	44.88
354.633	-8.36
354.845	48.98
355.057	69.46
355.268	73.56
355.48	85.84
355.692	-6.31
355.903	55.12
356.115	30.55
356.326	8.02
356.538	30.55
356.749	42.84
356.961	40.79
357.172	61.27
357.384	-20.65
357.595	151.38
357.807	89.94
358.018	-67.75
358.23	75.6
358.441	73.56
358.653	-14.51
358.864	55.12
359.075	-18.6
359.287	63.32
359.498	112.47
359.709	61.27
359.921	61.27
360.132	-55.47
360.344	79.7
360.555	89.94
360.766	73.56
360.977	124.76
361.189	71.51
361.4	40.79
361.611	120.66
361.823	75.6
362.034	22.36
362.245	28.5
362.456	10.07
362.667	69.46
362.879	38.74
363.09	22.36
363.301	-45.23
363.512	-0.17
363.723	57.17
363.935	28.5
364.146	24.4
364.357	5.97
364.568	106.32
364.779	8.02
364.99	65.36
365.201	40.79
365.412	141.14
365.623	38.74
365.834	16.21
366.045	77.65
366.256	32.6
366.467	94.04
366.678	42.84
366.889	57.17
367.1	67.41
367.311	89.94
367.522	79.7
367.733	59.22
367.944	73.56
368.155	26.45
368.366	77.65
368.577	57.17
368.788	73.56
368.999	34.64
369.209	89.94
369.42	57.17
369.631	139.09
369.842	12.12
370.053	30.55
370.264	94.04
370.474	51.03
370.685	8.02
370.896	44.88
371.107	46.93
371.317	57.17
371.528	59.22
371.739	18.26
371.95	-41.13
372.16	87.89
372.371	94.04
372.582	73.56
372.792	89.94
373.003	-8.36
373.214	77.65
373.424	12.12
373.635	36.69
373.846	137.04
374.056	10.07
374.267	44.88
374.477	59.22
374.688	77.65
374.898	26.45
375.109	114.52
375.319	48.98
375.53	81.75
375.74	55.12
375.951	40.79
376.161	40.79
376.372	32.6
376.582	-59.56
376.793	98.13
377.003	81.75
377.214	118.61
377.424	48.98
377.635	34.64
377.845	18.26
378.055	147.28
378.266	46.93
378.476	22.36
378.686	85.84
378.897	85.84
379.107	55.12
379.317	38.74
379.528	130.9
379.738	102.23
379.948	-51.37
380.158	89.94
380.369	40.79
380.579	24.4
380.789	57.17
380.999	89.94
381.21	83.8
381.42	130.9
381.63	104.28
381.84	104.28
382.05	77.65
382.261	83.8
382.471	114.52
382.681	65.36
382.891	104.28
383.101	57.17
383.311	51.03
383.521	34.64
383.731	61.27
383.941	102.23
384.151	81.75
384.361	118.61
384.571	87.89
384.781	89.94
384.991	147.28
385.201	161.62
385.411	24.4
385.621	18.26
385.831	-32.94
386.041	3.93
386.251	16.21
386.461	36.69
386.671	65.36
386.881	96.08
387.091	5.97
387.301	77.65
387.511	112.47
387.72	102.23
387.93	26.45
388.14	63.32
388.35	46.93
388.56	73.56
388.769	53.08
388.979	112.47
389.189	57.17
389.399	-2.22
389.609	3.93
389.818	-20.65
390.028	102.23
390.238	102.23
390.447	32.6
390.657	73.56
390.867	65.36
391.076	53.08
391.286	-24.75
391.496	55.12
391.705	65.36
391.915	65.36
392.125	75.6
392.334	55.12
392.544	53.08
392.753	53.08
392.963	73.56
393.172	83.8
393.382	1.88
393.591	165.71
393.801	98.13
394.01	153.43
394.22	118.61
394.429	44.88
394.639	12.12
394.848	1.88
395.058	114.52
395.267	59.22
395.477	108.37
395.686	122.71
395.895	139.09
396.105	169.81
396.314	24.4
396.524	139.09
396.733	147.28
396.942	137.04
397.152	75.6
397.361	122.71
397.57	98.13
397.78	61.27
397.989	102.23
398.198	233.3
398.407	102.23
398.617	-0.17
398.826	145.24
399.035	73.56
399.244	71.51
399.453	28.5
399.663	98.13
399.872	42.84
400.081	81.75
400.29	135
400.499	139.09
400.708	137.04
400.917	71.51
401.127	114.52
401.336	79.7
401.545	139.09
401.754	114.52
401.963	130.9
402.172	71.51
402.381	180.05
402.59	120.66
402.799	81.75
403.008	143.19
403.217	73.56
403.426	167.76
403.635	65.36
403.844	151.38
404.053	122.71
404.262	100.18
404.471	188.24
404.68	184.15
404.888	77.65
405.097	128.85
405.306	81.75
405.515	186.19
405.724	147.28
405.933	196.43
406.142	124.76
406.35	218.96
406.559	180.05
406.768	225.11
406.977	259.92
407.185	190.29
407.394	235.35
407.603	159.57
407.812	173.91
408.02	241.49
408.229	302.93
408.438	225.11
408.646	171.86
408.855	204.63
409.064	276.31
409.272	208.72
409.481	278.35
409.69	237.39
409.898	276.31
410.107	300.88
410.315	335.7
410.524	374.61
410.733	309.07
410.941	286.54
411.15	313.17
411.358	356.18
411.567	442.19
411.775	407.38
411.984	403.28
412.192	485.2
412.401	409.42
412.609	499.53
412.818	474.96
413.026	505.68
413.234	481.1
413.443	436.05
413.651	468.81
413.86	483.15
414.068	606.03
414.276	632.65
414.485	626.51
414.693	802.63
414.901	737.1
415.11	694.09
415.318	636.75
415.526	745.29
415.734	798.54
415.943	739.15
416.151	845.64
416.359	806.73
416.567	841.54
416.776	851.78
416.984	978.76
417.192	1064.77
417.4	1001.29
417.608	958.28
417.817	1048.39
418.025	1062.73
418.233	1212.23
418.441	1124.16
418.649	1183.56
418.857	1335.1
419.065	1255.23
419.273	1261.38
419.481	1367.87
419.689	1324.87
419.897	1494.85
420.105	1546.05
420.313	1414.98
420.521	1595.2
420.729	1634.11
420.937	1638.2
421.145	1810.23
421.353	1759.03
421.561	1865.53
421.769	1990.45
421.977	1900.34
422.185	2000.69
422.393	2047.8
422.601	2277.17
422.809	2152.24
423.017	2277.17
423.224	2465.58
423.432	2469.68
423.64	2451.25
423.848	2764.59
424.056	2647.85
424.263	2770.73
424.471	2809.64
424.679	2879.27
424.887	3020.58
425.094	3176.23
425.302	3149.61
425.51	3272.48
425.718	3309.35
425.925	3356.45
426.133	3524.38
426.341	3729.18
426.548	3921.69
426.756	3882.78
426.964	3864.35
427.171	4052.76
427.379	4208.41
427.586	4300.56
427.794	4595.47
428.001	4763.4
428.209	4921.1
428.417	4853.52
428.624	5093.13
428.832	5132.04
429.039	5201.67
429.247	5166.85
429.454	5508.87
429.662	5922.55
429.869	5549.82
430.076	6133.5
430.284	5777.15
430.491	6137.59
430.699	6299.38
430.906	6283
431.114	6577.9
431.321	6737.65
431.528	6868.72
431.736	7331.56
431.943	7651.04
432.15	7268.07
432.358	7536.35
432.565	8048.35
432.772	7765.73
432.979	8179.42
433.187	8324.82
433.394	8494.8
433.601	8883.92
433.808	9166.54
434.016	8933.07
434.223	9338.57
434.43	10067.64
434.637	9715.39
434.844	10354.36
435.052	10737.33
435.259	10329.78
435.466	10727.09
435.673	10591.92
435.88	11140.78
436.087	11644.58
436.294	11849.38
436.501	11490.98
436.708	11771.55
436.915	12228.25
437.122	12615.32
437.329	12734.1
437.537	13051.53
437.743	13362.83
437.95	13287.05
438.157	13958.78
438.364	14370.43
438.571	14259.84
438.778	14616.18
438.985	15511.14
439.192	15222.38
439.399	15593.06
439.606	15169.13
439.813	15752.8
440.02	17088.08
440.227	16838.23
440.433	16561.75
440.64	17278.54
440.847	17102.42
441.054	17571.4
441.261	18611.77
441.467	18384.44
441.674	18810.42
441.881	19562.03
442.088	19465.77
442.294	19271.22
442.501	19758.63
442.708	20303.39
442.914	21231.12
443.121	21612.04
443.328	21124.63
443.534	23045.62
443.741	22355.46
443.948	21771.79
444.154	23348.72
444.361	23447.02
444.568	23561.71
444.774	23705.07
444.981	23696.88
445.187	24417.76
445.394	25591.25
445.6	25177.56
445.807	27907.5
446.013	26324.42
446.22	26535.36
446.426	27594.16
446.633	28407.2
446.839	28986.78
447.046	27968.94
447.252	29298.07
447.459	29121.94
447.665	29179.29
447.871	30582.15
448.078	32021.87
448.284	30408.07
448.491	30815.62
448.697	32445.8
448.903	32978.27
449.11	33004.89
449.316	32478.57
449.522	33109.34
449.728	34108.75
449.935	34401.61
450.141	34207.05
450.347	34727.24
450.553	33604.95
450.76	34198.86
450.966	35267.9
451.172	34852.16
451.378	35718.45
451.584	34903.36
451.791	35648.82
451.997	35816.75
452.203	36074.8
452.409	36435.24
452.615	36193.58
452.821	34544.97
453.027	34336.07
453.233	36162.86
453.44	34561.35
453.646	35169.6
453.852	35296.57
454.058	35769.65
454.264	34555.21
454.47	35489.08
454.676	34508.1
454.882	35884.34
455.088	32482.66
455.294	33097.05
455.5	33307.99
455.705	33502.55
455.911	32144.75
456.117	31434.1
456.323	31075.71
456.529	29588.88
456.735	30541.19
456.941	29773.2
457.147	29910.41
457.352	28755.36
457.558	28431.78
457.764	28259.75
457.97	27735.47
458.176	26975.67
458.381	27145.66
458.587	25619.92
458.793	25744.84
458.999	24301.03
459.204	25746.89
459.41	25361.87
459.616	23758.31
459.821	23789.03
460.027	23672.3
460.233	23197.17
460.438	21868.04
460.644	22296.07
460.85	21231.12
461.055	20878.87
461.261	20727.32
461.466	19441.2
461.672	18781.75
461.878	19912.23
462.083	18576.95
462.289	18126.4
462.494	18193.98
462.7	17294.93
462.905	16637.53
463.111	17401.42
463.316	17440.33
463.522	17210.96
463.727	17184.34
463.932	17104.46
464.138	16866.9
464.343	17036.88
464.549	16436.83
464.754	17182.29
464.959	16852.56
465.165	16729.69
465.37	16229.98
465.575	15638.12
465.781	16113.25
465.986	16410.2
466.191	15707.75
466.397	15715.94
466.602	14564.98
466.807	15349.36
467.012	15464.04
467.218	15156.85
467.423	15076.98
467.628	15484.52
467.833	15601.26
468.038	15117.93
468.244	14669.43
468.449	15347.31
468.654	14628.47
468.859	14677.62
469.064	14759.54
469.269	14057.09
469.474	14249.6
469.679	14395
469.885	14003.84
470.09	14208.64
470.295	14243.45
470.5	13704.84
470.705	13876.87
470.91	13629.06
471.115	13655.68
471.32	13731.46
471.525	13657.73
471.73	13045.39
471.935	13309.58
472.139	12635.8
472.344	12961.42
472.549	12947.09
472.754	12643.99
472.959	12375.7
473.164	11947.68
473.369	11775.65
473.574	12580.5
473.778	12132
473.983	12160.67
474.188	12035.74
474.393	11431.59
474.598	11681.44
474.802	11499.17
475.007	11130.54
475.212	11419.3
475.417	10944.17
475.621	10868.4
475.826	10862.26
476.031	10647.22
476.235	10598.07
476.44	10839.73
476.645	10526.39
476.849	10505.91
477.054	10272.44
477.259	10079.93
477.463	10290.87
477.668	9969.34
477.872	10116.79
478.077	9985.72
478.282	9785.02
478.486	9862.85
478.691	9553.6
478.895	9475.78
479.1	9412.29
479.304	9301.7
479.509	9170.63
479.713	9549.51
479.918	9039.56
480.122	9223.88
480.326	9240.26
480.531	9072.33
480.735	8982.22
480.94	9043.66
481.144	9359.05
481.348	8726.22
481.553	8951.5
481.757	8640.21
481.961	9014.99
482.166	9090.76
482.37	9086.67
482.574	8789.71
482.778	8828.62
482.983	9072.33
483.187	8750.8
483.391	8904.4
483.595	8793.81
483.8	8632.02
484.004	8871.63
484.208	8816.33
484.412	8752.85
484.616	8851.15
484.821	8742.61
485.025	8550.1
485.229	8992.46
485.433	8888.01
485.637	8904.4
485.841	8779.47
486.045	8779.47
486.249	8681.17
486.453	8765.14
486.657	8838.86
486.861	8953.55
487.065	8781.52
487.269	8822.48
487.473	8558.29
487.677	8736.46
487.881	8806.09
488.085	8974.03
488.289	8748.75
488.493	8828.62
488.697	8810.19
488.901	8879.82
489.105	8873.68
489.309	8742.61
489.512	8898.25
489.716	8855.25
489.92	8951.5
490.124	8863.44
490.328	8922.83
490.531	9051.85
490.735	8959.69
490.939	9058
491.143	8978.12
491.346	8822.48
491.55	9111.24
491.754	8947.4
491.958	9232.07
492.161	9359.05
492.365	9316.04
492.569	9256.65
492.772	9184.97
492.976	9219.78
493.18	9367.24
493.383	9481.92
493.587	9490.12
493.79	9653.95
493.994	9600.71
494.197	9645.76
494.401	9680.58
494.605	9762.5
494.808	9922.24
495.012	9746.11
495.215	9983.68
495.419	10225.34
495.622	10030.78
495.825	10073.79
496.029	10280.63
496.232	10284.73
496.436	10325.69
496.639	10679.99
496.843	10458.81
497.046	10821.3
497.249	10966.7
497.453	10817.2
497.656	10899.12
497.859	11056.81
498.063	11206.31
498.266	11390.63
498.469	11378.34
498.673	11435.69
498.876	11673.25
499.079	11654.82
499.282	11890.34
499.485	12091.04
499.689	12209.82
499.892	12322.46
500.095	12209.82
500.298	12744.34
500.501	12703.38
500.705	12891.79
500.908	12859.03
501.111	13139.6
501.314	13272.71
501.517	13184.65
501.72	13590.15
501.923	13577.86
502.126	13794.95
502.329	13856.39
502.532	13999.74
502.735	14130.81
502.938	14689.91
503.141	14294.65
503.344	14681.72
503.547	14769.78
503.75	14814.84
503.953	15040.11
504.156	15355.5
504.359	15369.83
504.562	15488.62
504.765	15830.63
504.968	16060
505.17	16266.85
505.373	16307.8
505.576	16260.7
505.779	16580.18
505.982	16539.22
506.185	17133.14
506.387	17088.08
506.59	17174.1
506.793	17688.14
506.996	17438.28
507.198	18011.71
507.401	17958.47
507.604	18294.33
507.807	18726.46
508.009	18716.22
508.212	18495.04
508.415	18867.77
508.617	19205.68
508.82	19240.5
509.022	19068.47
509.225	19996.2
509.428	19801.64
509.63	19791.4
509.833	19975.72
510.035	20543
510.238	20530.72
510.44	20616.73
510.643	21124.63
510.845	20829.72
511.048	21165.59
511.25	21325.33
511.453	21655.05
511.655	22038.02
511.858	21986.82
512.06	22466.05
512.262	22433.28
512.465	22447.61
512.667	22799.87
512.87	23260.66
513.072	23199.22
513.274	23576.05
513.477	23825.9
513.679	23924.2
513.881	24309.22
514.084	24444.38
514.286	24321.51
514.488	24692.19
514.69	25370.07
514.893	25234.9
515.095	25089.49
515.297	25521.62
515.499	25640.4
515.701	25986.5
515.904	26375.62
516.106	26680.77
516.308	26596.8
516.51	27305.4
516.712	27059.64
516.914	27352.5
517.116	27659.7
517.318	27852.2
517.52	27882.92
517.722	28153.26
517.925	28413.35
518.127	28925.34
518.329	28951.96
518.531	29109.66
518.733	29455.76
518.935	29838.73
519.136	29930.89
519.338	30119.31
519.54	30332.29
519.742	30602.63
519.944	30954.88
520.146	31430.01
520.348	31608.18
520.55	31686
520.752	31591.8
520.954	32339.3
521.155	31804.78
521.357	32974.17
521.559	32695.65
521.761	33365.34
521.963	33092.96
522.164	33584.47
522.366	33459.54
522.568	33942.86
522.77	34080.08
522.971	34497.86
523.173	34602.31
523.375	35073.34
523.576	34891.07
523.778	35360.06
523.98	35501.37
524.181	35466.55
524.383	36087.09
524.584	36298.03
524.786	36400.43
524.988	36386.09
525.189	36992.29
525.391	37096.74
525.592	37412.12
525.794	37205.28
525.995	37387.55
526.197	37479.71
526.398	37739.8
526.6	38202.64
526.801	38421.77
527.003	38536.46
527.204	38313.23
527.406	39111.94
527.607	38880.52
527.808	39429.37
528.01	38468.87
528.211	39156.99
528.412	39986.42
528.614	39816.44
528.815	40013.04
529.016	40516.84
529.218	39884.02
529.419	40207.6
529.62	40250.61
529.822	40152.3
530.023	40502.51
530.224	40373.49
530.425	40482.03
530.626	40387.82
530.828	40238.32
531.029	41133.28
531.23	40555.75
531.431	41434.33
531.632	40942.82
531.833	41303.26
532.035	41055.46
532.236	41186.53
532.437	41770.2
532.638	41589.98
532.839	41059.55
533.04	41970.9
533.241	41704.66
533.442	42095.83
533.643	41921.75
533.844	42022.1
534.045	42050.77
534.246	41563.36
534.447	41979.09
534.648	41940.18
534.849	42020.05
535.05	41862.36
535.251	42345.68
535.451	41923.8
535.652	42151.12
535.853	42042.58
536.054	41970.9
536.255	42362.06
536.456	41991.38
536.657	42898.63
536.857	42278.1
537.058	41997.52
537.259	42681.55
537.46	42382.54
537.66	42437.84
537.861	42388.69
538.062	42396.88
538.263	42679.5
538.463	42259.66
538.664	42042.58
538.865	42366.16
539.065	42607.82
539.266	41782.49
539.466	42738.89
539.667	42378.45
539.868	42763.46
540.068	42292.43
540.269	42534.09
540.469	42636.49
540.67	42151.12
540.87	42738.89
541.071	42190.03
541.271	42810.57
541.472	42339.54
541.672	42468.56
541.873	42271.95
542.073	41868.5
542.274	42945.73
542.474	42376.4
542.675	41977.04
542.875	42847.43
543.075	42374.35
543.276	42081.49
543.476	42659.02
543.676	42284.24
543.877	42675.4
544.077	42380.49
544.277	42198.23
544.478	42300.62
544.678	42583.24
544.878	42290.38
545.078	42370.25
545.279	42079.44
545.479	41997.52
545.679	42480.85
545.879	42140.88
546.079	42403.02
546.28	42177.75
546.48	42165.46
546.68	42130.64
546.88	42243.28
547.08	42314.96
547.28	42566.86
547.48	42013.91
547.68	42452.17
547.88	42038.48
548.081	42159.31
548.281	42544.33
548.481	41835.73
548.681	42243.28
548.881	41471.2
549.081	42476.75
549.28	41948.37
549.48	42222.8
549.68	41635.03
549.88	42734.79
550.08	41714.9
550.28	42384.59
550.48	41903.32
550.68	42163.41
550.88	41915.61
551.08	42056.92
551.279	41698.52
551.479	41716.95
551.679	42286.29
551.879	41899.22
552.079	42233.04
552.278	41874.65
552.478	41993.43
552.678	41864.41
552.878	42052.82
553.077	41606.36
553.277	41235.68
553.477	42427.6
553.676	41628.89
553.876	41788.63
554.076	41370.85
554.275	41250.02
554.475	41309.41
554.674	41563.36
554.874	41817.3
555.074	41254.11
555.273	41669.85
555.473	41659.61
555.672	41067.75
555.872	41157.86
556.071	41587.93
556.271	41387.23
556.47	40918.24
556.67	41114.85
556.869	40873.19
557.068	40881.38
557.268	40793.32
557.467	40877.29
557.667	40668.39
557.866	40944.87
558.065	40410.35
558.265	40400.11
558.464	40619.24
558.663	40908.01
558.863	39787.77
559.062	40889.57
559.261	39924.98
559.461	40543.47
559.66	39865.59
559.859	39851.25
560.058	39247.1
560.258	39865.59
560.457	39830.77
560.656	39779.57
560.855	39513.34
561.054	40168.69
561.253	39355.64
561.453	39509.24
561.652	39585.02
561.851	39218.43
562.05	39191.81
562.249	38632.71
562.448	38968.58
562.647	38810.89
562.846	38794.5
563.045	38688.01
563.244	37954.83
563.443	38827.27
563.642	38096.14
563.841	38092.05
564.04	37997.84
564.239	38229.26
564.438	37774.61
564.637	38065.42
564.836	37993.75
565.035	37389.59
565.234	37920.02
565.432	37555.48
565.631	37080.35
565.83	37434.65
566.029	36914.47
566.228	37344.54
566.427	37047.58
566.625	36873.51
566.824	36613.41
567.023	36926.75
567.222	36343.08
567.42	36578.6
567.619	36334.89
567.818	36392.23
568.016	36119.85
568.215	36101.42
568.414	36291.88
568.612	36226.35
568.811	35734.84
569.01	35896.63
569.208	35341.63
569.407	35429.69
569.605	34991.42
569.804	35464.5
570.002	34952.51
570.201	35183.93
570.4	34633.03
570.598	34710.85
570.797	34917.7
570.995	34557.25
571.193	34317.64
571.392	34585.93
571.59	34243.91
571.789	34518.34
571.987	34121.04
572.186	33883.47
572.384	33543.51
572.582	33961.3
572.781	33742.16
572.979	33396.06
573.177	33674.58
573.376	33439.06
573.574	32910.69
573.772	33357.14
573.971	33062.24
574.169	32982.37
574.367	32974.17
574.565	32857.44
574.763	32423.27
574.962	32701.79
575.16	32005.48
575.358	32419.17
575.556	32085.36
575.754	32400.74
575.952	31901.04
576.151	32533.86
576.349	32019.82
576.547	31982.96
576.745	31698.29
576.943	31954.29
577.141	31573.36
577.339	31249.78
577.537	31262.07
577.735	31604.08
577.933	30965.12
578.131	31182.2
578.329	30705.02
578.527	30778.75
578.725	30958.97
578.923	31110.52
579.121	30444.93
579.319	30612.87
579.516	30727.55
579.714	30547.33
579.912	30332.29
580.11	30211.46
580.308	30619.01
580.506	30307.72
580.704	29517.2
580.901	30090.63
581.099	30113.16
581.297	29762.96
581.495	29676.94
581.692	29558.16
581.89	29756.82
582.088	29982.09
582.285	29375.89
582.483	29535.63
582.681	29384.08
582.878	29152.66
583.076	28933.53
583.274	29152.66
583.471	28474.79
583.669	28865.95
583.866	28771.74
584.064	28728.73
584.262	28601.76
584.459	28616.1
584.657	28155.3
584.854	28671.39
585.052	27811.24
585.249	28028.33
585.447	28177.83
585.644	27684.27
585.841	27923.88
586.039	28081.58
586.236	27575.73
586.434	27741.61
586.631	27794.86
586.828	27608.5
587.026	27401.65
587.223	27340.21
587.42	27200.95
587.618	27444.66
587.815	26965.43
588.012	27092.41
588.21	27006.39
588.407	26992.06
588.604	26752.45
588.801	26529.22
588.999	26551.74
589.196	26498.5
589.393	26639.81
589.59	26242.5
589.787	26508.74
589.984	26457.54
590.182	25898.44
590.379	26013.13
590.576	25853.39
590.773	25857.48
590.97	25759.18
591.167	25957.83
591.364	25736.65
591.561	25679.31
591.758	25603.53
591.955	25431.51
592.152	25755.08
592.349	25288.15
592.546	25175.51
592.743	25163.22
592.94	24690.14
593.137	25222.61
593.334	25654.73
593.531	24688.09
593.727	24745.44
593.924	24942.04
594.121	24184.29
594.318	24450.53
594.515	24507.87
594.712	24935.9
594.908	24417.76
595.105	24503.78
595.302	24034.79
595.499	24554.97
595.696	24243.68
595.892	23793.13
596.089	24260.07
596.286	24042.98
596.482	23844.33
596.679	23832.04
596.876	23918.06
597.072	23518.7
597.269	23303.67
597.466	23469.55
597.662	23539.18
597.859	23406.06
598.055	23334.39
598.252	22801.91
598.448	23225.84
598.645	23305.71
598.841	22916.6
599.038	22973.94
599.234	23010.81
599.431	22969.85
599.627	22539.77
599.824	22965.75
600.02	22488.57
600.217	22447.61
600.413	22349.31
600.609	22404.61
600.806	22253.06
601.002	22390.27
601.198	22248.96
601.395	21878.28
601.591	21882.38
601.787	21984.77
601.984	21769.74
602.18	22031.88
602.376	21841.42
602.572	21489.17
602.769	21626.38
602.965	21476.88
603.161	21480.97
603.357	21157.39
603.553	21130.77
603.75	21313.04
603.946	20991.51
604.142	21464.59
604.338	20844.06
604.534	20991.51
604.73	20862.49
604.926	20682.27
605.122	20715.03
605.318	20590.11
605.514	20727.32
605.71	20715.03
605.906	20706.84
606.102	20735.51
606.298	20352.54
606.494	20338.21
606.69	20418.08
606.886	20395.55
607.082	19686.95
607.278	20295.2
607.474	19803.69
607.67	20123.17
607.866	19861.03
608.062	20028.96
608.257	20053.54
608.453	20004.39
608.649	19697.19
608.845	19824.17
609.041	19512.88
609.236	19602.99
609.432	19725.86
609.628	19672.62
609.824	19367.47
610.019	19203.63
610.215	19396.14
610.411	19439.15
610.606	19355.18
610.802	19410.48
610.998	19158.58
611.193	19263.02
611.389	19084.85
611.584	19025.46
611.78	18646.58
611.976	18857.53
612.171	18974.26
612.367	18949.68
612.562	18710.07
612.758	18791.99
612.953	18781.75
613.149	19035.7
613.344	18423.36
613.539	18998.84
613.735	18548.28
613.93	18712.12
614.126	18691.64
614.321	18671.16
614.517	18599.48
614.712	18472.51
614.907	18314.81
615.103	18482.75
615.298	18392.64
615.493	18466.36
615.688	18263.61
615.884	18617.91
616.079	17993.28
616.274	18267.71
616.47	18062.91
616.665	18120.26
616.86	17903.17
617.055	18218.56
617.25	17700.42
617.445	18308.67
617.641	17657.42
617.836	17882.69
618.031	17618.5
618.226	17913.41
618.421	17436.24
618.616	17751.62
618.811	17561.16
619.006	17659.46
619.201	17165.9
619.396	17552.97
619.591	17143.38
619.786	17399.37
619.981	17047.12
620.176	17350.22
620.371	16793.17
620.566	17040.98
620.761	16920.15
620.956	16985.68
621.151	16670.29
621.346	16772.69
621.541	16342.62
621.735	16522.84
621.93	16164.45
622.125	16498.27
622.32	15933.03
622.515	16279.13
622.709	16139.87
622.904	16098.91
623.099	15732.33
623.294	16090.72
623.488	15621.73
623.683	15754.85
623.878	15634.02
624.072	15570.54
624.267	15515.24
624.462	15304.3
624.656	15328.88
624.851	15404.65
625.046	15105.65
625.24	14997.1
625.435	14888.56
625.629	15089.26
625.824	14671.48
626.018	14954.1
626.213	14335.61
626.407	14716.53
626.602	14466.68
626.796	14513.78
626.991	14601.85
627.185	14167.68
627.38	14343.8
627.574	14093.95
627.768	14003.84
627.963	13958.78
628.157	13938.3
628.352	14048.89
628.546	13584.01
628.74	13647.49
628.935	13530.76
629.129	13782.66
629.323	13401.74
629.517	13254.28
629.712	13325.96
629.906	13211.28
630.1	13076.11
630.294	13139.6
630.489	12897.94
630.683	13092.49
630.877	12805.78
631.071	12758.67
631.265	12928.66
631.459	12783.25
631.653	12668.56
631.848	12607.12
632.042	12484.25
632.236	12508.82
632.43	12211.87
632.624	12336.79
632.818	12351.13
633.012	12056.22
633.206	12168.86
633.4	11925.15
633.594	12009.12
633.788	11712.16
633.982	12068.51
634.176	11849.38
634.369	11927.2
634.563	11736.74
634.757	11464.36
634.951	11734.69
635.145	11669.16
635.339	11533.99
635.533	11482.79
635.726	11402.92
635.92	11163.31
636.114	11368.1
636.308	11124.4
636.501	11345.58
636.695	11071.15
636.889	10993.33
637.083	11083.44
637.276	10972.85
637.47	10626.74
637.664	10720.95
637.857	10565.3
638.051	10706.61
638.244	10706.61
638.438	10438.33
638.632	10370.74
638.825	10467
639.019	10411.7
639.212	10206.91
639.406	10397.37
639.599	10243.77
639.793	10231.48
639.986	10071.74
640.18	10014.4
640.373	10075.84
640.567	9801.41
640.76	9875.13
640.954	9703.11
641.147	9895.61
641.34	9739.97
641.534	9752.26
641.727	9662.15
641.92	9567.94
642.114	9559.75
642.307	9551.56
642.5	9477.83
642.694	9326.28
642.887	9428.68
643.08	9436.87
643.273	9254.6
643.467	9299.66
643.66	8931.02
643.853	9039.56
644.046	9182.92
644.239	9268.94
644.432	8926.93
644.626	8802
644.819	8933.07
645.012	8888.01
645.205	8871.63
645.398	8916.69
645.591	8724.18
645.784	8572.63
645.977	8517.33
646.17	8535.76
646.363	8421.08
646.556	8503
646.749	8369.88
646.942	8425.17
647.135	8261.34
647.328	8091.35
647.521	8347.35
647.714	8066.78
647.907	8234.71
648.099	8189.66
648.292	8140.51
648.485	8183.51
648.678	7861.98
648.871	8077.02
649.064	7837.41
649.256	8044.25
649.449	8115.93
649.642	7921.37
649.835	7810.78
650.027	7810.78
650.22	7696.1
650.413	7708.38
650.605	7743.2
650.798	7812.83
650.991	7642.85
651.183	7558.88
651.376	7413.48
651.568	7358.18
651.761	7366.37
651.954	7706.34
652.146	7452.39
652.339	7409.38
652.531	7436
652.724	7241.45
652.916	7110.38
653.109	7356.13
653.301	7130.86
653.494	7159.53
653.686	6950.64
653.879	7198.44
654.071	6960.88
654.263	6854.38
654.456	6917.87
654.648	6989.55
654.84	6987.5
655.033	6934.25
655.225	6944.49
655.417	6717.17
655.61	6885.1
655.802	6737.65
655.994	6797.04
656.186	6754.03
656.379	6569.71
656.571	6627.06
656.763	6452.98
656.955	6481.65
657.148	6577.9
657.34	6575.86
657.532	6383.35
657.724	6262.52
657.916	6389.49
658.108	6270.71
658.3	6364.92
658.492	6504.18
658.684	6264.57
658.876	6289.14
659.068	6217.46
659.26	6207.22
659.452	6250.23
659.644	6315.76
659.836	6229.75
660.028	6172.41
660.22	6006.52
660.412	6084.34
660.604	5932.79
660.796	5912.32
660.988	6002.43
661.18	5994.23
661.372	5879.55
661.563	5945.08
661.755	5863.16
661.947	5902.08
662.139	5832.44
662.331	5619.46
662.522	5822.2
662.714	5713.66
662.906	5736.19
663.097	5721.85
663.289	5697.28
663.481	5691.13
663.673	5680.89
663.864	5740.29
664.056	5607.17
664.247	5594.88
664.439	5619.46
664.631	5635.84
664.822	5744.38
665.014	5576.45
665.205	5480.19
665.397	5605.12
665.588	5406.47
665.78	5504.77
665.971	5617.41
666.163	5406.47
666.354	5560.06
666.546	5299.97
666.737	5332.74
666.929	5426.95
667.12	5332.74
667.311	5379.84
667.503	5326.6
667.694	5414.66
667.885	5271.3
668.077	5357.32
668.268	5222.15
668.459	5420.8
668.651	5265.16
668.842	5281.54
669.033	5193.48
669.224	5314.31
669.416	5363.46
669.607	5244.68
669.798	5242.63
669.989	5242.63
670.18	5273.35
670.371	5199.62
670.563	5242.63
670.754	5197.57
670.945	5193.48
671.136	5160.71
671.327	5154.57
671.518	5224.2
671.709	5216.01
671.9	5361.41
672.091	5132.04
672.282	5320.45
672.473	5234.44
672.664	5181.19
672.855	5338.88
673.046	5216.01
673.237	5390.08
673.428	5224.2
673.619	5314.31
673.809	5207.81
674	5162.76
674.191	5213.96
674.382	5277.44
674.573	5226.25
674.764	5175.05
674.954	5095.18
675.145	5033.74
675.336	5150.47
675.527	5250.82
675.717	5275.4
675.908	5148.42
676.099	5136.13
676.289	5297.92
676.48	5250.82
676.671	5242.63
676.861	5216.01
677.052	5236.49
677.243	5189.38
677.433	5332.74
677.624	5281.54
677.814	5388.04
678.005	5306.12
678.195	5357.32
678.386	5347.08
678.576	5295.88
678.767	5377.8
678.957	5390.08
679.148	5256.97
679.338	5582.59
679.529	5428.99
679.719	5472
679.909	5672.7
680.1	5594.88
680.29	5455.62
680.481	5607.17
680.671	5469.95
680.861	5551.87
681.052	5535.49
681.242	5445.38
681.432	5519.11
681.622	5476.1
681.813	5551.87
682.003	5537.54
682.193	5447.43
682.383	5465.86
682.573	5519.11
682.764	5592.83
682.954	5693.18
683.144	5684.99
683.334	5644.03
683.524	5627.65
683.714	5598.98
683.904	5512.96
684.094	5512.96
684.284	5601.02
684.474	5601.02
684.664	5635.84
684.854	5773.05
685.044	5740.29
685.234	5627.65
685.424	5592.83
685.614	5619.46
685.804	5654.27
685.994	5717.76
686.184	5529.34
686.374	5562.11
686.564	5508.87
686.753	5369.6
686.943	5500.67
687.133	5367.56
687.323	5461.76
687.513	5506.82
687.702	5437.19
687.892	5353.22
688.082	5500.67
688.272	5357.32
688.461	5265.16
688.651	5234.44
688.841	5302.02
689.03	5095.18
689.22	5197.57
689.41	5250.82
689.599	5091.08
689.789	5205.77
689.979	5041.93
690.168	5013.26
690.358	5056.26
690.547	4869.9
690.737	4957.96
690.926	5011.21
691.116	4955.91
691.305	4857.61
691.495	4828.94
691.684	4857.61
691.874	4785.93
692.063	4833.04
692.252	4790.03
692.442	4730.64
692.631	4693.77
692.82	4673.29
693.01	4620.05
693.199	4695.82
693.388	4464.4
693.578	4513.55
693.767	4601.62
693.956	4505.36
694.146	4394.77
694.335	4423.44
694.524	4464.4
694.713	4443.92
694.902	4374.29
695.092	4441.87
695.281	4153.11
695.47	4333.33
695.659	4288.28
695.848	4267.8
696.037	4232.98
696.226	4249.36
696.415	4241.17
696.604	4226.84
696.793	4194.07
696.982	4251.41
697.171	4230.93
697.36	4257.56
697.549	4298.52
697.738	4153.11
697.927	4200.21
698.116	4081.43
698.305	4118.29
698.494	4124.44
698.683	4085.53
698.872	4183.83
699.061	4077.34
699.25	3991.32
699.438	4026.14
699.627	3940.12
699.816	4054.81
700.005	4142.87
700.193	3987.22
700.382	3991.32
700.571	4075.29
700.76	4128.53
700.948	4052.76
701.137	4101.91
701.326	4017.94
701.514	3897.11
701.703	3956.5
701.892	4149.01
702.08	4091.67
702.269	4083.48
702.457	3983.13
702.646	4030.23
702.834	3940.12
703.023	3997.46
703.212	3938.07
703.4	4028.18
703.589	4007.7
703.777	4060.95
703.965	4134.68
704.154	4124.44
704.342	4169.49
704.531	4153.11
704.719	4013.85
704.907	4063
705.096	3878.68
705.284	3972.89
705.472	3944.22
705.661	4081.43
705.849	4185.88
706.037	4001.56
706.226	4046.62
706.414	4187.93
706.602	4038.42
706.79	4198.17
706.979	4167.45
707.167	4153.11
707.355	4099.86
707.543	4097.81
707.731	4302.61
707.919	4235.03
708.107	4089.62
708.296	4257.56
708.484	4112.15
708.672	4167.45
708.86	4345.62
709.048	4275.99
709.236	4243.22
709.424	4294.42
709.612	4321.04
709.8	4339.48
709.988	4243.22
710.176	4312.85
710.364	4359.95
710.551	4398.87
710.739	4239.12
710.927	4374.29
711.115	4400.91
711.303	4364.05
711.491	4454.16
711.679	4323.09
711.866	4536.08
712.054	4398.87
712.242	4419.35
712.43	4579.09
712.617	4527.89
712.805	4368.15
712.993	4480.78
713.181	4562.7
713.368	4521.74
713.556	4513.55
713.744	4583.18
713.931	4689.68
714.119	4531.98
714.306	4663.05
714.494	4712.21
714.682	4685.58
714.869	4695.82
715.057	4792.08
715.244	4671.25
715.432	4824.84
715.619	4738.83
715.807	4769.55
715.994	4880.14
716.182	4914.95
716.369	4886.28
716.556	4968.2
716.744	4894.47
716.931	4876.04
717.119	4970.25
717.306	4888.33
717.493	4847.37
717.681	4955.91
717.868	4880.14
718.055	4923.15
718.242	5054.22
718.43	5132.04
718.617	5187.33
718.804	4908.81
718.991	5107.46
719.179	5140.23
719.366	5209.86
719.553	5109.51
719.74	5205.77
719.927	5224.2
720.114	5140.23
720.301	5205.77
720.488	5048.07
720.676	5201.67
720.863	5357.32
721.05	5236.49
721.237	5394.18
721.424	5277.44
721.611	5308.16
721.798	5324.55
721.985	5383.94
722.172	5359.36
722.358	5308.16
722.545	5418.75
722.732	5480.19
722.919	5443.33
723.106	5291.78
723.293	5611.26
723.48	5672.7
723.667	5476.1
723.853	5457.67
724.04	5699.33
724.227	5523.2
724.414	5566.21
724.6	5635.84
724.787	5633.79
724.974	5689.09
725.161	5701.37
725.347	5598.98
725.534	5828.35
725.72	5762.81
725.907	5705.47
726.094	5734.14
726.28	5697.28
726.467	5738.24
726.653	5809.92
726.84	5902.08
727.027	5783.29
727.213	5824.25
727.4	5701.37
727.586	5846.78
727.773	5652.22
727.959	5824.25
728.145	5877.5
728.332	5809.92
728.518	5998.33
728.705	6166.26
728.891	5852.92
729.077	5897.98
729.264	6057.72
729.45	6043.39
729.636	6070.01
729.823	6104.82
730.009	5945.08
730.195	6164.22
730.382	6057.72
730.568	6055.67
730.754	6145.78
730.94	6162.17
731.126	6244.09
731.313	6201.08
731.499	6151.93
731.685	6135.54
731.871	6272.76
732.057	6119.16
732.243	6332.15
732.429	6188.79
732.615	6344.44
732.801	6088.44
732.987	6338.29
733.173	6158.07
733.359	6237.94
733.545	6287.09
733.731	6145.78
733.917	6344.44
734.103	6176.5
734.289	6172.41
734.475	6373.11
734.661	6217.46
734.847	6479.6
735.033	6336.24
735.219	6395.64
735.404	6360.82
735.59	6455.03
735.776	6254.33
735.962	6289.14
736.148	6518.51
736.333	6283
736.519	6166.26
736.705	6426.36
736.89	6321.91
737.076	6239.99
737.262	6262.52
737.447	6326
737.633	6362.87
737.819	6401.78
738.004	6291.19
738.19	6323.96
738.375	6115.06
738.561	6389.49
738.747	6264.57
738.932	6192.89
739.118	6252.28
739.303	6264.57
739.489	6235.89
739.674	6141.69
739.859	6176.5
740.045	6289.14
740.23	6182.65
740.416	6207.22
740.601	6012.67
740.786	6102.78
740.972	6108.92
741.157	6031.1
741.342	6004.47
741.528	6045.43
741.713	6196.98
741.898	6168.31
742.084	5940.99
742.269	6156.02
742.454	5971.71
742.639	6024.95
742.824	5963.51
743.01	6078.2
743.195	6051.58
743.38	5836.54
743.565	5912.32
743.75	5949.18
743.935	5785.34
744.12	5967.61
744.305	5721.85
744.49	5885.69
744.675	5828.35
744.86	5830.4
745.045	5816.06
745.23	5586.69
745.415	5719.81
745.6	5607.17
745.785	5519.11
745.97	5785.34
746.155	5529.34
746.34	5533.44
746.525	5519.11
746.71	5824.25
746.895	5488.39
747.079	5420.8
747.264	5392.13
747.449	5488.39
747.634	5502.72
747.819	5379.84
748.003	5455.62
748.188	5371.65
748.373	5218.05
748.557	5396.23
748.742	5129.99
748.927	5283.59
749.111	5152.52
749.296	5162.76
749.481	5140.23
749.665	4978.44
749.85	4939.53
750.034	5017.35
750.219	4876.04
750.404	4853.52
750.588	4880.14
750.773	4867.85
750.957	4681.49
751.141	4865.8
751.326	4765.45
751.51	4777.74
751.695	4697.87
751.879	4505.36
752.064	4632.33
752.248	4583.18
752.432	4642.57
752.617	4552.46
752.801	4439.83
752.985	4558.61
753.17	4554.51
753.354	4405.01
753.538	4523.79
753.722	4181.78
753.907	4210.45
754.091	4251.41
754.275	4196.12
754.459	4261.65
754.643	4065.05
754.828	4153.11
755.012	4169.49
755.196	4177.69
755.38	4032.28
755.564	4034.33
755.748	3976.98
755.932	3923.74
756.116	3837.72
756.3	3911.45
756.484	4009.75
756.668	3895.07
756.852	3923.74
757.036	3661.6
757.22	3677.98
757.404	3784.48
757.588	3667.74
757.772	3723.04
757.956	3616.54
758.14	3643.17
758.323	3575.58
758.507	3514.14
758.691	3520.29
758.875	3575.58
759.059	3473.18
759.242	3673.89
759.426	3456.8
759.61	3493.66
759.794	3270.44
759.977	3325.73
760.161	3348.26
760.345	3510.05
760.528	3305.25
760.712	3356.45
760.895	3231.52
761.079	3270.44
761.263	3274.53
761.446	3249.96
761.63	3145.51
761.813	3317.54
761.997	3329.83
762.18	3276.58
762.364	3274.53
762.547	3088.17
762.731	3020.58
762.914	3043.11
763.098	2985.77
763.281	3028.78
763.464	3120.93
763.648	2973.48
763.831	2965.29
764.015	2848.55
764.198	2993.96
764.381	2996.01
764.564	2899.75
764.748	2891.56
764.931	2850.6
765.114	2842.41
765.297	2832.17
765.481	2826.03
765.664	2785.07
765.847	2875.18
766.03	2768.68
766.213	2901.8
766.397	2723.63
766.58	2647.85
766.763	2848.55
766.946	2639.66
767.129	2613.04
767.312	2694.96
767.495	2654
767.678	2551.6
767.861	2600.75
768.044	2596.65
768.227	2580.27
768.41	2543.41
768.593	2725.68
768.776	2674.48
768.959	2582.32
769.142	2570.03
769.324	2508.59
769.507	2531.12
769.69	2395.95
769.873	2428.72
770.056	2516.78
770.239	2391.86
770.421	2494.26
770.604	2363.19
770.787	2449.2
770.97	2428.72
771.152	2400.05
771.335	2422.58
771.518	2336.56
771.7	2330.42
771.883	2264.88
772.066	2219.83
772.248	2279.22
772.431	2281.27
772.613	2248.5
772.796	2264.88
772.978	2129.72
773.161	2254.64
773.343	2158.39
773.526	2109.24
773.708	2219.83
773.891	2006.84
774.073	2170.68
774.256	2146.1
774.438	2185.01
774.621	2148.15
774.803	1994.55
774.985	1826.62
775.168	2051.89
775.35	1922.87
775.532	1935.16
775.715	1935.16
775.897	1965.88
776.079	1957.69
776.261	1978.17
776.444	1892.15
776.626	1955.64
776.808	1912.63
776.99	1767.23
777.173	1898.3
777.355	1843
777.537	1736.51
777.719	1802.04
777.901	1822.52
778.083	1732.41
778.265	1630.01
778.447	1777.47
778.629	1789.75
778.811	1664.83
778.993	1660.73
779.175	1730.36
779.357	1636.16
779.539	1607.48
779.721	1609.53
779.903	1599.29
780.085	1580.86
780.267	1556.29
780.449	1597.24
780.631	1544
780.812	1625.92
780.994	1503.04
781.176	1568.57
781.358	1412.93
781.54	1519.42
781.721	1558.33
781.903	1392.45
782.085	1412.93
782.267	1449.79
782.448	1347.39
782.63	1513.28
782.812	1455.94
782.993	1414.98
783.175	1365.82
783.357	1392.45
783.538	1363.78
783.72	1302.34
783.901	1392.45
784.083	1374.02
784.264	1300.29
784.446	1214.27
784.627	1218.37
784.809	1404.74
784.99	1251.14
785.172	1220.42
785.353	1199.94
785.535	1230.66
785.716	1218.37
785.897	1142.6
786.079	1165.12
786.26	1298.24
786.441	1136.45
786.623	1095.49
786.804	1183.56
786.985	1171.27
787.167	1136.45
787.348	1068.87
787.529	1062.73
787.71	1156.93
787.891	1169.22
788.073	1122.12
788.254	1001.29
788.435	1177.41
788.616	1079.11
788.797	907.08
788.978	1079.11
789.159	1003.33
789.34	1081.16
789.522	1091.4
789.703	997.19
789.884	1034.05
790.065	986.95
790.246	974.66
790.427	972.61
790.607	945.99
790.788	948.04
790.969	972.61
791.15	943.94
791.331	890.7
791.512	900.94
791.693	851.78
791.874	911.18
792.054	964.42
792.235	917.32
792.416	851.78
792.597	810.82
792.778	927.56
792.958	921.42
793.139	868.17
793.32	776.01
793.5	704.33
793.681	925.51
793.862	925.51
794.042	753.48
794.223	737.1
794.404	880.46
794.584	868.17
794.765	751.43
794.945	794.44
795.126	769.87
795.306	759.63
795.487	759.63
795.667	849.74
795.848	687.95
796.028	724.81
796.209	737.1
796.389	776.01
796.57	692.04
796.75	780.11
796.93	769.87
797.111	638.8
797.291	696.14
797.471	749.39
797.652	730.95
797.832	751.43
798.012	636.75
798.192	735.05
798.373	692.04
798.553	745.29
798.733	659.28
798.913	651.08
799.093	677.71
799.274	702.28
799.454	683.85
799.634	728.91
799.814	720.71
799.994	589.64
800.174	696.14
800.354	671.56
800.534	601.93
800.714	663.37
800.894	606.03
801.074	626.51
801.254	581.45
801.434	696.14
801.614	556.88
801.794	620.36
801.974	1333.06
802.154	515.92
802.334	620.36
802.514	606.03
802.693	685.9
802.873	565.07
803.053	657.23
803.233	581.45
803.413	567.12
803.592	520.01
803.772	573.26
803.952	526.16
804.131	485.2
804.311	536.4
804.491	546.64
804.67	528.21
804.85	499.53
805.03	646.99
805.209	581.45
805.389	532.3
805.568	622.41
805.748	472.91
805.928	558.92
806.107	589.64
806.287	548.68
806.466	597.84
806.646	577.36
806.825	593.74
807.004	556.88
807.184	530.25
807.363	517.97
807.543	440.14
807.722	440.14
807.901	526.16
808.081	540.49
808.26	464.72
808.439	470.86
808.619	442.19
808.798	442.19
808.977	442.19
809.156	474.96
809.336	470.86
809.515	513.87
809.694	464.72
809.873	434
810.052	499.53
810.231	540.49
810.411	388.94
810.59	464.72
810.769	544.59
810.948	499.53
811.127	358.22
811.306	417.61
811.485	450.38
811.664	536.4
811.843	458.57
812.022	378.7
812.201	415.57
812.38	374.61
812.559	446.29
812.737	413.52
812.916	360.27
813.095	368.46
813.274	368.46
813.453	390.99
813.632	454.48
813.811	456.53
813.989	407.38
814.168	409.42
814.347	376.66
814.526	352.08
814.704	427.85
814.883	331.6
815.062	294.74
815.24	390.99
815.419	335.7
815.598	364.37
815.776	327.5
815.955	319.31
816.133	319.31
816.312	374.61
816.49	333.65
816.669	378.7
816.847	393.04
817.026	407.38
817.204	259.92
817.383	237.39
817.561	331.6
817.74	368.46
817.918	356.18
818.097	274.26
818.275	347.98
818.453	390.99
818.632	397.14
818.81	397.14
818.988	356.18
819.167	266.07
819.345	368.46
819.523	372.56
819.701	317.26
819.879	302.93
820.058	311.12
820.236	335.7
820.414	261.97
820.592	284.5
820.77	380.75
820.948	270.16
821.127	341.84
821.305	327.5
821.483	390.99
821.661	325.46
821.839	264.02
822.017	311.12
822.195	261.97
822.373	311.12
822.551	237.39
822.729	249.68
822.907	225.11
823.085	325.46
823.262	329.55
823.44	268.11
823.618	278.35
823.796	276.31
823.974	178
824.152	302.93
824.329	266.07
824.507	261.97
824.685	278.35
824.863	243.54
825.04	278.35
825.218	311.12
825.396	259.92
825.574	274.26
825.751	251.73
825.929	286.54
826.107	206.67
826.284	229.2
826.462	225.11
826.639	278.35
826.817	204.63
826.994	331.6
827.172	225.11
827.349	311.12
827.527	182.1
827.704	253.78
827.882	309.07
828.059	212.82
828.237	261.97
828.414	276.31
828.591	167.76
828.769	251.73
828.946	206.67
829.124	259.92
829.301	264.02
829.478	278.35
829.655	337.74
829.833	245.59
830.01	163.67
830.187	272.21
830.364	89.94
830.542	188.24
830.719	358.22
830.896	180.05
831.073	159.57
831.25	214.87
831.427	245.59
831.604	180.05
831.782	169.81
831.959	235.35
832.136	196.43
832.313	153.43
832.49	257.87
832.667	167.76
832.844	212.82
833.021	212.82
833.198	212.82
833.374	216.91
833.551	114.52
833.728	192.34
833.905	206.67
834.082	114.52
834.259	253.78
834.436	270.16
834.612	126.8
834.789	223.06
834.966	108.37
835.143	169.81
835.319	143.19
835.496	210.77
835.673	110.42
835.85	261.97
836.026	114.52
836.203	188.24
836.38	196.43
836.556	145.24
836.733	120.66
836.909	204.63
837.086	163.67
837.262	169.81
837.439	130.9
837.616	165.71
837.792	235.35
837.968	233.3
838.145	98.13
838.321	202.58
838.498	233.3
838.674	204.63
838.851	204.63
839.027	114.52
839.203	128.85
839.38	171.86
839.556	171.86
839.732	180.05
839.909	245.59
840.085	204.63
840.261	126.8
840.437	126.8
840.614	186.19
840.79	124.76
840.966	139.09
841.142	139.09
841.318	145.24
841.494	130.9
841.671	190.29
841.847	102.23
842.023	188.24
842.199	137.04
842.375	122.71
842.551	40.79
842.727	163.67
842.903	188.24
843.079	104.28
843.255	139.09
843.431	91.99
843.607	223.06
843.783	53.08
843.959	91.99
844.134	108.37
844.31	180.05
844.486	116.56
844.662	81.75
844.838	100.18
845.013	147.28
845.189	118.61
845.365	167.76
845.541	73.56
845.716	143.19
845.892	155.47
846.068	32.6
846.244	151.38
846.419	89.94
846.595	116.56
846.77	91.99
846.946	167.76
847.122	143.19
847.297	108.37
847.473	180.05
847.648	40.79
847.824	151.38
847.999	-2.22
848.175	112.47
848.35	153.43
848.526	104.28
848.701	188.24
848.876	118.61
849.052	171.86
849.227	100.18
849.403	98.13
849.578	69.46
849.753	137.04
849.929	161.62
850.104	73.56
850.279	104.28
850.454	114.52
850.63	143.19
850.805	89.94
850.98	81.75
851.155	130.9
851.33	155.47
851.505	18.26
851.681	102.23
851.856	122.71
852.031	161.62
852.206	128.85
852.381	75.6
852.556	81.75
852.731	83.8
852.906	128.85
853.081	155.47
853.256	104.28
853.431	132.95
853.606	42.84
853.781	106.32
853.956	79.7
854.131	106.32
854.305	28.5
854.48	48.98
854.655	94.04
854.83	120.66
855.005	34.64
855.18	116.56
855.354	63.32
855.529	40.79
855.704	55.12
855.879	110.42
856.053	26.45
856.228	100.18
856.403	94.04
856.577	55.12
856.752	-16.55
856.926	55.12
857.101	89.94
857.276	128.85
857.45	48.98
857.625	116.56
857.799	163.67
857.974	87.89
858.148	46.93
858.323	46.93
858.497	79.7
858.672	-0.17
858.846	87.89
859.02	112.47
859.195	46.93
859.369	159.57
859.543	32.6
859.718	120.66
859.892	55.12
860.066	106.32
860.241	57.17
860.415	20.31
860.589	130.9
860.763	55.12
860.938	73.56
861.112	48.98
861.286	151.38
861.46	-8.36
861.634	32.6
861.808	91.99
861.982	77.65
862.157	46.93
862.331	-2.22
862.505	8.02
862.679	-14.51
862.853	63.32
863.027	51.03
863.201	57.17
863.375	14.17
863.549	63.32
863.722	71.51
863.896	118.61
864.07	-2.22
864.244	12.12
864.418	63.32
864.592	10.07
864.766	8.02
864.939	65.36
865.113	53.08
865.287	106.32
865.461	-0.17
865.634	120.66
865.808	106.32
865.982	114.52
866.156	77.65
866.329	-4.27
866.503	-8.36
866.676	87.89
866.85	89.94
867.024	55.12
867.197	87.89
867.371	65.36
867.544	102.23
867.718	20.31
867.891	5.97
868.065	-49.32
868.238	32.6
868.412	87.89
868.585	79.7
868.759	46.93
868.932	-16.55
869.105	38.74
869.279	48.98
869.452	48.98
869.625	48.98
869.799	69.46
869.972	-2.22
870.145	102.23
870.319	83.8
870.492	51.03
870.665	63.32
870.838	-26.79
871.011	73.56
871.185	20.31
871.358	71.51
871.531	46.93
871.704	-8.36
871.877	122.71
872.05	-26.79
872.223	30.55
872.396	3.93
872.569	42.84
872.742	26.45
872.915	69.46
873.088	69.46
873.261	-125.1
873.434	16.21
873.607	32.6
873.78	51.03
873.953	-14.51
874.126	81.75
874.299	-24.75
874.471	46.93
874.644	116.56
874.817	32.6
874.99	112.47
875.163	89.94
875.335	24.4
875.508	73.56
875.681	46.93
875.853	-8.36
876.026	32.6
876.199	-12.46
876.371	65.36
876.544	8.02
876.717	24.4
876.889	38.74
877.062	122.71
877.234	1.88
877.407	32.6
877.579	40.79
877.752	28.5
877.924	44.88
878.097	124.76
878.269	-0.17
878.442	36.69
878.614	28.5
878.786	38.74
878.959	67.41
879.131	1.88
879.303	1.88
879.476	-0.17
879.648	73.56
879.82	12.12
879.993	20.31
880.165	46.93
880.337	24.4
880.509	-47.27
880.681	55.12
880.854	57.17
881.026	-4.27
881.198	89.94
881.37	-14.51
881.542	12.12
881.714	-51.37
881.886	28.5
882.058	65.36
882.23	69.46
882.402	-2.22
882.574	-6.31
882.746	65.36
882.918	85.84
883.09	69.46
883.262	16.21
883.434	61.27
883.606	-16.55
883.778	24.4
883.95	48.98
884.122	65.36
884.293	55.12
884.465	53.08
884.637	-26.79
884.809	16.21
884.98	12.12
885.152	30.55
885.324	32.6
885.496	12.12
885.667	24.4
885.839	16.21
886.011	89.94
886.182	26.45
886.354	30.55
886.525	12.12
886.697	28.5
886.869	16.21
887.04	46.93
887.212	71.51
887.383	81.75
887.555	-8.36
887.726	-18.6
887.897	-18.6
888.069	79.7
888.24	-26.79
888.412	65.36
888.583	28.5
888.754	20.31
888.926	-77.99
889.097	57.17
889.268	40.79
889.44	38.74
889.611	-16.55
889.782	55.12
889.953	28.5
890.125	71.51
890.296	-0.17
890.467	20.31
890.638	30.55
890.809	73.56
890.98	38.74
891.151	-8.36
891.323	-24.75
891.494	63.32
891.665	-28.84
891.836	46.93
892.007	44.88
892.178	24.4
892.349	-8.36
892.52	63.32
892.691	67.41
892.862	30.55
893.032	-20.65
893.203	-65.71
893.374	16.21
893.545	10.07
893.716	-16.55
893.887	16.21
894.057	14.17
894.228	53.08
894.399	-28.84
894.57	5.97
894.74	-8.36
894.911	-0.17
895.082	61.27
895.253	44.88
895.423	18.26
895.594	48.98
895.764	81.75
895.935	28.5
896.106	3.93
896.276	32.6
896.447	5.97
896.617	12.12
896.788	48.98
896.958	3.93
897.129	65.36
897.299	-30.89
897.47	-2.22
897.64	46.93
897.81	8.02
897.981	53.08
898.151	8.02
898.322	-16.55
898.492	5.97
898.662	-16.55
898.832	32.6
899.003	38.74
899.173	-45.23
899.343	3.93
899.513	65.36
