Data from USB4F104151__102__11-32-22-499.txt Node

Date: Fri Mar 14 11:32:22 EDT 2025
User: louis
Spectrometer: USB4F10415
Trigger mode: 4
Integration Time (sec): 5.000000E-2
Scans to average: 1
Electric dark correction enabled: true
Nonlinearity correction enabled: false
Boxcar width: 0
XAxis mode: Wavelengths
Number of Pixels in Spectrum: 3648
>>>>>Begin Spectral Data<<<<<
178.204	-178.17
178.424	-178.17
178.644	-178.17
178.864	-131.07
179.084	-129.02
179.304	65.54
179.524	-4.1
179.744	-110.59
179.964	57.34
180.184	28.67
180.404	8.19
180.624	-45.06
180.844	0
181.064	-59.39
181.283	30.72
181.503	40.96
181.723	-12.29
181.943	-83.97
182.163	67.58
182.383	-49.15
182.602	-2.05
182.822	90.11
183.042	79.87
183.262	16.38
183.482	45.06
183.701	47.1
183.921	79.87
184.141	-4.1
184.361	88.06
184.58	24.58
184.8	10.24
185.02	24.58
185.239	8.19
185.459	16.38
185.679	24.58
185.898	-34.82
186.118	40.96
186.338	36.86
186.557	55.3
186.777	53.25
186.997	32.77
187.216	55.3
187.436	88.06
187.655	49.15
187.875	36.86
188.095	63.49
188.314	26.62
188.534	94.21
188.753	14.34
188.973	49.15
189.192	63.49
189.412	106.49
189.631	32.77
189.851	36.86
190.07	110.59
190.29	-32.77
190.509	79.87
190.729	0
190.948	88.06
191.168	221.18
191.387	114.69
191.607	4.1
191.826	-14.34
192.045	0
192.265	65.54
192.484	30.72
192.704	24.58
192.923	-40.96
193.142	114.69
193.362	73.73
193.581	73.73
193.8	8.19
194.02	51.2
194.239	47.1
194.458	-2.05
194.678	6.14
194.897	57.34
195.116	24.58
195.335	75.77
195.555	49.15
195.774	55.3
195.993	77.82
196.212	49.15
196.432	124.93
196.651	20.48
196.87	-18.43
197.089	86.01
197.308	114.69
197.528	143.36
197.747	22.53
197.966	81.92
198.185	100.35
198.404	22.53
198.623	38.91
198.842	38.91
199.062	79.87
199.281	161.79
199.5	83.97
199.719	53.25
199.938	161.79
200.157	92.16
200.376	102.4
200.595	-8.19
200.814	59.39
201.033	45.06
201.252	47.1
201.471	34.82
201.69	86.01
201.909	63.49
202.128	30.72
202.347	16.38
202.566	32.77
202.785	-49.15
203.004	73.73
203.223	102.4
203.442	106.49
203.661	86.01
203.879	40.96
204.098	71.68
204.317	30.72
204.536	106.49
204.755	77.82
204.974	4.1
205.193	67.58
205.411	100.35
205.63	116.73
205.849	24.58
206.068	40.96
206.287	49.15
206.505	55.3
206.724	-53.25
206.943	16.38
207.162	53.25
207.381	73.73
207.599	112.64
207.818	49.15
208.037	102.4
208.255	6.14
208.474	-6.14
208.693	114.69
208.911	40.96
209.13	65.54
209.349	0
209.567	55.3
209.786	122.88
210.005	83.97
210.223	12.29
210.442	-24.58
210.661	81.92
210.879	65.54
211.098	-4.1
211.316	36.86
211.535	53.25
211.753	69.63
211.972	102.4
212.191	47.1
212.409	-10.24
212.628	67.58
212.846	51.2
213.065	63.49
213.283	81.92
213.502	77.82
213.72	79.87
213.938	67.58
214.157	92.16
214.375	88.06
214.594	100.35
214.812	98.3
215.031	20.48
215.249	-20.48
215.467	131.07
215.686	4.1
215.904	96.25
216.122	32.77
216.341	4.1
216.559	63.49
216.778	45.06
216.996	47.1
217.214	10.24
217.432	61.44
217.651	16.38
217.869	59.39
218.087	-16.38
218.306	20.48
218.524	45.06
218.742	-24.58
218.96	38.91
219.179	38.91
219.397	67.58
219.615	86.01
219.833	65.54
220.051	-16.38
220.27	122.88
220.488	71.68
220.706	14.34
220.924	45.06
221.142	10.24
221.36	28.67
221.578	61.44
221.796	6.14
222.015	65.54
222.233	-47.1
222.451	122.88
222.669	-59.39
222.887	-2.05
223.105	94.21
223.323	49.15
223.541	12.29
223.759	63.49
223.977	75.77
224.195	86.01
224.413	88.06
224.631	26.62
224.849	53.25
225.067	112.64
225.285	26.62
225.503	14.34
225.721	-43.01
225.939	83.97
226.157	86.01
226.375	116.73
226.592	-2.05
226.81	83.97
227.028	90.11
227.246	135.17
227.464	-57.34
227.682	40.96
227.9	69.63
228.117	114.69
228.335	47.1
228.553	45.06
228.771	86.01
228.989	69.63
229.206	22.53
229.424	28.67
229.642	20.48
229.86	22.53
230.077	141.31
230.295	20.48
230.513	83.97
230.731	88.06
230.948	114.69
231.166	98.3
231.384	-4.1
231.601	55.3
231.819	102.4
232.037	2.05
232.254	26.62
232.472	92.16
232.689	24.58
232.907	53.25
233.125	24.58
233.342	43.01
233.56	24.58
233.777	86.01
233.995	4.1
234.213	96.25
234.43	69.63
234.648	4.1
234.865	77.82
235.083	65.54
235.3	6.14
235.518	40.96
235.735	155.65
235.953	88.06
236.17	57.34
236.388	32.77
236.605	147.45
236.822	118.78
237.04	145.41
237.257	45.06
237.475	14.34
237.692	61.44
237.909	22.53
238.127	8.19
238.344	59.39
238.562	96.25
238.779	47.1
238.996	-20.48
239.214	79.87
239.431	16.38
239.648	147.45
239.865	65.54
240.083	79.87
240.3	4.1
240.517	51.2
240.735	57.34
240.952	36.86
241.169	81.92
241.386	32.77
241.603	-4.1
241.821	14.34
242.038	61.44
242.255	45.06
242.472	10.24
242.689	96.25
242.907	106.49
243.124	77.82
243.341	45.06
243.558	30.72
243.775	28.67
243.992	6.14
244.209	129.02
244.426	165.89
244.643	126.97
244.86	-8.19
245.078	59.39
245.295	53.25
245.512	40.96
245.729	71.68
245.946	81.92
246.163	14.34
246.38	-18.43
246.597	55.3
246.814	57.34
247.031	22.53
247.248	110.59
247.464	65.54
247.681	49.15
247.898	67.58
248.115	40.96
248.332	6.14
248.549	34.82
248.766	102.4
248.983	122.88
249.2	65.54
249.417	38.91
249.633	32.77
249.85	88.06
250.067	0
250.284	10.24
250.501	6.14
250.717	49.15
250.934	4.1
251.151	32.77
251.368	-22.53
251.585	100.35
251.801	38.91
252.018	22.53
252.235	24.58
252.451	-28.67
252.668	16.38
252.885	79.87
253.102	20.48
253.318	16.38
253.535	28.67
253.752	-34.82
253.968	26.62
254.185	20.48
254.401	67.58
254.618	67.58
254.835	53.25
255.051	38.91
255.268	40.96
255.484	38.91
255.701	63.49
255.917	112.64
256.134	40.96
256.351	47.1
256.567	59.39
256.784	4.1
257	0
257.217	61.44
257.433	102.4
257.65	34.82
257.866	129.02
258.082	22.53
258.299	20.48
258.515	63.49
258.732	163.84
258.948	43.01
259.165	49.15
259.381	2.05
259.597	57.34
259.814	59.39
260.03	38.91
260.246	79.87
260.463	73.73
260.679	98.3
260.895	-6.14
261.112	86.01
261.328	-24.58
261.544	-32.77
261.761	122.88
261.977	-24.58
262.193	16.38
262.409	28.67
262.626	30.72
262.842	65.54
263.058	-28.67
263.274	22.53
263.49	81.92
263.707	65.54
263.923	86.01
264.139	-45.06
264.355	43.01
264.571	81.92
264.787	104.45
265.004	36.86
265.22	38.91
265.436	32.77
265.652	69.63
265.868	94.21
266.084	-4.1
266.3	47.1
266.516	0
266.732	28.67
266.948	45.06
267.164	47.1
267.38	16.38
267.596	47.1
267.812	94.21
268.028	34.82
268.244	71.68
268.46	-4.1
268.676	59.39
268.892	161.79
269.108	53.25
269.324	8.19
269.54	6.14
269.756	34.82
269.972	45.06
270.188	53.25
270.403	49.15
270.619	-32.77
270.835	-6.14
271.051	49.15
271.267	88.06
271.483	26.62
271.698	43.01
271.914	40.96
272.13	-8.19
272.346	77.82
272.562	47.1
272.777	57.34
272.993	79.87
273.209	65.54
273.425	8.19
273.64	73.73
273.856	69.63
274.072	49.15
274.287	32.77
274.503	20.48
274.719	-18.43
274.934	69.63
275.15	14.34
275.366	53.25
275.581	38.91
275.797	-10.24
276.012	94.21
276.228	110.59
276.444	45.06
276.659	79.87
276.875	40.96
277.09	38.91
277.306	-10.24
277.521	43.01
277.737	49.15
277.952	92.16
278.168	57.34
278.383	86.01
278.599	40.96
278.814	104.45
279.03	114.69
279.245	65.54
279.461	106.49
279.676	114.69
279.892	-57.34
280.107	57.34
280.322	10.24
280.538	71.68
280.753	77.82
280.969	53.25
281.184	102.4
281.399	122.88
281.615	45.06
281.83	73.73
282.045	-28.67
282.26	-30.72
282.476	47.1
282.691	28.67
282.906	57.34
283.122	-4.1
283.337	43.01
283.552	16.38
283.767	32.77
283.983	135.17
284.198	32.77
284.413	104.45
284.628	55.3
284.843	14.34
285.058	102.4
285.274	32.77
285.489	-36.86
285.704	92.16
285.919	26.62
286.134	67.58
286.349	57.34
286.564	4.1
286.779	81.92
286.995	22.53
287.21	-49.15
287.425	-43.01
287.64	59.39
287.855	-49.15
288.07	16.38
288.285	75.77
288.5	114.69
288.715	114.69
288.93	38.91
289.145	14.34
289.36	43.01
289.575	114.69
289.79	81.92
290.004	18.43
290.219	135.17
290.434	-6.14
290.649	-12.29
290.864	53.25
291.079	4.1
291.294	94.21
291.509	96.25
291.724	49.15
291.938	49.15
292.153	10.24
292.368	38.91
292.583	40.96
292.798	98.3
293.012	16.38
293.227	83.97
293.442	57.34
293.657	32.77
293.871	18.43
294.086	-8.19
294.301	73.73
294.516	83.97
294.73	57.34
294.945	-32.77
295.16	90.11
295.374	118.78
295.589	151.55
295.804	69.63
296.018	55.3
296.233	59.39
296.447	116.73
296.662	16.38
296.877	77.82
297.091	79.87
297.306	0
297.52	57.34
297.735	79.87
297.949	36.86
298.164	40.96
298.378	8.19
298.593	18.43
298.807	8.19
299.022	0
299.236	38.91
299.451	43.01
299.665	45.06
299.88	69.63
300.094	36.86
300.309	-16.38
300.523	61.44
300.737	92.16
300.952	-14.34
301.166	49.15
301.381	55.3
301.595	34.82
301.809	88.06
302.024	73.73
302.238	45.06
302.452	98.3
302.667	36.86
302.881	100.35
303.095	16.38
303.309	65.54
303.524	14.34
303.738	6.14
303.952	53.25
304.166	6.14
304.381	4.1
304.595	90.11
304.809	0
305.023	36.86
305.237	18.43
305.452	-12.29
305.666	73.73
305.88	32.77
306.094	53.25
306.308	104.45
306.522	112.64
306.736	94.21
306.95	16.38
307.164	30.72
307.379	102.4
307.593	102.4
307.807	86.01
308.021	49.15
308.235	63.49
308.449	45.06
308.663	18.43
308.877	104.45
309.091	40.96
309.305	88.06
309.519	-55.3
309.733	139.26
309.947	40.96
310.161	28.67
310.374	40.96
310.588	114.69
310.802	-43.01
311.016	14.34
311.23	49.15
311.444	65.54
311.658	-40.96
311.872	16.38
312.085	88.06
312.299	86.01
312.513	55.3
312.727	30.72
312.941	2.05
313.154	137.21
313.368	16.38
313.582	38.91
313.796	100.35
314.009	47.1
314.223	65.54
314.437	30.72
314.651	57.34
314.864	30.72
315.078	14.34
315.292	-40.96
315.505	-34.82
315.719	-22.53
315.933	53.25
316.146	53.25
316.36	32.77
316.573	69.63
316.787	26.62
317.001	122.88
317.214	65.54
317.428	147.45
317.641	49.15
317.855	16.38
318.068	4.1
318.282	73.73
318.495	139.26
318.709	32.77
318.922	28.67
319.136	112.64
319.349	79.87
319.563	20.48
319.776	24.58
319.99	20.48
320.203	22.53
320.417	4.1
320.63	45.06
320.843	47.1
321.057	98.3
321.27	53.25
321.483	8.19
321.697	120.83
321.91	40.96
322.124	34.82
322.337	16.38
322.55	71.68
322.763	57.34
322.977	-2.05
323.19	-4.1
323.403	20.48
323.617	34.82
323.83	61.44
324.043	55.3
324.256	45.06
324.469	34.82
324.683	112.64
324.896	47.1
325.109	32.77
325.322	45.06
325.535	139.26
325.748	0
325.962	96.25
326.175	30.72
326.388	77.82
326.601	116.73
326.814	18.43
327.027	8.19
327.24	67.58
327.453	8.19
327.666	86.01
327.879	131.07
328.092	90.11
328.305	57.34
328.518	126.97
328.731	-10.24
328.944	65.54
329.157	43.01
329.37	57.34
329.583	49.15
329.796	98.3
330.009	40.96
330.222	14.34
330.435	122.88
330.648	26.62
330.861	-6.14
331.073	-16.38
331.286	24.58
331.499	67.58
331.712	73.73
331.925	24.58
332.138	8.19
332.35	88.06
332.563	63.49
332.776	-36.86
332.989	32.77
333.202	-12.29
333.414	-40.96
333.627	20.48
333.84	24.58
334.053	32.77
334.265	45.06
334.478	38.91
334.691	38.91
334.903	65.54
335.116	-20.48
335.329	69.63
335.541	73.73
335.754	73.73
335.966	86.01
336.179	38.91
336.392	32.77
336.604	22.53
336.817	43.01
337.029	57.34
337.242	-18.43
337.454	65.54
337.667	8.19
337.88	65.54
338.092	73.73
338.305	61.44
338.517	-24.58
338.729	12.29
338.942	92.16
339.154	-26.62
339.367	-16.38
339.579	77.82
339.792	0
340.004	90.11
340.217	57.34
340.429	75.77
340.641	30.72
340.854	40.96
341.066	12.29
341.278	71.68
341.491	172.03
341.703	18.43
341.915	-6.14
342.128	63.49
342.34	-10.24
342.552	32.77
342.764	79.87
342.977	55.3
343.189	36.86
343.401	12.29
343.613	30.72
343.826	61.44
344.038	24.58
344.25	98.3
344.462	49.15
344.674	90.11
344.886	43.01
345.099	55.3
345.311	49.15
345.523	30.72
345.735	129.02
345.947	18.43
346.159	-18.43
346.371	71.68
346.583	71.68
346.795	149.5
347.007	102.4
347.219	59.39
347.431	-28.67
347.643	96.25
347.855	6.14
348.067	69.63
348.279	8.19
348.491	139.26
348.703	36.86
348.915	73.73
349.127	28.67
349.339	24.58
349.551	-45.06
349.763	96.25
349.975	12.29
350.187	20.48
350.399	110.59
350.61	18.43
350.822	90.11
351.034	12.29
351.246	-10.24
351.458	83.97
351.669	65.54
351.881	96.25
352.093	36.86
352.305	94.21
352.517	86.01
352.728	122.88
352.94	16.38
353.152	81.92
353.363	38.91
353.575	118.78
353.787	71.68
353.999	40.96
354.21	139.26
354.422	0
354.633	88.06
354.845	-12.29
355.057	30.72
355.268	73.73
355.48	112.64
355.692	-18.43
355.903	-14.34
356.115	32.77
356.326	55.3
356.538	71.68
356.749	51.2
356.961	112.64
357.172	32.77
357.384	8.19
357.595	129.02
357.807	4.1
358.018	53.25
358.23	30.72
358.441	92.16
358.653	22.53
358.864	10.24
359.075	0
359.287	53.25
359.498	94.21
359.709	118.78
359.921	81.92
360.132	24.58
360.344	79.87
360.555	49.15
360.766	102.4
360.977	40.96
361.189	65.54
361.4	32.77
361.611	-14.34
361.823	81.92
362.034	88.06
362.245	14.34
362.456	6.14
362.667	73.73
362.879	61.44
363.09	90.11
363.301	57.34
363.512	65.54
363.723	71.68
363.935	-24.58
364.146	200.7
364.357	2.05
364.568	94.21
364.779	26.62
364.99	110.59
365.201	26.62
365.412	57.34
365.623	88.06
365.834	73.73
366.045	51.2
366.256	135.17
366.467	90.11
366.678	47.1
366.889	55.3
367.1	106.49
367.311	112.64
367.522	63.49
367.733	141.31
367.944	96.25
368.155	-18.43
368.366	26.62
368.577	71.68
368.788	90.11
368.999	-22.53
369.209	-30.72
369.42	131.07
369.631	182.27
369.842	77.82
370.053	-22.53
370.264	124.93
370.474	-61.44
370.685	96.25
370.896	14.34
371.107	63.49
371.317	38.91
371.528	-18.43
371.739	122.88
371.95	104.45
372.16	98.3
372.371	57.34
372.582	83.97
372.792	49.15
373.003	34.82
373.214	40.96
373.424	30.72
373.635	12.29
373.846	83.97
374.056	79.87
374.267	86.01
374.477	81.92
374.688	30.72
374.898	69.63
375.109	67.58
375.319	22.53
375.53	124.93
375.74	16.38
375.951	73.73
376.161	94.21
376.372	163.84
376.582	65.54
376.793	174.08
377.003	-32.77
377.214	-26.62
377.424	69.63
377.635	49.15
377.845	16.38
378.055	73.73
378.266	-43.01
378.476	79.87
378.686	8.19
378.897	104.45
379.107	110.59
379.317	88.06
379.528	88.06
379.738	122.88
379.948	-14.34
380.158	196.61
380.369	0
380.579	65.54
380.789	88.06
380.999	55.3
381.21	69.63
381.42	212.99
381.63	104.45
381.84	40.96
382.05	45.06
382.261	102.4
382.471	104.45
382.681	47.1
382.891	124.93
383.101	65.54
383.311	45.06
383.521	53.25
383.731	110.59
383.941	102.4
384.151	8.19
384.361	96.25
384.571	69.63
384.781	57.34
384.991	81.92
385.201	71.68
385.411	73.73
385.621	124.93
385.831	49.15
386.041	24.58
386.251	63.49
386.461	90.11
386.671	47.1
386.881	172.03
387.091	8.19
387.301	86.01
387.511	49.15
387.72	65.54
387.93	98.3
388.14	38.91
388.35	63.49
388.56	90.11
388.769	106.49
388.979	120.83
389.189	38.91
389.399	22.53
389.609	122.88
389.818	67.58
390.028	65.54
390.238	-8.19
390.447	36.86
390.657	104.45
390.867	36.86
391.076	-8.19
391.286	16.38
391.496	114.69
391.705	65.54
391.915	126.97
392.125	135.17
392.334	112.64
392.544	63.49
392.753	16.38
392.963	137.21
393.172	77.82
393.382	-18.43
393.591	169.98
393.801	67.58
394.01	120.83
394.22	118.78
394.429	180.22
394.639	79.87
394.848	137.21
395.058	122.88
395.267	90.11
395.477	12.29
395.686	116.73
395.895	108.54
396.105	182.27
396.314	147.45
396.524	131.07
396.733	106.49
396.942	4.1
397.152	169.98
397.361	88.06
397.57	67.58
397.78	126.97
397.989	106.49
398.198	116.73
398.407	126.97
398.617	88.06
398.826	38.91
399.035	126.97
399.244	149.5
399.453	100.35
399.663	163.84
399.872	106.49
400.081	12.29
400.29	186.37
400.499	65.54
400.708	116.73
400.917	122.88
401.127	59.39
401.336	139.26
401.545	182.27
401.754	159.74
401.963	139.26
402.172	94.21
402.381	143.36
402.59	157.69
402.799	151.55
403.008	190.46
403.217	108.54
403.426	208.89
403.635	110.59
403.844	139.26
404.053	49.15
404.262	196.61
404.471	141.31
404.68	151.55
404.888	110.59
405.097	174.08
405.306	225.28
405.515	116.73
405.724	137.21
405.933	245.76
406.142	104.45
406.35	227.32
406.559	188.41
406.768	204.8
406.977	223.23
407.185	208.89
407.394	157.69
407.603	155.65
407.812	215.04
408.02	215.04
408.229	264.19
408.438	270.33
408.646	135.17
408.855	233.47
409.064	274.43
409.272	198.65
409.481	294.91
409.69	294.91
409.898	208.89
410.107	215.04
410.315	315.39
410.524	370.68
410.733	339.96
410.941	278.52
411.15	333.82
411.358	399.35
411.567	487.42
411.775	315.39
411.984	454.65
412.192	425.98
412.401	333.82
412.609	456.7
412.818	501.75
413.026	450.55
413.234	393.21
413.443	538.62
413.651	524.28
413.86	491.51
414.068	638.97
414.276	649.21
414.485	595.96
414.693	630.77
414.901	763.89
415.11	647.16
415.318	630.77
415.526	673.78
415.734	692.21
415.943	794.61
416.151	767.99
416.359	704.5
416.567	745.46
416.776	856.05
416.984	958.45
417.192	937.97
417.4	1001.46
417.608	978.93
417.817	1034.22
418.025	1021.94
418.233	1112.05
418.441	1081.33
418.649	1056.75
418.857	1128.43
419.065	1185.77
419.273	1163.25
419.481	1327.08
419.689	1478.63
419.897	1294.32
420.105	1478.63
420.313	1499.11
420.521	1515.5
420.729	1570.79
420.937	1595.37
421.145	1654.76
421.353	1687.53
421.561	1853.41
421.769	1916.9
421.977	1849.32
422.185	1814.5
422.393	2158.56
422.601	2125.79
422.809	2050.02
423.017	2285.53
423.224	2265.05
423.432	2469.85
423.64	2408.41
423.848	2629.59
424.056	2531.29
424.263	2680.79
424.471	2705.37
424.679	2834.39
424.887	2828.24
425.094	2998.23
425.302	3022.8
425.51	2985.94
425.718	3268.56
425.925	3209.17
426.133	3387.34
426.341	3626.95
426.548	3663.82
426.756	3547.08
426.964	3704.78
427.171	3981.25
427.379	4011.97
427.586	4087.75
427.794	4298.69
428.001	4325.31
428.209	4609.98
428.417	4634.55
428.624	4880.31
428.832	5060.53
429.039	4870.07
429.247	4849.59
429.454	5445.55
429.662	5842.85
429.869	5310.38
430.076	5627.82
430.284	5578.67
430.491	5750.7
430.699	6148
430.906	5918.63
431.114	6051.75
431.321	6438.81
431.528	6447.01
431.736	6725.53
431.943	7268.24
432.15	7143.31
432.358	7008.15
432.565	7456.65
432.772	7446.41
432.979	7915.4
433.187	7976.84
433.394	7901.06
433.601	8443.78
433.808	8540.03
434.016	8458.11
434.223	8882.04
434.43	9244.53
434.637	9338.74
434.844	9817.96
435.052	9934.7
435.259	10194.79
435.466	10123.11
435.673	10045.29
435.88	10514.27
436.087	11288.4
436.294	11099.99
436.501	10923.87
436.708	11099.99
436.915	11370.32
437.122	11999.05
437.329	11919.18
437.537	12609.34
437.743	12508.99
437.95	12502.85
438.157	12877.63
438.364	13553.46
438.571	13365.04
438.778	13709.1
438.985	14855.97
439.192	14087.98
439.399	14851.87
439.606	14343.97
439.813	15324.95
440.02	16383.75
440.227	16043.79
440.433	15832.85
440.64	16170.76
440.847	16193.29
441.054	16486.15
441.261	17606.39
441.467	17360.63
441.674	17886.96
441.881	18466.53
442.088	18403.05
442.294	18177.77
442.501	18427.62
442.708	19240.67
442.914	19511
443.121	20545.22
443.328	20016.85
443.534	21622.45
443.741	20942.53
443.948	20661.96
444.154	21786.29
444.361	21913.27
444.568	22202.03
444.774	22054.58
444.981	22320.81
445.187	23019.17
445.394	24024.72
445.6	23670.42
445.807	25587.32
446.013	24848
446.22	25251.45
446.426	26328.69
446.633	26693.22
446.839	27465.31
447.046	26426.99
447.252	27731.54
447.459	27868.76
447.665	27821.66
447.871	28816.97
448.078	30182.96
448.284	28923.46
448.491	29363.78
448.697	30856.75
448.903	30715.44
449.11	31421.98
449.316	30629.42
449.522	31137.32
449.728	32202.26
449.935	32359.95
450.141	32273.94
450.347	33129.99
450.553	32204.31
450.76	32509.46
450.966	33428.99
451.172	32943.63
451.378	33732.09
451.584	33105.41
451.791	33897.98
451.997	33801.72
452.203	34231.8
452.409	34557.42
452.615	34446.83
452.821	32894.47
453.027	32644.62
453.233	34311.67
453.44	32919.05
453.646	33379.84
453.852	33431.04
454.058	34262.52
454.264	32646.67
454.47	33959.42
454.676	32947.72
454.882	33820.16
455.088	30981.67
455.294	31419.94
455.5	31952.41
455.705	32357.91
455.911	30672.43
456.117	30602.8
456.323	29924.92
456.529	28481.1
456.735	29537.85
456.941	29126.21
457.147	28706.38
457.352	27655.77
457.558	26996.32
457.764	27053.67
457.97	26750.57
458.176	25976.44
458.381	26046.07
458.587	24747.65
458.793	24774.28
458.999	23547.54
459.204	25353.85
459.41	24862.34
459.616	22765.22
459.821	23002.78
460.027	22720.17
460.233	22351.53
460.438	21192.38
460.644	21591.73
460.85	20461.26
461.055	20276.94
461.261	20240.08
461.466	18374.38
461.672	18386.66
461.878	19789.52
462.083	18091.76
462.289	17946.35
462.494	17852.14
462.7	16948.99
462.905	16242.44
463.111	17014.52
463.316	17159.93
463.522	16793.34
463.727	16674.56
463.932	16453.38
464.138	16393.99
464.343	16504.58
464.549	15859.47
464.754	16584.45
464.959	16295.69
465.165	16127.75
465.37	15621.91
465.575	15206.17
465.781	15683.34
465.986	15970.06
466.191	15499.03
466.397	14935.84
466.602	14235.43
466.807	14696.22
467.012	15011.61
467.218	14761.76
467.423	14581.54
467.628	14565.15
467.833	15279.89
468.038	14516
468.244	14409.51
468.449	14728.99
468.654	14354.21
468.859	14534.43
469.064	14282.53
469.269	13600.56
469.474	13772.59
469.679	13983.53
469.885	13627.18
470.09	13819.69
470.295	13686.58
470.5	13385.52
470.705	13539.12
470.91	13070.14
471.115	12943.16
471.32	13242.17
471.525	13076.28
471.73	12908.35
471.935	12742.46
472.139	12609.34
472.344	12531.52
472.549	12570.43
472.754	12228.42
472.959	12087.11
473.164	11757.39
473.369	11568.98
473.574	12029.77
473.778	11974.47
473.983	11745.1
474.188	11452.24
474.393	11239.25
474.598	11476.82
474.802	11026.26
475.007	11018.07
475.212	11249.49
475.417	10688.35
475.621	10684.25
475.826	10653.53
476.031	10397.54
476.235	10231.65
476.44	10469.22
476.645	10248.04
476.849	10288.99
477.054	10024.81
477.259	10211.17
477.463	10174.31
477.668	9809.77
477.872	9865.07
478.077	9590.64
478.282	9371.5
478.486	9389.94
478.691	9510.77
478.895	9199.48
479.1	9273.2
479.304	9381.74
479.509	9052.02
479.713	9305.97
479.918	8980.34
480.122	8642.43
480.326	9076.6
480.531	8908.66
480.735	8707.96
480.94	8802.17
481.144	8990.58
481.348	8576.89
481.553	8839.03
481.757	8558.46
481.961	8855.42
482.166	8755.07
482.37	8527.74
482.574	8527.74
482.778	8515.45
482.983	8879.99
483.187	8787.83
483.391	8548.22
483.595	8515.45
483.8	8365.95
484.004	8478.59
484.208	8695.68
484.412	8667
484.616	8609.66
484.821	8683.39
485.025	8488.83
485.229	8740.73
485.433	8439.68
485.637	8558.46
485.841	8486.78
486.045	8298.37
486.249	8599.42
486.453	8423.3
486.657	8490.88
486.861	8613.76
487.065	8200.07
487.269	8466.3
487.473	8492.93
487.677	8652.67
487.881	8712.06
488.085	8599.42
488.289	8642.43
488.493	8302.47
488.697	8890.23
488.901	8736.63
489.105	8724.35
489.309	8599.42
489.512	8847.22
489.716	8675.2
489.92	8644.48
490.124	8642.43
490.328	8687.48
490.531	8728.44
490.735	8746.87
490.939	8777.59
491.143	8669.05
491.346	8839.03
491.55	8654.72
491.754	8892.28
491.958	8796.03
492.161	8945.53
492.365	8945.53
492.569	9142.13
492.772	9025.4
492.976	9043.83
493.18	9019.25
493.383	9088.89
493.587	9437.04
493.79	9391.98
493.994	9273.2
494.197	9279.35
494.401	9564.01
494.605	9375.6
494.808	9695.08
495.012	9627.5
495.215	9674.6
495.419	9942.89
495.622	9662.32
495.825	9957.22
496.029	10014.57
496.232	10102.63
496.436	10026.85
496.639	10395.49
496.843	10450.78
497.046	10440.54
497.249	10671.97
497.453	10764.12
497.656	10880.86
497.859	10647.39
498.063	10925.91
498.266	11128.66
498.469	11308.88
498.673	11249.49
498.876	11155.29
499.079	11589.46
499.282	11444.05
499.485	11710.29
499.689	11732.81
499.892	11941.71
500.095	11816.78
500.298	12300.1
500.501	12236.61
500.705	12394.31
500.908	12695.36
501.111	12793.66
501.314	12830.52
501.517	13168.44
501.72	12902.2
501.923	13287.22
502.126	13379.38
502.329	13614.9
502.532	13698.86
502.735	14016.3
502.938	14116.65
503.141	14067.5
503.344	14346.02
503.547	14575.39
503.75	14659.36
503.953	14759.71
504.156	15050.52
504.359	14968.6
504.562	15154.97
504.765	15562.51
504.968	15664.91
505.17	15677.2
505.373	15847.18
505.576	16070.41
505.779	16070.41
505.982	16355.08
506.185	16744.19
506.387	16529.16
506.59	16887.55
506.793	17215.23
506.996	17309.43
507.198	17841.9
507.401	17460.98
507.604	17870.58
507.807	18140.91
508.009	18188.01
508.212	18532.07
508.415	18691.81
508.617	18933.47
508.82	18732.77
509.022	18820.83
509.225	19269.34
509.428	19609.3
509.63	20004.56
509.833	19846.87
510.035	20309.71
510.238	20111.05
510.44	20776.64
510.643	20653.76
510.845	20973.25
511.048	20862.66
511.25	21454.52
511.453	21477.05
511.655	22103.73
511.858	21704.37
512.06	21921.46
512.262	22279.85
512.465	22283.95
512.667	22920.87
512.87	23049.89
513.072	23140
513.274	23639.7
513.477	23961.23
513.679	24080.02
513.881	24184.46
514.084	24536.71
514.286	24409.74
514.488	24966.79
514.69	25564.79
514.893	25386.62
515.095	25314.94
515.297	25906.8
515.499	25810.55
515.701	26478.19
515.904	26621.55
516.106	26599.02
516.308	27065.95
516.51	27719.26
516.712	27262.56
516.914	28044.88
517.116	28470.86
517.318	28376.65
517.52	28759.63
517.722	28886.6
517.925	28989
518.127	29718.07
518.329	30101.04
518.531	29654.59
518.733	30570.03
518.935	30770.73
519.136	30869.03
519.338	31409.7
519.54	31352.35
519.742	32312.85
519.944	32026.14
520.146	32632.33
520.348	32701.97
520.55	33023.5
520.752	33308.16
520.954	34252.28
521.155	33793.53
521.357	34502.13
521.559	34680.3
521.761	34760.17
521.963	34813.42
522.164	35544.55
522.366	35675.62
522.568	36021.72
522.77	36269.53
522.971	36754.9
523.173	36373.97
523.375	37236.17
523.576	37303.75
523.778	37522.88
523.98	38131.13
524.181	38129.08
524.383	38247.86
524.584	38890.93
524.786	38714.8
524.988	38913.45
525.189	39789.98
525.391	39714.21
525.592	39777.7
525.794	40496.53
525.995	40363.42
526.197	40809.87
526.398	40652.18
526.6	40904.08
526.801	41543.05
527.003	41575.81
527.204	41739.65
527.406	42259.84
527.607	42247.55
527.808	42702.2
528.01	42511.74
528.211	43062.64
528.412	43726.18
528.614	43382.12
528.815	43451.75
529.016	44049.76
529.218	43552.1
529.419	43599.21
529.62	44004.7
529.822	44332.38
530.023	44393.82
530.224	44256.6
530.425	44731.73
530.626	44469.59
530.828	44606.81
531.029	45704.52
531.23	44950.87
531.431	45458.76
531.632	45669.7
531.833	45649.22
532.035	45974.85
532.236	45608.26
532.437	46095.68
532.638	45665.61
532.839	45843.78
533.04	45864.26
533.241	45888.84
533.442	46896.44
533.643	46329.15
533.844	46122.3
534.045	46574.91
534.246	46566.71
534.447	47183.15
534.648	47193.39
534.849	46908.72
535.05	46767.41
535.251	46859.57
535.451	46773.56
535.652	47097.14
535.853	47189.3
536.054	46630.2
536.255	47416.62
536.456	46869.81
536.657	47660.33
536.857	46687.54
537.058	47480.11
537.259	47600.94
537.46	47648.04
537.66	47033.65
537.861	47310.13
538.062	47117.62
538.263	47277.36
538.463	47260.97
538.664	47672.62
538.865	47500.59
539.065	47674.66
539.266	47134
539.466	47473.96
539.667	47031.6
539.868	47996.2
540.068	47523.11
540.269	47641.9
540.469	47979.81
540.67	47166.77
540.87	47654.18
541.071	47490.35
541.271	47811.88
541.472	47293.74
541.672	47279.41
541.873	47342.89
542.073	46730.55
542.274	48051.49
542.474	47387.95
542.675	47039.79
542.875	48125.22
543.075	47449.39
543.276	46894.39
543.476	47940.9
543.676	47201.58
543.877	47668.52
544.077	47701.29
544.277	47582.51
544.478	47340.85
544.678	47203.63
544.878	47306.03
545.078	47805.73
545.279	47117.62
545.479	47394.09
545.679	47551.79
545.879	47818.02
546.079	47486.25
546.28	47250.74
546.48	47306.03
546.68	47627.56
546.88	47416.62
547.08	47711.53
547.28	47430.96
547.48	47340.85
547.68	47682.86
547.88	46945.59
548.081	47617.32
548.281	47592.75
548.481	47131.95
548.681	47512.88
548.881	47566.12
549.081	47588.65
549.28	47408.43
549.48	47949.09
549.68	47650.09
549.88	48145.7
550.08	46961.97
550.28	47793.45
550.48	47334.7
550.68	47715.62
550.88	47138.1
551.08	47263.02
551.279	47303.98
551.479	47164.72
551.679	47189.3
551.879	47293.74
552.079	47404.33
552.278	47289.65
552.478	46900.53
552.678	47189.3
552.878	47662.38
553.077	47134
553.277	46822.71
553.477	47641.9
553.676	47115.57
553.876	47228.21
554.076	47064.37
554.275	47084.85
554.475	46284.09
554.674	47019.31
554.874	46845.24
555.074	46933.3
555.273	46708.02
555.473	47101.23
555.672	46196.03
555.872	46544.19
556.071	46335.29
556.271	47056.18
556.47	46126.4
556.67	45944.13
556.869	46126.4
557.068	46212.41
557.268	45800.77
557.467	46044.48
557.667	46017.86
557.866	45792.58
558.065	45827.4
558.265	45397.32
558.464	45663.56
558.663	46157.12
558.863	45086.03
559.062	46120.26
559.261	45356.36
559.461	45765.96
559.66	44682.58
559.859	45024.59
560.058	44672.34
560.258	44862.8
560.457	44170.59
560.656	44469.59
560.855	44387.67
561.054	44944.72
561.253	44125.53
561.453	44270.94
561.652	44332.38
561.851	44148.06
562.05	43631.97
562.249	43631.97
562.448	43978.08
562.647	43674.98
562.846	43478.38
563.045	43322.73
563.244	43019.63
563.443	43437.42
563.642	42712.44
563.841	42898.8
564.04	42696.05
564.239	43140.46
564.438	42253.69
564.637	42624.37
564.836	42567.03
565.035	41815.43
565.234	42378.62
565.432	42214.78
565.631	41555.33
565.83	41809.28
566.029	41225.61
566.228	41358.73
566.427	41268.62
566.625	40998.29
566.824	40682.9
567.023	40830.35
567.222	40084.89
567.42	40617.36
567.619	40310.17
567.818	40220.06
568.016	39957.92
568.215	40281.5
568.414	39703.97
568.612	39994.78
568.811	39298.47
569.01	39409.06
569.208	39292.33
569.407	39087.53
569.605	38929.84
569.804	39277.99
570.002	38602.16
570.201	38827.44
570.4	38331.83
570.598	38282.68
570.797	38184.38
570.995	37950.91
571.193	37709.25
571.392	37971.39
571.59	37338.57
571.789	37393.86
571.987	37115.34
572.186	37254.6
572.384	36951.5
572.582	36734.42
572.781	37096.91
572.979	36070.87
573.177	36357.59
573.376	36580.82
573.574	36197.85
573.772	36423.12
573.971	35661.28
574.169	35608.03
574.367	35374.56
574.565	35661.28
574.763	35581.41
574.962	35079.66
575.16	34911.72
575.358	35014.12
575.556	34850.28
575.754	34612.72
575.952	34321.91
576.151	34700.78
576.349	33949.18
576.547	34215.41
576.745	33969.66
576.943	34479.6
577.141	33953.27
577.339	34168.31
577.537	33584.64
577.735	33932.79
577.933	33584.64
578.131	33650.17
578.329	33302.02
578.527	32914.95
578.725	33189.38
578.923	33160.71
579.121	32830.99
579.319	32830.99
579.516	32949.77
579.714	32671.25
579.912	32251.41
580.11	32259.6
580.308	31936.02
580.506	32347.67
580.704	31450.66
580.901	31753.76
581.099	32163.35
581.297	31446.56
581.495	31811.1
581.692	31536.67
581.89	31272.48
582.088	31499.81
582.285	31188.52
582.483	31282.72
582.681	31043.11
582.878	31030.82
583.076	30721.58
583.274	31122.98
583.471	30580.27
583.669	30533.17
583.866	30342.7
584.064	30909.99
584.262	29896.25
584.459	30613.04
584.657	30101.04
584.854	30180.92
585.052	29470.27
585.249	30017.08
585.447	29779.51
585.644	29486.65
585.841	29660.73
586.039	29603.39
586.236	28954.18
586.434	29314.62
586.631	29036.1
586.828	29179.46
587.026	28724.81
587.223	28669.51
587.42	28677.71
587.618	28728.91
587.815	28378.7
588.012	28603.98
588.21	28520.01
588.407	28577.36
588.604	28089.94
588.801	28038.74
588.999	27962.97
589.196	27960.92
589.393	27797.08
589.59	27909.72
589.787	27412.06
589.984	27571.8
590.182	27252.32
590.379	27553.37
590.576	27199.07
590.773	27197.02
590.97	27086.43
591.167	27145.83
591.364	26820.2
591.561	27129.44
591.758	26646.12
591.955	26650.22
592.152	26738.28
592.349	26721.9
592.546	26316.4
592.743	26388.08
592.94	26111.6
593.137	26216.05
593.334	26474.09
593.531	25878.13
593.727	26134.13
593.924	25865.85
594.121	25691.77
594.318	25863.8
594.515	25636.47
594.712	26025.59
594.908	25431.68
595.105	25519.74
595.302	25366.14
595.499	25335.42
595.696	25147.01
595.892	25269.89
596.089	25364.09
596.286	24925.83
596.482	24989.31
596.679	25030.27
596.876	24616.58
597.072	24481.42
597.269	24624.78
597.466	24481.42
597.662	24522.38
597.859	24118.93
598.055	24774.28
598.252	24258.19
598.448	24403.6
598.645	24333.96
598.841	23836.31
599.038	24018.58
599.234	24028.82
599.431	23869.08
599.627	23719.57
599.824	23838.36
600.02	23395.99
600.217	23707.29
600.413	23293.6
600.609	23006.88
600.806	23336.6
601.002	23148.19
601.198	22988.45
601.395	22929.06
601.591	22939.3
601.787	22759.08
601.984	22955.68
602.18	23008.93
602.376	22580.9
602.572	22689.45
602.769	22685.35
602.965	21972.66
603.161	22564.52
603.357	22560.42
603.553	22050.48
603.75	22312.62
603.946	22195.89
604.142	22116.01
604.338	21907.12
604.534	22030
604.73	21534.39
604.926	21569.21
605.122	21829.3
605.318	21366.46
605.514	21401.27
605.71	21165.76
605.906	21270.2
606.102	21401.27
606.298	21153.47
606.494	21192.38
606.69	21034.69
606.886	21270.2
607.082	20987.58
607.278	21024.45
607.474	20596.42
607.67	20956.86
607.866	20772.55
608.062	20958.91
608.257	20868.8
608.453	20915.9
608.649	20565.7
608.845	20510.41
609.041	20385.48
609.236	20403.91
609.432	20342.47
609.628	20362.95
609.824	20270.79
610.019	20215.5
610.215	20170.44
610.411	20489.93
610.606	20217.55
610.802	20002.51
610.998	19977.94
611.193	19979.98
611.389	19861.2
611.584	19549.91
611.78	19668.69
611.976	19572.44
612.171	19947.22
612.367	19640.02
612.562	19369.69
612.758	19238.62
612.953	19318.49
613.149	19496.66
613.344	19467.99
613.539	19597.01
613.735	19302.11
613.93	19498.71
614.126	19304.15
614.321	19355.35
614.517	19429.08
614.712	19240.67
614.907	18874.08
615.103	19109.6
615.298	18927.33
615.493	19019.49
615.688	18677.47
615.884	18990.81
616.079	18501.35
616.274	18466.53
616.47	18921.18
616.665	18775.78
616.86	18450.15
617.055	18380.52
617.25	18353.9
617.445	18646.76
617.641	18382.57
617.836	18544.36
618.031	18015.98
618.226	18249.45
618.421	17981.17
618.616	18200.3
618.811	18013.93
619.006	18124.52
619.201	17802.99
619.396	17921.77
619.591	17729.27
619.786	17682.16
619.981	17448.69
620.176	17456.89
620.371	17446.65
620.566	17438.45
620.761	17430.26
620.956	17405.69
621.151	17123.07
621.346	17250.04
621.541	16766.72
621.735	16819.97
621.93	16672.51
622.125	16965.37
622.32	16649.99
622.515	16545.54
622.709	16666.37
622.904	16533.25
623.099	16439.05
623.294	16447.24
623.488	16129.8
623.683	16168.71
623.878	15709.97
624.072	16099.08
624.267	15879.95
624.462	15755.02
624.656	15628.05
624.851	15521.56
625.046	15456.02
625.24	15501.08
625.435	15089.43
625.629	15232.79
625.824	15433.49
626.018	15302.42
626.213	14837.53
626.407	14931.74
626.602	14913.31
626.796	14692.13
626.991	14743.33
627.185	14417.7
627.38	14892.83
627.574	14376.74
627.768	14413.6
627.963	14192.42
628.157	14386.98
628.352	14071.59
628.546	14100.26
628.74	14341.93
628.935	13811.5
629.129	13717.29
629.323	13870.89
629.517	13713.2
629.712	13813.55
629.906	13852.46
630.1	13422.39
630.294	13346.61
630.489	13399.86
630.683	13696.81
630.877	12967.74
631.071	13158.2
631.265	13307.7
631.459	12818.24
631.653	13002.55
631.848	12934.97
632.042	12777.28
632.236	12779.32
632.43	12697.41
632.624	12726.08
632.818	12531.52
633.012	12558.14
633.206	12607.3
633.4	12312.39
633.594	12064.58
633.788	12382.02
633.982	12093.26
634.176	12209.99
634.369	11992.9
634.563	11788.11
634.757	11929.42
634.951	11843.4
635.145	11997
635.339	11900.75
635.533	11638.61
635.726	11722.57
635.92	11698
636.114	11509.58
636.308	11509.58
636.501	11534.16
636.695	11456.34
636.889	11222.87
637.083	11179.86
637.276	11138.9
637.47	11282.26
637.664	11020.12
637.857	10956.63
638.051	10997.59
638.244	10925.91
638.438	10850.14
638.632	10753.88
638.825	10585.95
639.019	10495.84
639.212	10350.43
639.406	10485.6
639.599	10497.89
639.793	10557.28
639.986	10174.31
640.18	10315.62
640.373	10035.05
640.567	9932.65
640.76	10020.71
640.954	10008.42
641.147	9846.63
641.34	9752.43
641.534	9777
641.727	9955.18
641.92	9961.32
642.114	9897.83
642.307	9762.67
642.5	9531.25
642.694	9443.18
642.887	9420.66
643.08	9535.34
643.273	9256.82
643.467	9447.28
643.66	9416.56
643.853	9248.63
644.046	9107.32
644.239	9191.28
644.432	8996.73
644.626	9021.3
644.819	8957.82
645.012	8691.58
645.205	8963.96
645.398	8867.7
645.591	8824.7
645.784	8839.03
645.977	8527.74
646.17	8691.58
646.363	8597.37
646.556	8615.8
646.749	8447.87
646.942	8513.41
647.135	8400.77
647.328	8501.12
647.521	8400.77
647.714	8402.82
647.907	8320.9
648.099	8241.03
648.292	8359.81
648.485	8302.47
648.678	8005.51
648.871	8101.76
649.064	7890.82
649.256	8181.64
649.449	7964.55
649.642	7864.2
649.835	7757.71
650.027	7843.72
650.22	7669.64
650.413	7919.5
650.605	7696.27
650.798	7741.32
650.991	7585.68
651.183	7507.85
651.376	7616.4
651.568	7585.68
651.761	7573.39
651.954	7597.96
652.146	7380.88
652.339	7489.42
652.531	7376.78
652.724	7356.3
652.916	7335.82
653.109	7378.83
653.301	7413.65
653.494	7315.34
653.686	6950.81
653.879	7157.65
654.071	7073.68
654.263	6815.64
654.456	7149.46
654.648	7139.22
654.84	6856.6
655.033	7016.34
655.225	6891.41
655.417	6973.33
655.61	6770.58
655.802	6705.05
655.994	6881.17
656.186	6967.19
656.379	6580.12
656.571	6682.52
656.763	6483.87
656.955	6807.45
657.148	6649.75
657.34	6643.61
657.532	6447.01
657.724	6594.46
657.916	6442.91
658.108	6277.02
658.3	6530.97
658.492	6346.66
658.684	6225.82
658.876	6406.05
659.068	6272.93
659.26	6213.54
659.452	6274.98
659.644	6242.21
659.836	5992.36
660.028	6217.63
660.22	6107.04
660.412	6037.41
660.604	6078.37
660.796	5943.21
660.988	6156.19
661.18	6055.84
661.372	5951.4
661.563	6002.6
661.755	5904.29
661.947	5978.02
662.139	6057.89
662.331	5773.22
662.522	5812.14
662.714	5879.72
662.906	5889.96
663.097	5846.95
663.289	5681.07
663.481	5664.68
663.673	5730.22
663.864	5875.62
664.056	5586.86
664.247	5652.39
664.439	5726.12
664.631	5603.24
664.822	5658.54
665.014	5609.39
665.205	5410.73
665.397	5398.45
665.588	5603.24
665.78	5390.25
665.971	5550
666.163	5523.37
666.354	5527.47
666.546	5367.73
666.737	5482.41
666.929	5441.45
667.12	5423.02
667.311	5392.3
667.503	5400.49
667.694	5423.02
667.885	5400.49
668.077	5371.82
668.268	5289.9
668.459	5550
668.651	5177.26
668.842	5328.81
669.033	5210.03
669.224	5259.18
669.416	5517.23
669.607	5316.53
669.798	5314.48
669.989	5312.43
670.18	5140.4
670.371	5242.8
670.563	5308.33
670.754	5339.05
670.945	5318.57
671.136	5212.08
671.327	5261.23
671.518	5363.63
671.709	5197.74
671.9	5271.47
672.091	5402.54
672.282	5234.61
672.473	5445.55
672.664	5154.74
672.855	5281.71
673.046	5496.75
673.237	5171.12
673.428	5212.08
673.619	5349.29
673.809	5169.07
674	5291.95
674.191	5365.68
674.382	5263.28
674.573	5201.84
674.764	5322.67
674.954	5248.94
675.145	5201.84
675.336	5343.15
675.527	5300.14
675.717	5250.99
675.908	5154.74
676.099	5279.66
676.289	5476.27
676.48	5433.26
676.671	5359.53
676.861	5451.69
677.052	5345.2
677.243	5255.09
677.433	5334.96
677.624	5304.24
677.814	5347.25
678.005	5361.58
678.195	5359.53
678.386	5638.06
678.576	5447.6
678.767	5466.03
678.957	5511.08
679.148	5463.98
679.338	5478.32
679.529	5574.57
679.719	5435.31
679.909	5754.79
680.1	5521.32
680.29	5625.77
680.481	5613.48
680.671	5644.2
680.861	5701.54
681.052	5681.07
681.242	5621.67
681.432	5863.33
681.622	5625.77
681.813	5699.5
682.003	5697.45
682.193	5953.45
682.383	5814.18
682.573	5855.14
682.764	5697.45
682.954	5922.73
683.144	5877.67
683.334	5732.26
683.524	5795.75
683.714	5965.73
683.904	5775.27
684.094	5912.49
684.284	5932.97
684.474	5969.83
684.664	5656.49
684.854	5885.86
685.044	5736.36
685.234	5681.07
685.424	5752.74
685.614	5953.45
685.804	5765.03
685.994	5715.88
686.184	6000.55
686.374	5738.41
686.564	5719.98
686.753	5816.23
686.943	5728.17
687.133	5701.54
687.323	5705.64
687.513	5715.88
687.702	5611.43
687.892	5623.72
688.082	5527.47
688.272	5550
688.461	5584.81
688.651	5719.98
688.841	5660.59
689.03	5642.15
689.22	5537.71
689.41	5390.25
689.599	5474.22
689.789	5601.19
689.979	5427.12
690.168	5373.87
690.358	5402.54
690.547	5195.7
690.737	5324.72
690.926	5224.37
691.116	5287.86
691.305	5205.94
691.495	5150.64
691.684	5054.39
691.874	5279.66
692.063	5191.6
692.252	5142.45
692.442	5160.88
692.631	5050.29
692.82	5025.72
693.01	5171.12
693.199	4954.04
693.388	4931.51
693.578	4956.08
693.767	5023.67
693.956	4890.55
694.146	4849.59
694.335	4857.78
694.524	4822.97
694.713	5046.19
694.902	4872.12
695.092	4972.47
695.281	4900.79
695.47	4753.34
695.659	4782.01
695.848	4857.78
696.037	4718.52
696.226	4667.32
696.415	4818.87
696.604	4831.16
696.793	4794.29
696.982	4784.05
697.171	4833.21
697.36	4792.25
697.549	4825.01
697.738	4620.22
697.927	4743.1
698.116	4806.58
698.305	4730.81
698.494	4865.97
698.683	4644.79
698.872	4784.05
699.061	4732.86
699.25	4591.55
699.438	4669.37
699.627	4775.86
699.816	4915.12
700.005	4659.13
700.193	4839.35
700.382	4812.73
700.571	4812.73
700.76	4716.47
700.948	4767.67
701.137	4751.29
701.326	4925.36
701.514	4706.23
701.703	4741.05
701.892	4700.09
702.08	4820.92
702.269	4808.63
702.457	4743.1
702.646	4820.92
702.834	4710.33
703.023	4849.59
703.212	4833.21
703.4	4734.9
703.589	4665.27
703.777	4939.7
703.965	4855.73
704.154	4843.45
704.342	4771.77
704.531	4880.31
704.719	4954.04
704.907	5015.48
705.096	4863.93
705.284	4937.65
705.472	4954.04
705.661	4890.55
705.849	4876.21
706.037	5070.77
706.226	4825.01
706.414	4986.8
706.602	4980.66
706.79	5068.72
706.979	4962.23
707.167	5031.86
707.355	5111.73
707.543	5195.7
707.731	5103.54
707.919	5001.14
708.107	5023.67
708.296	5216.18
708.484	5117.87
708.672	5101.49
708.86	5144.5
709.048	5119.92
709.236	5095.35
709.424	5306.29
709.612	5234.61
709.8	5167.03
709.988	5169.07
710.176	5191.6
710.364	5210.03
710.551	5314.48
710.739	5337.01
710.927	5277.62
711.115	5207.98
711.303	5431.21
711.491	5289.9
711.679	5359.53
711.866	5205.94
712.054	5476.27
712.242	5416.88
712.43	5539.76
712.617	5576.62
712.805	5390.25
712.993	5490.6
713.181	5423.02
713.368	5541.8
713.556	5627.82
713.744	5517.23
713.931	5664.68
714.119	5521.32
714.306	5697.45
714.494	5656.49
714.682	5586.86
714.869	5601.19
715.057	5773.22
715.244	5494.7
715.432	5791.66
715.619	5826.47
715.807	5779.37
715.994	5926.82
716.182	5609.39
716.369	5840.81
716.556	5855.14
716.744	5814.18
716.931	5945.25
717.119	5795.75
717.306	6027.17
717.493	5746.6
717.681	5963.68
717.868	6076.32
718.055	5973.92
718.242	6051.75
718.43	6043.56
718.617	5955.49
718.804	6086.56
718.991	6078.37
719.179	6131.62
719.366	6053.8
719.553	6164.39
719.74	6037.41
719.927	6135.71
720.114	5951.4
720.301	6193.06
720.488	6223.78
720.676	6225.82
720.863	6215.59
721.05	6283.17
721.237	6279.07
721.424	6225.82
721.611	6221.73
721.798	6401.95
721.985	6201.25
722.172	6311.84
722.358	6293.41
722.545	6295.46
722.732	6377.37
722.919	6354.85
723.106	6414.24
723.293	6387.61
723.48	6657.95
723.667	6516.64
723.853	6543.26
724.04	6526.88
724.227	6336.42
724.414	6516.64
724.6	6373.28
724.787	6512.54
724.974	6516.64
725.161	6528.92
725.347	6371.23
725.534	6573.98
725.72	6567.84
725.907	6557.6
726.094	6748.06
726.28	6711.19
726.467	6653.85
726.653	6412.19
726.84	6766.49
727.027	6789.02
727.213	6596.51
727.4	6733.72
727.586	6584.22
727.773	6797.21
727.959	6672.28
728.145	6780.82
728.332	6741.91
728.518	6664.09
728.705	6754.2
728.891	6893.46
729.077	6829.98
729.264	6743.96
729.45	6741.91
729.636	6825.88
729.823	6743.96
730.009	6758.3
730.195	6975.38
730.382	6897.56
730.568	6893.46
730.754	6715.29
730.94	6856.6
731.126	6821.78
731.313	6850.46
731.499	6868.89
731.685	7034.77
731.871	6887.32
732.057	7026.58
732.243	6965.14
732.429	6897.56
732.615	6936.47
732.801	7045.01
732.987	6975.38
733.173	6803.35
733.359	7061.4
733.545	7026.58
733.731	6807.45
733.917	6913.94
734.103	6989.72
734.289	7049.11
734.475	6928.28
734.661	6846.36
734.847	7045.01
735.033	7038.87
735.219	6842.26
735.404	7049.11
735.59	6815.64
735.776	6879.13
735.962	7014.29
736.148	7157.65
736.333	6913.94
736.519	6875.03
736.705	7014.29
736.89	6915.99
737.076	7010.2
737.262	6881.17
737.447	7042.96
737.633	6854.55
737.819	6832.02
738.004	6915.99
738.19	6877.08
738.375	6860.7
738.561	7047.06
738.747	6895.51
738.932	6746.01
739.118	6832.02
739.303	6907.8
739.489	6881.17
739.674	6811.54
739.859	6905.75
740.045	6840.22
740.23	6746.01
740.416	6432.67
740.601	6737.82
740.786	6743.96
740.972	6778.78
741.157	6823.83
741.342	6530.97
741.528	6668.19
741.713	6748.06
741.898	6565.79
742.084	6625.18
742.269	6526.88
742.454	6561.69
742.639	6627.23
742.824	6438.81
743.01	6541.21
743.195	6635.42
743.38	6573.98
743.565	6594.46
743.75	6332.32
743.935	6350.75
744.12	6371.23
744.305	6264.74
744.49	6283.17
744.675	6381.47
744.86	6279.07
745.045	6242.21
745.23	6201.25
745.415	6166.43
745.6	6154.15
745.785	6109.09
745.97	6088.61
746.155	6125.47
746.34	6082.47
746.525	5973.92
746.71	5998.5
746.895	5830.57
747.079	5842.85
747.264	5699.5
747.449	5994.4
747.634	5676.97
747.819	5701.54
748.003	5580.71
748.188	5767.08
748.373	5603.24
748.557	5599.15
748.742	5648.3
748.927	5470.12
749.111	5570.47
749.296	5607.34
749.481	5529.52
749.665	5437.36
749.85	5443.5
750.034	5320.62
750.219	5382.06
750.404	5304.24
750.588	5240.75
750.773	5152.69
750.957	5115.83
751.141	5072.82
751.326	5214.13
751.51	5126.07
751.695	4984.76
751.879	4782.01
752.064	5152.69
752.248	4876.21
752.432	4911.03
752.617	4812.73
752.801	4841.4
752.985	4736.95
753.17	4818.87
753.354	4734.9
753.538	4765.62
753.722	4562.87
753.907	4552.63
754.091	4480.96
754.275	4468.67
754.459	4419.52
754.643	4528.06
754.828	4358.08
755.012	4356.03
755.196	4245.44
755.38	4304.83
755.564	4290.49
755.748	4149.18
755.932	4313.02
756.116	4071.36
756.3	4222.91
756.484	4222.91
756.668	4087.75
756.852	4100.03
757.036	4091.84
757.22	3995.59
757.404	4102.08
757.588	4028.35
757.772	3854.28
757.956	3844.04
758.14	3895.24
758.323	3772.36
758.507	3940.29
758.691	3760.07
758.875	3790.79
759.059	3745.73
759.242	3841.99
759.426	3585.99
759.61	3606.47
759.794	3624.9
759.977	3684.3
760.161	3626.95
760.345	3512.27
760.528	3559.37
760.712	3379.15
760.895	3659.72
761.079	3555.27
761.263	3448.78
761.446	3426.25
761.63	3399.63
761.813	3428.3
761.997	3274.7
762.18	3313.61
762.364	3463.12
762.547	3231.69
762.731	3184.59
762.914	3241.93
763.098	3121.1
763.281	3166.16
763.464	3299.28
763.648	3301.33
763.831	3133.39
764.015	3178.45
764.198	3119.06
764.381	3092.43
764.564	3100.62
764.748	3092.43
764.931	3112.91
765.114	2967.51
765.297	3090.38
765.481	3035.09
765.664	3020.75
765.847	3055.57
766.03	2996.18
766.213	2928.6
766.397	2990.03
766.58	2836.44
766.763	3006.42
766.946	2830.29
767.129	2908.12
767.312	2848.72
767.495	2801.62
767.678	2707.41
767.861	2744.28
768.044	2824.15
768.227	2848.72
768.41	2699.22
768.593	2846.68
768.776	2871.25
768.959	2684.89
769.142	2744.28
769.324	2756.57
769.507	2691.03
769.69	2770.9
769.873	2637.78
770.056	2625.5
770.239	2703.32
770.421	2615.26
770.604	2580.44
770.787	2547.67
770.97	2625.5
771.152	2611.16
771.335	2621.4
771.518	2527.19
771.7	2553.82
771.883	2484.19
772.066	2533.34
772.248	2346.97
772.431	2486.23
772.613	2308.06
772.796	2367.45
772.978	2516.95
773.161	2510.81
773.343	2383.84
773.526	2326.49
773.708	2244.57
773.891	2125.79
774.073	2220
774.256	2170.85
774.438	2162.65
774.621	2144.22
774.803	2166.75
774.985	2189.28
775.168	2203.61
775.35	2220
775.532	2101.22
775.715	2052.06
775.897	2125.79
776.079	2052.06
776.261	2101.22
776.444	2007.01
776.626	2007.01
776.808	2045.92
776.99	1982.43
777.173	1984.48
777.355	2025.44
777.537	2029.54
777.719	1945.57
777.901	1880.04
778.083	1990.63
778.265	1855.46
778.447	1937.38
778.629	1828.84
778.811	1757.16
778.993	1818.6
779.175	1871.84
779.357	1794.02
779.539	1822.69
779.721	1699.81
779.903	1902.56
780.085	1730.53
780.267	1671.14
780.449	1783.78
780.631	1613.8
780.812	1683.43
780.994	1714.15
781.176	1617.9
781.358	1712.1
781.54	1556.46
781.721	1523.69
781.903	1550.31
782.085	1533.93
782.267	1527.78
782.448	1447.91
782.63	1568.74
782.812	1445.87
782.993	1583.08
783.175	1628.14
783.357	1431.53
783.538	1413.1
783.72	1495.02
783.901	1464.3
784.083	1421.29
784.264	1359.85
784.446	1366
784.627	1341.42
784.809	1458.15
784.99	1409
785.172	1406.95
785.353	1304.56
785.535	1320.94
785.716	1228.78
785.897	1259.5
786.079	1294.32
786.26	1249.26
786.441	1267.69
786.623	1218.54
786.804	1236.97
786.985	1271.79
787.167	1212.4
787.348	1249.26
787.529	1167.34
787.71	1327.08
787.891	1169.39
788.073	1150.96
788.254	1116.14
788.435	1052.66
788.616	1077.23
788.797	1153.01
788.978	1163.25
789.159	1107.95
789.34	1097.71
789.522	1093.62
789.703	1153.01
789.884	1048.56
790.065	1107.95
790.246	1126.38
790.427	1005.55
790.607	1138.67
790.788	1042.42
790.969	972.79
791.15	1062.9
791.331	950.26
791.512	1062.9
791.693	954.35
791.874	978.93
792.054	1110
792.235	1030.13
792.416	983.02
792.597	870.39
792.778	958.45
792.958	976.88
793.139	925.68
793.32	948.21
793.5	946.16
793.681	980.98
793.862	841.72
794.042	921.59
794.223	829.43
794.404	927.73
794.584	759.8
794.765	862.19
794.945	854
795.126	811
795.306	841.72
795.487	778.23
795.667	827.38
795.848	835.57
796.028	829.43
796.209	864.24
796.389	835.57
796.57	843.76
796.75	839.67
796.93	821.24
797.111	751.6
797.291	765.94
797.471	837.62
797.652	759.8
797.832	651.25
798.012	847.86
798.192	749.56
798.373	759.8
798.553	704.5
798.733	774.13
798.913	776.18
799.093	737.27
799.274	778.23
799.454	862.19
799.634	712.69
799.814	727.03
799.994	776.18
800.174	720.88
800.354	647.16
800.534	708.6
800.714	808.95
800.894	727.03
801.074	651.25
801.254	684.02
801.434	753.65
801.614	675.83
801.794	684.02
801.974	1255.4
802.154	778.23
802.334	647.16
802.514	643.06
802.693	577.53
802.873	686.07
803.053	614.39
803.233	684.02
803.413	669.69
803.592	669.69
803.772	624.63
803.952	595.96
804.131	565.24
804.311	641.01
804.491	614.39
804.67	589.82
804.85	559.1
805.03	557.05
805.209	663.54
805.389	624.63
805.568	548.86
805.748	585.72
805.928	638.97
806.107	567.29
806.287	587.77
806.466	561.14
806.646	557.05
806.825	540.66
807.004	546.81
807.184	495.61
807.363	540.66
807.543	454.65
807.722	542.71
807.901	579.58
808.081	561.14
808.26	546.81
808.439	503.8
808.619	507.9
808.798	448.51
808.977	493.56
809.156	589.82
809.336	507.9
809.515	516.09
809.694	491.51
809.873	491.51
810.052	538.62
810.231	581.62
810.411	507.9
810.59	522.23
810.769	448.51
810.948	473.08
811.127	466.94
811.306	368.63
811.485	471.03
811.664	454.65
811.843	511.99
812.022	495.61
812.201	405.5
812.38	518.14
812.559	491.51
812.737	522.23
812.916	434.17
813.095	393.21
813.274	417.79
813.453	450.55
813.632	399.35
813.811	468.98
813.989	409.59
814.168	442.36
814.347	356.35
814.526	393.21
814.704	511.99
814.883	493.56
815.062	466.94
815.24	413.69
815.419	356.35
815.598	393.21
815.776	360.44
815.955	475.13
816.133	356.35
816.312	397.31
816.49	352.25
816.669	391.16
816.847	466.94
817.026	389.11
817.204	376.83
817.383	327.67
817.561	380.92
817.74	358.39
817.918	425.98
818.097	307.2
818.275	380.92
818.453	387.07
818.632	315.39
818.81	362.49
818.988	350.2
819.167	344.06
819.345	372.73
819.523	409.59
819.701	323.58
819.879	315.39
820.058	370.68
820.236	282.62
820.414	389.11
820.592	350.2
820.77	333.82
820.948	415.74
821.127	235.52
821.305	346.11
821.483	401.4
821.661	395.26
821.839	405.5
822.017	348.15
822.195	311.29
822.373	354.3
822.551	319.48
822.729	331.77
822.907	327.67
823.085	315.39
823.262	335.87
823.44	227.32
823.618	305.15
823.796	393.21
823.974	294.91
824.152	311.29
824.329	333.82
824.507	284.67
824.685	319.48
824.863	290.81
825.04	290.81
825.218	348.15
825.396	274.43
825.574	342.01
825.751	253.95
825.929	303.1
826.107	204.8
826.284	296.96
826.462	352.25
826.639	256
826.817	245.76
826.994	342.01
827.172	192.51
827.349	317.44
827.527	270.33
827.704	319.48
827.882	301.05
828.059	319.48
828.237	294.91
828.414	284.67
828.591	262.14
828.769	270.33
828.946	188.41
829.124	385.02
829.301	290.81
829.478	270.33
829.655	311.29
829.833	212.99
830.01	241.66
830.187	276.48
830.364	266.24
830.542	253.95
830.719	307.2
830.896	239.61
831.073	249.85
831.25	253.95
831.427	278.52
831.604	196.61
831.782	169.98
831.959	225.28
832.136	219.13
832.313	249.85
832.49	186.37
832.667	274.43
832.844	217.08
833.021	280.57
833.198	180.22
833.374	223.23
833.551	186.37
833.728	227.32
833.905	196.61
834.082	202.75
834.259	253.95
834.436	180.22
834.612	237.56
834.789	243.71
834.966	237.56
835.143	208.89
835.319	126.97
835.496	131.07
835.673	192.51
835.85	157.69
836.026	176.13
836.203	296.96
836.38	210.94
836.556	180.22
836.733	217.08
836.909	237.56
837.086	143.36
837.262	122.88
837.439	186.37
837.616	221.18
837.792	122.88
837.968	159.74
838.145	133.12
838.321	237.56
838.498	178.17
838.674	157.69
838.851	129.02
839.027	188.41
839.203	137.21
839.38	131.07
839.556	237.56
839.732	212.99
839.909	188.41
840.085	212.99
840.261	208.89
840.437	131.07
840.614	184.32
840.79	196.61
840.966	151.55
841.142	178.17
841.318	161.79
841.494	215.04
841.671	221.18
841.847	92.16
842.023	122.88
842.199	131.07
842.375	212.99
842.551	120.83
842.727	114.69
842.903	200.7
843.079	131.07
843.255	249.85
843.431	126.97
843.607	143.36
843.783	116.73
843.959	143.36
844.134	159.74
844.31	235.52
844.486	77.82
844.662	98.3
844.838	145.41
845.013	155.65
845.189	229.37
845.365	129.02
845.541	88.06
845.716	102.4
845.892	212.99
846.068	83.97
846.244	147.45
846.419	159.74
846.595	124.93
846.77	63.49
846.946	131.07
847.122	159.74
847.297	131.07
847.473	165.89
847.648	73.73
847.824	174.08
847.999	34.82
848.175	129.02
848.35	102.4
848.526	163.84
848.701	157.69
848.876	194.56
849.052	161.79
849.227	153.6
849.403	96.25
849.578	104.45
849.753	147.45
849.929	102.4
850.104	67.58
850.279	145.41
850.454	81.92
850.63	151.55
850.805	155.65
850.98	172.03
851.155	114.69
851.33	147.45
851.505	-8.19
851.681	157.69
851.856	38.91
852.031	110.59
852.206	129.02
852.381	149.5
852.556	94.21
852.731	149.5
852.906	139.26
853.081	81.92
853.256	149.5
853.431	129.02
853.606	81.92
853.781	88.06
853.956	34.82
854.131	16.38
854.305	55.3
854.48	71.68
854.655	57.34
854.83	112.64
855.005	122.88
855.18	94.21
855.354	65.54
855.529	122.88
855.704	92.16
855.879	94.21
856.053	133.12
856.228	110.59
856.403	114.69
856.577	108.54
856.752	22.53
856.926	12.29
857.101	79.87
857.276	14.34
857.45	88.06
857.625	114.69
857.799	57.34
857.974	94.21
858.148	69.63
858.323	81.92
858.497	71.68
858.672	6.14
858.846	122.88
859.02	63.49
859.195	90.11
859.369	38.91
859.543	59.39
859.718	112.64
859.892	59.39
860.066	81.92
860.241	90.11
860.415	69.63
860.589	43.01
860.763	63.49
860.938	106.49
861.112	159.74
861.286	57.34
861.46	40.96
861.634	8.19
861.808	90.11
861.982	34.82
862.157	28.67
862.331	65.54
862.505	79.87
862.679	137.21
862.853	59.39
863.027	20.48
863.201	135.17
863.375	-14.34
863.549	4.1
863.722	24.58
863.896	122.88
864.07	34.82
864.244	28.67
864.418	38.91
864.592	43.01
864.766	106.49
864.939	-6.14
865.113	30.72
865.287	100.35
865.461	61.44
865.634	-8.19
865.808	96.25
865.982	28.67
866.156	-6.14
866.329	-28.67
866.503	102.4
866.676	24.58
866.85	71.68
867.024	77.82
867.197	100.35
867.371	47.1
867.544	57.34
867.718	79.87
867.891	69.63
868.065	-61.44
868.238	-10.24
868.412	155.65
868.585	32.77
868.759	57.34
868.932	69.63
869.105	12.29
869.279	-12.29
869.452	-10.24
869.625	81.92
869.799	106.49
869.972	6.14
870.145	36.86
870.319	122.88
870.492	67.58
870.665	53.25
870.838	55.3
871.011	-67.58
871.185	-8.19
871.358	88.06
871.531	94.21
871.704	4.1
871.877	83.97
872.05	57.34
872.223	24.58
872.396	100.35
872.569	71.68
872.742	-8.19
872.915	114.69
873.088	61.44
873.261	65.54
873.434	129.02
873.607	61.44
873.78	81.92
873.953	43.01
874.126	-10.24
874.299	88.06
874.471	47.1
874.644	10.24
874.817	65.54
874.99	141.31
875.163	16.38
875.335	75.77
875.508	40.96
875.681	88.06
875.853	-8.19
876.026	34.82
876.199	49.15
876.371	49.15
876.544	-8.19
876.717	22.53
876.889	4.1
877.062	57.34
877.234	24.58
877.407	0
877.579	36.86
877.752	6.14
877.924	106.49
878.097	65.54
878.269	6.14
878.442	0
878.614	49.15
878.786	57.34
878.959	-8.19
879.131	65.54
879.303	51.2
879.476	36.86
879.648	63.49
879.82	55.3
879.993	24.58
880.165	-32.77
880.337	-24.58
880.509	16.38
880.681	4.1
880.854	24.58
881.026	40.96
881.198	96.25
881.37	36.86
881.542	26.62
881.714	12.29
881.886	-38.91
882.058	2.05
882.23	38.91
882.402	28.67
882.574	43.01
882.746	51.2
882.918	55.3
883.09	16.38
883.262	30.72
883.434	114.69
883.606	2.05
883.778	32.77
883.95	180.22
884.122	22.53
884.293	-2.05
884.465	65.54
884.637	90.11
884.809	-40.96
884.98	92.16
885.152	47.1
885.324	51.2
885.496	-28.67
885.667	18.43
885.839	12.29
886.011	38.91
886.182	53.25
886.354	137.21
886.525	65.54
886.697	6.14
886.869	-2.05
887.04	34.82
887.212	75.77
887.383	67.58
887.555	-10.24
887.726	129.02
887.897	57.34
888.069	28.67
888.24	65.54
888.412	22.53
888.583	98.3
888.754	20.48
888.926	32.77
889.097	73.73
889.268	-49.15
889.44	116.73
889.611	8.19
889.782	0
889.953	38.91
890.125	59.39
890.296	4.1
890.467	73.73
890.638	88.06
890.809	83.97
890.98	-53.25
891.151	14.34
891.323	69.63
891.494	38.91
891.665	-12.29
891.836	18.43
892.007	20.48
892.178	90.11
892.349	69.63
892.52	-10.24
892.691	65.54
892.862	-18.43
893.032	-6.14
893.203	28.67
893.374	90.11
893.545	57.34
893.716	-2.05
893.887	71.68
894.057	73.73
894.228	45.06
894.399	-16.38
894.57	96.25
894.74	55.3
894.911	47.1
895.082	6.14
895.253	40.96
895.423	24.58
895.594	12.29
895.764	69.63
895.935	-34.82
896.106	34.82
896.276	28.67
896.447	20.48
896.617	59.39
896.788	-32.77
896.958	88.06
897.129	38.91
897.299	16.38
897.47	0
897.64	61.44
897.81	34.82
897.981	-10.24
898.151	10.24
898.322	45.06
898.492	32.77
898.662	47.1
898.832	12.29
899.003	-24.58
899.173	59.39
899.343	28.67
899.513	6.14
