Data from USB4F104151__98__11-32-15-850.txt Node

Date: Fri Mar 14 11:32:15 EDT 2025
User: louis
Spectrometer: USB4F10415
Trigger mode: 4
Integration Time (sec): 5.000000E-2
Scans to average: 1
Electric dark correction enabled: true
Nonlinearity correction enabled: false
Boxcar width: 0
XAxis mode: Wavelengths
Number of Pixels in Spectrum: 3648
>>>>>Begin Spectral Data<<<<<
178.204	-99.84
178.424	-99.84
178.644	-99.84
178.864	-159.23
179.084	-114.17
179.304	-1.54
179.524	-15.87
179.744	33.28
179.964	84.48
180.184	-50.69
180.404	-3.58
180.624	-46.59
180.844	82.43
181.064	-77.31
181.283	29.18
181.503	-58.88
181.723	25.09
181.943	-38.4
182.163	66.05
182.383	-95.74
182.602	6.66
182.822	20.99
183.042	41.47
183.262	-81.41
183.482	16.9
183.701	6.66
183.921	0.51
184.141	-73.21
184.361	18.94
184.58	47.62
184.8	16.9
185.02	6.66
185.239	86.53
185.459	57.86
185.679	61.95
185.898	-65.02
186.118	-3.58
186.338	31.23
186.557	72.19
186.777	-44.54
186.997	61.95
187.216	29.18
187.436	31.23
187.655	33.28
187.875	31.23
188.095	4.61
188.314	-1.54
188.534	25.09
188.753	-40.45
188.973	70.14
189.192	84.48
189.412	64
189.631	64
189.851	-48.64
190.07	55.81
190.29	-1.54
190.509	-42.5
190.729	-19.97
190.948	57.86
191.168	215.55
191.387	90.62
191.607	14.85
191.826	43.52
192.045	-7.68
192.265	90.62
192.484	12.8
192.704	41.47
192.923	-42.5
193.142	84.48
193.362	82.43
193.581	16.9
193.8	90.62
194.02	98.81
194.239	8.7
194.458	-32.26
194.678	-11.78
194.897	6.66
195.116	-36.35
195.335	-3.58
195.555	-11.78
195.774	0.51
195.993	57.86
196.212	45.57
196.432	16.9
196.651	14.85
196.87	-13.82
197.089	78.33
197.308	61.95
197.528	72.19
197.747	-11.78
197.966	86.53
198.185	25.09
198.404	-3.58
198.623	-28.16
198.842	16.9
199.062	-15.87
199.281	31.23
199.5	-126.46
199.719	31.23
199.938	14.85
200.157	59.9
200.376	-19.97
200.595	-7.68
200.814	64
201.033	18.94
201.252	12.8
201.471	64
201.69	31.23
201.909	35.33
202.128	-58.88
202.347	10.75
202.566	45.57
202.785	-69.12
203.004	68.09
203.223	137.73
203.442	-50.69
203.661	-15.87
203.879	-28.16
204.098	8.7
204.317	45.57
204.536	-19.97
204.755	-91.65
204.974	-1.54
205.193	47.62
205.411	72.19
205.63	33.28
205.849	-15.87
206.068	-65.02
206.287	-19.97
206.505	-32.26
206.724	-58.88
206.943	-3.58
207.162	4.61
207.381	61.95
207.599	45.57
207.818	-9.73
208.037	70.14
208.255	18.94
208.474	80.38
208.693	55.81
208.911	61.95
209.13	39.42
209.349	37.38
209.567	59.9
209.786	98.81
210.005	35.33
210.223	-32.26
210.442	-36.35
210.661	43.52
210.879	45.57
211.098	-1.54
211.316	123.39
211.535	59.9
211.753	-5.63
211.972	45.57
212.191	4.61
212.409	107.01
212.628	59.9
212.846	25.09
213.065	37.38
213.283	-15.87
213.502	-48.64
213.72	8.7
213.938	-1.54
214.157	12.8
214.375	82.43
214.594	33.28
214.812	55.81
215.031	-1.54
215.249	76.29
215.467	55.81
215.686	-1.54
215.904	23.04
216.122	-34.3
216.341	-19.97
216.559	39.42
216.778	35.33
216.996	74.24
217.214	-38.4
217.432	-48.64
217.651	-13.82
217.869	31.23
218.087	66.05
218.306	8.7
218.524	37.38
218.742	4.61
218.96	64
219.179	-40.45
219.397	-36.35
219.615	72.19
219.833	12.8
220.051	10.75
220.27	84.48
220.488	-34.3
220.706	-3.58
220.924	23.04
221.142	20.99
221.36	20.99
221.578	76.29
221.796	-99.84
222.015	4.61
222.233	16.9
222.451	6.66
222.669	10.75
222.887	86.53
223.105	-9.73
223.323	-9.73
223.541	-85.5
223.759	-15.87
223.977	29.18
224.195	29.18
224.413	88.57
224.631	33.28
224.849	-19.97
225.067	127.49
225.285	-65.02
225.503	25.09
225.721	-13.82
225.939	98.81
226.157	107.01
226.375	33.28
226.592	-15.87
226.81	-1.54
227.028	43.52
227.246	113.15
227.464	-7.68
227.682	4.61
227.9	-19.97
228.117	57.86
228.335	-24.06
228.553	29.18
228.771	45.57
228.989	12.8
229.206	14.85
229.424	-7.68
229.642	4.61
229.86	6.66
230.077	43.52
230.295	-32.26
230.513	37.38
230.731	47.62
230.948	80.38
231.166	31.23
231.384	-1.54
231.601	16.9
231.819	94.72
232.037	-3.58
232.254	-1.54
232.472	10.75
232.689	-7.68
232.907	53.76
233.125	23.04
233.342	-28.16
233.56	-17.92
233.777	-32.26
233.995	2.56
234.213	35.33
234.43	41.47
234.648	-118.27
234.865	18.94
235.083	0.51
235.3	-30.21
235.518	18.94
235.735	29.18
235.953	25.09
236.17	37.38
236.388	55.81
236.605	33.28
236.822	47.62
237.04	45.57
237.257	41.47
237.475	-34.3
237.692	23.04
237.909	12.8
238.127	-44.54
238.344	-26.11
238.562	4.61
238.779	-28.16
238.996	16.9
239.214	57.86
239.431	94.72
239.648	8.7
239.865	41.47
240.083	39.42
240.3	-15.87
240.517	12.8
240.735	51.71
240.952	51.71
241.169	55.81
241.386	39.42
241.603	20.99
241.821	-22.02
242.038	57.86
242.255	-34.3
242.472	-1.54
242.689	-32.26
242.907	72.19
243.124	61.95
243.341	0.51
243.558	-19.97
243.775	-19.97
243.992	-1.54
244.209	31.23
244.426	88.57
244.643	82.43
244.86	-17.92
245.078	39.42
245.295	23.04
245.512	78.33
245.729	16.9
245.946	16.9
246.163	49.66
246.38	-1.54
246.597	14.85
246.814	-3.58
247.031	20.99
247.248	29.18
247.464	29.18
247.681	-15.87
247.898	45.57
248.115	-26.11
248.332	16.9
248.549	29.18
248.766	45.57
248.983	74.24
249.2	23.04
249.417	133.63
249.633	-22.02
249.85	6.66
250.067	10.75
250.284	29.18
250.501	-17.92
250.717	2.56
250.934	-3.58
251.151	-19.97
251.368	-60.93
251.585	68.09
251.801	-3.58
252.018	8.7
252.235	53.76
252.451	-83.45
252.668	-15.87
252.885	20.99
253.102	0.51
253.318	45.57
253.535	-28.16
253.752	49.66
253.968	16.9
254.185	23.04
254.401	0.51
254.618	45.57
254.835	-11.78
255.051	82.43
255.268	0.51
255.484	27.14
255.701	12.8
255.917	53.76
256.134	4.61
256.351	27.14
256.567	-32.26
256.784	107.01
257	-7.68
257.217	-62.98
257.433	14.85
257.65	39.42
257.866	51.71
258.082	-67.07
258.299	41.47
258.515	117.25
258.732	-1.54
258.948	2.56
259.165	33.28
259.381	14.85
259.597	33.28
259.814	41.47
260.03	29.18
260.246	-32.26
260.463	12.8
260.679	10.75
260.895	102.91
261.112	55.81
261.328	8.7
261.544	8.7
261.761	61.95
261.977	-5.63
262.193	-30.21
262.409	33.28
262.626	55.81
262.842	55.81
263.058	-15.87
263.274	74.24
263.49	20.99
263.707	-3.58
263.923	74.24
264.139	23.04
264.355	-26.11
264.571	98.81
264.787	-32.26
265.004	107.01
265.22	-26.11
265.436	-75.26
265.652	68.09
265.868	53.76
266.084	27.14
266.3	23.04
266.516	-34.3
266.732	68.09
266.948	-32.26
267.164	-40.45
267.38	31.23
267.596	47.62
267.812	82.43
268.028	25.09
268.244	8.7
268.46	16.9
268.676	-15.87
268.892	23.04
269.108	33.28
269.324	-28.16
269.54	39.42
269.756	12.8
269.972	-134.65
270.188	-32.26
270.403	-58.88
270.619	14.85
270.835	4.61
271.051	31.23
271.267	20.99
271.483	-40.45
271.698	4.61
271.914	90.62
272.13	16.9
272.346	31.23
272.562	-44.54
272.777	27.14
272.993	-7.68
273.209	12.8
273.425	-62.98
273.64	-15.87
273.856	12.8
274.072	-22.02
274.287	-22.02
274.503	23.04
274.719	80.38
274.934	-3.58
275.15	-24.06
275.366	-60.93
275.581	-19.97
275.797	92.67
276.012	84.48
276.228	-19.97
276.444	45.57
276.659	45.57
276.875	29.18
277.09	23.04
277.306	-26.11
277.521	41.47
277.737	-24.06
277.952	59.9
278.168	74.24
278.383	37.38
278.599	55.81
278.814	-42.5
279.03	-15.87
279.245	80.38
279.461	45.57
279.676	20.99
279.892	8.7
280.107	-46.59
280.322	-9.73
280.538	20.99
280.753	-50.69
280.969	-22.02
281.184	49.66
281.399	37.38
281.615	-60.93
281.83	31.23
282.045	-24.06
282.26	-9.73
282.476	80.38
282.691	33.28
282.906	41.47
283.122	-19.97
283.337	-56.83
283.552	49.66
283.767	-15.87
283.983	107.01
284.198	33.28
284.413	57.86
284.628	-32.26
284.843	33.28
285.058	33.28
285.274	6.66
285.489	-48.64
285.704	23.04
285.919	-58.88
286.134	-3.58
286.349	-28.16
286.564	-32.26
286.779	70.14
286.995	-52.74
287.21	-42.5
287.425	37.38
287.64	-1.54
287.855	6.66
288.07	-79.36
288.285	86.53
288.5	-7.68
288.715	37.38
288.93	-5.63
289.145	16.9
289.36	-24.06
289.575	-15.87
289.79	37.38
290.004	-9.73
290.219	-9.73
290.434	61.95
290.649	-3.58
290.864	47.62
291.079	12.8
291.294	-40.45
291.509	8.7
291.724	-11.78
291.938	-24.06
292.153	76.29
292.368	-56.83
292.583	-3.58
292.798	20.99
293.012	25.09
293.227	57.86
293.442	23.04
293.657	31.23
293.871	18.94
294.086	-50.69
294.301	20.99
294.516	74.24
294.73	-54.78
294.945	6.66
295.16	14.85
295.374	43.52
295.589	96.77
295.804	47.62
296.018	-1.54
296.233	12.8
296.447	53.76
296.662	20.99
296.877	41.47
297.091	-91.65
297.306	-15.87
297.52	-32.26
297.735	-15.87
297.949	-3.58
298.164	90.62
298.378	49.66
298.593	-11.78
298.807	-28.16
299.022	-1.54
299.236	92.67
299.451	51.71
299.665	8.7
299.88	25.09
300.094	41.47
300.309	-40.45
300.523	25.09
300.737	16.9
300.952	-3.58
301.166	33.28
301.381	33.28
301.595	31.23
301.809	-32.26
302.024	-7.68
302.238	-15.87
302.452	104.96
302.667	23.04
302.881	33.28
303.095	53.76
303.309	-15.87
303.524	-40.45
303.738	-7.68
303.952	-36.35
304.166	-60.93
304.381	-112.13
304.595	61.95
304.809	-9.73
305.023	94.72
305.237	0.51
305.452	37.38
305.666	8.7
305.88	16.9
306.094	94.72
306.308	39.42
306.522	53.76
306.736	10.75
306.95	94.72
307.164	51.71
307.379	51.71
307.593	37.38
307.807	31.23
308.021	-67.07
308.235	55.81
308.449	-3.58
308.663	96.77
308.877	47.62
309.091	6.66
309.305	47.62
309.519	-93.69
309.733	74.24
309.947	-89.6
310.161	-9.73
310.374	27.14
310.588	82.43
310.802	-15.87
311.016	8.7
311.23	-17.92
311.444	-9.73
311.658	41.47
311.872	102.91
312.085	0.51
312.299	78.33
312.513	41.47
312.727	29.18
312.941	8.7
313.154	-9.73
313.368	10.75
313.582	55.81
313.796	41.47
314.009	18.94
314.223	90.62
314.437	14.85
314.651	16.9
314.864	88.57
315.078	-58.88
315.292	-7.68
315.505	18.94
315.719	2.56
315.933	16.9
316.146	39.42
316.36	25.09
316.573	47.62
316.787	-52.74
317.001	66.05
317.214	55.81
317.428	29.18
317.641	-9.73
317.855	8.7
318.068	10.75
318.282	47.62
318.495	98.81
318.709	27.14
318.922	-48.64
319.136	31.23
319.349	57.86
319.563	-5.63
319.776	64
319.99	8.7
320.203	14.85
320.417	-79.36
320.63	41.47
320.843	27.14
321.057	61.95
321.27	-32.26
321.483	25.09
321.697	102.91
321.91	8.7
322.124	8.7
322.337	8.7
322.55	-42.5
322.763	-40.45
322.977	-17.92
323.19	-58.88
323.403	37.38
323.617	55.81
323.83	35.33
324.043	37.38
324.256	8.7
324.469	-75.26
324.683	59.9
324.896	8.7
325.109	49.66
325.322	-40.45
325.535	29.18
325.748	88.57
325.962	-17.92
326.175	-9.73
326.388	53.76
326.601	-7.68
326.814	14.85
327.027	49.66
327.24	70.14
327.453	-19.97
327.666	-36.35
327.879	51.71
328.092	27.14
328.305	49.66
328.518	-50.69
328.731	-7.68
328.944	-28.16
329.157	25.09
329.37	-13.82
329.583	74.24
329.796	45.57
330.009	55.81
330.222	-1.54
330.435	41.47
330.648	-15.87
330.861	2.56
331.073	10.75
331.286	55.81
331.499	14.85
331.712	-56.83
331.925	14.85
332.138	31.23
332.35	35.33
332.563	-15.87
332.776	16.9
332.989	-48.64
333.202	31.23
333.414	0.51
333.627	66.05
333.84	57.86
334.053	33.28
334.265	4.61
334.478	-65.02
334.691	66.05
334.903	-48.64
335.116	0.51
335.329	-38.4
335.541	14.85
335.754	145.92
335.966	-30.21
336.179	29.18
336.392	12.8
336.604	-22.02
336.817	14.85
337.029	98.81
337.242	76.29
337.454	20.99
337.667	16.9
337.88	61.95
338.092	-34.3
338.305	-17.92
338.517	-22.02
338.729	98.81
338.942	61.95
339.154	-5.63
339.367	4.61
339.579	41.47
339.792	-75.26
340.004	47.62
340.217	20.99
340.429	-15.87
340.641	-81.41
340.854	29.18
341.066	-28.16
341.278	29.18
341.491	49.66
341.703	-24.06
341.915	14.85
342.128	92.67
342.34	2.56
342.552	-9.73
342.764	98.81
342.977	-13.82
343.189	6.66
343.401	-3.58
343.613	10.75
343.826	61.95
344.038	-24.06
344.25	37.38
344.462	45.57
344.674	-1.54
344.886	8.7
345.099	6.66
345.311	16.9
345.523	55.81
345.735	6.66
345.947	23.04
346.159	51.71
346.371	-7.68
346.583	16.9
346.795	82.43
347.007	-9.73
347.219	-26.11
347.431	-7.68
347.643	80.38
347.855	2.56
348.067	102.91
348.279	82.43
348.491	4.61
348.703	49.66
348.915	61.95
349.127	-50.69
349.339	-7.68
349.551	-19.97
349.763	51.71
349.975	45.57
350.187	86.53
350.399	102.91
350.61	68.09
350.822	-54.78
351.034	61.95
351.246	49.66
351.458	27.14
351.669	78.33
351.881	92.67
352.093	57.86
352.305	0.51
352.517	59.9
352.728	41.47
352.94	12.8
353.152	6.66
353.363	-5.63
353.575	47.62
353.787	49.66
353.999	66.05
354.21	29.18
354.422	0.51
354.633	-5.63
354.845	25.09
355.057	35.33
355.268	35.33
355.48	102.91
355.692	4.61
355.903	-40.45
356.115	-50.69
356.326	-1.54
356.538	66.05
356.749	23.04
356.961	57.86
357.172	6.66
357.384	-3.58
357.595	37.38
357.807	-26.11
358.018	49.66
358.23	20.99
358.441	115.2
358.653	-15.87
358.864	57.86
359.075	-9.73
359.287	31.23
359.498	59.9
359.709	14.85
359.921	25.09
360.132	14.85
360.344	8.7
360.555	-5.63
360.766	82.43
360.977	-42.5
361.189	25.09
361.4	14.85
361.611	74.24
361.823	37.38
362.034	31.23
362.245	-73.21
362.456	8.7
362.667	88.57
362.879	-40.45
363.09	25.09
363.301	37.38
363.512	29.18
363.723	20.99
363.935	-15.87
364.146	25.09
364.357	12.8
364.568	8.7
364.779	41.47
364.99	96.77
365.201	-24.06
365.412	35.33
365.623	10.75
365.834	33.28
366.045	-58.88
366.256	57.86
366.467	20.99
366.678	-24.06
366.889	-48.64
367.1	45.57
367.311	49.66
367.522	61.95
367.733	-17.92
367.944	35.33
368.155	-7.68
368.366	41.47
368.577	121.34
368.788	27.14
368.999	64
369.209	10.75
369.42	66.05
369.631	145.92
369.842	66.05
370.053	-28.16
370.264	66.05
370.474	-69.12
370.685	-3.58
370.896	-7.68
371.107	33.28
371.317	-7.68
371.528	16.9
371.739	25.09
371.95	-1.54
372.16	72.19
372.371	4.61
372.582	78.33
372.792	-13.82
373.003	33.28
373.214	33.28
373.424	51.71
373.635	-11.78
373.846	45.57
374.056	-24.06
374.267	107.01
374.477	4.61
374.688	-32.26
374.898	-11.78
375.109	64
375.319	68.09
375.53	70.14
375.74	111.1
375.951	66.05
376.161	86.53
376.372	102.91
376.582	-9.73
376.793	41.47
377.003	66.05
377.214	6.66
377.424	70.14
377.635	33.28
377.845	-48.64
378.055	74.24
378.266	-34.3
378.476	18.94
378.686	78.33
378.897	74.24
379.107	78.33
379.317	-7.68
379.528	-40.45
379.738	33.28
379.948	-87.55
380.158	49.66
380.369	66.05
380.579	-15.87
380.789	53.76
380.999	96.77
381.21	55.81
381.42	127.49
381.63	25.09
381.84	55.81
382.05	47.62
382.261	66.05
382.471	33.28
382.681	0.51
382.891	72.19
383.101	0.51
383.311	-62.98
383.521	80.38
383.731	55.81
383.941	70.14
384.151	20.99
384.361	23.04
384.571	59.9
384.781	14.85
384.991	131.58
385.201	74.24
385.411	57.86
385.621	111.1
385.831	-9.73
386.041	-48.64
386.251	23.04
386.461	117.25
386.671	0.51
386.881	68.09
387.091	-32.26
387.301	4.61
387.511	16.9
387.72	20.99
387.93	57.86
388.14	6.66
388.35	0.51
388.56	29.18
388.769	33.28
388.979	66.05
389.189	6.66
389.399	68.09
389.609	16.9
389.818	80.38
390.028	135.68
390.238	37.38
390.447	33.28
390.657	90.62
390.867	8.7
391.076	-11.78
391.286	4.61
391.496	113.15
391.705	25.09
391.915	86.53
392.125	66.05
392.334	49.66
392.544	2.56
392.753	78.33
392.963	-1.54
393.172	2.56
393.382	23.04
393.591	72.19
393.801	29.18
394.01	57.86
394.22	53.76
394.429	25.09
394.639	-65.02
394.848	84.48
395.058	-3.58
395.267	8.7
395.477	-52.74
395.686	33.28
395.895	86.53
396.105	107.01
396.314	64
396.524	64
396.733	53.76
396.942	72.19
397.152	27.14
397.361	45.57
397.57	61.95
397.78	12.8
397.989	78.33
398.198	133.63
398.407	0.51
398.617	29.18
398.826	94.72
399.035	6.66
399.244	109.05
399.453	31.23
399.663	74.24
399.872	98.81
400.081	57.86
400.29	119.29
400.499	-9.73
400.708	156.16
400.917	-75.26
401.127	61.95
401.336	55.81
401.545	109.05
401.754	111.1
401.963	119.29
402.172	70.14
402.381	88.57
402.59	80.38
402.799	-1.54
403.008	78.33
403.217	70.14
403.426	86.53
403.635	160.25
403.844	115.2
404.053	80.38
404.262	64
404.471	147.97
404.68	160.25
404.888	160.25
405.097	209.4
405.306	98.81
405.515	131.58
405.724	70.14
405.933	147.97
406.142	84.48
406.35	160.25
406.559	84.48
406.768	170.49
406.977	246.27
407.185	96.77
407.394	141.82
407.603	131.58
407.812	156.16
408.02	158.21
408.229	115.2
408.438	172.54
408.646	104.96
408.855	119.29
409.064	143.87
409.272	158.21
409.481	250.36
409.69	156.16
409.898	190.97
410.107	199.16
410.315	236.03
410.524	250.36
410.733	236.03
410.941	246.27
411.15	297.47
411.358	197.12
411.567	250.36
411.775	217.6
411.984	332.28
412.192	356.86
412.401	313.85
412.609	354.81
412.818	391.67
413.026	358.91
413.234	285.18
413.443	354.81
413.651	373.24
413.86	444.92
414.068	461.3
414.276	477.69
414.485	367.1
414.693	528.89
414.901	494.07
415.11	453.11
415.318	487.93
415.526	451.07
415.734	555.51
415.943	508.41
416.151	596.47
416.359	688.63
416.567	590.33
416.776	532.98
416.984	721.4
417.192	700.92
417.4	688.63
417.608	694.77
417.817	702.97
418.025	705.01
418.233	844.28
418.441	776.69
418.649	748.02
418.857	942.58
419.065	938.48
419.273	901.62
419.481	997.87
419.689	989.68
419.897	1085.94
420.105	1040.88
420.313	1079.79
420.521	1159.66
420.729	1079.79
420.937	1167.85
421.145	1237.49
421.353	1292.78
421.561	1442.28
421.769	1352.17
421.977	1452.52
422.185	1395.18
422.393	1493.48
422.601	1653.22
422.809	1632.74
423.017	1630.7
423.224	1649.13
423.432	1704.42
423.64	1726.95
423.848	1792.48
424.056	1812.96
424.263	2056.67
424.471	1960.42
424.679	2011.62
424.887	2154.98
425.094	2255.33
425.302	2224.61
425.51	2343.39
425.718	2335.2
425.925	2542.04
426.133	2429.4
426.341	2769.37
426.548	2642.39
426.756	2750.93
426.964	2783.7
427.171	2931.16
427.379	2986.45
427.586	3080.66
427.794	3170.77
428.001	3226.06
428.209	3508.68
428.417	3449.29
428.624	3586.51
428.832	3584.46
429.039	3748.29
429.247	3727.82
429.454	3953.09
429.662	4233.66
429.869	3889.6
430.076	4276.67
430.284	4252.1
430.491	4387.26
430.699	4481.47
430.906	4651.45
431.114	4729.27
431.321	4659.64
431.528	4972.98
431.736	5235.12
431.943	5353.9
432.15	5214.64
432.358	5339.57
432.565	5640.62
432.772	5657
432.979	5956.01
433.187	6070.69
433.394	6011.3
433.601	6463.9
433.808	6246.82
434.016	6197.67
434.223	6654.36
434.43	7049.62
434.637	6912.41
434.844	7278.99
435.052	7324.05
435.259	7530.89
435.466	7645.58
435.673	7414.16
435.88	8032.65
436.087	8262.02
436.294	8458.62
436.501	8284.55
436.708	8274.31
436.915	8790.39
437.122	9001.33
437.329	8835.45
437.537	9128.31
437.743	9230.71
437.95	9378.16
438.157	9847.15
438.364	10199.4
438.571	10219.88
438.778	10166.63
438.985	10893.66
439.192	10588.51
439.399	10914.14
439.606	10744.16
439.813	11309.4
440.02	12091.72
440.227	11987.27
440.433	11934.03
440.64	12190.02
440.847	12052.81
441.054	12273.99
441.261	13234.49
441.467	13029.69
441.674	13246.77
441.881	13795.63
442.088	13719.85
442.294	13748.53
442.501	14059.82
442.708	14121.26
442.914	14862.62
443.121	15462.68
443.328	14934.3
443.534	16173.32
443.741	15479.06
443.948	15327.51
444.154	16619.78
444.361	16310.54
444.568	16384.26
444.774	16619.78
444.981	16779.52
445.187	17211.64
445.394	17889.52
445.6	17752.31
445.807	19157.21
446.013	18628.84
446.22	18649.32
446.426	19454.17
446.633	19673.3
446.839	20193.48
447.046	19663.06
447.252	20474.06
447.459	20836.55
447.665	20590.79
447.871	21522.62
448.078	22214.83
448.284	21379.26
448.491	21711.03
448.697	22941.86
448.903	22939.81
449.11	23091.36
449.316	23031.97
449.522	23320.73
449.728	23849.11
449.935	24221.84
450.141	23937.17
450.347	24940.68
450.553	23834.77
450.76	24180.88
450.966	24981.63
451.172	24873.09
451.378	25239.68
451.584	25047.17
451.791	25213.06
451.997	25168
452.203	25792.63
452.409	25684.09
452.615	25610.36
452.821	24733.83
453.027	24213.65
453.233	25720.95
453.44	24526.99
453.646	24877.19
453.852	24977.54
454.058	25286.78
454.264	24793.22
454.47	25079.94
454.676	24326.28
454.882	25301.12
455.088	23206.05
455.294	23451.8
455.5	23748.76
455.705	24035.47
455.911	23105.7
456.117	22360.23
456.323	22145.2
456.529	21131.45
456.735	22094
456.941	21467.32
457.147	20961.47
457.352	20521.16
457.558	20259.02
457.764	20218.06
457.97	20084.94
458.176	19458.26
458.381	19169.5
458.587	18295.02
458.793	18368.74
458.999	17436.92
459.204	18737.38
459.41	18258.15
459.616	16939.26
459.821	16886.01
460.027	17144.06
460.233	16851.2
460.438	15704.34
460.644	15812.88
460.85	15255.83
461.055	14805.28
461.261	14969.12
461.466	13791.53
461.672	13560.11
461.878	14518.56
462.083	13449.52
462.289	13091.13
462.494	12833.08
462.7	12312.9
462.905	12017.99
463.111	12538.18
463.316	12415.3
463.522	12239.17
463.727	12353.86
463.932	12140.87
464.138	12200.26
464.343	12114.25
464.549	11821.39
464.754	12171.59
464.959	12224.84
465.165	11743.56
465.37	11622.73
465.575	11147.61
465.781	11940.17
465.986	11835.72
466.191	11231.57
466.397	11149.65
466.602	10477.92
466.807	11082.07
467.012	10869.08
467.218	10881.37
467.423	10914.14
467.628	10768.73
467.833	11395.41
468.038	10805.6
468.244	10662.24
468.449	10969.43
468.654	10664.29
468.859	10547.55
469.064	10690.91
469.269	10174.82
469.474	10035.56
469.679	10396
469.885	10025.32
470.09	10049.89
470.295	9859.43
470.5	9806.19
470.705	9859.43
470.91	9648.49
471.115	9623.92
471.32	9863.53
471.525	9544.05
471.73	9521.52
471.935	9343.35
472.139	8917.37
472.344	9204.08
472.549	9066.87
472.754	9142.64
472.959	8735.1
473.164	8653.18
473.369	8462.72
473.574	8749.43
473.778	8571.26
473.983	8784.25
474.188	8671.61
474.393	8200.58
474.598	8176
474.802	8216.96
475.007	8192.39
475.212	8151.43
475.417	7899.53
475.621	7917.96
475.826	7782.79
476.031	7731.59
476.235	7698.83
476.44	7688.59
476.645	7479.69
476.849	7539.08
477.054	7477.65
477.259	7373.2
477.463	7418.25
477.668	7123.35
477.872	7094.68
478.077	7178.64
478.282	7018.9
478.486	6932.89
478.691	6930.84
478.895	6799.77
479.1	6758.81
479.304	6906.26
479.509	6480.29
479.713	6758.81
479.918	6734.23
480.122	6468
480.326	6556.06
480.531	6545.82
480.735	6394.27
480.94	6322.59
481.144	6582.68
481.348	6271.39
481.553	6515.1
481.757	6361.5
481.961	6259.1
482.166	6347.17
482.37	6201.76
482.574	6152.61
482.778	6242.72
482.983	6424.99
483.187	6320.54
483.391	6347.17
483.595	6119.84
483.8	6148.51
484.004	6486.43
484.208	6228.38
484.412	6111.65
484.616	6164.9
484.821	6300.06
485.025	6113.7
485.229	6171.04
485.433	6195.62
485.637	6316.45
485.841	6320.54
486.045	6156.71
486.249	6244.77
486.453	6183.33
486.657	6152.61
486.861	6160.8
487.065	6109.6
487.269	6265.25
487.473	6044.07
487.677	6349.22
487.881	6322.59
488.085	6357.41
488.289	6334.88
488.493	6300.06
488.697	6392.22
488.901	6338.98
489.105	6394.27
489.309	6365.6
489.512	6312.35
489.716	6267.3
489.92	6418.85
490.124	6351.26
490.328	6500.76
490.531	6521.24
490.735	6463.9
490.939	6476.19
491.143	6525.34
491.346	6439.33
491.55	6543.77
491.754	6527.39
491.958	6703.51
492.161	6584.73
492.365	6742.43
492.569	6650.27
492.772	6676.89
492.976	6689.18
493.18	6732.19
493.383	6590.88
493.587	6648.22
493.79	6861.21
493.994	6740.38
494.197	6934.93
494.401	6779.29
494.605	6775.19
494.808	6807.96
495.012	6934.93
495.215	7168.4
495.419	7176.59
495.622	7182.74
495.825	7338.38
496.029	7274.9
496.232	7518.61
496.436	7393.68
496.639	7639.44
496.843	7422.35
497.046	7713.16
497.249	7672.2
497.453	7776.65
497.656	7682.44
497.859	7897.48
498.063	8061.32
498.266	8032.65
498.469	7999.88
498.673	8133
498.876	8298.88
499.079	8405.38
499.282	8401.28
499.485	8667.52
499.689	8479.1
499.892	8626.56
500.095	8851.83
500.298	9122.16
500.501	8987
500.705	9230.71
500.908	9224.56
501.111	9267.57
501.314	9417.07
501.517	9486.7
501.72	9505.13
501.923	9701.74
502.126	9959.78
502.329	9857.39
502.532	10023.27
502.735	10060.13
502.938	10324.32
503.141	10363.23
503.344	10619.23
503.547	10781.02
503.75	10746.2
503.953	10834.27
504.156	11041.11
504.359	10936.67
504.562	11075.93
504.765	11217.24
504.968	11436.37
505.17	11454.8
505.373	11600.21
505.576	11772.24
505.779	11979.08
505.982	12192.07
506.185	12228.93
506.387	12382.53
506.59	12329.28
506.793	12607.81
506.996	12640.58
507.198	12968.25
507.401	12890.43
507.604	13369.65
507.807	13383.99
508.009	13607.22
508.212	13148.47
508.415	13893.93
508.617	13719.85
508.82	13898.03
509.022	13852.97
509.225	14250.28
509.428	14141.74
509.63	14416.16
509.833	14334.25
510.035	14770.46
510.238	14516.51
510.44	15059.23
510.643	15468.82
510.845	15407.38
511.048	15292.69
511.25	15415.57
511.453	15704.34
511.655	16486.66
511.858	16052.49
512.06	16253.19
512.262	16447.75
512.465	16462.08
512.667	16853.25
512.87	16789.76
513.072	17060.09
513.274	17342.71
513.477	17664.24
513.679	17844.46
513.881	17918.19
514.084	18075.88
514.286	18217.19
514.488	18252.01
514.69	18899.17
514.893	18782.43
515.095	18737.38
515.297	18987.23
515.499	19237.08
515.701	19349.72
515.904	19775.7
516.106	20011.21
516.308	20060.37
516.51	20148.43
516.712	20422.86
516.914	20529.35
517.116	21059.77
517.318	20988.1
517.52	20961.47
517.722	21174.46
517.925	21534.9
518.127	21893.3
518.329	21856.43
518.531	21987.5
518.733	22546.6
518.935	22462.63
519.136	22886.56
519.338	23013.54
519.54	23468.19
519.742	23365.79
519.944	23613.59
520.146	24141.97
520.348	23855.25
520.55	24252.56
520.752	24395.92
520.954	24987.78
521.155	24926.34
521.357	25245.82
521.559	25653.37
521.761	26189.94
521.963	25942.13
522.164	26243.18
522.366	26568.81
522.568	26554.47
522.77	26796.14
522.971	27394.14
523.173	27076.71
523.375	27361.37
523.576	27410.53
523.778	27687
523.98	28280.91
524.181	28391.5
524.383	28616.78
524.584	28840.01
524.786	28534.86
524.988	28997.7
525.189	29460.54
525.391	29659.2
525.592	29732.92
525.794	30040.12
525.995	29986.87
526.197	30001.21
526.398	30279.73
526.6	31021.09
526.801	30928.94
527.003	30877.74
527.204	31023.14
527.406	31705.12
527.607	31516.7
527.808	31701.02
528.01	31711.26
528.211	31694.88
528.412	32247.83
528.614	32434.19
528.815	32264.21
529.016	33062.92
529.218	32589.84
529.419	33005.58
529.62	33269.76
529.822	32780.3
530.023	33290.24
530.224	33472.51
530.425	33519.62
530.626	33435.65
530.828	33259.52
531.029	34170.87
531.23	33568.77
531.431	34107.38
531.632	33912.83
531.833	33906.68
532.035	34170.87
532.236	34514.93
532.437	34318.32
532.638	34115.58
532.839	35069.93
533.04	34887.66
533.241	34365.43
533.442	35182.57
533.643	34801.64
533.844	35010.54
534.045	35399.65
534.246	34932.71
534.447	35436.52
534.648	34768.88
534.849	35344.36
535.05	35436.52
535.251	35256.29
535.451	35213.29
535.652	35264.49
535.853	35180.52
536.054	35510.24
536.255	35399.65
536.456	35065.83
536.657	35925.98
536.857	35368.93
537.058	35239.91
537.259	35807.2
537.46	35653.6
537.66	35633.12
537.861	35493.86
538.062	35538.91
538.263	35635.17
538.463	35356.64
538.664	35536.87
538.865	35831.77
539.065	35928.03
539.266	35436.52
539.466	35923.93
539.667	35287.01
539.868	35796.96
540.068	35766.24
540.269	36022.23
540.469	35620.83
540.67	35770.33
540.87	35698.66
541.071	35762.14
541.271	36218.84
541.472	35856.35
541.672	35530.72
541.873	35557.35
542.073	35264.49
542.274	36014.04
542.474	35913.69
542.675	35487.71
542.875	35987.42
543.075	35448.8
543.276	35567.59
543.476	35637.22
543.676	35434.47
543.877	36014.04
544.077	35874.78
544.277	35489.76
544.478	35669.98
544.678	35991.51
544.878	35694.56
545.078	35676.13
545.279	35491.81
545.479	35735.52
545.679	35852.25
545.879	35639.26
546.079	35743.71
546.28	35753.95
546.48	35592.16
546.68	35760.09
546.88	35895.26
547.08	35639.26
547.28	35553.25
547.48	35305.45
547.68	35944.41
547.88	35690.46
548.081	36059.1
548.281	35940.32
548.481	35553.25
548.681	35907.55
548.881	35456.99
549.081	35588.06
549.28	35268.58
549.48	35743.71
549.68	35766.24
549.88	36378.58
550.08	35639.26
550.28	35635.17
550.48	35897.31
550.68	35956.7
550.88	35731.42
551.08	35555.3
551.279	35645.41
551.479	35309.54
551.679	35837.92
551.879	35465.19
552.079	35477.47
552.278	35395.56
552.478	35137.51
552.678	35516.39
552.878	35481.57
553.077	35747.81
553.277	35057.64
553.477	35608.54
553.676	35272.68
553.876	35327.97
554.076	35901.4
554.275	35332.07
554.475	34947.05
554.674	35350.5
554.874	35182.57
555.074	34832.36
555.273	35108.84
555.473	35409.89
555.672	34924.52
555.872	34805.74
556.071	35067.88
556.271	34873.32
556.47	34760.69
556.67	34512.88
556.869	34744.3
557.068	34932.71
557.268	34623.47
557.467	34199.54
557.667	34574.32
557.866	34154.49
558.065	34301.94
558.265	33931.26
558.464	34197.49
558.663	34562.03
558.863	33669.12
559.062	34359.28
559.261	33585.15
559.461	33978.36
559.66	33527.81
559.859	33452.03
560.058	33306.63
560.258	33814.52
560.457	33130.5
560.656	33595.39
560.855	33101.83
561.054	33435.65
561.253	32626.7
561.453	33075.21
561.652	32808.97
561.851	33347.59
562.05	32905.23
562.249	32575.5
562.448	32794.64
562.647	32350.23
562.846	32178.2
563.045	31985.69
563.244	31875.1
563.443	32200.72
563.642	31572
563.841	31813.66
564.04	31359.01
564.239	31922.2
564.438	31283.23
564.637	31307.81
564.836	31252.52
565.035	31029.29
565.234	31258.66
565.432	30847.02
565.631	30711.85
565.83	31004.71
566.029	30609.45
566.228	30535.73
566.427	30378.03
566.625	29831.22
566.824	30007.35
567.023	29820.98
567.222	29724.73
567.42	29669.44
567.619	29593.66
567.818	29599.8
568.016	29204.55
568.215	29790.27
568.414	29024.33
568.612	29345.86
568.811	28969.03
569.01	28915.78
569.208	28653.64
569.407	28946.5
569.605	28330.06
569.804	28500.05
570.002	28493.9
570.201	28526.67
570.4	27967.57
570.598	27840.6
570.797	27844.7
570.995	27803.74
571.193	27517.02
571.392	27562.08
571.59	27287.65
571.789	27310.18
571.987	27269.22
572.186	27117.67
572.384	26839.14
572.582	26923.11
572.781	26765.42
572.979	26589.29
573.177	26497.13
573.376	26839.14
573.574	26390.64
573.772	26323.05
573.971	26118.26
574.169	25731.19
574.367	25587.83
574.565	25946.23
574.763	25630.84
574.962	25739.38
575.16	25063.55
575.358	25612.41
575.556	25118.85
575.754	25323.65
575.952	24971.39
576.151	25184.38
576.349	24821.89
576.547	24719.49
576.745	24920.2
576.943	24883.33
577.141	24520.84
577.339	24701.06
577.537	24522.89
577.735	24432.78
577.933	24168.59
578.131	24232.08
578.329	24162.45
578.527	23859.35
578.725	24152.21
578.923	23894.16
579.121	23971.99
579.319	23830.68
579.516	23756.95
579.714	23546.01
579.912	23347.36
580.11	23382.17
580.308	23361.69
580.506	23300.25
580.704	22972.58
580.901	23099.55
581.099	23146.65
581.297	22878.37
581.495	22921.38
581.692	22692.01
581.89	22544.55
582.088	22710.44
582.285	22536.36
582.483	22575.27
582.681	22343.85
582.878	22321.32
583.076	22046.9
583.274	22407.34
583.471	21868.72
583.669	21928.11
583.866	21770.42
584.064	21885.11
584.262	21547.19
584.459	22001.84
584.657	21588.15
584.854	21874.87
585.052	21559.48
585.249	21553.34
585.447	21465.27
585.644	21305.53
585.841	21213.37
586.039	21237.95
586.236	20842.69
586.434	21246.14
586.631	20912.32
586.828	21029.06
587.026	20721.86
587.223	20568.26
587.42	20783.3
587.618	20693.19
587.815	20383.94
588.012	20361.42
588.21	20086.99
588.407	20566.21
588.604	20486.34
588.801	20230.35
588.999	19964.11
589.196	19925.2
589.393	20203.72
589.59	19878.1
589.787	19847.38
589.984	19779.79
590.182	19511.51
590.379	19808.47
590.576	19630.29
590.773	19679.44
590.97	19607.76
591.167	19761.36
591.364	19011.81
591.561	19642.58
591.758	19112.16
591.955	19230.94
592.152	19341.53
592.349	19108.06
592.546	19206.36
592.743	18870.5
592.94	18659.56
593.137	19235.03
593.334	18739.43
593.531	18702.56
593.727	18751.71
593.924	18819.3
594.121	18530.53
594.318	18260.2
594.515	18245.87
594.712	18553.06
594.908	18194.67
595.105	18268.39
595.302	18280.68
595.499	18071.79
595.696	17858.8
595.892	17961.2
596.089	18039.02
596.286	17920.24
596.482	17756.4
596.679	17957.1
596.876	17561.84
597.072	17680.63
597.269	17582.32
597.466	17602.8
597.662	17207.55
597.859	17430.77
598.055	17279.22
598.252	17092.86
598.448	17524.98
598.645	17101.05
598.841	16890.11
599.038	17043.71
599.234	17436.92
599.431	16869.63
599.627	16707.84
599.824	16945.41
600.02	16611.59
600.217	16900.35
600.413	16830.72
600.609	16437.51
600.806	16548.1
601.002	16711.94
601.198	16599.3
601.395	16496.9
601.591	16181.51
601.787	16292.1
601.984	16181.51
602.18	16128.27
602.376	16255.24
602.572	16140.55
602.769	16115.98
602.965	16113.93
603.161	15954.19
603.357	15872.27
603.553	15825.17
603.75	15888.65
603.946	15720.72
604.142	15999.24
604.338	15405.33
604.534	15687.95
604.73	15442.2
604.926	15229.21
605.122	15542.55
605.318	15409.43
605.514	15276.31
605.71	15196.44
605.906	15221.02
606.102	15053.08
606.298	15128.86
606.494	14893.34
606.69	15325.46
606.886	15237.4
607.082	14645.54
607.278	15003.93
607.474	15026.46
607.67	15030.55
607.866	14268.71
608.062	15200.54
608.257	14772.51
608.453	14727.46
608.649	14817.57
608.845	14541.09
609.041	14514.47
609.236	14647.58
609.432	14504.23
609.628	14657.82
609.824	14297.38
610.019	14356.77
610.215	14377.25
610.411	14493.99
610.606	14315.81
610.802	14188.84
610.998	14070.06
611.193	14113.06
611.389	14344.49
611.584	14027.05
611.78	14203.18
611.976	13951.28
612.171	14260.52
612.367	14014.76
612.562	13850.92
612.758	13859.12
612.953	13539.63
613.149	13873.45
613.344	13812.01
613.539	13932.84
613.735	13717.81
613.93	13869.36
614.126	13848.88
614.321	13922.6
614.517	13678.9
614.712	13412.66
614.907	13541.68
615.103	13625.65
615.298	13474.1
615.493	13545.78
615.688	13304.12
615.884	13828.4
616.079	13232.44
616.274	13451.57
616.47	13345.08
616.665	13197.62
616.86	13152.57
617.055	13332.79
617.25	13148.47
617.445	13119.8
617.641	12958.01
617.836	13136.18
618.031	13095.22
618.226	13027.64
618.421	12921.15
618.616	13236.53
618.811	12751.17
619.006	13097.27
619.201	12654.91
619.396	12706.11
619.591	12390.72
619.786	12595.52
619.981	12357.96
620.176	12384.58
620.371	12423.49
620.566	12474.69
620.761	12435.78
620.956	12288.32
621.151	11880.78
621.346	12050.76
621.541	11839.82
621.735	12257.6
621.93	11923.79
622.125	11901.26
622.32	11759.95
622.515	11991.37
622.709	11792.72
622.904	11686.22
623.099	11895.11
623.294	11874.63
623.488	11462.99
623.683	11493.71
623.878	11397.46
624.072	11364.69
624.267	11231.57
624.462	11247.96
624.656	11090.26
624.851	11163.99
625.046	10975.58
625.24	11026.78
625.435	10873.18
625.629	10838.36
625.824	10944.86
626.018	10834.27
626.213	10473.82
626.407	10811.74
626.602	10529.12
626.796	10678.62
626.991	10608.99
627.185	10285.41
627.38	10291.55
627.574	10277.22
627.768	10281.32
627.963	10107.24
628.157	9976.17
628.352	9980.26
628.546	9976.17
628.74	9822.57
628.935	9793.9
629.129	9974.12
629.323	9714.03
629.517	9771.37
629.712	9609.58
629.906	9947.5
630.1	9445.74
630.294	9552.24
630.489	9582.96
630.683	9509.23
630.877	9468.27
631.071	9224.56
631.265	9269.62
631.459	9421.17
631.653	9124.21
631.848	9208.18
632.042	9099.64
632.236	9083.25
632.43	8853.88
632.624	9054.58
632.818	8829.31
633.012	8966.52
633.206	8952.18
633.4	8874.36
633.594	8683.9
633.788	8739.19
633.982	8778.11
634.176	8669.56
634.369	8454.53
634.563	8372.61
634.757	8446.34
634.951	8630.65
635.145	8501.63
635.339	8374.66
635.533	8374.66
635.726	8204.67
635.92	8214.91
636.114	8229.25
636.308	8036.74
636.501	8130.95
636.695	8122.76
636.889	7805.32
637.083	7956.87
637.276	7786.89
637.47	7805.32
637.664	7627.15
637.857	7862.66
638.051	7631.24
638.244	7725.45
638.438	7676.3
638.632	7686.54
638.825	7526.8
639.019	7573.9
639.212	7461.26
639.406	7557.52
639.599	7268.75
639.793	7311.76
639.986	7221.65
640.18	7387.54
640.373	7401.87
640.567	7205.27
640.76	7004.57
640.954	7225.75
641.147	7018.9
641.34	6904.21
641.534	7070.1
641.727	7035.28
641.92	6861.21
642.114	6834.58
642.307	6867.35
642.5	6820.25
642.694	6590.88
642.887	6613.4
643.08	6756.76
643.273	6687.13
643.467	6560.16
643.66	6625.69
643.853	6537.63
644.046	6445.47
644.239	6398.37
644.432	6390.17
644.626	6373.79
644.819	6336.93
645.012	6408.61
645.205	6232.48
645.398	6414.75
645.591	6418.85
645.784	6078.88
645.977	6085.03
646.17	6158.75
646.363	6218.15
646.556	5935.53
646.749	6039.97
646.942	6062.5
647.135	5872.04
647.328	5949.86
647.521	5775.78
647.714	5831.08
647.907	5976.48
648.099	5855.65
648.292	5894.57
648.485	5710.25
648.678	5689.77
648.871	5579.18
649.064	5638.57
649.256	5716.39
649.449	5700.01
649.642	5501.36
649.835	5409.2
650.027	5630.38
650.22	5554.6
650.413	5468.59
650.605	5530.03
650.798	5495.21
650.991	5421.49
651.183	5286.32
651.376	5464.49
651.568	5347.76
651.761	5370.29
651.954	5429.68
652.146	5362.09
652.339	5202.35
652.531	5192.11
652.724	5212.59
652.916	5132.72
653.109	5167.54
653.301	5161.39
653.494	5151.15
653.686	5136.82
653.879	5050.8
654.071	5071.28
654.263	5093.81
654.456	5005.75
654.648	5239.22
654.84	5065.14
655.033	4868.53
655.225	4895.16
655.417	4827.57
655.61	4893.11
655.802	4977.08
655.994	4759.99
656.186	4735.42
656.379	4858.29
656.571	4633.02
656.763	4723.13
656.955	4880.82
657.148	4764.09
657.34	4790.71
657.532	4596.15
657.724	4780.47
657.916	4651.45
658.108	4698.55
658.3	4557.24
658.492	4600.25
658.684	4530.62
658.876	4458.94
659.068	4583.87
659.26	4555.19
659.452	4641.21
659.644	4477.37
659.836	4583.87
660.028	4424.12
660.22	4331.97
660.412	4354.49
660.604	4479.42
660.796	4444.6
660.988	4542.91
661.18	4313.53
661.372	4243.9
661.563	4383.17
661.755	4321.73
661.947	4338.11
662.139	4309.44
662.331	4223.42
662.522	4176.32
662.714	4288.96
662.906	4235.71
663.097	4299.2
663.289	4176.32
663.481	4239.81
663.673	4108.74
663.864	4274.62
664.056	4168.13
664.247	4209.09
664.439	4037.06
664.631	4121.03
664.822	4114.88
665.014	3985.86
665.205	4139.46
665.397	4108.74
665.588	4149.7
665.78	4184.51
665.971	4137.41
666.163	4168.13
666.354	4118.98
666.546	4032.96
666.737	4094.4
666.929	4166.08
667.12	4125.12
667.311	4129.22
667.503	4006.34
667.694	4041.15
667.885	4010.43
668.077	4125.12
668.268	4180.42
668.459	4055.49
668.651	4096.45
668.842	4139.46
669.033	3996.1
669.224	4104.64
669.416	4200.9
669.607	4059.59
669.798	4121.03
669.989	4190.66
670.18	4131.26
670.371	4227.52
670.563	4053.44
670.754	4067.78
670.945	3965.38
671.136	4106.69
671.327	4118.98
671.518	4088.26
671.709	4198.85
671.9	4254.14
672.091	4088.26
672.282	4157.89
672.473	4098.5
672.664	4151.74
672.855	4245.95
673.046	4114.88
673.237	4313.53
673.428	4270.53
673.619	4215.23
673.809	4225.47
674	4227.52
674.191	4422.08
674.382	4407.74
674.573	4243.9
674.764	4153.79
674.954	4442.56
675.145	4166.08
675.336	4223.42
675.527	4311.49
675.717	4241.86
675.908	4264.38
676.099	4442.56
676.289	4368.83
676.48	4563.39
676.671	4430.27
676.861	4657.59
677.052	4399.55
677.243	4374.97
677.433	4526.52
677.624	4575.67
677.814	4610.49
678.005	4620.73
678.195	4633.02
678.386	4504
678.576	4563.39
678.767	4448.7
678.957	4671.93
679.148	4698.55
679.338	4729.27
679.529	4803
679.719	4846.01
679.909	4817.33
680.1	4841.91
680.29	4856.25
680.481	4706.74
680.671	4997.56
680.861	4956.6
681.052	5032.37
681.242	4919.73
681.432	5071.28
681.622	4979.12
681.813	5005.75
682.003	5112.24
682.193	5034.42
682.383	5169.59
682.573	5149.11
682.764	5071.28
682.954	5091.76
683.144	5075.38
683.334	5200.3
683.524	5241.26
683.714	5398.96
683.904	5388.72
684.094	5269.94
684.284	5169.59
684.474	5245.36
684.664	5271.98
684.854	4999.6
685.044	5276.08
685.234	5165.49
685.424	5128.63
685.614	5128.63
685.804	5243.31
685.994	5271.98
686.184	5249.46
686.374	5370.29
686.564	5206.45
686.753	5192.11
686.943	5169.59
687.133	5233.07
687.323	5233.07
687.513	5208.5
687.702	5194.16
687.892	5243.31
688.082	5067.19
688.272	5042.61
688.461	4938.16
688.651	5093.81
688.841	5079.47
689.03	4997.56
689.22	5079.47
689.41	5185.97
689.599	4991.41
689.789	5013.94
689.979	4882.87
690.168	4874.68
690.358	4833.72
690.547	4886.97
690.737	4991.41
690.926	4708.79
691.116	4811.19
691.305	4829.62
691.495	4841.91
691.684	4790.71
691.874	4755.9
692.063	4743.61
692.252	4809.14
692.442	4747.7
692.631	4563.39
692.82	4702.65
693.01	4473.28
693.199	4706.74
693.388	4694.46
693.578	4596.15
693.767	4526.52
693.956	4506.04
694.146	4460.99
694.335	4551.1
694.524	4575.67
694.713	4577.72
694.902	4551.1
695.092	4481.47
695.281	4446.65
695.47	4407.74
695.659	4374.97
695.848	4370.88
696.037	4266.43
696.226	4460.99
696.415	4346.3
696.604	4354.49
696.793	4405.69
696.982	4452.8
697.171	4467.13
697.36	4424.12
697.549	4485.56
697.738	4438.46
697.927	4301.25
698.116	4346.3
698.305	4399.55
698.494	4424.12
698.683	4544.95
698.872	4514.24
699.061	4334.01
699.25	4284.86
699.438	4336.06
699.627	4313.53
699.816	4497.85
700.005	4489.66
700.193	4252.1
700.382	4403.64
700.571	4422.08
700.76	4440.51
700.948	4430.27
701.137	4510.14
701.326	4460.99
701.514	4426.17
701.703	4489.66
701.892	4551.1
702.08	4538.81
702.269	4440.51
702.457	4395.45
702.646	4465.08
702.834	4518.33
703.023	4460.99
703.212	4520.38
703.4	4526.52
703.589	4434.36
703.777	4553.15
703.965	4471.23
704.154	4551.1
704.342	4524.47
704.531	4559.29
704.719	4530.62
704.907	4714.94
705.096	4555.19
705.284	4606.39
705.472	4706.74
705.661	4776.38
705.849	4696.5
706.037	4604.35
706.226	4624.83
706.414	4805.05
706.602	4702.65
706.79	4878.77
706.979	4782.52
707.167	4743.61
707.355	4811.19
707.543	4895.16
707.731	4846.01
707.919	4790.71
708.107	4864.44
708.296	4895.16
708.484	4858.29
708.672	4850.1
708.86	4972.98
709.048	4882.87
709.236	4751.8
709.424	4950.45
709.612	5071.28
709.8	5034.42
709.988	5020.08
710.176	5132.72
710.364	4948.4
710.551	5030.32
710.739	5136.82
710.927	5171.63
711.115	5214.64
711.303	5370.29
711.491	5218.74
711.679	5241.26
711.866	5288.37
712.054	5231.02
712.242	5247.41
712.43	5390.77
712.617	5300.66
712.805	5267.89
712.993	5271.98
713.181	5085.62
713.368	5573.03
713.556	5464.49
713.744	5417.39
713.931	5478.83
714.119	5323.18
714.306	5466.54
714.494	5407.15
714.682	5616.04
714.869	5409.2
715.057	5534.12
715.244	5519.79
715.432	5822.89
715.619	5562.8
715.807	5697.96
715.994	5763.5
716.182	5829.03
716.369	5867.94
716.556	5765.54
716.744	5833.13
716.931	5867.94
717.119	5753.26
717.306	5839.27
717.493	5781.93
717.681	5783.98
717.868	5644.71
718.055	6058.4
718.242	5976.48
718.43	5847.46
718.617	5964.2
718.804	6015.4
718.991	5988.77
719.179	6144.42
719.366	6111.65
719.553	6168.99
719.74	6052.26
719.927	6226.34
720.114	6134.18
720.301	5982.63
720.488	6171.04
720.676	6334.88
720.863	6181.28
721.05	6195.62
721.237	6316.45
721.424	6265.25
721.611	6136.23
721.798	6205.86
721.985	6250.91
722.172	6232.48
722.358	6482.33
722.545	6406.56
722.732	6437.28
722.919	6472.09
723.106	6377.89
723.293	6504.86
723.48	6574.49
723.667	6562.2
723.853	6537.63
724.04	6568.35
724.227	6472.09
724.414	6719.9
724.6	6734.23
724.787	6498.72
724.974	6590.88
725.161	6736.28
725.347	6685.08
725.534	6617.5
725.72	6676.89
725.907	6830.49
726.094	6889.88
726.28	6713.75
726.467	6734.23
726.653	6709.66
726.84	6797.72
727.027	6816.15
727.213	6723.99
727.4	6703.51
727.586	6922.65
727.773	6820.25
727.959	6865.3
728.145	6857.11
728.332	6832.54
728.518	7039.38
728.705	6977.94
728.891	6836.63
729.077	6893.97
729.264	6924.69
729.45	6951.32
729.636	7143.83
729.823	6963.61
730.009	6953.37
730.195	6918.55
730.382	7045.52
730.568	7125.4
730.754	7059.86
730.94	7043.48
731.126	7164.31
731.313	7031.19
731.499	7023
731.685	7248.27
731.871	7078.29
732.057	7213.46
732.243	7207.31
732.429	7115.16
732.615	7012.76
732.801	7096.72
732.987	7334.29
733.173	7147.92
733.359	7156.11
733.545	7307.66
733.731	7063.96
733.917	7233.94
734.103	7233.94
734.289	7375.25
734.475	7158.16
734.661	7291.28
734.847	7315.86
735.033	7043.48
735.219	7332.24
735.404	7248.27
735.59	7250.32
735.776	7068.05
735.962	7463.31
736.148	7381.39
736.333	7205.27
736.519	7207.31
736.705	7233.94
736.89	7168.4
737.076	7225.75
737.262	7143.83
737.447	7152.02
737.633	7088.53
737.819	7162.26
738.004	7100.82
738.19	7111.06
738.375	7293.33
738.561	7307.66
738.747	7090.58
738.932	7125.4
739.118	7322
739.303	7002.52
739.489	7348.62
739.674	7221.65
739.859	6945.17
740.045	7168.4
740.23	7086.48
740.416	7109.01
740.601	7186.83
740.786	7178.64
740.972	7086.48
741.157	7129.49
741.342	6881.69
741.528	6996.37
741.713	6967.7
741.898	6873.5
742.084	6771.1
742.269	7018.9
742.454	6953.37
742.639	6975.89
742.824	6721.95
743.01	6967.7
743.195	6891.93
743.38	6906.26
743.565	6592.92
743.75	6865.3
743.935	6584.73
744.12	6807.96
744.305	6449.57
744.49	6656.41
744.675	6713.75
744.86	6543.77
745.045	6422.94
745.23	6629.79
745.415	6437.28
745.6	6685.08
745.785	6574.49
745.97	6566.3
746.155	6359.45
746.34	6316.45
746.525	6255.01
746.71	6414.75
746.895	6179.23
747.079	6062.5
747.264	5972.39
747.449	6265.25
747.634	6185.38
747.819	6230.43
748.003	5988.77
748.188	6019.49
748.373	5939.62
748.557	5970.34
748.742	5745.06
748.927	5685.67
749.111	5958.05
749.296	5706.15
749.481	5759.4
749.665	5831.08
749.85	5566.89
750.034	5470.64
750.219	5599.66
750.404	5546.41
750.588	5585.32
750.773	5366.19
750.957	5208.5
751.141	5368.24
751.326	5370.29
751.51	5310.89
751.695	5378.48
751.879	5038.52
752.064	5190.06
752.248	5214.64
752.432	5192.11
752.617	5085.62
752.801	5036.47
752.985	4979.12
753.17	4878.77
753.354	4997.56
753.538	4891.06
753.722	4846.01
753.907	4766.14
754.091	4858.29
754.275	4673.98
754.459	4694.46
754.643	4628.92
754.828	4741.56
755.012	4522.43
755.196	4590.01
755.38	4452.8
755.564	4544.95
755.748	4473.28
755.932	4522.43
756.116	4280.77
756.3	4340.16
756.484	4430.27
756.668	4334.01
756.852	4256.19
757.036	4157.89
757.22	4239.81
757.404	4053.44
757.588	3985.86
757.772	4051.39
757.956	4157.89
758.14	4157.89
758.323	4053.44
758.507	3936.71
758.691	3928.52
758.875	3858.89
759.059	3957.19
759.242	3936.71
759.426	3756.49
759.61	3838.41
759.794	3809.73
759.977	3889.6
760.161	3783.11
760.345	3711.43
760.528	3797.45
760.712	3584.46
760.895	3637.7
761.079	3676.62
761.263	3473.87
761.446	3512.78
761.63	3660.23
761.813	3500.49
761.997	3541.45
762.18	3324.37
762.364	3494.35
762.547	3465.68
762.731	3449.29
762.914	3400.14
763.098	3252.69
763.281	3494.35
763.464	3322.32
763.648	3367.37
763.831	3404.24
764.015	3355.08
764.198	3377.61
764.381	3234.25
764.564	3193.3
764.748	3195.34
764.931	3183.06
765.114	3183.06
765.297	3172.82
765.481	3097.04
765.664	3228.11
765.847	3092.94
766.03	3228.11
766.213	3076.56
766.397	3072.47
766.58	3045.84
766.763	3041.75
766.946	3000.79
767.129	2970.07
767.312	2863.57
767.495	3045.84
767.678	2925.01
767.861	3043.79
768.044	3066.32
768.227	2847.19
768.41	2884.05
768.593	2834.9
768.776	2896.34
768.959	2767.32
769.142	2761.17
769.324	2736.6
769.507	2800.09
769.69	2777.56
769.873	2791.89
770.056	2845.14
770.239	2701.78
770.421	2695.64
770.604	2712.02
770.787	2646.49
770.97	2728.41
771.152	2472.41
771.335	2640.34
771.518	2480.6
771.7	2648.54
771.883	2562.52
772.066	2548.19
772.248	2562.52
772.431	2621.91
772.613	2556.38
772.796	2525.66
772.978	2392.54
773.161	2499.03
773.343	2329.05
773.526	2257.37
773.708	2408.92
773.891	2351.58
774.073	2458.07
774.256	2376.16
774.438	2470.36
774.621	2279.9
774.803	2267.61
774.985	2197.98
775.168	2232.8
775.35	2185.69
775.532	2197.98
775.715	2202.08
775.897	2146.78
776.079	2120.16
776.261	2097.63
776.444	1982.95
776.626	2028
776.808	2144.74
776.99	1991.14
777.173	1946.08
777.355	2118.11
777.537	2009.57
777.719	1925.6
777.901	1931.75
778.083	1905.12
778.265	1837.54
778.447	1860.07
778.629	1839.59
778.811	1884.64
778.993	1911.27
779.175	1827.3
779.357	1862.12
779.539	1737.19
779.721	1792.48
779.903	1868.26
780.085	1776.1
780.267	1786.34
780.449	1700.33
780.631	1632.74
780.812	1804.77
780.994	1657.32
781.176	1743.33
781.358	1700.33
781.54	1692.13
781.721	1614.31
781.903	1704.42
782.085	1569.26
782.267	1636.84
782.448	1442.28
782.63	1540.58
782.812	1489.39
782.993	1507.82
783.175	1616.36
783.357	1438.19
783.538	1452.52
783.72	1464.81
783.901	1462.76
784.083	1432.04
784.264	1317.36
784.446	1348.08
784.627	1376.75
784.809	1421.8
784.99	1479.15
785.172	1319.4
785.353	1368.56
785.535	1321.45
785.716	1270.25
785.897	1257.96
786.079	1214.96
786.26	1235.44
786.441	1249.77
786.623	1270.25
786.804	1212.91
786.985	1311.21
787.167	1249.77
787.348	1130.99
787.529	1315.31
787.71	1321.45
787.891	1167.85
788.073	1137.13
788.254	1147.37
788.435	1165.81
788.616	1120.75
788.797	1163.76
788.978	1155.57
789.159	1151.47
789.34	1147.37
789.522	1006.06
789.703	1053.17
789.884	1110.51
790.065	1049.07
790.246	997.87
790.427	1130.99
790.607	1139.18
790.788	1094.13
790.969	1042.93
791.15	1026.54
791.331	1012.21
791.512	1012.21
791.693	991.73
791.874	1028.59
792.054	1137.13
792.235	954.87
792.416	891.38
792.597	958.96
792.778	963.06
792.958	1022.45
793.139	989.68
793.32	958.96
793.5	995.82
793.681	938.48
793.862	893.43
794.042	874.99
794.223	866.8
794.404	762.36
794.584	825.84
794.765	815.6
794.945	928.24
795.126	905.71
795.306	848.37
795.487	754.16
795.667	772.6
795.848	848.37
796.028	831.99
796.209	795.12
796.389	842.23
796.57	836.08
796.75	823.8
796.93	809.46
797.111	770.55
797.291	737.78
797.471	860.66
797.652	793.08
797.832	702.97
798.012	754.16
798.192	729.59
798.373	719.35
798.553	750.07
798.733	721.4
798.913	729.59
799.093	791.03
799.274	670.2
799.454	864.75
799.634	811.51
799.814	713.21
799.994	711.16
800.174	635.38
800.354	637.43
800.534	721.4
800.714	791.03
800.894	637.43
801.074	672.25
801.254	705.01
801.434	668.15
801.614	639.48
801.794	635.38
801.974	1225.2
802.154	737.78
802.334	655.86
802.514	598.52
802.693	602.61
802.873	662.01
803.053	688.63
803.233	606.71
803.413	659.96
803.592	678.39
803.772	547.32
803.952	631.29
804.131	549.37
804.311	627.19
804.491	688.63
804.67	596.47
804.85	557.56
805.03	571.9
805.209	598.52
805.389	582.14
805.568	565.75
805.748	633.33
805.928	500.22
806.107	530.94
806.287	580.09
806.466	500.22
806.646	537.08
806.825	483.83
807.004	645.62
807.184	477.69
807.363	557.56
807.543	522.74
807.722	539.13
807.901	584.18
808.081	565.75
808.26	418.3
808.439	512.5
808.619	555.51
808.798	459.26
808.977	582.14
809.156	526.84
809.336	479.74
809.515	506.36
809.694	418.3
809.873	442.87
810.052	541.18
810.231	504.31
810.411	479.74
810.59	498.17
810.769	502.26
810.948	467.45
811.127	436.73
811.306	467.45
811.485	489.98
811.664	526.84
811.843	537.08
812.022	434.68
812.201	506.36
812.38	438.78
812.559	358.91
812.737	344.57
812.916	426.49
813.095	373.24
813.274	438.78
813.453	418.3
813.632	500.22
813.811	567.8
813.989	397.82
814.168	487.93
814.347	375.29
814.526	356.86
814.704	479.74
814.883	408.06
815.062	471.54
815.24	459.26
815.419	385.53
815.598	446.97
815.776	336.38
815.955	420.35
816.133	322.04
816.312	399.87
816.49	369.15
816.669	373.24
816.847	385.53
817.026	346.62
817.204	391.67
817.383	334.33
817.561	393.72
817.74	371.19
817.918	358.91
818.097	414.2
818.275	287.23
818.453	399.87
818.632	385.53
818.81	348.67
818.988	313.85
819.167	311.8
819.345	408.06
819.523	274.94
819.701	379.39
819.879	383.48
820.058	340.47
820.236	338.43
820.414	317.95
820.592	367.1
820.77	299.52
820.948	233.98
821.127	326.14
821.305	326.14
821.483	283.13
821.661	393.72
821.839	352.76
822.017	313.85
822.195	334.33
822.373	307.71
822.551	363
822.729	283.13
822.907	342.52
823.085	262.65
823.262	360.95
823.44	342.52
823.618	311.8
823.796	258.56
823.974	291.32
824.152	291.32
824.329	324.09
824.507	365.05
824.685	324.09
824.863	307.71
825.04	266.75
825.218	369.15
825.396	289.28
825.574	238.08
825.751	254.46
825.929	299.52
826.107	217.6
826.284	279.04
826.462	264.7
826.639	201.21
826.817	209.4
826.994	313.85
827.172	180.73
827.349	242.17
827.527	252.41
827.704	295.42
827.882	246.27
828.059	207.36
828.237	227.84
828.414	188.93
828.591	211.45
828.769	254.46
828.946	270.84
829.124	322.04
829.301	219.64
829.478	244.22
829.655	188.93
829.833	231.93
830.01	82.43
830.187	242.17
830.364	233.98
830.542	244.22
830.719	291.32
830.896	287.23
831.073	217.6
831.25	205.31
831.427	221.69
831.604	270.84
831.782	197.12
831.959	236.03
832.136	211.45
832.313	186.88
832.49	154.11
832.667	176.64
832.844	188.93
833.021	279.04
833.198	168.45
833.374	182.78
833.551	199.16
833.728	236.03
833.905	221.69
834.082	162.3
834.259	164.35
834.436	309.76
834.612	195.07
834.789	197.12
834.966	158.21
835.143	193.02
835.319	141.82
835.496	115.2
835.673	227.84
835.85	205.31
836.026	195.07
836.203	139.77
836.38	127.49
836.556	195.07
836.733	156.16
836.909	248.32
837.086	213.5
837.262	115.2
837.439	244.22
837.616	133.63
837.792	166.4
837.968	229.88
838.145	145.92
838.321	82.43
838.498	168.45
838.674	158.21
838.851	145.92
839.027	170.49
839.203	123.39
839.38	160.25
839.556	147.97
839.732	197.12
839.909	207.36
840.085	221.69
840.261	96.77
840.437	197.12
840.614	156.16
840.79	100.86
840.966	178.69
841.142	139.77
841.318	154.11
841.494	121.34
841.671	131.58
841.847	139.77
842.023	172.54
842.199	168.45
842.375	225.79
842.551	158.21
842.727	160.25
842.903	158.21
843.079	70.14
843.255	123.39
843.431	170.49
843.607	152.06
843.783	61.95
843.959	119.29
844.134	121.34
844.31	141.82
844.486	133.63
844.662	49.66
844.838	186.88
845.013	190.97
845.189	123.39
845.365	162.3
845.541	137.73
845.716	68.09
845.892	193.02
846.068	129.53
846.244	90.62
846.419	176.64
846.595	49.66
846.77	84.48
846.946	170.49
847.122	76.29
847.297	113.15
847.473	217.6
847.648	109.05
847.824	154.11
847.999	-97.79
848.175	127.49
848.35	137.73
848.526	123.39
848.701	195.07
848.876	156.16
849.052	143.87
849.227	86.53
849.403	66.05
849.578	109.05
849.753	53.76
849.929	131.58
850.104	55.81
850.279	74.24
850.454	152.06
850.63	-13.82
850.805	147.97
850.98	92.67
851.155	80.38
851.33	66.05
851.505	25.09
851.681	47.62
851.856	31.23
852.031	145.92
852.206	82.43
852.381	31.23
852.556	49.66
852.731	25.09
852.906	68.09
853.081	104.96
853.256	107.01
853.431	94.72
853.606	72.19
853.781	31.23
853.956	-32.26
854.131	129.53
854.305	27.14
854.48	80.38
854.655	82.43
854.83	78.33
855.005	0.51
855.18	131.58
855.354	150.01
855.529	100.86
855.704	25.09
855.879	88.57
856.053	-30.21
856.228	90.62
856.403	70.14
856.577	72.19
856.752	31.23
856.926	53.76
857.101	164.35
857.276	64
857.45	53.76
857.625	100.86
857.799	23.04
857.974	137.73
858.148	31.23
858.323	66.05
858.497	6.66
858.672	64
858.846	74.24
859.02	43.52
859.195	78.33
859.369	111.1
859.543	80.38
859.718	98.81
859.892	2.56
860.066	55.81
860.241	-19.97
860.415	-17.92
860.589	23.04
860.763	80.38
860.938	-1.54
861.112	64
861.286	10.75
861.46	0.51
861.634	88.57
861.808	123.39
861.982	86.53
862.157	90.62
862.331	57.86
862.505	25.09
862.679	-1.54
862.853	74.24
863.027	-3.58
863.201	115.2
863.375	-7.68
863.549	100.86
863.722	68.09
863.896	111.1
864.07	45.57
864.244	-26.11
864.418	-9.73
864.592	-24.06
864.766	2.56
864.939	55.81
865.113	41.47
865.287	104.96
865.461	31.23
865.634	90.62
865.808	66.05
865.982	14.85
866.156	16.9
866.329	47.62
866.503	16.9
866.676	2.56
866.85	-56.83
867.024	57.86
867.197	70.14
867.371	49.66
867.544	2.56
867.718	-24.06
867.891	78.33
868.065	16.9
868.238	76.29
868.412	72.19
868.585	0.51
868.759	-32.26
868.932	-40.45
869.105	8.7
869.279	-11.78
869.452	2.56
869.625	2.56
869.799	20.99
869.972	43.52
870.145	2.56
870.319	98.81
870.492	-7.68
870.665	66.05
870.838	-26.11
871.011	-17.92
871.185	33.28
871.358	-7.68
871.531	12.8
871.704	-26.11
871.877	-11.78
872.05	14.85
872.223	-108.03
872.396	49.66
872.569	8.7
872.742	-28.16
872.915	4.61
873.088	-13.82
873.261	2.56
873.434	82.43
873.607	25.09
873.78	20.99
873.953	-42.5
874.126	6.66
874.299	41.47
874.471	-26.11
874.644	8.7
874.817	-22.02
874.99	61.95
875.163	-56.83
875.335	-40.45
875.508	10.75
875.681	76.29
875.853	-11.78
876.026	39.42
876.199	74.24
876.371	-5.63
876.544	31.23
876.717	49.66
876.889	4.61
877.062	55.81
877.234	-3.58
877.407	18.94
877.579	-48.64
877.752	-36.35
877.924	61.95
878.097	0.51
878.269	66.05
878.442	43.52
878.614	117.25
878.786	47.62
878.959	12.8
879.131	16.9
879.303	-48.64
879.476	37.38
879.648	39.42
879.82	-24.06
879.993	-83.45
880.165	-15.87
880.337	-56.83
880.509	55.81
880.681	-58.88
880.854	-15.87
881.026	-30.21
881.198	25.09
881.37	-40.45
881.542	0.51
881.714	64
881.886	-13.82
882.058	-7.68
882.23	8.7
882.402	16.9
882.574	29.18
882.746	57.86
882.918	74.24
883.09	16.9
883.262	47.62
883.434	57.86
883.606	-3.58
883.778	-15.87
883.95	113.15
884.122	-24.06
884.293	57.86
884.465	55.81
884.637	18.94
884.809	-42.5
884.98	-3.58
885.152	43.52
885.324	10.75
885.496	-36.35
885.667	-99.84
885.839	47.62
886.011	51.71
886.182	25.09
886.354	49.66
886.525	-56.83
886.697	4.61
886.869	-58.88
887.04	-9.73
887.212	-19.97
887.383	53.76
887.555	0.51
887.726	31.23
887.897	-48.64
888.069	-32.26
888.24	57.86
888.412	0.51
888.583	-40.45
888.754	8.7
888.926	-89.6
889.097	47.62
889.268	-65.02
889.44	-44.54
889.611	-13.82
889.782	-44.54
889.953	-58.88
890.125	4.61
890.296	-83.45
890.467	33.28
890.638	16.9
890.809	8.7
890.98	-9.73
891.151	6.66
891.323	31.23
891.494	4.61
891.665	8.7
891.836	66.05
892.007	-19.97
892.178	55.81
892.349	49.66
892.52	2.56
892.691	47.62
892.862	-69.12
893.032	-77.31
893.203	-65.02
893.374	-30.21
893.545	68.09
893.716	0.51
893.887	25.09
894.057	0.51
894.228	14.85
894.399	-34.3
894.57	-17.92
894.74	-24.06
894.911	78.33
895.082	39.42
895.253	0.51
895.423	-7.68
895.594	-97.79
895.764	6.66
895.935	-85.5
896.106	33.28
896.276	-40.45
896.447	-3.58
896.617	-7.68
896.788	39.42
896.958	-26.11
897.129	-83.45
897.299	-50.69
897.47	-32.26
897.64	6.66
897.81	-87.55
897.981	37.38
898.151	-13.82
898.322	6.66
898.492	4.61
898.662	27.14
898.832	6.66
899.003	6.66
899.173	64
899.343	-60.93
899.513	-7.68
