Data from USB4F104151__13__11-29-44-967.txt Node

Date: Fri Mar 14 11:29:44 EDT 2025
User: louis
Spectrometer: USB4F10415
Trigger mode: 4
Integration Time (sec): 5.000000E-2
Scans to average: 1
Electric dark correction enabled: true
Nonlinearity correction enabled: false
Boxcar width: 0
XAxis mode: Wavelengths
Number of Pixels in Spectrum: 3648
>>>>>Begin Spectral Data<<<<<
178.204	-71.34
178.424	-71.34
178.644	-71.34
178.864	-116.39
179.084	-57
179.304	4.44
179.524	-13.99
179.744	-22.19
179.964	-52.91
180.184	65.88
180.404	-40.62
180.624	63.83
180.844	33.11
181.064	-110.25
181.283	33.11
181.503	-11.95
181.723	51.54
181.943	-11.95
182.163	123.22
182.383	-36.52
182.602	57.68
182.822	37.2
183.042	10.58
183.262	78.16
183.482	-7.85
183.701	24.92
183.921	49.49
184.141	33.11
184.361	88.4
184.58	-52.91
184.8	92.5
185.02	-30.38
185.239	20.82
185.459	61.78
185.679	26.96
185.898	20.82
186.118	61.78
186.338	82.26
186.557	102.74
186.777	-24.23
186.997	47.44
187.216	61.78
187.436	108.88
187.655	29.01
187.875	51.54
188.095	4.44
188.314	112.98
188.534	59.73
188.753	31.06
188.973	18.77
189.192	160.08
189.412	72.02
189.631	26.96
189.851	20.82
190.07	80.21
190.29	45.4
190.509	98.64
190.729	-3.75
190.948	61.78
191.168	207.19
191.387	86.36
191.607	-22.19
191.826	33.11
192.045	2.39
192.265	37.2
192.484	-28.33
192.704	31.06
192.923	-59.05
193.142	125.27
193.362	29.01
193.581	63.83
193.8	47.44
194.02	102.74
194.239	20.82
194.458	20.82
194.678	22.87
194.897	51.54
195.116	-5.8
195.335	18.77
195.555	41.3
195.774	33.11
195.993	39.25
196.212	55.64
196.432	8.53
196.651	47.44
196.87	63.83
197.089	86.36
197.308	18.77
197.528	20.82
197.747	-89.77
197.966	-3.75
198.185	43.35
198.404	45.4
198.623	14.68
198.842	78.16
199.062	78.16
199.281	96.6
199.5	53.59
199.719	100.69
199.938	10.58
200.157	145.75
200.376	-5.8
200.595	41.3
200.814	12.63
201.033	8.53
201.252	65.88
201.471	45.4
201.69	49.49
201.909	41.3
202.128	8.53
202.347	12.63
202.566	69.97
202.785	-48.81
203.004	35.16
203.223	139.6
203.442	69.97
203.661	-28.33
203.879	-3.75
204.098	57.68
204.317	41.3
204.536	26.96
204.755	92.5
204.974	53.59
205.193	35.16
205.411	110.93
205.63	61.78
205.849	45.4
206.068	-3.75
206.287	69.97
206.505	119.12
206.724	2.39
206.943	29.01
207.162	12.63
207.381	94.55
207.599	43.35
207.818	69.97
208.037	-63.15
208.255	-36.52
208.474	43.35
208.693	29.01
208.911	33.11
209.13	37.2
209.349	69.97
209.567	108.88
209.786	29.01
210.005	45.4
210.223	37.2
210.442	-5.8
210.661	37.2
210.879	69.97
211.098	10.58
211.316	59.73
211.535	63.83
211.753	-18.09
211.972	61.78
212.191	92.5
212.409	-7.85
212.628	53.59
212.846	-9.9
213.065	33.11
213.283	74.07
213.502	43.35
213.72	51.54
213.938	53.59
214.157	-7.85
214.375	29.01
214.594	37.2
214.812	86.36
215.031	78.16
215.249	84.31
215.467	-9.9
215.686	26.96
215.904	80.21
216.122	90.45
216.341	90.45
216.559	49.49
216.778	37.2
216.996	96.6
217.214	14.68
217.432	-5.8
217.651	6.49
217.869	61.78
218.087	41.3
218.306	16.73
218.524	88.4
218.742	20.82
218.96	61.78
219.179	-22.19
219.397	67.92
219.615	72.02
219.833	33.11
220.051	-1.71
220.27	43.35
220.488	10.58
220.706	16.73
220.924	12.63
221.142	43.35
221.36	45.4
221.578	14.68
221.796	55.64
222.015	51.54
222.233	0.34
222.451	37.2
222.669	-26.28
222.887	6.49
223.105	-18.09
223.323	86.36
223.541	59.73
223.759	67.92
223.977	18.77
224.195	94.55
224.413	29.01
224.631	2.39
224.849	78.16
225.067	147.8
225.285	-16.04
225.503	29.01
225.721	-11.95
225.939	-36.52
226.157	78.16
226.375	211.28
226.592	-7.85
226.81	12.63
227.028	86.36
227.246	102.74
227.464	33.11
227.682	-11.95
227.9	86.36
228.117	76.12
228.335	45.4
228.553	47.44
228.771	31.06
228.989	112.98
229.206	92.5
229.424	-5.8
229.642	41.3
229.86	-11.95
230.077	43.35
230.295	45.4
230.513	106.84
230.731	43.35
230.948	69.97
231.166	37.2
231.384	43.35
231.601	74.07
231.819	131.41
232.037	-34.47
232.254	-28.33
232.472	18.77
232.689	43.35
232.907	2.39
233.125	104.79
233.342	49.49
233.56	-9.9
233.777	29.01
233.995	74.07
234.213	84.31
234.43	-24.23
234.648	59.73
234.865	-3.75
235.083	78.16
235.3	4.44
235.518	63.83
235.735	106.84
235.953	65.88
236.17	16.73
236.388	49.49
236.605	53.59
236.822	55.64
237.04	115.03
237.257	10.58
237.475	43.35
237.692	37.2
237.909	123.22
238.127	8.53
238.344	96.6
238.562	51.54
238.779	22.87
238.996	41.3
239.214	12.63
239.431	143.7
239.648	47.44
239.865	29.01
240.083	127.32
240.3	41.3
240.517	-3.75
240.735	123.22
240.952	92.5
241.169	76.12
241.386	94.55
241.603	33.11
241.821	10.58
242.038	88.4
242.255	67.92
242.472	82.26
242.689	39.25
242.907	78.16
243.124	6.49
243.341	78.16
243.558	2.39
243.775	14.68
243.992	67.92
244.209	86.36
244.426	96.6
244.643	29.01
244.86	29.01
245.078	-9.9
245.295	14.68
245.512	4.44
245.729	2.39
245.946	80.21
246.163	29.01
246.38	49.49
246.597	61.78
246.814	-11.95
247.031	-20.14
247.248	98.64
247.464	12.63
247.681	37.2
247.898	33.11
248.115	37.2
248.332	31.06
248.549	108.88
248.766	80.21
248.983	82.26
249.2	94.55
249.417	96.6
249.633	57.68
249.85	8.53
250.067	49.49
250.284	2.39
250.501	119.12
250.717	65.88
250.934	26.96
251.151	14.68
251.368	69.97
251.585	43.35
251.801	59.73
252.018	24.92
252.235	69.97
252.451	37.2
252.668	10.58
252.885	67.92
253.102	72.02
253.318	59.73
253.535	-50.86
253.752	18.77
253.968	-3.75
254.185	43.35
254.401	37.2
254.618	43.35
254.835	-7.85
255.051	69.97
255.268	78.16
255.484	-20.14
255.701	92.5
255.917	90.45
256.134	-3.75
256.351	49.49
256.567	6.49
256.784	-16.04
257	4.44
257.217	125.27
257.433	57.68
257.65	43.35
257.866	65.88
258.082	49.49
258.299	12.63
258.515	74.07
258.732	31.06
258.948	63.83
259.165	-24.23
259.381	33.11
259.597	57.68
259.814	29.01
260.03	86.36
260.246	-24.23
260.463	94.55
260.679	76.12
260.895	69.97
261.112	53.59
261.328	74.07
261.544	-11.95
261.761	61.78
261.977	80.21
262.193	-40.62
262.409	92.5
262.626	90.45
262.842	61.78
263.058	59.73
263.274	-28.33
263.49	43.35
263.707	82.26
263.923	29.01
264.139	20.82
264.355	20.82
264.571	160.08
264.787	53.59
265.004	61.78
265.22	-11.95
265.436	24.92
265.652	117.08
265.868	53.59
266.084	41.3
266.3	59.73
266.516	53.59
266.732	88.4
266.948	29.01
267.164	125.27
267.38	33.11
267.596	69.97
267.812	108.88
268.028	-26.28
268.244	26.96
268.46	-9.9
268.676	53.59
268.892	61.78
269.108	0.34
269.324	39.25
269.54	74.07
269.756	24.92
269.972	33.11
270.188	53.59
270.403	12.63
270.619	72.02
270.835	57.68
271.051	20.82
271.267	33.11
271.483	86.36
271.698	20.82
271.914	29.01
272.13	82.26
272.346	108.88
272.562	12.63
272.777	43.35
272.993	-20.14
273.209	53.59
273.425	98.64
273.64	8.53
273.856	69.97
274.072	86.36
274.287	6.49
274.503	51.54
274.719	100.69
274.934	-3.75
275.15	-54.95
275.366	-36.52
275.581	24.92
275.797	-11.95
276.012	65.88
276.228	63.83
276.444	78.16
276.659	90.45
276.875	20.82
277.09	4.44
277.306	69.97
277.521	63.83
277.737	80.21
277.952	61.78
278.168	29.01
278.383	41.3
278.599	12.63
278.814	69.97
279.03	141.65
279.245	-3.75
279.461	41.3
279.676	14.68
279.892	43.35
280.107	-28.33
280.322	35.16
280.538	2.39
280.753	-22.19
280.969	117.08
281.184	57.68
281.399	86.36
281.615	10.58
281.83	76.12
282.045	37.2
282.26	35.16
282.476	12.63
282.691	67.92
282.906	100.69
283.122	-13.99
283.337	78.16
283.552	-30.38
283.767	-59.05
283.983	90.45
284.198	53.59
284.413	61.78
284.628	24.92
284.843	20.82
285.058	76.12
285.274	88.4
285.489	-28.33
285.704	104.79
285.919	72.02
286.134	86.36
286.349	37.2
286.564	41.3
286.779	69.97
286.995	65.88
287.21	18.77
287.425	61.78
287.64	16.73
287.855	57.68
288.07	67.92
288.285	143.7
288.5	88.4
288.715	51.54
288.93	110.93
289.145	43.35
289.36	78.16
289.575	-20.14
289.79	39.25
290.004	-16.04
290.219	117.08
290.434	26.96
290.649	37.2
290.864	2.39
291.079	82.26
291.294	110.93
291.509	88.4
291.724	10.58
291.938	67.92
292.153	115.03
292.368	92.5
292.583	18.77
292.798	2.39
293.012	2.39
293.227	43.35
293.442	-20.14
293.657	4.44
293.871	104.79
294.086	43.35
294.301	168.27
294.516	-20.14
294.73	-1.71
294.945	33.11
295.16	43.35
295.374	94.55
295.589	41.3
295.804	135.51
296.018	76.12
296.233	65.88
296.447	0.34
296.662	0.34
296.877	86.36
297.091	16.73
297.306	39.25
297.52	57.68
297.735	123.22
297.949	18.77
298.164	59.73
298.378	43.35
298.593	-61.1
298.807	61.78
299.022	117.08
299.236	-5.8
299.451	69.97
299.665	72.02
299.88	59.73
300.094	76.12
300.309	26.96
300.523	59.73
300.737	69.97
300.952	8.53
301.166	51.54
301.381	0.34
301.595	78.16
301.809	74.07
302.024	63.83
302.238	20.82
302.452	51.54
302.667	53.59
302.881	90.45
303.095	45.4
303.309	20.82
303.524	84.31
303.738	-3.75
303.952	61.78
304.166	-5.8
304.381	6.49
304.595	37.2
304.809	67.92
305.023	37.2
305.237	18.77
305.452	37.2
305.666	41.3
305.88	94.55
306.094	55.64
306.308	57.68
306.522	55.64
306.736	29.01
306.95	47.44
307.164	82.26
307.379	31.06
307.593	4.44
307.807	41.3
308.021	90.45
308.235	67.92
308.449	-42.67
308.663	53.59
308.877	135.51
309.091	92.5
309.305	106.84
309.519	-63.15
309.733	61.78
309.947	33.11
310.161	29.01
310.374	8.53
310.588	57.68
310.802	51.54
311.016	59.73
311.23	26.96
311.444	29.01
311.658	65.88
311.872	127.32
312.085	92.5
312.299	160.08
312.513	12.63
312.727	43.35
312.941	14.68
313.154	82.26
313.368	166.23
313.582	61.78
313.796	4.44
314.009	63.83
314.223	143.7
314.437	86.36
314.651	82.26
314.864	45.4
315.078	-38.57
315.292	61.78
315.505	33.11
315.719	153.94
315.933	4.44
316.146	94.55
316.36	20.82
316.573	112.98
316.787	-16.04
317.001	72.02
317.214	20.82
317.428	57.68
317.641	-20.14
317.855	29.01
318.068	20.82
318.282	31.06
318.495	61.78
318.709	72.02
318.922	49.49
319.136	24.92
319.349	45.4
319.563	-16.04
319.776	53.59
319.99	26.96
320.203	102.74
320.417	12.63
320.63	43.35
320.843	153.94
321.057	4.44
321.27	14.68
321.483	45.4
321.697	135.51
321.91	45.4
322.124	86.36
322.337	108.88
322.55	41.3
322.763	125.27
322.977	94.55
323.19	20.82
323.403	115.03
323.617	-7.85
323.83	72.02
324.043	-40.62
324.256	100.69
324.469	16.73
324.683	82.26
324.896	61.78
325.109	22.87
325.322	33.11
325.535	65.88
325.748	65.88
325.962	61.78
326.175	45.4
326.388	61.78
326.601	67.92
326.814	-13.99
327.027	10.58
327.24	94.55
327.453	-28.33
327.666	26.96
327.879	82.26
328.092	51.54
328.305	69.97
328.518	43.35
328.731	-13.99
328.944	29.01
329.157	45.4
329.37	51.54
329.583	155.99
329.796	123.22
330.009	45.4
330.222	4.44
330.435	110.93
330.648	45.4
330.861	12.63
331.073	12.63
331.286	84.31
331.499	43.35
331.712	86.36
331.925	35.16
332.138	84.31
332.35	110.93
332.563	-20.14
332.776	80.21
332.989	49.49
333.202	121.17
333.414	55.64
333.627	45.4
333.84	76.12
334.053	-36.52
334.265	69.97
334.478	12.63
334.691	57.68
334.903	69.97
335.116	-3.75
335.329	16.73
335.541	-13.99
335.754	106.84
335.966	49.49
336.179	76.12
336.392	43.35
336.604	61.78
336.817	57.68
337.029	61.78
337.242	33.11
337.454	-11.95
337.667	-13.99
337.88	100.69
338.092	102.74
338.305	119.12
338.517	61.78
338.729	-20.14
338.942	78.16
339.154	-11.95
339.367	86.36
339.579	45.4
339.792	84.31
340.004	92.5
340.217	125.27
340.429	61.78
340.641	86.36
340.854	49.49
341.066	-20.14
341.278	102.74
341.491	135.51
341.703	39.25
341.915	65.88
342.128	14.68
342.34	26.96
342.552	33.11
342.764	53.59
342.977	37.2
343.189	100.69
343.401	49.49
343.613	37.2
343.826	45.4
344.038	35.16
344.25	61.78
344.462	51.54
344.674	131.41
344.886	16.73
345.099	35.16
345.311	106.84
345.523	41.3
345.735	-16.04
345.947	115.03
346.159	94.55
346.371	51.54
346.583	119.12
346.795	90.45
347.007	51.54
347.219	49.49
347.431	33.11
347.643	92.5
347.855	-9.9
348.067	49.49
348.279	12.63
348.491	61.78
348.703	43.35
348.915	106.84
349.127	-3.75
349.339	39.25
349.551	41.3
349.763	-7.85
349.975	26.96
350.187	78.16
350.399	45.4
350.61	76.12
350.822	67.92
351.034	67.92
351.246	123.22
351.458	82.26
351.669	92.5
351.881	84.31
352.093	65.88
352.305	135.51
352.517	37.2
352.728	29.01
352.94	84.31
353.152	112.98
353.363	45.4
353.575	37.2
353.787	94.55
353.999	24.92
354.21	26.96
354.422	45.4
354.633	12.63
354.845	49.49
355.057	-28.33
355.268	20.82
355.48	29.01
355.692	10.58
355.903	37.2
356.115	6.49
356.326	12.63
356.538	106.84
356.749	69.97
356.961	110.93
357.172	-54.95
357.384	-3.75
357.595	186.71
357.807	82.26
358.018	20.82
358.23	47.44
358.441	135.51
358.653	45.4
358.864	78.16
359.075	129.36
359.287	49.49
359.498	29.01
359.709	84.31
359.921	59.73
360.132	-9.9
360.344	33.11
360.555	61.78
360.766	133.46
360.977	63.83
361.189	115.03
361.4	65.88
361.611	125.27
361.823	78.16
362.034	86.36
362.245	-13.99
362.456	69.97
362.667	61.78
362.879	61.78
363.09	90.45
363.301	100.69
363.512	127.32
363.723	24.92
363.935	108.88
364.146	108.88
364.357	10.58
364.568	45.4
364.779	76.12
364.99	115.03
365.201	2.39
365.412	69.97
365.623	18.77
365.834	119.12
366.045	59.73
366.256	96.6
366.467	2.39
366.678	69.97
366.889	37.2
367.1	86.36
367.311	43.35
367.522	47.44
367.733	86.36
367.944	135.51
368.155	78.16
368.366	86.36
368.577	-11.95
368.788	74.07
368.999	-7.85
369.209	53.59
369.42	100.69
369.631	149.84
369.842	104.79
370.053	41.3
370.264	53.59
370.474	100.69
370.685	16.73
370.896	29.01
371.107	69.97
371.317	49.49
371.528	92.5
371.739	59.73
371.95	45.4
372.16	65.88
372.371	24.92
372.582	98.64
372.792	31.06
373.003	63.83
373.214	102.74
373.424	102.74
373.635	127.32
373.846	82.26
374.056	192.85
374.267	110.93
374.477	37.2
374.688	29.01
374.898	94.55
375.109	37.2
375.319	57.68
375.53	92.5
375.74	102.74
375.951	96.6
376.161	43.35
376.372	78.16
376.582	-24.23
376.793	69.97
377.003	29.01
377.214	74.07
377.424	131.41
377.635	84.31
377.845	94.55
378.055	151.89
378.266	29.01
378.476	76.12
378.686	51.54
378.897	-3.75
379.107	100.69
379.317	26.96
379.528	49.49
379.738	82.26
379.948	106.84
380.158	67.92
380.369	78.16
380.579	53.59
380.789	69.97
380.999	49.49
381.21	135.51
381.42	90.45
381.63	-16.04
381.84	88.4
382.05	117.08
382.261	100.69
382.471	131.41
382.681	78.16
382.891	67.92
383.101	16.73
383.311	6.49
383.521	51.54
383.731	61.78
383.941	127.32
384.151	86.36
384.361	82.26
384.571	80.21
384.781	69.97
384.991	123.22
385.201	135.51
385.411	49.49
385.621	59.73
385.831	84.31
386.041	59.73
386.251	20.82
386.461	39.25
386.671	12.63
386.881	90.45
387.091	61.78
387.301	94.55
387.511	100.69
387.72	112.98
387.93	117.08
388.14	24.92
388.35	102.74
388.56	20.82
388.769	59.73
388.979	90.45
389.189	29.01
389.399	80.21
389.609	151.89
389.818	92.5
390.028	131.41
390.238	127.32
390.447	35.16
390.657	61.78
390.867	110.93
391.076	18.77
391.286	76.12
391.496	35.16
391.705	108.88
391.915	92.5
392.125	72.02
392.334	76.12
392.544	168.27
392.753	155.99
392.963	69.97
393.172	45.4
393.382	55.64
393.591	76.12
393.801	127.32
394.01	61.78
394.22	69.97
394.429	61.78
394.639	149.84
394.848	112.98
395.058	78.16
395.267	78.16
395.477	49.49
395.686	160.08
395.895	168.27
396.105	180.56
396.314	10.58
396.524	57.68
396.733	45.4
396.942	196.95
397.152	78.16
397.361	158.03
397.57	125.27
397.78	100.69
397.989	123.22
398.198	151.89
398.407	100.69
398.617	143.7
398.826	57.68
399.035	155.99
399.244	143.7
399.453	133.46
399.663	74.07
399.872	84.31
400.081	65.88
400.29	164.18
400.499	86.36
400.708	164.18
400.917	143.7
401.127	110.93
401.336	143.7
401.545	229.71
401.754	201.04
401.963	166.23
402.172	158.03
402.381	145.75
402.59	160.08
402.799	162.13
403.008	127.32
403.217	106.84
403.426	123.22
403.635	160.08
403.844	108.88
404.053	123.22
404.262	198.99
404.471	174.42
404.68	123.22
404.888	172.37
405.097	166.23
405.306	174.42
405.515	225.62
405.724	119.12
405.933	207.19
406.142	217.43
406.35	141.65
406.559	201.04
406.768	209.23
406.977	305.49
407.185	170.32
407.394	264.53
407.603	209.23
407.812	268.63
408.02	287.06
408.229	291.15
408.438	168.27
408.646	86.36
408.855	307.54
409.064	242
409.272	319.82
409.481	344.4
409.69	307.54
409.898	278.87
410.107	307.54
410.315	354.64
410.524	356.69
410.733	352.59
410.941	379.22
411.15	405.84
411.358	414.03
411.567	526.67
411.775	457.04
411.984	446.8
412.192	467.28
412.401	526.67
412.609	504.14
412.818	567.63
413.026	655.69
413.234	553.29
413.443	559.44
413.651	631.12
413.86	575.82
414.068	635.21
414.276	753.99
414.485	526.67
414.693	729.42
414.901	815.43
415.11	815.43
415.318	821.58
415.526	860.49
415.734	807.24
415.943	833.86
416.151	856.39
416.359	966.98
416.567	1048.9
416.776	979.27
416.984	1118.53
417.192	1091.91
417.4	1050.95
417.608	1102.15
417.817	1208.64
418.025	1143.11
418.233	1290.56
418.441	1335.62
418.649	1315.14
418.857	1352
419.065	1493.31
419.273	1343.81
419.481	1495.36
419.689	1558.85
419.897	1618.24
420.105	1567.04
420.313	1716.54
420.521	1732.92
420.729	1782.07
420.937	1798.46
421.145	1882.42
421.353	2085.17
421.561	2130.23
421.769	2222.39
421.977	2371.89
422.185	2253.11
422.393	2386.22
422.601	2582.83
422.809	2380.08
423.017	2584.88
423.224	2591.02
423.432	2697.52
423.64	2763.05
423.848	3033.38
424.056	2861.35
424.263	3205.41
424.471	3219.75
424.679	3232.04
424.887	3420.45
425.094	3488.03
425.302	3518.75
425.51	3600.67
425.718	3774.75
425.925	3739.93
426.133	3936.54
426.341	4264.21
426.548	4342.04
426.756	4387.09
426.964	4370.71
427.171	4638.99
427.379	4722.96
427.586	4862.22
427.794	4956.43
428.001	5247.24
428.209	5402.88
428.417	5263.62
428.624	5820.67
428.832	5843.2
429.039	5609.73
429.247	5708.03
429.454	6328.56
429.662	6564.08
429.869	6281.46
430.076	6756.59
430.284	6641.9
430.491	6682.86
430.699	7049.45
430.906	7192.81
431.114	7385.32
431.321	7504.1
431.528	7712.99
431.736	8274.14
431.943	8546.51
432.15	8411.35
432.358	8390.87
432.565	8947.92
432.772	8763.6
432.979	9171.15
433.187	9349.32
433.394	9488.58
433.601	10080.44
433.808	10035.39
434.016	10260.66
434.223	10258.62
434.43	11370.66
434.637	10973.36
434.844	11798.69
435.052	12062.88
435.259	11698.34
435.466	12011.68
435.673	11684
435.88	12474.52
436.087	13113.49
436.294	13193.36
436.501	13160.59
436.708	13031.57
436.915	13777.03
437.122	14278.78
437.329	14280.83
437.537	14770.29
437.743	14954.61
437.95	14942.32
438.157	15827.04
438.364	16011.36
438.571	16025.7
438.778	16242.78
438.985	17735.75
439.192	17342.54
439.399	17612.87
439.606	17109.07
439.813	18114.62
440.02	19327.02
440.227	18968.63
440.433	18651.19
440.64	19304.49
440.847	19222.58
441.054	19800.1
441.261	20924.44
441.467	20727.83
441.674	21139.47
441.881	22128.64
442.088	21907.46
442.294	21749.77
442.501	22456.32
442.708	22636.54
442.914	23578.61
443.121	24788.96
443.328	23875.56
443.534	25653.2
443.741	24838.11
443.948	24555.49
444.154	26476.48
444.361	26224.58
444.568	26347.46
444.774	26556.35
444.981	26869.69
445.187	27180.98
445.394	28340.13
445.6	28516.26
445.807	31029.12
446.013	29742.99
446.22	30404.49
446.426	31768.43
446.633	31838.06
446.839	32743.27
447.046	31401.85
447.252	33169.24
447.459	33195.87
447.665	33187.67
447.871	33931.09
448.078	36144.94
448.284	34035.53
448.491	35264.32
448.697	36626.21
448.903	36853.54
449.11	37216.03
449.316	36495.14
449.522	37662.49
449.728	38547.21
449.935	38674.18
450.141	38489.87
450.347	39089.92
450.553	38303.5
450.76	38596.36
450.966	39687.93
451.172	38897.41
451.378	40206.06
451.584	39307.01
451.791	40330.99
451.997	40392.43
452.203	40621.8
452.409	41109.22
452.615	40333.04
452.821	38975.23
453.027	38901.51
453.233	40576.75
453.44	38876.93
453.646	39745.27
453.852	39696.12
454.058	40345.33
454.264	38762.25
454.47	39515.9
454.676	39112.45
454.882	40337.13
455.088	36562.73
455.294	37187.36
455.5	37388.06
455.705	37723.93
455.911	36378.41
456.117	35788.6
456.323	35385.15
456.529	33664.85
456.735	34973.5
456.941	33558.36
457.147	33429.34
457.352	32153.45
457.558	31614.83
457.764	32067.44
457.97	31659.89
458.176	30664.58
458.381	30508.93
458.587	29104.03
458.793	29218.71
458.999	27856.81
459.204	29380.5
459.41	28579.75
459.616	26658.75
459.821	26611.65
460.027	26675.13
460.233	26419.14
460.438	25298.9
460.644	25249.75
460.85	24020.97
461.055	23453.68
461.261	23951.34
461.466	21620.75
461.672	21155.86
461.878	22812.67
462.083	21213.2
462.289	20770.84
462.494	20531.23
462.7	19914.79
462.905	19372.08
463.111	19922.98
463.316	20111.39
463.522	19548.2
463.727	19286.06
463.932	19484.72
464.138	19200.05
464.343	19251.25
464.549	18839.61
464.754	19275.82
464.959	19114.03
465.165	19025.97
465.37	18157.63
465.575	17846.34
465.781	18368.57
465.986	18589.75
466.191	17825.86
466.397	17446.99
466.602	16799.83
466.807	17389.64
467.012	17297.49
467.218	17700.94
467.423	16918.61
467.628	17141.84
467.833	17823.81
468.038	17006.67
468.244	16701.53
468.449	17363.02
468.654	16728.15
468.859	16533.59
469.064	16599.13
469.269	15968.35
469.474	16246.88
469.679	16199.77
469.885	15861.86
470.09	16511.07
470.295	16021.6
470.5	15587.43
470.705	16115.81
470.91	15513.7
471.115	15159.41
471.32	15446.12
471.525	15501.42
471.73	14905.46
471.935	14891.12
472.139	14334.07
472.344	14338.17
472.549	14368.89
472.754	14315.64
472.959	13955.2
473.164	13721.73
473.369	13494.41
473.574	13883.52
473.778	13721.73
473.983	13672.58
474.188	13521.03
474.393	13107.34
474.598	13168.78
474.802	12961.94
475.007	12746.9
475.212	12968.08
475.417	12372.12
475.621	12361.88
475.826	12601.49
476.031	12398.74
476.235	12187.8
476.44	12241.05
476.645	11931.81
476.849	11788.45
477.054	11522.21
477.259	11446.44
477.463	11698.34
477.668	11485.35
477.872	11477.16
478.077	11178.15
478.282	11018.41
478.486	11006.13
478.691	10660.02
478.895	10916.01
479.1	10776.75
479.304	10870.96
479.509	10479.8
479.713	10864.82
479.918	10285.24
480.122	10150.07
480.326	10457.27
480.531	10473.65
480.735	10363.06
480.94	10184.89
481.144	10733.75
481.348	9855.17
481.553	9967.81
481.757	9906.37
481.961	10043.58
482.166	10109.12
482.37	10123.45
482.574	9879.74
482.778	10090.68
482.983	10094.78
483.187	9996.48
483.391	10217.66
483.595	9920.7
483.8	10150.07
484.004	10096.83
484.208	10053.82
484.412	9949.37
484.616	10178.75
484.821	9853.12
485.025	9769.15
485.229	9988.28
485.433	9869.5
485.637	9978.05
485.841	9990.33
486.045	9961.66
486.249	10145.98
486.453	10006.72
486.657	9810.11
486.861	10035.39
487.065	9961.66
487.269	9881.79
487.473	9793.73
487.677	10074.3
487.881	10010.81
488.085	9898.17
488.289	9973.95
488.493	9959.61
488.697	9879.74
488.901	10023.1
489.105	10117.31
489.309	10070.2
489.512	10064.06
489.716	10145.98
489.92	10152.12
490.124	10129.59
490.328	10334.39
490.531	10105.02
490.735	10207.42
490.939	10176.7
491.143	10260.66
491.346	10225.85
491.55	10238.14
491.754	10571.96
491.958	10610.87
492.161	10588.34
492.365	10660.02
492.569	10438.84
492.772	10457.27
492.976	10619.06
493.18	10660.02
493.383	10969.26
493.587	10666.16
493.79	10967.21
493.994	10969.26
494.197	11014.32
494.401	11112.62
494.605	11067.56
494.808	11210.92
495.012	11290.79
495.215	11290.79
495.419	11493.54
495.622	11258.03
495.825	11600.04
496.029	11620.52
496.232	11796.64
496.436	11634.85
496.639	12320.92
496.843	12021.92
497.046	12415.13
497.249	12357.78
497.453	12314.78
497.656	12333.21
497.859	12443.8
498.063	12660.88
498.266	13129.87
498.469	12898.45
498.673	13160.59
498.876	13365.39
499.079	13447.3
499.282	13238.41
499.485	14102.65
499.689	13777.03
499.892	14233.72
500.095	14121.09
500.298	14393.47
500.501	14239.87
500.705	14411.9
500.908	14653.56
501.111	14760.05
501.314	15143.02
501.517	15229.04
501.72	15507.56
501.923	15360.11
502.126	15732.84
502.329	16001.12
502.532	15937.63
502.735	16167.01
502.938	16400.48
503.141	16592.98
503.344	16746.58
503.547	16707.67
503.75	17168.46
503.953	17277.01
504.156	17608.78
504.359	17494.09
504.562	17969.22
504.765	18133.06
504.968	18579.51
505.17	18346.05
505.373	18645.05
505.576	19185.71
505.779	19179.57
505.982	19265.58
506.185	19349.55
506.387	19687.46
506.59	19705.9
506.793	20080.67
506.996	20025.38
507.198	20690.97
507.401	20496.41
507.604	21014.55
507.807	21248.02
508.009	21039.12
508.212	21483.53
508.415	21831.69
508.617	22188.03
508.82	22013.96
509.022	22396.93
509.225	22925.3
509.428	22798.33
509.63	22964.21
509.833	23023.61
510.035	23953.38
510.238	23701.48
510.44	23746.54
510.643	24385.51
510.845	24621.02
511.048	24668.12
511.25	25081.81
511.453	25040.86
511.655	25782.22
511.858	25606.09
512.06	25796.56
512.262	26283.97
512.465	26525.63
512.667	26533.82
512.87	26929.08
513.072	27013.05
513.274	27703.21
513.477	28032.94
513.679	27867.05
513.881	28364.71
514.084	28645.28
514.286	28485.54
514.488	28929.95
514.69	29345.69
514.893	29722.51
515.095	29935.5
515.297	30476.16
515.499	30044.04
515.701	30797.7
515.904	31094.65
516.106	31510.39
516.308	31440.76
516.51	32141.16
516.712	31919.98
516.914	32329.58
517.116	32939.87
517.318	33191.77
517.52	33718.1
517.722	33636.18
517.925	34451.27
518.127	34269
518.329	34574.15
518.531	34809.67
518.733	35479.35
518.935	35819.31
519.136	35657.53
519.338	36357.93
519.54	36128.56
519.742	36951.84
519.944	37201.69
520.146	37459.74
520.348	37799.7
520.55	37951.25
520.752	38176.53
520.954	38635.27
521.155	38977.28
521.357	39462.65
521.559	39542.52
521.761	40236.78
521.963	40371.95
522.164	40584.94
522.366	41080.55
522.568	41252.58
522.77	41686.75
522.971	42014.42
523.173	41932.5
523.375	42327.76
523.576	42620.62
523.778	42786.5
523.98	43243.2
524.181	43564.73
524.383	43656.89
524.584	44013.24
524.786	44334.77
524.988	44230.32
525.189	44822.19
525.391	45313.7
525.592	45422.24
525.794	45813.4
525.995	45893.27
526.197	46096.02
526.398	46202.52
526.6	46810.76
526.801	46972.55
527.003	47089.29
527.204	46980.74
527.406	47879.8
527.607	47914.62
527.808	48553.58
528.01	48096.89
528.211	48086.65
528.412	49297
528.614	48625.26
528.815	48895.6
529.016	49493.6
529.218	49170.02
529.419	49374.82
529.62	49868.38
529.822	49397.35
530.023	49960.54
530.224	50038.36
530.425	50011.74
530.626	50237.01
530.828	49903.2
531.029	51428.93
531.23	50437.72
531.431	50693.71
531.632	50728.53
531.833	50830.93
532.035	50935.37
532.236	51166.79
532.437	51566.15
532.638	51041.87
532.839	51287.62
533.04	51729.98
533.241	51404.36
533.442	52051.52
533.643	51713.6
533.844	51828.29
534.045	51797.57
534.246	51322.44
534.447	52196.92
534.648	51967.55
534.849	52323.89
535.05	52018.75
535.251	52127.29
535.451	52141.63
535.652	52426.29
535.853	51803.71
536.054	52608.56
536.255	53100.08
536.456	52287.03
536.657	52934.19
536.857	52348.47
537.058	52207.16
537.259	52737.58
537.46	52559.41
537.66	52713.01
537.861	52704.82
538.062	52573.75
538.263	52897.33
538.463	52813.36
538.664	52479.54
538.865	52528.69
539.065	52710.96
539.266	52115
539.466	52928.05
539.667	52536.88
539.868	53069.36
540.068	52678.19
540.269	53026.35
540.469	53155.37
540.67	52442.68
540.87	52575.8
541.071	52381.24
541.271	52966.96
541.472	52788.78
541.672	52819.5
541.873	52543.03
542.073	52168.25
542.274	52803.12
542.474	52205.11
542.675	52454.96
542.875	53419.56
543.075	52512.31
543.276	52354.61
543.476	52878.89
543.676	52538.93
543.877	52905.52
544.077	52885.04
544.277	52295.22
544.478	52895.28
544.678	53048.88
544.878	52567.6
545.078	53063.21
545.279	52362.81
545.479	52586.03
545.679	52581.94
545.879	52606.51
546.079	52545.08
546.28	52532.79
546.48	52368.95
546.68	52680.24
546.88	52700.72
547.08	52352.57
547.28	52295.22
547.48	52016.7
547.68	52364.85
547.88	51820.09
548.081	53016.11
548.281	52430.39
548.481	52082.23
548.681	52606.51
548.881	52373.05
549.081	52090.43
549.28	52338.23
549.48	52622.9
549.68	52489.78
549.88	52753.97
550.08	52065.85
550.28	52557.36
550.48	52067.9
550.68	52663.86
550.88	52188.73
551.08	51932.73
551.279	52737.58
551.479	51574.34
551.679	52069.95
551.879	52074.04
552.079	52180.54
552.278	51592.77
552.478	52391.48
552.678	52414.01
552.878	52127.29
553.077	51902.01
553.277	51574.34
553.477	52373.05
553.676	52102.71
553.876	51588.67
554.076	52135.48
554.275	51586.63
554.475	51582.53
554.674	51648.07
554.874	51607.11
555.074	51508.8
555.273	51600.96
555.473	51816
555.672	51123.79
555.872	51029.58
556.071	51535.43
556.271	51201.61
556.47	50613.84
556.67	50984.52
556.869	50656.85
557.068	51191.37
557.268	50863.69
557.467	50943.56
557.667	50904.65
557.866	50626.13
558.065	50460.24
558.265	50191.96
558.464	50159.19
558.663	50902.6
558.863	49772.13
559.062	50423.38
559.261	49886.81
559.461	50325.08
559.66	49802.85
559.859	50019.93
560.058	49448.55
560.258	49763.93
560.457	48787.05
560.656	49550.95
560.855	48762.48
561.054	48903.79
561.253	48805.48
561.453	49059.43
561.652	49086.06
561.851	49210.98
562.05	48698.99
562.249	48461.43
562.448	48459.38
562.647	48596.59
562.846	47742.59
563.045	47998.58
563.244	47890.04
563.443	48369.27
563.642	47693.44
563.841	47560.32
564.04	47402.63
564.239	47904.38
564.438	46757.52
564.637	47146.63
564.836	47105.67
565.035	46782.09
565.234	46931.59
565.432	46657.17
565.631	46313.11
565.83	46460.56
566.029	46122.65
566.228	46108.31
566.427	46044.82
566.625	45692.57
566.824	44816.04
567.023	45692.57
567.222	44854.95
567.42	45487.78
567.619	45364.9
567.818	44707.5
568.016	44428.98
568.215	45250.21
568.414	44744.36
568.612	44324.53
568.811	44283.57
569.01	44091.06
569.208	43722.43
569.407	44015.29
569.605	43701.95
569.804	43540.16
570.002	43261.63
570.201	43554.49
570.4	43069.12
570.598	43013.83
570.797	42661.58
570.995	42546.89
571.193	42286.8
571.392	42579.66
571.59	41936.6
571.789	42014.42
571.987	42024.66
572.186	41649.88
572.384	41625.31
572.582	41596.63
572.781	41635.55
572.979	40865.51
573.177	41080.55
573.376	41098.98
573.574	40931.04
573.772	40957.67
573.971	40412.91
574.169	40132.34
574.367	40101.62
574.565	40412.91
574.763	39954.16
574.962	39974.64
575.16	39909.11
575.358	39618.3
575.556	39042.82
575.754	39610.1
575.952	39024.39
576.151	39519.99
576.349	38887.17
576.547	39233.28
576.745	38713.09
576.943	38637.32
577.141	38514.44
577.339	38502.15
577.537	38139.66
577.735	38274.83
577.933	38205.2
578.131	37977.87
578.329	37594.9
578.527	37334.81
578.725	37418.78
578.923	37646.1
579.121	37259.04
579.319	37429.02
579.516	37156.64
579.714	37060.38
579.912	37232.41
580.11	36650.79
580.308	36824.87
580.506	36681.51
580.704	35858.23
580.901	36546.34
581.099	36519.72
581.297	35966.77
581.495	35850.03
581.692	36116.27
581.89	35430.2
582.088	35858.23
582.285	35669.81
582.483	35168.06
582.681	35522.36
582.878	35145.53
583.076	35217.21
583.274	35178.3
583.471	34606.92
583.669	34531.14
583.866	34504.52
584.064	34971.46
584.262	34443.08
584.459	34271.05
584.657	34053.97
584.854	34287.43
585.052	33548.12
585.249	34332.49
585.447	34371.4
585.644	33441.62
585.841	33541.97
586.039	33556.31
586.236	33537.88
586.434	32831.33
586.631	32952.16
586.828	33396.57
587.026	33421.14
587.223	32948.06
587.42	32610.15
587.618	32720.74
587.815	32180.07
588.012	32241.51
588.21	32223.08
588.407	32458.6
588.604	31815.54
588.801	32106.35
588.999	32030.57
589.196	31868.78
589.393	31780.72
589.59	31684.47
589.787	31367.03
589.984	31571.83
590.182	31168.38
590.379	31465.33
590.576	30963.58
590.773	31414.13
590.97	30693.25
591.167	31045.5
591.364	30347.14
591.561	30775.17
591.758	30300.04
591.955	30668.67
592.152	30652.29
592.349	30140.3
592.546	30128.01
592.743	30408.58
592.94	29749.14
593.137	30224.26
593.334	29884.3
593.531	29206.42
593.727	29734.8
593.924	29849.49
594.121	29360.02
594.318	29405.08
594.515	29233.05
594.712	29366.17
594.908	29155.22
595.105	29040.54
595.302	28792.73
595.499	29151.13
595.696	28782.49
595.892	28608.42
596.089	28497.83
596.286	28966.81
596.482	28391.33
596.679	28446.63
596.876	28710.82
597.072	28438.44
597.269	28020.65
597.466	27883.44
597.662	27721.65
597.859	27803.57
598.055	27627.44
598.252	27942.83
598.448	27502.51
598.645	27529.14
598.841	27176.89
599.038	27393.97
599.234	27101.11
599.431	26947.51
599.627	26847.16
599.824	27097.02
600.02	26798.01
600.217	26550.21
600.413	26611.65
600.609	26673.09
600.806	26177.48
601.002	26251.2
601.198	26165.19
601.395	26083.27
601.591	26062.79
601.787	25917.39
601.984	25913.29
602.18	26011.59
602.376	25835.47
602.572	25696.21
602.769	25616.33
602.965	25479.12
603.161	25489.36
603.357	25468.88
603.553	25147.35
603.75	25315.28
603.946	24928.22
604.142	25137.11
604.338	24864.73
604.534	24965.08
604.73	24442.85
604.926	24834.01
605.122	24844.25
605.318	24496.1
605.514	24178.66
605.71	24299.49
605.906	24307.68
606.102	24246.24
606.298	24432.61
606.494	24193
606.69	23941.1
606.886	23959.53
607.082	23988.2
607.278	24018.92
607.474	23515.12
607.67	24016.87
607.866	23298.03
608.062	23441.39
608.257	23398.38
608.453	23058.42
608.649	23504.88
608.845	23132.15
609.041	23212.02
609.236	23355.38
609.432	23482.35
609.628	23117.81
609.824	22943.74
610.019	22841.34
610.215	22892.54
610.411	22988.79
610.606	22693.88
610.802	22816.76
610.998	22798.33
611.193	22509.57
611.389	22558.72
611.584	22614.01
611.78	22155.27
611.976	22749.18
612.171	22528
612.367	22263.81
612.562	22145.03
612.758	22210.56
612.953	22054.92
613.149	22059.01
613.344	21929.99
613.539	22472.7
613.735	22099.97
613.93	21970.95
614.126	21798.92
614.321	22069.25
614.517	21424.14
614.712	21667.85
614.907	21403.66
615.103	21671.95
615.298	21399.57
615.493	21620.75
615.688	21252.11
615.884	21471.25
616.079	21125.14
616.274	21383.18
616.47	21452.81
616.665	21252.11
616.86	20963.35
617.055	21272.59
617.25	20895.77
617.445	21071.89
617.641	20928.53
617.836	20867.09
618.031	20404.25
618.226	20967.45
618.421	20543.52
618.616	20570.14
618.811	20226.08
619.006	20688.92
619.201	20215.84
619.396	20467.74
619.591	20029.48
619.786	20281.38
619.981	19793.96
620.176	20097.06
620.371	19648.55
620.566	19664.94
620.761	19474.48
620.956	19619.88
621.151	19288.11
621.346	19611.69
621.541	19034.16
621.735	19372.08
621.93	19083.31
622.125	19030.07
622.32	18864.18
622.515	18655.29
622.709	18741.3
622.904	18362.43
623.099	18679.86
623.294	18364.48
623.488	18268.22
623.683	18436.16
623.878	18059.33
624.072	18151.49
624.267	17971.27
624.462	17696.84
624.656	17563.72
624.851	17887.3
625.046	17657.93
625.24	17582.15
625.435	17221.71
625.629	17223.76
625.824	17203.28
626.018	17113.17
626.213	16705.62
626.407	16998.48
626.602	17102.93
626.796	16773.21
626.991	16582.74
627.185	16576.6
627.38	16509.02
627.574	16339.04
627.768	16420.95
627.963	16244.83
628.157	16212.06
628.352	16224.35
628.546	15890.53
628.74	15796.32
628.935	15564.9
629.129	15618.15
629.323	15773.8
629.517	15665.25
629.712	15368.3
629.906	15446.12
630.1	15108.21
630.294	15319.15
630.489	15243.37
630.683	14942.32
630.877	14809.2
631.071	14934.13
631.265	14985.33
631.459	14534.78
631.653	14549.11
631.848	14438.52
632.042	14481.53
632.236	14465.14
632.43	14090.37
632.624	14403.71
632.818	14225.53
633.012	13971.58
633.206	14241.92
633.4	14190.72
633.594	13787.27
633.788	13930.62
633.982	13564.04
634.176	13938.82
634.369	13785.22
634.563	13441.16
634.757	13281.42
634.951	13531.27
635.145	13224.08
635.339	13328.52
635.533	13115.53
635.726	13086.86
635.92	13201.55
636.114	12998.8
636.308	12753.04
636.501	12920.98
636.695	12718.23
636.889	12863.63
637.083	12509.33
637.276	12456.09
637.47	12357.78
637.664	12570.77
637.857	12331.16
638.051	12413.08
638.244	12208.28
638.438	12267.67
638.632	11946.14
638.825	11874.46
639.019	11853.98
639.212	12021.92
639.406	12118.17
639.599	11712.67
639.793	11638.95
639.986	11561.12
640.18	11808.93
640.373	11622.56
640.567	11530.41
640.76	11561.12
640.954	11401.38
641.147	11149.48
641.34	11102.38
641.534	11079.85
641.727	10926.25
641.92	11161.77
642.114	10967.21
642.307	10764.47
642.5	10975.41
642.694	10809.52
642.887	10715.31
643.08	10670.26
643.273	10686.64
643.467	10549.43
643.66	10551.48
643.853	10166.46
644.046	10188.99
644.239	10275
644.432	10131.64
644.626	10162.36
644.819	10207.42
645.012	10191.03
645.205	10113.21
645.398	10012.86
645.591	9914.56
645.784	9887.93
645.977	9711.81
646.17	9816.26
646.363	9576.64
646.556	9681.09
646.749	9472.2
646.942	9652.42
647.135	9375.94
647.328	9267.4
647.521	9406.66
647.714	9343.17
647.907	9341.13
648.099	9124.04
648.292	9214.15
648.485	9146.57
648.678	9052.36
648.871	9062.6
649.064	9214.15
649.256	9138.38
649.449	8829.13
649.642	8964.3
649.835	8939.72
650.027	8753.36
650.22	8700.11
650.413	8614.1
650.605	8624.34
650.798	8632.53
650.991	8671.44
651.183	8605.91
651.376	8321.24
651.568	8392.92
651.761	8417.49
651.954	8343.77
652.146	8278.23
652.339	8245.46
652.531	8077.53
652.724	8249.56
652.916	7962.84
653.109	7991.52
653.301	8120.54
653.494	8149.21
653.686	8001.76
653.879	8083.67
654.071	7876.83
654.263	7762.14
654.456	7856.35
654.648	7823.58
654.84	7737.57
655.033	7559.39
655.225	7610.59
655.417	7508.19
655.61	7635.17
655.802	7622.88
655.994	7590.11
656.186	7450.85
656.379	7350.5
656.571	7514.34
656.763	7407.84
656.955	7348.45
657.148	7399.65
657.34	7555.3
657.532	7053.55
657.724	7074.03
657.916	7305.45
658.108	7244.01
658.3	7153.9
658.492	7153.9
658.684	6988.01
658.876	7088.36
659.068	6965.48
659.26	6899.95
659.452	7069.93
659.644	6822.13
659.836	6643.95
660.028	6840.56
660.22	6717.68
660.412	6729.97
660.604	6797.55
660.796	6803.69
660.988	6549.75
661.18	6639.86
661.372	6609.14
661.563	6594.8
661.755	6437.11
661.947	6537.46
662.139	6435.06
662.331	6344.95
662.522	6543.6
662.714	6336.76
662.906	6213.88
663.097	6344.95
663.289	6201.59
663.481	6275.32
663.673	6275.32
663.864	6185.21
664.056	6166.78
664.247	6119.67
664.439	6091
664.631	6236.41
664.822	6226.17
665.014	6318.32
665.205	6174.97
665.397	6105.34
665.588	6097.14
665.78	5863.68
665.971	5908.73
666.163	5980.41
666.354	6074.62
666.546	5949.69
666.737	5861.63
666.929	5986.55
667.12	6156.54
667.311	5923.07
667.503	5812.48
667.694	5978.36
667.885	5808.38
668.077	5916.92
668.268	5779.71
668.459	5826.81
668.651	5869.82
668.842	5753.09
669.033	5642.5
669.224	5763.33
669.416	5818.62
669.607	5662.97
669.798	5699.84
669.989	5769.47
670.18	5658.88
670.371	5728.51
670.563	5935.35
670.754	5613.82
670.945	5595.39
671.136	5613.82
671.327	5595.39
671.518	5689.6
671.709	5607.68
671.9	5603.58
672.091	5615.87
672.282	5443.84
672.473	5640.45
672.664	5656.83
672.855	5572.86
673.046	5495.04
673.237	5658.88
673.428	5644.54
673.619	5513.47
673.809	5603.58
674	5484.8
674.191	5556.48
674.382	5499.14
674.573	5585.15
674.764	5624.06
674.954	5609.73
675.145	5394.69
675.336	5501.19
675.527	5443.84
675.717	5556.48
675.908	5470.47
676.099	5607.68
676.289	5505.28
676.48	5478.66
676.671	5613.82
676.861	5509.38
677.052	5542.14
677.243	5490.95
677.433	5574.91
677.624	5796.09
677.814	5628.16
678.005	5687.55
678.195	5599.49
678.386	5677.31
678.576	5613.82
678.767	5542.14
678.957	5681.41
679.148	5884.16
679.338	5695.74
679.529	5689.6
679.719	5665.02
679.909	5718.27
680.1	5779.71
680.29	5878.01
680.481	5523.71
680.671	5746.94
680.861	5816.57
681.052	5693.69
681.242	5820.67
681.432	5673.21
681.622	5789.95
681.813	5800.19
682.003	5673.21
682.193	5785.85
682.383	5746.94
682.573	5861.63
682.764	5785.85
682.954	5918.97
683.144	5908.73
683.334	5812.48
683.524	5769.47
683.714	5966.07
683.904	5751.04
684.094	5986.55
684.284	5851.39
684.474	5904.64
684.664	5824.76
684.854	5937.4
685.044	5861.63
685.234	5802.24
685.424	5656.83
685.614	5667.07
685.804	5771.52
685.994	5738.75
686.184	5865.72
686.374	5888.25
686.564	5699.84
686.753	5693.69
686.943	5763.33
687.133	5755.13
687.323	5619.97
687.513	5681.41
687.702	5624.06
687.892	5660.93
688.082	5607.68
688.272	5759.23
688.461	5665.02
688.651	5517.57
688.841	5566.72
689.03	5488.9
689.22	5544.19
689.41	5335.3
689.599	5398.79
689.789	5435.65
689.979	5484.8
690.168	5329.16
690.358	5312.77
690.547	5245.19
690.737	5204.23
690.926	5148.93
691.116	5058.82
691.305	5173.51
691.495	5067.02
691.684	5163.27
691.874	5110.02
692.063	4966.67
692.252	5017.86
692.442	5017.86
692.631	4978.95
692.82	4960.52
693.01	4978.95
693.199	4915.47
693.388	4911.37
693.578	4804.88
693.767	4851.98
693.956	4894.99
694.146	4770.06
694.335	4950.28
694.524	4917.51
694.713	4780.3
694.902	4808.97
695.092	4772.11
695.281	4837.64
695.47	4755.72
695.659	4686.09
695.848	4583.7
696.037	4720.91
696.226	4739.34
696.415	4722.96
696.604	4587.79
696.793	4655.37
696.982	4835.6
697.171	4741.39
697.36	4663.57
697.549	4552.98
697.738	4540.69
697.927	4565.26
698.116	4641.04
698.305	4716.81
698.494	4628.75
698.683	4540.69
698.872	4579.6
699.061	4583.7
699.25	4665.61
699.438	4606.22
699.627	4518.16
699.816	4518.16
700.005	4417.81
700.193	4487.44
700.382	4563.22
700.571	4493.58
700.76	4460.82
700.948	4536.59
701.137	4710.67
701.326	4684.05
701.514	4647.18
701.703	4622.61
701.892	4452.63
702.08	4686.09
702.269	4577.55
702.457	4557.07
702.646	4561.17
702.834	4610.32
703.023	4509.97
703.212	4702.48
703.4	4706.57
703.589	4512.02
703.777	4659.47
703.965	4501.78
704.154	4579.6
704.342	4522.26
704.531	4653.33
704.719	4622.61
704.907	4641.04
705.096	4534.54
705.284	4747.53
705.472	4745.48
705.661	4624.65
705.849	4749.58
706.037	4725.01
706.226	4688.14
706.414	4708.62
706.602	4518.16
706.79	4792.59
706.979	4854.03
707.167	4843.79
707.355	4575.5
707.543	4659.47
707.731	4808.97
707.919	4757.77
708.107	4884.75
708.296	4638.99
708.484	4706.57
708.672	4851.98
708.86	4708.62
709.048	4933.9
709.236	4882.7
709.424	4747.53
709.612	4851.98
709.8	4858.12
709.988	4974.86
710.176	4923.66
710.364	4835.6
710.551	4868.36
710.739	4925.71
710.927	4993.29
711.115	4940.04
711.303	5007.62
711.491	4829.45
711.679	4954.38
711.866	5030.15
712.054	5116.17
712.242	5140.74
712.43	5026.06
712.617	5034.25
712.805	5017.86
712.993	4997.39
713.181	5105.93
713.368	5269.76
713.556	5253.38
713.744	5218.57
713.931	5306.63
714.119	5189.89
714.306	5157.13
714.494	5404.93
714.682	5116.17
714.869	5216.52
715.057	5171.46
715.244	5308.68
715.432	5255.43
715.619	5226.76
715.807	5265.67
715.994	5198.09
716.182	5237
716.369	5480.71
716.556	5488.9
716.744	5372.16
716.931	5398.79
717.119	5386.5
717.306	5370.12
717.493	5474.56
717.681	5667.07
717.868	5482.75
718.055	5562.62
718.242	5431.55
718.43	5566.72
718.617	5619.97
718.804	5449.99
718.991	5490.95
719.179	5456.13
719.366	5662.97
719.553	5576.96
719.74	5638.4
719.927	5519.62
720.114	5560.58
720.301	5607.68
720.488	5523.71
720.676	5542.14
720.863	5708.03
721.05	5820.67
721.237	5589.25
721.424	5775.61
721.611	5826.81
721.798	5634.3
721.985	5714.17
722.172	5697.79
722.358	5820.67
722.545	5763.33
722.732	5857.53
722.919	5808.38
723.106	5734.65
723.293	5890.3
723.48	5839.1
723.667	5927.16
723.853	5824.76
724.04	5976.31
724.227	5949.69
724.414	5925.11
724.6	5929.21
724.787	6050.04
724.974	6052.09
725.161	6088.95
725.347	5935.35
725.534	6082.81
725.72	6068.47
725.907	5984.51
726.094	5896.44
726.28	6086.9
726.467	6162.68
726.653	5945.59
726.84	6107.38
727.027	6181.11
727.213	5947.64
727.4	6111.48
727.586	6150.39
727.773	6191.35
727.959	6127.86
728.145	6150.39
728.332	6060.28
728.518	6172.92
728.705	6107.38
728.891	6152.44
729.077	6179.06
729.264	6078.71
729.45	6033.66
729.636	6113.53
729.823	6123.77
730.009	6070.52
730.195	6312.18
730.382	6410.48
730.568	6140.15
730.754	6246.65
730.94	6181.11
731.126	6355.19
731.313	6408.44
731.499	6275.32
731.685	6220.02
731.871	6238.45
732.057	6344.95
732.243	6318.32
732.429	6287.61
732.615	6357.24
732.801	6244.6
732.987	6344.95
733.173	6246.65
733.359	6402.29
733.545	6174.97
733.731	6263.03
733.917	6293.75
734.103	6476.02
734.289	6426.87
734.475	6316.28
734.661	6574.32
734.847	6564.08
735.033	6416.63
735.219	6385.91
735.404	6353.14
735.59	6299.89
735.776	6465.78
735.962	6516.98
736.148	6523.12
736.333	6320.37
736.519	6299.89
736.705	6381.81
736.89	6367.48
737.076	6412.53
737.262	6224.12
737.447	6351.09
737.633	6297.85
737.819	6383.86
738.004	6213.88
738.19	6254.84
738.375	6299.89
738.561	6369.52
738.747	5961.98
738.932	6303.99
739.118	6310.13
739.303	6328.56
739.489	6363.38
739.674	6254.84
739.859	6322.42
740.045	6244.6
740.23	6303.99
740.416	6209.78
740.601	6185.21
740.786	6123.77
740.972	6099.19
741.157	6052.09
741.342	6056.18
741.528	5996.79
741.713	5906.68
741.898	6109.43
742.084	6009.08
742.269	6000.89
742.454	6011.13
742.639	5968.12
742.824	5968.12
743.01	6033.66
743.195	5966.07
743.38	5886.2
743.565	5970.17
743.75	5835
743.935	5837.05
744.12	5771.52
744.305	5839.1
744.49	5759.23
744.675	5794.04
744.86	5542.14
745.045	5630.21
745.23	5566.72
745.415	5763.33
745.6	5638.4
745.785	5507.33
745.97	5583.1
746.155	5529.86
746.34	5658.88
746.525	5327.11
746.71	5548.29
746.895	5396.74
747.079	5423.36
747.264	5286.15
747.449	5353.73
747.634	5380.36
747.819	5265.67
748.003	5146.89
748.188	5155.08
748.373	4946.19
748.557	5181.7
748.742	5019.91
748.927	5120.26
749.111	4911.37
749.296	5021.96
749.481	5040.39
749.665	4993.29
749.85	4735.25
750.034	4964.62
750.219	4714.77
750.404	4835.6
750.588	4735.25
750.773	4612.37
750.957	4583.7
751.141	4622.61
751.326	4622.61
751.51	4382.99
751.695	4677.9
751.879	4524.3
752.064	4550.93
752.248	4426
752.432	4534.54
752.617	4428.05
752.801	4309.27
752.985	4327.7
753.17	4370.71
753.354	4313.36
753.538	4423.95
753.722	4204.82
753.907	4219.16
754.091	4215.06
754.275	4157.72
754.459	4083.99
754.643	4114.71
754.828	4022.55
755.012	4067.61
755.196	4059.42
755.38	3856.67
755.564	3811.61
755.748	3825.95
755.932	3893.53
756.116	4038.94
756.3	3901.72
756.484	3782.94
756.668	3879.19
756.852	3834.14
757.036	3748.12
757.22	3639.58
757.404	3617.05
757.588	3526.94
757.772	3670.3
757.956	3500.32
758.14	3612.96
758.323	3428.64
758.507	3600.67
758.691	3432.74
758.875	3410.21
759.059	3516.7
759.242	3506.46
759.426	3379.49
759.61	3281.19
759.794	3412.26
759.977	3352.87
760.161	3350.82
760.345	3371.3
760.528	3240.23
760.712	3213.6
760.895	3168.55
761.079	3346.72
761.263	3088.68
761.446	3057.96
761.63	3164.45
761.813	3109.16
761.997	3164.45
762.18	3158.31
762.364	3088.68
762.547	3096.87
762.731	2957.61
762.914	2984.23
763.098	2906.41
763.281	2859.31
763.464	3002.66
763.648	2928.94
763.831	2894.12
764.015	2861.35
764.198	2951.46
764.381	2949.42
764.564	2879.79
764.748	2951.46
764.931	2937.13
765.114	2722.09
765.297	2738.48
765.481	2781.48
765.664	2761
765.847	2734.38
766.03	2765.1
766.213	2642.22
766.397	2711.85
766.58	2691.37
766.763	2738.48
766.946	2636.08
767.129	2568.49
767.312	2539.82
767.495	2554.16
767.678	2482.48
767.861	2572.59
768.044	2490.67
768.227	2605.36
768.41	2552.11
768.593	2666.8
768.776	2431.28
768.959	2527.53
769.142	2502.96
769.324	2443.57
769.507	2502.96
769.69	2435.38
769.873	2492.72
770.056	2539.82
770.239	2433.33
770.421	2337.07
770.604	2271.54
770.787	2457.9
770.97	2378.03
771.152	2199.86
771.335	2332.98
771.518	2281.78
771.7	2246.96
771.883	2349.36
772.066	2234.68
772.248	2314.55
772.431	2232.63
772.613	2289.97
772.796	2304.31
772.978	2165.04
773.161	2240.82
773.343	2091.32
773.526	1999.16
773.708	1972.54
773.891	2048.31
774.073	2074.93
774.256	2048.31
774.438	2068.79
774.621	2009.4
774.803	1999.16
774.985	1954.1
775.168	2042.17
775.35	1970.49
775.532	1919.29
775.715	1863.99
775.897	1945.91
776.079	1894.71
776.261	1870.14
776.444	1937.72
776.626	1761.59
776.808	1870.14
776.99	1933.62
777.173	1782.07
777.355	1786.17
777.537	1706.3
777.719	1737.02
777.901	1683.77
778.083	1839.42
778.265	1663.29
778.447	1667.39
778.629	1675.58
778.811	1661.24
778.993	1696.06
779.175	1694.01
779.357	1620.28
779.539	1601.85
779.721	1552.7
779.903	1544.51
780.085	1493.31
780.267	1573.18
780.449	1571.13
780.631	1560.89
780.812	1538.37
780.994	1413.44
781.176	1483.07
781.358	1552.7
781.54	1513.79
781.721	1395.01
781.903	1306.95
782.085	1331.52
782.267	1376.58
782.448	1378.62
782.63	1403.2
782.812	1319.23
782.993	1380.67
783.175	1292.61
783.357	1321.28
783.538	1392.96
783.72	1237.31
783.901	1345.86
784.083	1263.94
784.264	1222.98
784.446	1257.79
784.627	1192.26
784.809	1339.71
784.99	1194.31
785.172	1208.64
785.353	1220.93
785.535	1255.75
785.716	1243.46
785.897	1208.64
786.079	1061.19
786.26	1153.35
786.441	1100.1
786.623	1136.96
786.804	1098.05
786.985	1184.07
787.167	1050.95
787.348	1053
787.529	1173.83
787.71	1091.91
787.891	1005.89
788.073	1118.53
788.254	975.17
788.435	1093.96
788.616	1020.23
788.797	975.17
788.978	938.31
789.159	1030.47
789.34	993.61
789.522	1024.33
789.703	997.7
789.884	983.37
790.065	938.31
790.246	989.51
790.427	928.07
790.607	932.17
790.788	905.54
790.969	876.87
791.15	913.74
791.331	942.41
791.512	831.82
791.693	921.93
791.874	919.88
792.054	909.64
792.235	919.88
792.416	840.01
792.597	827.72
792.778	856.39
792.958	971.08
793.139	864.58
793.32	866.63
793.5	823.62
793.681	848.2
793.862	788.81
794.042	803.15
794.223	717.13
794.404	878.92
794.584	776.52
794.765	788.81
794.945	780.62
795.126	778.57
795.306	880.97
795.487	723.27
795.667	772.43
795.848	749.9
796.028	786.76
796.209	756.04
796.389	753.99
796.57	749.9
796.75	639.31
796.93	735.56
797.111	676.17
797.291	667.98
797.471	647.5
797.652	667.98
797.832	753.99
798.012	700.75
798.192	643.4
798.373	725.32
798.553	715.08
798.733	653.64
798.913	706.89
799.093	614.73
799.274	667.98
799.454	696.65
799.634	684.36
799.814	686.41
799.994	651.6
800.174	663.88
800.354	725.32
800.534	602.44
800.714	643.4
800.894	647.5
801.074	594.25
801.254	614.73
801.434	594.25
801.614	692.55
801.794	559.44
801.974	1308.99
802.154	491.85
802.334	692.55
802.514	549.2
802.693	549.2
802.873	543.05
803.053	577.87
803.233	565.58
803.413	592.2
803.592	627.02
803.772	610.64
803.952	606.54
804.131	594.25
804.311	565.58
804.491	565.58
804.67	471.37
804.85	536.91
805.03	532.81
805.209	620.88
805.389	454.99
805.568	526.67
805.748	491.85
805.928	545.1
806.107	461.13
806.287	471.37
806.466	541.01
806.646	508.24
806.825	495.95
807.004	485.71
807.184	495.95
807.363	493.9
807.543	569.68
807.722	477.52
807.901	479.57
808.081	510.29
808.26	393.55
808.439	518.48
808.619	553.29
808.798	446.8
808.977	418.13
809.156	465.23
809.336	397.65
809.515	414.03
809.694	442.7
809.873	409.94
810.052	424.27
810.231	411.98
810.411	362.83
810.59	485.71
810.769	502.09
810.948	463.18
811.127	362.83
811.306	471.37
811.485	364.88
811.664	436.56
811.843	393.55
812.022	469.33
812.201	387.41
812.38	426.32
812.559	377.17
812.737	440.65
812.916	434.51
813.095	336.21
813.274	399.7
813.453	344.4
813.632	407.89
813.811	381.26
813.989	330.06
814.168	366.93
814.347	373.07
814.526	375.12
814.704	491.85
814.883	381.26
815.062	362.83
815.24	411.98
815.419	387.41
815.598	362.83
815.776	336.21
815.955	352.59
816.133	317.78
816.312	387.41
816.49	315.73
816.669	377.17
816.847	381.26
817.026	448.85
817.204	299.34
817.383	467.28
817.561	319.82
817.74	352.59
817.918	321.87
818.097	287.06
818.275	323.92
818.453	401.74
818.632	274.77
818.81	387.41
818.988	262.48
819.167	358.74
819.345	323.92
819.523	325.97
819.701	360.78
819.879	405.84
820.058	244.05
820.236	323.92
820.414	307.54
820.592	291.15
820.77	332.11
820.948	285.01
821.127	262.48
821.305	299.34
821.483	221.52
821.661	334.16
821.839	311.63
822.017	354.64
822.195	254.29
822.373	280.91
822.551	328.02
822.729	323.92
822.907	237.91
823.085	237.91
823.262	340.3
823.44	289.1
823.618	319.82
823.796	268.63
823.974	188.75
824.152	282.96
824.329	274.77
824.507	317.78
824.685	297.3
824.863	346.45
825.04	248.15
825.218	328.02
825.396	270.67
825.574	268.63
825.751	307.54
825.929	338.26
826.107	229.71
826.284	270.67
826.462	282.96
826.639	254.29
826.817	225.62
826.994	295.25
827.172	221.52
827.349	260.43
827.527	262.48
827.704	225.62
827.882	280.91
828.059	155.99
828.237	231.76
828.414	340.3
828.591	166.23
828.769	233.81
828.946	184.66
829.124	252.24
829.301	276.82
829.478	258.39
829.655	258.39
829.833	250.19
830.01	244.05
830.187	254.29
830.364	254.29
830.542	217.43
830.719	233.81
830.896	266.58
831.073	287.06
831.25	280.91
831.427	207.19
831.604	280.91
831.782	217.43
831.959	125.27
832.136	203.09
832.313	289.1
832.49	242
832.667	221.52
832.844	237.91
833.021	237.91
833.198	258.39
833.374	158.03
833.551	131.41
833.728	246.1
833.905	209.23
834.082	180.56
834.259	180.56
834.436	246.1
834.612	131.41
834.789	186.71
834.966	182.61
835.143	235.86
835.319	180.56
835.496	225.62
835.673	139.6
835.85	205.14
836.026	147.8
836.203	213.33
836.38	180.56
836.556	141.65
836.733	184.66
836.909	221.52
837.086	184.66
837.262	123.22
837.439	192.85
837.616	147.8
837.792	129.36
837.968	127.32
838.145	29.01
838.321	260.43
838.498	176.47
838.674	141.65
838.851	174.42
839.027	164.18
839.203	131.41
839.38	168.27
839.556	158.03
839.732	139.6
839.909	205.14
840.085	188.75
840.261	147.8
840.437	133.46
840.614	139.6
840.79	196.95
840.966	147.8
841.142	262.48
841.318	155.99
841.494	184.66
841.671	225.62
841.847	110.93
842.023	162.13
842.199	123.22
842.375	209.23
842.551	110.93
842.727	106.84
842.903	209.23
843.079	115.03
843.255	219.47
843.431	86.36
843.607	125.27
843.783	59.73
843.959	213.33
844.134	129.36
844.31	213.33
844.486	51.54
844.662	43.35
844.838	139.6
845.013	170.32
845.189	176.47
845.365	198.99
845.541	166.23
845.716	127.32
845.892	205.14
846.068	119.12
846.244	155.99
846.419	143.7
846.595	119.12
846.77	166.23
846.946	174.42
847.122	92.5
847.297	53.59
847.473	221.52
847.648	51.54
847.824	110.93
847.999	51.54
848.175	112.98
848.35	158.03
848.526	166.23
848.701	112.98
848.876	127.32
849.052	96.6
849.227	131.41
849.403	186.71
849.578	55.64
849.753	98.64
849.929	119.12
850.104	57.68
850.279	129.36
850.454	151.89
850.63	119.12
850.805	102.74
850.98	168.27
851.155	80.21
851.33	96.6
851.505	155.99
851.681	143.7
851.856	160.08
852.031	117.08
852.206	67.92
852.381	45.4
852.556	16.73
852.731	110.93
852.906	119.12
853.081	127.32
853.256	123.22
853.431	110.93
853.606	59.73
853.781	53.59
853.956	80.21
854.131	82.26
854.305	117.08
854.48	92.5
854.655	37.2
854.83	29.01
855.005	90.45
855.18	129.36
855.354	76.12
855.529	53.59
855.704	162.13
855.879	117.08
856.053	65.88
856.228	90.45
856.403	45.4
856.577	108.88
856.752	59.73
856.926	84.31
857.101	61.78
857.276	78.16
857.45	90.45
857.625	106.84
857.799	65.88
857.974	117.08
858.148	84.31
858.323	110.93
858.497	45.4
858.672	31.06
858.846	61.78
859.02	100.69
859.195	61.78
859.369	84.31
859.543	92.5
859.718	78.16
859.892	53.59
860.066	0.34
860.241	12.63
860.415	35.16
860.589	61.78
860.763	29.01
860.938	35.16
861.112	194.9
861.286	121.17
861.46	106.84
861.634	86.36
861.808	115.03
861.982	78.16
862.157	43.35
862.331	90.45
862.505	63.83
862.679	4.44
862.853	82.26
863.027	53.59
863.201	57.68
863.375	-34.47
863.549	112.98
863.722	74.07
863.896	94.55
864.07	-3.75
864.244	37.2
864.418	82.26
864.592	90.45
864.766	88.4
864.939	-30.38
865.113	-3.75
865.287	72.02
865.461	10.58
865.634	53.59
865.808	84.31
865.982	49.49
866.156	39.25
866.329	29.01
866.503	-20.14
866.676	88.4
866.85	69.97
867.024	112.98
867.197	59.73
867.371	4.44
867.544	-65.19
867.718	29.01
867.891	86.36
868.065	-28.33
868.238	61.78
868.412	69.97
868.585	49.49
868.759	61.78
868.932	4.44
869.105	16.73
869.279	94.55
869.452	53.59
869.625	82.26
869.799	-7.85
869.972	-44.71
870.145	78.16
870.319	29.01
870.492	110.93
870.665	-5.8
870.838	31.06
871.011	-32.43
871.185	49.49
871.358	84.31
871.531	82.26
871.704	84.31
871.877	51.54
872.05	-13.99
872.223	45.4
872.396	84.31
872.569	39.25
872.742	67.92
872.915	45.4
873.088	-18.09
873.261	53.59
873.434	61.78
873.607	45.4
873.78	57.68
873.953	-20.14
874.126	26.96
874.299	100.69
874.471	92.5
874.644	59.73
874.817	2.39
874.99	76.12
875.163	41.3
875.335	26.96
875.508	-36.52
875.681	24.92
875.853	-1.71
876.026	37.2
876.199	6.49
876.371	24.92
876.544	0.34
876.717	96.6
876.889	12.63
877.062	59.73
877.234	35.16
877.407	35.16
877.579	37.2
877.752	20.82
877.924	90.45
878.097	86.36
878.269	16.73
878.442	84.31
878.614	127.32
878.786	86.36
878.959	76.12
879.131	82.26
879.303	41.3
879.476	88.4
879.648	74.07
879.82	102.74
879.993	16.73
880.165	45.4
880.337	2.39
880.509	-24.23
880.681	-5.8
880.854	10.58
881.026	-11.95
881.198	133.46
881.37	12.63
881.542	76.12
881.714	20.82
881.886	6.49
882.058	131.41
882.23	37.2
882.402	2.39
882.574	61.78
882.746	45.4
882.918	22.87
883.09	20.82
883.262	-11.95
883.434	106.84
883.606	-13.99
883.778	31.06
883.95	139.6
884.122	51.54
884.293	26.96
884.465	4.44
884.637	29.01
884.809	-16.04
884.98	69.97
885.152	0.34
885.324	47.44
885.496	74.07
885.667	53.59
885.839	29.01
886.011	125.27
886.182	41.3
886.354	10.58
886.525	0.34
886.697	41.3
886.869	24.92
887.04	12.63
887.212	12.63
887.383	102.74
887.555	37.2
887.726	0.34
887.897	-5.8
888.069	10.58
888.24	8.53
888.412	12.63
888.583	-20.14
888.754	31.06
888.926	-52.91
889.097	-40.62
889.268	41.3
889.44	78.16
889.611	16.73
889.782	45.4
889.953	2.39
890.125	72.02
890.296	-61.1
890.467	35.16
890.638	-11.95
890.809	-24.23
890.98	26.96
891.151	33.11
891.323	76.12
891.494	41.3
891.665	-20.14
891.836	18.77
892.007	43.35
892.178	18.77
892.349	8.53
892.52	-1.71
892.691	29.01
892.862	-36.52
893.032	-46.76
893.203	-28.33
893.374	37.2
893.545	33.11
893.716	-38.57
893.887	39.25
894.057	2.39
894.228	24.92
894.399	-22.19
894.57	35.16
894.74	16.73
894.911	45.4
895.082	26.96
895.253	18.77
895.423	31.06
895.594	76.12
895.764	20.82
895.935	0.34
896.106	61.78
896.276	0.34
896.447	35.16
896.617	-3.75
896.788	-50.86
896.958	-28.33
897.129	-52.91
897.299	12.63
897.47	106.84
897.64	31.06
897.81	-24.23
897.981	92.5
898.151	22.87
898.322	-26.28
898.492	16.73
898.662	57.68
898.832	45.4
899.003	-40.62
899.173	51.54
899.343	-11.95
899.513	-9.9
