Data from USB4F104151__86__11-32-01-190.txt Node

Date: Fri Mar 14 11:32:01 EDT 2025
User: louis
Spectrometer: USB4F10415
Trigger mode: 4
Integration Time (sec): 5.000000E-2
Scans to average: 1
Electric dark correction enabled: true
Nonlinearity correction enabled: false
Boxcar width: 0
XAxis mode: Wavelengths
Number of Pixels in Spectrum: 3648
>>>>>Begin Spectral Data<<<<<
178.204	-193.87
178.424	-193.87
178.644	-193.87
178.864	-189.78
179.084	-128.34
179.304	-11.61
179.524	-25.94
179.744	-95.57
179.964	2.73
180.184	35.5
180.404	10.92
180.624	49.83
180.844	64.17
181.064	2.73
181.283	-15.7
181.503	-9.56
181.723	-7.51
181.943	-54.61
182.163	109.22
182.383	-27.99
182.602	-5.46
182.822	60.07
183.042	0.68
183.262	-30.04
183.482	6.83
183.701	19.11
183.921	60.07
184.141	-5.46
184.361	60.07
184.58	-7.51
184.8	-48.47
185.02	27.31
185.239	8.87
185.459	-9.56
185.679	72.36
185.898	-7.51
186.118	-3.41
186.338	-5.46
186.557	70.31
186.777	-79.19
186.997	-21.85
187.216	-7.51
187.436	80.55
187.655	76.46
187.875	31.4
188.095	23.21
188.314	23.21
188.534	6.83
188.753	27.31
188.973	43.69
189.192	27.31
189.412	39.59
189.631	39.59
189.851	43.69
190.07	105.13
190.29	2.73
190.509	39.59
190.729	64.17
190.948	15.02
191.168	96.94
191.387	68.27
191.607	-13.65
191.826	27.31
192.045	-40.28
192.265	51.88
192.484	-5.46
192.704	6.83
192.923	15.02
193.142	80.55
193.362	10.92
193.581	82.6
193.8	84.65
194.02	2.73
194.239	-11.61
194.458	125.61
194.678	-5.46
194.897	-5.46
195.116	31.4
195.335	2.73
195.555	31.4
195.774	51.88
195.993	101.03
196.212	53.93
196.432	10.92
196.651	8.87
196.87	-5.46
197.089	80.55
197.308	82.6
197.528	94.89
197.747	19.11
197.966	55.98
198.185	19.11
198.404	107.18
198.623	31.4
198.842	43.69
199.062	10.92
199.281	55.98
199.5	47.79
199.719	27.31
199.938	33.45
200.157	51.88
200.376	37.55
200.595	74.41
200.814	15.02
201.033	-62.8
201.252	-38.23
201.471	60.07
201.69	49.83
201.909	2.73
202.128	-32.08
202.347	105.13
202.566	-23.89
202.785	-66.9
203.004	-97.62
203.223	123.56
203.442	-62.8
203.661	6.83
203.879	19.11
204.098	84.65
204.317	2.73
204.536	53.93
204.755	51.88
204.974	31.4
205.193	43.69
205.411	80.55
205.63	-64.85
205.849	8.87
206.068	31.4
206.287	35.5
206.505	-19.8
206.724	-40.28
206.943	-38.23
207.162	-50.52
207.381	27.31
207.599	-54.61
207.818	0.68
208.037	43.69
208.255	-66.9
208.474	39.59
208.693	31.4
208.911	33.45
209.13	88.75
209.349	-23.89
209.567	-56.66
209.786	-5.46
210.005	60.07
210.223	66.22
210.442	-71
210.661	-13.65
210.879	-19.8
211.098	41.64
211.316	43.69
211.535	68.27
211.753	29.35
211.972	-25.94
212.191	19.11
212.409	80.55
212.628	103.08
212.846	10.92
213.065	76.46
213.283	35.5
213.502	60.07
213.72	17.07
213.938	53.93
214.157	8.87
214.375	19.11
214.594	15.02
214.812	8.87
215.031	-7.51
215.249	60.07
215.467	-32.08
215.686	4.78
215.904	35.5
216.122	78.51
216.341	43.69
216.559	-44.37
216.778	2.73
216.996	41.64
217.214	39.59
217.432	6.83
217.651	39.59
217.869	55.98
218.087	58.03
218.306	-21.85
218.524	60.07
218.742	49.83
218.96	62.12
219.179	-46.42
219.397	23.21
219.615	43.69
219.833	41.64
220.051	2.73
220.27	43.69
220.488	66.22
220.706	-46.42
220.924	-11.61
221.142	-21.85
221.36	41.64
221.578	-30.04
221.796	84.65
222.015	64.17
222.233	49.83
222.451	76.46
222.669	-5.46
222.887	148.14
223.105	10.92
223.323	0.68
223.541	39.59
223.759	19.11
223.977	19.11
224.195	49.83
224.413	66.22
224.631	-1.37
224.849	19.11
225.067	94.89
225.285	-9.56
225.503	-60.76
225.721	19.11
225.939	35.5
226.157	-42.32
226.375	154.28
226.592	-23.89
226.81	12.97
227.028	82.6
227.246	92.84
227.464	55.98
227.682	-21.85
227.9	31.4
228.117	-52.56
228.335	-1.37
228.553	-23.89
228.771	51.88
228.989	43.69
229.206	37.55
229.424	-58.71
229.642	6.83
229.86	47.79
230.077	31.4
230.295	12.97
230.513	2.73
230.731	19.11
230.948	45.74
231.166	82.6
231.384	-34.13
231.601	-124.24
231.819	96.94
232.037	33.45
232.254	-5.46
232.472	2.73
232.689	-15.7
232.907	45.74
233.125	10.92
233.342	-13.65
233.56	8.87
233.777	72.36
233.995	-13.65
234.213	94.89
234.43	-5.46
234.648	66.22
234.865	12.97
235.083	31.4
235.3	10.92
235.518	-13.65
235.735	74.41
235.953	47.79
236.17	10.92
236.388	76.46
236.605	-17.75
236.822	66.22
237.04	88.75
237.257	19.11
237.475	-3.41
237.692	-1.37
237.909	2.73
238.127	4.78
238.344	72.36
238.562	37.55
238.779	25.26
238.996	-1.37
239.214	10.92
239.431	125.61
239.648	17.07
239.865	31.4
240.083	41.64
240.3	-9.56
240.517	-23.89
240.735	-1.37
240.952	51.88
241.169	0.68
241.386	8.87
241.603	41.64
241.821	10.92
242.038	78.51
242.255	80.55
242.472	6.83
242.689	68.27
242.907	35.5
243.124	-30.04
243.341	12.97
243.558	-34.13
243.775	-64.85
243.992	-11.61
244.209	10.92
244.426	51.88
244.643	-5.46
244.86	4.78
245.078	39.59
245.295	76.46
245.512	25.26
245.729	29.35
245.946	8.87
246.163	4.78
246.38	-30.04
246.597	17.07
246.814	-19.8
247.031	-19.8
247.248	-5.46
247.464	25.26
247.681	-9.56
247.898	82.6
248.115	25.26
248.332	55.98
248.549	88.75
248.766	84.65
248.983	60.07
249.2	0.68
249.417	53.93
249.633	-13.65
249.85	27.31
250.067	-9.56
250.284	15.02
250.501	80.55
250.717	49.83
250.934	-87.38
251.151	19.11
251.368	115.37
251.585	80.55
251.801	66.22
252.018	-48.47
252.235	105.13
252.451	-32.08
252.668	43.69
252.885	27.31
253.102	43.69
253.318	21.16
253.535	62.12
253.752	-7.51
253.968	70.31
254.185	-21.85
254.401	-58.71
254.618	70.31
254.835	27.31
255.051	94.89
255.268	29.35
255.484	45.74
255.701	-13.65
255.917	35.5
256.134	33.45
256.351	109.22
256.567	15.02
256.784	-5.46
257	-62.8
257.217	53.93
257.433	80.55
257.65	60.07
257.866	51.88
258.082	-42.32
258.299	-36.18
258.515	15.02
258.732	23.21
258.948	-5.46
259.165	25.26
259.381	-1.37
259.597	0.68
259.814	60.07
260.03	35.5
260.246	17.07
260.463	82.6
260.679	119.46
260.895	-13.65
261.112	58.03
261.328	58.03
261.544	41.64
261.761	74.41
261.977	23.21
262.193	-23.89
262.409	37.55
262.626	74.41
262.842	0.68
263.058	51.88
263.274	70.31
263.49	55.98
263.707	103.08
263.923	49.83
264.139	-46.42
264.355	72.36
264.571	53.93
264.787	58.03
265.004	-11.61
265.22	47.79
265.436	-30.04
265.652	-32.08
265.868	-9.56
266.084	17.07
266.3	15.02
266.516	-38.23
266.732	-11.61
266.948	41.64
267.164	-5.46
267.38	55.98
267.596	-48.47
267.812	107.18
268.028	31.4
268.244	-7.51
268.46	0.68
268.676	84.65
268.892	43.69
269.108	0.68
269.324	-64.85
269.54	-15.7
269.756	29.35
269.972	19.11
270.188	10.92
270.403	23.21
270.619	15.02
270.835	101.03
271.051	-30.04
271.267	25.26
271.483	-79.19
271.698	17.07
271.914	-1.37
272.13	12.97
272.346	12.97
272.562	-11.61
272.777	12.97
272.993	-5.46
273.209	51.88
273.425	19.11
273.64	-52.56
273.856	31.4
274.072	-23.89
274.287	-5.46
274.503	64.17
274.719	76.46
274.934	37.55
275.15	60.07
275.366	-25.94
275.581	-38.23
275.797	19.11
276.012	53.93
276.228	19.11
276.444	47.79
276.659	-34.13
276.875	0.68
277.09	8.87
277.306	68.27
277.521	58.03
277.737	92.84
277.952	51.88
278.168	-7.51
278.383	17.07
278.599	55.98
278.814	10.92
279.03	49.83
279.245	64.17
279.461	90.79
279.676	10.92
279.892	2.73
280.107	27.31
280.322	-5.46
280.538	31.4
280.753	23.21
280.969	76.46
281.184	10.92
281.399	58.03
281.615	-56.66
281.83	35.5
282.045	-56.66
282.26	8.87
282.476	33.45
282.691	72.36
282.906	35.5
283.122	37.55
283.337	-40.28
283.552	49.83
283.767	41.64
283.983	117.42
284.198	19.11
284.413	96.94
284.628	-15.7
284.843	33.45
285.058	10.92
285.274	92.84
285.489	-62.8
285.704	-17.75
285.919	-32.08
286.134	0.68
286.349	19.11
286.564	49.83
286.779	84.65
286.995	-13.65
287.21	-54.61
287.425	101.03
287.64	-13.65
287.855	43.69
288.07	35.5
288.285	84.65
288.5	10.92
288.715	58.03
288.93	41.64
289.145	-9.56
289.36	105.13
289.575	-7.51
289.79	72.36
290.004	27.31
290.219	-21.85
290.434	58.03
290.649	-34.13
290.864	-38.23
291.079	4.78
291.294	-1.37
291.509	76.46
291.724	53.93
291.938	-15.7
292.153	43.69
292.368	10.92
292.583	74.41
292.798	123.56
293.012	35.5
293.227	37.55
293.442	47.79
293.657	35.5
293.871	49.83
294.086	90.79
294.301	-1.37
294.516	41.64
294.73	76.46
294.945	86.7
295.16	10.92
295.374	129.7
295.589	35.5
295.804	8.87
296.018	-15.7
296.233	60.07
296.447	53.93
296.662	35.5
296.877	137.9
297.091	17.07
297.306	47.79
297.52	-25.94
297.735	23.21
297.949	60.07
298.164	31.4
298.378	-27.99
298.593	49.83
298.807	37.55
299.022	19.11
299.236	74.41
299.451	60.07
299.665	-42.32
299.88	27.31
300.094	2.73
300.309	0.68
300.523	10.92
300.737	35.5
300.952	39.59
301.166	25.26
301.381	-56.66
301.595	8.87
301.809	10.92
302.024	-5.46
302.238	-15.7
302.452	101.03
302.667	51.88
302.881	76.46
303.095	82.6
303.309	76.46
303.524	-7.51
303.738	111.27
303.952	35.5
304.166	-5.46
304.381	-56.66
304.595	29.35
304.809	-21.85
305.023	25.26
305.237	-7.51
305.452	35.5
305.666	96.94
305.88	17.07
306.094	19.11
306.308	92.84
306.522	8.87
306.736	41.64
306.95	45.74
307.164	51.88
307.379	51.88
307.593	82.6
307.807	0.68
308.021	31.4
308.235	49.83
308.449	-5.46
308.663	-34.13
308.877	115.37
309.091	68.27
309.305	101.03
309.519	-5.46
309.733	86.7
309.947	41.64
310.161	31.4
310.374	-13.65
310.588	43.69
310.802	49.83
311.016	-54.61
311.23	84.65
311.444	-52.56
311.658	19.11
311.872	39.59
312.085	72.36
312.299	131.75
312.513	115.37
312.727	15.02
312.941	0.68
313.154	0.68
313.368	43.69
313.582	78.51
313.796	0.68
314.009	2.73
314.223	62.12
314.437	92.84
314.651	33.45
314.864	90.79
315.078	2.73
315.292	43.69
315.505	8.87
315.719	84.65
315.933	66.22
316.146	-32.08
316.36	-62.8
316.573	47.79
316.787	55.98
317.001	33.45
317.214	37.55
317.428	2.73
317.641	17.07
317.855	-9.56
318.068	170.66
318.282	37.55
318.495	10.92
318.709	25.26
318.922	19.11
319.136	51.88
319.349	41.64
319.563	47.79
319.776	10.92
319.99	27.31
320.203	-9.56
320.417	55.98
320.63	66.22
320.843	127.66
321.057	62.12
321.27	66.22
321.483	33.45
321.697	113.32
321.91	-5.46
322.124	23.21
322.337	23.21
322.55	-23.89
322.763	55.98
322.977	-17.75
323.19	66.22
323.403	-34.13
323.617	76.46
323.83	6.83
324.043	19.11
324.256	66.22
324.469	-21.85
324.683	80.55
324.896	64.17
325.109	-23.89
325.322	-54.61
325.535	58.03
325.748	41.64
325.962	15.02
326.175	6.83
326.388	8.87
326.601	84.65
326.814	84.65
327.027	35.5
327.24	105.13
327.453	-15.7
327.666	51.88
327.879	60.07
328.092	43.69
328.305	64.17
328.518	0.68
328.731	-27.99
328.944	60.07
329.157	27.31
329.37	53.93
329.583	115.37
329.796	27.31
330.009	-13.65
330.222	47.79
330.435	92.84
330.648	25.26
330.861	19.11
331.073	-19.8
331.286	-1.37
331.499	64.17
331.712	6.83
331.925	8.87
332.138	0.68
332.35	25.26
332.563	-13.65
332.776	80.55
332.989	-122.2
333.202	117.42
333.414	78.51
333.627	53.93
333.84	58.03
334.053	-13.65
334.265	33.45
334.478	0.68
334.691	15.02
334.903	96.94
335.116	35.5
335.329	25.26
335.541	43.69
335.754	84.65
335.966	29.35
336.179	12.97
336.392	51.88
336.604	68.27
336.817	33.45
337.029	0.68
337.242	35.5
337.454	94.89
337.667	6.83
337.88	60.07
338.092	55.98
338.305	43.69
338.517	-5.46
338.729	82.6
338.942	27.31
339.154	27.31
339.367	-15.7
339.579	23.21
339.792	2.73
340.004	-7.51
340.217	49.83
340.429	8.87
340.641	19.11
340.854	10.92
341.066	-19.8
341.278	31.4
341.491	141.99
341.703	41.64
341.915	-56.66
342.128	66.22
342.34	51.88
342.552	39.59
342.764	39.59
342.977	25.26
343.189	29.35
343.401	33.45
343.613	-19.8
343.826	47.79
344.038	-13.65
344.25	35.5
344.462	17.07
344.674	49.83
344.886	68.27
345.099	31.4
345.311	58.03
345.523	41.64
345.735	-56.66
345.947	92.84
346.159	64.17
346.371	2.73
346.583	35.5
346.795	70.31
347.007	103.08
347.219	6.83
347.431	-3.41
347.643	74.41
347.855	2.73
348.067	37.55
348.279	6.83
348.491	2.73
348.703	39.59
348.915	-5.46
349.127	39.59
349.339	88.75
349.551	2.73
349.763	35.5
349.975	2.73
350.187	43.69
350.399	154.28
350.61	68.27
350.822	-19.8
351.034	4.78
351.246	66.22
351.458	74.41
351.669	19.11
351.881	41.64
352.093	107.18
352.305	74.41
352.517	74.41
352.728	105.13
352.94	64.17
353.152	19.11
353.363	53.93
353.575	82.6
353.787	107.18
353.999	39.59
354.21	68.27
354.422	10.92
354.633	31.4
354.845	51.88
355.057	35.5
355.268	88.75
355.48	84.65
355.692	-7.51
355.903	27.31
356.115	60.07
356.326	-40.28
356.538	39.59
356.749	8.87
356.961	49.83
357.172	37.55
357.384	39.59
357.595	66.22
357.807	109.22
358.018	78.51
358.23	58.03
358.441	135.85
358.653	31.4
358.864	-11.61
359.075	8.87
359.287	27.31
359.498	113.32
359.709	47.79
359.921	76.46
360.132	-50.52
360.344	27.31
360.555	6.83
360.766	-19.8
360.977	-19.8
361.189	117.42
361.4	35.5
361.611	43.69
361.823	68.27
362.034	-13.65
362.245	76.46
362.456	66.22
362.667	19.11
362.879	37.55
363.09	17.07
363.301	27.31
363.512	-1.37
363.723	39.59
363.935	-30.04
364.146	133.8
364.357	-1.37
364.568	109.22
364.779	-15.7
364.99	31.4
365.201	8.87
365.412	45.74
365.623	4.78
365.834	131.75
366.045	49.83
366.256	10.92
366.467	80.55
366.678	-3.41
366.889	2.73
367.1	82.6
367.311	41.64
367.522	-19.8
367.733	58.03
367.944	90.79
368.155	0.68
368.366	66.22
368.577	47.79
368.788	60.07
368.999	27.31
369.209	66.22
369.42	141.99
369.631	195.24
369.842	58.03
370.053	2.73
370.264	111.27
370.474	68.27
370.685	66.22
370.896	43.69
371.107	41.64
371.317	43.69
371.528	2.73
371.739	53.93
371.95	15.02
372.16	86.7
372.371	-5.46
372.582	39.59
372.792	17.07
373.003	135.85
373.214	51.88
373.424	21.16
373.635	-40.28
373.846	47.79
374.056	19.11
374.267	25.26
374.477	47.79
374.688	58.03
374.898	62.12
375.109	-7.51
375.319	51.88
375.53	51.88
375.74	45.74
375.951	47.79
376.161	2.73
376.372	35.5
376.582	19.11
376.793	49.83
377.003	19.11
377.214	0.68
377.424	47.79
377.635	21.16
377.845	60.07
378.055	103.08
378.266	-17.75
378.476	-3.41
378.686	62.12
378.897	19.11
379.107	70.31
379.317	21.16
379.528	6.83
379.738	84.65
379.948	-5.46
380.158	49.83
380.369	60.07
380.579	51.88
380.789	-7.51
380.999	62.12
381.21	51.88
381.42	80.55
381.63	-34.13
381.84	43.69
382.05	80.55
382.261	23.21
382.471	74.41
382.681	0.68
382.891	49.83
383.101	92.84
383.311	-15.7
383.521	41.64
383.731	51.88
383.941	76.46
384.151	-17.75
384.361	55.98
384.571	84.65
384.781	-5.46
384.991	154.28
385.201	117.42
385.411	35.5
385.621	117.42
385.831	12.97
386.041	80.55
386.251	62.12
386.461	47.79
386.671	-5.46
386.881	19.11
387.091	35.5
387.301	125.61
387.511	19.11
387.72	23.21
387.93	53.93
388.14	-58.71
388.35	-1.37
388.56	17.07
388.769	72.36
388.979	98.99
389.189	-19.8
389.399	66.22
389.609	-5.46
389.818	113.32
390.028	31.4
390.238	94.89
390.447	19.11
390.657	74.41
390.867	-32.08
391.076	29.35
391.286	-23.89
391.496	41.64
391.705	121.51
391.915	88.75
392.125	62.12
392.334	109.22
392.544	125.61
392.753	17.07
392.963	8.87
393.172	35.5
393.382	53.93
393.591	68.27
393.801	37.55
394.01	6.83
394.22	98.99
394.429	21.16
394.639	62.12
394.848	107.18
395.058	82.6
395.267	58.03
395.477	60.07
395.686	49.83
395.895	92.84
396.105	133.8
396.314	105.13
396.524	64.17
396.733	131.75
396.942	66.22
397.152	154.28
397.361	82.6
397.57	74.41
397.78	88.75
397.989	84.65
398.198	197.29
398.407	58.03
398.617	88.75
398.826	88.75
399.035	53.93
399.244	117.42
399.453	117.42
399.663	96.94
399.872	117.42
400.081	29.35
400.29	115.37
400.499	35.5
400.708	88.75
400.917	88.75
401.127	51.88
401.336	-30.04
401.545	154.28
401.754	174.76
401.963	139.94
402.172	92.84
402.381	152.23
402.59	174.76
402.799	162.47
403.008	115.37
403.217	115.37
403.426	176.81
403.635	31.4
403.844	139.94
404.053	113.32
404.262	2.73
404.471	144.04
404.68	115.37
404.888	109.22
405.097	123.56
405.306	133.8
405.515	98.99
405.724	182.95
405.933	211.62
406.142	158.38
406.35	189.1
406.559	148.14
406.768	176.81
406.977	221.86
407.185	182.95
407.394	125.61
407.603	156.33
407.812	199.34
408.02	254.63
408.229	236.2
408.438	141.99
408.646	199.34
408.855	207.53
409.064	240.29
409.272	228.01
409.481	268.97
409.69	191.14
409.898	201.38
410.107	273.06
410.315	336.55
410.524	307.88
410.733	322.21
410.941	363.17
411.15	314.02
411.358	281.25
411.567	387.75
411.775	373.41
411.984	393.89
412.192	301.73
412.401	367.27
412.609	475.81
412.818	498.34
413.026	430.76
413.234	451.24
413.443	486.05
413.651	445.09
413.86	432.8
414.068	518.82
414.276	664.22
414.485	529.06
414.693	662.18
414.901	641.7
415.11	572.07
415.318	752.29
415.526	666.27
415.734	713.38
415.943	760.48
416.151	785.05
416.359	772.77
416.567	828.06
416.776	752.29
416.984	823.97
417.192	912.03
417.4	862.88
417.608	811.68
417.817	934.56
418.025	1043.1
418.233	1194.65
418.441	1034.91
418.649	1098.39
418.857	1153.69
419.065	1256.09
419.273	1243.8
419.481	1204.89
419.689	1395.35
419.897	1354.39
420.105	1499.8
420.313	1395.35
420.521	1407.64
420.729	1501.84
420.937	1542.8
421.145	1612.43
421.353	1751.7
421.561	1768.08
421.769	1770.13
421.977	1872.53
422.185	1993.36
422.393	2001.55
422.601	2058.89
422.809	2005.64
423.017	2124.43
423.224	2218.63
423.432	2345.61
423.64	2237.06
423.848	2505.35
424.056	2380.42
424.263	2595.46
424.471	2546.31
424.679	2601.6
424.887	2728.58
425.094	2955.9
425.302	2867.84
425.51	2960
425.718	3039.87
425.925	3172.99
426.133	3201.66
426.341	3394.17
426.548	3658.35
426.756	3519.09
426.964	3478.13
427.171	3842.67
427.379	3828.34
427.586	4024.94
427.794	4221.55
428.001	4098.67
428.209	4522.6
428.417	4479.59
428.624	4762.21
428.832	4743.78
429.039	4758.11
429.247	4668
429.454	5175.9
429.662	5425.75
429.869	5208.67
430.076	5515.86
430.284	5325.4
430.491	5677.65
430.699	5818.96
430.906	5990.99
431.114	5986.9
431.321	6095.44
431.528	6201.93
431.736	6728.26
431.943	7283.26
432.15	6875.71
432.358	6955.58
432.565	7236.16
432.772	7295.55
432.979	7668.28
433.187	7598.65
433.394	7694.9
433.601	8497.7
433.808	8374.83
434.016	8329.77
434.223	8555.05
434.43	9251.36
434.637	8960.55
434.844	9368.09
435.052	9816.6
435.259	9742.87
435.466	9685.53
435.673	9617.94
435.88	10310.16
436.087	10992.13
436.294	10988.03
436.501	10506.76
436.708	10877.44
436.915	11295.23
437.122	11710.97
437.329	11733.5
437.537	11971.06
437.743	12261.87
437.95	12233.2
438.157	12823.01
438.364	13189.6
438.571	13097.44
438.778	13224.42
438.985	14498.25
439.192	13773.27
439.399	14344.66
439.606	13965.78
439.813	14741.96
440.02	15593.92
440.227	15387.07
440.433	15581.63
440.64	15974.84
440.847	15724.99
441.054	16153.01
441.261	17258.92
441.467	16703.92
441.674	17248.68
441.881	17885.59
442.088	18194.84
442.294	17754.52
442.501	18121.11
442.708	18577.81
442.914	19403.14
443.121	20443.51
443.328	19345.8
443.534	21049.71
443.741	20306.29
443.948	20232.57
444.154	21188.97
444.361	21399.91
444.568	21578.08
444.774	21549.41
444.981	21868.89
445.187	22516.05
445.394	23486.79
445.6	22954.32
445.807	25272.62
446.013	24314.17
446.22	24817.97
446.426	25837.86
446.633	25952.54
446.839	26646.8
447.046	25784.61
447.252	27416.84
447.459	27066.64
447.665	27154.7
447.871	27961.6
448.078	29554.92
448.284	27912.45
448.491	28643.57
448.697	29962.47
448.903	30359.77
449.11	30327
449.316	29952.23
449.522	30650.58
449.728	31215.82
449.935	31211.73
450.141	31318.22
450.347	32307.39
450.553	31193.29
450.76	31568.07
450.966	32592.06
451.172	31953.09
451.378	33091.76
451.584	32319.68
451.791	33044.66
451.997	32868.53
452.203	33464.49
452.409	33259.7
452.615	33403.05
452.821	31981.76
453.027	31686.86
453.233	33251.5
453.44	32256.19
453.646	32628.92
453.852	32805.05
454.058	33108.15
454.264	31938.76
454.47	32673.98
454.676	32178.37
454.882	32911.54
455.088	30398.68
455.294	30197.98
455.5	31015.12
455.705	31422.67
455.911	29946.08
456.117	29405.42
456.323	29174
456.529	27709.7
456.735	28756.21
456.941	28311.8
457.147	27431.18
457.352	26726.67
457.558	26093.85
457.764	26599.7
457.97	25768.23
458.176	25084.2
458.381	25006.38
458.587	24203.58
458.793	24037.69
458.999	22927.69
459.204	24203.58
459.41	23554.37
459.616	22260.05
459.821	22313.3
460.027	21909.85
460.233	21938.52
460.438	20668.78
460.644	20601.2
460.85	19706.24
461.055	19345.8
461.261	19374.47
461.466	18223.51
461.672	17451.42
461.878	18702.73
462.083	17641.89
462.289	17310.11
462.494	16968.1
462.7	16204.21
462.905	15839.67
463.111	16462.26
463.316	16271.79
463.522	15993.27
463.727	15935.93
463.932	16019.89
464.138	15749.56
464.343	15757.75
464.549	15301.06
464.754	16122.29
464.959	15782.33
465.165	15780.28
465.37	15327.68
465.575	14705.1
465.781	15272.39
465.986	15331.78
466.191	15034.82
466.397	14420.43
466.602	13969.88
466.807	14531.02
467.012	14205.39
467.218	14242.26
467.423	14168.53
467.628	14270.93
467.833	14899.66
468.038	14182.87
468.244	13763.03
468.449	14377.42
468.654	13869.53
468.859	13486.56
469.064	13562.33
469.269	13095.39
469.474	13273.57
469.679	13326.82
469.885	13105.63
470.09	13322.72
470.295	13181.41
470.5	12818.92
470.705	13066.72
470.91	12560.88
471.115	12374.51
471.32	12804.58
471.525	12691.94
471.73	12222.96
471.935	12167.67
472.139	11868.66
472.344	12104.18
472.549	11835.89
472.754	11670.01
472.959	11586.04
473.164	11299.33
473.369	11209.22
473.574	11883
473.778	11588.09
473.983	11346.43
474.188	11182.59
474.393	10789.38
474.598	10838.53
474.802	10578.44
475.007	10600.97
475.212	10738.18
475.417	10207.76
475.621	10484.23
475.826	10306.06
476.031	9937.43
476.235	9988.63
476.44	10160.66
476.645	9800.21
476.849	9941.52
477.054	9738.77
477.259	9634.33
477.463	9671.19
477.668	9466.39
477.872	9497.11
478.077	9306.65
478.282	9120.29
478.486	9171.49
478.691	8989.22
478.895	8956.45
479.1	9005.6
479.304	8929.83
479.509	8530.47
479.713	8974.88
479.918	8598.06
480.122	8469.03
480.326	8577.58
480.531	8546.86
480.735	8575.53
480.94	8509.99
481.144	8710.69
481.348	8366.63
481.553	8458.79
481.757	8270.38
481.961	8423.98
482.166	8555.05
482.37	8434.22
482.574	8268.33
482.778	8247.85
482.983	8307.24
483.187	8272.43
483.391	8348.2
483.595	8051.25
483.8	8075.82
484.004	8182.32
484.208	8292.91
484.412	8129.07
484.616	8159.79
484.821	8299.05
485.025	8186.41
485.229	8321.58
485.433	8186.41
485.637	8231.47
485.841	8229.42
486.045	8247.85
486.249	8208.94
486.453	8120.88
486.657	8210.99
486.861	8129.07
487.065	8075.82
487.269	8202.8
487.473	8086.06
487.677	8448.55
487.881	8442.41
488.085	7961.14
488.289	8266.28
488.493	8182.32
488.697	8358.44
488.901	8268.33
489.105	8270.38
489.309	8456.75
489.512	8370.73
489.716	8178.22
489.92	8374.83
490.124	8337.96
490.328	8509.99
490.531	8178.22
490.735	8626.73
490.939	8477.23
491.143	8337.96
491.346	8354.35
491.55	8577.58
491.754	8567.34
491.958	8700.45
492.161	8563.24
492.365	8831.52
492.569	8620.58
492.772	8710.69
492.976	8757.8
493.18	8864.29
493.383	8993.31
493.587	8843.81
493.79	9118.24
493.994	8903.2
494.197	9130.53
494.401	9177.63
494.605	9175.58
494.808	9421.34
495.012	9423.39
495.215	9488.92
495.419	9484.83
495.622	9220.64
495.825	9738.77
496.029	9552.41
496.232	9628.18
496.436	9767.45
496.639	10027.54
496.843	9916.95
497.046	10185.23
497.249	10168.85
497.453	10398.22
497.656	10404.36
497.859	10342.92
498.063	10496.52
498.266	10617.35
498.469	10564.11
498.673	10859.01
498.876	11067.91
499.079	11147.78
499.282	11072
499.485	11348.48
499.689	11442.68
499.892	11532.79
500.095	11446.78
500.298	11901.43
500.501	11815.41
500.705	12114.42
500.908	12288.5
501.111	12354.03
501.314	12448.24
501.517	12704.23
501.72	12714.47
501.923	12691.94
502.126	12933.61
502.329	13275.62
502.532	13314.53
502.735	13502.94
502.938	13832.66
503.141	13717.98
503.344	13941.21
503.547	13953.49
503.75	14334.42
503.953	14543.31
504.156	14422.48
504.359	14576.08
504.562	14899.66
504.765	15133.12
504.968	15344.06
505.17	15196.61
505.373	15335.87
505.576	15919.54
505.779	15831.48
505.982	15829.43
506.185	16378.29
506.387	16447.92
506.59	16667.05
506.793	16900.52
506.996	16865.71
507.198	17308.07
507.401	17338.79
507.604	17488.29
507.807	17883.55
508.009	17791.39
508.212	18090.39
508.415	18352.53
508.617	18487.7
508.82	18782.6
509.022	18588.05
509.225	18858.38
509.428	19276.16
509.63	19280.26
509.833	19554.69
510.035	20023.67
510.238	19937.66
510.44	20328.82
510.643	20584.82
510.845	20652.4
511.048	20529.52
511.25	21041.51
511.453	21184.87
511.655	22065.5
511.858	21555.55
512.06	22069.59
512.262	22407.51
512.465	21983.58
512.667	22661.46
512.87	22825.29
513.072	23019.85
513.274	23499.08
513.477	23818.56
513.679	23810.37
513.881	23974.2
514.084	24594.74
514.286	24899.89
514.488	24953.13
514.69	25415.97
514.893	25923.87
515.095	25991.45
515.297	26122.52
515.499	26290.46
515.701	26648.85
515.904	26986.77
516.106	26767.63
516.308	27633.92
516.51	27908.35
516.712	27783.43
516.914	28807.41
517.116	29053.17
517.318	28991.73
517.52	29206.76
517.722	29214.96
517.925	29876.45
518.127	30126.3
518.329	30337.24
518.531	30847.19
518.733	31350.99
518.935	31606.98
519.136	31756.49
519.338	32575.67
519.54	32209.09
519.742	33312.94
519.944	33169.58
520.146	33589.42
520.348	34107.55
520.55	34312.35
520.752	34283.68
520.954	35014.8
521.155	35059.86
521.357	35971.21
521.559	35891.33
521.761	36616.32
521.963	36432
522.164	36892.79
522.366	37408.88
522.568	37462.13
522.77	38162.53
522.971	38588.51
523.173	38445.15
523.375	39088.21
523.576	38969.43
523.778	39104.6
523.98	40280.13
524.181	40370.24
524.383	40319.04
524.584	41136.18
524.786	41412.66
524.988	40869.95
525.189	41553.97
525.391	42553.38
525.592	42299.43
525.794	42465.31
525.995	42930.2
526.197	43032.6
526.398	43585.55
526.6	44146.7
526.801	43849.74
527.003	44177.42
527.204	44593.15
527.406	45060.09
527.607	44865.53
527.808	45631.47
528.01	44859.39
528.211	45225.98
528.412	46471.14
528.614	46319.59
528.815	46847.97
529.016	46979.04
529.218	46788.58
529.419	47226.84
529.62	46952.41
529.822	47415.26
530.023	47693.78
530.224	47812.56
530.425	48119.76
530.626	47562.71
530.828	47820.75
531.029	48916.42
531.23	48361.42
531.431	48164.81
531.632	48644.04
531.833	49153.98
532.035	48836.55
532.236	48719.81
532.437	49407.93
532.638	48670.66
532.839	49348.54
533.04	49602.49
533.241	49229.76
533.442	50343.85
533.643	50163.63
533.844	49698.74
534.045	49917.87
534.246	49561.53
534.447	50141.1
534.648	50425.77
534.849	50583.46
535.05	49745.84
535.251	50294.7
535.451	50581.41
535.652	50689.96
535.853	50216.88
536.054	50511.78
536.255	50599.85
536.456	50438.06
536.657	51330.97
536.857	50653.09
537.058	50540.46
537.259	50933.67
537.46	51330.97
537.66	50599.85
537.861	50991.01
538.062	50687.91
538.263	50796.45
538.463	50446.25
538.664	50806.69
538.865	51089.31
539.065	51212.19
539.266	50849.7
539.466	51294.11
539.667	50659.24
539.868	51892.11
540.068	51187.61
540.269	50792.36
540.469	51632.02
540.67	50732.96
540.87	50925.47
541.071	51347.36
541.271	51013.54
541.472	51156.89
541.672	51179.42
541.873	50786.21
542.073	50859.94
542.274	51449.75
542.474	50999.2
542.675	50960.29
542.875	51451.8
543.075	51285.92
543.276	50651.05
543.476	51298.2
543.676	50982.82
543.877	51400.6
544.077	51171.23
544.277	50778.02
544.478	51574.68
544.678	51247
544.878	51117.98
545.078	50818.98
545.279	50898.85
545.479	51050.4
545.679	51085.22
545.879	50755.49
546.079	51425.18
546.28	50755.49
546.48	50866.08
546.68	51535.77
546.88	50925.47
547.08	51060.64
547.28	51173.28
547.48	50388.91
547.68	51378.07
547.88	50655.14
548.081	50999.2
548.281	51122.08
548.481	50845.6
548.681	51361.69
548.881	50931.62
549.081	50763.68
549.28	51017.63
549.48	50909.09
549.68	50913.19
549.88	51500.95
550.08	50712.48
550.28	51337.12
550.48	51539.86
550.68	51320.73
550.88	50859.94
551.08	51214.24
551.279	51058.59
551.479	50859.94
551.679	51023.78
551.879	50894.75
552.079	50933.67
552.278	50962.34
552.478	51117.98
552.678	50999.2
552.878	51077.02
553.077	50825.12
553.277	50442.15
553.477	51079.07
553.676	50745.25
553.876	50622.37
554.076	50249.64
554.275	50345.9
554.475	50034.61
554.674	50890.66
554.874	50163.63
555.074	50059.18
555.273	50417.58
555.473	50556.84
555.672	49924.02
555.872	49788.85
556.071	50059.18
556.271	50063.28
556.47	49409.98
556.67	49491.9
556.869	49803.19
557.068	49788.85
557.268	49037.25
557.467	49858.48
557.667	49584.05
557.866	49225.66
558.065	49274.81
558.265	49205.18
558.464	49061.82
558.663	49438.65
558.863	48619.46
559.062	49592.25
559.261	48287.69
559.461	49115.07
559.66	48246.73
559.859	48832.45
560.058	48361.42
560.258	48377.8
560.457	47595.48
560.656	48054.22
560.855	47691.73
561.054	48168.91
561.253	47869.9
561.453	47982.54
561.652	47546.33
561.851	47478.74
562.05	47265.75
562.249	46972.89
562.448	47478.74
562.647	46903.26
562.846	46944.22
563.045	46925.79
563.244	46088.17
563.443	46600.16
563.642	46114.79
563.841	46268.39
564.04	46010.35
564.239	46452.71
564.438	45477.88
564.637	45668.34
564.836	45905.9
565.035	44863.49
565.234	45264.89
565.432	44797.95
565.631	44683.26
565.83	44896.25
566.029	44677.12
566.228	44068.87
566.427	44183.56
566.625	44224.52
566.824	43495.44
567.023	43915.28
567.222	43089.95
567.42	43812.88
567.619	43300.89
567.818	43225.11
568.016	43204.63
568.215	43032.6
568.414	42602.53
568.612	42733.6
568.811	42276.9
569.01	42014.76
569.208	41547.82
569.407	41803.82
569.605	41308.21
569.804	41994.28
570.002	41443.38
570.201	40892.47
570.4	41089.08
570.598	40740.92
570.797	40644.67
570.995	40534.08
571.193	40003.66
571.392	40493.12
571.59	39755.85
571.789	39821.39
571.987	39809.1
572.186	39491.66
572.384	39346.26
572.582	39358.55
572.781	39460.94
572.979	38621.28
573.177	39172.18
573.376	38864.99
573.574	38787.16
573.772	38891.61
573.971	38213.73
574.169	38297.7
574.367	37572.72
574.565	38017.13
574.763	37736.55
574.962	37464.17
575.16	37290.1
575.358	37576.81
575.556	36862.07
575.754	37484.65
575.952	36808.82
576.151	36978.81
576.349	36485.25
576.547	36165.76
576.745	36200.58
576.943	36429.95
577.141	36053.12
577.339	35922.05
577.537	35827.85
577.735	35778.7
577.933	34988.18
578.131	35618.96
578.329	35145.87
578.527	34967.7
578.725	35020.95
578.923	35111.06
579.121	34619.55
579.319	34656.41
579.516	34922.65
579.714	34238.62
579.912	34189.47
580.11	34216.1
580.308	34201.76
580.506	34101.41
580.704	33384.62
580.901	33525.93
581.099	33857.7
581.297	33491.12
581.495	33136.82
581.692	33280.17
581.89	32862.39
582.088	33300.65
582.285	32975.03
582.483	32874.68
582.681	32583.87
582.878	32510.14
583.076	32014.53
583.274	32436.41
583.471	32196.8
583.669	32436.41
583.866	31916.23
584.064	31987.91
584.262	31533.26
584.459	31871.17
584.657	31490.25
584.854	31903.94
585.052	31199.44
585.249	31477.96
585.447	31119.57
585.644	31420.62
585.841	30916.82
586.039	31252.69
586.236	30892.24
586.434	30406.87
586.631	30167.26
586.828	30527.7
587.026	30554.33
587.223	30292.19
587.42	30081.25
587.618	30640.34
587.815	29790.44
588.012	29839.59
588.21	29675.75
588.407	30038.24
588.604	29380.84
588.801	29323.5
588.999	29425.9
589.196	29225.2
589.393	29065.46
589.59	29079.79
589.787	29128.94
589.984	28678.39
590.182	28475.64
590.379	28819.7
590.576	28598.52
590.773	28485.88
590.97	28338.43
591.167	28481.78
591.364	27717.89
591.561	28117.25
591.758	27760.9
591.955	28107.01
592.152	27969.79
592.349	27541.77
592.546	27734.28
592.743	27678.98
592.94	27021.58
593.137	27185.42
593.334	27523.33
593.531	26980.62
593.727	27029.77
593.924	27326.73
594.121	27083.02
594.318	27128.08
594.515	26759.44
594.712	27083.02
594.908	26644.76
595.105	26767.63
595.302	26327.32
595.499	26366.23
595.696	26255.64
595.892	26169.63
596.089	26173.72
596.286	26237.21
596.482	25913.63
596.679	25983.26
596.876	26052.89
597.072	25661.73
597.269	25446.69
597.466	25418.02
597.662	25448.74
597.859	25379.11
598.055	25590.05
598.252	24955.18
598.448	25219.37
598.645	25284.9
598.841	24824.11
599.038	25151.79
599.234	25114.92
599.431	24635.7
599.627	24422.71
599.824	24871.22
600.02	24473.91
600.217	24566.07
600.413	24299.83
600.609	24348.98
600.806	23996.73
601.002	24224.06
601.198	24004.92
601.395	23943.49
601.591	23716.16
601.787	23695.68
601.984	23699.78
602.18	23775.55
602.376	23589.19
602.572	23355.72
602.769	23456.07
602.965	22905.17
603.161	23071.05
603.357	23109.96
603.553	23107.91
603.75	22886.73
603.946	22530.39
604.142	22759.76
604.338	22536.53
604.534	22845.77
604.73	22374.74
604.926	22610.26
605.122	22544.72
605.318	22225.24
605.514	22065.5
605.71	22106.46
605.906	22151.51
606.102	22376.79
606.298	21979.48
606.494	21895.52
606.69	21936.48
606.886	21725.54
607.082	21776.73
607.278	21913.95
607.474	21451.11
607.67	21666.14
607.866	20865.39
608.062	21553.51
608.257	21322.09
608.453	21530.98
608.649	21361
608.845	21156.2
609.041	21049.71
609.236	21182.82
609.432	21127.53
609.628	20783.47
609.824	21080.42
610.019	20787.57
610.215	20636.02
610.411	20580.72
610.606	20490.61
610.802	20650.35
610.998	20400.5
611.193	20693.36
611.389	20324.72
611.584	20302.2
611.78	20371.83
611.976	20556.14
612.171	20228.47
612.367	20029.82
612.562	19919.23
612.758	19870.08
612.953	19863.93
613.149	20207.99
613.344	19988.86
613.539	20085.11
613.735	20050.3
613.93	19980.67
614.126	19642.75
614.321	19929.47
614.517	19601.79
614.712	19595.65
614.907	19696
615.103	19927.42
615.298	19542.4
615.493	19335.56
615.688	19306.88
615.884	19593.6
616.079	19114.37
616.274	19456.39
616.47	19048.84
616.665	19179.91
616.86	18946.44
617.055	18893.19
617.25	18629.01
617.445	19198.34
617.641	18538.9
617.836	18930.06
618.031	18885
618.226	18731.4
618.421	18573.71
618.616	18743.69
618.811	18225.56
619.006	18352.53
619.201	17992.09
619.396	18213.27
619.591	17940.89
619.786	18383.25
619.981	17818.01
620.176	18229.65
620.371	17725.85
620.566	17953.18
620.761	17762.72
620.956	17619.36
621.151	17551.77
621.346	17512.86
621.541	17330.59
621.735	17576.35
621.93	17033.64
622.125	17187.24
622.32	16830.89
622.515	17009.06
622.709	17070.5
622.904	16755.11
623.099	16810.41
623.294	16906.66
623.488	16607.66
623.683	16505.26
623.878	16343.47
624.072	16357.81
624.267	16298.42
624.462	16222.64
624.656	16001.46
624.851	15831.48
625.046	15813.05
625.24	15964.6
625.435	15534.53
625.629	15677.88
625.824	15366.59
626.018	15702.46
626.213	15256
626.407	15294.91
626.602	15249.86
626.796	15235.52
626.991	15141.32
627.185	14881.22
627.38	15026.63
627.574	14787.02
627.768	14660.04
627.963	14803.4
628.157	14420.43
628.352	14496.21
628.546	14283.22
628.74	14342.61
628.935	14195.15
629.129	14322.13
629.323	13973.97
629.517	13998.55
629.712	13771.22
629.906	13836.76
630.1	13799.9
630.294	13642.2
630.489	13736.41
630.683	13734.36
630.877	13337.06
631.071	13470.17
631.265	13384.16
631.459	13474.27
631.653	13038.05
631.848	13283.81
632.042	12990.95
632.236	12964.32
632.43	12952.04
632.624	13021.67
632.818	12825.06
633.012	12710.38
633.206	12698.09
633.4	12808.68
633.594	12380.65
633.788	12716.52
633.982	12485.1
634.176	12343.79
634.369	12112.37
634.563	12466.67
634.757	12175.86
634.951	12202.48
635.145	12073.46
635.339	12141.04
635.533	11801.08
635.726	11930.1
635.92	11676.15
636.114	11819.51
636.308	11598.33
636.501	11661.82
636.695	11536.89
636.889	11313.66
637.083	11340.29
637.276	11291.13
637.47	11215.36
637.664	11082.24
637.857	11325.95
638.051	11037.19
638.244	11045.38
638.438	10985.99
638.632	10945.03
638.825	10799.62
639.019	10709.51
639.212	10605.06
639.406	10586.63
639.599	10703.37
639.793	10465.8
639.986	10387.98
640.18	10361.36
640.373	10312.21
640.567	10183.18
640.76	10242.57
640.954	10029.59
641.147	9904.66
641.34	10086.93
641.534	9808.4
641.727	9888.28
641.92	9783.83
642.114	9839.12
642.307	9824.79
642.5	9617.94
642.694	9552.41
642.887	9361.95
643.08	9609.75
643.273	9357.85
643.467	9538.07
643.66	9314.84
643.853	9009.7
644.046	9163.29
644.239	9230.88
644.432	9108
644.626	8962.59
644.819	8946.21
645.012	8776.23
645.205	9032.22
645.398	8825.38
645.591	8823.33
645.784	8634.92
645.977	8757.8
646.17	8581.67
646.363	8647.21
646.556	8481.32
646.749	8612.39
646.942	8557.1
647.135	8419.88
647.328	8464.94
647.521	8391.21
647.714	8307.24
647.907	8462.89
648.099	8088.11
648.292	8262.19
648.485	8256.04
648.678	8008.24
648.871	8186.41
649.064	7905.84
649.256	7954.99
649.449	7920.18
649.642	7963.19
649.835	7653.94
650.027	7725.62
650.22	7866.93
650.413	7920.18
650.605	7670.33
650.798	7670.33
650.991	7543.35
651.183	7705.14
651.376	7373.37
651.568	7498.3
651.761	7504.44
651.954	7395.9
652.146	7447.1
652.339	7488.06
652.531	7555.64
652.724	7297.6
652.916	7307.84
653.109	7096.89
653.301	7236.16
653.494	7309.88
653.686	7244.35
653.879	7158.33
654.071	7017.02
654.263	7111.23
654.456	7066.17
654.648	7014.98
654.84	7019.07
655.033	6801.99
655.225	6865.47
655.417	6748.74
655.61	6957.63
655.802	6691.4
655.994	6781.51
656.186	6668.87
656.379	6502.98
656.571	6568.52
656.763	6605.38
656.955	6541.89
657.148	6707.78
657.34	6496.84
657.532	6560.33
657.724	6548.04
657.916	6560.33
658.108	6572.61
658.3	6408.78
658.492	6333
658.684	6285.9
658.876	6212.17
659.068	6158.92
659.26	6091.34
659.452	6171.21
659.644	6255.18
659.836	6101.58
660.028	6163.02
660.22	5988.94
660.412	6105.68
660.604	5978.7
660.796	6046.29
660.988	6003.28
661.18	5954.13
661.372	5982.8
661.563	6023.76
661.755	5849.68
661.947	6064.72
662.139	5861.97
662.331	5882.45
662.522	5759.57
662.714	5933.65
662.906	5870.16
663.097	5798.48
663.289	5677.65
663.481	5669.46
663.673	5698.13
663.864	5581.4
664.056	5562.97
664.247	5589.59
664.439	5544.53
664.631	5700.18
664.822	5659.22
665.014	5565.01
665.205	5546.58
665.397	5517.91
665.588	5735
665.78	5528.15
665.971	5569.11
666.163	5505.62
666.354	5505.62
666.546	5343.83
666.737	5292.63
666.929	5294.68
667.12	5507.67
667.311	5282.39
667.503	5364.31
667.694	5347.93
667.885	5376.6
668.077	5450.33
668.268	5253.72
668.459	5435.99
668.651	5392.98
668.842	5399.13
669.033	5282.39
669.224	5306.97
669.416	5323.35
669.607	5423.7
669.798	5243.48
669.989	5429.85
670.18	5220.95
670.371	5143.13
670.563	5139.04
670.754	5298.78
670.945	5112.41
671.136	5173.85
671.327	5171.8
671.518	5208.67
671.709	5296.73
671.9	5241.43
672.091	5270.11
672.282	5311.07
672.473	5139.04
672.664	5227.1
672.855	5186.14
673.046	5276.25
673.237	5384.79
673.428	5253.72
673.619	5319.26
673.809	5145.18
674	5241.43
674.191	5325.4
674.382	5096.03
674.573	5065.31
674.764	5196.38
674.954	5325.4
675.145	5214.81
675.336	5188.19
675.527	5171.8
675.717	5276.25
675.908	5237.34
676.099	5227.1
676.289	5266.01
676.48	5311.07
676.671	5149.28
676.861	5229.15
677.052	5284.44
677.243	5274.2
677.433	5268.06
677.624	5261.91
677.814	5257.82
678.005	5460.57
678.195	5325.4
678.386	5458.52
678.576	5341.79
678.767	5438.04
678.957	5370.46
679.148	5442.14
679.338	5476.95
679.529	5341.79
679.719	5347.93
679.909	5495.38
680.1	5438.04
680.29	5513.81
680.481	5466.71
680.671	5487.19
680.861	5667.41
681.052	5433.94
681.242	5591.64
681.432	5630.55
681.622	5442.14
681.813	5585.49
682.003	5610.07
682.193	5585.49
682.383	5483.09
682.573	5681.75
682.764	5552.73
682.954	5730.9
683.144	5667.41
683.334	5638.74
683.524	5646.93
683.714	5823.06
683.904	5767.76
684.094	5876.3
684.284	5679.7
684.474	5775.95
684.664	5796.43
684.854	5653.08
685.044	5644.88
685.234	5683.8
685.424	5683.8
685.614	5712.47
685.804	5679.7
685.994	5628.5
686.184	5511.77
686.374	5612.12
686.564	5597.78
686.753	5565.01
686.943	5526.1
687.133	5618.26
687.323	5581.4
687.513	5667.41
687.702	5544.53
687.892	5456.47
688.082	5530.2
688.272	5603.93
688.461	5513.81
688.651	5438.04
688.841	5509.72
689.03	5261.91
689.22	5407.32
689.41	5591.64
689.599	5268.06
689.789	5239.39
689.979	5270.11
690.168	5290.59
690.358	5335.64
690.547	5280.35
690.737	5343.83
690.926	5235.29
691.116	5118.56
691.305	5278.3
691.495	5089.88
691.684	5130.84
691.874	5239.39
692.063	5157.47
692.252	5169.76
692.442	5032.54
692.631	5216.86
692.82	5130.84
693.01	4924
693.199	4938.34
693.388	5020.25
693.578	5118.56
693.767	5044.83
693.956	4967.01
694.146	4975.2
694.335	4856.42
694.524	5042.78
694.713	5130.84
694.902	4942.43
695.092	4872.8
695.281	4864.61
695.47	5089.88
695.659	4940.38
695.848	4913.76
696.037	4938.34
696.226	4872.8
696.415	4938.34
696.604	4983.39
696.793	5118.56
696.982	4844.13
697.171	4901.47
697.36	4901.47
697.549	5122.65
697.738	4801.12
697.927	4911.71
698.116	5012.06
698.305	4880.99
698.494	5032.54
698.683	4967.01
698.872	5007.97
699.061	4868.7
699.25	5026.4
699.438	4971.1
699.627	5098.08
699.816	4827.74
700.005	4909.66
700.193	5030.49
700.382	5134.94
700.571	4901.47
700.76	4926.05
700.948	4973.15
701.137	5128.8
701.326	5130.84
701.514	5081.69
701.703	5153.37
701.892	5147.23
702.08	5223
702.269	5120.6
702.457	5163.61
702.646	5204.57
702.834	5177.95
703.023	5276.25
703.212	5155.42
703.4	5206.62
703.589	4975.2
703.777	5231.19
703.965	5255.77
704.154	5382.74
704.342	5159.52
704.531	5126.75
704.719	5112.41
704.907	5286.49
705.096	5063.26
705.284	5210.72
705.472	5163.61
705.661	5180
705.849	5255.77
706.037	5337.69
706.226	5290.59
706.414	5331.55
706.602	5290.59
706.79	5311.07
706.979	5251.67
707.167	5524.05
707.355	5294.68
707.543	5388.89
707.731	5401.18
707.919	5458.52
708.107	5364.31
708.296	5331.55
708.484	5337.69
708.672	5720.66
708.86	5442.14
709.048	5454.42
709.236	5515.86
709.424	5562.97
709.612	5573.21
709.8	5259.87
709.988	5556.82
710.176	5438.04
710.364	5519.96
710.551	5628.5
710.739	5546.58
710.927	5556.82
711.115	5546.58
711.303	5565.01
711.491	5655.12
711.679	5569.11
711.866	5634.64
712.054	5544.53
712.242	5577.3
712.43	5614.16
712.617	5825.11
712.805	5757.52
712.993	5712.47
713.181	5636.69
713.368	5624.4
713.556	5718.61
713.744	5724.76
713.931	5802.58
714.119	5775.95
714.306	5790.29
714.494	5483.09
714.682	5913.17
714.869	5614.16
715.057	5929.55
715.244	5812.82
715.432	5841.49
715.619	5685.84
715.807	5927.5
715.994	5921.36
716.182	5816.91
716.369	6005.33
716.556	6070.86
716.744	5913.17
716.931	5956.18
717.119	6077.01
717.306	6048.33
717.493	5847.63
717.681	6005.33
717.868	5814.87
718.055	6081.1
718.242	6015.57
718.43	6107.73
718.617	5921.36
718.804	5888.59
718.991	5995.09
719.179	6136.4
719.366	5997.14
719.553	6195.79
719.74	5825.11
719.927	5956.18
720.114	6052.43
720.301	5986.9
720.488	6093.39
720.676	6068.81
720.863	6111.82
721.05	6085.2
721.237	6117.97
721.424	6226.51
721.611	6187.6
721.798	6060.62
721.985	6107.73
722.172	6056.53
722.358	6040.14
722.545	6113.87
722.732	6120.01
722.919	6273.61
723.106	6093.39
723.293	6343.24
723.48	6357.58
723.667	6097.49
723.853	6120.01
724.04	6263.37
724.227	6392.39
724.414	6072.91
724.6	6070.86
724.787	6136.4
724.974	6191.69
725.161	6201.93
725.347	5947.98
725.534	6101.58
725.72	6308.43
725.907	6111.82
726.094	6335.05
726.28	6308.43
726.467	6038.09
726.653	6122.06
726.84	6216.27
727.027	6253.13
727.213	6085.2
727.4	6320.71
727.586	6251.08
727.773	6175.31
727.959	6292.04
728.145	6167.12
728.332	6261.32
728.518	6156.88
728.705	6224.46
728.891	6236.75
729.077	6253.13
729.264	6330.95
729.45	6259.28
729.636	6398.54
729.823	6216.27
730.009	6244.94
730.195	6335.05
730.382	6269.51
730.568	6105.68
730.754	6203.98
730.94	6165.07
731.126	6249.04
731.313	6201.93
731.499	6261.32
731.685	6275.66
731.871	6322.76
732.057	6281.8
732.243	6330.95
732.429	6158.92
732.615	6222.41
732.801	6251.08
732.987	6320.71
733.173	6187.6
733.359	6253.13
733.545	6242.89
733.731	6023.76
733.917	6150.73
734.103	6191.69
734.289	6324.81
734.475	6242.89
734.661	6044.24
734.847	6220.36
735.033	6249.04
735.219	6246.99
735.404	6236.75
735.59	6255.18
735.776	6183.5
735.962	6384.2
736.148	6285.9
736.333	6072.91
736.519	6160.97
736.705	6158.92
736.89	6175.31
737.076	6224.46
737.262	6111.82
737.447	6001.23
737.633	6074.96
737.819	6179.4
738.004	6099.53
738.19	6195.79
738.375	6042.19
738.561	6079.05
738.747	5988.94
738.932	5929.55
739.118	6052.43
739.303	5952.08
739.489	5933.65
739.674	5804.63
739.859	5853.78
740.045	6027.85
740.23	5966.42
740.416	5925.46
740.601	5954.13
740.786	6015.57
740.972	5728.85
741.157	5884.5
741.342	5845.59
741.528	5757.52
741.713	5818.96
741.898	5810.77
742.084	5763.67
742.269	5778
742.454	5663.32
742.639	5794.39
742.824	5802.58
743.01	5524.05
743.195	5696.08
743.38	5626.45
743.565	5683.8
743.75	5558.87
743.935	5548.63
744.12	5474.9
744.305	5429.85
744.49	5460.57
744.675	5411.42
744.86	5515.86
745.045	5397.08
745.23	5411.42
745.415	5407.32
745.6	5253.72
745.785	5245.53
745.97	5405.27
746.155	5335.64
746.34	5380.7
746.525	5210.72
746.71	5266.01
746.895	4946.53
747.079	5018.21
747.264	4876.9
747.449	5010.01
747.634	4930.14
747.819	5077.6
748.003	4911.71
748.188	4876.9
748.373	4891.23
748.557	4835.94
748.742	4719.2
748.927	4885.09
749.111	4688.48
749.296	4708.96
749.481	4614.76
749.665	4727.39
749.85	4500.07
750.034	4620.9
750.219	4530.79
750.404	4651.62
750.588	4459.11
750.773	4323.94
750.957	4487.78
751.141	4346.47
751.326	4348.52
751.51	4319.85
751.695	4299.37
751.879	4276.84
752.064	4258.41
752.248	4196.97
752.432	4256.36
752.617	3983.98
752.801	4029.04
752.985	4045.42
753.17	3955.31
753.354	4096.62
753.538	3981.93
753.722	3893.87
753.907	3861.1
754.091	3787.38
754.275	3750.51
754.459	3836.53
754.643	3805.81
754.828	3873.39
755.012	3674.74
755.196	3680.88
755.38	3551.86
755.564	3656.31
755.748	3582.58
755.932	3668.59
756.116	3660.4
756.3	3623.54
756.484	3539.57
756.668	3580.53
756.852	3416.69
757.036	3400.31
757.22	3381.88
757.404	3334.78
757.588	3355.26
757.772	3369.59
757.956	3426.93
758.14	3259
758.323	3277.43
758.507	3215.99
758.691	3205.75
758.875	3295.86
759.059	3318.39
759.242	3185.27
759.426	3086.97
759.61	3189.37
759.794	3127.93
759.977	2982.53
760.161	3074.68
760.345	3070.59
760.528	3060.35
760.712	2996.86
760.895	2931.33
761.079	3074.68
761.263	2910.85
761.446	2765.44
761.63	2853.5
761.813	2890.37
761.997	2787.97
762.18	2837.12
762.364	2933.37
762.547	2798.21
762.731	2804.35
762.914	2828.93
763.098	2726.53
763.281	2697.86
763.464	2761.34
763.648	2706.05
763.831	2798.21
764.015	2747.01
764.198	2734.72
764.381	2640.51
764.564	2601.6
764.748	2546.31
764.931	2648.71
765.114	2558.6
765.297	2605.7
765.481	2493.06
765.664	2523.78
765.847	2718.34
766.03	2560.64
766.213	2493.06
766.397	2450.05
766.58	2378.37
766.763	2413.19
766.946	2443.91
767.129	2460.29
767.312	2402.95
767.495	2331.27
767.678	2378.37
767.861	2394.76
768.044	2415.24
768.227	2345.61
768.41	2448.01
768.593	2323.08
768.776	2226.82
768.959	2413.19
769.142	2298.5
769.324	2192.01
769.507	2259.59
769.69	2374.28
769.873	2200.2
770.056	2204.3
770.239	2208.39
770.421	2282.12
770.604	2151.05
770.787	2124.43
770.97	2103.95
771.152	2185.87
771.335	2159.24
771.518	2052.75
771.7	2212.49
771.883	2155.15
772.066	2046.6
772.248	1913.49
772.431	2083.47
772.613	2019.98
772.796	2011.79
772.978	2112.14
773.161	1979.02
773.343	2005.64
773.526	1890.96
773.708	1819.28
773.891	1845.9
774.073	1936.01
774.256	2007.69
774.438	2022.03
774.621	1933.97
774.803	1948.3
774.985	1880.72
775.168	1890.96
775.35	1872.53
775.532	1737.36
775.715	1690.26
775.897	1774.22
776.079	1790.61
776.261	1712.78
776.444	1669.78
776.626	1706.64
776.808	1798.8
776.99	1608.34
777.173	1575.57
777.355	1616.53
777.537	1544.85
777.719	1645.2
777.901	1538.71
778.083	1563.28
778.265	1540.76
778.447	1608.34
778.629	1518.23
778.811	1573.52
778.993	1329.81
779.175	1546.9
779.357	1550.99
779.539	1477.27
779.721	1464.98
779.903	1477.27
780.085	1409.69
780.267	1489.56
780.449	1512.08
780.631	1383.06
780.812	1512.08
780.994	1436.31
781.176	1419.92
781.358	1258.14
781.54	1235.61
781.721	1340.05
781.903	1346.2
782.085	1333.91
782.267	1403.54
782.448	1190.55
782.63	1387.16
782.812	1272.47
782.993	1231.51
783.175	1213.08
783.357	1204.89
783.538	1276.57
783.72	1178.26
783.901	1288.86
784.083	1231.51
784.264	1231.51
784.446	1149.59
784.627	1149.59
784.809	1110.68
784.99	1114.78
785.172	1194.65
785.353	1086.11
785.535	1200.79
785.716	1139.35
785.897	1133.21
786.079	1075.87
786.26	1137.31
786.441	1063.58
786.623	1026.71
786.804	993.95
786.985	1002.14
787.167	1014.43
787.348	1010.33
787.529	965.28
787.71	1043.1
787.891	934.56
788.073	903.84
788.254	909.98
788.435	952.99
788.616	907.93
788.797	940.7
788.978	963.23
789.159	903.84
789.34	928.41
789.522	918.17
789.703	912.03
789.884	862.88
790.065	854.69
790.246	907.93
790.427	871.07
790.607	830.11
790.788	871.07
790.969	879.26
791.15	764.57
791.331	797.34
791.512	838.3
791.693	834.21
791.874	791.2
792.054	821.92
792.235	869.02
792.416	836.25
792.597	715.42
792.778	793.25
792.958	756.38
793.139	744.1
793.32	772.77
793.5	713.38
793.681	758.43
793.862	756.38
794.042	707.23
794.223	694.94
794.404	754.34
794.584	666.27
794.765	762.53
794.945	705.18
795.126	715.42
795.306	813.73
795.487	787.1
795.667	733.86
795.848	713.38
796.028	676.51
796.209	735.9
796.389	682.66
796.57	688.8
796.75	621.22
796.93	699.04
797.111	637.6
797.291	653.98
797.471	696.99
797.652	625.31
797.832	610.98
798.012	678.56
798.192	645.79
798.373	625.31
798.553	602.79
798.733	670.37
798.913	617.12
799.093	551.59
799.274	672.42
799.454	719.52
799.634	623.27
799.814	572.07
799.994	647.84
800.174	604.83
800.354	608.93
800.534	604.83
800.714	684.7
800.894	488.1
801.074	469.67
801.254	510.63
801.434	582.31
801.614	492.2
801.794	557.73
801.974	1264.28
802.154	516.77
802.334	557.73
802.514	475.81
802.693	531.11
802.873	557.73
803.053	598.69
803.233	549.54
803.413	434.85
803.592	539.3
803.772	502.43
803.952	516.77
804.131	510.63
804.311	514.72
804.491	545.44
804.67	471.72
804.85	518.82
805.03	565.92
805.209	531.11
805.389	453.28
805.568	418.47
805.748	500.39
805.928	486.05
806.107	508.58
806.287	428.71
806.466	477.86
806.646	412.32
806.825	477.86
807.004	445.09
807.184	451.24
807.363	473.76
807.543	434.85
807.722	359.08
807.901	518.82
808.081	492.2
808.26	406.18
808.439	500.39
808.619	387.75
808.798	402.08
808.977	494.24
809.156	453.28
809.336	387.75
809.515	473.76
809.694	387.75
809.873	369.32
810.052	449.19
810.231	516.77
810.411	426.66
810.59	432.8
810.769	494.24
810.948	443.04
811.127	281.25
811.306	385.7
811.485	354.98
811.664	486.05
811.843	377.51
812.022	475.81
812.201	395.94
812.38	330.41
812.559	402.08
812.737	332.45
812.916	260.77
813.095	346.79
813.274	387.75
813.453	354.98
813.632	371.37
813.811	338.6
813.989	314.02
814.168	352.93
814.347	297.64
814.526	410.28
814.704	445.09
814.883	379.56
815.062	322.21
815.24	436.9
815.419	342.69
815.598	309.93
815.776	322.21
815.955	367.27
816.133	322.21
816.312	232.1
816.49	385.7
816.669	295.59
816.847	291.49
817.026	281.25
817.204	281.25
817.383	314.02
817.561	215.72
817.74	256.68
817.918	232.1
818.097	264.87
818.275	221.86
818.453	291.49
818.632	314.02
818.81	275.11
818.988	256.68
819.167	299.69
819.345	309.93
819.523	283.3
819.701	248.49
819.879	228.01
820.058	314.02
820.236	326.31
820.414	273.06
820.592	273.06
820.77	213.67
820.948	277.16
821.127	258.73
821.305	332.45
821.483	264.87
821.661	301.73
821.839	332.45
822.017	195.24
822.195	285.35
822.373	254.63
822.551	240.29
822.729	338.6
822.907	264.87
823.085	330.41
823.262	232.1
823.44	228.01
823.618	230.06
823.796	244.39
823.974	230.06
824.152	232.1
824.329	191.14
824.507	228.01
824.685	182.95
824.863	273.06
825.04	221.86
825.218	191.14
825.396	295.59
825.574	287.4
825.751	252.58
825.929	205.48
826.107	197.29
826.284	172.71
826.462	156.33
826.639	248.49
826.817	170.66
826.994	166.57
827.172	148.14
827.349	279.21
827.527	232.1
827.704	191.14
827.882	193.19
828.059	201.38
828.237	228.01
828.414	223.91
828.591	135.85
828.769	195.24
828.946	166.57
829.124	205.48
829.301	248.49
829.478	150.18
829.655	209.58
829.833	158.38
830.01	121.51
830.187	252.58
830.364	246.44
830.542	297.64
830.719	238.25
830.896	187.05
831.073	275.11
831.25	158.38
831.427	223.91
831.604	150.18
831.782	195.24
831.959	205.48
832.136	121.51
832.313	158.38
832.49	193.19
832.667	203.43
832.844	211.62
833.021	225.96
833.198	197.29
833.374	203.43
833.551	137.9
833.728	168.62
833.905	203.43
834.082	164.52
834.259	121.51
834.436	125.61
834.612	199.34
834.789	209.58
834.966	199.34
835.143	139.94
835.319	144.04
835.496	119.46
835.673	262.82
835.85	195.24
836.026	133.8
836.203	221.86
836.38	150.18
836.556	133.8
836.733	74.41
836.909	185
837.086	129.7
837.262	115.37
837.439	156.33
837.616	201.38
837.792	92.84
837.968	115.37
838.145	82.6
838.321	141.99
838.498	156.33
838.674	101.03
838.851	176.81
839.027	133.8
839.203	90.79
839.38	80.55
839.556	66.22
839.732	150.18
839.909	80.55
840.085	144.04
840.261	51.88
840.437	131.75
840.614	109.22
840.79	207.53
840.966	199.34
841.142	207.53
841.318	117.42
841.494	160.42
841.671	170.66
841.847	223.91
842.023	88.75
842.199	189.1
842.375	135.85
842.551	84.65
842.727	12.97
842.903	148.14
843.079	72.36
843.255	103.08
843.431	133.8
843.607	139.94
843.783	25.26
843.959	74.41
844.134	119.46
844.31	62.12
844.486	111.27
844.662	135.85
844.838	105.13
845.013	80.55
845.189	162.47
845.365	150.18
845.541	125.61
845.716	55.98
845.892	148.14
846.068	84.65
846.244	92.84
846.419	135.85
846.595	82.6
846.77	117.42
846.946	203.43
847.122	113.32
847.297	105.13
847.473	144.04
847.648	64.17
847.824	123.56
847.999	90.79
848.175	109.22
848.35	105.13
848.526	158.38
848.701	144.04
848.876	107.18
849.052	168.62
849.227	94.89
849.403	98.99
849.578	101.03
849.753	121.51
849.929	109.22
850.104	51.88
850.279	58.03
850.454	39.59
850.63	58.03
850.805	82.6
850.98	45.74
851.155	43.69
851.33	113.32
851.505	17.07
851.681	150.18
851.856	62.12
852.031	105.13
852.206	113.32
852.381	43.69
852.556	6.83
852.731	101.03
852.906	68.27
853.081	76.46
853.256	107.18
853.431	41.64
853.606	51.88
853.781	98.99
853.956	-25.94
854.131	68.27
854.305	-7.51
854.48	51.88
854.655	-30.04
854.83	64.17
855.005	53.93
855.18	115.37
855.354	29.35
855.529	80.55
855.704	47.79
855.879	12.97
856.053	49.83
856.228	58.03
856.403	101.03
856.577	25.26
856.752	-44.37
856.926	47.79
857.101	66.22
857.276	45.74
857.45	80.55
857.625	25.26
857.799	76.46
857.974	31.4
858.148	-19.8
858.323	105.13
858.497	60.07
858.672	-11.61
858.846	0.68
859.02	94.89
859.195	25.26
859.369	51.88
859.543	25.26
859.718	76.46
859.892	111.27
860.066	72.36
860.241	60.07
860.415	10.92
860.589	60.07
860.763	60.07
860.938	72.36
861.112	117.42
861.286	49.83
861.46	19.11
861.634	101.03
861.808	19.11
861.982	-42.32
862.157	90.79
862.331	15.02
862.505	35.5
862.679	-21.85
862.853	86.7
863.027	0.68
863.201	86.7
863.375	41.64
863.549	12.97
863.722	35.5
863.896	43.69
864.07	-21.85
864.244	98.99
864.418	-13.65
864.592	58.03
864.766	-34.13
864.939	-5.46
865.113	10.92
865.287	78.51
865.461	55.98
865.634	-5.46
865.808	-11.61
865.982	60.07
866.156	27.31
866.329	-32.08
866.503	41.64
866.676	66.22
866.85	101.03
867.024	17.07
867.197	92.84
867.371	45.74
867.544	-23.89
867.718	-11.61
867.891	21.16
868.065	-27.99
868.238	6.83
868.412	39.59
868.585	19.11
868.759	68.27
868.932	21.16
869.105	-38.23
869.279	33.45
869.452	-7.51
869.625	66.22
869.799	2.73
869.972	-30.04
870.145	4.78
870.319	10.92
870.492	64.17
870.665	-21.85
870.838	-46.42
871.011	-30.04
871.185	25.26
871.358	45.74
871.531	-42.32
871.704	47.79
871.877	84.65
872.05	-19.8
872.223	0.68
872.396	49.83
872.569	80.55
872.742	-85.33
872.915	74.41
873.088	-15.7
873.261	2.73
873.434	125.61
873.607	-9.56
873.78	86.7
873.953	8.87
874.126	-21.85
874.299	-19.8
874.471	10.92
874.644	-7.51
874.817	-1.37
874.99	74.41
875.163	8.87
875.335	33.45
875.508	45.74
875.681	76.46
875.853	43.69
876.026	0.68
876.199	51.88
876.371	39.59
876.544	51.88
876.717	23.21
876.889	-1.37
877.062	68.27
877.234	27.31
877.407	15.02
877.579	25.26
877.752	39.59
877.924	58.03
878.097	-38.23
878.269	19.11
878.442	-73.04
878.614	-1.37
878.786	25.26
878.959	-25.94
879.131	-11.61
879.303	-46.42
879.476	15.02
879.648	10.92
879.82	-62.8
879.993	27.31
880.165	39.59
880.337	33.45
880.509	76.46
880.681	-9.56
880.854	-25.94
881.026	8.87
881.198	82.6
881.37	68.27
881.542	-87.38
881.714	2.73
881.886	10.92
882.058	2.73
882.23	-3.41
882.402	25.26
882.574	-13.65
882.746	19.11
882.918	55.98
883.09	80.55
883.262	23.21
883.434	-25.94
883.606	-25.94
883.778	19.11
883.95	76.46
884.122	35.5
884.293	-5.46
884.465	-38.23
884.637	35.5
884.809	29.35
884.98	76.46
885.152	15.02
885.324	90.79
885.496	-15.7
885.667	0.68
885.839	0.68
886.011	-38.23
886.182	2.73
886.354	39.59
886.525	15.02
886.697	35.5
886.869	27.31
887.04	-56.66
887.212	27.31
887.383	31.4
887.555	-13.65
887.726	8.87
887.897	-56.66
888.069	76.46
888.24	-13.65
888.412	-30.04
888.583	23.21
888.754	60.07
888.926	-54.61
889.097	27.31
889.268	-64.85
889.44	-79.19
889.611	-38.23
889.782	23.21
889.953	-15.7
890.125	51.88
890.296	-85.33
890.467	21.16
890.638	-9.56
890.809	-7.51
890.98	-17.75
891.151	-13.65
891.323	-21.85
891.494	-11.61
891.665	-30.04
891.836	0.68
892.007	17.07
892.178	98.99
892.349	-13.65
892.52	6.83
892.691	-13.65
892.862	-38.23
893.032	-132.44
893.203	-1.37
893.374	-30.04
893.545	68.27
893.716	19.11
893.887	66.22
894.057	37.55
894.228	25.26
894.399	76.46
894.57	-3.41
894.74	-87.38
894.911	51.88
895.082	-27.99
895.253	33.45
895.423	51.88
895.594	29.35
895.764	-21.85
895.935	-7.51
896.106	64.17
896.276	-13.65
896.447	-17.75
896.617	-46.42
896.788	-75.09
896.958	-9.56
897.129	17.07
897.299	4.78
897.47	105.13
897.64	19.11
897.81	-21.85
897.981	-7.51
898.151	-13.65
898.322	-46.42
898.492	10.92
898.662	43.69
898.832	-7.51
899.003	4.78
899.173	-7.51
899.343	-91.48
899.513	-34.13
