Data from USB4F104151__7__11-29-36-168.txt Node

Date: Fri Mar 14 11:29:36 EDT 2025
User: louis
Spectrometer: USB4F10415
Trigger mode: 4
Integration Time (sec): 5.000000E-2
Scans to average: 1
Electric dark correction enabled: true
Nonlinearity correction enabled: false
Boxcar width: 0
XAxis mode: Wavelengths
Number of Pixels in Spectrum: 3648
>>>>>Begin Spectral Data<<<<<
178.204	-98.99
178.424	-98.99
178.644	-98.99
178.864	-125.61
179.084	-160.42
179.304	3.41
179.524	-19.11
179.744	11.61
179.964	54.61
180.184	9.56
180.404	-41.64
180.624	3.41
180.844	-25.26
181.064	-4.78
181.283	40.28
181.503	-58.03
181.723	25.94
181.943	-19.11
182.163	58.71
182.383	-70.31
182.602	38.23
182.822	46.42
183.042	21.85
183.262	-70.31
183.482	-6.83
183.701	38.23
183.921	5.46
184.141	-2.73
184.361	161.11
184.58	-45.74
184.8	-4.78
185.02	-37.55
185.239	58.71
185.459	38.23
185.679	58.71
185.898	-45.74
186.118	7.51
186.338	-0.68
186.557	46.42
186.777	-10.92
186.997	-86.7
187.216	34.13
187.436	89.43
187.655	-2.73
187.875	-12.97
188.095	-62.12
188.314	77.14
188.534	93.52
188.753	-10.92
188.973	-10.92
189.192	101.72
189.412	9.56
189.631	36.18
189.851	11.61
190.07	68.95
190.29	-62.12
190.509	9.56
190.729	-17.07
190.948	93.52
191.168	142.68
191.387	-37.55
191.607	15.7
191.826	-39.59
192.045	1.37
192.265	-27.31
192.484	-23.21
192.704	46.42
192.923	21.85
193.142	48.47
193.362	38.23
193.581	-2.73
193.8	5.46
194.02	-15.02
194.239	-10.92
194.458	-2.73
194.678	7.51
194.897	42.32
195.116	52.56
195.335	38.23
195.555	19.8
195.774	-2.73
195.993	-19.11
196.212	-60.07
196.432	3.41
196.651	77.14
196.87	25.94
197.089	120.15
197.308	-12.97
197.528	21.85
197.747	1.37
197.966	36.18
198.185	30.04
198.404	46.42
198.623	-2.73
198.842	-4.78
199.062	83.28
199.281	-4.78
199.5	13.65
199.719	-29.35
199.938	3.41
200.157	25.94
200.376	21.85
200.595	75.09
200.814	42.32
201.033	-12.97
201.252	48.47
201.471	118.1
201.69	91.48
201.909	46.42
202.128	11.61
202.347	-25.26
202.566	27.99
202.785	-37.55
203.004	-6.83
203.223	142.68
203.442	13.65
203.661	-68.27
203.879	13.65
204.098	5.46
204.317	-25.26
204.536	-23.21
204.755	91.48
204.974	17.75
205.193	-51.88
205.411	83.28
205.63	95.57
205.849	-37.55
206.068	-19.11
206.287	-19.11
206.505	-43.69
206.724	73.04
206.943	-12.97
207.162	5.46
207.381	-10.92
207.599	-17.07
207.818	-31.4
208.037	54.61
208.255	93.52
208.474	13.65
208.693	-2.73
208.911	19.8
209.13	11.61
209.349	-78.51
209.567	-27.31
209.786	64.85
210.005	-10.92
210.223	-10.92
210.442	-29.35
210.661	42.32
210.879	32.08
211.098	-23.21
211.316	9.56
211.535	89.43
211.753	46.42
211.972	21.85
212.191	23.89
212.409	-10.92
212.628	3.41
212.846	34.13
213.065	95.57
213.283	52.56
213.502	-39.59
213.72	19.8
213.938	9.56
214.157	-2.73
214.375	36.18
214.594	5.46
214.812	46.42
215.031	-51.88
215.249	-78.51
215.467	75.09
215.686	-0.68
215.904	38.23
216.122	36.18
216.341	85.33
216.559	38.23
216.778	54.61
216.996	-10.92
217.214	15.7
217.432	-15.02
217.651	5.46
217.869	-23.21
218.087	36.18
218.306	-19.11
218.524	34.13
218.742	-47.79
218.96	34.13
219.179	58.71
219.397	54.61
219.615	81.24
219.833	17.75
220.051	-6.83
220.27	95.57
220.488	54.61
220.706	36.18
220.924	-62.12
221.142	-25.26
221.36	3.41
221.578	-17.07
221.796	21.85
222.015	40.28
222.233	-35.5
222.451	83.28
222.669	25.94
222.887	-29.35
223.105	-6.83
223.323	27.99
223.541	-49.83
223.759	54.61
223.977	54.61
224.195	19.8
224.413	132.44
224.631	50.52
224.849	46.42
225.067	48.47
225.285	-70.31
225.503	-19.11
225.721	-6.83
225.939	-90.79
226.157	-12.97
226.375	118.1
226.592	87.38
226.81	-21.16
227.028	87.38
227.246	54.61
227.464	27.99
227.682	21.85
227.9	-43.69
228.117	-0.68
228.335	-15.02
228.553	-21.16
228.771	79.19
228.989	5.46
229.206	38.23
229.424	-0.68
229.642	13.65
229.86	-45.74
230.077	25.94
230.295	21.85
230.513	32.08
230.731	52.56
230.948	-2.73
231.166	-31.4
231.384	25.94
231.601	-45.74
231.819	11.61
232.037	-10.92
232.254	7.51
232.472	21.85
232.689	-21.16
232.907	58.71
233.125	-2.73
233.342	-37.55
233.56	-43.69
233.777	36.18
233.995	1.37
234.213	48.47
234.43	-23.21
234.648	11.61
234.865	-17.07
235.083	-2.73
235.3	-27.31
235.518	99.67
235.735	60.76
235.953	5.46
236.17	-96.94
236.388	25.94
236.605	71
236.822	-19.11
237.04	95.57
237.257	-2.73
237.475	54.61
237.692	1.37
237.909	52.56
238.127	-21.16
238.344	-2.73
238.562	44.37
238.779	1.37
238.996	-19.11
239.214	68.95
239.431	36.18
239.648	5.46
239.865	130.39
240.083	-8.87
240.3	-6.83
240.517	3.41
240.735	-2.73
240.952	11.61
241.169	66.9
241.386	-10.92
241.603	64.85
241.821	-37.55
242.038	52.56
242.255	30.04
242.472	11.61
242.689	-15.02
242.907	83.28
243.124	56.66
243.341	11.61
243.558	7.51
243.775	40.28
243.992	-6.83
244.209	19.8
244.426	68.95
244.643	21.85
244.86	-31.4
245.078	99.67
245.295	-37.55
245.512	11.61
245.729	-55.98
245.946	44.37
246.163	48.47
246.38	-35.5
246.597	34.13
246.814	25.94
247.031	27.99
247.248	60.76
247.464	83.28
247.681	-51.88
247.898	25.94
248.115	-2.73
248.332	-15.02
248.549	107.86
248.766	42.32
248.983	30.04
249.2	103.76
249.417	30.04
249.633	48.47
249.85	71
250.067	21.85
250.284	27.99
250.501	25.94
250.717	9.56
250.934	-80.55
251.151	-4.78
251.368	9.56
251.585	60.76
251.801	-27.31
252.018	-35.5
252.235	44.37
252.451	13.65
252.668	13.65
252.885	42.32
253.102	-10.92
253.318	50.52
253.535	-84.65
253.752	25.94
253.968	-0.68
254.185	46.42
254.401	-4.78
254.618	38.23
254.835	11.61
255.051	40.28
255.268	9.56
255.484	1.37
255.701	52.56
255.917	21.85
256.134	-23.21
256.351	-88.75
256.567	-29.35
256.784	-4.78
257	5.46
257.217	19.8
257.433	-2.73
257.65	21.85
257.866	30.04
258.082	-84.65
258.299	-35.5
258.515	21.85
258.732	-43.69
258.948	15.7
259.165	30.04
259.381	3.41
259.597	42.32
259.814	9.56
260.03	71
260.246	9.56
260.463	-31.4
260.679	-39.59
260.895	-10.92
261.112	11.61
261.328	68.95
261.544	-2.73
261.761	85.33
261.977	54.61
262.193	-19.11
262.409	25.94
262.626	7.51
262.842	27.99
263.058	-6.83
263.274	54.61
263.49	-60.07
263.707	27.99
263.923	13.65
264.139	-72.36
264.355	58.71
264.571	91.48
264.787	15.7
265.004	50.52
265.22	30.04
265.436	36.18
265.652	60.76
265.868	-23.21
266.084	-70.31
266.3	1.37
266.516	-35.5
266.732	58.71
266.948	-6.83
267.164	-8.87
267.38	46.42
267.596	17.75
267.812	77.14
268.028	-64.17
268.244	11.61
268.46	-0.68
268.676	-19.11
268.892	9.56
269.108	9.56
269.324	-47.79
269.54	-64.17
269.756	3.41
269.972	-33.45
270.188	5.46
270.403	-47.79
270.619	52.56
270.835	34.13
271.051	-12.97
271.267	-43.69
271.483	30.04
271.698	21.85
271.914	83.28
272.13	17.75
272.346	48.47
272.562	30.04
272.777	25.94
272.993	23.89
273.209	30.04
273.425	11.61
273.64	36.18
273.856	-4.78
274.072	34.13
274.287	-60.07
274.503	58.71
274.719	19.8
274.934	42.32
275.15	30.04
275.366	-31.4
275.581	-10.92
275.797	-21.16
276.012	-15.02
276.228	-43.69
276.444	-27.31
276.659	52.56
276.875	-80.55
277.09	25.94
277.306	42.32
277.521	91.48
277.737	-6.83
277.952	17.75
278.168	9.56
278.383	-6.83
278.599	21.85
278.814	19.8
279.03	-47.79
279.245	40.28
279.461	60.76
279.676	-15.02
279.892	17.75
280.107	-29.35
280.322	19.8
280.538	23.89
280.753	-29.35
280.969	40.28
281.184	27.99
281.399	38.23
281.615	3.41
281.83	120.15
282.045	9.56
282.26	30.04
282.476	42.32
282.691	50.52
282.906	38.23
283.122	83.28
283.337	-39.59
283.552	56.66
283.767	17.75
283.983	44.37
284.198	-33.45
284.413	17.75
284.628	-60.07
284.843	38.23
285.058	42.32
285.274	46.42
285.489	-60.07
285.704	50.52
285.919	5.46
286.134	-51.88
286.349	-0.68
286.564	-8.87
286.779	34.13
286.995	-4.78
287.21	15.7
287.425	17.75
287.64	13.65
287.855	-31.4
288.07	-84.65
288.285	15.7
288.5	87.38
288.715	103.76
288.93	32.08
289.145	-51.88
289.36	13.65
289.575	-2.73
289.79	-12.97
290.004	-53.93
290.219	38.23
290.434	-43.69
290.649	-2.73
290.864	-31.4
291.079	-45.74
291.294	-19.11
291.509	13.65
291.724	-10.92
291.938	27.99
292.153	23.89
292.368	-12.97
292.583	101.72
292.798	71
293.012	50.52
293.227	30.04
293.442	17.75
293.657	71
293.871	68.95
294.086	71
294.301	87.38
294.516	77.14
294.73	17.75
294.945	32.08
295.16	-4.78
295.374	120.15
295.589	91.48
295.804	-19.11
296.018	-6.83
296.233	27.99
296.447	3.41
296.662	9.56
296.877	101.72
297.091	21.85
297.306	87.38
297.52	21.85
297.735	62.8
297.949	-92.84
298.164	15.7
298.378	3.41
298.593	-21.16
298.807	-2.73
299.022	46.42
299.236	73.04
299.451	-10.92
299.665	111.96
299.88	60.76
300.094	66.9
300.309	50.52
300.523	-12.97
300.737	-31.4
300.952	30.04
301.166	34.13
301.381	-101.03
301.595	42.32
301.809	46.42
302.024	44.37
302.238	-103.08
302.452	54.61
302.667	68.95
302.881	75.09
303.095	50.52
303.309	30.04
303.524	54.61
303.738	19.8
303.952	60.76
304.166	44.37
304.381	-12.97
304.595	23.89
304.809	-37.55
305.023	21.85
305.237	-70.31
305.452	-19.11
305.666	95.57
305.88	54.61
306.094	68.95
306.308	66.9
306.522	71
306.736	34.13
306.95	9.56
307.164	13.65
307.379	-2.73
307.593	56.66
307.807	38.23
308.021	-6.83
308.235	25.94
308.449	-62.12
308.663	19.8
308.877	36.18
309.091	62.8
309.305	64.85
309.519	-45.74
309.733	-23.21
309.947	-39.59
310.161	5.46
310.374	77.14
310.588	118.1
310.802	48.47
311.016	-0.68
311.23	-23.21
311.444	-27.31
311.658	-10.92
311.872	21.85
312.085	25.94
312.299	66.9
312.513	34.13
312.727	5.46
312.941	-4.78
313.154	44.37
313.368	-12.97
313.582	13.65
313.796	34.13
314.009	21.85
314.223	54.61
314.437	36.18
314.651	36.18
314.864	-37.55
315.078	-6.83
315.292	1.37
315.505	-76.46
315.719	38.23
315.933	13.65
316.146	83.28
316.36	-64.17
316.573	42.32
316.787	36.18
317.001	27.99
317.214	34.13
317.428	52.56
317.641	-53.93
317.855	13.65
318.068	30.04
318.282	-27.31
318.495	116.05
318.709	-21.16
318.922	-27.31
319.136	32.08
319.349	3.41
319.563	-2.73
319.776	19.8
319.99	-51.88
320.203	77.14
320.417	36.18
320.63	75.09
320.843	21.85
321.057	30.04
321.27	9.56
321.483	79.19
321.697	1.37
321.91	46.42
322.124	25.94
322.337	30.04
322.55	15.7
322.763	62.8
322.977	-39.59
323.19	-2.73
323.403	23.89
323.617	21.85
323.83	-12.97
324.043	3.41
324.256	54.61
324.469	21.85
324.683	62.8
324.896	50.52
325.109	81.24
325.322	-82.6
325.535	62.8
325.748	109.91
325.962	-17.07
326.175	11.61
326.388	-15.02
326.601	27.99
326.814	5.46
327.027	23.89
327.24	87.38
327.453	71
327.666	116.05
327.879	13.65
328.092	-4.78
328.305	27.99
328.518	-31.4
328.731	50.52
328.944	25.94
329.157	71
329.37	68.95
329.583	25.94
329.796	87.38
330.009	-27.31
330.222	38.23
330.435	17.75
330.648	21.85
330.861	17.75
331.073	38.23
331.286	-6.83
331.499	48.47
331.712	5.46
331.925	60.76
332.138	-23.21
332.35	107.86
332.563	27.99
332.776	73.04
332.989	-17.07
333.202	30.04
333.414	64.85
333.627	81.24
333.84	30.04
334.053	-37.55
334.265	-51.88
334.478	23.89
334.691	60.76
334.903	87.38
335.116	25.94
335.329	107.86
335.541	19.8
335.754	68.95
335.966	-43.69
336.179	46.42
336.392	58.71
336.604	9.56
336.817	85.33
337.029	25.94
337.242	13.65
337.454	71
337.667	-47.79
337.88	40.28
338.092	60.76
338.305	-27.31
338.517	38.23
338.729	19.8
338.942	-4.78
339.154	5.46
339.367	-6.83
339.579	87.38
339.792	-4.78
340.004	83.28
340.217	30.04
340.429	5.46
340.641	17.75
340.854	38.23
341.066	19.8
341.278	79.19
341.491	105.81
341.703	3.41
341.915	-21.16
342.128	9.56
342.34	30.04
342.552	1.37
342.764	58.71
342.977	44.37
343.189	9.56
343.401	42.32
343.613	38.23
343.826	1.37
344.038	32.08
344.25	93.52
344.462	13.65
344.674	25.94
344.886	-10.92
345.099	85.33
345.311	5.46
345.523	34.13
345.735	-39.59
345.947	46.42
346.159	68.95
346.371	-47.79
346.583	-15.02
346.795	30.04
347.007	-2.73
347.219	36.18
347.431	-2.73
347.643	52.56
347.855	19.8
348.067	1.37
348.279	-2.73
348.491	68.95
348.703	54.61
348.915	15.7
349.127	-15.02
349.339	103.76
349.551	-0.68
349.763	93.52
349.975	42.32
350.187	38.23
350.399	85.33
350.61	36.18
350.822	-51.88
351.034	128.34
351.246	21.85
351.458	79.19
351.669	-15.02
351.881	44.37
352.093	42.32
352.305	52.56
352.517	1.37
352.728	107.86
352.94	52.56
353.152	71
353.363	-6.83
353.575	81.24
353.787	9.56
353.999	32.08
354.21	73.04
354.422	1.37
354.633	-33.45
354.845	95.57
355.057	19.8
355.268	-84.65
355.48	87.38
355.692	-23.21
355.903	79.19
356.115	27.99
356.326	-70.31
356.538	21.85
356.749	103.76
356.961	154.96
357.172	81.24
357.384	48.47
357.595	36.18
357.807	-58.03
358.018	9.56
358.23	44.37
358.441	-15.02
358.653	105.81
358.864	-21.16
359.075	-41.64
359.287	38.23
359.498	21.85
359.709	75.09
359.921	-25.26
360.132	-10.92
360.344	48.47
360.555	54.61
360.766	52.56
360.977	85.33
361.189	44.37
361.4	85.33
361.611	62.8
361.823	62.8
362.034	17.75
362.245	17.75
362.456	60.76
362.667	46.42
362.879	23.89
363.09	56.66
363.301	25.94
363.512	15.7
363.723	27.99
363.935	71
364.146	79.19
364.357	11.61
364.568	56.66
364.779	13.65
364.99	124.24
365.201	30.04
365.412	60.76
365.623	-6.83
365.834	11.61
366.045	81.24
366.256	99.67
366.467	114
366.678	89.43
366.889	-27.31
367.1	58.71
367.311	62.8
367.522	64.85
367.733	128.34
367.944	13.65
368.155	34.13
368.366	95.57
368.577	-0.68
368.788	46.42
368.999	13.65
369.209	5.46
369.42	93.52
369.631	85.33
369.842	77.14
370.053	30.04
370.264	136.53
370.474	75.09
370.685	75.09
370.896	-45.74
371.107	44.37
371.317	-29.35
371.528	-4.78
371.739	40.28
371.95	89.43
372.16	83.28
372.371	-29.35
372.582	50.52
372.792	-8.87
373.003	167.25
373.214	38.23
373.424	44.37
373.635	32.08
373.846	120.15
374.056	77.14
374.267	66.9
374.477	3.41
374.688	-60.07
374.898	13.65
375.109	-2.73
375.319	62.8
375.53	95.57
375.74	99.67
375.951	85.33
376.161	5.46
376.372	81.24
376.582	11.61
376.793	-39.59
377.003	38.23
377.214	-15.02
377.424	83.28
377.635	50.52
377.845	21.85
378.055	77.14
378.266	54.61
378.476	71
378.686	-19.11
378.897	25.94
379.107	25.94
379.317	54.61
379.528	60.76
379.738	75.09
379.948	-2.73
380.158	71
380.369	19.8
380.579	122.2
380.789	-31.4
380.999	42.32
381.21	23.89
381.42	13.65
381.63	-10.92
381.84	15.7
382.05	77.14
382.261	30.04
382.471	97.62
382.681	99.67
382.891	34.13
383.101	75.09
383.311	54.61
383.521	-17.07
383.731	11.61
383.941	1.37
384.151	52.56
384.361	46.42
384.571	27.99
384.781	44.37
384.991	103.76
385.201	5.46
385.411	44.37
385.621	116.05
385.831	54.61
386.041	17.75
386.251	5.46
386.461	71
386.671	11.61
386.881	17.75
387.091	46.42
387.301	58.71
387.511	62.8
387.72	71
387.93	52.56
388.14	-27.31
388.35	-80.55
388.56	85.33
388.769	103.76
388.979	71
389.189	25.94
389.399	60.76
389.609	13.65
389.818	109.91
390.028	62.8
390.238	52.56
390.447	46.42
390.657	118.1
390.867	21.85
391.076	58.71
391.286	34.13
391.496	25.94
391.705	46.42
391.915	179.54
392.125	93.52
392.334	21.85
392.544	46.42
392.753	68.95
392.963	-62.12
393.172	9.56
393.382	42.32
393.591	79.19
393.801	38.23
394.01	99.67
394.22	1.37
394.429	38.23
394.639	40.28
394.848	95.57
395.058	124.24
395.267	38.23
395.477	66.9
395.686	93.52
395.895	62.8
396.105	138.58
396.314	85.33
396.524	52.56
396.733	-2.73
396.942	60.76
397.152	11.61
397.361	169.3
397.57	93.52
397.78	62.8
397.989	38.23
398.198	64.85
398.407	3.41
398.617	134.48
398.826	140.63
399.035	36.18
399.244	109.91
399.453	97.62
399.663	68.95
399.872	195.92
400.081	114
400.29	99.67
400.499	34.13
400.708	99.67
400.917	62.8
401.127	38.23
401.336	101.72
401.545	124.24
401.754	62.8
401.963	116.05
402.172	93.52
402.381	-0.68
402.59	111.96
402.799	116.05
403.008	126.29
403.217	91.48
403.426	177.49
403.635	75.09
403.844	40.28
404.053	107.86
404.262	114
404.471	208.21
404.68	144.72
404.888	99.67
405.097	75.09
405.306	169.3
405.515	171.35
405.724	136.53
405.933	118.1
406.142	181.59
406.35	122.2
406.559	126.29
406.768	177.49
406.977	269.65
407.185	128.34
407.394	214.35
407.603	116.05
407.812	193.87
408.02	218.45
408.229	243.03
408.438	308.56
408.646	95.57
408.855	210.26
409.064	134.48
409.272	167.25
409.481	310.61
409.69	218.45
409.898	185.68
410.107	267.6
410.315	296.27
410.524	234.83
410.733	265.55
410.941	279.89
411.15	329.04
411.358	345.42
411.567	410.96
411.775	320.85
411.984	374.1
412.192	372.05
412.401	345.42
412.609	488.78
412.818	482.64
413.026	445.77
413.234	427.34
413.443	415.06
413.651	527.69
413.86	503.12
414.068	451.92
414.276	550.22
414.485	550.22
414.693	683.34
414.901	568.65
415.11	554.32
415.318	669
415.526	585.04
415.734	642.38
415.943	699.72
416.151	808.26
416.359	750.92
416.567	841.03
416.776	795.98
416.984	896.33
417.192	884.04
417.4	849.22
417.608	910.66
417.817	918.86
418.025	1017.16
418.233	1029.45
418.441	951.62
418.649	1076.55
418.857	1043.78
419.065	1215.81
419.273	1144.13
419.481	1299.78
419.689	1314.11
419.897	1369.41
420.105	1387.84
420.313	1342.78
420.521	1502.53
420.729	1432.9
420.937	1574.21
421.145	1543.49
421.353	1705.28
421.561	1660.22
421.769	1758.52
421.977	1930.55
422.185	1791.29
422.393	1918.26
422.601	2086.2
422.809	1989.94
423.017	2002.23
423.224	2180.4
423.432	2247.99
423.64	2303.28
423.848	2485.55
424.056	2430.26
424.263	2618.67
424.471	2540.85
424.679	2565.42
424.887	2696.49
425.094	2815.27
425.302	2823.47
425.51	3075.37
425.718	3063.08
425.925	3044.65
426.133	3167.52
426.341	3362.08
426.548	3575.07
426.756	3462.43
426.964	3790.11
427.171	3839.26
427.379	3843.35
427.586	4080.92
427.794	4068.63
428.001	4492.56
428.209	4388.11
428.417	4416.79
428.624	4853
428.832	4840.72
429.039	4623.63
429.247	4719.89
429.454	5330.18
429.662	5522.69
429.869	5147.91
430.076	5543.17
430.284	5215.49
430.491	5641.47
430.699	5797.12
430.906	5866.75
431.114	5963
431.321	6239.48
431.528	6386.93
431.736	6728.94
431.943	7116.01
432.15	6946.03
432.358	7040.23
432.565	7415.01
432.772	7298.28
432.979	7687.39
433.187	7914.72
433.394	7943.39
433.601	8320.21
433.808	8643.79
434.016	8449.24
434.223	8762.58
434.43	9290.95
434.637	9039.05
434.844	9639.11
435.052	9723.07
435.259	9735.36
435.466	10030.27
435.673	9753.79
435.88	10396.85
436.087	10910.89
436.294	10814.64
436.501	10589.36
436.708	10958
436.915	11531.43
437.122	11807.91
437.329	11635.88
437.537	12104.86
437.743	12465.3
437.95	12287.13
438.157	13091.98
438.364	13403.27
438.571	13280.39
438.778	13526.15
438.985	14546.04
439.192	13905.03
439.399	14388.35
439.606	14111.87
439.813	14799.99
440.02	15875.17
440.227	15694.95
440.433	15473.77
440.64	15955.04
440.847	15733.86
441.054	16254.05
441.261	17351.76
441.467	17226.83
441.674	17161.3
441.881	18121.79
442.088	18222.14
442.294	17849.41
442.501	18535.48
442.708	18693.18
442.914	19524.65
443.121	20192.29
443.328	19749.93
443.534	21089.3
443.741	20341.79
443.948	20280.35
444.154	21742.6
444.361	21697.55
444.568	21801.99
444.774	21992.45
444.981	22082.56
445.187	22782.97
445.394	23772.14
445.6	23346.16
445.807	25451.47
446.013	24331.23
446.22	24974.3
446.426	25988.04
446.633	26162.12
446.839	27198.39
447.046	25969.61
447.252	27194.29
447.459	27280.31
447.665	27454.39
447.871	28226.47
448.078	29424.53
448.284	28320.68
448.491	28799.9
448.697	30073.74
448.903	30763.9
449.11	30747.52
449.316	29975.44
449.522	31007.61
449.728	31525.75
449.935	31597.43
450.141	32150.38
450.347	32338.79
450.553	31587.19
450.76	31382.39
450.966	32631.65
451.172	32396.13
451.378	33303.39
451.584	32799.58
451.791	33508.18
451.997	33102.68
452.203	33078.11
452.409	33688.4
452.615	33557.33
452.821	32398.18
453.027	31613.81
453.233	33528.66
453.44	32133.99
453.646	32701.28
453.852	32711.52
454.058	33258.33
454.264	31789.94
454.47	32645.99
454.676	31818.61
454.882	32951.13
455.088	30233.48
455.294	30743.42
455.5	31157.11
455.705	31155.07
455.911	29973.39
456.117	29105.05
456.323	29117.34
456.529	27448.24
456.735	28656.54
456.941	27700.14
457.147	27452.34
457.352	26729.41
457.558	25891.79
457.764	26375.11
457.97	25613.26
458.176	25123.8
458.381	25148.37
458.587	23765.99
458.793	23903.21
458.999	22557.69
459.204	24230.88
459.41	23237.62
459.616	22385.66
459.821	21808.14
460.027	21785.61
460.233	21482.51
460.438	20409.37
460.644	20419.61
460.85	19647.53
461.055	19500.08
461.261	19457.07
461.466	17908.8
461.672	17189.97
461.878	18402.36
462.083	17353.8
462.289	17116.24
462.494	16802.9
462.7	16106.59
462.905	15715.43
463.111	16290.91
463.316	16415.83
463.522	15905.89
463.727	16151.65
463.932	15799.4
464.138	15604.84
464.343	15877.22
464.549	15279.21
464.754	16059.49
464.959	16039.01
465.165	15766.63
465.37	15170.67
465.575	14339.19
465.781	15150.19
465.986	15367.27
466.191	14703.73
466.397	14445.69
466.602	13694.08
466.807	14386.3
467.012	14228.6
467.218	14165.12
467.423	13991.04
467.628	13808.77
467.833	14570.61
468.038	13972.61
468.244	13669.51
468.449	14472.31
468.654	13935.74
468.859	13665.41
469.064	13530.25
469.269	13091.98
469.474	13051.02
469.679	13347.98
469.885	13053.07
470.09	13100.17
470.295	13032.59
470.5	12848.27
470.705	12790.93
470.91	12747.92
471.115	12379.29
471.32	12594.33
471.525	12485.78
471.73	12272.79
471.935	12229.79
472.139	11818.14
472.344	11898.02
472.549	11900.06
472.754	11734.18
472.959	11439.27
473.164	11115.69
473.369	11191.47
473.574	11586.72
473.778	11330.73
473.983	11244.71
474.188	10933.42
474.393	10532.02
474.598	10720.43
474.802	10687.67
475.007	10601.65
475.212	10632.37
475.417	10173.63
475.621	10222.78
475.826	10065.08
476.031	9909.44
476.235	9831.62
476.44	9907.39
476.645	9848
476.849	9755.84
477.054	9585.86
477.259	9260.23
477.463	9352.39
477.668	9311.43
477.872	9274.57
478.077	9172.17
478.282	8877.26
478.486	8905.93
478.691	9032.91
478.895	8905.93
479.1	8742.1
479.304	8809.68
479.509	8574.16
479.713	8613.07
479.918	8463.57
480.122	8537.3
480.326	8582.35
480.531	8629.46
480.735	8412.37
480.94	8185.05
481.144	8645.84
481.348	8209.62
481.553	8305.88
481.757	8129.75
481.961	8164.57
482.166	8328.41
482.37	8164.57
482.574	8113.37
482.778	8228.06
482.983	8244.44
483.187	8363.22
483.391	8103.13
483.595	8139.99
483.8	7982.3
484.004	8230.1
484.208	8162.52
484.412	8287.45
484.616	8123.61
484.821	8359.13
485.025	8006.88
485.229	8230.1
485.433	7996.64
485.637	8078.55
485.841	8056.03
486.045	7998.68
486.249	8326.36
486.453	8078.55
486.657	8322.26
486.861	8271.06
487.065	7945.44
487.269	8049.88
487.473	7998.68
487.677	8201.43
487.881	8127.71
488.085	8088.79
488.289	8357.08
488.493	8131.8
488.697	8129.75
488.901	8174.81
489.105	8121.56
489.309	8137.95
489.512	8475.86
489.716	8185.05
489.92	8115.42
490.124	8113.37
490.328	8475.86
490.531	8260.82
490.735	8445.14
490.939	8504.53
491.143	8400.09
491.346	8320.21
491.55	8434.9
491.754	8418.52
491.958	8631.51
492.161	8576.21
492.365	8496.34
492.569	8578.26
492.772	8639.7
492.976	8611.03
493.18	8551.63
493.383	8678.61
493.587	8844.49
493.79	9000.14
493.994	8942.8
494.197	8639.7
494.401	9049.29
494.605	9012.43
494.808	9065.67
495.012	9161.93
495.215	9260.23
495.419	9270.47
495.622	9243.85
495.825	9450.69
496.029	9491.65
496.232	9778.37
496.436	9606.34
496.639	9923.77
496.843	9778.37
497.046	9919.68
497.249	10073.28
497.453	10169.53
497.656	10448.05
497.859	10280.12
498.063	10296.5
498.266	10622.13
498.469	10577.08
498.673	10685.62
498.876	10779.82
499.079	10960.05
499.282	10841.26
499.485	11072.68
499.689	10982.57
499.892	11334.82
500.095	11517.09
500.298	11746.47
500.501	11715.75
500.705	12080.28
500.908	12000.41
501.111	11826.34
501.314	12350.62
501.517	12481.69
501.72	12713.11
501.923	12555.41
502.126	12657.81
502.329	13124.75
502.532	12979.34
502.735	13151.37
502.938	13433.99
503.141	13339.79
503.344	13558.92
503.547	13579.4
503.75	13751.43
503.953	14140.54
504.156	14136.45
504.359	14056.57
504.562	14288
504.765	14759.03
504.968	14828.66
505.17	14922.87
505.373	14963.82
505.576	15262.83
505.779	15651.94
505.982	15494.25
506.185	15676.52
506.387	15938.66
506.59	15856.74
506.793	16182.37
506.996	16202.85
507.198	16546.9
507.401	16653.4
507.604	16825.43
507.807	16938.07
508.009	17187.92
508.212	17335.37
508.415	17529.93
508.617	17828.93
508.82	17814.6
509.022	18009.15
509.225	18285.63
509.428	18388.03
509.63	18469.95
509.833	18523.19
510.035	19205.17
510.238	18725.94
510.44	19035.19
510.643	19239.98
510.845	19778.6
511.048	19440.68
511.25	20153.38
511.453	20075.56
511.655	20806.68
511.858	20517.92
512.06	20603.93
512.262	20761.62
512.465	20687.9
512.667	21140.5
512.87	21431.31
513.072	21459.98
513.274	22191.11
513.477	22187.01
513.679	22184.96
513.881	22627.32
514.084	22785.02
514.286	22705.15
514.488	22735.87
514.69	23604.21
514.893	23532.53
515.095	23622.64
515.297	23634.92
515.499	23864.3
515.701	24298.47
515.904	24947.67
516.106	24716.25
516.308	24935.38
516.51	25330.64
516.712	25580.49
516.914	25637.84
517.116	25910.22
517.318	26104.78
517.52	26227.65
517.722	26305.48
517.925	26739.65
518.127	27130.81
518.329	27001.79
518.531	26956.73
518.733	27825.07
518.935	27769.77
519.136	27642.8
519.338	28367.78
519.54	28713.89
519.742	28500.9
519.944	28859.29
520.146	29551.51
520.348	29332.37
520.55	29877.13
520.752	29959.05
520.954	29975.44
521.155	30081.93
521.357	30487.43
521.559	30673.79
521.761	31255.42
521.963	31202.17
522.164	31425.4
522.366	31720.31
522.568	31708.02
522.77	32349.03
522.971	32713.57
523.173	32105.32
523.375	32672.61
523.576	32973.66
523.778	32967.52
523.98	33522.52
524.181	33733.46
524.383	33749.84
524.584	34085.71
524.786	33973.07
524.988	34315.08
525.189	34659.14
525.391	34949.95
525.592	35095.36
525.794	35648.31
525.995	35431.22
526.197	35384.12
526.398	35650.36
526.6	36023.09
526.801	36197.16
527.003	36178.73
527.204	36174.64
527.406	36664.1
527.607	36963.11
527.808	37194.53
528.01	36256.56
528.211	36854.56
528.412	37776.15
528.614	37724.95
528.815	37653.27
529.016	37919.51
529.218	37364.51
529.419	37821.2
529.62	38075.15
529.822	37919.51
530.023	37884.69
530.224	37964.56
530.425	38447.88
530.626	38075.15
530.828	38089.49
531.029	38996.74
531.23	38970.11
531.431	38937.35
531.632	39181.06
531.833	38748.93
532.035	38851.33
532.236	39197.44
532.437	39324.41
532.638	39279.36
532.839	39166.72
533.04	39265.02
533.241	39150.34
533.442	40205.04
533.643	39529.21
533.844	39570.17
534.045	39570.17
534.246	39647.99
534.447	39734.01
534.648	39459.58
534.849	39805.69
535.05	39551.74
535.251	39750.39
535.451	39744.25
535.652	40395.5
535.853	40116.98
536.054	40289.01
536.255	40338.16
536.456	39783.16
536.657	40360.69
536.857	39971.57
537.058	39873.27
537.259	40229.62
537.46	40227.57
537.66	39789.3
537.861	40262.38
538.062	40264.43
538.263	40438.51
538.463	39932.66
538.664	40100.59
538.865	40508.14
539.065	40280.81
539.266	39895.8
539.466	40522.47
539.667	39963.38
539.868	40536.81
540.068	40221.42
540.269	40004.34
540.469	40352.49
540.67	40024.82
540.87	40127.22
541.071	39922.42
541.271	40313.58
541.472	40094.45
541.672	40155.89
541.873	40164.08
542.073	39572.22
542.274	40289.01
542.474	40258.29
542.675	39959.28
542.875	40430.32
543.075	40389.36
543.276	39891.7
543.476	40338.16
543.676	39990
543.877	40442.6
544.077	40170.22
544.277	40180.46
544.478	40116.98
544.678	40225.52
544.878	40301.29
545.078	40311.53
545.279	39656.18
545.479	39639.8
545.679	40002.29
545.879	40258.29
546.079	40362.73
546.28	39662.33
546.48	40057.59
546.68	39942.9
546.88	40020.72
547.08	39961.33
547.28	40188.66
547.48	39715.58
547.68	40493.8
547.88	39828.21
548.081	39754.49
548.281	40336.11
548.481	39549.69
548.681	40045.3
548.881	40014.58
549.081	39813.88
549.28	39787.25
549.48	39791.35
549.68	39664.38
549.88	40405.74
550.08	39582.46
550.28	39779.06
550.48	39987.96
550.68	40188.66
550.88	39361.28
551.08	39578.36
551.279	40166.13
551.479	39615.22
551.679	39774.97
551.879	39568.12
552.079	40035.06
552.278	39713.53
552.478	39305.98
552.678	40110.83
552.878	39971.57
553.077	39432.96
553.277	39418.62
553.477	39856.89
553.676	39590.65
553.876	39674.62
554.076	39715.58
554.275	39387.9
554.475	38843.14
554.674	39488.25
554.874	39570.17
555.074	39209.73
555.273	39373.56
555.473	39607.03
555.672	39166.72
555.872	39168.77
556.071	39117.57
556.271	39148.29
556.47	39004.93
556.67	38724.36
556.869	38947.59
557.068	38908.68
557.268	38730.5
557.467	38269.71
557.667	38894.34
557.866	38286.09
558.065	38378.25
558.265	38189.84
558.464	38206.22
558.663	38683.4
558.863	37851.92
559.062	38644.49
559.261	37825.3
559.461	38157.07
559.66	37434.14
559.859	37931.79
560.058	37454.62
560.258	37864.21
560.457	37606.17
560.656	37784.34
560.855	37477.15
561.054	37606.17
561.253	36932.39
561.453	37460.76
561.652	37104.42
561.851	37489.43
562.05	36920.1
562.249	36627.24
562.448	36764.45
562.647	36457.26
562.846	36782.88
563.045	36504.36
563.244	36481.83
563.443	36420.39
563.642	35935.02
563.841	36014.9
564.04	36051.76
564.239	36485.93
564.438	35652.41
564.637	36033.33
564.836	36004.66
565.035	35220.28
565.234	35619.64
565.432	35277.63
565.631	35146.56
565.83	35167.04
566.029	35318.59
566.228	34933.57
566.427	34702.15
566.625	34904.9
566.824	34050.89
567.023	35007.3
567.222	34104.14
567.42	34642.76
567.619	34356.04
567.818	34327.37
568.016	34028.37
568.215	34462.54
568.414	34042.7
568.612	34401.1
568.811	33706.83
569.01	33983.31
569.208	33397.59
569.407	33663.83
569.605	32914.27
569.804	33366.87
570.002	32885.6
570.201	33373.02
570.4	32678.75
570.598	32693.09
570.797	32670.56
570.995	32627.56
571.193	32181.1
571.392	32717.67
571.59	32242.54
571.789	32258.92
571.987	32072.56
572.186	31861.62
572.384	31662.96
572.582	32082.8
572.781	32084.84
572.979	31542.13
573.177	31376.25
573.376	31581.04
573.574	30864.25
573.772	30923.65
573.971	31220.6
574.169	30802.82
574.367	30751.62
574.565	30765.95
574.763	30653.31
574.962	30624.64
575.16	30260.1
575.358	30335.88
575.556	30004.11
575.754	30428.04
575.952	29942.67
576.151	30372.74
576.349	29635.47
576.547	29807.5
576.745	29795.21
576.943	29557.65
577.141	29531.03
577.339	29639.57
577.537	29471.64
577.735	29514.64
577.933	29129.62
578.131	29662.1
578.329	29000.6
578.527	28705.7
578.725	28621.73
578.923	28871.58
579.121	28351.4
579.319	28572.58
579.516	28785.57
579.714	28572.58
579.912	28599.2
580.11	28062.63
580.308	28148.65
580.506	28310.44
580.704	27894.7
580.901	27863.98
581.099	28175.27
581.297	27612.08
581.495	27562.93
581.692	27937.71
581.89	27612.08
582.088	27683.76
582.285	27429.81
582.483	27618.22
582.681	27196.34
582.878	27057.08
583.076	26758.08
583.274	27161.53
583.471	26801.08
583.669	26815.42
583.866	26872.76
584.064	27169.72
584.262	26350.53
584.459	26702.78
584.657	26649.53
584.854	26854.33
585.052	26184.65
585.249	26469.31
585.447	26364.87
585.644	25871.31
585.841	26082.25
586.039	26239.94
586.236	25658.32
586.434	25928.65
586.631	25777.1
586.828	25646.03
587.026	25570.26
587.223	25537.49
587.42	25457.62
587.618	25207.76
587.815	24896.47
588.012	25279.44
588.21	25129.94
588.407	25095.13
588.604	25148.37
588.801	24892.38
588.999	24744.92
589.196	24865.75
589.393	24861.66
589.59	24925.14
589.787	24615.9
589.984	24136.68
590.182	24435.68
590.379	24212.45
590.576	24347.62
590.773	24552.41
590.97	24001.51
591.167	24232.93
591.364	23477.23
591.561	23874.54
591.758	23720.94
591.955	23757.8
592.152	23686.12
592.349	23385.07
592.546	23739.37
592.743	23376.88
592.94	23139.32
593.137	23317.49
593.334	23294.96
593.531	23241.71
593.727	23088.12
593.924	23229.43
594.121	22977.53
594.318	23299.06
594.515	22664.19
594.712	22686.72
594.908	22752.25
595.105	22791.16
595.302	22236.16
595.499	22500.35
595.696	22363.14
595.892	22283.27
596.089	22584.32
596.286	22207.49
596.482	22060.04
596.679	22203.39
596.876	22262.79
597.072	22086.66
597.269	21928.97
597.466	21838.86
597.662	21783.56
597.859	21384.21
598.055	21697.55
598.252	21546
598.448	21396.49
598.645	21343.25
598.841	21308.43
599.038	21431.31
599.234	21355.54
599.431	20915.22
599.627	21029.91
599.824	21275.66
600.02	20773.91
600.217	20671.51
600.413	20909.08
600.609	20945.94
600.806	20618.27
601.002	20812.82
601.198	20278.3
601.395	20626.46
601.591	20524.06
601.787	20290.59
601.984	20276.26
602.18	20380.7
602.376	20175.91
602.572	20020.26
602.769	19921.96
602.965	19786.79
603.161	20405.28
603.357	19817.51
603.553	19727.4
603.75	19848.23
603.946	19444.78
604.142	19639.34
604.338	19473.45
604.534	19473.45
604.73	19133.49
604.926	19127.35
605.122	19520.56
605.318	19133.49
605.514	19174.45
605.71	18943.03
605.906	18936.88
606.102	19018.8
606.298	19119.15
606.494	19129.39
606.69	18762.81
606.886	19065.91
607.082	18641.98
607.278	18709.56
607.474	18631.74
607.67	18637.88
607.866	18273.34
608.062	18594.87
608.257	18244.67
608.453	18428.99
608.649	18605.11
608.845	18236.48
609.041	18422.84
609.236	18359.36
609.432	18138.18
609.628	18172.99
609.824	17933.38
610.019	18056.26
610.215	18146.37
610.411	18003.01
610.606	17892.42
610.802	18021.44
610.998	17826.89
611.193	17968.2
611.389	17697.86
611.584	17863.75
611.78	17847.36
611.976	17798.21
612.171	17767.49
612.367	17540.17
612.562	17622.09
612.758	17562.7
612.953	17321.04
613.149	17787.97
613.344	17300.56
613.539	17595.46
613.735	17452.11
613.93	17335.37
614.126	17208.4
614.321	17441.87
614.517	17122.38
614.712	17407.05
614.907	17132.62
615.103	17280.08
615.298	17142.86
615.493	17280.08
615.688	16645.21
615.884	17378.38
616.079	16753.75
616.274	16780.37
616.47	16821.33
616.665	16835.67
616.86	16651.35
617.055	16704.6
617.25	16536.67
617.445	16895.06
617.641	16370.78
617.836	16899.16
618.031	16264.29
618.226	16546.9
618.421	16235.61
618.616	16442.46
618.811	16184.41
619.006	16475.23
619.201	16200.8
619.396	16366.68
619.591	15889.51
619.786	15909.99
619.981	15899.75
620.176	16137.31
620.371	15713.38
620.566	15776.87
620.761	15455.34
620.956	15598.7
621.151	15426.67
621.346	15535.21
621.541	15223.92
621.735	15477.87
621.93	15098.99
622.125	15193.2
622.32	14924.91
622.515	15080.56
622.709	14986.35
622.904	14832.75
623.099	14748.79
623.294	14734.45
623.488	14560.38
623.683	14761.08
623.878	14402.68
624.072	14388.35
624.267	14324.86
624.462	14492.79
624.656	14070.91
624.851	14210.17
625.046	13862.02
625.24	13970.56
625.435	13804.67
625.629	13878.4
625.824	13671.56
626.018	13937.79
626.213	13477
626.407	13743.24
626.602	13354.12
626.796	13315.21
626.991	13479.05
627.185	13276.3
627.38	12876.94
627.574	13175.95
627.768	12897.42
627.963	12844.18
628.157	12780.69
628.352	12944.53
628.546	12641.43
628.74	12756.11
628.935	12510.36
629.129	12522.65
629.323	12514.45
629.517	12549.27
629.712	12346.52
629.906	12209.31
630.1	12213.4
630.294	12350.62
630.489	11793.57
630.683	12006.56
630.877	11979.93
631.071	12006.56
631.265	12115.1
631.459	11875.49
631.653	11670.69
631.848	11762.85
632.042	11592.87
632.236	11633.83
632.43	11431.08
632.624	11375.78
632.818	11289.77
633.012	11146.41
633.206	11029.68
633.4	11191.47
633.594	11127.98
633.788	11066.54
633.982	11121.84
634.176	10902.7
634.369	10890.42
634.563	11101.36
634.757	10687.67
634.951	10865.84
635.145	10712.24
635.339	10394.81
635.533	10908.85
635.726	10597.56
635.92	10296.5
636.114	10421.43
636.308	10355.9
636.501	10212.54
636.695	10480.82
636.889	10298.55
637.083	10179.77
637.276	10175.67
637.47	10028.22
637.664	9954.49
637.857	9993.4
638.051	9907.39
638.244	9936.06
638.438	9731.26
638.632	9718.98
638.825	9510.08
639.019	9700.55
639.212	9475.27
639.406	9581.76
639.599	9491.65
639.793	9471.17
639.986	9309.38
640.18	9344.2
640.373	9340.1
640.567	9137.35
640.76	9047.24
640.954	9163.98
641.147	8916.17
641.34	9006.28
641.534	9268.42
641.727	8987.85
641.92	8989.9
642.114	8832.21
642.307	8815.82
642.5	8746.19
642.694	8555.73
642.887	8488.15
643.08	8725.71
643.273	8537.3
643.467	8668.37
643.66	8488.15
643.853	8338.65
644.046	8473.81
644.239	8295.64
644.432	8242.39
644.626	8236.25
644.819	8369.37
645.012	8039.64
645.205	7927
645.398	7935.2
645.591	7951.58
645.784	7822.56
645.977	7808.22
646.17	7959.77
646.363	7877.85
646.556	7814.37
646.749	7793.89
646.942	7765.21
647.135	7638.24
647.328	7662.82
647.521	7714.02
647.714	7613.67
647.907	7449.83
648.099	7478.5
648.292	7464.16
648.485	7451.88
648.678	7314.66
648.871	7455.97
649.064	7111.91
649.256	7517.41
649.449	7236.84
649.642	7089.39
649.835	7156.97
650.027	7083.24
650.22	7130.34
650.413	7107.82
650.605	7025.9
650.798	7025.9
650.991	6984.94
651.183	7013.61
651.376	6960.36
651.568	6989.03
651.761	6855.92
651.954	6741.23
652.146	6911.21
652.339	6794.48
652.531	6909.16
652.724	6632.69
652.916	6616.3
653.109	6571.25
653.301	6679.79
653.494	6808.81
653.686	6483.19
653.879	6481.14
654.071	6350.07
654.263	6474.99
654.456	6591.73
654.648	6466.8
654.84	6204.66
655.033	6280.44
655.225	6298.87
655.417	6173.94
655.61	6329.59
655.802	6262.01
655.994	6040.83
656.186	6018.3
656.379	6278.39
656.571	6257.91
656.763	5960.95
656.955	5938.43
657.148	5942.52
657.34	5932.28
657.532	5846.27
657.724	5915.9
657.916	5919.99
658.108	6003.96
658.3	5924.09
658.492	5709.05
658.684	5631.23
658.876	5664
659.068	5750.01
659.26	5690.62
659.452	5639.42
659.644	5623.04
659.836	5661.95
660.028	5610.75
660.22	5532.93
660.412	5545.22
660.604	5641.47
660.796	5582.08
660.988	5467.39
661.18	5426.43
661.372	5506.31
661.563	5354.76
661.755	5321.99
661.947	5381.38
662.139	5338.37
662.331	5215.49
662.522	5301.51
662.714	5270.79
662.906	5235.97
663.097	5330.18
663.289	5215.49
663.481	5281.03
663.673	5158.15
663.864	4969.74
664.056	5076.23
664.247	5242.12
664.439	5047.56
664.631	5047.56
664.822	5002.51
665.014	5025.03
665.205	5166.34
665.397	5172.49
665.588	4828.43
665.78	4834.57
665.971	5006.6
666.163	5131.53
666.354	5092.62
666.546	5020.94
666.737	4898.06
666.929	4879.63
667.12	5031.18
667.311	4967.69
667.503	4803.85
667.694	4926.73
667.885	4805.9
668.077	4863.24
668.268	4703.5
668.459	4838.67
668.651	4818.19
668.842	4830.48
669.033	4674.83
669.224	4826.38
669.416	4934.92
669.607	4609.3
669.798	4748.56
669.989	4824.33
670.18	4810
670.371	4822.28
670.563	4762.89
670.754	4613.39
670.945	4678.93
671.136	4658.45
671.327	4740.36
671.518	4814.09
671.709	4812.04
671.9	4801.8
672.091	4805.9
672.282	4752.65
672.473	4633.87
672.664	4597.01
672.855	4810
673.046	4687.12
673.237	4658.45
673.428	4734.22
673.619	4826.38
673.809	4631.82
674	4644.11
674.191	4822.28
674.382	4691.21
674.573	4658.45
674.764	4613.39
674.954	4773.13
675.145	4715.79
675.336	4586.77
675.527	4723.98
675.717	4789.52
675.908	4773.13
676.099	4764.94
676.289	4773.13
676.48	4709.65
676.671	4764.94
676.861	4742.41
677.052	4863.24
677.243	4627.73
677.433	4654.35
677.624	4820.24
677.814	4828.43
678.005	4762.89
678.195	4887.82
678.386	4906.25
678.576	4887.82
678.767	4814.09
678.957	4771.08
679.148	5072.14
679.338	4824.33
679.529	4828.43
679.719	4924.68
679.909	4904.2
680.1	4896.01
680.29	5027.08
680.481	4945.16
680.671	4986.12
680.861	4779.28
681.052	4881.67
681.242	4877.58
681.432	5094.66
681.622	4949.26
681.813	4953.35
682.003	5080.33
682.193	4900.11
682.383	5106.95
682.573	5010.7
682.764	5031.18
682.954	5035.27
683.144	5262.6
683.334	4973.83
683.524	4957.45
683.714	5049.61
683.904	5141.77
684.094	5133.57
684.284	5211.4
684.474	5166.34
684.664	5035.27
684.854	5078.28
685.044	5055.75
685.234	4820.24
685.424	5022.98
685.614	4957.45
685.804	5045.51
685.994	5008.65
686.184	5149.96
686.374	4789.52
686.564	5022.98
686.753	4947.21
686.943	4826.38
687.133	4957.45
687.323	4986.12
687.513	4939.02
687.702	4865.29
687.892	4734.22
688.082	4848.91
688.272	4859.15
688.461	4844.81
688.651	4891.91
688.841	4775.18
689.03	4689.17
689.22	4678.93
689.41	4719.89
689.599	4605.2
689.789	4631.82
689.979	4564.24
690.168	4631.82
690.358	4640.01
690.547	4623.63
690.737	4566.29
690.926	4400.4
691.116	4416.79
691.305	4631.82
691.495	4396.31
691.684	4246.8
691.874	4257.04
692.063	4336.92
692.252	4293.91
692.442	4244.76
692.631	4308.24
692.82	4105.49
693.01	4175.13
693.199	4171.03
693.388	4109.59
693.578	4199.7
693.767	4228.37
693.956	4103.45
694.146	3927.32
694.335	4121.88
694.524	3964.18
694.713	4033.82
694.902	3976.47
695.092	3962.14
695.281	3923.23
695.47	3822.88
695.659	3896.6
695.848	3880.22
696.037	3798.3
696.226	3773.72
696.415	3978.52
696.604	3960.09
696.793	3853.59
696.982	3845.4
697.171	4001.05
697.36	3917.08
697.549	3734.81
697.738	3667.23
697.927	3769.63
698.116	3806.49
698.305	3738.91
698.494	3788.06
698.683	3749.15
698.872	3855.64
699.061	3722.52
699.25	3671.33
699.438	3736.86
699.627	3700
699.816	3839.26
700.005	3732.76
700.193	3747.1
700.382	3640.61
700.571	3814.68
700.76	3829.02
700.948	3722.52
701.137	3593.5
701.326	3654.94
701.514	3720.48
701.703	3700
701.892	3613.98
702.08	3849.5
702.269	3618.08
702.457	3679.52
702.646	3763.48
702.834	3749.15
703.023	3669.28
703.212	3673.37
703.4	3593.5
703.589	3650.85
703.777	3730.72
703.965	3669.28
704.154	3786.01
704.342	3876.12
704.531	3738.91
704.719	3732.76
704.907	3704.09
705.096	3650.85
705.284	3814.68
705.472	3697.95
705.661	3640.61
705.849	3781.92
706.037	3788.06
706.226	3683.61
706.414	3884.31
706.602	3898.65
706.79	3974.42
706.979	3804.44
707.167	3859.74
707.355	3839.26
707.543	3882.27
707.731	3937.56
707.919	3912.99
708.107	3634.46
708.296	3906.84
708.484	3880.22
708.672	3880.22
708.86	3839.26
709.048	3964.18
709.236	3861.79
709.424	4068.63
709.612	4001.05
709.8	3937.56
709.988	4064.54
710.176	3962.14
710.364	3982.62
710.551	3912.99
710.739	4136.21
710.927	4132.12
711.115	4023.58
711.303	4158.74
711.491	4107.54
711.679	4064.54
711.866	4164.89
712.054	4199.7
712.242	4095.25
712.43	4277.52
712.617	4031.77
712.805	4138.26
712.993	4232.47
713.181	4171.03
713.368	4367.63
713.556	4449.55
713.744	4265.24
713.931	4400.4
714.119	4457.75
714.306	4390.16
714.494	4252.95
714.682	4375.83
714.869	4343.06
715.057	4416.79
715.244	4453.65
715.432	4496.66
715.619	4621.58
715.807	4472.08
715.994	4461.84
716.182	4457.75
716.369	4572.43
716.556	4717.84
716.744	4492.56
716.931	4478.22
717.119	4756.75
717.306	4656.4
717.493	4660.49
717.681	4764.94
717.868	4676.88
718.055	4850.96
718.242	4736.27
718.43	4758.8
718.617	4830.48
718.804	4912.39
718.991	4953.35
719.179	4930.83
719.366	4877.58
719.553	4912.39
719.74	4861.2
719.927	4912.39
720.114	4834.57
720.301	4855.05
720.488	4902.15
720.676	4994.31
720.863	4961.55
721.05	5074.18
721.237	4965.64
721.424	5051.66
721.611	5117.19
721.798	5084.42
721.985	5088.52
722.172	5160.2
722.358	5162.25
722.545	5178.63
722.732	5182.73
722.919	5379.33
723.106	5213.45
723.293	5264.64
723.48	5178.63
723.667	5188.87
723.853	5401.86
724.04	5340.42
724.227	5223.69
724.414	5475.59
724.6	5389.57
724.787	5403.91
724.974	5592.32
725.161	5418.24
725.347	5358.85
725.534	5332.23
725.72	5448.96
725.907	5438.72
726.094	5524.74
726.28	5508.35
726.467	5553.41
726.653	5395.72
726.84	5475.59
727.027	5762.3
727.213	5780.73
727.4	5641.47
727.586	5752.06
727.773	5526.78
727.959	5790.97
728.145	5668.09
728.332	5729.53
728.518	5641.47
728.705	5778.69
728.891	5743.87
729.077	5555.46
729.264	5643.52
729.45	5715.2
729.636	5989.63
729.823	5625.09
730.009	5860.6
730.195	5948.67
730.382	5803.26
730.568	5776.64
730.754	5786.88
730.94	5727.49
731.126	5977.34
731.313	6055.16
731.499	5956.86
731.685	6008.06
731.871	5821.69
732.057	5967.1
732.243	5885.18
732.429	5938.43
732.615	6006.01
732.801	5881.08
732.987	5901.56
733.173	5854.46
733.359	5948.67
733.545	6012.15
733.731	6008.06
733.917	6034.68
734.103	6067.45
734.289	6022.39
734.475	6065.4
734.661	6204.66
734.847	6092.02
735.033	6085.88
735.219	6137.08
735.404	6272.25
735.59	6018.3
735.776	6102.26
735.962	6196.47
736.148	6075.64
736.333	6030.59
736.519	6075.64
736.705	5829.88
736.89	5956.86
737.076	6016.25
737.262	6020.35
737.447	6073.59
737.633	6081.78
737.819	6249.72
738.004	6022.39
738.19	6157.56
738.375	6026.49
738.561	6087.93
738.747	5936.38
738.932	5956.86
739.118	6124.79
739.303	5967.1
739.489	6120.7
739.674	5899.52
739.859	5936.38
740.045	6034.68
740.23	5958.91
740.416	5981.43
740.601	5948.67
740.786	5907.71
740.972	5948.67
741.157	5989.63
741.342	6018.3
741.528	5942.52
741.713	5840.12
741.898	5739.77
742.084	5932.28
742.269	5870.84
742.454	5741.82
742.639	5764.35
742.824	5713.15
743.01	5866.75
743.195	5831.93
743.38	5778.69
743.565	5711.1
743.75	5696.77
743.935	5618.94
744.12	5786.88
744.305	5526.78
744.49	5547.26
744.675	5582.08
744.86	5616.9
745.045	5537.02
745.23	5395.72
745.415	5502.21
745.6	5381.38
745.785	5412.1
745.97	5491.97
746.155	5352.71
746.34	5545.22
746.525	5188.87
746.71	5414.15
746.895	5154.05
747.079	5219.59
747.264	5311.75
747.449	5164.29
747.634	5195.01
747.819	5178.63
748.003	4973.83
748.188	4988.17
748.373	5139.72
748.557	5039.37
748.742	5166.34
748.927	4990.22
749.111	5031.18
749.296	4977.93
749.481	4883.72
749.665	4953.35
749.85	4715.79
750.034	4977.93
750.219	4920.59
750.404	4732.17
750.588	4631.82
750.773	4578.58
750.957	4480.27
751.141	4601.1
751.326	4418.83
751.51	4633.87
751.695	4478.22
751.879	4424.98
752.064	4531.47
752.248	4449.55
752.432	4416.79
752.617	4306.2
752.801	4312.34
752.985	4334.87
753.17	4355.35
753.354	4248.85
753.538	4261.14
753.722	4123.93
753.907	4027.67
754.091	4177.17
754.275	4101.4
754.459	4031.77
754.643	3968.28
754.828	3826.97
755.012	3906.84
755.196	3890.46
755.38	3831.07
755.564	3886.36
755.748	3874.07
755.932	3872.03
756.116	3843.35
756.3	3728.67
756.484	3749.15
756.668	3652.89
756.852	3595.55
757.036	3675.42
757.22	3663.13
757.404	3566.88
757.588	3595.55
757.772	3616.03
757.956	3464.48
758.14	3558.69
758.323	3286.31
758.507	3515.68
758.691	3384.61
758.875	3327.27
759.059	3478.82
759.242	3446.05
759.426	3286.31
759.61	3355.94
759.794	3247.4
759.977	3302.69
760.161	3280.16
760.345	3290.4
760.528	3142.95
760.712	3239.2
760.895	3306.79
761.079	3120.42
761.263	3116.33
761.446	3093.8
761.63	3110.18
761.813	3106.09
761.997	3030.31
762.18	2975.02
762.364	3009.83
762.547	3003.69
762.731	2927.91
762.914	2975.02
763.098	2845.99
763.281	2960.68
763.464	2878.76
763.648	2874.67
763.831	2825.51
764.015	2886.95
764.198	2794.79
764.381	2753.84
764.564	2755.88
764.748	2870.57
764.931	2837.8
765.114	2759.98
765.297	2747.69
765.481	2702.64
765.664	2721.07
765.847	2733.36
766.03	2725.16
766.213	2626.86
766.397	2737.45
766.58	2559.28
766.763	2590
766.946	2614.57
767.129	2657.58
767.312	2610.48
767.495	2481.46
767.678	2487.6
767.861	2561.33
768.044	2512.17
768.227	2422.06
768.41	2436.4
768.593	2577.71
768.776	2514.22
768.959	2372.91
769.142	2446.64
769.324	2309.43
769.507	2454.83
769.69	2395.44
769.873	2405.68
770.056	2422.06
770.239	2299.19
770.421	2364.72
770.604	2452.78
770.787	2293.04
770.97	2307.38
771.152	2362.67
771.335	2297.14
771.518	2266.42
771.7	2264.37
771.883	2284.85
772.066	2284.85
772.248	2020.66
772.431	2157.88
772.613	2166.07
772.796	2161.97
772.978	2190.64
773.161	2149.68
773.343	2141.49
773.526	2032.95
773.708	2075.96
773.891	1987.89
774.073	2075.96
774.256	1895.74
774.438	2018.61
774.621	1889.59
774.803	1967.42
774.985	1967.42
775.168	1926.46
775.35	1903.93
775.532	2000.18
775.715	1805.63
775.897	1903.93
776.079	1799.48
776.261	1860.92
776.444	1873.21
776.626	1881.4
776.808	1797.43
776.99	1770.81
777.173	1838.39
777.355	1770.81
777.537	1660.22
777.719	1797.43
777.901	1789.24
778.083	1596.73
778.265	1594.68
778.447	1668.41
778.629	1561.92
778.811	1647.93
778.993	1717.56
779.175	1684.8
779.357	1609.02
779.539	1652.03
779.721	1713.47
779.903	1582.4
780.085	1520.96
780.267	1523.01
780.449	1592.64
780.631	1492.29
780.812	1596.73
780.994	1422.66
781.176	1486.14
781.358	1365.31
781.54	1426.75
781.721	1498.43
781.903	1473.85
782.085	1402.18
782.267	1523.01
782.448	1381.7
782.63	1285.44
782.812	1336.64
782.993	1367.36
783.175	1363.26
783.357	1334.59
783.538	1307.97
783.72	1293.63
783.901	1244.48
784.083	1256.77
784.264	1346.88
784.446	1240.39
784.627	1201.47
784.809	1174.85
784.99	1158.47
785.172	1162.56
785.353	1275.2
785.535	1234.24
785.716	1076.55
785.897	1127.75
786.079	1142.08
786.26	1140.04
786.441	1111.36
786.623	1049.93
786.804	1054.02
786.985	1121.6
787.167	1094.98
787.348	1086.79
787.529	1129.8
787.71	1058.12
787.891	978.25
788.073	980.29
788.254	920.9
788.435	1092.93
788.616	980.29
788.797	1011.01
788.978	959.81
789.159	857.42
789.34	1004.87
789.522	939.34
789.703	953.67
789.884	939.34
790.065	1074.5
790.246	970.05
790.427	920.9
790.607	976.2
790.788	922.95
790.969	873.8
791.15	972.1
791.331	851.27
791.512	888.14
791.693	881.99
791.874	886.09
792.054	910.66
792.235	910.66
792.416	800.07
792.597	779.59
792.778	888.14
792.958	834.89
793.139	849.22
793.32	857.42
793.5	800.07
793.681	871.75
793.862	773.45
794.042	638.28
794.223	728.39
794.404	779.59
794.584	767.31
794.765	800.07
794.945	789.83
795.126	755.02
795.306	771.4
795.487	728.39
795.667	734.54
795.848	752.97
796.028	685.39
796.209	785.74
796.389	701.77
796.57	664.91
796.75	685.39
796.93	781.64
797.111	619.85
797.291	689.48
797.471	675.15
797.652	697.67
797.832	673.1
798.012	658.76
798.192	683.34
798.373	679.24
798.553	675.15
798.733	699.72
798.913	623.95
799.093	597.32
799.274	646.48
799.454	619.85
799.634	607.56
799.814	632.14
799.994	650.57
800.174	671.05
800.354	613.71
800.534	576.84
800.714	550.22
800.894	652.62
801.074	527.69
801.254	585.04
801.434	599.37
801.614	630.09
801.794	542.03
801.974	1217.86
802.154	468.3
802.334	513.36
802.514	558.41
802.693	503.12
802.873	542.03
803.053	675.15
803.233	546.12
803.413	456.01
803.592	570.7
803.772	546.12
803.952	470.35
804.131	410.96
804.311	537.93
804.491	554.32
804.67	546.12
804.85	517.45
805.03	587.08
805.209	515.41
805.389	525.65
805.568	511.31
805.748	537.93
805.928	509.26
806.107	525.65
806.287	494.93
806.466	474.45
806.646	470.35
806.825	505.17
807.004	445.77
807.184	402.77
807.363	478.54
807.543	496.97
807.722	423.25
807.901	527.69
808.081	468.3
808.26	398.67
808.439	476.49
808.619	554.32
808.798	380.24
808.977	390.48
809.156	476.49
809.336	456.01
809.515	480.59
809.694	400.72
809.873	552.27
810.052	462.16
810.231	435.53
810.411	435.53
810.59	451.92
810.769	476.49
810.948	486.73
811.127	355.66
811.306	396.62
811.485	415.06
811.664	456.01
811.843	394.58
812.022	404.82
812.201	386.38
812.38	380.24
812.559	408.91
812.737	341.33
812.916	333.14
813.095	349.52
813.274	396.62
813.453	423.25
813.632	390.48
813.811	351.57
813.989	388.43
814.168	423.25
814.347	341.33
814.526	382.29
814.704	400.72
814.883	382.29
815.062	370
815.24	388.43
815.419	288.08
815.598	382.29
815.776	218.45
815.955	310.61
816.133	314.7
816.312	353.62
816.49	292.18
816.669	290.13
816.847	357.71
817.026	292.18
817.204	320.85
817.383	267.6
817.561	318.8
817.74	365.9
817.918	275.79
818.097	314.7
818.275	406.86
818.453	357.71
818.632	275.79
818.81	292.18
818.988	329.04
819.167	316.75
819.345	337.23
819.523	314.7
819.701	314.7
819.879	363.86
820.058	271.7
820.236	314.7
820.414	298.32
820.592	314.7
820.77	267.6
820.948	331.09
821.127	240.98
821.305	345.42
821.483	333.14
821.661	273.75
821.839	271.7
822.017	236.88
822.195	290.13
822.373	355.66
822.551	304.46
822.729	259.41
822.907	322.9
823.085	187.73
823.262	216.4
823.44	216.4
823.618	236.88
823.796	259.41
823.974	200.02
824.152	185.68
824.329	187.73
824.507	243.03
824.685	249.17
824.863	251.22
825.04	275.79
825.218	245.07
825.396	193.87
825.574	249.17
825.751	173.39
825.929	357.71
826.107	290.13
826.284	234.83
826.462	226.64
826.639	191.83
826.817	218.45
826.994	232.79
827.172	177.49
827.349	240.98
827.527	226.64
827.704	247.12
827.882	226.64
828.059	216.4
828.237	181.59
828.414	240.98
828.591	171.35
828.769	210.26
828.946	226.64
829.124	210.26
829.301	195.92
829.478	159.06
829.655	259.41
829.833	236.88
830.01	87.38
830.187	283.98
830.364	148.82
830.542	234.83
830.719	240.98
830.896	206.16
831.073	271.7
831.25	245.07
831.427	220.5
831.604	177.49
831.782	118.1
831.959	195.92
832.136	159.06
832.313	210.26
832.49	253.27
832.667	240.98
832.844	144.72
833.021	257.36
833.198	251.22
833.374	238.93
833.551	210.26
833.728	183.63
833.905	167.25
834.082	161.11
834.259	191.83
834.436	281.94
834.612	193.87
834.789	230.74
834.966	71
835.143	218.45
835.319	79.19
835.496	165.2
835.673	118.1
835.85	181.59
836.026	161.11
836.203	240.98
836.38	148.82
836.556	116.05
836.733	120.15
836.909	247.12
837.086	183.63
837.262	87.38
837.439	89.43
837.616	103.76
837.792	126.29
837.968	183.63
838.145	87.38
838.321	154.96
838.498	118.1
838.674	142.68
838.851	159.06
839.027	107.86
839.203	120.15
839.38	161.11
839.556	142.68
839.732	126.29
839.909	114
840.085	132.44
840.261	99.67
840.437	134.48
840.614	128.34
840.79	159.06
840.966	126.29
841.142	73.04
841.318	85.33
841.494	120.15
841.671	144.72
841.847	124.24
842.023	83.28
842.199	152.91
842.375	169.3
842.551	140.63
842.727	89.43
842.903	230.74
843.079	95.57
843.255	208.21
843.431	99.67
843.607	152.91
843.783	46.42
843.959	177.49
844.134	87.38
844.31	140.63
844.486	136.53
844.662	68.95
844.838	85.33
845.013	128.34
845.189	167.25
845.365	144.72
845.541	148.82
845.716	130.39
845.892	140.63
846.068	42.32
846.244	38.23
846.419	93.52
846.595	144.72
846.77	58.71
846.946	173.39
847.122	68.95
847.297	109.91
847.473	177.49
847.648	71
847.824	54.61
847.999	5.46
848.175	54.61
848.35	177.49
848.526	75.09
848.701	40.28
848.876	99.67
849.052	52.56
849.227	58.71
849.403	21.85
849.578	101.72
849.753	36.18
849.929	87.38
850.104	40.28
850.279	13.65
850.454	83.28
850.63	50.52
850.805	38.23
850.98	83.28
851.155	130.39
851.33	58.71
851.505	71
851.681	83.28
851.856	58.71
852.031	77.14
852.206	46.42
852.381	87.38
852.556	52.56
852.731	157.01
852.906	103.76
853.081	3.41
853.256	54.61
853.431	-39.59
853.606	40.28
853.781	44.37
853.956	15.7
854.131	58.71
854.305	25.94
854.48	93.52
854.655	-51.88
854.83	46.42
855.005	71
855.18	79.19
855.354	48.47
855.529	71
855.704	11.61
855.879	85.33
856.053	38.23
856.228	52.56
856.403	58.71
856.577	54.61
856.752	42.32
856.926	38.23
857.101	107.86
857.276	11.61
857.45	46.42
857.625	79.19
857.799	1.37
857.974	23.89
858.148	-43.69
858.323	71
858.497	109.91
858.672	30.04
858.846	-2.73
859.02	5.46
859.195	60.76
859.369	-2.73
859.543	101.72
859.718	21.85
859.892	-29.35
860.066	25.94
860.241	1.37
860.415	-39.59
860.589	23.89
860.763	75.09
860.938	46.42
861.112	21.85
861.286	36.18
861.46	42.32
861.634	1.37
861.808	54.61
861.982	25.94
862.157	-43.69
862.331	-37.55
862.505	-23.21
862.679	-12.97
862.853	42.32
863.027	13.65
863.201	71
863.375	27.99
863.549	54.61
863.722	-29.35
863.896	13.65
864.07	87.38
864.244	32.08
864.418	118.1
864.592	13.65
864.766	50.52
864.939	46.42
865.113	-23.21
865.287	54.61
865.461	62.8
865.634	56.66
865.808	91.48
865.982	-19.11
866.156	-60.07
866.329	11.61
866.503	1.37
866.676	114
866.85	34.13
867.024	64.85
867.197	79.19
867.371	-2.73
867.544	5.46
867.718	-35.5
867.891	27.99
868.065	30.04
868.238	52.56
868.412	25.94
868.585	5.46
868.759	52.56
868.932	-15.02
869.105	-37.55
869.279	1.37
869.452	50.52
869.625	44.37
869.799	30.04
869.972	-35.5
870.145	13.65
870.319	77.14
870.492	58.71
870.665	19.8
870.838	5.46
871.011	21.85
871.185	42.32
871.358	50.52
871.531	58.71
871.704	-6.83
871.877	17.75
872.05	-39.59
872.223	54.61
872.396	36.18
872.569	17.75
872.742	3.41
872.915	27.99
873.088	19.8
873.261	32.08
873.434	62.8
873.607	58.71
873.78	17.75
873.953	-0.68
874.126	-45.74
874.299	5.46
874.471	-27.31
874.644	-45.74
874.817	44.37
874.99	101.72
875.163	38.23
875.335	30.04
875.508	54.61
875.681	21.85
875.853	-0.68
876.026	46.42
876.199	75.09
876.371	91.48
876.544	21.85
876.717	-2.73
876.889	21.85
877.062	-33.45
877.234	-29.35
877.407	13.65
877.579	7.51
877.752	5.46
877.924	13.65
878.097	5.46
878.269	15.7
878.442	62.8
878.614	-53.93
878.786	7.51
878.959	-10.92
879.131	-35.5
879.303	-47.79
879.476	25.94
879.648	30.04
879.82	-68.27
879.993	-117.42
880.165	50.52
880.337	-68.27
880.509	-21.16
880.681	-12.97
880.854	5.46
881.026	30.04
881.198	91.48
881.37	21.85
881.542	-35.5
881.714	-2.73
881.886	11.61
882.058	-2.73
882.23	-37.55
882.402	-2.73
882.574	23.89
882.746	-29.35
882.918	99.67
883.09	101.72
883.262	-27.31
883.434	3.41
883.606	13.65
883.778	-4.78
883.95	77.14
884.122	-10.92
884.293	-2.73
884.465	60.76
884.637	79.19
884.809	-41.64
884.98	13.65
885.152	1.37
885.324	-78.51
885.496	13.65
885.667	30.04
885.839	-37.55
886.011	42.32
886.182	-6.83
886.354	32.08
886.525	79.19
886.697	-15.02
886.869	-2.73
887.04	42.32
887.212	30.04
887.383	68.95
887.555	-43.69
887.726	54.61
887.897	-55.98
888.069	-35.5
888.24	-2.73
888.412	-12.97
888.583	30.04
888.754	13.65
888.926	-60.07
889.097	21.85
889.268	-92.84
889.44	21.85
889.611	-68.27
889.782	-23.21
889.953	21.85
890.125	44.37
890.296	-27.31
890.467	46.42
890.638	-15.02
890.809	-78.51
890.98	34.13
891.151	21.85
891.323	3.41
891.494	5.46
891.665	-19.11
891.836	-70.31
892.007	11.61
892.178	103.76
892.349	9.56
892.52	-8.87
892.691	-4.78
892.862	-15.02
893.032	-94.89
893.203	15.7
893.374	38.23
893.545	54.61
893.716	17.75
893.887	-19.11
894.057	-10.92
894.228	-51.88
894.399	-27.31
894.57	130.39
894.74	-94.89
894.911	23.89
895.082	56.66
895.253	71
895.423	66.9
895.594	-21.16
895.764	-23.21
895.935	-31.4
896.106	42.32
896.276	-33.45
896.447	13.65
896.617	3.41
896.788	-10.92
896.958	30.04
897.129	-12.97
897.299	-88.75
897.47	-21.16
897.64	-19.11
897.81	-27.31
897.981	44.37
898.151	1.37
898.322	17.75
898.492	-19.11
898.662	-12.97
898.832	-29.35
899.003	13.65
899.173	71
899.343	-76.46
899.513	46.42
