Data from USB4F104151__71__11-31-06-458.txt Node

Date: Fri Mar 14 11:31:06 EDT 2025
User: louis
Spectrometer: USB4F10415
Trigger mode: 4
Integration Time (sec): 5.000000E-2
Scans to average: 1
Electric dark correction enabled: true
Nonlinearity correction enabled: false
Boxcar width: 0
XAxis mode: Wavelengths
Number of Pixels in Spectrum: 3648
>>>>>Begin Spectral Data<<<<<
178.204	-151.89
178.424	-151.89
178.644	-151.89
178.864	-123.22
179.084	-178.51
179.304	65.19
179.524	16.04
179.744	-78.16
179.964	-0.34
180.184	48.81
180.404	48.81
180.624	-43.35
180.844	18.09
181.064	-18.77
181.283	-12.63
181.503	-65.88
181.723	22.19
181.943	-110.93
182.163	116.39
182.383	24.23
182.602	73.39
182.822	30.38
183.042	48.81
183.262	-12.63
183.482	59.05
183.701	-26.96
183.921	89.77
184.141	-35.16
184.361	-4.44
184.58	16.04
184.8	38.57
185.02	-0.34
185.239	54.95
185.459	134.82
185.679	73.39
185.898	24.23
186.118	97.96
186.338	-33.11
186.557	44.71
186.777	-67.92
186.997	-57.68
187.216	67.24
187.436	102.06
187.655	63.15
187.875	-2.39
188.095	9.9
188.314	-2.39
188.534	114.34
188.753	69.29
188.973	-8.53
189.192	-0.34
189.412	44.71
189.631	22.19
189.851	11.95
190.07	106.15
190.29	-29.01
190.509	61.1
190.729	32.43
190.948	-41.3
191.168	171.69
191.387	57
191.607	63.15
191.826	16.04
192.045	7.85
192.265	-0.34
192.484	5.8
192.704	-67.92
192.923	16.04
193.142	161.45
193.362	28.33
193.581	1.71
193.8	3.75
194.02	46.76
194.239	32.43
194.458	46.76
194.678	57
194.897	44.71
195.116	24.23
195.335	42.67
195.555	57
195.774	22.19
195.993	120.49
196.212	-8.53
196.432	-8.53
196.651	-29.01
196.87	3.75
197.089	106.15
197.308	-39.25
197.528	48.81
197.747	16.04
197.966	97.96
198.185	46.76
198.404	18.09
198.623	13.99
198.842	71.34
199.062	73.39
199.281	79.53
199.5	28.33
199.719	69.29
199.938	30.38
200.157	42.67
200.376	5.8
200.595	40.62
200.814	-10.58
201.033	-8.53
201.252	11.95
201.471	79.53
201.69	40.62
201.909	-2.39
202.128	89.77
202.347	57
202.566	16.04
202.785	-18.77
203.004	13.99
203.223	102.06
203.442	50.86
203.661	81.58
203.879	-39.25
204.098	-16.73
204.317	7.85
204.536	63.15
204.755	5.8
204.974	-33.11
205.193	44.71
205.411	75.43
205.63	54.95
205.849	48.81
206.068	-0.34
206.287	-8.53
206.505	44.71
206.724	-20.82
206.943	-67.92
207.162	-0.34
207.381	16.04
207.599	16.04
207.818	9.9
208.037	20.14
208.255	-8.53
208.474	-35.16
208.693	-10.58
208.911	7.85
209.13	63.15
209.349	40.62
209.567	30.38
209.786	122.54
210.005	20.14
210.223	30.38
210.442	-67.92
210.661	40.62
210.879	69.29
211.098	30.38
211.316	-22.87
211.535	13.99
211.753	40.62
211.972	20.14
212.191	77.48
212.409	3.75
212.628	44.71
212.846	-57.68
213.065	38.57
213.283	81.58
213.502	-8.53
213.72	-4.44
213.938	89.77
214.157	36.52
214.375	38.57
214.594	32.43
214.812	24.23
215.031	63.15
215.249	59.05
215.467	73.39
215.686	22.19
215.904	95.91
216.122	-2.39
216.341	93.87
216.559	13.99
216.778	5.8
216.996	63.15
217.214	-41.3
217.432	-49.49
217.651	32.43
217.869	5.8
218.087	9.9
218.306	-4.44
218.524	36.52
218.742	32.43
218.96	32.43
219.179	65.19
219.397	24.23
219.615	73.39
219.833	16.04
220.051	13.99
220.27	16.04
220.488	22.19
220.706	54.95
220.924	-43.35
221.142	40.62
221.36	73.39
221.578	83.63
221.796	-51.54
222.015	40.62
222.233	-6.49
222.451	73.39
222.669	20.14
222.887	48.81
223.105	-51.54
223.323	57
223.541	-10.58
223.759	57
223.977	26.28
224.195	87.72
224.413	61.1
224.631	97.96
224.849	87.72
225.067	128.68
225.285	-53.59
225.503	16.04
225.721	7.85
225.939	28.33
226.157	7.85
226.375	188.07
226.592	-29.01
226.81	24.23
227.028	65.19
227.246	77.48
227.464	-16.73
227.682	97.96
227.9	95.91
228.117	73.39
228.335	73.39
228.553	38.57
228.771	24.23
228.989	3.75
229.206	26.28
229.424	-24.92
229.642	-65.88
229.86	-49.49
230.077	11.95
230.295	57
230.513	28.33
230.731	36.52
230.948	65.19
231.166	81.58
231.384	18.09
231.601	-55.64
231.819	75.43
232.037	-10.58
232.254	-16.73
232.472	46.76
232.689	-22.87
232.907	-16.73
233.125	73.39
233.342	48.81
233.56	65.19
233.777	-26.96
233.995	57
234.213	122.54
234.43	52.91
234.648	24.23
234.865	57
235.083	20.14
235.3	-10.58
235.518	18.09
235.735	65.19
235.953	48.81
236.17	28.33
236.388	13.99
236.605	54.95
236.822	-0.34
237.04	-24.92
237.257	1.71
237.475	-6.49
237.692	52.91
237.909	57
238.127	-37.2
238.344	30.38
238.562	-8.53
238.779	28.33
238.996	13.99
239.214	-90.45
239.431	69.29
239.648	-2.39
239.865	9.9
240.083	57
240.3	-22.87
240.517	-6.49
240.735	-16.73
240.952	54.95
241.169	38.57
241.386	9.9
241.603	-14.68
241.821	44.71
242.038	71.34
242.255	24.23
242.472	-29.01
242.689	69.29
242.907	52.91
243.124	81.58
243.341	18.09
243.558	30.38
243.775	13.99
243.992	30.38
244.209	40.62
244.426	106.15
244.643	46.76
244.86	24.23
245.078	50.86
245.295	-2.39
245.512	138.92
245.729	-16.73
245.946	38.57
246.163	-53.59
246.38	97.96
246.597	-24.92
246.814	24.23
247.031	-0.34
247.248	63.15
247.464	48.81
247.681	30.38
247.898	63.15
248.115	32.43
248.332	13.99
248.549	93.87
248.766	13.99
248.983	61.1
249.2	20.14
249.417	73.39
249.633	77.48
249.85	26.28
250.067	38.57
250.284	36.52
250.501	44.71
250.717	9.9
250.934	-33.11
251.151	38.57
251.368	18.09
251.585	40.62
251.801	40.62
252.018	20.14
252.235	91.82
252.451	9.9
252.668	65.19
252.885	69.29
253.102	11.95
253.318	-49.49
253.535	11.95
253.752	89.77
253.968	40.62
254.185	-35.16
254.401	7.85
254.618	57
254.835	-14.68
255.051	46.76
255.268	65.19
255.484	9.9
255.701	-8.53
255.917	-31.06
256.134	-24.92
256.351	89.77
256.567	-33.11
256.784	26.28
257	-0.34
257.217	46.76
257.433	69.29
257.65	57
257.866	91.82
258.082	-47.44
258.299	54.95
258.515	57
258.732	16.04
258.948	44.71
259.165	22.19
259.381	32.43
259.597	9.9
259.814	-31.06
260.03	61.1
260.246	-33.11
260.463	-2.39
260.679	75.43
260.895	81.58
261.112	3.75
261.328	32.43
261.544	34.47
261.761	97.96
261.977	-26.96
262.193	-49.49
262.409	73.39
262.626	-26.96
262.842	114.34
263.058	-6.49
263.274	71.34
263.49	-2.39
263.707	7.85
263.923	57
264.139	36.52
264.355	32.43
264.571	85.67
264.787	-31.06
265.004	40.62
265.22	28.33
265.436	28.33
265.652	-51.54
265.868	71.34
266.084	32.43
266.3	32.43
266.516	7.85
266.732	89.77
266.948	57
267.164	32.43
267.38	28.33
267.596	-49.49
267.812	46.76
268.028	114.34
268.244	57
268.46	-8.53
268.676	-35.16
268.892	-49.49
269.108	20.14
269.324	73.39
269.54	-6.49
269.756	87.72
269.972	32.43
270.188	93.87
270.403	57
270.619	54.95
270.835	69.29
271.051	44.71
271.267	28.33
271.483	28.33
271.698	-20.82
271.914	63.15
272.13	69.29
272.346	63.15
272.562	40.62
272.777	120.49
272.993	91.82
273.209	54.95
273.425	7.85
273.64	-22.87
273.856	77.48
274.072	18.09
274.287	65.19
274.503	7.85
274.719	57
274.934	-8.53
275.15	-37.2
275.366	3.75
275.581	71.34
275.797	38.57
276.012	13.99
276.228	-0.34
276.444	61.1
276.659	153.26
276.875	5.8
277.09	-8.53
277.306	7.85
277.521	46.76
277.737	54.95
277.952	40.62
278.168	-18.77
278.383	32.43
278.599	7.85
278.814	44.71
279.03	5.8
279.245	120.49
279.461	13.99
279.676	32.43
279.892	-37.2
280.107	-16.73
280.322	7.85
280.538	-2.39
280.753	38.57
280.969	38.57
281.184	16.04
281.399	85.67
281.615	-49.49
281.83	32.43
282.045	-4.44
282.26	11.95
282.476	-18.77
282.691	46.76
282.906	77.48
283.122	5.8
283.337	-37.2
283.552	5.8
283.767	16.04
283.983	48.81
284.198	48.81
284.413	44.71
284.628	-20.82
284.843	-20.82
285.058	52.91
285.274	69.29
285.489	-8.53
285.704	28.33
285.919	-41.3
286.134	-12.63
286.349	61.1
286.564	-8.53
286.779	67.24
286.995	30.38
287.21	9.9
287.425	48.81
287.64	-51.54
287.855	57
288.07	13.99
288.285	100.01
288.5	28.33
288.715	77.48
288.93	11.95
289.145	5.8
289.36	48.81
289.575	-51.54
289.79	36.52
290.004	-6.49
290.219	5.8
290.434	28.33
290.649	-29.01
290.864	73.39
291.079	5.8
291.294	18.09
291.509	28.33
291.724	16.04
291.938	71.34
292.153	65.19
292.368	7.85
292.583	46.76
292.798	106.15
293.012	5.8
293.227	-49.49
293.442	65.19
293.657	87.72
293.871	28.33
294.086	16.04
294.301	81.58
294.516	77.48
294.73	7.85
294.945	32.43
295.16	67.24
295.374	26.28
295.589	46.76
295.804	48.81
296.018	89.77
296.233	102.06
296.447	40.62
296.662	24.23
296.877	69.29
297.091	61.1
297.306	-2.39
297.52	32.43
297.735	61.1
297.949	114.34
298.164	65.19
298.378	61.1
298.593	52.91
298.807	40.62
299.022	-20.82
299.236	-31.06
299.451	11.95
299.665	-57.68
299.88	1.71
300.094	30.38
300.309	63.15
300.523	38.57
300.737	24.23
300.952	32.43
301.166	-37.2
301.381	7.85
301.595	26.28
301.809	5.8
302.024	-16.73
302.238	-24.92
302.452	67.24
302.667	20.14
302.881	67.24
303.095	85.67
303.309	48.81
303.524	-29.01
303.738	-4.44
303.952	7.85
304.166	-18.77
304.381	-12.63
304.595	73.39
304.809	-2.39
305.023	120.49
305.237	13.99
305.452	30.38
305.666	77.48
305.88	100.01
306.094	32.43
306.308	79.53
306.522	132.78
306.736	24.23
306.95	34.47
307.164	50.86
307.379	28.33
307.593	81.58
307.807	-4.44
308.021	71.34
308.235	11.95
308.449	-29.01
308.663	40.62
308.877	134.82
309.091	73.39
309.305	52.91
309.519	-33.11
309.733	85.67
309.947	-84.31
310.161	54.95
310.374	26.28
310.588	-0.34
310.802	-41.3
311.016	11.95
311.23	73.39
311.444	-6.49
311.658	71.34
311.872	91.82
312.085	46.76
312.299	89.77
312.513	-45.4
312.727	48.81
312.941	16.04
313.154	16.04
313.368	38.57
313.582	30.38
313.796	69.29
314.009	42.67
314.223	173.74
314.437	48.81
314.651	-108.88
314.864	54.95
315.078	38.57
315.292	-53.59
315.505	34.47
315.719	54.95
315.933	11.95
316.146	-14.68
316.36	24.23
316.573	9.9
316.787	36.52
317.001	57
317.214	-43.35
317.428	28.33
317.641	-16.73
317.855	20.14
318.068	-26.96
318.282	-41.3
318.495	34.47
318.709	81.58
318.922	75.43
319.136	147.11
319.349	-20.82
319.563	1.71
319.776	155.3
319.99	28.33
320.203	20.14
320.417	63.15
320.63	7.85
320.843	128.68
321.057	63.15
321.27	81.58
321.483	46.76
321.697	-8.53
321.91	38.57
322.124	91.82
322.337	-16.73
322.55	-35.16
322.763	38.57
322.977	24.23
323.19	34.47
323.403	5.8
323.617	11.95
323.83	132.78
324.043	30.38
324.256	79.53
324.469	-29.01
324.683	73.39
324.896	-49.49
325.109	32.43
325.322	7.85
325.535	54.95
325.748	147.11
325.962	32.43
326.175	28.33
326.388	69.29
326.601	87.72
326.814	61.1
327.027	16.04
327.24	167.59
327.453	18.09
327.666	73.39
327.879	-24.92
328.092	7.85
328.305	24.23
328.518	-0.34
328.731	-0.34
328.944	32.43
329.157	24.23
329.37	75.43
329.583	106.15
329.796	97.96
330.009	22.19
330.222	61.1
330.435	65.19
330.648	50.86
330.861	71.34
331.073	71.34
331.286	61.1
331.499	9.9
331.712	48.81
331.925	-43.35
332.138	50.86
332.35	102.06
332.563	59.05
332.776	30.38
332.989	-67.92
333.202	13.99
333.414	75.43
333.627	77.48
333.84	34.47
334.053	-0.34
334.265	22.19
334.478	32.43
334.691	57
334.903	57
335.116	7.85
335.329	-31.06
335.541	11.95
335.754	102.06
335.966	32.43
336.179	-0.34
336.392	5.8
336.604	69.29
336.817	128.68
337.029	95.91
337.242	32.43
337.454	28.33
337.667	28.33
337.88	54.95
338.092	106.15
338.305	69.29
338.517	26.28
338.729	-0.34
338.942	75.43
339.154	-98.64
339.367	-2.39
339.579	32.43
339.792	-31.06
340.004	52.91
340.217	9.9
340.429	-0.34
340.641	13.99
340.854	48.81
341.066	20.14
341.278	110.25
341.491	114.34
341.703	54.95
341.915	-78.16
342.128	24.23
342.34	87.72
342.552	40.62
342.764	75.43
342.977	65.19
343.189	13.99
343.401	1.71
343.613	-26.96
343.826	81.58
344.038	32.43
344.25	116.39
344.462	-45.4
344.674	65.19
344.886	87.72
345.099	48.81
345.311	65.19
345.523	65.19
345.735	-26.96
345.947	16.04
346.159	7.85
346.371	32.43
346.583	-4.44
346.795	77.48
347.007	22.19
347.219	36.52
347.431	-49.49
347.643	52.91
347.855	61.1
348.067	34.47
348.279	16.04
348.491	-24.92
348.703	-24.92
348.915	69.29
349.127	24.23
349.339	61.1
349.551	52.91
349.763	63.15
349.975	22.19
350.187	73.39
350.399	71.34
350.61	24.23
350.822	-16.73
351.034	24.23
351.246	1.71
351.458	48.81
351.669	48.81
351.881	81.58
352.093	77.48
352.305	122.54
352.517	38.57
352.728	122.54
352.94	18.09
353.152	61.1
353.363	-4.44
353.575	73.39
353.787	24.23
353.999	5.8
354.21	24.23
354.422	-4.44
354.633	-8.53
354.845	-10.58
355.057	71.34
355.268	75.43
355.48	36.52
355.692	3.75
355.903	-4.44
356.115	7.85
356.326	-41.3
356.538	112.3
356.749	48.81
356.961	59.05
357.172	32.43
357.384	-12.63
357.595	87.72
357.807	42.67
358.018	81.58
358.23	48.81
358.441	13.99
358.653	44.71
358.864	5.8
359.075	71.34
359.287	20.14
359.498	20.14
359.709	38.57
359.921	97.96
360.132	120.49
360.344	30.38
360.555	-8.53
360.766	-35.16
360.977	7.85
361.189	-0.34
361.4	112.3
361.611	16.04
361.823	22.19
362.034	63.15
362.245	3.75
362.456	42.67
362.667	44.71
362.879	42.67
363.09	46.76
363.301	-4.44
363.512	97.96
363.723	89.77
363.935	91.82
364.146	167.59
364.357	24.23
364.568	-2.39
364.779	-24.92
364.99	32.43
365.201	57
365.412	26.28
365.623	22.19
365.834	57
366.045	7.85
366.256	130.73
366.467	-20.82
366.678	22.19
366.889	16.04
367.1	32.43
367.311	54.95
367.522	-22.87
367.733	57
367.944	48.81
368.155	38.57
368.366	81.58
368.577	67.24
368.788	22.19
368.999	-10.58
369.209	16.04
369.42	104.11
369.631	87.72
369.842	44.71
370.053	26.28
370.264	46.76
370.474	-18.77
370.685	5.8
370.896	-6.49
371.107	44.71
371.317	102.06
371.528	-10.58
371.739	81.58
371.95	40.62
372.16	85.67
372.371	-57.68
372.582	52.91
372.792	118.44
373.003	54.95
373.214	106.15
373.424	118.44
373.635	-20.82
373.846	63.15
374.056	-4.44
374.267	11.95
374.477	7.85
374.688	16.04
374.898	79.53
375.109	79.53
375.319	11.95
375.53	75.43
375.74	32.43
375.951	54.95
376.161	93.87
376.372	9.9
376.582	16.04
376.793	85.67
377.003	-59.73
377.214	-37.2
377.424	16.04
377.635	28.33
377.845	24.23
378.055	40.62
378.266	48.81
378.476	95.91
378.686	38.57
378.897	63.15
379.107	24.23
379.317	71.34
379.528	40.62
379.738	-0.34
379.948	18.09
380.158	89.77
380.369	30.38
380.579	79.53
380.789	57
380.999	28.33
381.21	7.85
381.42	102.06
381.63	112.3
381.84	89.77
382.05	65.19
382.261	97.96
382.471	157.35
382.681	24.23
382.891	97.96
383.101	67.24
383.311	-12.63
383.521	102.06
383.731	91.82
383.941	171.69
384.151	65.19
384.361	44.71
384.571	-16.73
384.781	61.1
384.991	71.34
385.201	73.39
385.411	77.48
385.621	71.34
385.831	38.57
386.041	50.86
386.251	16.04
386.461	-0.34
386.671	-10.58
386.881	11.95
387.091	54.95
387.301	114.34
387.511	3.75
387.72	97.96
387.93	85.67
388.14	63.15
388.35	24.23
388.56	126.63
388.769	5.8
388.979	40.62
389.189	-12.63
389.399	20.14
389.609	24.23
389.818	112.3
390.028	102.06
390.238	22.19
390.447	38.57
390.657	118.44
390.867	46.76
391.076	-0.34
391.286	38.57
391.496	-8.53
391.705	130.73
391.915	7.85
392.125	116.39
392.334	50.86
392.544	16.04
392.753	102.06
392.963	-49.49
393.172	89.77
393.382	65.19
393.591	46.76
393.801	67.24
394.01	100.01
394.22	151.21
394.429	-39.25
394.639	24.23
394.848	32.43
395.058	30.38
395.267	50.86
395.477	20.14
395.686	40.62
395.895	85.67
396.105	138.92
396.314	42.67
396.524	87.72
396.733	24.23
396.942	169.64
397.152	130.73
397.361	42.67
397.57	89.77
397.78	65.19
397.989	65.19
398.198	114.34
398.407	16.04
398.617	44.71
398.826	181.93
399.035	130.73
399.244	145.06
399.453	126.63
399.663	87.72
399.872	202.41
400.081	73.39
400.29	186.02
400.499	54.95
400.708	118.44
400.917	34.47
401.127	7.85
401.336	69.29
401.545	100.01
401.754	136.87
401.963	167.59
402.172	61.1
402.381	24.23
402.59	61.1
402.799	138.92
403.008	118.44
403.217	196.26
403.426	122.54
403.635	65.19
403.844	-26.96
404.053	147.11
404.262	73.39
404.471	171.69
404.68	149.16
404.888	104.11
405.097	149.16
405.306	147.11
405.515	163.5
405.724	91.82
405.933	192.17
406.142	253.61
406.35	196.26
406.559	97.96
406.768	147.11
406.977	216.74
407.185	143.02
407.394	210.6
407.603	229.03
407.812	145.06
408.02	188.07
408.229	186.02
408.438	171.69
408.646	177.83
408.855	257.7
409.064	251.56
409.272	220.84
409.481	163.5
409.69	239.27
409.898	229.03
410.107	192.17
410.315	267.94
410.524	306.85
410.733	282.28
410.941	333.48
411.15	321.19
411.358	351.91
411.567	419.49
411.775	360.1
411.984	372.39
412.192	409.25
412.401	423.59
412.609	511.65
412.818	431.78
413.026	458.4
413.234	437.92
413.443	417.44
413.651	419.49
413.86	487.08
414.068	528.03
414.276	571.04
414.485	501.41
414.693	593.57
414.901	630.43
415.11	612
415.318	636.58
415.526	595.62
415.734	675.49
415.943	597.67
416.151	603.81
416.359	628.39
416.567	614.05
416.776	800.41
416.984	814.75
417.192	818.85
417.4	798.37
417.608	773.79
417.817	849.57
418.025	982.68
418.233	1013.4
418.441	990.88
418.649	992.92
418.857	1040.03
419.065	1121.95
419.273	1105.56
419.481	1109.66
419.689	1193.62
419.897	1244.82
420.105	1300.12
420.313	1363.61
420.521	1334.93
420.729	1392.28
420.937	1459.86
421.145	1537.68
421.353	1574.55
421.561	1689.23
421.769	1734.29
421.977	1756.82
422.185	1726.1
422.393	1848.97
422.601	1928.85
422.809	1941.13
423.017	1828.49
423.224	2064.01
423.432	2123.4
423.64	2121.35
423.848	2281.1
424.056	2242.18
424.263	2463.37
424.471	2408.07
424.679	2498.18
424.887	2578.05
425.094	2592.39
425.302	2655.87
425.51	2707.07
425.718	2903.68
425.925	2858.62
426.133	2983.55
426.341	3219.07
426.548	3341.94
426.756	3419.77
426.964	3341.94
427.171	3649.14
427.379	3556.98
427.586	3686
427.794	3847.79
428.001	3898.99
428.209	4218.47
428.417	4126.32
428.624	4390.5
428.832	4374.12
429.039	4476.52
429.247	4460.13
429.454	4798.05
429.662	5205.6
429.869	4812.39
430.076	4986.46
430.284	4933.22
430.491	5195.36
430.699	5400.15
430.906	5443.16
431.114	5637.72
431.321	5791.31
431.528	5963.34
431.736	6307.4
431.943	6512.2
432.15	6372.94
432.358	6248.01
432.565	6841.92
432.772	6749.76
432.979	7194.17
433.187	7200.32
433.394	7321.15
433.601	7702.07
433.808	7865.91
434.016	7837.24
434.223	8005.17
434.43	8494.63
434.637	8517.16
434.844	8771.11
435.052	9240.09
435.259	8865.32
435.466	9276.96
435.673	9088.54
435.88	9518.62
436.087	10067.47
436.294	10241.55
436.501	9942.55
436.708	10087.95
436.915	10370.57
437.122	10935.81
437.329	10870.28
437.537	11095.55
437.743	11181.57
437.95	11484.67
438.157	11787.77
438.364	12563.95
438.571	12252.66
438.778	12287.47
438.985	13645.27
439.192	12944.87
439.399	13520.35
439.606	13114.85
439.813	14106.07
440.02	14579.15
440.227	14460.37
440.433	14415.31
440.64	14802.38
440.847	14745.03
441.054	14964.17
441.261	15982.01
441.467	16133.56
441.674	16121.27
441.881	16838.06
442.088	16809.39
442.294	16625.07
442.501	16838.06
442.708	17694.11
442.914	17874.33
443.121	18771.34
443.328	18216.34
443.534	19637.63
443.741	18810.25
443.948	18603.41
444.154	20331.89
444.361	20196.73
444.568	20268.41
444.774	20170.1
444.981	20587.89
445.187	21159.27
445.394	21890.4
445.6	21437.8
445.807	23543.11
446.013	22629.71
446.22	23213.38
446.426	24171.83
446.633	23733.57
446.839	24735.03
447.046	23860.54
447.252	25167.15
447.459	25369.9
447.665	25326.89
447.871	26242.33
448.078	27337.99
448.284	26309.91
448.491	26801.43
448.697	28019.97
448.903	28232.96
449.11	28259.58
449.316	27716.87
449.522	28531.96
449.728	29175.02
449.935	29273.32
450.141	29187.31
450.347	29990.11
450.553	29150.45
450.76	29621.48
450.966	30332.12
451.172	30049.5
451.378	30741.72
451.584	30067.94
451.791	30964.95
451.997	30958.8
452.203	31247.57
452.409	31175.89
452.615	30966.99
452.821	29865.19
453.027	29644.01
453.233	31304.91
453.44	29809.89
453.646	30510.3
453.852	30469.34
454.058	30829.78
454.264	29910.24
454.47	30305.5
454.676	29834.47
454.882	30651.61
455.088	27964.67
455.294	28488.95
455.5	28773.62
455.705	29125.87
455.911	27639.04
456.117	27045.13
456.323	26776.85
456.529	25605.41
456.735	26828.05
456.941	26230.04
457.147	25769.25
457.352	24765.74
457.558	24284.47
457.764	24448.31
457.97	24137.02
458.176	23416.13
458.381	23416.13
458.587	22433.11
458.793	22316.37
458.999	20960.62
459.204	22533.46
459.41	21978.46
459.616	20493.68
459.821	20454.77
460.027	20272.5
460.233	19912.06
460.438	19033.48
460.644	18978.19
460.85	18574.74
461.055	18087.32
461.261	18218.39
461.466	16727.47
461.672	16457.14
461.878	17720.73
462.083	16151.99
462.289	15984.05
462.494	15728.06
462.7	15181.25
462.905	14613.96
463.111	15293.89
463.316	15359.42
463.522	15054.28
463.727	14915.02
463.932	14990.79
464.138	14800.33
464.343	14872.01
464.549	14431.69
464.754	14769.61
464.959	14675.4
465.165	14659.02
465.37	14009.81
465.575	13815.26
465.781	14308.82
465.986	14042.58
466.191	13915.61
466.397	13471.2
466.602	12936.68
466.807	13360.61
467.012	13213.15
467.218	13299.17
467.423	13145.57
467.628	13141.47
467.833	13643.23
468.038	13092.32
468.244	12703.21
468.449	13299.17
468.654	12836.33
468.859	12654.06
469.064	12768.74
469.269	12258.8
469.474	12512.75
469.679	12615.15
469.885	12350.96
470.09	12367.34
470.295	12221.94
470.5	12029.43
470.705	11970.04
470.91	11816.44
471.115	11972.08
471.32	11908.6
471.525	11619.83
471.73	11695.61
471.935	11277.82
472.139	11079.17
472.344	11081.22
472.549	11103.75
472.754	11087.36
472.959	11009.54
473.164	10479.11
473.369	10300.94
473.574	10993.15
473.778	10647.05
473.983	10456.59
474.188	10366.48
474.393	10284.56
474.598	10419.72
474.802	9901.59
475.007	10108.43
475.212	10014.23
475.417	9594.39
475.621	9768.47
475.826	9614.87
476.031	9467.42
476.235	9270.81
476.44	9250.33
476.645	9135.65
476.849	9152.03
477.054	9236
477.259	8748.58
477.463	9027.1
477.668	8785.44
477.872	9018.91
478.077	8666.66
478.282	8609.32
478.486	8379.95
478.691	8470.06
478.895	8404.52
479.1	8207.92
479.304	8437.29
479.509	7953.97
479.713	8449.58
479.918	8074.8
480.122	7966.26
480.326	8068.66
480.531	7994.93
480.735	8035.89
480.94	7800.37
481.144	8046.13
481.348	7628.34
481.553	8115.76
481.757	7624.25
481.961	7730.74
482.166	7890.48
482.37	7853.62
482.574	7712.31
482.778	7652.92
482.983	7818.8
483.187	7855.67
483.391	7851.57
483.595	7667.25
483.8	7577.14
484.004	7755.32
484.208	7738.93
484.412	7738.93
484.616	7775.8
484.821	7675.45
485.025	7622.2
485.229	7700.02
485.433	7743.03
485.637	7659.06
485.841	7673.4
486.045	7607.86
486.249	7495.22
486.453	7634.49
486.657	7487.03
486.861	7659.06
487.065	7654.97
487.269	7763.51
487.473	7644.73
487.677	7634.49
487.881	7689.78
488.085	7839.28
488.289	7657.01
488.493	7749.17
488.697	7929.39
488.901	7644.73
489.105	7560.76
489.309	7740.98
489.512	7927.35
489.716	7796.28
489.92	7847.47
490.124	7597.62
490.328	7806.52
490.531	7777.84
490.735	7880.24
490.939	7943.73
491.143	7827
491.346	7861.81
491.55	8101.42
491.754	7845.43
491.958	7919.15
492.161	7962.16
492.365	8048.18
492.569	8105.52
492.772	8027.7
492.976	7892.53
493.18	8310.32
493.383	8234.54
493.587	8490.54
493.79	8322.6
493.994	8302.12
494.197	8199.73
494.401	8484.39
494.605	8611.37
494.808	8623.66
495.012	8392.23
495.215	8867.36
495.419	8832.55
495.622	8642.09
495.825	8805.92
496.029	8949.28
496.232	9084.45
496.436	9139.74
496.639	9201.18
496.843	9281.05
497.046	9420.31
497.249	9496.09
497.453	9412.12
497.656	9649.69
497.859	9625.11
498.063	9586.2
498.266	9872.92
498.469	9870.87
498.673	10083.86
498.876	10188.3
499.079	10118.67
499.282	10274.32
499.485	10466.83
499.689	10436.11
499.892	10812.93
500.095	10599.94
500.298	11050.5
500.501	10964.48
500.705	11179.52
500.908	11320.83
501.111	11423.23
501.314	11484.67
501.517	11453.95
501.72	11677.18
501.923	11697.66
502.126	11890.17
502.329	12103.15
502.532	12277.23
502.735	12514.8
502.938	12408.3
503.141	12903.91
503.344	12774.89
503.547	12793.32
503.75	13032.93
503.953	13172.19
504.156	13602.27
504.359	13471.2
504.562	13430.24
504.765	13786.58
504.968	13854.17
505.17	14061.01
505.373	13835.74
505.576	14343.63
505.779	14396.88
505.982	14409.17
506.185	14679.5
506.387	14814.66
506.59	15017.41
506.793	15291.84
506.996	15314.37
507.198	15535.55
507.401	15422.91
507.604	15736.25
507.807	16149.94
508.009	16254.39
508.212	16532.91
508.415	16450.99
508.617	16756.14
508.82	16768.43
509.022	16567.73
509.225	17030.57
509.428	17298.85
509.63	17083.81
509.833	17493.41
510.035	17843.61
510.238	17786.27
510.44	18247.06
510.643	18204.05
510.845	18193.81
511.048	18283.92
511.25	18857.35
511.453	18693.52
511.655	19408.26
511.858	19133.83
512.06	19293.57
512.262	19731.84
512.465	19426.69
512.667	19928.44
512.87	19901.82
513.072	20295.03
513.274	20536.69
513.477	20706.67
513.679	20907.37
513.881	21124.46
514.084	21335.4
514.286	21595.49
514.488	21366.12
514.69	22244.7
514.893	22117.72
515.095	22091.1
515.297	22590.8
515.499	22527.31
515.701	22781.26
515.904	22949.2
516.106	23145.8
516.308	23160.14
516.51	23885.12
516.712	23997.76
516.914	24177.98
517.116	24376.63
517.318	24534.32
517.52	25048.36
517.722	24448.31
517.925	25038.12
518.127	25437.48
518.329	25478.44
518.531	25507.11
518.733	25920.8
518.935	26199.32
519.136	26025.25
519.338	26424.6
519.54	26379.54
519.742	26780.95
519.944	26832.15
520.146	27723.01
520.348	27872.51
520.55	27739.4
520.752	28314.87
520.954	28458.23
521.155	28269.82
521.357	28689.65
521.559	29191.41
521.761	29732.07
521.963	29447.4
522.164	29392.11
522.366	29781.22
522.568	30049.5
522.77	30401.75
522.971	30553.3
523.173	30448.86
523.375	30790.87
523.576	31024.34
523.778	30946.51
523.98	31417.55
524.181	31655.11
524.383	31767.75
524.584	32023.75
524.786	32623.8
524.988	31988.93
525.189	32337.09
525.391	32742.58
525.592	32965.81
525.794	33137.84
525.995	33457.32
526.197	33221.81
526.398	33418.41
526.6	33828.01
526.801	33860.77
527.003	33973.41
527.204	34067.62
527.406	34495.64
527.607	34710.68
527.808	34968.73
528.01	34655.39
528.211	34884.76
528.412	35361.94
528.614	35284.11
528.815	35579.02
529.016	36072.58
529.218	35726.47
529.419	36254.85
529.62	35959.94
529.822	35695.75
530.023	36177.03
530.224	36215.94
530.425	36244.61
530.626	36107.4
530.828	35996.81
531.029	36957.3
531.23	36412.54
531.431	36721.79
531.632	36979.83
531.833	36508.8
532.035	36725.88
532.236	37012.6
532.437	37465.2
532.638	36973.69
532.839	37336.18
533.04	37522.54
533.241	37194.87
533.442	37655.66
533.643	37485.68
533.844	37543.02
534.045	37575.79
534.246	37172.34
534.447	37741.67
534.648	37856.36
534.849	37833.83
535.05	37647.47
535.251	37723.24
535.451	37414
535.652	37788.78
535.853	37647.47
536.054	38059.11
536.255	37891.18
536.456	37516.4
536.657	38220.9
536.857	37874.79
537.058	37598.32
537.259	38257.76
537.46	38315.11
537.66	37704.81
537.861	38292.58
538.062	38186.08
538.263	37870.7
538.463	37756.01
538.664	37905.51
538.865	38122.6
539.065	38206.56
539.266	37784.68
539.466	38480.99
539.667	37618.8
539.868	38616.16
540.068	37958.76
540.269	38112.36
540.469	38206.56
540.67	37944.42
540.87	37977.19
541.071	37680.24
541.271	38380.64
541.472	38104.17
541.672	37897.32
541.873	38016.1
542.073	37323.89
542.274	38069.35
542.474	38163.56
542.675	37792.87
542.875	38089.83
543.075	38208.61
543.276	38089.83
543.476	38155.36
543.676	38020.2
543.877	38454.37
544.077	37866.6
544.277	37893.22
544.478	37760.11
544.678	38130.79
544.878	37995.62
545.078	38405.22
545.279	37780.59
545.479	37661.8
545.679	37891.18
545.879	38138.98
546.079	38163.56
546.28	37796.97
546.48	37725.29
546.68	38409.31
546.88	38143.08
547.08	37928.04
547.28	37889.13
547.48	37768.3
547.68	37964.9
547.88	37448.82
548.081	37823.59
548.281	38052.97
548.481	37946.47
548.681	38061.16
548.881	37405.81
549.081	38106.21
549.28	37569.65
549.48	37839.98
549.68	37907.56
549.88	37981.29
550.08	37713
550.28	38235.24
550.48	38077.54
550.68	38186.08
550.88	37858.41
551.08	37860.46
551.279	37880.94
551.479	37356.66
551.679	37776.49
551.879	37530.73
552.079	38143.08
552.278	37780.59
552.478	37588.08
552.678	37522.54
552.878	37854.31
553.077	37952.62
553.277	37307.51
553.477	37805.16
553.676	37323.89
553.876	37510.25
554.076	37143.67
554.275	37268.59
554.475	36930.68
554.674	37397.62
554.874	37334.13
555.074	37559.41
555.273	37225.59
555.473	37452.91
555.672	36940.92
555.872	37268.59
556.071	37137.52
556.271	37229.68
556.47	36971.64
556.67	36480.13
556.869	37028.98
557.068	36920.44
557.268	36555.9
557.467	36562.04
557.667	36875.38
557.866	36684.92
558.065	36562.04
558.265	36301.95
558.464	35996.81
558.663	36473.98
558.863	35871.88
559.062	36277.38
559.261	35656.84
559.461	36134.02
559.66	35873.93
559.859	36154.5
560.058	35601.55
560.258	35722.38
560.457	35650.7
560.656	35869.83
560.855	35439.76
561.054	35789.96
561.253	35390.61
561.453	35429.52
561.652	35466.38
561.851	35361.94
562.05	34892.95
562.249	34825.37
562.448	35247.25
562.647	34825.37
562.846	34940.05
563.045	34868.37
563.244	34354.33
563.443	34759.83
563.642	34059.43
563.841	34184.35
564.04	34129.06
564.239	34270.37
564.438	34133.15
564.637	33993.89
564.836	33797.29
565.035	33887.4
565.234	33785
565.432	33653.93
565.631	33461.42
565.83	33623.21
566.029	33391.79
566.228	33060.02
566.427	32847.03
566.625	33115.31
566.824	32507.07
567.023	33014.96
567.222	32480.44
567.42	32949.43
567.619	32462.01
567.818	32203.97
568.016	32240.83
568.215	32449.72
568.414	32036.03
568.612	32373.95
568.811	32122.05
569.01	31835.33
569.208	31382.73
569.407	31632.58
569.605	31345.87
569.804	31923.4
570.002	31466.7
570.201	31519.95
570.4	31110.35
570.598	30725.33
570.797	30930.13
570.995	31155.41
571.193	30784.72
571.392	31024.34
571.59	30516.44
571.789	30149.85
571.987	30325.98
572.186	30299.36
572.384	30035.17
572.582	30385.37
572.781	30467.29
572.979	29654.25
573.177	29805.8
573.376	29646.05
573.574	29598.95
573.772	29547.75
573.971	29072.62
574.169	29052.14
574.367	29279.47
574.565	29451.5
574.763	28982.51
574.962	29119.73
575.16	28695.8
575.358	28769.52
575.556	28257.53
575.754	28980.46
575.952	28544.25
576.151	28847.35
576.349	28198.14
576.547	28118.27
576.745	28370.17
576.943	28071.17
577.141	27979.01
577.339	27981.06
577.537	27870.47
577.735	27675.91
577.933	27528.45
578.131	27780.35
578.329	27362.57
578.527	27520.26
578.725	27430.15
578.923	27589.89
579.121	27243.79
579.319	27102.48
579.516	27145.48
579.714	26930.45
579.912	26748.18
580.11	26705.17
580.308	26887.44
580.506	26551.57
580.704	26242.33
580.901	26627.35
581.099	26881.3
581.297	26633.49
581.495	26400.02
581.692	26320.15
581.89	25988.38
582.088	26533.14
582.285	26033.44
582.483	25982.24
582.681	25644.32
582.878	25877.79
583.076	25513.25
583.274	25824.54
583.471	25765.15
583.669	25478.44
583.866	25308.46
584.064	25507.11
584.262	25048.36
584.459	25486.63
584.657	25218.35
584.854	25267.5
585.052	24730.93
585.249	25109.8
585.447	24634.67
585.644	24767.79
585.841	24747.31
586.039	24888.62
586.236	24458.55
586.434	24245.56
586.631	24419.64
586.828	24536.37
587.026	24302.9
587.223	24464.69
587.42	24233.27
587.618	24343.86
587.815	23942.46
588.012	23717.18
588.21	24055.1
588.407	23799.1
588.604	23704.9
588.801	23567.68
588.999	23844.16
589.196	23768.38
589.393	23579.97
589.59	23293.26
589.787	23180.62
589.984	23127.37
590.182	23217.48
590.379	23022.92
590.576	23233.86
590.773	23209.29
590.97	22926.67
591.167	22877.52
591.364	22592.85
591.561	22711.63
591.758	22529.36
591.955	22324.57
592.152	22666.58
592.349	22502.74
592.546	22390.1
592.743	22244.7
592.94	22052.19
593.137	22115.67
593.334	22248.79
593.531	21923.16
593.727	22209.88
593.924	22154.58
594.121	21849.44
594.318	21853.53
594.515	21536.1
594.712	21826.91
594.908	21558.63
595.105	21654.88
595.302	21357.92
595.499	21640.54
595.696	21247.33
595.892	21224.81
596.089	21286.25
596.286	21085.54
596.482	21024.11
596.679	21081.45
596.876	21028.2
597.072	20856.17
597.269	20802.93
597.466	20577.65
597.662	20702.57
597.859	20581.74
598.055	20608.37
598.252	20503.92
598.448	20616.56
598.645	20159.86
598.841	20055.42
599.038	20319.6
599.234	20286.84
599.431	20043.13
599.627	20284.79
599.824	20254.07
600.02	19813.76
600.217	20026.75
600.413	20024.7
600.609	19639.68
600.806	19514.75
601.002	19664.25
601.198	19676.54
601.395	19727.74
601.591	19895.68
601.787	19287.43
601.984	19242.37
602.18	19715.45
602.376	19492.23
602.572	19023.24
602.769	19215.75
602.965	18853.26
603.161	19027.34
603.357	18703.76
603.553	18886.03
603.75	18785.68
603.946	18664.85
604.142	18759.05
604.338	18697.61
604.534	18550.16
604.73	18359.7
604.926	18535.82
605.122	18371.99
605.318	18189.72
605.514	18437.52
605.71	18255.25
605.906	18204.05
606.102	18169.24
606.298	18292.12
606.494	18017.69
606.69	17982.87
606.886	18199.96
607.082	17634.72
607.278	17974.68
607.474	17700.25
607.67	17892.76
607.866	17579.42
608.062	17825.18
608.257	17626.53
608.453	17765.79
608.649	17593.76
608.845	17522.08
609.041	17208.74
609.236	17565.09
609.432	17292.71
609.628	17214.88
609.824	17358.24
610.019	17323.43
610.215	17008.04
610.411	17294.75
610.606	17044.9
610.802	17384.87
610.998	17059.24
611.193	17370.53
611.389	16977.32
611.584	17030.57
611.78	16674.22
611.976	16942.5
612.171	17077.67
612.367	16903.59
612.562	16766.38
612.758	16657.84
612.953	16520.62
613.149	16793
613.344	16465.33
613.539	16750
613.735	16801.19
613.93	16668.08
614.126	16276.91
614.321	16600.49
614.517	16887.21
614.712	16301.49
614.907	16477.62
615.103	16035.25
615.298	16403.89
615.493	16078.26
615.688	16065.97
615.884	16426.42
616.079	16221.62
616.274	16309.68
616.47	15932.86
616.665	16111.03
616.86	15875.51
617.055	15844.79
617.25	15979.96
617.445	16283.06
617.641	15719.87
617.836	15951.29
618.031	15826.36
618.226	15820.22
618.421	15572.41
618.616	15742.39
618.811	15435.2
619.006	15697.34
619.201	15297.99
619.396	15441.34
619.591	15076.8
619.786	15224.26
619.981	15054.28
620.176	15349.18
620.371	14994.89
620.566	15402.43
620.761	15185.35
620.956	14988.74
621.151	14872.01
621.346	14955.97
621.541	14573
621.735	14818.76
621.93	14435.79
622.125	14616.01
622.32	14292.43
622.515	14392.78
622.709	14329.3
622.904	14343.63
623.099	14101.97
623.294	14085.59
623.488	14069.2
623.683	14194.13
623.878	13811.16
624.072	13950.42
624.267	13751.77
624.462	13729.24
624.656	13737.43
624.851	13719
625.046	13508.06
625.24	13454.81
625.435	13442.53
625.629	13325.79
625.824	13252.06
626.018	13110.75
626.213	12897.77
626.407	13116.9
626.602	12965.35
626.796	13096.42
626.991	12713.45
627.185	12617.19
627.38	12439.02
627.574	12510.7
627.768	12428.78
627.963	12447.21
628.157	12264.94
628.352	12312.05
628.546	12066.29
628.74	12369.39
628.935	12144.11
629.129	11927.03
629.323	11912.69
629.517	12045.81
629.712	11795.96
629.906	11728.38
630.1	11705.85
630.294	11425.28
630.489	11570.68
630.683	11441.66
630.877	11286.01
631.071	11562.49
631.265	11650.55
631.459	11279.87
631.653	11337.21
631.848	11402.75
632.042	10991.11
632.236	11234.82
632.43	10911.24
632.624	11027.97
632.818	10769.93
633.012	10935.81
633.206	10825.22
633.4	10960.39
633.594	10710.54
633.788	10683.91
633.982	10544.65
634.176	10395.15
634.369	10597.9
634.563	10466.83
634.757	10296.85
634.951	10337.8
635.145	10393.1
635.339	10122.77
635.533	10090
635.726	10165.78
635.92	10092.05
636.114	10006.03
636.308	9967.12
636.501	10038.8
636.695	10085.9
636.889	9813.52
637.083	9578.01
637.276	9639.45
637.47	9643.54
637.664	9616.92
637.857	9776.66
638.051	9588.25
638.244	9645.59
638.438	9403.93
638.632	9356.83
638.825	9172.51
639.019	9299.48
639.212	9117.22
639.406	9125.41
639.599	9270.81
639.793	9207.33
639.986	9080.35
640.18	8965.67
640.373	9111.07
640.567	8652.33
640.76	8730.15
640.954	8705.57
641.147	8615.46
641.34	8836.64
641.534	8549.93
641.727	8750.63
641.92	8527.4
642.114	8515.11
642.307	8508.97
642.5	8457.77
642.694	8207.92
642.887	8420.91
643.08	8511.02
643.273	8220.21
643.467	8357.42
643.66	8144.43
643.853	8017.46
644.046	8019.5
644.239	8166.96
644.432	7980.59
644.626	7822.9
644.819	7898.67
645.012	7867.95
645.205	7902.77
645.398	7769.65
645.591	7781.94
645.784	7904.82
645.977	7683.64
646.17	7679.54
646.363	7411.26
646.556	7478.84
646.749	7607.86
646.942	7421.5
647.135	7460.41
647.328	7493.18
647.521	7464.5
647.714	7206.46
647.907	7460.41
648.099	7274.04
648.292	7310.91
648.485	7237.18
648.678	7185.98
648.871	7110.21
649.064	7069.25
649.256	7020.1
649.449	6905.41
649.642	7056.96
649.835	7020.1
650.027	6919.75
650.22	6735.43
650.413	6770.24
650.605	6913.6
650.798	6913.6
650.991	6739.52
651.183	6872.64
651.376	6719.04
651.568	6710.85
651.761	6559.3
651.954	6596.17
652.146	6610.5
652.339	6610.5
652.531	6471.24
652.724	6602.31
652.916	6303.31
653.109	6329.93
653.301	6411.85
653.494	6348.36
653.686	6268.49
653.879	6331.98
654.071	6288.97
654.263	6202.96
654.456	6260.3
654.648	6225.48
654.84	6182.48
655.033	6078.03
655.225	6059.6
655.417	6145.61
655.61	6127.18
655.802	6225.48
655.994	6012.49
656.186	6127.18
656.379	5879.38
656.571	5701.2
656.763	5936.72
656.955	5731.92
657.148	5740.12
657.34	5742.16
657.532	5764.69
657.724	5770.83
657.916	5658.2
658.108	5758.55
658.3	5658.2
658.492	5549.65
658.684	5549.65
658.876	5705.3
659.068	5729.88
659.26	5488.21
659.452	5467.74
659.644	5437.02
659.836	5484.12
660.028	5529.17
660.22	5389.91
660.412	5518.93
660.604	5344.86
660.796	5307.99
660.988	5322.33
661.18	5367.38
661.372	5148.25
661.563	5324.38
661.755	5275.23
661.947	5275.23
662.139	5201.5
662.331	5168.73
662.522	5092.96
662.714	5267.03
662.906	5043.81
663.097	5213.79
663.289	5082.72
663.481	5068.38
663.673	5011.04
663.864	5041.76
664.056	4922.98
664.247	5017.18
664.439	4847.2
664.631	5027.42
664.822	4988.51
665.014	4869.73
665.205	4929.12
665.397	4730.47
665.588	4920.93
665.78	4869.73
665.971	4904.54
666.163	4785.76
666.354	4912.74
666.546	4765.28
666.737	4867.68
666.929	5060.19
667.12	4755.04
667.311	4726.37
667.503	4859.49
667.694	4836.96
667.885	4712.03
668.077	4693.6
668.268	4697.7
668.459	4718.18
668.651	4843.1
668.842	4714.08
669.033	4597.35
669.224	4683.36
669.416	4716.13
669.607	4587.11
669.798	4755.04
669.989	4804.19
670.18	4570.72
670.371	4644.45
670.563	4554.34
670.754	4564.58
670.945	4746.85
671.136	4679.27
671.327	4562.53
671.518	4634.21
671.709	4611.68
671.9	4693.6
672.091	4607.59
672.282	4529.77
672.473	4578.92
672.664	4599.4
672.855	4458.09
673.046	4634.21
673.237	4718.18
673.428	4646.5
673.619	4632.16
673.809	4648.55
674	4677.22
674.191	4720.23
674.382	4570.72
674.573	4574.82
674.764	4701.79
674.954	4738.66
675.145	4660.84
675.336	4636.26
675.527	4521.57
675.717	4544.1
675.908	4554.34
676.099	4673.12
676.289	4626.02
676.48	4537.96
676.671	4740.71
676.861	4636.26
677.052	4619.88
677.243	4734.56
677.433	4683.36
677.624	4898.4
677.814	4736.61
678.005	4709.99
678.195	4703.84
678.386	4791.91
678.576	4793.95
678.767	4730.47
678.957	4849.25
679.148	4765.28
679.338	4775.52
679.529	4929.12
679.719	4836.96
679.909	4832.86
680.1	4767.33
680.29	4984.41
680.481	4890.21
680.671	4896.35
680.861	4922.98
681.052	5002.85
681.242	4800.1
681.432	4812.39
681.622	4861.54
681.813	4970.08
682.003	4839.01
682.193	4961.89
682.383	5045.85
682.573	4822.63
682.764	4982.37
682.954	5086.81
683.144	4945.5
683.334	5076.57
683.524	4865.63
683.714	5062.24
683.904	4935.26
684.094	5070.43
684.284	4994.65
684.474	5168.73
684.664	5207.64
684.854	5117.53
685.044	5017.18
685.234	5082.72
685.424	5095
685.614	4890.21
685.804	5074.53
685.994	5002.85
686.184	4988.51
686.374	5054.05
686.564	4976.22
686.753	4945.5
686.943	4798.05
687.133	4849.25
687.323	4877.92
687.513	4959.84
687.702	4882.02
687.892	4800.1
688.082	4789.86
688.272	4920.93
688.461	4742.75
688.651	4877.92
688.841	4587.11
689.03	4669.03
689.22	4640.36
689.41	4542.05
689.599	4574.82
689.789	4562.53
689.979	4656.74
690.168	4564.58
690.358	4560.49
690.547	4501.09
690.737	4451.94
690.926	4501.09
691.116	4415.08
691.305	4521.57
691.495	4335.21
691.684	4296.3
691.874	4298.35
692.063	4259.43
692.252	4456.04
692.442	4122.22
692.631	4124.27
692.82	4273.77
693.01	4036.21
693.199	4177.51
693.388	4046.44
693.578	4007.53
693.767	4060.78
693.956	3989.1
694.146	3962.48
694.335	3987.05
694.524	3851.89
694.713	3995.25
694.902	3841.65
695.092	3948.14
695.281	3804.78
695.47	3935.85
695.659	3726.96
695.848	3806.83
696.037	3821.17
696.226	3827.31
696.415	3786.35
696.604	3864.18
696.793	3927.66
696.982	3759.73
697.171	3843.7
697.36	3784.3
697.549	3661.43
697.738	3696.24
697.927	3704.43
698.116	3698.29
698.305	3653.23
698.494	3737.2
698.683	3677.81
698.872	3669.62
699.061	3534.45
699.25	3667.57
699.438	3563.12
699.627	3735.15
699.816	3604.08
700.005	3534.45
700.193	3599.99
700.382	3602.04
700.571	3575.41
700.76	3622.52
700.948	3731.06
701.137	3604.08
701.326	3661.43
701.514	3643
701.703	3604.08
701.892	3540.6
702.08	3636.85
702.269	3581.56
702.457	3612.28
702.646	3554.93
702.834	3522.16
703.023	3419.77
703.212	3548.79
703.4	3497.59
703.589	3507.83
703.777	3620.47
703.965	3427.96
704.154	3593.84
704.342	3554.93
704.531	3516.02
704.719	3636.85
704.907	3659.38
705.096	3489.4
705.284	3497.59
705.472	3577.46
705.661	3700.34
705.849	3694.19
706.037	3657.33
706.226	3704.43
706.414	3776.11
706.602	3643
706.79	3776.11
706.979	3647.09
707.167	3722.87
707.355	3733.11
707.543	3665.52
707.731	3937.9
707.919	3704.43
708.107	3759.73
708.296	3759.73
708.484	3638.9
708.672	3792.5
708.86	3827.31
709.048	3847.79
709.236	3884.66
709.424	3907.18
709.612	3849.84
709.8	3841.65
709.988	3853.94
710.176	3898.99
710.364	3898.99
710.551	3833.46
710.739	3952.24
710.927	3851.89
711.115	3882.61
711.303	4011.63
711.491	3982.96
711.679	4044.4
711.866	4030.06
712.054	3960.43
712.242	3956.33
712.43	3919.47
712.617	4042.35
712.805	4062.83
712.993	4042.35
713.181	4007.53
713.368	4210.28
713.556	4173.42
713.744	4179.56
713.931	4339.3
714.119	4238.95
714.306	4353.64
714.494	4271.72
714.682	4212.33
714.869	4279.91
715.057	4292.2
715.244	4173.42
715.432	4388.46
715.619	4324.97
715.807	4271.72
715.994	4511.33
716.182	4406.89
716.369	4431.46
716.556	4497
716.744	4429.42
716.931	4370.02
717.119	4472.42
717.306	4576.87
717.493	4447.85
717.681	4497
717.868	4533.86
718.055	4568.68
718.242	4574.82
718.43	4482.66
718.617	4619.88
718.804	4392.55
718.991	4542.05
719.179	4642.4
719.366	4701.79
719.553	4677.22
719.74	4693.6
719.927	4681.32
720.114	4695.65
720.301	4826.72
720.488	4761.19
720.676	4775.52
720.863	4853.34
721.05	4970.08
721.237	4752.99
721.424	4851.3
721.611	5117.53
721.798	4773.47
721.985	4886.11
722.172	4986.46
722.358	5076.57
722.545	5109.34
722.732	4945.5
722.919	4994.65
723.106	4920.93
723.293	5078.62
723.48	4963.93
723.667	5025.37
723.853	4972.13
724.04	5095
724.227	5189.21
724.414	5125.72
724.6	5125.72
724.787	4994.65
724.974	5234.27
725.161	5381.72
725.347	5115.48
725.534	5226.07
725.72	5156.44
725.907	5295.71
726.094	5437.02
726.28	5168.73
726.467	5439.06
726.653	5492.31
726.84	5406.3
727.027	5471.83
727.213	5463.64
727.4	5617.24
727.586	5434.97
727.773	5512.79
727.959	5326.43
728.145	5717.59
728.332	5410.39
728.518	5408.34
728.705	5512.79
728.891	5391.96
729.077	5725.78
729.264	5629.52
729.45	5551.7
729.636	5627.48
729.823	5779.03
730.009	5750.35
730.195	5604.95
730.382	5699.16
730.568	5652.05
730.754	5738.07
730.94	5748.31
731.126	5768.79
731.313	5742.16
731.499	5746.26
731.685	5822.03
731.871	5600.85
732.057	5719.64
732.243	5733.97
732.429	5774.93
732.615	5895.76
732.801	5750.35
732.987	5795.41
733.173	5846.61
733.359	5801.55
733.545	5717.59
733.731	6004.3
733.917	5813.84
734.103	5897.81
734.289	5936.72
734.475	5893.71
734.661	5981.78
734.847	5869.14
735.033	5873.23
735.219	5693.01
735.404	5862.99
735.59	5928.53
735.776	5953.1
735.962	6037.07
736.148	5934.67
736.333	5844.56
736.519	5746.26
736.705	5891.66
736.89	5781.07
737.076	5963.34
737.262	5746.26
737.447	5881.42
737.633	5967.44
737.819	5906
738.004	5957.2
738.19	5783.12
738.375	5903.95
738.561	5842.51
738.747	5936.72
738.932	5889.62
739.118	5979.73
739.303	5906
739.489	5969.49
739.674	5918.29
739.859	5756.5
740.045	5854.8
740.23	5834.32
740.416	5703.25
740.601	5889.62
740.786	5862.99
740.972	5908.05
741.157	5815.89
741.342	5660.24
741.528	5611.09
741.713	5754.45
741.898	5797.46
742.084	5627.48
742.269	5684.82
742.454	5680.72
742.639	5762.64
742.824	5762.64
743.01	5557.85
743.195	5598.81
743.38	5688.92
743.565	5652.05
743.75	5639.76
743.935	5398.1
744.12	5557.85
744.305	5563.99
744.49	5340.76
744.675	5463.64
744.86	5451.35
745.045	5467.74
745.23	5381.72
745.415	5213.79
745.6	5344.86
745.785	5320.28
745.97	5518.93
746.155	5338.71
746.34	5111.39
746.525	5275.23
746.71	5209.69
746.895	5205.6
747.079	5181.02
747.264	5201.5
747.449	5228.12
747.634	5140.06
747.819	5232.22
748.003	5029.47
748.188	5125.72
748.373	4849.25
748.557	4906.59
748.742	4898.4
748.927	4884.06
749.111	4959.84
749.296	4847.2
749.481	4709.99
749.665	4623.97
749.85	4652.64
750.034	4662.88
750.219	4585.06
750.404	4533.86
750.588	4650.6
750.773	4611.68
750.957	4650.6
751.141	4470.37
751.326	4572.77
751.51	4464.23
751.695	4554.34
751.879	4427.37
752.064	4370.02
752.248	4335.21
752.432	4486.76
752.617	4345.45
752.801	4337.26
752.985	4200.04
753.17	4079.21
753.354	4048.49
753.538	4150.89
753.722	4058.73
753.907	4154.99
754.091	3993.2
754.275	3974.77
754.459	4058.73
754.643	3858.03
754.828	3964.53
755.012	3939.95
755.196	3794.54
755.38	3837.55
755.564	3784.3
755.748	3739.25
755.932	3774.07
756.116	3602.04
756.3	3782.26
756.484	3708.53
756.668	3710.58
756.852	3470.97
757.036	3495.54
757.22	3393.14
757.404	3767.92
757.588	3358.33
757.772	3487.35
757.956	3505.78
758.14	3462.77
758.323	3356.28
758.507	3384.95
758.691	3382.9
758.875	3448.44
759.059	3243.64
759.242	3298.94
759.426	3268.22
759.61	3329.66
759.794	3237.5
759.977	3292.79
760.161	3210.87
760.345	3208.83
760.528	3280.5
760.712	3178.11
760.895	3053.18
761.079	3131
761.263	3008.12
761.446	3042.94
761.63	2999.93
761.813	3014.27
761.997	2948.73
762.18	2948.73
762.364	3024.51
762.547	2995.84
762.731	2897.53
762.914	2745.98
763.098	2971.26
763.281	2862.72
763.464	2844.29
763.648	2805.38
763.831	2705.03
764.015	2772.61
764.198	2766.46
764.381	2836.1
764.564	2903.68
764.748	2715.27
764.931	2778.75
765.114	2743.94
765.297	2727.55
765.481	2653.83
765.664	2649.73
765.847	2653.83
766.03	2567.81
766.213	2643.59
766.397	2627.2
766.58	2610.82
766.763	2641.54
766.946	2506.37
767.129	2477.7
767.312	2444.93
767.495	2571.91
767.678	2553.48
767.861	2502.28
768.044	2492.04
768.227	2498.18
768.41	2389.64
768.593	2510.47
768.776	2541.19
768.959	2307.72
769.142	2428.55
769.324	2328.2
769.507	2391.69
769.69	2369.16
769.873	2285.19
770.056	2426.5
770.239	2381.45
770.421	2451.08
770.604	2367.11
770.787	2377.35
770.97	2219.66
771.152	2309.77
771.335	2240.14
771.518	2109.07
771.7	2211.46
771.883	2209.42
772.066	2244.23
772.248	2311.82
772.431	2111.11
772.613	2152.07
772.796	2137.74
772.978	2096.78
773.161	2217.61
773.343	2090.63
773.526	2053.77
773.708	2049.68
773.891	2061.96
774.073	1900.17
774.256	1932.94
774.438	1973.9
774.621	1975.95
774.803	1916.56
774.985	1851.02
775.168	1998.48
775.35	1840.78
775.532	1857.17
775.715	1894.03
775.897	1857.17
776.079	1840.78
776.261	1867.41
776.444	1810.06
776.626	1842.83
776.808	1781.39
776.99	1762.96
777.173	1707.66
777.355	1754.77
777.537	1793.68
777.719	1736.34
777.901	1670.8
778.083	1734.29
778.265	1660.56
778.447	1654.42
778.629	1633.94
778.811	1506.96
778.993	1664.66
779.175	1742.48
779.357	1638.03
779.539	1552.02
779.721	1619.6
779.903	1574.55
780.085	1513.11
780.267	1478.29
780.449	1556.11
780.631	1498.77
780.812	1478.29
780.994	1449.62
781.176	1429.14
781.358	1511.06
781.54	1382.04
781.721	1474.2
781.903	1429.14
782.085	1334.93
782.267	1513.11
782.448	1291.93
782.63	1357.46
782.812	1330.84
782.993	1283.74
783.175	1414.81
783.357	1255.06
783.538	1369.75
783.72	1298.07
783.901	1253.02
784.083	1210.01
784.264	1210.01
784.446	1275.54
784.627	1240.73
784.809	1253.02
784.99	1218.2
785.172	1218.2
785.353	1173.14
785.535	1250.97
785.716	1181.34
785.897	1220.25
786.079	1089.18
786.26	1175.19
786.441	1158.81
786.623	1103.51
786.804	1089.18
786.985	1105.56
787.167	1152.67
787.348	1097.37
787.529	1087.13
787.71	1160.86
787.891	1085.08
788.073	984.73
788.254	1080.99
788.435	1040.03
788.616	1103.51
788.797	990.88
788.978	943.77
789.159	925.34
789.34	986.78
789.522	966.3
789.703	997.02
789.884	1054.36
790.065	954.01
790.246	937.63
790.427	911
790.607	988.83
790.788	935.58
790.969	890.53
791.15	954.01
791.331	849.57
791.512	886.43
791.693	841.37
791.874	880.29
792.054	890.53
792.235	904.86
792.416	751.26
792.597	781.98
792.778	882.33
792.958	841.37
793.139	798.37
793.32	839.33
793.5	827.04
793.681	833.18
793.862	794.27
794.042	751.26
794.223	794.27
794.404	708.26
794.584	704.16
794.765	798.37
794.945	765.6
795.126	728.74
795.306	863.9
795.487	855.71
795.667	781.98
795.848	753.31
796.028	822.94
796.209	827.04
796.389	708.26
796.57	706.21
796.75	831.13
796.93	712.35
797.111	769.69
797.291	775.84
797.471	685.73
797.652	671.39
797.832	620.19
798.012	788.13
798.192	655.01
798.373	663.2
798.553	657.06
798.733	636.58
798.913	655.01
799.093	628.39
799.274	597.67
799.454	720.54
799.634	636.58
799.814	638.62
799.994	683.68
800.174	687.78
800.354	650.91
800.534	644.77
800.714	626.34
800.894	605.86
801.074	564.9
801.254	638.62
801.434	614.05
801.614	581.28
801.794	628.39
801.974	1293.97
802.154	550.56
802.334	523.94
802.514	476.84
802.693	634.53
802.873	517.79
803.053	652.96
803.233	499.36
803.413	528.03
803.592	550.56
803.772	505.51
803.952	603.81
804.131	548.51
804.311	648.86
804.491	562.85
804.67	595.62
804.85	493.22
805.03	425.64
805.209	532.13
805.389	530.08
805.568	511.65
805.748	487.08
805.928	532.13
806.107	511.65
806.287	454.31
806.466	482.98
806.646	499.36
806.825	411.3
807.004	456.36
807.184	528.03
807.363	478.88
807.543	491.17
807.722	450.21
807.901	505.51
808.081	470.69
808.26	493.22
808.439	429.73
808.619	519.84
808.798	458.4
808.977	442.02
809.156	511.65
809.336	464.55
809.515	487.08
809.694	452.26
809.873	390.82
810.052	413.35
810.231	470.69
810.411	446.12
810.59	464.55
810.769	454.31
810.948	405.16
811.127	392.87
811.306	417.44
811.485	343.72
811.664	491.17
811.843	396.96
812.022	399.01
812.201	382.63
812.38	458.4
812.559	425.64
812.737	407.2
812.916	306.85
813.095	356.01
813.274	362.15
813.453	407.2
813.632	376.48
813.811	356.01
813.989	380.58
814.168	360.1
814.347	310.95
814.526	464.55
814.704	409.25
814.883	358.05
815.062	294.57
815.24	319.14
815.419	341.67
815.598	431.78
815.776	249.51
815.955	278.18
816.133	267.94
816.312	368.29
816.49	345.77
816.669	315.05
816.847	351.91
817.026	360.1
817.204	302.76
817.383	425.64
817.561	276.13
817.74	294.57
817.918	356.01
818.097	257.7
818.275	310.95
818.453	247.46
818.632	368.29
818.81	376.48
818.988	284.33
819.167	286.37
819.345	351.91
819.523	392.87
819.701	304.81
819.879	284.33
820.058	294.57
820.236	237.22
820.414	403.11
820.592	313
820.77	267.94
820.948	239.27
821.127	284.33
821.305	315.05
821.483	253.61
821.661	253.61
821.839	343.72
822.017	286.37
822.195	351.91
822.373	343.72
822.551	237.22
822.729	331.43
822.907	171.69
823.085	276.13
823.262	313
823.44	274.09
823.618	272.04
823.796	257.7
823.974	222.89
824.152	315.05
824.329	276.13
824.507	278.18
824.685	251.56
824.863	249.51
825.04	233.13
825.218	200.36
825.396	341.67
825.574	181.93
825.751	196.26
825.929	224.94
826.107	286.37
826.284	151.21
826.462	212.65
826.639	229.03
826.817	229.03
826.994	214.7
827.172	255.65
827.349	247.46
827.527	235.18
827.704	171.69
827.882	204.46
828.059	188.07
828.237	220.84
828.414	280.23
828.591	200.36
828.769	278.18
828.946	259.75
829.124	202.41
829.301	253.61
829.478	259.75
829.655	171.69
829.833	229.03
830.01	153.26
830.187	220.84
830.364	167.59
830.542	222.89
830.719	294.57
830.896	204.46
831.073	233.13
831.25	159.4
831.427	257.7
831.604	222.89
831.782	169.64
831.959	196.26
832.136	208.55
832.313	208.55
832.49	173.74
832.667	165.54
832.844	130.73
833.021	179.88
833.198	218.79
833.374	155.3
833.551	118.44
833.728	136.87
833.905	220.84
834.082	73.39
834.259	200.36
834.436	138.92
834.612	153.26
834.789	202.41
834.966	181.93
835.143	153.26
835.319	114.34
835.496	202.41
835.673	212.65
835.85	212.65
836.026	194.22
836.203	200.36
836.38	175.78
836.556	134.82
836.733	192.17
836.909	216.74
837.086	177.83
837.262	155.3
837.439	161.45
837.616	208.55
837.792	161.45
837.968	122.54
838.145	194.22
838.321	73.39
838.498	153.26
838.674	188.07
838.851	177.83
839.027	153.26
839.203	138.92
839.38	216.74
839.556	13.99
839.732	202.41
839.909	120.49
840.085	155.3
840.261	194.22
840.437	186.02
840.614	151.21
840.79	202.41
840.966	145.06
841.142	122.54
841.318	93.87
841.494	79.53
841.671	114.34
841.847	192.17
842.023	179.88
842.199	128.68
842.375	200.36
842.551	91.82
842.727	11.95
842.903	179.88
843.079	87.72
843.255	196.26
843.431	183.98
843.607	36.52
843.783	71.34
843.959	138.92
844.134	145.06
844.31	173.74
844.486	97.96
844.662	7.85
844.838	46.76
845.013	69.29
845.189	93.87
845.365	106.15
845.541	130.73
845.716	77.48
845.892	157.35
846.068	151.21
846.244	128.68
846.419	155.3
846.595	54.95
846.77	79.53
846.946	138.92
847.122	120.49
847.297	79.53
847.473	114.34
847.648	104.11
847.824	93.87
847.999	89.77
848.175	118.44
848.35	81.58
848.526	171.69
848.701	196.26
848.876	153.26
849.052	61.1
849.227	143.02
849.403	57
849.578	104.11
849.753	151.21
849.929	48.81
850.104	54.95
850.279	93.87
850.454	140.97
850.63	63.15
850.805	179.88
850.98	65.19
851.155	73.39
851.33	69.29
851.505	57
851.681	231.08
851.856	93.87
852.031	61.1
852.206	112.3
852.381	11.95
852.556	48.81
852.731	97.96
852.906	97.96
853.081	61.1
853.256	102.06
853.431	81.58
853.606	65.19
853.781	120.49
853.956	67.24
854.131	93.87
854.305	77.48
854.48	42.67
854.655	73.39
854.83	79.53
855.005	30.38
855.18	91.82
855.354	46.76
855.529	110.25
855.704	24.23
855.879	44.71
856.053	32.43
856.228	11.95
856.403	79.53
856.577	69.29
856.752	30.38
856.926	79.53
857.101	-18.77
857.276	124.58
857.45	61.1
857.625	65.19
857.799	-33.11
857.974	79.53
858.148	63.15
858.323	114.34
858.497	57
858.672	32.43
858.846	63.15
859.02	85.67
859.195	28.33
859.369	69.29
859.543	73.39
859.718	54.95
859.892	46.76
860.066	89.77
860.241	16.04
860.415	28.33
860.589	38.57
860.763	16.04
860.938	65.19
861.112	63.15
861.286	-41.3
861.46	104.11
861.634	-8.53
861.808	73.39
861.982	40.62
862.157	22.19
862.331	54.95
862.505	20.14
862.679	-0.34
862.853	97.96
863.027	46.76
863.201	173.74
863.375	40.62
863.549	89.77
863.722	24.23
863.896	89.77
864.07	18.09
864.244	77.48
864.418	52.91
864.592	-35.16
864.766	7.85
864.939	36.52
865.113	-0.34
865.287	7.85
865.461	16.04
865.634	13.99
865.808	38.57
865.982	147.11
866.156	-41.3
866.329	-35.16
866.503	-63.83
866.676	97.96
866.85	32.43
867.024	83.63
867.197	46.76
867.371	110.25
867.544	136.87
867.718	30.38
867.891	73.39
868.065	22.19
868.238	16.04
868.412	42.67
868.585	-59.73
868.759	46.76
868.932	38.57
869.105	57
869.279	100.01
869.452	-16.73
869.625	57
869.799	38.57
869.972	-24.92
870.145	11.95
870.319	34.47
870.492	-2.39
870.665	-35.16
870.838	30.38
871.011	11.95
871.185	54.95
871.358	73.39
871.531	52.91
871.704	-0.34
871.877	-8.53
872.05	50.86
872.223	20.14
872.396	24.23
872.569	93.87
872.742	-24.92
872.915	147.11
873.088	30.38
873.261	73.39
873.434	32.43
873.607	-20.82
873.78	87.72
873.953	24.23
874.126	28.33
874.299	-2.39
874.471	-0.34
874.644	38.57
874.817	36.52
874.99	77.48
875.163	-16.73
875.335	85.67
875.508	100.01
875.681	48.81
875.853	24.23
876.026	104.11
876.199	-10.58
876.371	-8.53
876.544	-8.53
876.717	91.82
876.889	28.33
877.062	77.48
877.234	5.8
877.407	28.33
877.579	-74.07
877.752	16.04
877.924	118.44
878.097	42.67
878.269	-2.39
878.442	-43.35
878.614	16.04
878.786	24.23
878.959	79.53
879.131	30.38
879.303	-33.11
879.476	57
879.648	118.44
879.82	-4.44
879.993	22.19
880.165	16.04
880.337	-8.53
880.509	40.62
880.681	-84.31
880.854	-18.77
881.026	32.43
881.198	194.22
881.37	54.95
881.542	-0.34
881.714	20.14
881.886	-26.96
882.058	-8.53
882.23	40.62
882.402	57
882.574	16.04
882.746	54.95
882.918	69.29
883.09	-16.73
883.262	-61.78
883.434	32.43
883.606	-57.68
883.778	59.05
883.95	149.16
884.122	32.43
884.293	22.19
884.465	-16.73
884.637	18.09
884.809	-65.88
884.98	26.28
885.152	77.48
885.324	104.11
885.496	-43.35
885.667	57
885.839	30.38
886.011	57
886.182	5.8
886.354	65.19
886.525	3.75
886.697	24.23
886.869	-8.53
887.04	7.85
887.212	38.57
887.383	118.44
887.555	30.38
887.726	32.43
887.897	3.75
888.069	7.85
888.24	79.53
888.412	-72.02
888.583	32.43
888.754	-12.63
888.926	-22.87
889.097	57
889.268	24.23
889.44	11.95
889.611	-0.34
889.782	-20.82
889.953	-100.69
890.125	16.04
890.296	24.23
890.467	-51.54
890.638	-0.34
890.809	52.91
890.98	-8.53
891.151	24.23
891.323	48.81
891.494	24.23
891.665	32.43
891.836	44.71
892.007	-6.49
892.178	73.39
892.349	40.62
892.52	-4.44
892.691	-2.39
892.862	22.19
893.032	-29.01
893.203	57
893.374	40.62
893.545	32.43
893.716	-26.96
893.887	11.95
894.057	-41.3
894.228	-4.44
894.399	-31.06
894.57	28.33
894.74	20.14
894.911	-8.53
895.082	30.38
895.253	-16.73
895.423	-2.39
895.594	100.01
895.764	-16.73
895.935	-29.01
896.106	-10.58
896.276	22.19
896.447	-24.92
896.617	-0.34
896.788	-37.2
896.958	-49.49
897.129	24.23
897.299	-55.64
897.47	5.8
897.64	130.73
897.81	-8.53
897.981	44.71
898.151	-20.82
898.322	-20.82
898.492	32.43
898.662	7.85
898.832	-33.11
899.003	-2.39
899.173	3.75
899.343	-0.34
899.513	-33.11
