Data from USB4F104151__61__11-30-48-911.txt Node

Date: Fri Mar 14 11:30:48 EDT 2025
User: louis
Spectrometer: USB4F10415
Trigger mode: 4
Integration Time (sec): 5.000000E-2
Scans to average: 1
Electric dark correction enabled: true
Nonlinearity correction enabled: false
Boxcar width: 0
XAxis mode: Wavelengths
Number of Pixels in Spectrum: 3648
>>>>>Begin Spectral Data<<<<<
178.204	-70.14
178.424	-70.14
178.644	-70.14
178.864	-94.72
179.084	-102.91
179.304	-16.9
179.524	-4.61
179.744	26.11
179.964	60.93
180.184	-49.66
180.404	11.78
180.624	-12.8
180.844	-0.51
181.064	-119.29
181.283	19.97
181.503	19.97
181.723	65.02
181.943	-64
182.163	87.55
182.383	-39.42
182.602	28.16
182.822	77.31
183.042	110.08
183.262	11.78
183.482	11.78
183.701	89.6
183.921	65.02
184.141	91.65
184.361	118.27
184.58	73.21
184.8	93.69
185.02	28.16
185.239	42.5
185.459	52.74
185.679	146.94
185.898	30.21
186.118	77.31
186.338	99.84
186.557	77.31
186.777	-25.09
186.997	65.02
187.216	-0.51
187.436	56.83
187.655	175.61
187.875	85.5
188.095	85.5
188.314	83.45
188.534	110.08
188.753	105.98
188.973	99.84
189.192	159.23
189.412	67.07
189.631	26.11
189.851	52.74
190.07	36.35
190.29	28.16
190.509	73.21
190.729	3.58
190.948	118.27
191.168	286.2
191.387	28.16
191.607	30.21
191.826	67.07
192.045	-14.85
192.265	48.64
192.484	-8.7
192.704	15.87
192.923	-31.23
193.142	108.03
193.362	32.26
193.581	56.83
193.8	75.26
194.02	56.83
194.239	26.11
194.458	13.82
194.678	52.74
194.897	-37.38
195.116	81.41
195.335	60.93
195.555	65.02
195.774	95.74
195.993	60.93
196.212	52.74
196.432	36.35
196.651	105.98
196.87	-4.61
197.089	116.22
197.308	-2.56
197.528	7.68
197.747	-33.28
197.966	58.88
198.185	118.27
198.404	-35.33
198.623	36.35
198.842	97.79
199.062	60.93
199.281	44.54
199.5	65.02
199.719	5.63
199.938	44.54
200.157	134.65
200.376	89.6
200.595	30.21
200.814	85.5
201.033	56.83
201.252	1.54
201.471	65.02
201.69	54.78
201.909	108.03
202.128	-14.85
202.347	56.83
202.566	44.54
202.785	36.35
203.004	36.35
203.223	132.61
203.442	112.13
203.661	-12.8
203.879	-31.23
204.098	173.57
204.317	32.26
204.536	69.12
204.755	26.11
204.974	148.99
205.193	3.58
205.411	130.56
205.63	116.22
205.849	62.98
206.068	52.74
206.287	48.64
206.505	36.35
206.724	110.08
206.943	36.35
207.162	44.54
207.381	52.74
207.599	48.64
207.818	11.78
208.037	11.78
208.255	83.45
208.474	50.69
208.693	99.84
208.911	-2.56
209.13	65.02
209.349	73.21
209.567	79.36
209.786	17.92
210.005	36.35
210.223	56.83
210.442	36.35
210.661	89.6
210.879	44.54
211.098	-4.61
211.316	9.73
211.535	93.69
211.753	71.17
211.972	126.46
212.191	50.69
212.409	40.45
212.628	77.31
212.846	48.64
213.065	93.69
213.283	44.54
213.502	114.17
213.72	146.94
213.938	40.45
214.157	58.88
214.375	71.17
214.594	58.88
214.812	1.54
215.031	67.07
215.249	11.78
215.467	5.63
215.686	44.54
215.904	91.65
216.122	95.74
216.341	110.08
216.559	50.69
216.778	46.59
216.996	77.31
217.214	3.58
217.432	40.45
217.651	81.41
217.869	99.84
218.087	65.02
218.306	24.06
218.524	97.79
218.742	62.98
218.96	50.69
219.179	-33.28
219.397	75.26
219.615	134.65
219.833	24.06
220.051	30.21
220.27	103.93
220.488	77.31
220.706	56.83
220.924	3.58
221.142	-6.66
221.36	46.59
221.578	69.12
221.796	26.11
222.015	1.54
222.233	42.5
222.451	48.64
222.669	-23.04
222.887	167.42
223.105	-20.99
223.323	52.74
223.541	13.82
223.759	5.63
223.977	60.93
224.195	155.13
224.413	93.69
224.631	175.61
224.849	81.41
225.067	144.89
225.285	3.58
225.503	85.5
225.721	34.3
225.939	40.45
226.157	7.68
226.375	110.08
226.592	-12.8
226.81	36.35
227.028	73.21
227.246	181.76
227.464	11.78
227.682	26.11
227.9	56.83
228.117	-20.99
228.335	32.26
228.553	85.5
228.771	75.26
228.989	56.83
229.206	56.83
229.424	3.58
229.642	77.31
229.86	3.58
230.077	-4.61
230.295	118.27
230.513	42.5
230.731	118.27
230.948	99.84
231.166	36.35
231.384	-27.14
231.601	65.02
231.819	30.21
232.037	91.65
232.254	34.3
232.472	36.35
232.689	-18.94
232.907	56.83
233.125	44.54
233.342	-37.38
233.56	28.16
233.777	52.74
233.995	52.74
234.213	120.32
234.43	108.03
234.648	44.54
234.865	89.6
235.083	101.89
235.3	24.06
235.518	36.35
235.735	85.5
235.953	85.5
236.17	48.64
236.388	24.06
236.605	-29.18
236.822	48.64
237.04	81.41
237.257	36.35
237.475	-55.81
237.692	56.83
237.909	89.6
238.127	75.26
238.344	48.64
238.562	40.45
238.779	-29.18
238.996	67.07
239.214	110.08
239.431	81.41
239.648	46.59
239.865	28.16
240.083	36.35
240.3	46.59
240.517	36.35
240.735	48.64
240.952	81.41
241.169	28.16
241.386	58.88
241.603	97.79
241.821	7.68
242.038	60.93
242.255	48.64
242.472	-12.8
242.689	-20.99
242.907	69.12
243.124	36.35
243.341	-0.51
243.558	38.4
243.775	-6.66
243.992	36.35
244.209	32.26
244.426	128.51
244.643	134.65
244.86	75.26
245.078	108.03
245.295	44.54
245.512	101.89
245.729	93.69
245.946	36.35
246.163	52.74
246.38	-6.66
246.597	40.45
246.814	9.73
247.031	91.65
247.248	36.35
247.464	105.98
247.681	22.02
247.898	81.41
248.115	52.74
248.332	11.78
248.549	56.83
248.766	103.93
248.983	157.18
249.2	7.68
249.417	132.61
249.633	69.12
249.85	95.74
250.067	13.82
250.284	-0.51
250.501	30.21
250.717	83.45
250.934	42.5
251.151	77.31
251.368	85.5
251.585	99.84
251.801	58.88
252.018	7.68
252.235	105.98
252.451	24.06
252.668	67.07
252.885	30.21
253.102	108.03
253.318	75.26
253.535	-16.9
253.752	9.73
253.968	40.45
254.185	-16.9
254.401	77.31
254.618	26.11
254.835	93.69
255.051	142.85
255.268	67.07
255.484	24.06
255.701	3.58
255.917	24.06
256.134	50.69
256.351	83.45
256.567	56.83
256.784	50.69
257	32.26
257.217	108.03
257.433	85.5
257.65	62.98
257.866	136.7
258.082	-0.51
258.299	24.06
258.515	24.06
258.732	36.35
258.948	26.11
259.165	9.73
259.381	22.02
259.597	52.74
259.814	7.68
260.03	58.88
260.246	58.88
260.463	54.78
260.679	93.69
260.895	-23.04
261.112	93.69
261.328	19.97
261.544	52.74
261.761	87.55
261.977	11.78
262.193	7.68
262.409	38.4
262.626	114.17
262.842	112.13
263.058	85.5
263.274	50.69
263.49	114.17
263.707	99.84
263.923	128.51
264.139	9.73
264.355	48.64
264.571	85.5
264.787	56.83
265.004	75.26
265.22	67.07
265.436	40.45
265.652	56.83
265.868	19.97
266.084	-35.33
266.3	89.6
266.516	36.35
266.732	67.07
266.948	-10.75
267.164	118.27
267.38	36.35
267.596	-4.61
267.812	173.57
268.028	77.31
268.244	73.21
268.46	-12.8
268.676	48.64
268.892	77.31
269.108	77.31
269.324	3.58
269.54	73.21
269.756	52.74
269.972	-51.71
270.188	60.93
270.403	26.11
270.619	97.79
270.835	46.59
271.051	99.84
271.267	42.5
271.483	36.35
271.698	30.21
271.914	75.26
272.13	93.69
272.346	24.06
272.562	105.98
272.777	52.74
272.993	26.11
273.209	73.21
273.425	60.93
273.64	3.58
273.856	77.31
274.072	114.17
274.287	17.92
274.503	81.41
274.719	105.98
274.934	52.74
275.15	3.58
275.366	54.78
275.581	9.73
275.797	38.4
276.012	77.31
276.228	3.58
276.444	34.3
276.659	69.12
276.875	42.5
277.09	38.4
277.306	108.03
277.521	124.41
277.737	24.06
277.952	56.83
278.168	46.59
278.383	54.78
278.599	36.35
278.814	79.36
279.03	26.11
279.245	110.08
279.461	81.41
279.676	56.83
279.892	40.45
280.107	15.87
280.322	-14.85
280.538	58.88
280.753	46.59
280.969	75.26
281.184	11.78
281.399	148.99
281.615	22.02
281.83	42.5
282.045	50.69
282.26	89.6
282.476	36.35
282.691	138.75
282.906	32.26
283.122	75.26
283.337	38.4
283.552	87.55
283.767	28.16
283.983	97.79
284.198	11.78
284.413	101.89
284.628	-4.61
284.843	17.92
285.058	99.84
285.274	5.63
285.489	50.69
285.704	134.65
285.919	42.5
286.134	15.87
286.349	-53.76
286.564	65.02
286.779	171.52
286.995	81.41
287.21	-20.99
287.425	58.88
287.64	60.93
287.855	56.83
288.07	19.97
288.285	26.11
288.5	89.6
288.715	83.45
288.93	91.65
289.145	81.41
289.36	93.69
289.575	48.64
289.79	124.41
290.004	50.69
290.219	69.12
290.434	32.26
290.649	26.11
290.864	7.68
291.079	19.97
291.294	26.11
291.509	36.35
291.724	105.98
291.938	77.31
292.153	87.55
292.368	3.58
292.583	42.5
292.798	56.83
293.012	52.74
293.227	48.64
293.442	26.11
293.657	81.41
293.871	75.26
294.086	58.88
294.301	132.61
294.516	73.21
294.73	36.35
294.945	60.93
295.16	151.04
295.374	126.46
295.589	69.12
295.804	65.02
296.018	15.87
296.233	62.98
296.447	81.41
296.662	42.5
296.877	7.68
297.091	85.5
297.306	56.83
297.52	-12.8
297.735	56.83
297.949	81.41
298.164	85.5
298.378	-14.85
298.593	11.78
298.807	5.63
299.022	15.87
299.236	110.08
299.451	73.21
299.665	60.93
299.88	67.07
300.094	116.22
300.309	114.17
300.523	79.36
300.737	32.26
300.952	93.69
301.166	34.3
301.381	19.97
301.595	52.74
301.809	46.59
302.024	5.63
302.238	-37.38
302.452	126.46
302.667	13.82
302.881	17.92
303.095	142.85
303.309	134.65
303.524	58.88
303.738	73.21
303.952	60.93
304.166	79.36
304.381	-20.99
304.595	116.22
304.809	19.97
305.023	3.58
305.237	79.36
305.452	79.36
305.666	17.92
305.88	1.54
306.094	103.93
306.308	91.65
306.522	69.12
306.736	28.16
306.95	101.89
307.164	-8.7
307.379	93.69
307.593	228.86
307.807	38.4
308.021	65.02
308.235	58.88
308.449	26.11
308.663	50.69
308.877	99.84
309.091	108.03
309.305	93.69
309.519	-4.61
309.733	83.45
309.947	60.93
310.161	52.74
310.374	128.51
310.588	81.41
310.802	69.12
311.016	40.45
311.23	130.56
311.444	85.5
311.658	60.93
311.872	65.02
312.085	97.79
312.299	-12.8
312.513	101.89
312.727	62.98
312.941	34.3
313.154	130.56
313.368	89.6
313.582	26.11
313.796	42.5
314.009	3.58
314.223	120.32
314.437	93.69
314.651	71.17
314.864	60.93
315.078	83.45
315.292	7.68
315.505	77.31
315.719	36.35
315.933	9.73
316.146	56.83
316.36	50.69
316.573	110.08
316.787	93.69
317.001	52.74
317.214	28.16
317.428	19.97
317.641	11.78
317.855	7.68
318.068	60.93
318.282	40.45
318.495	97.79
318.709	122.37
318.922	48.64
319.136	97.79
319.349	56.83
319.563	34.3
319.776	9.73
319.99	-45.57
320.203	91.65
320.417	44.54
320.63	108.03
320.843	116.22
321.057	11.78
321.27	62.98
321.483	122.37
321.697	148.99
321.91	3.58
322.124	105.98
322.337	56.83
322.55	103.93
322.763	28.16
322.977	93.69
323.19	13.82
323.403	40.45
323.617	99.84
323.83	34.3
324.043	67.07
324.256	77.31
324.469	-29.18
324.683	134.65
324.896	91.65
325.109	101.89
325.322	-12.8
325.535	-53.76
325.748	75.26
325.962	34.3
326.175	52.74
326.388	62.98
326.601	69.12
326.814	110.08
327.027	69.12
327.24	91.65
327.453	11.78
327.666	77.31
327.879	17.92
328.092	50.69
328.305	91.65
328.518	93.69
328.731	24.06
328.944	60.93
329.157	79.36
329.37	118.27
329.583	95.74
329.796	101.89
330.009	-70.14
330.222	101.89
330.435	97.79
330.648	97.79
330.861	101.89
331.073	101.89
331.286	58.88
331.499	108.03
331.712	19.97
331.925	44.54
332.138	56.83
332.35	116.22
332.563	81.41
332.776	108.03
332.989	56.83
333.202	50.69
333.414	44.54
333.627	28.16
333.84	-6.66
334.053	40.45
334.265	89.6
334.478	52.74
334.691	36.35
334.903	44.54
335.116	-20.99
335.329	9.73
335.541	101.89
335.754	167.42
335.966	71.17
336.179	73.21
336.392	56.83
336.604	44.54
336.817	83.45
337.029	77.31
337.242	58.88
337.454	44.54
337.667	91.65
337.88	138.75
338.092	83.45
338.305	36.35
338.517	148.99
338.729	91.65
338.942	36.35
339.154	44.54
339.367	56.83
339.579	89.6
339.792	46.59
340.004	99.84
340.217	97.79
340.429	44.54
340.641	9.73
340.854	9.73
341.066	42.5
341.278	77.31
341.491	108.03
341.703	93.69
341.915	34.3
342.128	97.79
342.34	44.54
342.552	83.45
342.764	3.58
342.977	67.07
343.189	110.08
343.401	99.84
343.613	19.97
343.826	85.5
344.038	73.21
344.25	73.21
344.462	81.41
344.674	95.74
344.886	89.6
345.099	122.37
345.311	65.02
345.523	146.94
345.735	-23.04
345.947	101.89
346.159	142.85
346.371	110.08
346.583	65.02
346.795	116.22
347.007	58.88
347.219	105.98
347.431	50.69
347.643	54.78
347.855	85.5
348.067	44.54
348.279	-4.61
348.491	48.64
348.703	67.07
348.915	60.93
349.127	3.58
349.339	65.02
349.551	69.12
349.763	28.16
349.975	75.26
350.187	114.17
350.399	134.65
350.61	97.79
350.822	60.93
351.034	91.65
351.246	95.74
351.458	69.12
351.669	58.88
351.881	28.16
352.093	101.89
352.305	171.52
352.517	126.46
352.728	67.07
352.94	75.26
353.152	101.89
353.363	93.69
353.575	60.93
353.787	40.45
353.999	38.4
354.21	167.42
354.422	75.26
354.633	17.92
354.845	69.12
355.057	105.98
355.268	87.55
355.48	118.27
355.692	52.74
355.903	118.27
356.115	46.59
356.326	73.21
356.538	136.7
356.749	179.71
356.961	118.27
357.172	114.17
357.384	15.87
357.595	161.28
357.807	69.12
358.018	73.21
358.23	153.09
358.441	85.5
358.653	85.5
358.864	130.56
359.075	15.87
359.287	151.04
359.498	89.6
359.709	3.58
359.921	32.26
360.132	67.07
360.344	89.6
360.555	-20.99
360.766	44.54
360.977	101.89
361.189	97.79
361.4	54.78
361.611	110.08
361.823	128.51
362.034	93.69
362.245	28.16
362.456	67.07
362.667	134.65
362.879	67.07
363.09	36.35
363.301	114.17
363.512	52.74
363.723	24.06
363.935	-31.23
364.146	99.84
364.357	19.97
364.568	130.56
364.779	83.45
364.99	50.69
365.201	69.12
365.412	110.08
365.623	91.65
365.834	75.26
366.045	36.35
366.256	128.51
366.467	44.54
366.678	62.98
366.889	91.65
367.1	60.93
367.311	118.27
367.522	83.45
367.733	120.32
367.944	110.08
368.155	7.68
368.366	34.3
368.577	67.07
368.788	126.46
368.999	69.12
369.209	77.31
369.42	132.61
369.631	155.13
369.842	124.41
370.053	163.33
370.264	-16.9
370.474	3.58
370.685	83.45
370.896	62.98
371.107	83.45
371.317	69.12
371.528	26.11
371.739	171.52
371.95	67.07
372.16	83.45
372.371	1.54
372.582	103.93
372.792	50.69
373.003	101.89
373.214	36.35
373.424	118.27
373.635	17.92
373.846	146.94
374.056	19.97
374.267	69.12
374.477	93.69
374.688	-12.8
374.898	60.93
375.109	30.21
375.319	118.27
375.53	48.64
375.74	114.17
375.951	56.83
376.161	110.08
376.372	138.75
376.582	83.45
376.793	28.16
377.003	3.58
377.214	30.21
377.424	114.17
377.635	108.03
377.845	69.12
378.055	138.75
378.266	26.11
378.476	19.97
378.686	116.22
378.897	118.27
379.107	48.64
379.317	60.93
379.528	108.03
379.738	75.26
379.948	69.12
380.158	171.52
380.369	36.35
380.579	116.22
380.789	65.02
380.999	69.12
381.21	165.37
381.42	99.84
381.63	81.41
381.84	52.74
382.05	163.33
382.261	110.08
382.471	122.37
382.681	85.5
382.891	132.61
383.101	73.21
383.311	85.5
383.521	110.08
383.731	44.54
383.941	132.61
384.151	44.54
384.361	-6.66
384.571	93.69
384.781	93.69
384.991	103.93
385.201	69.12
385.411	50.69
385.621	118.27
385.831	95.74
386.041	56.83
386.251	93.69
386.461	116.22
386.671	103.93
386.881	30.21
387.091	91.65
387.301	75.26
387.511	56.83
387.72	85.5
387.93	28.16
388.14	40.45
388.35	67.07
388.56	167.42
388.769	58.88
388.979	122.37
389.189	22.02
389.399	134.65
389.609	69.12
389.818	130.56
390.028	155.13
390.238	83.45
390.447	24.06
390.657	67.07
390.867	77.31
391.076	40.45
391.286	89.6
391.496	110.08
391.705	75.26
391.915	206.33
392.125	155.13
392.334	81.41
392.544	134.65
392.753	93.69
392.963	44.54
393.172	3.58
393.382	128.51
393.591	71.17
393.801	91.65
394.01	124.41
394.22	124.41
394.429	85.5
394.639	34.3
394.848	69.12
395.058	142.85
395.267	146.94
395.477	48.64
395.686	85.5
395.895	192
396.105	218.62
396.314	151.04
396.524	116.22
396.733	179.71
396.942	167.42
397.152	124.41
397.361	132.61
397.57	42.5
397.78	85.5
397.989	148.99
398.198	130.56
398.407	173.57
398.617	126.46
398.826	175.61
399.035	114.17
399.244	161.28
399.453	97.79
399.663	173.57
399.872	208.38
400.081	124.41
400.29	171.52
400.499	77.31
400.708	173.57
400.917	126.46
401.127	112.13
401.336	210.43
401.545	153.09
401.754	132.61
401.963	155.13
402.172	103.93
402.381	93.69
402.59	112.13
402.799	142.85
403.008	151.04
403.217	181.76
403.426	159.23
403.635	167.42
403.844	148.99
404.053	153.09
404.262	134.65
404.471	187.9
404.68	134.65
404.888	163.33
405.097	245.24
405.306	112.13
405.515	196.09
405.724	165.37
405.933	222.72
406.142	218.62
406.35	212.48
406.559	208.38
406.768	239.1
406.977	294.4
407.185	237.05
407.394	294.4
407.603	241.15
407.812	253.44
408.02	288.25
408.229	257.53
408.438	216.57
408.646	222.72
408.855	331.26
409.064	284.16
409.272	296.44
409.481	282.11
409.69	361.98
409.898	310.78
410.107	343.55
410.315	372.22
410.524	355.83
410.733	396.79
410.941	359.93
411.15	435.71
411.358	423.42
411.567	415.23
411.775	437.75
411.984	413.18
412.192	503.29
412.401	527.86
412.609	558.58
412.818	538.1
413.026	566.78
413.234	550.39
413.443	540.15
413.651	642.55
413.86	683.51
414.068	671.22
414.276	703.99
414.485	695.8
414.693	716.28
414.901	845.3
415.11	761.33
415.318	771.57
415.526	787.96
415.734	878.07
415.943	880.11
416.151	929.27
416.359	976.37
416.567	935.41
416.776	900.59
416.984	1132.01
417.192	1058.29
417.4	1054.19
417.608	949.75
417.817	1033.71
418.025	1222.13
418.233	1281.52
418.441	1175.02
418.649	1302
418.857	1355.24
419.065	1453.55
419.273	1363.44
419.481	1437.16
419.689	1492.46
419.897	1568.23
420.105	1629.67
420.313	1613.29
420.521	1754.6
420.729	1793.51
420.937	1863.14
421.145	1916.39
421.353	1945.06
421.561	2041.31
421.769	2102.75
421.977	2151.9
422.185	2244.06
422.393	2368.99
422.601	2483.67
422.809	2627.03
423.017	2487.77
423.224	2711
423.432	2639.32
423.64	2760.15
423.848	2919.89
424.056	2885.08
424.263	3085.78
424.471	3087.82
424.679	3075.54
424.887	3169.74
425.094	3349.96
425.302	3542.47
425.51	3562.95
425.718	3696.07
425.925	3743.17
426.133	3784.13
426.341	4007.36
426.548	4251.07
426.756	4222.4
426.964	4234.69
427.171	4488.64
427.379	4699.58
427.586	4664.76
427.794	4961.72
428.001	4851.13
428.209	5180.85
428.417	5141.94
428.624	5631.4
428.832	5610.92
429.039	5709.22
429.247	5635.5
429.454	6139.3
429.662	6464.93
429.869	6002.08
430.076	6516.12
430.284	6243.74
430.491	6735.26
430.699	7032.21
430.906	7030.16
431.114	7026.07
431.321	7361.94
431.528	7646.6
431.736	7966.09
431.943	8455.55
432.15	8203.65
432.358	8093.06
432.565	8572.29
432.772	8861.05
432.979	9082.23
433.187	9172.34
433.394	9231.73
433.601	9874.79
433.808	9979.24
434.016	9665.9
434.223	10282.34
434.43	10866.01
434.637	10618.21
434.844	11203.93
435.052	11584.85
435.259	11595.09
435.466	11797.84
435.673	11275.6
435.88	12275.01
436.087	12795.2
436.294	12956.99
436.501	12379.46
436.708	12698.94
436.915	13385.01
437.122	13884.72
437.329	13813.04
437.537	14253.35
437.743	14513.44
437.95	14484.77
438.157	15140.12
438.364	15293.72
438.571	15412.5
438.778	15588.63
438.985	17071.36
439.192	16358.66
439.399	17151.23
439.606	16760.06
439.813	17747.19
440.02	18564.32
440.227	18494.69
440.433	18029.8
440.64	18705.63
440.847	18382.06
441.054	18996.45
441.261	20024.53
441.467	20042.96
441.674	20745.41
441.881	21114.05
442.088	21075.13
442.294	21030.08
442.501	21554.36
442.708	22054.06
442.914	22670.5
443.121	23682.2
443.328	23395.48
443.534	24671.37
443.741	24124.56
443.948	23811.22
444.154	25570.43
444.361	25410.68
444.568	25695.35
444.774	25492.6
444.981	25814.13
445.187	26723.43
445.394	27688.03
445.6	27196.51
445.807	29674.56
446.013	28822.6
446.22	29084.74
446.426	30317.62
446.633	30653.48
446.839	31382.56
447.046	30741.55
447.252	31953.94
447.459	31702.04
447.665	32082.97
447.871	33356.8
448.078	34665.46
448.284	32873.48
448.491	34118.65
448.697	35038.19
448.903	35873.76
449.11	35881.95
449.316	35333.09
449.522	35849.18
449.728	37092.3
449.935	37073.87
450.141	36918.22
450.347	37901.25
450.553	36725.71
450.76	37012.43
450.966	38368.18
451.172	37737.41
451.378	38851.5
451.584	38364.09
451.791	39009.2
451.997	38718.39
452.203	39611.3
452.409	39254.95
452.615	39152.55
452.821	37977.02
453.027	37274.57
453.233	39500.71
453.44	37925.82
453.646	38269.88
453.852	38212.54
454.058	38730.67
454.264	37522.37
454.47	38382.52
454.676	37172.17
454.882	38593.46
455.088	35226.6
455.294	35986.39
455.5	36256.73
455.705	36402.13
455.911	35353.57
456.117	34606.06
456.323	34212.85
456.529	32259.09
456.735	33971.19
456.941	32828.43
457.147	32345.11
457.352	31196.2
457.558	30989.35
457.764	30948.39
457.97	30450.74
458.176	29852.73
458.381	29697.08
458.587	28011.6
458.793	28218.45
458.999	26823.78
459.204	28521.55
459.41	27991.12
459.616	25859.19
459.821	26287.21
460.027	25652.34
460.233	25625.72
460.438	23950.48
460.644	24261.77
460.85	23397.53
461.055	23170.21
461.261	22871.2
461.466	21056.7
461.672	20391.11
461.878	21898.42
462.083	20534.47
462.289	20284.62
462.494	19856.59
462.7	19139.8
462.905	18502.89
463.111	19420.38
463.316	19391.7
463.522	18887.9
463.727	19014.88
463.932	18760.93
464.138	18672.87
464.343	18703.59
464.549	17939.69
464.754	18777.31
464.959	18631.91
465.165	18504.93
465.37	17675.51
465.575	17466.61
465.781	18201.83
465.986	18326.76
466.191	17442.04
466.397	17122.55
466.602	16272.65
466.807	16893.18
467.012	16893.18
467.218	16780.54
467.423	16532.74
467.628	16563.46
467.833	17358.07
468.038	16516.36
468.244	16327.94
468.449	16815.36
468.654	16315.66
468.859	16266.5
469.064	16264.46
469.269	15484.18
469.474	15828.24
469.679	15951.12
469.885	15375.64
470.09	15777.04
470.295	15383.83
470.5	15054.11
470.705	15410.45
470.91	14970.14
471.115	14759.2
471.32	14845.21
471.525	14689.57
471.73	14544.16
471.935	14329.13
472.139	13886.76
472.344	14107.94
472.549	14050.6
472.754	13856.04
472.959	13716.78
473.164	13278.52
473.369	13223.22
473.574	13591.86
473.778	13585.71
473.983	13184.31
474.188	13499.7
474.393	12506.43
474.598	12913.98
474.802	12565.82
475.007	12533.06
475.212	12614.98
475.417	11973.96
475.621	12076.36
475.826	11838.8
476.031	11892.04
476.235	11681.1
476.44	11865.42
476.645	11677.01
476.849	11378
477.054	11396.43
477.259	11117.91
477.463	11410.77
477.668	10990.94
477.872	11175.25
478.077	10898.78
478.282	10784.09
478.486	10577.25
478.691	10612.06
478.895	10501.47
479.1	10464.61
479.304	10380.64
479.509	10210.66
479.713	10280.29
479.918	10233.19
480.122	9973.1
480.326	10104.17
480.531	10134.89
480.735	9776.49
480.94	10005.86
481.144	10296.67
481.348	9821.55
481.553	9823.59
481.757	9813.35
481.961	9973.1
482.166	9934.18
482.37	9842.03
482.574	9735.53
482.778	9764.2
482.983	9940.33
483.187	9643.37
483.391	9962.86
483.595	9647.47
483.8	9536.88
484.004	9932.14
484.208	9706.86
484.412	9708.91
484.616	9563.5
484.821	9930.09
485.025	9540.97
485.229	9725.29
485.433	9610.61
485.637	9489.78
485.841	9586.03
486.045	9860.46
486.249	9661.8
486.453	9784.68
486.657	9774.44
486.861	9600.37
487.065	9444.72
487.269	9690.48
487.473	9684.33
487.677	9731.44
487.881	9799.02
488.085	9629.04
488.289	9735.53
488.493	9616.75
488.697	9633.13
488.901	9653.61
489.105	9645.42
489.309	9543.02
489.512	9948.52
489.716	9854.31
489.92	9803.11
490.124	9764.2
490.328	9923.94
490.531	9741.68
490.735	9964.9
490.939	9827.69
491.143	9887.08
491.346	9971.05
491.55	10206.56
491.754	10186.08
491.958	10222.95
492.161	10009.96
492.365	10087.78
492.569	10081.64
492.772	10333.54
492.976	10286.44
493.18	10204.52
493.383	10347.87
493.587	10392.93
493.79	10679.65
493.994	10425.7
494.197	10634.59
494.401	10669.41
494.605	10956.12
494.808	10958.17
495.012	11050.33
495.215	11044.18
495.419	11173.21
495.622	10984.79
495.825	11322.71
496.029	11152.73
496.232	11627.85
496.436	11298.13
496.639	11943.24
496.843	11584.85
497.046	11810.12
497.249	12086.6
497.453	11992.39
497.656	12313.92
497.859	12346.69
498.063	12377.41
498.266	12729.66
498.469	12340.55
498.673	12694.85
498.876	13157.69
499.079	12846.4
499.282	12979.51
499.485	13212.98
499.689	13292.85
499.892	13774.13
500.095	13632.82
500.298	13880.62
500.501	13686.06
500.705	14210.34
500.908	14298.41
501.111	14564.64
501.314	14613.79
501.517	14746.91
501.72	14820.64
501.923	15078.68
502.126	15314.2
502.329	15703.31
502.532	15871.25
502.735	15514.9
502.938	16252.17
503.141	16059.66
503.344	16561.41
503.547	16522.5
503.75	16682.24
503.953	16827.65
504.156	17104.12
504.359	17280.25
504.562	17626.36
504.765	17941.74
504.968	18013.42
505.17	18412.78
505.373	18134.25
505.576	18781.41
505.779	18750.69
505.982	18816.22
506.185	19408.09
506.387	19524.82
506.59	19408.09
506.793	19989.71
506.996	20040.91
507.198	20749.51
507.401	20339.91
507.604	20901.06
507.807	21218.49
508.009	21290.17
508.212	21466.3
508.415	21681.33
508.617	22283.44
508.82	22125.74
509.022	22123.69
509.225	22983.84
509.428	22863.01
509.63	23020.7
509.833	23100.58
510.035	23587.99
510.238	23794.84
510.44	24384.65
510.643	24509.58
510.845	24874.12
511.048	24902.79
511.25	25648.25
511.453	25595
511.655	26281.07
511.858	26051.7
512.06	26330.22
512.262	26631.27
512.465	26776.68
512.667	27270.24
512.87	27720.79
513.072	27976.79
513.274	28400.72
513.477	28587.08
513.679	28820.55
513.881	29457.47
514.084	29637.69
514.286	30282.8
514.488	30172.21
514.69	30819.37
514.893	31325.22
515.095	31149.09
515.297	31732.76
515.499	31953.94
515.701	32744.46
515.904	32789.52
516.106	33289.22
516.308	33516.54
516.51	34558.96
516.712	34214.9
516.914	34769.9
517.116	35531.75
517.318	35615.71
517.52	36123.61
517.722	36314.07
517.925	36754.38
518.127	37845.95
518.329	37628.87
518.531	38192.06
518.733	38349.75
518.935	38892.46
519.136	39308.2
519.338	40154.01
519.54	40604.56
519.742	41479.05
519.944	41464.71
520.146	41945.98
520.348	42199.93
520.55	42558.33
520.752	42849.14
520.954	43484.01
521.155	43373.42
521.357	44587.86
521.559	44655.45
521.761	45853.51
521.963	45593.42
522.164	46486.33
522.366	46871.35
522.568	47194.93
522.77	47649.58
522.971	48223.01
523.173	48126.75
523.375	48986.9
523.576	48718.62
523.778	49672.97
523.98	50455.29
524.181	50451.2
524.383	50944.76
524.584	51753.71
524.786	51245.81
524.988	51960.55
525.189	52929.24
525.391	52890.33
525.592	53662.41
525.794	54319.81
525.995	54340.29
526.197	54205.12
526.398	54393.54
526.6	55245.49
526.801	55800.49
527.003	55911.08
527.204	56113.83
527.406	56601.25
527.607	57201.3
527.808	57590.42
528.01	56693.41
528.211	57803.41
528.412	58745.47
528.614	58405.51
528.815	58751.62
529.016	59605.62
529.218	59150.97
529.419	59298.42
529.62	59867.76
529.822	60088.94
530.023	60029.55
530.224	60244.58
530.425	60826.21
530.626	60768.86
530.828	60387.94
531.029	62046.8
531.23	61280.86
531.431	61569.62
531.632	61895.25
531.833	62022.22
532.035	62331.46
532.236	62274.12
532.437	62874.18
532.638	62280.27
532.839	63140.41
533.04	63173.18
533.241	62650.95
533.442	63705.65
533.643	63494.71
533.844	63623.73
534.045	63765.04
534.246	63455.8
534.447	64045.61
534.648	63537.72
534.849	63910.45
535.05	63996.46
535.251	64152.11
535.451	64152.11
535.652	64152.11
535.853	64152.11
536.054	64152.11
536.255	64152.11
536.456	64152.11
536.657	64152.11
536.857	64152.11
537.058	64152.11
537.259	64152.11
537.46	64152.11
537.66	64152.11
537.861	64152.11
538.062	64152.11
538.263	64152.11
538.463	64152.11
538.664	64152.11
538.865	64152.11
539.065	64152.11
539.266	64152.11
539.466	64152.11
539.667	64152.11
539.868	64152.11
540.068	64152.11
540.269	64152.11
540.469	64152.11
540.67	64152.11
540.87	64152.11
541.071	64152.11
541.271	64152.11
541.472	64152.11
541.672	64152.11
541.873	64152.11
542.073	64152.11
542.274	64152.11
542.474	64152.11
542.675	64152.11
542.875	64152.11
543.075	64152.11
543.276	64152.11
543.476	64152.11
543.676	64152.11
543.877	64152.11
544.077	64152.11
544.277	64152.11
544.478	64152.11
544.678	64152.11
544.878	64152.11
545.078	64152.11
545.279	64152.11
545.479	64152.11
545.679	64152.11
545.879	64152.11
546.079	64152.11
546.28	64152.11
546.48	64152.11
546.68	64152.11
546.88	64152.11
547.08	64152.11
547.28	64152.11
547.48	64152.11
547.68	64152.11
547.88	64152.11
548.081	64152.11
548.281	64152.11
548.481	64152.11
548.681	64152.11
548.881	64152.11
549.081	64152.11
549.28	64152.11
549.48	64152.11
549.68	64152.11
549.88	64152.11
550.08	64152.11
550.28	64152.11
550.48	64152.11
550.68	64152.11
550.88	64152.11
551.08	64152.11
551.279	64152.11
551.479	64152.11
551.679	64152.11
551.879	64152.11
552.079	64152.11
552.278	64152.11
552.478	64152.11
552.678	64152.11
552.878	64152.11
553.077	64152.11
553.277	64152.11
553.477	64152.11
553.676	64152.11
553.876	64152.11
554.076	64152.11
554.275	64152.11
554.475	64152.11
554.674	64152.11
554.874	64152.11
555.074	64152.11
555.273	64152.11
555.473	64152.11
555.672	64152.11
555.872	64152.11
556.071	64152.11
556.271	64152.11
556.47	64152.11
556.67	63640.12
556.869	63767.09
557.068	63672.88
557.268	63582.77
557.467	63849.01
557.667	63652.4
557.866	63459.9
558.065	63386.17
558.265	63005.25
558.464	62995.01
558.663	63861.3
558.863	62835.27
559.062	63504.95
559.261	62591.56
559.461	63451.7
559.66	62200.39
559.859	62390.86
560.058	61770.32
560.258	62386.76
560.457	61655.64
560.656	62394.95
560.855	61305.43
561.054	61755.99
561.253	61661.78
561.453	61248.09
561.652	61551.19
561.851	61524.57
562.05	60756.58
562.249	60080.75
562.448	61061.72
562.647	60627.55
562.846	59699.83
563.045	59923.05
563.244	59572.85
563.443	59964.01
563.642	58610.31
563.841	59202.17
564.04	58729.09
564.239	59267.7
564.438	58505.86
564.637	58612.35
564.836	58503.81
565.035	57590.42
565.234	57762.45
565.432	57827.98
565.631	57205.4
565.83	57971.34
566.029	57203.35
566.228	57078.43
566.427	56425.12
566.625	56156.84
566.824	55741.1
567.023	56447.65
567.222	55147.19
567.42	55800.49
567.619	55268.02
567.818	55243.45
568.016	55067.32
568.215	54921.91
568.414	54555.33
568.612	54530.75
568.811	53674.7
569.01	53793.48
569.208	53369.55
569.407	53621.45
569.605	53058.26
569.804	53547.73
570.002	52794.07
570.201	52802.27
570.4	52196.07
570.598	51933.93
570.797	51645.16
570.995	51864.3
571.193	51012.34
571.392	51292.91
571.59	50694.91
571.789	50729.72
571.987	50617.08
572.186	50205.44
572.384	49730.31
572.582	49971.97
572.781	49662.73
572.979	49066.77
573.177	49130.26
573.376	49240.85
573.574	48562.97
573.772	48722.71
573.971	48136.99
574.169	48239.39
574.367	47702.82
574.565	47915.81
574.763	47723.3
574.962	47375.15
575.16	47225.65
575.358	46996.27
575.556	46187.33
575.754	47018.8
575.952	46246.72
576.151	46709.56
576.349	45353.8
576.547	45708.1
576.745	45462.35
576.943	45327.18
577.141	45400.91
577.339	45085.52
577.537	44577.62
577.735	45024.08
577.933	44479.32
578.131	44311.39
578.329	43940.71
578.527	44143.45
578.725	43858.79
578.923	43938.66
579.121	43656.04
579.319	43250.54
579.516	43619.17
579.714	43004.78
579.912	42986.35
580.11	42523.51
580.308	42529.66
580.506	42187.64
580.704	41628.55
580.901	41448.33
581.099	42371.96
581.297	41376.65
581.495	41046.93
581.692	41573.25
581.89	41202.57
582.088	41366.41
582.285	40625.04
582.483	40883.09
582.681	40756.11
582.878	40237.98
583.076	40350.62
583.274	40197.02
583.471	39809.95
583.669	39871.39
583.866	39308.2
584.064	39609.25
584.262	39355.3
584.459	39328.68
584.657	39498.66
584.854	39457.7
585.052	38687.67
585.249	38785.97
585.447	38753.2
585.644	38400.95
585.841	38536.12
586.039	38054.84
586.236	37780.42
586.434	37821.37
586.631	37921.73
586.828	37725.12
587.026	37675.97
587.223	37245.9
587.42	37256.14
587.618	37379.01
587.815	36549.59
588.012	36996.04
588.21	36756.43
588.407	36948.94
588.604	36729.81
588.801	35959.77
588.999	36385.75
589.196	36144.09
589.393	35963.87
589.59	35922.91
589.787	35445.73
589.984	35662.82
590.182	35120.1
590.379	35582.95
590.576	34909.16
590.773	35306.47
590.97	34765.81
591.167	34812.91
591.364	34593.78
591.561	34509.81
591.758	34028.54
591.955	34186.23
592.152	34282.48
592.349	34192.37
592.546	34272.25
592.743	33559.55
592.94	33172.49
593.137	33764.35
593.334	33379.33
593.531	32963.59
593.727	33207.3
593.924	32984.07
594.121	32597.01
594.318	33272.84
594.515	32650.25
594.712	32973.83
594.908	32545.81
595.105	32519.18
595.302	32123.93
595.499	32242.71
595.696	32279.57
595.892	31837.21
596.089	31929.37
596.286	32023.58
596.482	31706.14
596.679	31409.18
596.876	31687.71
597.072	31183.91
597.269	31177.76
597.466	31018.02
597.662	30975.02
597.859	31435.81
598.055	31149.09
598.252	30909.48
598.448	30485.55
598.645	30540.85
598.841	30051.38
599.038	30456.88
599.234	30278.71
599.431	30080.05
599.627	29783.1
599.824	29873.21
600.02	29629.5
600.217	29709.37
600.413	29535.29
600.609	29031.49
600.806	29406.27
601.002	29338.69
601.198	29283.39
601.395	28935.24
601.591	28843.08
601.787	28836.94
601.984	28691.53
602.18	28918.85
602.376	28490.83
602.572	28179.54
602.769	28333.14
602.965	28134.48
603.161	28013.65
603.357	27984.98
603.553	28116.05
603.75	27720.79
603.946	27595.87
604.142	27481.18
604.338	27591.77
604.534	27391.07
604.73	27106.4
604.926	27188.32
605.122	27411.55
605.318	26911.85
605.514	26705
605.71	26846.31
605.906	26702.95
606.102	26721.38
606.298	26543.21
606.494	26756.2
606.69	26889.32
606.886	26543.21
607.082	25977.97
607.278	26115.19
607.474	26084.47
607.67	26336.37
607.866	25842.81
608.062	25986.16
608.257	25625.72
608.453	25687.16
608.649	25461.88
608.845	25549.95
609.041	25558.14
609.236	25453.69
609.432	25420.92
609.628	25386.11
609.824	25293.95
610.019	24910.98
610.215	25324.67
610.411	25062.53
610.606	24833.16
610.802	24874.12
610.998	24794.25
611.193	24587.4
611.389	24462.47
611.584	24411.28
611.78	24558.73
611.976	24251.53
612.171	24439.95
612.367	24206.48
612.562	24233.1
612.758	23665.81
612.953	23872.66
613.149	23979.15
613.344	23841.94
613.539	23757.97
613.735	23698.58
613.93	23731.35
614.126	23544.98
614.321	23583.9
614.517	23717.01
614.712	23430.3
614.907	23213.21
615.103	23254.17
615.298	22998.18
615.493	23430.3
615.688	22951.07
615.884	23516.31
616.079	22629.54
616.274	22916.26
616.47	22848.68
616.665	22844.58
616.86	22772.9
617.055	22502.57
617.25	22555.82
617.445	22430.89
617.641	22000.82
617.836	22539.43
618.031	22049.97
618.226	22228.14
618.421	22006.96
618.616	22193.33
618.811	21736.63
619.006	22041.78
619.201	21593.27
619.396	21963.95
619.591	21173.44
619.786	21634.23
619.981	20942.02
620.176	21447.86
620.371	21245.12
620.566	21245.12
620.761	20970.69
620.956	21056.7
621.151	20659.4
621.346	20970.69
621.541	20501.7
621.735	20587.72
621.93	20243.66
622.125	20382.92
622.32	19872.98
622.515	20235.47
622.709	20002
622.904	19825.87
623.099	19786.96
623.294	19469.53
623.488	19387.61
623.683	19492.05
623.878	19098.84
624.072	19299.55
624.267	19088.6
624.462	18959.58
624.656	19043.55
624.851	18726.11
625.046	18556.13
625.24	18658.53
625.435	18183.4
625.629	18201.83
625.824	18439.4
626.018	18230.51
626.213	17812.72
626.407	18164.97
626.602	17493.24
626.796	17829.1
626.991	17831.15
627.185	17896.69
627.38	17335.54
627.574	17579.25
627.768	17018.11
627.963	17112.31
628.157	17263.86
628.352	17353.98
628.546	16868.61
628.74	16813.31
628.935	16489.73
629.129	16631.04
629.323	16428.29
629.517	16635.14
629.712	16346.37
629.906	16563.46
630.1	16182.54
630.294	16215.3
630.489	16004.36
630.683	16076.04
630.877	15955.21
631.071	15736.08
631.265	15598.87
631.459	15740.18
631.653	15424.79
631.848	15465.75
632.042	15324.44
632.236	15385.88
632.43	15109.4
632.624	15136.03
632.818	15162.65
633.012	14906.65
633.206	14970.14
633.4	14972.19
633.594	14587.17
633.788	14574.88
633.982	14617.89
634.176	14347.56
634.369	14404.9
634.563	14519.59
634.757	14314.79
634.951	14318.89
635.145	14304.55
635.339	14265.64
635.533	14042.41
635.726	13917.48
635.92	13700.4
636.114	13841.71
636.308	13532.47
636.501	13882.67
636.695	13356.34
636.889	13471.03
637.083	13233.46
637.276	13192.5
637.47	12938.55
637.664	13016.38
637.857	13118.78
638.051	12944.7
638.244	12840.25
638.438	12928.31
638.632	12686.65
638.825	12430.66
639.019	12547.39
639.212	12305.73
639.406	12199.24
639.599	12315.97
639.793	12279.11
639.986	11951.43
640.18	12023.11
640.373	11984.2
640.567	11834.7
640.76	11717.97
640.954	11668.81
641.147	11453.78
641.34	11685.2
641.534	11484.5
641.727	11357.52
641.92	11320.66
642.114	11267.41
642.307	11357.52
642.5	11242.84
642.694	10995.03
642.887	11095.38
643.08	11064.66
643.273	11029.85
643.467	10857.82
643.66	10726.75
643.853	10638.69
644.046	10470.75
644.239	10685.79
644.432	10366.31
644.626	10184.04
644.819	10296.67
645.012	10382.69
645.205	10358.11
645.398	10114.41
645.591	10208.61
645.784	10034.53
645.977	10171.75
646.17	9960.81
646.363	9944.42
646.556	9878.89
646.749	9862.51
646.942	9829.74
647.135	9489.78
647.328	9504.11
647.521	9694.57
647.714	9295.22
647.907	9557.36
648.099	9588.08
648.292	9579.89
648.485	9309.55
648.678	9166.2
648.871	9315.7
649.064	8928.63
649.256	9246.07
649.449	8928.63
649.642	8881.53
649.835	9004.41
650.027	8938.87
650.22	8916.34
650.413	8799.61
650.605	8822.14
650.798	8785.27
650.991	8578.43
651.183	8703.36
651.376	8469.89
651.568	8568.19
651.761	8484.22
651.954	8703.36
652.146	8363.39
652.339	8207.75
652.531	8310.15
652.724	8398.21
652.916	8232.32
653.109	8310.15
653.301	7984.52
653.494	8334.72
653.686	7890.31
653.879	8277.38
654.071	8162.69
654.263	8015.24
654.456	8025.48
654.648	7875.98
654.84	7916.94
655.033	7798.15
655.225	7703.95
655.417	7804.3
655.61	7865.74
655.802	7587.21
655.994	7794.06
656.186	7615.88
656.379	7597.45
656.571	7421.33
656.763	7515.53
656.955	7441.81
657.148	7441.81
657.34	7515.53
657.532	7450
657.724	7200.15
657.916	7431.57
658.108	7404.94
658.3	7318.93
658.492	7314.83
658.684	7214.48
658.876	7161.23
659.068	6938.01
659.26	7021.97
659.452	7144.85
659.644	7103.89
659.836	7001.49
660.028	7095.7
660.22	6909.33
660.412	6909.33
660.604	6837.66
660.796	6880.66
660.988	6960.53
661.18	6798.74
661.372	6749.59
661.563	6768.02
661.755	6786.46
661.947	6794.65
662.139	6626.71
662.331	6692.25
662.522	6585.76
662.714	6458.78
662.906	6602.14
663.097	6514.08
663.289	6368.67
663.481	6413.73
663.673	6542.75
663.864	6473.12
664.056	6512.03
664.247	6383.01
664.439	6280.61
664.631	6466.97
664.822	6393.25
665.014	6444.45
665.205	6249.89
665.397	6073.76
665.588	6456.73
665.78	6466.97
665.971	6354.34
666.163	6301.09
666.354	6210.98
666.546	6172.07
666.737	6104.48
666.929	6202.79
667.12	6141.35
667.311	6196.64
667.503	6067.62
667.694	6137.25
667.885	6081.96
668.077	6102.43
668.268	6047.14
668.459	5979.56
668.651	5971.36
668.842	6106.53
669.033	6088.1
669.224	5934.5
669.416	6133.15
669.607	5967.27
669.798	6012.32
669.989	6114.72
670.18	6172.07
670.371	5891.49
670.563	5895.59
670.754	6045.09
670.945	6020.52
671.136	6000.04
671.327	6063.52
671.518	6167.97
671.709	5948.84
671.9	5948.84
672.091	5832.1
672.282	5914.02
672.473	6065.57
672.664	5948.84
672.855	5952.93
673.046	6006.18
673.237	5954.98
673.428	5975.46
673.619	6030.76
673.809	6000.04
674	6057.38
674.191	6043.04
674.382	5979.56
674.573	6018.47
674.764	5989.8
674.954	6129.06
675.145	5993.89
675.336	5965.22
675.527	5983.65
675.717	6231.46
675.908	5877.16
676.099	6196.64
676.289	6028.71
676.48	6067.62
676.671	6104.48
676.861	6178.21
677.052	6102.43
677.243	6253.98
677.433	5957.03
677.624	6270.37
677.814	6041
678.005	6286.75
678.195	6366.62
678.386	6378.91
678.576	6399.39
678.767	6282.66
678.957	6380.96
679.148	6323.62
679.338	6546.84
679.529	6421.92
679.719	6639
679.909	6618.52
680.1	6383.01
680.29	6710.68
680.481	6464.93
680.671	6452.64
680.861	6456.73
681.052	6514.08
681.242	6438.3
681.432	6528.41
681.622	6639
681.813	6489.5
682.003	6577.56
682.193	6659.48
682.383	6688.15
682.573	6727.07
682.764	6901.14
682.954	6684.06
683.144	6679.96
683.334	6675.87
683.524	6661.53
683.714	6753.69
683.904	6710.68
684.094	6682.01
684.284	6813.08
684.474	6798.74
684.664	6851.99
684.854	6841.75
685.044	6688.15
685.234	6745.5
685.424	6778.26
685.614	6786.46
685.804	6876.57
685.994	6761.88
686.184	6796.7
686.374	6802.84
686.564	6731.16
686.753	6821.27
686.943	6682.01
687.133	6665.63
687.323	6716.83
687.513	6692.25
687.702	6684.06
687.892	6587.8
688.082	6579.61
688.272	6696.35
688.461	6583.71
688.651	6466.97
688.841	6600.09
689.03	6573.47
689.22	6497.69
689.41	6571.42
689.599	6530.46
689.789	6487.45
689.979	6524.32
690.168	6337.95
690.358	6325.66
690.547	6331.81
690.737	6372.77
690.926	6350.24
691.116	6043.04
691.305	6423.97
691.495	6305.18
691.684	6335.9
691.874	6256.03
692.063	6204.83
692.252	6163.87
692.442	6292.9
692.631	6208.93
692.82	6098.34
693.01	6356.38
693.199	6210.98
693.388	6129.06
693.578	6049.19
693.767	6178.21
693.956	6176.16
694.146	6143.39
694.335	6163.87
694.524	6127.01
694.713	6192.55
694.902	6147.49
695.092	6196.64
695.281	6260.13
695.47	6251.94
695.659	6172.07
695.848	6094.24
696.037	6198.69
696.226	6327.71
696.415	6036.9
696.604	6098.34
696.793	6360.48
696.982	6223.27
697.171	6276.51
697.36	6122.91
697.549	6270.37
697.738	6249.89
697.927	6178.21
698.116	6403.49
698.305	6333.86
698.494	6294.94
698.683	6385.05
698.872	6696.35
699.061	6438.3
699.25	6503.84
699.438	6507.93
699.627	6319.52
699.816	6413.73
700.005	6548.89
700.193	6516.12
700.382	6495.64
700.571	6450.59
700.76	6727.07
700.948	6532.51
701.137	6540.7
701.326	6639
701.514	6587.8
701.703	6448.54
701.892	6612.38
702.08	6632.86
702.269	6587.8
702.457	6618.52
702.646	6653.34
702.834	6577.56
703.023	6692.25
703.212	6913.43
703.4	6567.32
703.589	6622.62
703.777	6647.19
703.965	6792.6
704.154	6847.9
704.342	6808.98
704.531	6677.91
704.719	6718.87
704.907	6823.32
705.096	6897.05
705.284	6915.48
705.472	6991.25
705.661	6856.09
705.849	6929.81
706.037	6938.01
706.226	6964.63
706.414	7103.89
706.602	6843.8
706.79	7046.55
706.979	6976.92
707.167	7214.48
707.355	6907.29
707.543	7095.7
707.731	7150.99
707.919	7085.46
708.107	7007.64
708.296	6962.58
708.484	6923.67
708.672	7067.03
708.86	7144.85
709.048	7177.62
709.236	7095.7
709.424	7308.69
709.612	7251.35
709.8	7171.47
709.988	7075.22
710.176	7181.71
710.364	7314.83
710.551	7327.12
710.739	7392.66
710.927	7245.2
711.115	7216.53
711.303	7335.31
711.491	7398.8
711.679	7191.95
711.866	7234.96
712.054	7480.72
712.242	7308.69
712.43	7587.21
712.617	7429.52
712.805	7476.62
712.993	7282.06
713.181	7304.59
713.368	7443.85
713.556	7564.68
713.744	7349.65
713.931	7462.29
714.119	7417.23
714.306	7374.22
714.494	7404.94
714.682	7388.56
714.869	7536.01
715.057	7495.05
715.244	7415.18
715.432	7695.75
715.619	7757.19
715.807	7587.21
715.994	7597.45
716.182	7783.82
716.369	7474.57
716.556	7675.27
716.744	7521.68
716.931	7564.68
717.119	7521.68
717.306	7646.6
717.493	7699.85
717.681	7746.95
717.868	7667.08
718.055	7679.37
718.242	7437.71
718.43	7669.13
718.617	7720.33
718.804	7703.95
718.991	7859.59
719.179	7902.6
719.366	7581.07
719.553	7781.77
719.74	7667.08
719.927	7728.52
720.114	7757.19
720.301	7693.71
720.488	7445.9
720.676	7691.66
720.863	7843.21
721.05	7777.67
721.237	7695.75
721.424	7605.64
721.611	7818.63
721.798	7783.82
721.985	7638.41
722.172	7744.91
722.358	7671.18
722.545	7802.25
722.732	7732.62
722.919	7802.25
723.106	7773.58
723.293	7792.01
723.48	7718.28
723.667	7708.04
723.853	7679.37
724.04	7865.74
724.227	7771.53
724.414	7732.62
724.6	7828.87
724.787	7839.11
724.974	7703.95
725.161	7726.47
725.347	7607.69
725.534	7753.1
725.72	7744.91
725.907	7726.47
726.094	7675.27
726.28	7650.7
726.467	7767.43
726.653	7712.14
726.84	7878.02
727.027	7785.87
727.213	7669.13
727.4	7904.65
727.586	7718.28
727.773	7675.27
727.959	7826.82
728.145	7871.88
728.332	7540.11
728.518	7687.56
728.705	7691.66
728.891	7855.5
729.077	7671.18
729.264	7800.2
729.45	7755.15
729.636	7783.82
729.823	7636.36
730.009	7775.63
730.195	7853.45
730.382	7749
730.568	7691.66
730.754	7730.57
730.94	7679.37
731.126	7814.54
731.313	7720.33
731.499	7597.45
731.685	7515.53
731.871	7693.71
732.057	7837.06
732.243	7679.37
732.429	7570.83
732.615	7693.71
732.801	7591.31
732.987	7644.56
733.173	7749
733.359	7644.56
733.545	7615.88
733.731	7660.94
733.917	7593.36
734.103	7652.75
734.289	7507.34
734.475	7517.58
734.661	7853.45
734.847	7767.43
735.033	7656.84
735.219	7630.22
735.404	7597.45
735.59	7656.84
735.776	7548.3
735.962	7562.64
736.148	7574.92
736.333	7439.76
736.519	7470.48
736.705	7536.01
736.89	7581.07
737.076	7536.01
737.262	7503.25
737.447	7601.55
737.633	7239.06
737.819	7503.25
738.004	7527.82
738.19	7337.36
738.375	7497.1
738.561	7523.73
738.747	7265.68
738.932	7261.59
739.118	7314.83
739.303	7335.31
739.489	7511.44
739.674	7298.45
739.859	7191.95
740.045	7294.35
740.23	7118.23
740.416	7294.35
740.601	7204.24
740.786	7103.89
740.972	7290.26
741.157	7175.57
741.342	7056.79
741.528	6917.53
741.713	7105.94
741.898	7153.04
742.084	6905.24
742.269	7032.21
742.454	6942.1
742.639	6872.47
742.824	6669.72
743.01	7019.92
743.195	7067.03
743.38	6786.46
743.565	6798.74
743.75	6712.73
743.935	6851.99
744.12	6794.65
744.305	6593.95
744.49	6628.76
744.675	6516.12
744.86	6552.99
745.045	6489.5
745.23	6573.47
745.415	6438.3
745.6	6393.25
745.785	6174.11
745.97	6276.51
746.155	6366.62
746.34	6299.04
746.525	6413.73
746.71	6311.33
746.895	6108.58
747.079	6210.98
747.264	6208.93
747.449	6233.5
747.634	5932.45
747.819	6106.53
748.003	5928.36
748.188	5875.11
748.373	5848.49
748.557	5836.2
748.742	5680.55
748.927	5729.7
749.111	5846.44
749.296	5639.59
749.481	5739.94
749.665	5506.48
749.85	5565.87
750.034	5649.83
750.219	5584.3
750.404	5475.76
750.588	5320.11
750.773	5326.25
750.957	5344.69
751.141	5277.1
751.326	5260.72
751.51	5205.42
751.695	5250.48
751.879	5168.56
752.064	5164.47
752.248	5074.35
752.432	5006.77
752.617	5017.01
752.801	5078.45
752.985	4836.79
753.17	4818.36
753.354	4857.27
753.538	4820.41
753.722	4662.71
753.907	4746.68
754.091	4586.94
754.275	4640.19
754.459	4744.63
754.643	4611.51
754.828	4627.9
755.012	4550.07
755.196	4453.82
755.38	4494.78
755.564	4376
755.748	4349.37
755.932	4378.05
756.116	4386.24
756.3	4316.61
756.484	4316.61
756.668	4298.17
756.852	4113.86
757.036	4206.02
757.22	4138.43
757.404	4083.14
757.588	4187.58
757.772	4107.71
757.956	4058.56
758.14	3966.4
758.323	3947.97
758.507	3960.26
758.691	3870.15
758.875	3913.16
759.059	3919.3
759.242	3853.77
759.426	3761.61
759.61	3876.29
759.794	3755.46
759.977	3796.42
760.161	3710.41
760.345	3755.46
760.528	3751.37
760.712	3620.3
760.895	3620.3
761.079	3538.38
761.263	3460.56
761.446	3489.23
761.63	3454.41
761.813	3612.1
761.997	3446.22
762.18	3356.11
762.364	3454.41
762.547	3272.14
762.731	3354.06
762.914	3374.54
763.098	3300.81
763.281	3280.33
763.464	3370.44
763.648	3286.48
763.831	3345.87
764.015	3182.03
764.198	3270.09
764.381	3216.85
764.564	3122.64
764.748	3245.52
764.931	3130.83
765.114	3075.54
765.297	3065.3
765.481	3055.06
765.664	3116.5
765.847	3165.65
766.03	3001.81
766.213	3016.15
766.397	3034.58
766.58	2934.23
766.763	2981.33
766.946	3014.1
767.129	2913.75
767.312	3001.81
767.495	2962.9
767.678	2895.32
767.861	2815.45
768.044	2778.58
768.227	2831.83
768.41	2780.63
768.593	2923.99
768.776	2758.1
768.959	2799.06
769.142	2842.07
769.324	2764.25
769.507	2659.8
769.69	2612.7
769.873	2672.09
770.056	2711
770.239	2649.56
770.421	2622.94
770.604	2555.35
770.787	2618.84
770.97	2506.2
771.152	2428.38
771.335	2647.51
771.518	2526.68
771.7	2674.14
771.883	2528.73
772.066	2549.21
772.248	2428.38
772.431	2487.77
772.613	2379.23
772.796	2477.53
772.978	2397.66
773.161	2579.93
773.343	2280.93
773.526	2375.13
773.708	2321.88
773.891	2280.93
774.073	2297.31
774.256	2244.06
774.438	2356.7
774.621	2221.53
774.803	2319.84
774.985	2225.63
775.168	2280.93
775.35	2156
775.532	2231.77
775.715	2213.34
775.897	2186.72
776.079	2096.61
776.261	2131.42
776.444	2244.06
776.626	2035.17
776.808	2090.46
776.99	2067.94
777.173	2057.7
777.355	2010.59
777.537	2022.88
777.719	1875.43
777.901	1943.01
778.083	1934.82
778.265	1926.63
778.447	1928.67
778.629	1983.97
778.811	1897.96
778.993	1877.48
779.175	1871.33
779.357	1838.56
779.539	1764.84
779.721	1822.18
779.903	1734.12
780.085	1742.31
780.267	1732.07
780.449	1826.28
780.631	1727.97
780.812	1674.73
780.994	1674.73
781.176	1760.74
781.358	1701.35
781.54	1658.34
781.721	1695.21
781.903	1695.21
782.085	1658.34
782.267	1633.77
782.448	1471.98
782.63	1633.77
782.812	1601
782.993	1529.32
783.175	1514.98
783.357	1453.55
783.538	1547.75
783.72	1525.22
783.901	1486.31
784.083	1428.97
784.264	1396.2
784.446	1394.15
784.627	1342.96
784.809	1433.07
784.99	1326.57
785.172	1347.05
785.353	1377.77
785.535	1302
785.716	1310.19
785.897	1318.38
786.079	1408.49
786.26	1312.24
786.441	1254.89
786.623	1207.79
786.804	1322.48
786.985	1256.94
787.167	1215.98
787.348	1240.56
787.529	1224.17
787.71	1215.98
787.891	1205.74
788.073	1117.68
788.254	1132.01
788.435	1195.5
788.616	1252.84
788.797	1068.53
788.978	1156.59
789.159	1095.15
789.34	1109.49
789.522	1125.87
789.703	1089.01
789.884	1156.59
790.065	1023.47
790.246	1187.31
790.427	1101.3
790.607	1125.87
790.788	1070.58
790.969	962.03
791.15	1132.01
791.331	1054.19
791.512	974.32
791.693	900.59
791.874	927.22
792.054	1068.53
792.235	984.56
792.416	896.5
792.597	935.41
792.778	927.22
792.958	1086.96
793.139	1007.09
793.32	1005.04
793.5	978.42
793.681	916.98
793.862	935.41
794.042	906.74
794.223	908.79
794.404	912.88
794.584	904.69
794.765	869.87
794.945	935.41
795.126	861.68
795.306	1011.18
795.487	853.49
795.667	781.81
795.848	863.73
796.028	804.34
796.209	951.79
796.389	802.29
796.57	855.54
796.75	785.91
796.93	902.64
797.111	843.25
797.291	773.62
797.471	886.26
797.652	853.49
797.832	820.72
798.012	779.76
798.192	736.76
798.373	730.61
798.553	765.43
798.733	732.66
798.913	781.81
799.093	779.76
799.274	769.52
799.454	699.89
799.634	833.01
799.814	730.61
799.994	708.09
800.174	738.8
800.354	781.81
800.534	699.89
800.714	646.65
800.894	673.27
801.074	716.28
801.254	720.37
801.434	675.32
801.614	689.65
801.794	665.08
801.974	1471.98
802.154	691.7
802.334	656.89
802.514	683.51
802.693	691.7
802.873	638.45
803.053	724.47
803.233	695.8
803.413	585.21
803.592	691.7
803.772	595.45
803.952	654.84
804.131	611.83
804.311	615.93
804.491	644.6
804.67	628.21
804.85	624.12
805.03	638.45
805.209	642.55
805.389	609.78
805.568	491
805.748	622.07
805.928	552.44
806.107	695.8
806.287	517.62
806.466	593.4
806.646	581.11
806.825	601.59
807.004	564.73
807.184	648.69
807.363	642.55
807.543	583.16
807.722	548.34
807.901	564.73
808.081	581.11
808.26	493.05
808.439	550.39
808.619	601.59
808.798	683.51
808.977	495.1
809.156	501.24
809.336	497.14
809.515	620.02
809.694	548.34
809.873	540.15
810.052	503.29
810.231	599.54
810.411	560.63
810.59	531.96
810.769	523.77
810.948	523.77
811.127	509.43
811.306	486.9
811.485	431.61
811.664	611.83
811.843	462.33
812.022	482.81
812.201	388.6
812.38	478.71
812.559	396.79
812.737	511.48
812.916	495.1
813.095	462.33
813.274	458.23
813.453	378.36
813.632	443.9
813.811	564.73
813.989	460.28
814.168	439.8
814.347	396.79
814.526	409.08
814.704	493.05
814.883	505.34
815.062	394.75
815.24	413.18
815.419	396.79
815.598	380.41
815.776	376.31
815.955	378.36
816.133	417.27
816.312	380.41
816.49	452.09
816.669	394.75
816.847	435.71
817.026	476.66
817.204	433.66
817.383	404.99
817.561	398.84
817.74	460.28
817.918	429.56
818.097	404.99
818.275	386.55
818.453	417.27
818.632	386.55
818.81	404.99
818.988	329.21
819.167	327.16
819.345	437.75
819.523	445.95
819.701	335.35
819.879	388.6
820.058	404.99
820.236	388.6
820.414	372.22
820.592	392.7
820.77	294.4
820.948	298.49
821.127	349.69
821.305	323.07
821.483	357.88
821.661	312.83
821.839	427.51
822.017	310.78
822.195	341.5
822.373	380.41
822.551	302.59
822.729	298.49
822.907	282.11
823.085	323.07
823.262	339.45
823.44	312.83
823.618	273.92
823.796	290.3
823.974	339.45
824.152	370.17
824.329	316.92
824.507	386.55
824.685	300.54
824.863	321.02
825.04	364.03
825.218	314.88
825.396	259.58
825.574	372.22
825.751	321.02
825.929	306.68
826.107	271.87
826.284	288.25
826.462	288.25
826.639	294.4
826.817	294.4
826.994	329.21
827.172	327.16
827.349	273.92
827.527	312.83
827.704	267.77
827.882	351.74
828.059	255.48
828.237	251.39
828.414	292.35
828.591	214.52
828.769	249.34
828.946	232.96
829.124	263.68
829.301	243.2
829.478	284.16
829.655	329.21
829.833	382.46
830.01	216.57
830.187	302.59
830.364	314.88
830.542	339.45
830.719	300.54
830.896	294.4
831.073	232.96
831.25	325.12
831.427	292.35
831.604	167.42
831.782	265.72
831.959	265.72
832.136	167.42
832.313	280.06
832.49	263.68
832.667	278.01
832.844	216.57
833.021	278.01
833.198	327.16
833.374	200.19
833.551	243.2
833.728	151.04
833.905	230.91
834.082	142.85
834.259	228.86
834.436	300.54
834.612	153.09
834.789	216.57
834.966	286.2
835.143	230.91
835.319	105.98
835.496	278.01
835.673	292.35
835.85	251.39
836.026	269.82
836.203	202.24
836.38	245.24
836.556	308.73
836.733	204.28
836.909	230.91
837.086	232.96
837.262	204.28
837.439	181.76
837.616	208.38
837.792	224.76
837.968	265.72
838.145	163.33
838.321	179.71
838.498	167.42
838.674	218.62
838.851	204.28
839.027	167.42
839.203	253.44
839.38	267.77
839.556	148.99
839.732	173.57
839.909	175.61
840.085	220.67
840.261	167.42
840.437	124.41
840.614	155.13
840.79	161.28
840.966	148.99
841.142	187.9
841.318	183.81
841.494	189.95
841.671	161.28
841.847	108.03
842.023	167.42
842.199	173.57
842.375	247.29
842.551	97.79
842.727	36.35
842.903	230.91
843.079	75.26
843.255	200.19
843.431	204.28
843.607	167.42
843.783	122.37
843.959	142.85
844.134	132.61
844.31	175.61
844.486	194.05
844.662	95.74
844.838	110.08
845.013	208.38
845.189	167.42
845.365	110.08
845.541	175.61
845.716	151.04
845.892	132.61
846.068	177.66
846.244	114.17
846.419	62.98
846.595	151.04
846.77	175.61
846.946	212.48
847.122	118.27
847.297	126.46
847.473	173.57
847.648	101.89
847.824	171.52
847.999	75.26
848.175	126.46
848.35	183.81
848.526	138.75
848.701	146.94
848.876	151.04
849.052	118.27
849.227	167.42
849.403	130.56
849.578	179.71
849.753	136.7
849.929	146.94
850.104	85.5
850.279	157.18
850.454	157.18
850.63	126.46
850.805	108.03
850.98	97.79
851.155	235
851.33	126.46
851.505	108.03
851.681	151.04
851.856	89.6
852.031	108.03
852.206	97.79
852.381	50.69
852.556	110.08
852.731	171.52
852.906	132.61
853.081	146.94
853.256	69.12
853.431	112.13
853.606	153.09
853.781	87.55
853.956	69.12
854.131	220.67
854.305	97.79
854.48	75.26
854.655	62.98
854.83	134.65
855.005	38.4
855.18	151.04
855.354	134.65
855.529	120.32
855.704	177.66
855.879	83.45
856.053	118.27
856.228	97.79
856.403	24.06
856.577	89.6
856.752	58.88
856.926	50.69
857.101	89.6
857.276	65.02
857.45	105.98
857.625	126.46
857.799	93.69
857.974	132.61
858.148	-10.75
858.323	73.21
858.497	32.26
858.672	75.26
858.846	42.5
859.02	83.45
859.195	69.12
859.369	103.93
859.543	79.36
859.718	99.84
859.892	93.69
860.066	69.12
860.241	105.98
860.415	83.45
860.589	69.12
860.763	138.75
860.938	89.6
861.112	60.93
861.286	-4.61
861.46	83.45
861.634	24.06
861.808	89.6
861.982	9.73
862.157	9.73
862.331	75.26
862.505	9.73
862.679	110.08
862.853	40.45
863.027	50.69
863.201	105.98
863.375	-4.61
863.549	142.85
863.722	71.17
863.896	73.21
864.07	13.82
864.244	91.65
864.418	105.98
864.592	52.74
864.766	48.64
864.939	87.55
865.113	81.41
865.287	1.54
865.461	71.17
865.634	50.69
865.808	67.07
865.982	11.78
866.156	108.03
866.329	-16.9
866.503	67.07
866.676	50.69
866.85	77.31
867.024	9.73
867.197	48.64
867.371	99.84
867.544	79.36
867.718	9.73
867.891	118.27
868.065	5.63
868.238	79.36
868.412	91.65
868.585	34.3
868.759	-12.8
868.932	148.99
869.105	97.79
869.279	103.93
869.452	50.69
869.625	101.89
869.799	73.21
869.972	-29.18
870.145	77.31
870.319	54.78
870.492	44.54
870.665	11.78
870.838	-39.42
871.011	-61.95
871.185	95.74
871.358	42.5
871.531	40.45
871.704	13.82
871.877	101.89
872.05	-4.61
872.223	-6.66
872.396	50.69
872.569	17.92
872.742	146.94
872.915	56.83
873.088	56.83
873.261	-33.28
873.434	155.13
873.607	9.73
873.78	-0.51
873.953	11.78
874.126	62.98
874.299	69.12
874.471	38.4
874.644	134.65
874.817	19.97
874.99	52.74
875.163	69.12
875.335	108.03
875.508	54.78
875.681	155.13
875.853	15.87
876.026	101.89
876.199	116.22
876.371	-4.61
876.544	36.35
876.717	26.11
876.889	-8.7
877.062	-25.09
877.234	-20.99
877.407	24.06
877.579	48.64
877.752	15.87
877.924	36.35
878.097	56.83
878.269	36.35
878.442	95.74
878.614	44.54
878.786	-12.8
878.959	75.26
879.131	36.35
879.303	-43.52
879.476	87.55
879.648	77.31
879.82	69.12
879.993	17.92
880.165	44.54
880.337	58.88
880.509	77.31
880.681	7.68
880.854	52.74
881.026	58.88
881.198	79.36
881.37	26.11
881.542	24.06
881.714	101.89
881.886	60.93
882.058	19.97
882.23	11.78
882.402	44.54
882.574	-8.7
882.746	52.74
882.918	56.83
883.09	97.79
883.262	42.5
883.434	36.35
883.606	9.73
883.778	26.11
883.95	153.09
884.122	-4.61
884.293	9.73
884.465	42.5
884.637	73.21
884.809	62.98
884.98	7.68
885.152	85.5
885.324	52.74
885.496	5.63
885.667	48.64
885.839	46.59
886.011	85.5
886.182	48.64
886.354	56.83
886.525	50.69
886.697	110.08
886.869	60.93
887.04	50.69
887.212	-2.56
887.383	103.93
887.555	138.75
887.726	56.83
887.897	32.26
888.069	81.41
888.24	83.45
888.412	30.21
888.583	-8.7
888.754	101.89
888.926	-39.42
889.097	-12.8
889.268	-0.51
889.44	19.97
889.611	-6.66
889.782	50.69
889.953	5.63
890.125	40.45
890.296	60.93
890.467	22.02
890.638	11.78
890.809	81.41
890.98	24.06
891.151	44.54
891.323	36.35
891.494	65.02
891.665	85.5
891.836	77.31
892.007	58.88
892.178	54.78
892.349	28.16
892.52	52.74
892.691	-39.42
892.862	13.82
893.032	-14.85
893.203	-33.28
893.374	67.07
893.545	26.11
893.716	-16.9
893.887	40.45
894.057	-51.71
894.228	77.31
894.399	52.74
894.57	81.41
894.74	11.78
894.911	58.88
895.082	17.92
895.253	52.74
895.423	-4.61
895.594	46.59
895.764	34.3
895.935	60.93
896.106	-94.72
896.276	56.83
896.447	60.93
896.617	1.54
896.788	-49.66
896.958	11.78
897.129	105.98
897.299	22.02
897.47	1.54
897.64	11.78
897.81	101.89
897.981	116.22
898.151	-33.28
898.322	67.07
898.492	52.74
898.662	32.26
898.832	-23.04
899.003	15.87
899.173	36.35
899.343	-4.61
899.513	3.58
