Data from USB4F104151__69__11-31-05-458.txt Node

Date: Fri Mar 14 11:31:05 EDT 2025
User: louis
Spectrometer: USB4F10415
Trigger mode: 4
Integration Time (sec): 5.000000E-2
Scans to average: 1
Electric dark correction enabled: true
Nonlinearity correction enabled: false
Boxcar width: 0
XAxis mode: Wavelengths
Number of Pixels in Spectrum: 3648
>>>>>Begin Spectral Data<<<<<
178.204	-131.75
178.424	-131.75
178.644	-131.75
178.864	-182.95
179.084	-127.66
179.304	56.66
179.524	-25.26
179.744	-35.5
179.964	-47.79
180.184	54.61
180.404	34.13
180.624	-62.12
180.844	11.61
181.064	25.94
181.283	7.51
181.503	-47.79
181.723	27.99
181.943	-86.7
182.163	109.91
182.383	9.56
182.602	58.71
182.822	-4.78
183.042	11.61
183.262	-41.64
183.482	38.23
183.701	11.61
183.921	48.47
184.141	-55.98
184.361	56.66
184.58	60.76
184.8	48.47
185.02	3.41
185.239	56.66
185.459	19.8
185.679	32.08
185.898	-62.12
186.118	130.39
186.338	27.99
186.557	19.8
186.777	-47.79
186.997	-0.68
187.216	21.84
187.436	-12.97
187.655	44.37
187.875	42.32
188.095	7.51
188.314	52.56
188.534	23.89
188.753	27.99
188.973	19.8
189.192	36.18
189.412	64.85
189.631	11.61
189.851	19.8
190.07	11.61
190.29	-86.7
190.509	15.7
190.729	-10.92
190.948	3.41
191.168	132.44
191.387	-4.78
191.607	7.51
191.826	-21.16
192.045	17.75
192.265	3.41
192.484	27.99
192.704	19.8
192.923	-53.93
193.142	71
193.362	73.04
193.581	93.52
193.8	36.18
194.02	134.48
194.239	34.13
194.458	-12.97
194.678	15.7
194.897	-8.87
195.116	-12.97
195.335	-21.16
195.555	23.89
195.774	-4.78
195.993	30.04
196.212	11.61
196.432	44.37
196.651	-17.07
196.87	40.28
197.089	77.14
197.308	73.04
197.528	73.04
197.747	-78.51
197.966	-19.11
198.185	19.8
198.404	7.51
198.623	17.75
198.842	3.41
199.062	93.52
199.281	83.28
199.5	-6.83
199.719	9.56
199.938	126.29
200.157	60.76
200.376	34.13
200.595	36.18
200.814	-55.98
201.033	-4.78
201.252	23.89
201.471	9.56
201.69	40.28
201.909	-62.12
202.128	97.62
202.347	140.63
202.566	-43.69
202.785	19.8
203.004	-45.74
203.223	87.38
203.442	-31.4
203.661	-12.97
203.879	-4.78
204.098	56.66
204.317	-66.22
204.536	48.47
204.755	7.51
204.974	52.56
205.193	19.8
205.411	64.85
205.63	66.9
205.849	-4.78
206.068	60.76
206.287	-15.02
206.505	34.13
206.724	89.43
206.943	-0.68
207.162	19.8
207.381	30.04
207.599	-17.07
207.818	68.95
208.037	56.66
208.255	5.46
208.474	11.61
208.693	107.86
208.911	48.47
209.13	60.76
209.349	-25.26
209.567	23.89
209.786	85.33
210.005	48.47
210.223	44.37
210.442	-49.83
210.661	68.95
210.879	-21.16
211.098	-10.92
211.316	11.61
211.535	46.42
211.753	19.8
211.972	25.94
212.191	66.9
212.409	9.56
212.628	-55.98
212.846	-49.83
213.065	-19.11
213.283	48.47
213.502	-62.12
213.72	42.32
213.938	9.56
214.157	32.08
214.375	40.28
214.594	52.56
214.812	27.99
215.031	19.8
215.249	-25.26
215.467	36.18
215.686	15.7
215.904	77.14
216.122	13.65
216.341	32.08
216.559	25.94
216.778	73.04
216.996	11.61
217.214	-6.83
217.432	-62.12
217.651	-37.55
217.869	-72.36
218.087	25.94
218.306	36.18
218.524	25.94
218.742	42.32
218.96	58.71
219.179	89.43
219.397	36.18
219.615	52.56
219.833	42.32
220.051	11.61
220.27	19.8
220.488	52.56
220.706	21.84
220.924	50.52
221.142	-39.59
221.36	-4.78
221.578	-31.4
221.796	-33.45
222.015	17.75
222.233	42.32
222.451	85.33
222.669	-8.87
222.887	77.14
223.105	-25.26
223.323	-4.78
223.541	-17.07
223.759	64.85
223.977	-21.16
224.195	124.24
224.413	48.47
224.631	-37.55
224.849	44.37
225.067	11.61
225.285	7.51
225.503	7.51
225.721	11.61
225.939	1.37
226.157	66.9
226.375	175.44
226.592	-15.02
226.81	-10.92
227.028	56.66
227.246	27.99
227.464	23.89
227.682	3.41
227.9	91.48
228.117	9.56
228.335	73.04
228.553	13.65
228.771	7.51
228.989	15.7
229.206	40.28
229.424	-58.03
229.642	-43.69
229.86	-51.88
230.077	17.75
230.295	40.28
230.513	62.8
230.731	27.99
230.948	105.81
231.166	83.28
231.384	-8.87
231.601	-6.83
231.819	101.72
232.037	64.85
232.254	-27.31
232.472	-31.4
232.689	-4.78
232.907	27.99
233.125	7.51
233.342	-0.68
233.56	-12.97
233.777	27.99
233.995	27.99
234.213	52.56
234.43	56.66
234.648	13.65
234.865	-101.03
235.083	34.13
235.3	-21.16
235.518	-23.21
235.735	68.95
235.953	25.94
236.17	-17.07
236.388	-12.97
236.605	11.61
236.822	36.18
237.04	-21.16
237.257	60.76
237.475	-84.65
237.692	79.19
237.909	40.28
238.127	79.19
238.344	42.32
238.562	77.14
238.779	-8.87
238.996	32.08
239.214	-23.21
239.431	32.08
239.648	15.7
239.865	97.62
240.083	58.71
240.3	11.61
240.517	-4.78
240.735	-17.07
240.952	93.52
241.169	77.14
241.386	-4.78
241.603	-12.97
241.821	15.7
242.038	48.47
242.255	19.8
242.472	-21.16
242.689	46.42
242.907	66.9
243.124	-21.16
243.341	30.04
243.558	-12.97
243.775	9.56
243.992	-80.55
244.209	38.23
244.426	75.09
244.643	38.23
244.86	-43.69
245.078	-12.97
245.295	81.24
245.512	1.37
245.729	-35.5
245.946	27.99
246.163	34.13
246.38	-0.68
246.597	13.65
246.814	23.89
247.031	48.47
247.248	40.28
247.464	11.61
247.681	60.76
247.898	64.85
248.115	36.18
248.332	34.13
248.549	60.76
248.766	60.76
248.983	77.14
249.2	23.89
249.417	30.04
249.633	-45.74
249.85	17.75
250.067	27.99
250.284	-12.97
250.501	-51.88
250.717	44.37
250.934	-29.35
251.151	5.46
251.368	36.18
251.585	50.52
251.801	-33.45
252.018	23.89
252.235	93.52
252.451	-17.07
252.668	25.94
252.885	23.89
253.102	54.61
253.318	54.61
253.535	-37.55
253.752	-45.74
253.968	-33.45
254.185	3.41
254.401	44.37
254.618	97.62
254.835	-39.59
255.051	23.89
255.268	71
255.484	48.47
255.701	-2.73
255.917	-0.68
256.134	-17.07
256.351	73.04
256.567	27.99
256.784	-0.68
257	-47.79
257.217	36.18
257.433	48.47
257.65	66.9
257.866	23.89
258.082	-12.97
258.299	-21.16
258.515	52.56
258.732	-4.78
258.948	-55.98
259.165	54.61
259.381	-41.64
259.597	36.18
259.814	-4.78
260.03	1.37
260.246	111.96
260.463	40.28
260.679	-25.26
260.895	7.51
261.112	5.46
261.328	15.7
261.544	-25.26
261.761	163.15
261.977	25.94
262.193	36.18
262.409	15.7
262.626	-8.87
262.842	56.66
263.058	-4.78
263.274	-23.21
263.49	23.89
263.707	23.89
263.923	27.99
264.139	19.8
264.355	79.19
264.571	42.32
264.787	9.56
265.004	89.43
265.22	118.1
265.436	-8.87
265.652	44.37
265.868	44.37
266.084	25.94
266.3	36.18
266.516	-33.45
266.732	-8.87
266.948	48.47
267.164	-47.79
267.38	75.09
267.596	25.94
267.812	44.37
268.028	7.51
268.244	-53.93
268.46	-0.68
268.676	9.56
268.892	36.18
269.108	23.89
269.324	-4.78
269.54	-12.97
269.756	42.32
269.972	-41.64
270.188	19.8
270.403	91.48
270.619	-45.74
270.835	44.37
271.051	27.99
271.267	-35.5
271.483	42.32
271.698	-31.4
271.914	11.61
272.13	36.18
272.346	-0.68
272.562	-4.78
272.777	93.52
272.993	-17.07
273.209	-33.45
273.425	27.99
273.64	34.13
273.856	85.33
274.072	5.46
274.287	11.61
274.503	25.94
274.719	-31.4
274.934	42.32
275.15	-72.36
275.366	25.94
275.581	9.56
275.797	34.13
276.012	7.51
276.228	-29.35
276.444	3.41
276.659	-23.21
276.875	-41.64
277.09	58.71
277.306	36.18
277.521	23.89
277.737	27.99
277.952	81.24
278.168	-8.87
278.383	25.94
278.599	-37.55
278.814	-29.35
279.03	60.76
279.245	60.76
279.461	9.56
279.676	73.04
279.892	-27.31
280.107	30.04
280.322	-35.5
280.538	34.13
280.753	-43.69
280.969	81.24
281.184	-4.78
281.399	64.85
281.615	3.41
281.83	-17.07
282.045	-45.74
282.26	-80.55
282.476	56.66
282.691	36.18
282.906	27.99
283.122	30.04
283.337	-55.98
283.552	36.18
283.767	25.94
283.983	109.91
284.198	-21.16
284.413	7.51
284.628	-8.87
284.843	36.18
285.058	66.9
285.274	91.48
285.489	-15.02
285.704	68.95
285.919	19.8
286.134	9.56
286.349	48.47
286.564	-64.17
286.779	44.37
286.995	11.61
287.21	-78.51
287.425	25.94
287.64	1.37
287.855	5.46
288.07	-37.55
288.285	-17.07
288.5	60.76
288.715	66.9
288.93	-29.35
289.145	62.8
289.36	85.33
289.575	19.8
289.79	30.04
290.004	30.04
290.219	-15.02
290.434	-2.73
290.649	50.52
290.864	3.41
291.079	34.13
291.294	32.08
291.509	-2.73
291.724	-17.07
291.938	32.08
292.153	73.04
292.368	-21.16
292.583	66.9
292.798	44.37
293.012	40.28
293.227	44.37
293.442	34.13
293.657	75.09
293.871	36.18
294.086	-60.07
294.301	15.7
294.516	85.33
294.73	48.47
294.945	17.75
295.16	-74.41
295.374	93.52
295.589	60.76
295.804	58.71
296.018	111.96
296.233	101.72
296.447	-51.88
296.662	-58.03
296.877	50.52
297.091	17.75
297.306	97.62
297.52	-29.35
297.735	32.08
297.949	93.52
298.164	99.67
298.378	-25.26
298.593	-49.83
298.807	-37.55
299.022	68.95
299.236	34.13
299.451	-27.31
299.665	-35.5
299.88	-41.64
300.094	-29.35
300.309	42.32
300.523	30.04
300.737	7.51
300.952	36.18
301.166	-80.55
301.381	68.95
301.595	-47.79
301.809	48.47
302.024	40.28
302.238	5.46
302.452	5.46
302.667	-12.97
302.881	50.52
303.095	23.89
303.309	116.05
303.524	1.37
303.738	7.51
303.952	21.84
304.166	17.75
304.381	36.18
304.595	17.75
304.809	-0.68
305.023	23.89
305.237	-6.83
305.452	44.37
305.666	17.75
305.88	64.85
306.094	50.52
306.308	58.71
306.522	11.61
306.736	89.43
306.95	48.47
307.164	7.51
307.379	-17.07
307.593	77.14
307.807	-8.87
308.021	7.51
308.235	36.18
308.449	21.84
308.663	-21.16
308.877	77.14
309.091	71
309.305	19.8
309.519	11.61
309.733	62.8
309.947	-41.64
310.161	85.33
310.374	77.14
310.588	101.72
310.802	91.48
311.016	66.9
311.23	52.56
311.444	-37.55
311.658	85.33
311.872	27.99
312.085	-8.87
312.299	89.43
312.513	66.9
312.727	7.51
312.941	38.23
313.154	-0.68
313.368	38.23
313.582	-39.59
313.796	5.46
314.009	36.18
314.223	66.9
314.437	19.8
314.651	27.99
314.864	17.75
315.078	-29.35
315.292	-23.21
315.505	-47.79
315.719	9.56
315.933	52.56
316.146	11.61
316.36	-49.83
316.573	111.96
316.787	17.75
317.001	62.8
317.214	44.37
317.428	-94.89
317.641	21.84
317.855	-35.5
318.068	-0.68
318.282	-10.92
318.495	77.14
318.709	60.76
318.922	93.52
319.136	81.24
319.349	122.2
319.563	-45.74
319.776	46.42
319.99	-4.78
320.203	34.13
320.417	5.46
320.63	50.52
320.843	68.95
321.057	46.42
321.27	77.14
321.483	-21.16
321.697	118.1
321.91	56.66
322.124	81.24
322.337	-29.35
322.55	7.51
322.763	68.95
322.977	36.18
323.19	19.8
323.403	-23.21
323.617	34.13
323.83	23.89
324.043	48.47
324.256	-2.73
324.469	-49.83
324.683	50.52
324.896	3.41
325.109	23.89
325.322	-29.35
325.535	87.38
325.748	73.04
325.962	17.75
326.175	17.75
326.388	58.71
326.601	114
326.814	-0.68
327.027	3.41
327.24	40.28
327.453	-15.02
327.666	-15.02
327.879	68.95
328.092	68.95
328.305	-27.31
328.518	23.89
328.731	68.95
328.944	11.61
329.157	-21.16
329.37	34.13
329.583	60.76
329.796	52.56
330.009	-10.92
330.222	-0.68
330.435	-19.11
330.648	-27.31
330.861	-39.59
331.073	-49.83
331.286	11.61
331.499	36.18
331.712	-35.5
331.925	68.95
332.138	1.37
332.35	101.72
332.563	-29.35
332.776	-21.16
332.989	44.37
333.202	13.65
333.414	-4.78
333.627	27.99
333.84	25.94
334.053	68.95
334.265	19.8
334.478	-37.55
334.691	-2.73
334.903	11.61
335.116	40.28
335.329	-15.02
335.541	83.28
335.754	50.52
335.966	25.94
336.179	-8.87
336.392	3.41
336.604	68.95
336.817	44.37
337.029	3.41
337.242	1.37
337.454	52.56
337.667	44.37
337.88	3.41
338.092	50.52
338.305	40.28
338.517	-15.02
338.729	23.89
338.942	11.61
339.154	-66.22
339.367	-45.74
339.579	11.61
339.792	-0.68
340.004	60.76
340.217	58.71
340.429	73.04
340.641	21.84
340.854	1.37
341.066	19.8
341.278	71
341.491	36.18
341.703	-45.74
341.915	25.94
342.128	105.81
342.34	56.66
342.552	-45.74
342.764	21.84
342.977	-0.68
343.189	21.84
343.401	1.37
343.613	13.65
343.826	3.41
344.038	9.56
344.25	1.37
344.462	-8.87
344.674	9.56
344.886	79.19
345.099	-8.87
345.311	91.48
345.523	56.66
345.735	-55.98
345.947	-12.97
346.159	54.61
346.371	36.18
346.583	-19.11
346.795	114
347.007	15.7
347.219	73.04
347.431	1.37
347.643	95.57
347.855	44.37
348.067	25.94
348.279	-25.26
348.491	-39.59
348.703	9.56
348.915	-8.87
349.127	-45.74
349.339	87.38
349.551	23.89
349.763	60.76
349.975	30.04
350.187	48.47
350.399	73.04
350.61	105.81
350.822	1.37
351.034	27.99
351.246	40.28
351.458	36.18
351.669	62.8
351.881	93.52
352.093	85.33
352.305	46.42
352.517	89.43
352.728	144.72
352.94	64.85
353.152	23.89
353.363	3.41
353.575	52.56
353.787	138.58
353.999	58.71
354.21	91.48
354.422	48.47
354.633	-12.97
354.845	-43.69
355.057	-4.78
355.268	32.08
355.48	7.51
355.692	32.08
355.903	36.18
356.115	89.43
356.326	-12.97
356.538	42.32
356.749	60.76
356.961	23.89
357.172	56.66
357.384	-15.02
357.595	77.14
357.807	52.56
358.018	-23.21
358.23	15.7
358.441	107.86
358.653	134.48
358.864	75.09
359.075	23.89
359.287	-6.83
359.498	21.84
359.709	107.86
359.921	23.89
360.132	99.67
360.344	25.94
360.555	-0.68
360.766	62.8
360.977	46.42
361.189	19.8
361.4	-23.21
361.611	85.33
361.823	66.9
362.034	27.99
362.245	68.95
362.456	-23.21
362.667	91.48
362.879	71
363.09	9.56
363.301	-25.26
363.512	73.04
363.723	-39.59
363.935	19.8
364.146	54.61
364.357	52.56
364.568	44.37
364.779	-58.03
364.99	73.04
365.201	-45.74
365.412	83.28
365.623	-15.02
365.834	-31.4
366.045	25.94
366.256	36.18
366.467	77.14
366.678	34.13
366.889	89.43
367.1	-37.55
367.311	48.47
367.522	19.8
367.733	66.9
367.944	44.37
368.155	52.56
368.366	-8.87
368.577	85.33
368.788	48.47
368.999	13.65
369.209	109.91
369.42	89.43
369.631	126.29
369.842	48.47
370.053	19.8
370.264	111.96
370.474	58.71
370.685	46.42
370.896	3.41
371.107	62.8
371.317	9.56
371.528	62.8
371.739	99.67
371.95	44.37
372.16	101.72
372.371	19.8
372.582	75.09
372.792	36.18
373.003	1.37
373.214	15.7
373.424	-21.16
373.635	-33.45
373.846	77.14
374.056	25.94
374.267	36.18
374.477	38.23
374.688	-29.35
374.898	-4.78
375.109	-23.21
375.319	62.8
375.53	68.95
375.74	48.47
375.951	17.75
376.161	71
376.372	93.52
376.582	-31.4
376.793	68.95
377.003	21.84
377.214	3.41
377.424	34.13
377.635	3.41
377.845	32.08
378.055	-0.68
378.266	-8.87
378.476	9.56
378.686	56.66
378.897	-29.35
379.107	58.71
379.317	66.9
379.528	107.86
379.738	25.94
379.948	-2.73
380.158	56.66
380.369	-66.22
380.579	93.52
380.789	-17.07
380.999	109.91
381.21	116.05
381.42	68.95
381.63	34.13
381.84	44.37
382.05	-31.4
382.261	36.18
382.471	3.41
382.681	13.65
382.891	71
383.101	93.52
383.311	17.75
383.521	11.61
383.731	99.67
383.941	30.04
384.151	-25.26
384.361	13.65
384.571	36.18
384.781	7.51
384.991	126.29
385.201	107.86
385.411	101.72
385.621	34.13
385.831	38.23
386.041	134.48
386.251	-10.92
386.461	62.8
386.671	36.18
386.881	17.75
387.091	34.13
387.301	77.14
387.511	36.18
387.72	32.08
387.93	52.56
388.14	11.61
388.35	89.43
388.56	38.23
388.769	79.19
388.979	73.04
389.189	-0.68
389.399	-29.35
389.609	32.08
389.818	109.91
390.028	109.91
390.238	64.85
390.447	27.99
390.657	-12.97
390.867	-66.22
391.076	-47.79
391.286	81.24
391.496	71
391.705	58.71
391.915	157.01
392.125	124.24
392.334	13.65
392.544	97.62
392.753	73.04
392.963	-21.16
393.172	7.51
393.382	7.51
393.591	128.34
393.801	15.7
394.01	73.04
394.22	5.46
394.429	-4.78
394.639	19.8
394.848	52.56
395.058	64.85
395.267	17.75
395.477	140.63
395.686	87.38
395.895	148.82
396.105	124.24
396.314	50.52
396.524	-23.21
396.733	-0.68
396.942	95.57
397.152	71
397.361	101.72
397.57	3.41
397.78	27.99
397.989	68.95
398.198	87.38
398.407	52.56
398.617	75.09
398.826	99.67
399.035	101.72
399.244	83.28
399.453	89.43
399.663	105.81
399.872	107.86
400.081	77.14
400.29	122.2
400.499	-25.26
400.708	87.38
400.917	73.04
401.127	13.65
401.336	93.52
401.545	163.15
401.754	17.75
401.963	64.85
402.172	124.24
402.381	75.09
402.59	62.8
402.799	109.91
403.008	126.29
403.217	122.2
403.426	97.62
403.635	93.52
403.844	97.62
404.053	114
404.262	73.04
404.471	157.01
404.68	159.06
404.888	159.06
405.097	126.29
405.306	150.87
405.515	185.68
405.724	171.35
405.933	154.96
406.142	124.24
406.35	134.48
406.559	148.82
406.768	124.24
406.977	191.83
407.185	101.72
407.394	150.87
407.603	134.48
407.812	232.79
408.02	204.11
408.229	150.87
408.438	216.4
408.646	136.53
408.855	212.31
409.064	167.25
409.272	214.35
409.481	232.79
409.69	265.55
409.898	224.59
410.107	271.7
410.315	267.6
410.524	249.17
410.733	240.98
410.941	322.9
411.15	347.47
411.358	271.7
411.567	423.25
411.775	365.9
411.984	304.46
412.192	265.55
412.401	316.75
412.609	361.81
412.818	419.15
413.026	415.05
413.234	380.24
413.443	398.67
413.651	470.35
413.86	515.41
414.068	515.41
414.276	533.84
414.485	533.84
414.693	507.21
414.901	615.76
415.11	550.22
415.318	562.51
415.526	615.76
415.734	720.2
415.943	658.76
416.151	740.68
416.359	691.53
416.567	654.67
416.776	802.12
416.984	777.55
417.192	806.22
417.4	822.6
417.608	793.93
417.817	879.94
418.025	986.44
418.233	1109.32
418.441	933.19
418.649	980.29
418.857	1004.87
419.065	1092.93
419.273	1054.02
419.481	1148.23
419.689	1279.3
419.897	1115.46
420.105	1256.77
420.313	1336.64
420.521	1387.84
420.729	1393.98
420.937	1436.99
421.145	1369.41
421.353	1600.83
421.561	1613.12
421.769	1623.36
421.977	1649.98
422.185	1688.89
422.393	1797.43
422.601	1887.54
422.809	1836.35
423.017	1953.08
423.224	2006.33
423.432	2190.64
423.64	2049.33
423.848	2217.27
424.056	2194.74
424.263	2471.22
424.471	2379.06
424.679	2469.17
424.887	2579.76
425.094	2665.77
425.302	2590
425.51	2798.89
425.718	2845.99
425.925	2815.27
426.133	2833.71
426.341	3312.93
426.548	3360.03
426.756	3165.48
426.964	3286.31
427.171	3482.91
427.379	3564.83
427.586	3583.26
427.794	3802.4
428.001	4093.21
428.209	4189.46
428.417	4091.16
428.624	4310.29
428.832	4492.56
429.039	4373.78
429.247	4365.59
429.454	4846.86
429.662	5121.29
429.869	4791.56
430.076	5176.58
430.284	4840.72
430.491	5248.26
430.699	5422.34
430.906	5442.82
431.114	5604.61
431.321	5768.45
431.528	5786.88
431.736	6188.28
431.943	6518
432.15	6376.69
432.358	6565.11
432.565	6917.36
432.772	6677.74
432.979	7089.39
433.187	7199.98
433.394	7263.46
433.601	7761.12
433.808	7830.75
434.016	7650.53
434.223	8137.95
434.43	8654.03
434.637	8269.02
434.844	8873.17
435.052	9123.02
435.259	8887.5
435.466	9258.18
435.673	9086.15
435.88	9317.58
436.087	10034.36
436.294	10007.74
436.501	9911.49
436.708	10255.54
436.915	10607.8
437.122	11039.92
437.329	10947.76
437.537	11308.2
437.743	11361.45
437.95	11226.28
438.157	11736.23
438.364	12450.97
438.571	12389.53
438.778	12262.55
438.985	13452.42
439.192	12915.86
439.399	13427.85
439.606	13106.32
439.813	13892.74
440.02	14572.66
440.227	14394.49
440.433	14331
440.64	14724.21
440.847	14355.58
441.054	15105.13
441.261	15983.71
441.467	16018.53
441.674	15926.37
441.881	16600.15
442.088	16665.69
442.294	16522.33
442.501	17222.73
442.708	17427.53
442.914	18058.31
443.121	18662.46
443.328	18029.63
443.534	19532.84
443.741	19006.52
443.948	18752.57
444.154	20450.33
444.361	20194.34
444.568	20196.39
444.774	20243.49
444.981	20448.29
445.187	20886.55
445.394	21916.68
445.6	21593.1
445.807	23864.3
446.013	22762.49
446.22	23081.97
446.426	23841.77
446.633	24497.12
446.839	24949.72
447.046	23823.34
447.252	25218
447.459	25048.02
447.665	25007.06
447.871	26176.45
448.078	27503.54
448.284	25910.22
448.491	26932.15
448.697	27618.22
448.903	27941.8
449.11	28494.75
449.316	27718.57
449.522	28404.64
449.728	29131.67
449.935	29772.69
450.141	28867.48
450.347	30006.16
450.553	29244.31
450.76	29160.34
450.966	30589.83
451.172	30083.98
451.378	30649.22
451.584	30120.84
451.791	31030.14
451.997	30641.03
452.203	31202.17
452.409	31466.36
452.615	30802.82
452.821	29901.71
453.027	29598.61
453.233	31390.58
453.44	29967.24
453.646	30409.61
453.852	30161.8
454.058	30897.02
454.264	29709.2
454.47	30307.21
454.676	29655.95
454.882	30749.57
455.088	28076.97
455.294	28388.26
455.5	28636.06
455.705	29045.66
455.911	27872.17
456.117	27399.09
456.323	27378.61
456.529	25535.44
456.735	26835.9
456.941	26250.18
457.147	25367.51
457.352	24878.04
457.558	24540.13
457.764	24499.17
457.97	24206.31
458.176	23329.78
458.381	23227.38
458.587	22293.51
458.793	22551.55
458.999	21087.25
459.204	23102.45
459.41	22088.71
459.616	20380.7
459.821	20673.56
460.027	20685.85
460.233	19952.68
460.438	19242.03
460.644	19065.91
460.85	18543.67
461.055	18144.32
461.261	18066.5
461.466	16686.17
461.672	16438.36
461.878	17511.5
462.083	16276.57
462.289	15762.53
462.494	15715.43
462.7	15137.9
462.905	14697.59
463.111	15377.51
463.316	15344.75
463.522	14822.52
463.727	15008.88
463.932	14869.62
464.138	14728.31
464.343	14883.95
464.549	14437.5
464.754	14722.16
464.959	14924.91
465.165	14556.28
465.37	13870.21
465.575	13593.73
465.781	14122.11
465.986	14361.72
466.191	13737.09
466.397	13405.32
466.602	12733.59
466.807	13474.95
467.012	13225.1
467.218	13444.23
467.423	13221
467.628	13231.24
467.833	13773.96
468.038	13235.34
468.244	12782.74
468.449	13380.75
468.654	12938.38
468.859	12881.04
469.064	12758.16
469.269	12205.21
469.474	12432.54
469.679	12475.54
469.885	12078.24
470.09	12440.73
470.295	12268.7
470.5	11756.71
470.705	11881.63
470.91	11773.09
471.115	11668.64
471.32	11691.17
471.525	11865.25
471.73	11619.49
471.935	11322.54
472.139	11084.97
472.344	11136.17
472.549	11050.16
472.754	11013.29
472.959	10882.22
473.164	10697.91
473.369	10452.15
473.574	10759.35
473.778	10593.46
473.983	10374.33
474.188	10640.56
474.393	10108.09
474.598	10114.23
474.802	10017.98
475.007	9843.9
475.212	9915.58
475.417	9544.9
475.621	9608.39
475.826	9426.12
476.031	9389.25
476.235	9225.42
476.44	9546.95
476.645	9323.72
476.849	9153.74
477.054	9051.34
477.259	9014.48
477.463	8985.8
477.668	8694.99
477.872	8932.56
478.077	8586.45
478.282	8473.81
478.486	8463.57
478.691	8412.37
478.895	8436.95
479.1	8226.01
479.304	8277.21
479.509	7998.68
479.713	8297.69
479.918	7945.44
480.122	7752.93
480.326	7992.54
480.531	7994.59
480.735	7867.61
480.94	7697.63
481.144	8060.12
481.348	7881.95
481.553	7687.39
481.757	7488.74
481.961	7650.53
482.166	7697.63
482.37	7693.54
482.574	7693.54
482.778	7668.96
482.983	7744.74
483.187	7701.73
483.391	7777.5
483.595	7699.68
483.8	7605.47
484.004	7759.07
484.208	7718.11
484.412	7601.38
484.616	7677.15
484.821	7662.82
485.025	7582.95
485.229	7636.19
485.433	7693.54
485.637	7714.02
485.841	7558.37
486.045	7642.34
486.249	7685.34
486.453	7406.82
486.657	7625.95
486.861	7716.06
487.065	7329
487.269	7802.08
487.473	7642.34
487.677	7691.49
487.881	7800.03
488.085	7580.9
488.289	7785.69
488.493	7558.37
488.697	7560.42
488.901	7783.65
489.105	7699.68
489.309	7732.45
489.512	7871.71
489.716	7642.34
489.92	7892.19
490.124	7677.15
490.328	8031.45
490.531	7783.65
490.735	7984.35
490.939	7881.95
491.143	7959.77
491.346	7791.84
491.55	8084.7
491.754	7761.12
491.958	8023.26
492.161	8029.4
492.365	8092.89
492.569	8033.5
492.772	8096.99
492.976	8258.78
493.18	8168.66
493.383	8180.95
493.587	8201.43
493.79	8475.86
493.994	8314.07
494.197	8309.97
494.401	8522.96
494.605	8545.49
494.808	8592.59
495.012	8617.17
495.215	8608.98
495.419	8817.87
495.622	8660.18
495.825	8813.77
496.029	8848.59
496.232	9026.76
496.436	9030.86
496.639	9338.05
496.843	9223.37
497.046	9471.17
497.249	9493.7
497.453	9659.59
497.656	9579.72
497.859	9600.19
498.063	9723.07
498.266	9987.26
498.469	9907.39
498.673	9956.54
498.876	10095.8
499.079	10218.68
499.282	10071.23
499.485	10706.1
499.689	10355.9
499.892	10702
500.095	10656.95
500.298	11084.97
500.501	10706.1
500.705	11187.37
500.908	11248.81
501.111	11220.14
501.314	11633.83
501.517	11621.54
501.72	11699.36
501.923	11695.27
502.126	11996.32
502.329	12237.98
502.532	12315.8
502.735	12125.34
502.938	12821.65
503.141	12559.51
503.344	12704.92
503.547	12805.27
503.75	13005.97
503.953	13012.11
504.156	13247.63
504.359	13362.31
504.562	13415.56
504.765	13763.72
504.968	13900.93
505.17	14109.82
505.373	14130.3
505.576	14101.63
505.779	14410.87
505.982	14658.68
506.185	14834.8
506.387	14976.11
506.59	14857.33
506.793	15461.48
506.996	15326.32
507.198	15707.24
507.401	15645.8
507.604	15731.81
507.807	16149.6
508.009	16204.89
508.212	15957.09
508.415	16389.21
508.617	16608.34
508.82	16960.59
509.022	16663.64
509.225	17218.64
509.428	17239.12
509.63	17194.06
509.833	17478.73
510.035	18009.15
510.238	17673.29
510.44	18017.35
510.643	18281.53
510.845	18496.57
511.048	18390.08
511.25	18957.36
511.453	18867.25
511.655	19147.83
511.858	19106.87
512.06	19262.51
512.262	19469.36
512.465	19498.03
512.667	19801.13
512.87	20167.71
513.072	20376.61
513.274	20503.58
513.477	20657.18
513.679	21066.77
513.881	21052.44
514.084	21253.14
514.286	21603.34
514.488	21783.56
514.69	21986.31
514.893	22049.8
515.095	21971.97
515.297	22496.25
515.499	22459.39
515.701	22719.48
515.904	22885.37
516.106	23317.49
516.308	23522.29
516.51	23673.84
516.712	23745.51
516.914	23923.69
517.116	24476.64
517.318	24536.03
517.52	24386.53
517.722	24880.09
517.925	25015.26
518.127	25539.54
518.329	25607.12
518.531	25244.63
518.733	25770.96
518.935	26217.41
519.136	26207.17
519.338	26856.38
519.54	26680.25
519.742	26883
519.944	26878.91
520.146	27683.76
520.348	27605.94
520.55	27954.09
520.752	27894.7
520.954	28695.46
521.155	28390.31
521.357	28703.65
521.559	28756.89
521.761	29295.51
521.963	29383.57
522.164	29811.6
522.366	29475.73
522.568	29848.46
522.77	30184.33
522.971	30663.55
523.173	30507.91
523.375	30612.35
523.576	30739.33
523.778	31056.76
523.98	31193.98
524.181	31853.42
524.383	31779.7
524.584	31959.92
524.786	32066.41
524.988	32158.57
525.189	32465.77
525.391	32805.73
525.592	33045.34
525.794	33213.27
525.995	33280.86
526.197	33454.93
526.398	33489.75
526.6	33454.93
526.801	34118.48
527.003	33956.69
527.204	34110.28
527.406	34528.07
527.607	34661.19
527.808	34685.76
528.01	34220.88
528.211	35146.56
528.412	35449.66
528.614	35044.16
528.815	35189.56
529.016	35750.71
529.218	35234.62
529.419	35504.95
529.62	35760.95
529.822	35488.57
530.023	35980.08
530.224	36141.87
530.425	36231.98
530.626	36184.88
530.828	35828.53
531.029	36662.05
531.23	36217.64
531.431	36434.73
531.632	36467.5
531.833	36823.84
532.035	36668.2
532.236	36852.51
532.437	37356.32
532.638	37040.93
532.839	37298.97
533.04	37149.47
533.241	36635.43
533.442	37692.18
533.643	37544.73
533.844	37464.86
534.045	37616.41
534.246	37100.32
534.447	37548.82
534.648	37552.92
534.849	37550.87
535.05	37309.21
535.251	37317.4
535.451	37481.24
535.652	37593.88
535.853	37921.55
536.054	38015.76
536.255	37896.98
536.456	37581.59
536.657	38476.55
536.857	37862.16
537.058	37868.31
537.259	38114.06
537.46	37847.83
537.66	38425.35
537.861	37978.9
538.062	37776.15
538.263	38286.09
538.463	37696.28
538.664	37903.12
538.865	37976.85
539.065	38195.98
539.266	37966.61
539.466	37974.8
539.667	37577.5
539.868	38267.66
540.068	38015.76
540.269	37931.79
540.469	38216.46
540.67	38034.19
540.87	38404.88
541.071	37985.04
541.271	38302.48
541.472	38236.94
541.672	37978.9
541.873	37608.22
542.073	37565.21
542.274	38206.22
542.474	37765.91
542.675	37722.9
542.875	38247.18
543.075	38163.21
543.276	37989.14
543.476	37851.92
543.676	38019.86
543.877	38089.49
544.077	38155.02
544.277	37589.78
544.478	37790.48
544.678	37530.39
544.878	38140.69
545.078	38320.91
545.279	37743.38
545.479	37847.83
545.679	38052.62
545.879	38009.62
546.079	37788.44
546.28	37489.43
546.48	37364.51
546.68	38128.4
546.88	37753.62
547.08	37966.61
547.28	37860.12
547.48	37247.77
547.68	37770
547.88	37528.34
548.081	37778.2
548.281	37896.98
548.481	37552.92
548.681	38445.83
548.881	37749.53
549.081	37559.06
549.28	37636.89
549.48	37841.68
549.68	37976.85
549.88	37784.34
550.08	37499.67
550.28	37712.66
550.48	37677.85
550.68	38069.01
550.88	37712.66
551.08	37991.19
551.279	37980.95
551.479	37339.93
551.679	37872.4
551.879	37911.31
552.079	37542.68
552.278	37319.45
552.478	37606.17
552.678	37937.94
552.878	37585.69
553.077	37477.15
553.277	37581.59
553.477	38003.47
553.676	37591.83
553.876	37518.1
554.076	37481.24
554.275	37329.69
554.475	36805.41
554.674	37382.94
554.874	37442.33
555.074	36934.43
555.273	37516.06
555.473	37417.75
555.672	37065.5
555.872	37159.71
556.071	37057.31
556.271	37092.13
556.47	36803.36
556.67	36547.37
556.869	36983.58
557.068	36897.57
557.268	36535.08
557.467	36387.63
557.667	36584.23
557.866	36647.72
558.065	36424.49
558.265	36635.43
558.464	36211.5
558.663	36512.55
558.863	35947.31
559.062	36688.68
559.261	35652.41
559.461	36510.5
559.66	35904.31
559.859	35998.51
560.058	35586.87
560.258	35789.62
560.457	35234.62
560.656	36045.62
560.855	35590.97
561.054	35648.31
561.253	35316.54
561.453	35726.13
561.652	35484.47
561.851	35642.17
562.05	35033.92
562.249	35158.84
562.448	35246.91
562.647	34632.52
562.846	34745.16
563.045	34308.94
563.244	33862.48
563.443	34837.31
563.642	34075.47
563.841	34448.2
564.04	34083.66
564.239	34497.35
564.438	34085.71
564.637	34296.65
564.836	33737.55
565.035	33524.57
565.234	33737.55
565.432	33833.81
565.631	33528.66
565.83	33637.2
566.029	33485.65
566.228	33676.12
566.427	32910.18
566.625	33313.62
566.824	32811.87
567.023	33336.15
567.222	32367.46
567.42	32621.41
567.619	32750.43
567.818	32248.68
568.016	32662.37
568.215	32275.3
568.414	32248.68
568.612	32353.13
568.811	31929.2
569.01	31992.69
569.208	31634.29
569.407	31445.88
569.605	31259.51
569.804	31785.84
570.002	31335.29
570.201	31361.91
570.4	31114.11
570.598	30894.97
570.797	30718.85
570.995	31036.28
571.193	30563.2
571.392	31107.96
571.59	30559.11
571.789	30540.68
571.987	30401.41
572.186	30413.7
572.384	29997.96
572.582	30155.66
572.781	29954.96
572.979	29621.14
573.177	29772.69
573.376	29768.59
573.574	29526.93
573.772	29606.8
573.971	29629.33
574.169	29184.92
574.367	29225.88
574.565	29078.43
574.763	29053.85
574.962	28943.26
575.16	28410.79
575.358	28707.74
575.556	28584.87
575.754	28976.03
575.952	28300.2
576.151	28828.57
576.349	28081.06
576.547	28349.35
576.745	28056.49
576.943	28205.99
577.141	28068.78
577.339	28183.46
577.537	27743.15
577.735	27937.71
577.933	27380.66
578.131	27941.8
578.329	27583.41
578.527	27255.73
578.725	27319.22
578.923	27319.22
579.121	27040.7
579.319	27124.66
579.516	27343.8
579.714	27198.39
579.912	26956.73
580.11	26993.59
580.308	26786.75
580.506	26923.96
580.704	26463.17
580.901	26764.22
581.099	26913.72
581.297	26180.55
581.495	26145.73
581.692	26680.25
581.89	25856.97
582.088	26430.4
582.285	26139.59
582.483	26133.45
582.681	26250.18
582.878	25768.91
583.076	25281.49
583.274	25893.83
583.471	25521.1
583.669	25639.89
583.866	25240.53
584.064	25586.64
584.262	24992.73
584.459	25621.45
584.657	25156.57
584.854	25279.44
585.052	24804.31
585.249	24816.6
585.447	24964.06
585.644	24800.22
585.841	24753.12
586.039	24593.37
586.236	24419.3
586.434	24407.01
586.631	24239.08
586.828	24536.03
587.026	24394.72
587.223	24398.82
587.42	24151.01
587.618	24065
587.815	23960.55
588.012	23970.79
588.21	23778.28
588.407	23700.46
588.604	23546.86
588.801	23682.03
588.999	23745.51
589.196	23397.36
589.393	23346.16
589.59	23311.35
589.787	23233.52
589.984	23335.92
590.182	22678.52
590.379	23036.92
590.576	23084.02
590.773	23012.34
590.97	22760.44
591.167	23026.68
591.364	22604.8
591.561	22547.45
591.758	22459.39
591.955	22373.38
592.152	22782.97
592.349	22524.93
592.546	22604.8
592.743	22422.53
592.94	22094.85
593.137	22400
593.334	22410.24
593.531	21701.64
593.727	22041.6
593.924	21900.3
594.121	21652.49
594.318	21742.6
594.515	21287.95
594.712	21564.43
594.908	21404.69
595.105	21433.36
595.302	21404.69
595.499	21541.9
595.696	21398.54
595.892	21222.42
596.089	21068.82
596.286	21482.51
596.482	20827.16
596.679	20902.93
596.876	20925.46
597.072	20755.48
597.269	21029.91
597.466	20560.92
597.662	20571.16
597.859	20923.41
598.055	20587.55
598.252	20345.89
598.448	20579.36
598.645	20196.39
598.841	20294.69
599.038	20472.86
599.234	20329.5
599.431	20005.92
599.627	20227.1
599.824	20274.21
600.02	19919.91
600.217	19844.13
600.413	19911.72
600.609	19579.95
600.806	19858.47
601.002	20010.02
601.198	19651.63
601.395	19379.25
601.591	19590.19
601.787	19498.03
601.984	19592.23
602.18	19317.81
602.376	19090.48
602.572	19291.18
602.769	19162.16
602.965	19059.76
603.161	18957.36
603.357	18873.4
603.553	19078.19
603.75	18766.9
603.946	18592.83
604.142	18869.3
604.338	18684.98
604.534	18953.27
604.73	18682.94
604.926	18633.78
605.122	18768.95
605.318	18224.19
605.514	18117.7
605.71	18164.8
605.906	18349.12
606.102	18273.34
606.298	18091.07
606.494	18211.9
606.69	18097.22
606.886	17919.04
607.082	17675.34
607.278	18289.73
607.474	17859.65
607.67	17542.22
607.866	17947.72
608.062	17568.84
608.257	17775.69
608.453	17812.55
608.649	17577.03
608.845	17493.07
609.041	17505.35
609.236	17583.18
609.432	17509.45
609.628	17386.57
609.824	17507.4
610.019	17245.26
610.215	16964.69
610.411	17208.4
610.606	17157.2
610.802	17009.75
610.998	17130.58
611.193	17185.87
611.389	16827.48
611.584	17308.75
611.78	16804.95
611.976	17036.37
612.171	17034.32
612.367	16946.26
612.562	16735.32
612.758	16424.03
612.953	16653.4
613.149	16931.92
613.344	16366.68
613.539	16813.14
613.735	16501.85
613.93	16512.09
614.126	16469.08
614.321	16522.33
614.517	16354.4
614.712	16419.93
614.907	16366.68
615.103	16573.53
615.298	16381.02
615.493	16522.33
615.688	15977.57
615.884	16329.82
616.079	16000.1
616.274	16063.58
616.47	16106.59
616.665	16059.49
616.86	15955.04
617.055	15914.08
617.25	15993.95
617.445	16067.68
617.641	15772.77
617.836	16034.91
618.031	15795.3
618.226	15873.12
618.421	15678.57
618.616	15643.75
618.811	15336.56
619.006	15809.64
619.201	15279.21
619.396	15219.82
619.591	15221.87
619.786	15707.24
619.981	15314.03
620.176	15379.56
620.371	14773.36
620.566	15023.22
620.761	15043.7
620.956	14933.11
621.151	14617.72
621.346	15015.02
621.541	14892.15
621.735	14775.41
621.93	14546.04
622.125	14562.42
622.32	14292.09
622.515	14527.61
622.709	14347.39
622.904	14345.34
623.099	14056.57
623.294	14195.84
623.488	14103.68
623.683	13829.25
623.878	13810.82
624.072	13757.57
624.267	13606.02
624.462	13749.38
624.656	13499.53
624.851	13622.41
625.046	13292.68
625.24	13298.83
625.435	13249.68
625.629	13155.47
625.824	13294.73
626.018	13307.02
626.213	12678.29
626.407	13059.21
626.602	12846.23
626.796	12803.22
626.991	12840.08
627.185	12729.49
627.38	12633.24
627.574	12584.09
627.768	12506.26
627.963	12389.53
628.157	11957.41
628.352	12291.23
628.546	11863.2
628.74	12188.83
628.935	12045.47
629.129	12149.92
629.323	11766.95
629.517	12000.41
629.712	11887.78
629.906	11777.19
630.1	11639.97
630.294	11889.82
630.489	11508.9
630.683	11785.38
630.877	11271.34
631.071	11414.7
631.265	11388.07
631.459	11150.51
631.653	11228.33
631.848	11109.55
632.042	11125.93
632.236	11242.67
632.43	10841.26
632.624	10947.76
632.818	10919.09
633.012	10640.56
633.206	10718.39
633.4	10816.69
633.594	10513.59
633.788	10544.31
633.982	10550.45
634.176	10591.41
634.369	10413.24
634.563	10370.23
634.757	10259.64
634.951	10480.82
635.145	10329.27
635.339	10302.65
635.533	9987.26
635.726	10093.76
635.92	9876.67
636.114	10028.22
636.308	9884.86
636.501	9872.57
636.695	9938.11
636.889	9825.47
637.083	9694.4
637.276	9710.79
637.47	9624.77
637.664	9637.06
637.857	9518.28
638.051	9669.83
638.244	9497.8
638.438	9489.6
638.632	9338.05
638.825	9397.45
639.019	9311.43
639.212	9061.58
639.406	9059.53
639.599	9077.96
639.793	8965.32
639.986	8742.1
640.18	9006.28
640.373	9039.05
640.567	8735.95
640.76	8783.06
640.954	8631.51
641.147	8602.83
641.34	8334.55
641.534	8580.31
641.727	8596.69
641.92	8580.31
642.114	8307.93
642.307	8295.64
642.5	8430.8
642.694	8189.14
642.887	8361.17
643.08	8580.31
643.273	8197.34
643.467	8266.97
643.66	7998.68
643.853	8160.47
644.046	8219.86
644.239	8070.36
644.432	7859.42
644.626	7779.55
644.819	7732.45
645.012	7828.7
645.205	7949.53
645.398	8015.07
645.591	7759.07
645.784	7673.06
645.977	7544.03
646.17	7668.96
646.363	7517.41
646.556	7523.55
646.749	7316.71
646.942	7449.83
647.135	7458.02
647.328	7507.17
647.521	7425.25
647.714	7367.91
647.907	7458.02
648.099	7267.56
648.292	7253.22
648.485	7077.1
648.678	7056.62
648.871	7144.68
649.064	6986.99
649.256	7038.19
649.449	7245.03
649.642	6980.84
649.835	6946.03
650.027	6993.13
650.22	6720.75
650.413	6827.25
650.605	6780.14
650.798	6730.99
650.991	6694.13
651.183	6782.19
651.376	6608.11
651.568	6612.21
651.761	6616.3
651.954	6575.34
652.146	6528.24
652.339	6720.75
652.531	6745.33
652.724	6454.51
652.916	6358.26
653.109	6417.65
653.301	6438.13
653.494	6466.8
653.686	6311.16
653.879	6536.43
654.071	6372.6
654.263	6081.78
654.456	5997.82
654.648	6106.36
654.84	5901.56
655.033	6169.85
655.225	6057.21
655.417	5987.58
655.61	6079.74
655.802	6038.78
655.994	6038.78
656.186	5958.91
656.379	5987.58
656.571	5903.61
656.763	5852.41
656.955	5838.08
657.148	5870.84
657.34	5725.44
657.532	5833.98
657.724	5786.88
657.916	5674.24
658.108	5666.05
658.3	5702.91
658.492	5799.16
658.684	5670.14
658.876	5600.51
659.068	5448.96
659.26	5487.87
659.452	5489.92
659.644	5504.26
659.836	5278.98
660.028	5442.82
660.22	5336.32
660.412	5356.8
660.604	5311.75
660.796	5481.73
660.988	5500.16
661.18	5201.16
661.372	5258.5
661.563	5260.55
661.755	5170.44
661.947	5227.78
662.139	5096.71
662.331	5307.65
662.522	5154.05
662.714	5158.15
662.906	5041.42
663.097	5057.8
663.289	4896.01
663.481	5000.46
663.673	5106.95
663.864	5018.89
664.056	4916.49
664.247	4939.02
664.439	4807.95
664.631	4945.16
664.822	4947.21
665.014	4967.69
665.205	4959.5
665.397	4805.9
665.588	4824.33
665.78	4828.43
665.971	4920.59
666.163	4891.91
666.354	4783.37
666.546	4879.63
666.737	4721.93
666.929	4775.18
667.12	4908.3
667.311	4889.87
667.503	4652.3
667.694	4703.5
667.885	4920.59
668.077	4674.83
668.268	4738.32
668.459	4723.98
668.651	4771.08
668.842	4695.31
669.033	4635.92
669.224	4822.28
669.416	4719.89
669.607	4746.51
669.798	4558.1
669.989	4812.04
670.18	4586.77
670.371	4850.96
670.563	4533.52
670.754	4793.61
670.945	4488.46
671.136	4648.21
671.327	4474.13
671.518	4635.92
671.709	4695.31
671.9	4709.65
672.091	4818.19
672.282	4492.56
672.473	4533.52
672.664	4633.87
672.855	4541.71
673.046	4470.03
673.237	4760.84
673.428	4635.92
673.619	4711.69
673.809	4459.79
674	4580.62
674.191	4777.23
674.382	4470.03
674.573	4435.22
674.764	4654.35
674.954	4670.73
675.145	4529.42
675.336	4556.05
675.527	4619.53
675.717	4556.05
675.908	4709.65
676.099	4541.71
676.289	4637.97
676.48	4580.62
676.671	4558.1
676.861	4697.36
677.052	4756.75
677.243	4597.01
677.433	4693.26
677.624	4824.33
677.814	4619.53
678.005	4740.36
678.195	4664.59
678.386	4848.91
678.576	4883.72
678.767	4820.24
678.957	4793.61
679.148	4957.45
679.338	4826.38
679.529	4891.91
679.719	4701.45
679.909	4918.54
680.1	4834.57
680.29	4914.44
680.481	4828.43
680.671	4959.5
680.861	4990.22
681.052	4853
681.242	4889.87
681.432	4934.92
681.622	4967.69
681.813	4805.9
682.003	5000.46
682.193	4846.86
682.383	4971.79
682.573	4898.06
682.764	4857.1
682.954	5178.63
683.144	4959.5
683.334	4889.87
683.524	5061.9
683.714	5045.51
683.904	4885.77
684.094	5074.18
684.284	4959.5
684.474	5102.86
684.664	4949.26
684.854	5123.34
685.044	4887.82
685.234	4975.88
685.424	4967.69
685.614	4963.59
685.804	4932.87
685.994	5045.51
686.184	5078.28
686.374	5049.61
686.564	4947.21
686.753	4857.1
686.943	4887.82
687.133	4959.5
687.323	4746.51
687.513	4951.31
687.702	4738.32
687.892	4734.22
688.082	4885.77
688.272	4773.13
688.461	4844.81
688.651	4883.72
688.841	4650.25
689.03	4760.84
689.22	4705.55
689.41	4644.11
689.599	4560.14
689.789	4586.77
689.979	4545.81
690.168	4566.29
690.358	4400.4
690.547	4631.82
690.737	4375.83
690.926	4416.79
691.116	4318.48
691.305	4351.25
691.495	4318.48
691.684	4295.96
691.874	4336.92
692.063	4314.39
692.252	4381.97
692.442	4238.61
692.631	3976.47
692.82	4179.22
693.01	4187.41
693.199	3974.42
693.388	4099.35
693.578	4117.78
693.767	4099.35
693.956	3968.28
694.146	3896.6
694.335	3968.28
694.524	3951.9
694.713	4042.01
694.902	3874.07
695.092	4042.01
695.281	4019.48
695.47	3872.03
695.659	3851.55
695.848	3800.35
696.037	3702.04
696.226	3851.55
696.415	3769.63
696.604	3935.51
696.793	3714.33
696.982	3673.37
697.171	3757.34
697.36	3757.34
697.549	3593.5
697.738	3646.75
697.927	3616.03
698.116	3695.9
698.305	3632.41
698.494	3683.61
698.683	3636.51
698.872	3597.6
699.061	3632.41
699.25	3849.5
699.438	3695.9
699.627	3677.47
699.816	3689.76
700.005	3532.06
700.193	3532.06
700.382	3427.62
700.571	3687.71
700.76	3583.26
700.948	3644.7
701.137	3556.64
701.326	3495.2
701.514	3659.04
701.703	3540.26
701.892	3517.73
702.08	3663.13
702.269	3624.22
702.457	3609.89
702.646	3599.65
702.834	3575.07
703.023	3575.07
703.212	3730.72
703.4	3636.51
703.589	3579.17
703.777	3616.03
703.965	3583.26
704.154	3505.44
704.342	3499.3
704.531	3654.94
704.719	3511.58
704.907	3656.99
705.096	3642.65
705.284	3640.61
705.472	3648.8
705.661	3794.2
705.849	3681.57
706.037	3716.38
706.226	3646.75
706.414	3595.55
706.602	3663.13
706.79	3794.2
706.979	3769.63
707.167	3714.33
707.355	3792.16
707.543	3728.67
707.731	3867.93
707.919	3753.24
708.107	3704.09
708.296	3761.44
708.484	3763.48
708.672	3689.76
708.86	3681.57
709.048	3816.73
709.236	3591.45
709.424	3767.58
709.612	3771.68
709.8	3826.97
709.988	3904.79
710.176	3886.36
710.364	3788.06
710.551	3853.59
710.739	3923.23
710.927	3933.47
711.115	3949.85
711.303	3978.52
711.491	3812.64
711.679	3912.99
711.866	3919.13
712.054	4099.35
712.242	4080.92
712.43	4107.54
712.617	4103.45
712.805	4066.58
712.993	4052.25
713.181	4091.16
713.368	4234.52
713.556	4203.8
713.744	4123.93
713.931	4267.28
714.119	4175.13
714.306	4197.65
714.494	4214.04
714.682	4177.17
714.869	4257.04
715.057	4318.48
715.244	4439.31
715.432	4480.27
715.619	4324.63
715.807	4330.77
715.994	4357.39
716.182	4347.15
716.369	4427.03
716.556	4312.34
716.744	4353.3
716.931	4410.64
717.119	4556.05
717.306	4451.6
717.493	4365.59
717.681	4402.45
717.868	4615.44
718.055	4513.04
718.242	4613.39
718.43	4730.13
718.617	4531.47
718.804	4566.29
718.991	4680.97
719.179	4695.31
719.366	4709.65
719.553	4689.17
719.74	4640.01
719.927	4810
720.114	4801.8
720.301	4803.85
720.488	4766.99
720.676	4818.19
720.863	4803.85
721.05	4896.01
721.237	4834.57
721.424	4810
721.611	4932.87
721.798	4873.48
721.985	4705.55
722.172	4949.26
722.358	4957.45
722.545	4924.68
722.732	4943.11
722.919	5084.42
723.106	4906.25
723.293	5143.81
723.48	5139.72
723.667	5180.68
723.853	5043.46
724.04	5133.57
724.227	5102.86
724.414	5197.06
724.6	5109
724.787	5227.78
724.974	5197.06
725.161	5233.93
725.347	5278.98
725.534	5229.83
725.72	5268.74
725.907	5348.61
726.094	5213.45
726.28	5373.19
726.467	5311.75
726.653	5260.55
726.84	5352.71
727.027	5555.46
727.213	5291.27
727.4	5594.37
727.586	5557.5
727.773	5473.54
727.959	5385.48
728.145	5563.65
728.332	5420.29
728.518	5481.73
728.705	5635.33
728.891	5537.02
729.077	5602.56
729.264	5604.61
729.45	5475.59
729.636	5664
729.823	5541.12
730.009	5639.42
730.195	5840.12
730.382	5688.57
730.568	5668.09
730.754	5565.7
730.94	5623.04
731.126	5629.18
731.313	5686.53
731.499	5750.01
731.685	5743.87
731.871	5786.88
732.057	5762.3
732.243	5856.51
732.429	5803.26
732.615	5860.6
732.801	5862.65
732.987	5694.72
733.173	5889.28
733.359	5811.45
733.545	5817.6
733.731	5913.85
733.917	6040.83
734.103	5745.92
734.289	5889.28
734.475	5842.17
734.661	5948.67
734.847	5782.78
735.033	5827.84
735.219	5868.8
735.404	5901.56
735.59	5997.82
735.776	5831.93
735.962	5911.8
736.148	5973.24
736.333	5936.38
736.519	5930.23
736.705	6022.39
736.89	6077.69
737.076	5825.79
737.262	5823.74
737.447	5823.74
737.633	5819.64
737.819	6139.13
738.004	5801.21
738.19	6057.21
738.375	5696.77
738.561	6063.35
738.747	5967.1
738.932	5893.37
739.118	5983.48
739.303	5887.23
739.489	6003.96
739.674	5840.12
739.859	5876.99
740.045	5901.56
740.23	5913.85
740.416	5833.98
740.601	5854.46
740.786	5889.28
740.972	5778.69
741.157	5711.1
741.342	5635.33
741.528	5688.57
741.713	5784.83
741.898	5790.97
742.084	5860.6
742.269	5727.49
742.454	5590.27
742.639	5833.98
742.824	5631.23
743.01	5688.57
743.195	5733.63
743.38	5778.69
743.565	5608.7
743.75	5620.99
743.935	5475.59
744.12	5688.57
744.305	5424.39
744.49	5545.22
744.675	5483.78
744.86	5491.97
745.045	5442.82
745.23	5334.28
745.415	5375.24
745.6	5371.14
745.785	5295.36
745.97	5477.63
746.155	5227.78
746.34	5217.54
746.525	5270.79
746.71	5416.19
746.895	5238.02
747.079	5221.64
747.264	5170.44
747.449	5186.82
747.634	5156.1
747.819	5100.81
748.003	4984.07
748.188	5033.22
748.373	5039.37
748.557	5020.94
748.742	4992.27
748.927	4906.25
749.111	4846.86
749.296	4713.74
749.481	4695.31
749.665	4803.85
749.85	4676.88
750.034	4877.58
750.219	4558.1
750.404	4599.06
750.588	4697.36
750.773	4502.8
750.957	4615.44
751.141	4648.21
751.326	4535.57
751.51	4457.75
751.695	4345.11
751.879	4416.79
752.064	4588.82
752.248	4220.18
752.432	4349.2
752.617	4263.19
752.801	4361.49
752.985	4242.71
753.17	4277.52
753.354	4216.09
753.538	4197.65
753.722	4033.82
753.907	4152.6
754.091	4009.24
754.275	3968.28
754.459	3990.81
754.643	3970.33
754.828	3843.35
755.012	4076.82
755.196	4064.54
755.38	3845.4
755.564	3777.82
755.748	3841.31
755.932	3738.91
756.116	3618.08
756.3	3781.92
756.484	3640.61
756.668	3648.8
756.852	3626.27
757.036	3583.26
757.22	3573.02
757.404	3517.73
757.588	3509.54
757.772	3595.55
757.956	3546.4
758.14	3362.08
758.323	3433.76
758.507	3360.03
758.691	3321.12
758.875	3271.97
759.059	3331.36
759.242	3185.96
759.426	3274.02
759.61	3179.81
759.794	3177.76
759.977	3327.27
760.161	3345.7
760.345	3198.24
760.528	3310.88
760.712	3040.55
760.895	2960.68
761.079	3114.28
761.263	2972.97
761.446	3013.93
761.63	2958.63
761.813	3136.81
761.997	3013.93
762.18	2972.97
762.364	3028.26
762.547	2833.71
762.731	2893.1
762.914	2874.67
763.098	2897.19
763.281	2938.15
763.464	2899.24
763.648	2868.52
763.831	2850.09
764.015	2819.37
764.198	2786.6
764.381	2860.33
764.564	2706.73
764.748	2819.37
764.931	2673.96
765.114	2702.64
765.297	2766.12
765.481	2680.11
765.664	2665.77
765.847	2503.98
766.03	2706.73
766.213	2643.24
766.397	2559.28
766.58	2510.13
766.763	2661.68
766.946	2633.01
767.129	2426.16
767.312	2608.43
767.495	2452.78
767.678	2530.61
767.861	2503.98
768.044	2467.12
768.227	2506.03
768.41	2458.93
768.593	2469.17
768.776	2438.45
768.959	2385.2
769.142	2448.69
769.324	2346.29
769.507	2409.78
769.69	2366.77
769.873	2417.97
770.056	2510.13
770.239	2288.95
770.421	2323.76
770.604	2286.9
770.787	2223.41
770.97	2338.1
771.152	2274.61
771.335	2239.8
771.518	2080.05
771.7	2264.37
771.883	2157.88
772.066	2030.9
772.248	2204.98
772.431	2182.45
772.613	2153.78
772.796	2102.58
772.978	2035
773.161	2141.49
773.343	2026.81
773.526	2106.68
773.708	2010.42
773.891	1989.94
774.073	1975.61
774.256	1957.18
774.438	2055.48
774.621	2051.38
774.803	1948.98
774.985	1873.21
775.168	1975.61
775.35	1895.74
775.532	1860.92
775.715	1867.06
775.897	1985.85
776.079	1850.68
776.261	2024.76
776.444	1744.19
776.626	1822.01
776.808	1758.52
776.99	1748.28
777.173	1744.19
777.355	1707.32
777.537	1631.55
777.719	1727.8
777.901	1690.94
778.083	1729.85
778.265	1652.03
778.447	1690.94
778.629	1609.02
778.811	1639.74
778.993	1707.32
779.175	1680.7
779.357	1576.25
779.539	1473.85
779.721	1510.72
779.903	1553.73
780.085	1502.53
780.267	1510.72
780.449	1549.63
780.631	1580.35
780.812	1580.35
780.994	1469.76
781.176	1357.12
781.358	1482.05
781.54	1500.48
781.721	1469.76
781.903	1396.03
782.085	1389.89
782.267	1396.03
782.448	1269.06
782.63	1385.79
782.812	1389.89
782.993	1260.87
783.175	1303.87
783.357	1248.58
783.538	1328.45
783.72	1156.42
783.901	1199.43
784.083	1193.28
784.264	1201.47
784.446	1238.34
784.627	1189.19
784.809	1277.25
784.99	1183.04
785.172	1205.57
785.353	1142.08
785.535	1277.25
785.716	1137.99
785.897	1084.74
786.079	1154.37
786.26	1193.28
786.441	1148.23
786.623	1076.55
786.804	990.53
786.985	1140.04
787.167	1176.9
787.348	1035.59
787.529	1107.27
787.71	1060.17
787.891	945.48
788.073	1027.4
788.254	1002.82
788.435	1027.4
788.616	1031.49
788.797	1041.73
788.978	949.57
789.159	925
789.34	970.05
789.522	978.25
789.703	869.7
789.884	904.52
790.065	937.29
790.246	927.05
790.427	961.86
790.607	937.29
790.788	920.9
790.969	861.51
791.15	929.1
791.331	863.56
791.512	841.03
791.693	802.12
791.874	814.41
792.054	912.71
792.235	867.66
792.416	804.17
792.597	822.6
792.778	875.85
792.958	890.18
793.139	810.31
793.32	861.51
793.5	838.98
793.681	781.64
793.862	959.81
794.042	814.41
794.223	787.79
794.404	757.07
794.584	728.39
794.765	726.35
794.945	744.78
795.126	798.03
795.306	669
795.487	783.69
795.667	726.35
795.848	767.31
796.028	691.53
796.209	750.92
796.389	724.3
796.57	634.19
796.75	683.34
796.93	722.25
797.111	687.43
797.291	712.01
797.471	701.77
797.652	697.67
797.832	742.73
798.012	626
798.192	669
798.373	609.61
798.553	646.48
798.733	675.15
798.913	609.61
799.093	630.09
799.274	675.15
799.454	609.61
799.634	648.52
799.814	593.23
799.994	628.04
800.174	646.48
800.354	593.23
800.534	556.36
800.714	675.15
800.894	576.84
801.074	552.27
801.254	570.7
801.434	666.96
801.614	585.04
801.794	574.8
801.974	1273.15
802.154	546.12
802.334	548.17
802.514	453.97
802.693	529.74
802.873	550.22
803.053	527.69
803.233	560.46
803.413	525.65
803.592	634.19
803.772	474.45
803.952	494.93
804.131	582.99
804.311	638.28
804.491	576.84
804.67	482.64
804.85	593.23
805.03	615.76
805.209	568.65
805.389	544.08
805.568	445.77
805.748	443.73
805.928	394.58
806.107	490.83
806.287	466.25
806.466	523.6
806.646	492.88
806.825	470.35
807.004	460.11
807.184	511.31
807.363	496.97
807.543	490.83
807.722	394.58
807.901	462.16
808.081	419.15
808.26	443.73
808.439	415.05
808.619	453.97
808.798	410.96
808.977	470.35
809.156	472.4
809.336	419.15
809.515	417.1
809.694	415.05
809.873	468.3
810.052	453.97
810.231	503.12
810.411	402.77
810.59	402.77
810.769	394.58
810.948	396.62
811.127	337.23
811.306	380.24
811.485	372.05
811.664	494.93
811.843	367.95
812.022	376.14
812.201	343.38
812.38	449.87
812.559	308.56
812.737	298.32
812.916	249.17
813.095	306.51
813.274	355.66
813.453	355.66
813.632	339.28
813.811	398.67
813.989	378.19
814.168	376.14
814.347	347.47
814.526	372.05
814.704	447.82
814.883	372.05
815.062	361.81
815.24	331.09
815.419	312.66
815.598	404.82
815.776	259.41
815.955	249.17
816.133	306.51
816.312	382.29
816.49	322.9
816.669	314.7
816.847	324.94
817.026	318.8
817.204	333.14
817.383	304.46
817.561	423.25
817.74	277.84
817.918	378.19
818.097	320.85
818.275	355.66
818.453	333.14
818.632	312.66
818.81	310.61
818.988	294.22
819.167	271.7
819.345	345.42
819.523	271.7
819.701	214.35
819.879	329.04
820.058	314.7
820.236	296.27
820.414	294.22
820.592	152.91
820.77	294.22
820.948	265.55
821.127	216.4
821.305	331.09
821.483	202.07
821.661	265.55
821.839	257.36
822.017	251.22
822.195	290.13
822.373	257.36
822.551	271.7
822.729	212.31
822.907	273.75
823.085	236.88
823.262	290.13
823.44	220.5
823.618	267.6
823.796	191.83
823.974	271.7
824.152	240.98
824.329	306.51
824.507	288.08
824.685	306.51
824.863	204.11
825.04	249.17
825.218	296.27
825.396	220.5
825.574	195.92
825.751	163.15
825.929	269.65
826.107	249.17
826.284	183.63
826.462	247.12
826.639	195.92
826.817	175.44
826.994	240.98
827.172	294.22
827.349	216.4
827.527	206.16
827.704	173.39
827.882	232.79
828.059	263.51
828.237	240.98
828.414	232.79
828.591	128.34
828.769	228.69
828.946	214.35
829.124	275.79
829.301	232.79
829.478	175.44
829.655	281.94
829.833	224.59
830.01	157.01
830.187	146.77
830.364	185.68
830.542	140.63
830.719	226.64
830.896	208.21
831.073	118.1
831.25	191.83
831.427	249.17
831.604	232.79
831.782	228.69
831.959	105.81
832.136	175.44
832.313	200.02
832.49	222.55
832.667	200.02
832.844	183.63
833.021	191.83
833.198	189.78
833.374	159.06
833.551	191.83
833.728	173.39
833.905	138.58
834.082	105.81
834.259	283.98
834.436	232.79
834.612	105.81
834.789	189.78
834.966	181.59
835.143	173.39
835.319	161.11
835.496	146.77
835.673	93.52
835.85	216.4
836.026	114
836.203	191.83
836.38	138.58
836.556	148.82
836.733	44.37
836.909	202.07
837.086	116.05
837.262	109.91
837.439	142.68
837.616	195.92
837.792	48.47
837.968	216.4
838.145	138.58
838.321	257.36
838.498	177.49
838.674	118.1
838.851	107.86
839.027	75.09
839.203	204.11
839.38	179.54
839.556	132.44
839.732	197.97
839.909	103.76
840.085	134.48
840.261	101.72
840.437	101.72
840.614	15.7
840.79	134.48
840.966	140.63
841.142	171.35
841.318	136.53
841.494	116.05
841.671	191.83
841.847	146.77
842.023	85.33
842.199	107.86
842.375	144.72
842.551	107.86
842.727	167.25
842.903	118.1
843.079	130.39
843.255	150.87
843.431	9.56
843.607	124.24
843.783	101.72
843.959	109.91
844.134	81.24
844.31	130.39
844.486	52.56
844.662	197.97
844.838	85.33
845.013	161.11
845.189	114
845.365	25.94
845.541	97.62
845.716	159.06
845.892	107.86
846.068	-0.68
846.244	140.63
846.419	187.73
846.595	79.19
846.77	73.04
846.946	83.28
847.122	138.58
847.297	-12.97
847.473	138.58
847.648	93.52
847.824	154.96
847.999	118.1
848.175	83.28
848.35	120.15
848.526	68.95
848.701	138.58
848.876	116.05
849.052	173.39
849.227	132.44
849.403	107.86
849.578	109.91
849.753	99.67
849.929	109.91
850.104	-0.68
850.279	50.52
850.454	101.72
850.63	73.04
850.805	85.33
850.98	68.95
851.155	58.71
851.33	148.82
851.505	-8.87
851.681	126.29
851.856	99.67
852.031	140.63
852.206	42.32
852.381	36.18
852.556	52.56
852.731	79.19
852.906	66.9
853.081	93.52
853.256	118.1
853.431	19.8
853.606	-0.68
853.781	150.87
853.956	-21.16
854.131	11.61
854.305	46.42
854.48	85.33
854.655	27.99
854.83	44.37
855.005	9.56
855.18	83.28
855.354	25.94
855.529	42.32
855.704	44.37
855.879	-19.11
856.053	36.18
856.228	124.24
856.403	11.61
856.577	95.57
856.752	25.94
856.926	52.56
857.101	77.14
857.276	38.23
857.45	136.53
857.625	89.43
857.799	27.99
857.974	75.09
858.148	-15.02
858.323	122.2
858.497	27.99
858.672	52.56
858.846	-47.79
859.02	99.67
859.195	32.08
859.369	89.43
859.543	-8.87
859.718	62.8
859.892	128.34
860.066	36.18
860.241	36.18
860.415	64.85
860.589	-25.26
860.763	118.1
860.938	68.95
861.112	83.28
861.286	-55.98
861.46	-8.87
861.634	-74.41
861.808	97.62
861.982	73.04
862.157	50.52
862.331	42.32
862.505	-51.88
862.679	62.8
862.853	11.61
863.027	36.18
863.201	114
863.375	-12.97
863.549	19.8
863.722	52.56
863.896	93.52
864.07	-21.16
864.244	81.24
864.418	-12.97
864.592	19.8
864.766	7.51
864.939	77.14
865.113	-41.64
865.287	3.41
865.461	-33.45
865.634	13.65
865.808	58.71
865.982	44.37
866.156	50.52
866.329	17.75
866.503	58.71
866.676	97.62
866.85	68.95
867.024	48.47
867.197	-2.73
867.371	3.41
867.544	-33.45
867.718	13.65
867.891	77.14
868.065	3.41
868.238	9.56
868.412	52.56
868.585	101.72
868.759	-41.64
868.932	27.99
869.105	-29.35
869.279	7.51
869.452	21.84
869.625	27.99
869.799	-4.78
869.972	91.48
870.145	1.37
870.319	5.46
870.492	68.95
870.665	-19.11
870.838	19.8
871.011	1.37
871.185	3.41
871.358	54.61
871.531	54.61
871.704	-37.55
871.877	122.2
872.05	-0.68
872.223	-15.02
872.396	-4.78
872.569	81.24
872.742	1.37
872.915	-6.83
873.088	58.71
873.261	-17.07
873.434	15.7
873.607	-17.07
873.78	36.18
873.953	38.23
874.126	46.42
874.299	-33.45
874.471	34.13
874.644	-17.07
874.817	101.72
874.99	154.96
875.163	23.89
875.335	85.33
875.508	17.75
875.681	93.52
875.853	15.7
876.026	27.99
876.199	-4.78
876.371	-15.02
876.544	-39.59
876.717	44.37
876.889	3.41
877.062	128.34
877.234	17.75
877.407	54.61
877.579	-4.78
877.752	30.04
877.924	-6.83
878.097	3.41
878.269	7.51
878.442	1.37
878.614	56.66
878.786	30.04
878.959	1.37
879.131	73.04
879.303	-68.27
879.476	27.99
879.648	-8.87
879.82	23.89
879.993	-29.35
880.165	32.08
880.337	15.7
880.509	13.65
880.681	-33.45
880.854	36.18
881.026	75.09
881.198	89.43
881.37	1.37
881.542	42.32
881.714	77.14
881.886	-68.27
882.058	-53.93
882.23	1.37
882.402	7.51
882.574	7.51
882.746	-6.83
882.918	66.9
883.09	25.94
883.262	9.56
883.434	60.76
883.606	-35.5
883.778	-0.68
883.95	11.61
884.122	-0.68
884.293	71
884.465	19.8
884.637	71
884.809	5.46
884.98	7.51
885.152	73.04
885.324	19.8
885.496	-21.16
885.667	25.94
885.839	3.41
886.011	50.52
886.182	9.56
886.354	68.95
886.525	-27.31
886.697	11.61
886.869	-33.45
887.04	-23.21
887.212	85.33
887.383	64.85
887.555	27.99
887.726	32.08
887.897	-51.88
888.069	34.13
888.24	-47.79
888.412	21.84
888.583	-4.78
888.754	21.84
888.926	-17.07
889.097	-68.27
889.268	-8.87
889.44	-98.99
889.611	-39.59
889.782	27.99
889.953	1.37
890.125	-4.78
890.296	-4.78
890.467	-8.87
890.638	19.8
890.809	34.13
890.98	-98.99
891.151	-70.31
891.323	-2.73
891.494	25.94
891.665	-8.87
891.836	-35.5
892.007	-47.79
892.178	-25.26
892.349	-62.12
892.52	19.8
892.691	5.46
892.862	44.37
893.032	-72.36
893.203	-8.87
893.374	11.61
893.545	21.84
893.716	42.32
893.887	85.33
894.057	3.41
894.228	36.18
894.399	11.61
894.57	34.13
894.74	27.99
894.911	77.14
895.082	-0.68
895.253	-131.75
895.423	9.56
895.594	23.89
895.764	5.46
895.935	34.13
896.106	-29.35
896.276	9.56
896.447	34.13
896.617	1.37
896.788	7.51
896.958	19.8
897.129	-41.64
897.299	-25.26
897.47	64.85
897.64	79.19
897.81	27.99
897.981	-45.74
898.151	-6.83
898.322	-21.16
898.492	-37.55
898.662	-58.03
898.832	15.7
899.003	-15.02
899.173	30.04
899.343	-31.4
899.513	-41.64
