Data from USB4F104151__30__11-30-06-115.txt Node

Date: Fri Mar 14 11:30:06 EDT 2025
User: louis
Spectrometer: USB4F10415
Trigger mode: 4
Integration Time (sec): 5.000000E-2
Scans to average: 1
Electric dark correction enabled: true
Nonlinearity correction enabled: false
Boxcar width: 0
XAxis mode: Wavelengths
Number of Pixels in Spectrum: 3648
>>>>>Begin Spectral Data<<<<<
178.204	-116.05
178.424	-116.05
178.644	-116.05
178.864	-99.67
179.084	-124.24
179.304	10.92
179.524	4.78
179.744	-19.8
179.964	45.74
180.184	-9.56
180.404	35.5
180.624	23.21
180.844	-1.37
181.064	-75.09
181.283	-9.56
181.503	-48.47
181.723	43.69
181.943	-50.52
182.163	141.99
182.383	2.73
182.602	58.03
182.822	64.17
183.042	15.02
183.262	0.68
183.482	76.46
183.701	31.4
183.921	12.97
184.141	33.45
184.361	76.46
184.58	-1.37
184.8	-1.37
185.02	68.27
185.239	47.79
185.459	-56.66
185.679	62.12
185.898	-30.04
186.118	94.89
186.338	23.21
186.557	88.75
186.777	-50.52
186.997	23.21
187.216	17.07
187.436	109.22
187.655	80.55
187.875	53.93
188.095	66.22
188.314	4.78
188.534	82.6
188.753	19.11
188.973	125.61
189.192	88.75
189.412	12.97
189.631	19.11
189.851	12.97
190.07	53.93
190.29	-25.94
190.509	21.16
190.729	19.11
190.948	43.69
191.168	166.57
191.387	105.13
191.607	31.4
191.826	92.84
192.045	23.21
192.265	68.27
192.484	62.12
192.704	17.07
192.923	8.87
193.142	139.94
193.362	103.08
193.581	101.03
193.8	-34.13
194.02	101.03
194.239	55.98
194.458	47.79
194.678	53.93
194.897	31.4
195.116	94.89
195.335	49.83
195.555	72.36
195.774	72.36
195.993	51.88
196.212	29.35
196.432	-13.65
196.651	84.65
196.87	84.65
197.089	86.7
197.308	58.03
197.528	84.65
197.747	-54.61
197.966	64.17
198.185	55.98
198.404	-11.61
198.623	0.68
198.842	70.31
199.062	94.89
199.281	62.12
199.5	23.21
199.719	15.02
199.938	19.11
200.157	133.8
200.376	76.46
200.595	60.07
200.814	101.03
201.033	6.83
201.252	39.59
201.471	60.07
201.69	92.84
201.909	68.27
202.128	103.08
202.347	64.17
202.566	43.69
202.785	-5.46
203.004	25.26
203.223	88.75
203.442	33.45
203.661	27.31
203.879	-7.51
204.098	68.27
204.317	60.07
204.536	86.7
204.755	10.92
204.974	23.21
205.193	103.08
205.411	92.84
205.63	66.22
205.849	-17.75
206.068	15.02
206.287	45.74
206.505	111.27
206.724	-21.85
206.943	-34.13
207.162	19.11
207.381	60.07
207.599	29.35
207.818	64.17
208.037	53.93
208.255	86.7
208.474	-13.65
208.693	58.03
208.911	72.36
209.13	17.07
209.349	84.65
209.567	-1.37
209.786	64.17
210.005	62.12
210.223	39.59
210.442	6.83
210.661	15.02
210.879	-11.61
211.098	12.97
211.316	53.93
211.535	2.73
211.753	15.02
211.972	96.94
212.191	27.31
212.409	12.97
212.628	2.73
212.846	6.83
213.065	49.83
213.283	43.69
213.502	47.79
213.72	27.31
213.938	53.93
214.157	53.93
214.375	45.74
214.594	25.26
214.812	74.41
215.031	-30.04
215.249	-25.94
215.467	51.88
215.686	-9.56
215.904	131.75
216.122	31.4
216.341	31.4
216.559	47.79
216.778	72.36
216.996	19.11
217.214	23.21
217.432	29.35
217.651	2.73
217.869	23.21
218.087	-11.61
218.306	12.97
218.524	55.98
218.742	58.03
218.96	2.73
219.179	33.45
219.397	60.07
219.615	141.99
219.833	55.98
220.051	-3.41
220.27	35.5
220.488	37.55
220.706	-9.56
220.924	64.17
221.142	-9.56
221.36	-3.41
221.578	78.51
221.796	-21.85
222.015	23.21
222.233	55.98
222.451	64.17
222.669	-21.85
222.887	21.16
223.105	121.51
223.323	39.59
223.541	-34.13
223.759	0.68
223.977	-23.89
224.195	101.03
224.413	23.21
224.631	49.83
224.849	88.75
225.067	78.51
225.285	37.55
225.503	31.4
225.721	29.35
225.939	74.41
226.157	55.98
226.375	127.66
226.592	39.59
226.81	-52.56
227.028	4.78
227.246	94.89
227.464	6.83
227.682	45.74
227.9	39.59
228.117	19.11
228.335	-25.94
228.553	-27.99
228.771	64.17
228.989	96.94
229.206	66.22
229.424	-9.56
229.642	19.11
229.86	60.07
230.077	35.5
230.295	72.36
230.513	12.97
230.731	121.51
230.948	62.12
231.166	125.61
231.384	33.45
231.601	-25.94
231.819	53.93
232.037	-46.42
232.254	-32.08
232.472	31.4
232.689	-1.37
232.907	72.36
233.125	4.78
233.342	8.87
233.56	76.46
233.777	35.5
233.995	70.31
234.213	21.16
234.43	-17.75
234.648	19.11
234.865	2.73
235.083	137.9
235.3	55.98
235.518	123.56
235.735	82.6
235.953	6.83
236.17	10.92
236.388	-3.41
236.605	6.83
236.822	15.02
237.04	64.17
237.257	-1.37
237.475	6.83
237.692	53.93
237.909	-13.65
238.127	82.6
238.344	31.4
238.562	80.55
238.779	-50.52
238.996	4.78
239.214	72.36
239.431	88.75
239.648	51.88
239.865	88.75
240.083	111.27
240.3	47.79
240.517	51.88
240.735	21.16
240.952	33.45
241.169	60.07
241.386	117.42
241.603	-44.37
241.821	31.4
242.038	-87.38
242.255	98.99
242.472	-9.56
242.689	-27.99
242.907	195.24
243.124	31.4
243.341	72.36
243.558	39.59
243.775	111.27
243.992	-91.48
244.209	88.75
244.426	80.55
244.643	39.59
244.86	41.64
245.078	82.6
245.295	35.5
245.512	6.83
245.729	-25.94
245.946	64.17
246.163	23.21
246.38	21.16
246.597	72.36
246.814	113.32
247.031	21.16
247.248	-15.7
247.464	45.74
247.681	60.07
247.898	133.8
248.115	15.02
248.332	-3.41
248.549	47.79
248.766	117.42
248.983	107.18
249.2	-5.46
249.417	25.26
249.633	64.17
249.85	45.74
250.067	2.73
250.284	64.17
250.501	70.31
250.717	6.83
250.934	107.18
251.151	-60.76
251.368	113.32
251.585	51.88
251.801	-19.8
252.018	23.21
252.235	47.79
252.451	19.11
252.668	21.16
252.885	84.65
253.102	111.27
253.318	-34.13
253.535	43.69
253.752	17.07
253.968	27.31
254.185	-21.85
254.401	39.59
254.618	125.61
254.835	8.87
255.051	86.7
255.268	-11.61
255.484	53.93
255.701	-3.41
255.917	25.26
256.134	2.73
256.351	-42.32
256.567	39.59
256.784	37.55
257	10.92
257.217	6.83
257.433	31.4
257.65	-1.37
257.866	103.08
258.082	23.21
258.299	-38.23
258.515	-1.37
258.732	43.69
258.948	10.92
259.165	23.21
259.381	35.5
259.597	15.02
259.814	55.98
260.03	8.87
260.246	60.07
260.463	96.94
260.679	43.69
260.895	15.02
261.112	78.51
261.328	29.35
261.544	17.07
261.761	80.55
261.977	-34.13
262.193	-7.51
262.409	49.83
262.626	35.5
262.842	-19.8
263.058	27.31
263.274	43.69
263.49	113.32
263.707	64.17
263.923	49.83
264.139	-19.8
264.355	105.13
264.571	86.7
264.787	27.31
265.004	109.22
265.22	21.16
265.436	-34.13
265.652	62.12
265.868	35.5
266.084	-34.13
266.3	-1.37
266.516	31.4
266.732	33.45
266.948	4.78
267.164	10.92
267.38	105.13
267.596	45.74
267.812	58.03
268.028	23.21
268.244	15.02
268.46	96.94
268.676	-17.75
268.892	-9.56
269.108	15.02
269.324	12.97
269.54	6.83
269.756	135.85
269.972	-36.18
270.188	-3.41
270.403	47.79
270.619	96.94
270.835	17.07
271.051	15.02
271.267	-19.8
271.483	141.99
271.698	39.59
271.914	68.27
272.13	31.4
272.346	62.12
272.562	10.92
272.777	-9.56
272.993	35.5
273.209	-34.13
273.425	6.83
273.64	39.59
273.856	92.84
274.072	17.07
274.287	-32.08
274.503	133.8
274.719	29.35
274.934	6.83
275.15	31.4
275.366	96.94
275.581	-58.71
275.797	45.74
276.012	96.94
276.228	70.31
276.444	29.35
276.659	101.03
276.875	47.79
277.09	62.12
277.306	78.51
277.521	109.22
277.737	-1.37
277.952	47.79
278.168	111.27
278.383	49.83
278.599	21.16
278.814	58.03
279.03	23.21
279.245	101.03
279.461	-9.56
279.676	101.03
279.892	-1.37
280.107	-3.41
280.322	43.69
280.538	29.35
280.753	64.17
280.969	-1.37
281.184	74.41
281.399	135.85
281.615	60.07
281.83	15.02
282.045	55.98
282.26	2.73
282.476	-17.75
282.691	74.41
282.906	17.07
283.122	-7.51
283.337	-1.37
283.552	25.26
283.767	4.78
283.983	111.27
284.198	47.79
284.413	68.27
284.628	12.97
284.843	-25.94
285.058	23.21
285.274	39.59
285.489	-40.28
285.704	64.17
285.919	-52.56
286.134	15.02
286.349	39.59
286.564	101.03
286.779	47.79
286.995	-15.7
287.21	-40.28
287.425	29.35
287.64	-17.75
287.855	64.17
288.07	2.73
288.285	68.27
288.5	74.41
288.715	47.79
288.93	23.21
289.145	-15.7
289.36	10.92
289.575	70.31
289.79	96.94
290.004	51.88
290.219	17.07
290.434	31.4
290.649	-11.61
290.864	2.73
291.079	-1.37
291.294	62.12
291.509	-21.85
291.724	80.55
291.938	74.41
292.153	-5.46
292.368	60.07
292.583	43.69
292.798	80.55
293.012	27.31
293.227	23.21
293.442	58.03
293.657	33.45
293.871	113.32
294.086	47.79
294.301	80.55
294.516	47.79
294.73	58.03
294.945	-5.46
295.16	23.21
295.374	60.07
295.589	121.51
295.804	-15.7
296.018	39.59
296.233	55.98
296.447	-25.94
296.662	101.03
296.877	8.87
297.091	64.17
297.306	70.31
297.52	60.07
297.735	55.98
297.949	12.97
298.164	80.55
298.378	0.68
298.593	17.07
298.807	-52.56
299.022	6.83
299.236	88.75
299.451	37.55
299.665	-3.41
299.88	31.4
300.094	58.03
300.309	72.36
300.523	43.69
300.737	-5.46
300.952	68.27
301.166	-13.65
301.381	47.79
301.595	17.07
301.809	84.65
302.024	12.97
302.238	-25.94
302.452	109.22
302.667	43.69
302.881	23.21
303.095	96.94
303.309	15.02
303.524	39.59
303.738	0.68
303.952	-7.51
304.166	37.55
304.381	29.35
304.595	45.74
304.809	-66.9
305.023	19.11
305.237	109.22
305.452	12.97
305.666	39.59
305.88	55.98
306.094	39.59
306.308	98.99
306.522	76.46
306.736	37.55
306.95	68.27
307.164	66.22
307.379	6.83
307.593	45.74
307.807	119.46
308.021	92.84
308.235	55.98
308.449	15.02
308.663	45.74
308.877	64.17
309.091	47.79
309.305	74.41
309.519	-93.52
309.733	55.98
309.947	39.59
310.161	17.07
310.374	80.55
310.588	39.59
310.802	-66.9
311.016	96.94
311.23	41.64
311.444	-25.94
311.658	47.79
311.872	39.59
312.085	41.64
312.299	111.27
312.513	17.07
312.727	39.59
312.941	-5.46
313.154	78.51
313.368	23.21
313.582	90.79
313.796	60.07
314.009	21.16
314.223	78.51
314.437	113.32
314.651	12.97
314.864	51.88
315.078	43.69
315.292	4.78
315.505	29.35
315.719	80.55
315.933	-5.46
316.146	21.16
316.36	-19.8
316.573	58.03
316.787	62.12
317.001	35.5
317.214	15.02
317.428	23.21
317.641	23.21
317.855	31.4
318.068	105.13
318.282	60.07
318.495	105.13
318.709	127.66
318.922	12.97
319.136	15.02
319.349	29.35
319.563	47.79
319.776	35.5
319.99	101.03
320.203	150.18
320.417	19.11
320.63	6.83
320.843	84.65
321.057	-3.41
321.27	92.84
321.483	66.22
321.697	125.61
321.91	10.92
322.124	129.7
322.337	49.83
322.55	-5.46
322.763	31.4
322.977	37.55
323.19	-13.65
323.403	107.18
323.617	-36.18
323.83	76.46
324.043	51.88
324.256	86.7
324.469	-25.94
324.683	94.89
324.896	137.9
325.109	49.83
325.322	-15.7
325.535	31.4
325.748	117.42
325.962	64.17
326.175	152.23
326.388	135.85
326.601	127.66
326.814	88.75
327.027	51.88
327.24	119.46
327.453	8.87
327.666	53.93
327.879	92.84
328.092	98.99
328.305	29.35
328.518	-3.41
328.731	31.4
328.944	37.55
329.157	72.36
329.37	8.87
329.583	47.79
329.796	115.37
330.009	23.21
330.222	37.55
330.435	96.94
330.648	-3.41
330.861	113.32
331.073	64.17
331.286	115.37
331.499	-25.94
331.712	-1.37
331.925	55.98
332.138	72.36
332.35	82.6
332.563	43.69
332.776	53.93
332.989	-17.75
333.202	35.5
333.414	21.16
333.627	-11.61
333.84	-17.75
334.053	92.84
334.265	45.74
334.478	-19.8
334.691	90.79
334.903	58.03
335.116	-13.65
335.329	101.03
335.541	15.02
335.754	182.95
335.966	39.59
336.179	15.02
336.392	17.07
336.604	72.36
336.817	113.32
337.029	-40.28
337.242	47.79
337.454	60.07
337.667	37.55
337.88	53.93
338.092	31.4
338.305	47.79
338.517	49.83
338.729	-36.18
338.942	23.21
339.154	-50.52
339.367	-3.41
339.579	101.03
339.792	53.93
340.004	96.94
340.217	68.27
340.429	88.75
340.641	-32.08
340.854	23.21
341.066	62.12
341.278	64.17
341.491	47.79
341.703	68.27
341.915	-9.56
342.128	72.36
342.34	90.79
342.552	-50.52
342.764	-9.56
342.977	8.87
343.189	162.47
343.401	-50.52
343.613	12.97
343.826	6.83
344.038	-13.65
344.25	35.5
344.462	68.27
344.674	111.27
344.886	23.21
345.099	35.5
345.311	101.03
345.523	2.73
345.735	-21.85
345.947	92.84
346.159	137.9
346.371	82.6
346.583	27.31
346.795	80.55
347.007	39.59
347.219	-3.41
347.431	10.92
347.643	6.83
347.855	129.7
348.067	51.88
348.279	-42.32
348.491	76.46
348.703	39.59
348.915	19.11
349.127	31.4
349.339	53.93
349.551	-1.37
349.763	146.09
349.975	58.03
350.187	150.18
350.399	8.87
350.61	74.41
350.822	17.07
351.034	62.12
351.246	17.07
351.458	-5.46
351.669	47.79
351.881	111.27
352.093	35.5
352.305	107.18
352.517	35.5
352.728	135.85
352.94	94.89
353.152	-13.65
353.363	86.7
353.575	10.92
353.787	62.12
353.999	45.74
354.21	141.99
354.422	27.31
354.633	78.51
354.845	0.68
355.057	39.59
355.268	121.51
355.48	88.75
355.692	-25.94
355.903	31.4
356.115	62.12
356.326	31.4
356.538	86.7
356.749	148.14
356.961	88.75
357.172	74.41
357.384	43.69
357.595	121.51
357.807	29.35
358.018	55.98
358.23	94.89
358.441	121.51
358.653	53.93
358.864	62.12
359.075	-50.52
359.287	27.31
359.498	86.7
359.709	49.83
359.921	17.07
360.132	66.22
360.344	135.85
360.555	-19.8
360.766	6.83
360.977	68.27
361.189	117.42
361.4	31.4
361.611	96.94
361.823	17.07
362.034	70.31
362.245	19.11
362.456	53.93
362.667	23.21
362.879	84.65
363.09	37.55
363.301	86.7
363.512	49.83
363.723	31.4
363.935	35.5
364.146	78.51
364.357	62.12
364.568	64.17
364.779	4.78
364.99	84.65
365.201	23.21
365.412	31.4
365.623	29.35
365.834	29.35
366.045	2.73
366.256	15.02
366.467	119.46
366.678	15.02
366.889	125.61
367.1	86.7
367.311	55.98
367.522	80.55
367.733	90.79
367.944	72.36
368.155	-36.18
368.366	90.79
368.577	180.9
368.788	55.98
368.999	43.69
369.209	47.79
369.42	129.7
369.631	160.42
369.842	90.79
370.053	68.27
370.264	45.74
370.474	64.17
370.685	47.79
370.896	35.5
371.107	66.22
371.317	12.97
371.528	49.83
371.739	123.56
371.95	31.4
372.16	-9.56
372.371	19.11
372.582	15.02
372.792	37.55
373.003	23.21
373.214	39.59
373.424	127.66
373.635	4.78
373.846	49.83
374.056	152.23
374.267	-5.46
374.477	64.17
374.688	39.59
374.898	78.51
375.109	58.03
375.319	29.35
375.53	90.79
375.74	4.78
375.951	45.74
376.161	90.79
376.372	109.22
376.582	72.36
376.793	154.28
377.003	15.02
377.214	86.7
377.424	35.5
377.635	43.69
377.845	35.5
378.055	33.45
378.266	58.03
378.476	76.46
378.686	27.31
378.897	-17.75
379.107	84.65
379.317	23.21
379.528	37.55
379.738	43.69
379.948	6.83
380.158	84.65
380.369	98.99
380.579	119.46
380.789	6.83
380.999	92.84
381.21	6.83
381.42	121.51
381.63	31.4
381.84	12.97
382.05	23.21
382.261	39.59
382.471	121.51
382.681	51.88
382.891	66.22
383.101	39.59
383.311	-3.41
383.521	2.73
383.731	92.84
383.941	58.03
384.151	41.64
384.361	45.74
384.571	55.98
384.781	80.55
384.991	129.7
385.201	113.32
385.411	23.21
385.621	29.35
385.831	15.02
386.041	64.17
386.251	53.93
386.461	172.71
386.671	113.32
386.881	64.17
387.091	117.42
387.301	39.59
387.511	47.79
387.72	141.99
387.93	35.5
388.14	-13.65
388.35	64.17
388.56	17.07
388.769	111.27
388.979	66.22
389.189	8.87
389.399	66.22
389.609	109.22
389.818	88.75
390.028	-25.94
390.238	-3.41
390.447	101.03
390.657	68.27
390.867	64.17
391.076	21.16
391.286	43.69
391.496	39.59
391.705	101.03
391.915	64.17
392.125	72.36
392.334	2.73
392.544	39.59
392.753	84.65
392.963	31.4
393.172	64.17
393.382	10.92
393.591	117.42
393.801	25.26
394.01	76.46
394.22	105.13
394.429	17.07
394.639	-9.56
394.848	98.99
395.058	37.55
395.267	105.13
395.477	96.94
395.686	39.59
395.895	146.09
396.105	141.99
396.314	105.13
396.524	58.03
396.733	66.22
396.942	160.42
397.152	105.13
397.361	129.7
397.57	80.55
397.78	72.36
397.989	47.79
398.198	144.04
398.407	55.98
398.617	94.89
398.826	125.61
399.035	80.55
399.244	101.03
399.453	166.57
399.663	129.7
399.872	113.32
400.081	62.12
400.29	170.66
400.499	47.79
400.708	135.85
400.917	72.36
401.127	76.46
401.336	123.56
401.545	160.42
401.754	121.51
401.963	166.57
402.172	117.42
402.381	88.75
402.59	23.21
402.799	43.69
403.008	96.94
403.217	162.47
403.426	86.7
403.635	129.7
403.844	68.27
404.053	125.61
404.262	113.32
404.471	201.38
404.68	119.46
404.888	105.13
405.097	178.86
405.306	113.32
405.515	111.27
405.724	150.18
405.933	156.33
406.142	189.1
406.35	168.62
406.559	146.09
406.768	225.96
406.977	182.95
407.185	187.05
407.394	197.29
407.603	80.55
407.812	215.72
408.02	256.68
408.229	254.63
408.438	258.73
408.646	154.28
408.855	211.62
409.064	230.06
409.272	193.19
409.481	236.2
409.69	234.15
409.898	234.15
410.107	236.2
410.315	309.93
410.524	297.64
410.733	277.16
410.941	340.65
411.15	316.07
411.358	359.08
411.567	369.32
411.775	357.03
411.984	447.14
412.192	352.93
412.401	322.21
412.609	402.08
412.818	428.71
413.026	348.84
413.234	410.28
413.443	432.8
413.651	397.99
413.86	481.96
414.068	594.59
414.276	453.28
414.485	516.77
414.693	561.83
414.901	668.32
415.11	529.06
415.318	557.73
415.526	635.55
415.734	701.09
415.943	635.55
416.151	664.22
416.359	707.23
416.567	723.62
416.776	760.48
416.984	746.14
417.192	764.57
417.4	760.48
417.608	735.9
417.817	846.49
418.025	934.56
418.233	989.85
418.441	856.73
418.649	1045.15
418.857	1116.83
419.065	1043.1
419.273	1043.1
419.481	1143.45
419.689	1137.31
419.897	1227.42
420.105	1266.33
420.313	1362.58
420.521	1299.09
420.729	1342.1
420.937	1264.28
421.145	1401.49
421.353	1555.09
421.561	1596.05
421.769	1614.48
421.977	1817.23
422.185	1755.79
422.393	1821.33
422.601	1888.91
422.809	2003.6
423.017	2042.51
423.224	1979.02
423.432	2126.47
423.64	2034.32
423.848	2292.36
424.056	2159.24
424.263	2417.29
424.471	2398.85
424.679	2419.33
424.887	2466.44
425.094	2634.37
425.302	2726.53
425.51	2648.71
425.718	2808.45
425.925	2794.11
426.133	2800.26
426.341	3215.99
426.548	3213.95
426.756	3242.62
426.964	3207.8
427.171	3431.03
427.379	3525.24
427.586	3568.24
427.794	3684.98
428.001	3914.35
428.209	3951.21
428.417	4043.37
428.624	4266.6
428.832	4305.51
429.039	4168.3
429.247	4285.03
429.454	4608.61
429.662	5001.82
429.869	4635.24
430.076	4960.86
430.284	4764.26
430.491	5104.22
430.699	5343.83
430.906	5294.68
431.114	5640.79
431.321	5581.4
431.528	5778
431.736	6099.53
431.943	6373.96
432.15	6140.49
432.358	6228.56
432.565	6683.2
432.772	6568.52
432.979	7006.78
433.187	6912.58
433.394	6988.35
433.601	7346.75
433.808	7600.69
434.016	7778.87
434.223	7795.25
434.43	8239.66
434.637	8325.68
434.844	8559.14
435.052	8886.82
435.259	8751.65
435.466	8845.86
435.673	8651.3
435.88	9251.36
436.087	9933.33
436.294	10082.83
436.501	9607.7
436.708	9777.69
436.915	10127.89
437.122	10457.61
437.329	10560.01
437.537	11037.19
437.743	11158.02
437.95	11037.19
438.157	11680.25
438.364	11971.06
438.571	11883
438.778	12052.98
438.985	13167.07
439.192	12476.91
439.399	13007.33
439.606	12671.47
439.813	13451.74
440.02	14383.57
440.227	14100.95
440.433	13834.71
440.64	14449.1
440.847	14272.98
441.054	14670.28
441.261	15497.66
441.467	15362.5
441.674	15985.08
441.881	16179.64
442.088	16259.51
442.294	16056.76
442.501	16398.77
442.708	16955.82
442.914	17461.66
443.121	18467.22
443.328	17678.75
443.534	19036.55
443.741	18569.62
443.948	18518.42
444.154	19599.74
444.361	19444.1
444.568	19634.56
444.774	19566.98
444.981	19896.7
445.187	20459.89
445.394	21297.51
445.6	21203.3
445.807	22864.21
446.013	21885.28
446.22	22458.71
446.426	23234.89
446.633	23484.74
446.839	24305.98
447.046	23269.7
447.252	24435
447.459	24373.56
447.665	24346.94
447.871	25465.13
448.078	26607.89
448.284	25631.01
448.491	26016.03
448.697	27181.32
448.903	27689.22
449.11	27422.98
449.316	27177.23
449.522	27656.45
449.728	28303.61
449.935	28541.18
450.141	28723.44
450.347	29176.05
450.553	28479.74
450.76	28506.36
450.966	29429.99
451.172	29092.08
451.378	29972.71
451.584	29346.03
451.791	30077.15
451.997	29575.4
452.203	30032.1
452.409	30095.58
452.615	30331.1
452.821	29196.53
453.027	28813.56
453.233	30255.33
453.44	28729.59
453.646	29290.73
453.852	29421.8
454.058	30097.63
454.264	28768.5
454.47	29335.79
454.676	28911.86
454.882	29796.58
455.088	27271.43
455.294	27476.23
455.5	28053.76
455.705	28135.68
455.911	27171.08
456.117	26386.71
456.323	26128.67
456.529	24729.91
456.735	25876.77
456.941	25114.92
457.147	24871.22
457.352	23906.62
457.558	23937.34
457.764	23818.56
457.97	23308.61
458.176	22833.49
458.381	22602.07
458.587	21651.81
458.793	21563.75
458.999	20420.98
459.204	22083.93
459.41	21358.95
459.616	20019.58
459.821	20074.87
460.027	19691.9
460.233	19276.16
460.438	18540.94
460.644	18729.36
460.85	17672.6
461.055	17527.2
461.261	17189.28
461.466	16120.24
461.672	15636.92
461.878	16705.96
462.083	15612.35
462.289	15514.05
462.494	15337.92
462.7	14719.43
462.905	14150.1
463.111	14586.32
463.316	14758.35
463.522	14447.05
463.727	13998.55
463.932	14475.73
464.138	14367.18
464.343	14019.03
464.549	13793.75
464.754	14211.54
464.959	14500.3
465.165	14068.18
465.37	13494.75
465.575	13128.16
465.781	13593.05
465.986	13726.17
466.191	13392.35
466.397	13128.16
466.602	12304.88
466.807	12745.19
467.012	12986.85
467.218	12636.65
467.423	12446.19
467.628	12880.36
467.833	13248.99
468.038	12538.35
468.244	12222.96
468.449	12792.3
468.654	12425.71
468.859	12268.02
469.064	12218.86
469.269	11768.31
469.474	11880.95
469.679	12114.42
469.885	11698.68
470.09	11921.91
470.295	11889.14
470.5	11553.27
470.705	11629.05
470.91	11352.57
471.115	11219.46
471.32	11448.83
471.525	11276.8
471.73	11121.15
471.935	10959.36
472.139	10654.22
472.344	10738.18
472.549	10764.81
472.754	10607.11
472.959	10375.69
473.164	10074.64
473.369	9970.19
473.574	10222.09
473.778	10344.97
473.983	10205.71
474.188	10150.42
474.393	9587.22
474.598	9677.33
474.802	9312.8
475.007	9484.83
475.212	9777.69
475.417	9112.1
475.621	9185.82
475.826	9361.95
476.031	9159.2
476.235	8870.44
476.44	9060.9
476.645	8860.2
476.849	8768.04
477.054	8755.75
477.259	8487.47
477.463	8639.01
477.668	8309.29
477.872	8520.23
478.077	8297
478.282	7985.71
478.486	8065.58
478.691	8075.82
478.895	8100.4
479.1	7879.22
479.304	7891.51
479.509	7715.38
479.713	7998
479.918	7760.44
480.122	7682.61
480.326	7662.13
480.531	7608.89
480.735	7584.31
480.94	7465.53
481.144	7662.13
481.348	7307.84
481.553	7426.62
481.757	7303.74
481.961	7264.83
482.166	7537.21
482.37	7328.31
482.574	7279.16
482.778	7406.14
482.983	7467.58
483.187	7399.99
483.391	7451.19
483.595	7301.69
483.8	7125.57
484.004	7535.16
484.208	7529.02
484.412	7451.19
484.616	7443
484.821	7412.28
485.025	7445.05
485.229	7404.09
485.433	7350.84
485.637	7318.07
485.841	7273.02
486.045	7508.54
486.249	7557.69
486.453	7369.27
486.657	7434.81
486.861	7453.24
487.065	7160.38
487.269	7381.56
487.473	7135.81
487.677	7291.45
487.881	7432.76
488.085	7457.34
488.289	7473.72
488.493	7227.96
488.697	7569.98
488.901	7313.98
489.105	7502.39
489.309	7367.23
489.512	7348.79
489.716	7367.23
489.92	7465.53
490.124	7340.6
490.328	7465.53
490.531	7318.07
490.735	7524.92
490.939	7531.06
491.143	7592.5
491.346	7440.95
491.55	7483.96
491.754	7610.93
491.958	7612.98
492.161	7477.82
492.365	7739.96
492.569	7639.61
492.772	7737.91
492.976	7866.93
493.18	7823.92
493.383	7952.95
493.587	7952.95
493.79	8149.55
493.994	7936.56
494.197	8194.61
494.401	7977.52
494.605	8161.84
494.808	8301.1
495.012	8290.86
495.215	8428.07
495.419	8366.64
495.622	8350.25
495.825	8485.42
496.029	8673.83
496.232	8655.4
496.436	8546.86
496.639	8786.47
496.843	8892.96
497.046	8944.16
497.249	9198.11
497.453	9052.7
497.656	9249.31
497.859	9087.52
498.063	9499.16
498.266	9607.7
498.469	9417.24
498.673	9511.45
498.876	9765.4
499.079	9941.52
499.282	9798.17
499.485	10211.85
499.689	10156.56
499.892	10181.14
500.095	10039.83
500.298	10648.07
500.501	10539.53
500.705	10754.57
500.908	10793.48
501.111	11053.57
501.314	11088.39
501.517	11078.15
501.72	11041.28
501.923	11178.5
502.126	11393.53
502.329	11809.27
502.532	11880.95
502.735	11848.18
502.938	12204.53
503.141	12030.45
503.344	12288.5
503.547	12370.41
503.75	12450.28
503.953	12693.99
504.156	12667.37
504.359	12855.78
504.562	13013.48
504.765	13218.27
504.968	13410.78
505.17	13490.65
505.373	13416.93
505.576	13863.38
505.779	13892.05
505.982	14066.13
506.185	14170.58
506.387	14291.41
506.59	14428.62
506.793	14555.6
506.996	14813.64
507.198	15458.75
507.401	14801.35
507.604	15215.04
507.807	15600.06
508.009	15579.58
508.212	15565.25
508.415	16036.28
508.617	15972.79
508.82	16228.79
509.022	16064.95
509.225	16574.89
509.428	16546.22
509.63	16961.96
509.833	16837.03
510.035	17211.81
510.238	17185.19
510.44	17385.89
510.643	17568.16
510.845	17627.55
511.048	17785.24
511.25	17992.09
511.453	18069.91
511.655	18848.14
511.858	18536.85
512.06	18715.02
512.262	19014.02
512.465	18764.17
512.667	19005.83
512.87	19407.23
513.072	19290.5
513.274	19837.31
513.477	19802.49
513.679	20007.29
513.881	20562.29
514.084	20515.19
514.286	20445.55
514.488	20676.98
514.69	21336.42
514.893	21061.99
515.095	21123.43
515.297	21324.13
515.499	21543.27
515.701	21971.29
515.904	22153.56
516.106	22094.17
516.308	22432.08
516.51	22620.5
516.712	22536.53
516.914	23107.91
517.116	23509.32
517.318	23460.16
517.52	23265.61
517.722	24099.13
517.925	24045.88
518.127	24510.77
518.329	24541.49
518.531	24322.36
518.733	24777.01
518.935	25102.64
519.136	25192.75
519.338	25409.83
519.54	25497.89
519.742	25837.86
519.944	26089.76
520.146	26343.7
520.348	26433.82
520.55	26706.2
520.752	26634.52
520.954	27142.41
521.155	27234.57
521.357	27490.57
521.559	27855.11
521.761	28037.37
521.963	28152.06
522.164	28465.4
522.366	28426.49
522.568	28758.26
522.77	28866.8
522.971	29399.27
523.173	28788.98
523.375	29290.73
523.576	29638.89
523.778	29667.56
523.98	30214.37
524.181	30396.63
524.383	30314.72
524.584	30800.08
524.786	30531.8
524.988	30392.54
525.189	31303.88
525.391	31301.84
525.592	31332.56
525.794	31531.21
525.995	31547.59
526.197	31961.28
526.398	31668.42
526.6	32422.08
526.801	32370.88
527.003	32385.21
527.204	32651.45
527.406	32874.68
527.607	32950.45
527.808	33323.18
528.01	32633.02
528.211	33188.02
528.412	33730.73
528.614	33786.02
528.815	33671.34
529.016	33820.84
529.218	33673.38
529.419	34109.6
529.62	33706.15
529.822	34183.33
530.023	34123.94
530.224	34089.12
530.425	34717.85
530.626	33996.96
530.828	34316.45
531.029	35098.77
531.23	34701.47
531.431	34746.52
531.632	34893.97
531.833	35076.24
532.035	35078.29
532.236	35164.31
532.437	35246.22
532.638	35086.48
532.839	35604.62
533.04	35549.32
533.241	35217.55
533.442	35762.31
533.643	35774.6
533.844	35309.71
534.045	35723.4
534.246	35537.04
534.447	35922.05
534.648	35459.21
534.849	35872.9
535.05	35756.17
535.251	35508.36
535.451	35854.47
535.652	36024.45
535.853	35883.14
536.054	36137.09
536.255	36323.46
536.456	35772.55
536.657	36032.64
536.857	35842.18
537.058	35833.99
537.259	36133
537.46	36077.7
537.66	36141.19
537.861	36135.04
538.062	36096.13
538.263	36145.28
538.463	35993.73
538.664	36298.88
538.865	36282.5
539.065	35782.79
539.266	35915.91
539.466	36466.81
539.667	35782.79
539.868	36257.92
540.068	36153.47
540.269	36128.9
540.469	36251.78
540.67	35825.8
540.87	36071.56
541.071	36339.84
541.271	35864.71
541.472	36180.1
541.672	36169.86
541.873	36114.56
542.073	35637.39
542.274	36669.56
542.474	35922.05
542.675	35979.4
542.875	36378.75
543.075	35823.75
543.276	35549.32
543.476	36053.12
543.676	35606.67
543.877	36159.62
544.077	35938.44
544.277	36364.42
544.478	36151.43
544.678	36278.4
544.878	36003.97
545.078	36141.19
545.279	35700.87
545.479	35688.59
545.679	35967.11
545.879	36151.43
546.079	36315.26
546.28	35569.8
546.48	35424.4
546.68	36098.18
546.88	36073.6
547.08	35840.14
547.28	35983.49
547.48	35709.07
547.68	36112.52
547.88	35735.69
548.081	35690.63
548.281	35889.29
548.481	35713.16
548.681	36440.19
548.881	35725.45
549.081	36081.8
549.28	35719.31
549.48	35852.42
549.68	35735.69
549.88	36601.98
550.08	35801.22
550.28	35979.4
550.48	35471.5
550.68	35903.62
550.88	35645.58
551.08	35717.26
551.279	35326.1
551.479	35825.8
551.679	36085.89
551.879	35604.62
552.079	35694.73
552.278	35600.52
552.478	35694.73
552.678	35715.21
552.878	35901.57
553.077	35649.67
553.277	35246.22
553.477	35735.69
553.676	35205.27
553.876	35291.28
554.076	35496.08
554.275	35362.96
554.475	35358.86
554.674	35379.34
554.874	35250.32
555.074	35260.56
555.273	35553.42
555.473	35387.53
555.672	34783.38
555.872	34848.92
556.071	34814.1
556.271	35264.66
556.47	34953.37
556.67	35039.38
556.869	34676.89
557.068	35008.66
557.268	34723.99
557.467	34758.81
557.667	34672.79
557.866	34459.8
558.065	34240.67
558.265	34472.09
558.464	34070.69
558.663	34611.35
558.863	34066.59
559.062	34531.48
559.261	33888.42
559.461	34603.16
559.66	33939.62
559.859	33935.52
560.058	33562.79
560.258	33964.2
560.457	33419.44
560.656	33804.45
560.855	33431.72
561.054	33685.67
561.253	33607.85
561.453	33491.12
561.652	33472.68
561.851	33218.74
562.05	33239.22
562.249	33128.63
562.448	33360.05
562.647	33106.1
562.846	32938.16
563.045	32596.15
563.244	32354.49
563.443	32946.36
563.642	32250.05
563.841	32463.04
564.04	32063.68
564.239	32704.7
564.438	32352.44
564.637	32055.49
564.836	32092.35
565.035	31983.81
565.234	32032.96
565.432	31449.29
565.631	31387.85
565.83	31742.15
566.029	31334.6
566.228	31414.48
566.427	30943.44
566.625	31215.82
566.824	31082.7
567.023	31369.42
567.222	30515.42
567.42	30982.35
567.619	30789.84
567.818	30488.79
568.016	30460.12
568.215	30703.83
568.414	30136.54
568.612	30492.89
568.811	30044.38
569.01	30486.75
569.208	29769.96
569.407	29923.55
569.605	29661.41
569.804	29800.68
570.002	29417.71
570.201	29540.58
570.4	29413.61
570.598	29112.56
570.797	29196.53
570.995	29321.45
571.193	28643.57
571.392	29227.24
571.59	28831.99
571.789	28498.17
571.987	28905.71
572.186	28801.27
572.384	28551.41
572.582	28350.71
572.781	28397.82
572.979	27969.79
573.177	28082.43
573.376	28229.88
573.574	28023.04
573.772	28166.4
573.971	27693.32
574.169	27517.19
574.367	27484.42
574.565	27578.63
574.763	27586.82
574.962	27478.28
575.16	26845.46
575.358	27115.79
575.556	26870.03
575.754	27259.15
575.952	26822.93
576.151	26964.24
576.349	26611.99
576.547	26771.73
576.745	26562.84
576.943	26988.81
577.141	26249.5
577.339	26708.24
577.537	26196.25
577.735	26540.31
577.933	26083.61
578.131	26116.38
578.329	25817.38
578.527	25690.4
578.725	25905.44
578.923	25854.24
579.121	25590.05
579.319	25753.89
579.516	25708.83
579.714	25501.99
579.912	25725.22
580.11	25653.54
580.308	25420.07
580.506	25088.3
580.704	24791.34
580.901	24944.94
581.099	25366.82
581.297	25006.38
581.495	25129.26
581.692	24959.28
581.89	24684.85
582.088	24856.88
582.285	24846.64
582.483	24756.53
582.681	24293.69
582.878	24070.46
583.076	23793.98
583.274	24484.15
583.471	23992.64
583.669	24465.72
583.866	23931.2
584.064	23976.25
584.262	23996.73
584.459	23953.73
584.657	23834.94
584.854	23734.59
585.052	23271.75
585.249	23664.96
585.447	23732.54
585.644	23333.19
585.841	23146.83
586.039	23734.59
586.236	23107.91
586.434	23107.91
586.631	23095.63
586.828	23097.67
587.026	22833.49
587.223	23091.53
587.42	22565.2
587.618	22880.59
587.815	22712.66
588.012	22298.97
588.21	22483.28
588.407	22546.77
588.604	22276.44
588.801	22155.61
588.999	22149.46
589.196	21983.58
589.393	21864.8
589.59	21924.19
589.787	21926.24
589.984	22042.97
590.182	21680.48
590.379	21872.99
590.576	21711.2
590.773	21762.4
590.97	21385.57
591.167	21922.14
591.364	21268.84
591.561	21692.77
591.758	20992.36
591.955	21174.63
592.152	21188.97
592.349	21064.04
592.546	20871.53
592.743	21111.14
592.94	20846.96
593.137	20859.24
593.334	20812.14
593.531	20560.24
593.727	20969.83
593.924	20898.16
594.121	20541.81
594.318	20638.06
594.515	20232.57
594.712	20418.93
594.908	20636.02
595.105	20261.24
595.302	19851.64
595.499	20093.3
595.696	19908.99
595.892	19849.6
596.089	19911.03
596.286	19954.04
596.482	20121.98
596.679	19741.05
596.876	19685.76
597.072	20040.06
597.269	19589.5
597.466	19403.14
597.662	19591.55
597.859	19630.46
598.055	19282.31
598.252	19014.02
598.448	19210.63
598.645	19433.86
598.841	18876.81
599.038	19251.59
599.234	19091.85
599.431	18743.69
599.627	19040.65
599.824	18702.73
600.02	18674.06
600.217	18741.64
600.413	18502.03
600.609	18766.22
600.806	18667.92
601.002	18524.56
601.198	18272.66
601.395	18450.83
601.591	18346.39
601.787	18239.89
601.984	18297.24
602.18	18114.97
602.376	17910.17
602.572	17881.5
602.769	18147.73
602.965	18065.81
603.161	17883.55
603.357	17881.5
603.553	17787.29
603.75	17576.35
603.946	17578.4
604.142	17623.45
604.338	17430.94
604.534	17543.58
604.73	17320.35
604.926	17322.4
605.122	17295.78
605.318	17136.04
605.514	16982.44
605.71	17129.89
605.906	17029.54
606.102	17152.42
606.298	17019.3
606.494	17105.32
606.69	16857.51
606.886	16912.81
607.082	16628.14
607.278	16447.92
607.474	16894.38
607.67	16882.09
607.866	16245.17
608.062	16777.64
608.257	16652.72
608.453	16564.65
608.649	16570.8
608.845	16503.21
609.041	16597.42
609.236	16474.54
609.432	16241.07
609.628	16206.26
609.824	16157.11
610.019	16247.22
610.215	16181.68
610.411	16265.65
610.606	16099.76
610.802	16062.9
610.998	15995.32
611.193	16243.12
611.389	16071.09
611.584	16103.86
611.78	15606.2
611.976	16118.2
612.171	15907.26
612.367	15755.71
612.562	15823.29
612.758	15425.98
612.953	15509.95
613.149	15874.49
613.344	15657.4
613.539	15751.61
613.735	15477.18
613.93	15649.21
614.126	15380.93
614.321	15593.92
614.517	15489.47
614.712	15497.66
614.907	15024.58
615.103	15446.46
615.298	15229.38
615.493	15677.88
615.688	14938.57
615.884	15354.3
616.079	14891.46
616.274	15075.78
616.47	15278.53
616.665	15137.22
616.86	14895.56
617.055	15092.16
617.25	14965.19
617.445	15126.98
617.641	14670.28
617.836	14887.37
618.031	14696.91
618.226	14684.62
618.421	14641.61
618.616	14715.34
618.811	14524.88
619.006	14725.58
619.201	14268.88
619.396	14703.05
619.591	14211.54
619.786	14393.81
619.981	14213.59
620.176	14285.26
620.371	14055.89
620.566	14305.74
620.761	14084.56
620.956	14070.23
621.151	13857.24
621.346	14008.79
621.541	13660.63
621.735	13816.28
621.93	13513.18
622.125	13539.8
622.32	13382.11
622.515	13453.79
622.709	13371.87
622.904	13253.09
623.099	13261.28
623.294	13244.9
623.488	13093.35
623.683	13236.7
623.878	12859.88
624.072	12958.18
624.267	12982.76
624.462	12841.45
624.656	12730.86
624.851	12898.79
625.046	12589.55
625.24	12517.87
625.435	12329.45
625.629	12495.34
625.824	12448.24
626.018	12532.2
626.213	12143.09
626.407	12138.99
626.602	12020.21
626.796	12091.89
626.991	12020.21
627.185	11786.74
627.38	11627
627.574	11833.85
627.768	11596.28
627.963	11522.55
628.157	11569.66
628.352	11651.58
628.546	11383.29
628.74	11459.07
628.935	11121.15
629.129	11411.96
629.323	11141.63
629.517	11129.34
629.712	10899.97
629.906	10942.98
630.1	10992.13
630.294	10729.99
630.489	10803.72
630.683	10611.21
630.877	10619.4
631.071	10768.9
631.265	10603.02
631.459	10496.52
631.653	10465.8
631.848	10607.11
632.042	10355.21
632.236	10279.44
632.43	10134.03
632.624	10367.5
632.818	10150.42
633.012	10242.57
633.206	10013.2
633.4	9914.9
633.594	9937.43
633.788	9810.45
633.982	9898.52
634.176	9968.15
634.369	9765.4
634.563	9507.35
634.757	9718.29
634.951	9652.76
635.145	9689.62
635.339	9581.08
635.533	9554.46
635.726	9441.82
635.92	9331.23
636.114	9392.67
636.308	9255.45
636.501	9345.56
636.695	9275.93
636.889	9103.9
637.083	9263.65
637.276	9099.81
637.47	9069.09
637.664	8976.93
637.857	9071.14
638.051	8751.65
638.244	8950.31
638.438	8710.69
638.632	8927.78
638.825	8550.95
639.019	8661.54
639.212	8491.56
639.406	8663.59
639.599	8395.31
639.793	8647.21
639.986	8366.64
640.18	8401.45
640.373	8323.63
640.567	8370.73
640.76	8243.76
640.954	8161.84
641.147	8032.82
641.34	8075.82
641.534	8092.21
641.727	7914.03
641.92	8065.58
642.114	7957.04
642.307	7897.65
642.5	7932.47
642.694	7588.41
642.887	7742
643.08	7801.4
643.273	7742
643.467	7658.04
643.66	7744.05
643.853	7408.19
644.046	7582.26
644.239	7582.26
644.432	7445.05
644.626	7299.64
644.819	7438.91
645.012	7344.7
645.205	7338.55
645.398	7316.03
645.591	7180.86
645.784	7211.58
645.977	7033.41
646.17	7131.71
646.363	7064.13
646.556	7092.8
646.749	7047.74
646.942	6898.24
647.135	6789.7
647.328	7043.65
647.521	6912.58
647.714	6840.9
647.907	6726.21
648.099	6736.45
648.292	6773.32
648.485	6744.64
648.678	6765.12
648.871	6724.16
649.064	6580.81
649.256	6525.51
649.449	6543.94
649.642	6517.32
649.835	6425.16
650.027	6453.83
650.22	6406.73
650.413	6265.42
650.605	6408.78
650.798	6404.68
650.991	6232.65
651.183	6216.27
651.376	6193.74
651.568	6173.26
651.761	6085.2
651.954	6142.54
652.146	6175.31
652.339	6038.09
652.531	6031.95
652.724	6064.72
652.916	5861.97
653.109	5806.67
653.301	5956.18
653.494	5911.12
653.686	5851.73
653.879	6007.37
654.071	5864.02
654.263	5732.95
654.456	5716.56
654.648	5876.3
654.84	5765.71
655.033	5589.59
655.225	5683.8
655.417	5730.9
655.61	5696.08
655.802	5493.33
655.994	5595.73
656.186	5522.01
656.379	5495.38
656.571	5583.45
656.763	5364.31
656.955	5479
657.148	5493.33
657.34	5585.49
657.532	5294.68
657.724	5444.18
657.916	5331.55
658.108	5345.88
658.3	5335.64
658.492	5266.01
658.684	5206.62
658.876	5192.28
659.068	5259.87
659.26	5192.28
659.452	5108.32
659.644	5139.04
659.836	5169.76
660.028	5093.98
660.22	4995.68
660.412	5161.56
660.604	5020.25
660.796	5241.43
660.988	5104.22
661.18	4971.1
661.372	4967.01
661.563	4946.53
661.755	4878.94
661.947	4930.14
662.139	4794.98
662.331	4880.99
662.522	4887.14
662.714	4850.27
662.906	4883.04
663.097	4825.7
663.289	4784.74
663.481	4782.69
663.673	4805.22
663.864	4758.11
664.056	4731.49
664.247	4868.7
664.439	4702.82
664.631	4670.05
664.822	4698.72
665.014	4715.11
665.205	4606.56
665.397	4663.91
665.588	4627.04
665.78	4405.86
665.971	4635.24
666.163	4592.23
666.354	4532.84
666.546	4633.19
666.737	4500.07
666.929	4567.65
667.12	4553.32
667.311	4536.93
667.503	4616.8
667.694	4618.85
667.885	4432.49
668.077	4483.69
668.268	4375.14
668.459	4475.49
668.651	4471.4
668.842	4274.79
669.033	4461.16
669.224	4487.78
669.416	4641.38
669.607	4393.58
669.798	4477.54
669.989	4491.88
670.18	4444.77
670.371	4446.82
670.563	4557.41
670.754	4616.8
670.945	4506.21
671.136	4530.79
671.327	4534.89
671.518	4512.36
671.709	4446.82
671.9	4631.14
672.091	4475.49
672.282	4592.23
672.473	4532.84
672.664	4545.13
672.855	4373.1
673.046	4430.44
673.237	4479.59
673.428	4635.24
673.619	4565.6
673.809	4616.8
674	4414.06
674.191	4584.04
674.382	4442.73
674.573	4602.47
674.764	4622.95
674.954	4629.09
675.145	4448.87
675.336	4510.31
675.527	4547.17
675.717	4635.24
675.908	4526.69
676.099	4516.45
676.289	4475.49
676.48	4627.04
676.671	4573.8
676.861	4528.74
677.052	4633.19
677.243	4635.24
677.433	4512.36
677.624	4713.06
677.814	4516.45
678.005	4696.67
678.195	4700.77
678.386	4829.79
678.576	4622.95
678.767	4721.25
678.957	4768.35
679.148	4786.79
679.338	4788.83
679.529	4842.08
679.719	4950.62
679.909	4794.98
680.1	4878.94
680.29	5028.45
680.481	4977.25
680.671	4915.81
680.861	4913.76
681.052	5010.01
681.242	4809.31
681.432	5126.75
681.622	4967.01
681.813	5048.93
682.003	5089.88
682.193	5001.82
682.383	5214.81
682.573	5126.75
682.764	4969.05
682.954	5139.04
683.144	5110.36
683.334	5003.87
683.524	4999.77
683.714	4979.29
683.904	4995.68
684.094	5192.28
684.284	5151.32
684.474	5188.19
684.664	5210.72
684.854	5116.51
685.044	5069.41
685.234	4895.33
685.424	5124.7
685.614	5053.02
685.804	5147.23
685.994	4985.44
686.184	5216.86
686.374	5165.66
686.564	5034.59
686.753	5010.01
686.943	4899.42
687.133	4934.24
687.323	4852.32
687.513	4987.49
687.702	5014.11
687.892	4815.46
688.082	4772.45
688.272	4880.99
688.461	4815.46
688.651	4831.84
688.841	4946.53
689.03	4829.79
689.22	4655.72
689.41	4612.71
689.599	4579.94
689.789	4694.63
689.979	4663.91
690.168	4647.52
690.358	4481.64
690.547	4608.61
690.737	4475.49
690.926	4452.97
691.116	4536.93
691.305	4387.43
691.495	4495.97
691.684	4323.94
691.874	4448.87
692.063	4280.94
692.252	4352.62
692.442	4344.42
692.631	4201.07
692.82	4325.99
693.01	4217.45
693.199	4278.89
693.388	4227.69
693.578	4250.22
693.767	4100.72
693.956	4135.53
694.146	4076.14
694.335	3961.45
694.524	3906.16
694.713	3910.25
694.902	3981.93
695.092	3963.5
695.281	3928.69
695.47	3879.54
695.659	3877.49
695.848	3773.04
696.037	3902.06
696.226	3814
696.415	3824.24
696.604	3955.31
696.793	3754.61
696.982	3897.97
697.171	3842.67
697.36	3811.95
697.549	3709.55
697.738	3764.85
697.927	3664.5
698.116	3564.15
698.305	3750.51
698.494	3748.47
698.683	3590.77
698.872	3699.31
699.061	3836.53
699.25	3650.16
699.438	3560.05
699.627	3558
699.816	3693.17
700.005	3580.53
700.193	3650.16
700.382	3639.92
700.571	3586.68
700.76	3701.36
700.948	3574.39
701.137	3596.92
701.326	3646.07
701.514	3541.62
701.703	3598.96
701.892	3553.91
702.08	3689.07
702.269	3654.26
702.457	3531.38
702.646	3586.68
702.834	3756.66
703.023	3521.14
703.212	3537.52
703.4	3603.06
703.589	3666.55
703.777	3676.79
703.965	3646.07
704.154	3725.94
704.342	3623.54
704.531	3760.75
704.719	3609.2
704.907	3770.99
705.096	3535.48
705.284	3664.5
705.472	3721.84
705.661	3701.36
705.849	3721.84
706.037	3748.47
706.226	3846.77
706.414	3783.28
706.602	3713.65
706.79	3863.15
706.979	3732.08
707.167	3871.34
707.355	3695.22
707.543	3762.8
707.731	3760.75
707.919	3709.55
708.107	3871.34
708.296	3875.44
708.484	3715.7
708.672	3789.42
708.86	3877.49
709.048	3967.6
709.236	3766.9
709.424	4008.56
709.612	3838.58
709.8	3766.9
709.988	3863.15
710.176	3979.89
710.364	3926.64
710.551	3932.78
710.739	3920.49
710.927	4061.8
711.115	3940.97
711.303	3947.12
711.491	3940.97
711.679	3981.93
711.866	4125.29
712.054	4117.1
712.242	4049.52
712.43	4174.44
712.617	4121.2
712.805	4076.14
712.993	4074.09
713.181	4106.86
713.368	4252.27
713.556	4250.22
713.744	4313.7
713.931	4252.27
714.119	4227.69
714.306	4332.14
714.494	4424.3
714.682	4248.17
714.869	4223.59
715.057	4534.89
715.244	4254.31
715.432	4674.15
715.619	4477.54
715.807	4502.12
715.994	4508.26
716.182	4352.62
716.369	4485.73
716.556	4639.33
716.744	4504.17
716.931	4541.03
717.119	4604.52
717.306	4737.63
717.493	4659.81
717.681	4504.17
717.868	4782.69
718.055	4803.17
718.242	4807.27
718.43	4823.65
718.617	4903.52
718.804	4713.06
718.991	4946.53
719.179	4983.39
719.366	4864.61
719.553	4891.23
719.74	4842.08
719.927	4868.7
720.114	4860.51
720.301	4987.49
720.488	5057.12
720.676	4995.68
720.863	5055.07
721.05	5104.22
721.237	4932.19
721.424	5038.69
721.611	5145.18
721.798	5042.78
721.985	5071.45
722.172	5163.61
722.358	5182.04
722.545	5263.96
722.732	5151.32
722.919	5229.15
723.106	5249.63
723.293	5249.63
723.48	5327.45
723.667	5290.59
723.853	5327.45
724.04	5380.7
724.227	5274.2
724.414	5323.35
724.6	5337.69
724.787	5624.4
724.974	5456.47
725.161	5468.76
725.347	5431.9
725.534	5380.7
725.72	5485.14
725.907	5593.69
726.094	5610.07
726.28	5542.49
726.467	5589.59
726.653	5640.79
726.84	5612.12
727.027	5808.72
727.213	5689.94
727.4	5818.96
727.586	5562.97
727.773	5687.89
727.959	5587.54
728.145	5929.55
728.332	5763.67
728.518	5841.49
728.705	5839.44
728.891	5675.6
729.077	5872.21
729.264	5829.2
729.45	5812.82
729.636	5806.67
729.823	5904.98
730.009	5958.22
730.195	6107.73
730.382	6019.66
730.568	5993.04
730.754	6027.85
730.94	6019.66
731.126	6052.43
731.313	6140.49
731.499	5978.7
731.685	6154.83
731.871	6109.77
732.057	6134.35
732.243	6040.14
732.429	6103.63
732.615	6113.87
732.801	6222.41
732.987	6298.19
733.173	6208.08
733.359	6126.16
733.545	6175.31
733.731	6257.23
733.917	6285.9
734.103	6230.6
734.289	6339.15
734.475	6240.84
734.661	6445.64
734.847	6330.95
735.033	6324.81
735.219	6462.02
735.404	6502.98
735.59	6320.71
735.776	6386.25
735.962	6312.52
736.148	6500.94
736.333	6369.87
736.519	6142.54
736.705	6337.1
736.89	6371.91
737.076	6328.91
737.262	6095.44
737.447	6412.87
737.633	6191.69
737.819	6273.61
738.004	6212.17
738.19	6246.99
738.375	6279.75
738.561	6476.36
738.747	6271.56
738.932	6251.08
739.118	6246.99
739.303	6289.99
739.489	6433.35
739.674	6314.57
739.859	6226.51
740.045	6294.09
740.23	6357.58
740.416	6210.12
740.601	6179.4
740.786	6183.5
740.972	6169.16
741.157	6318.67
741.342	6066.77
741.528	6298.19
741.713	6214.22
741.898	6279.75
742.084	6289.99
742.269	6068.81
742.454	6244.94
742.639	6140.49
742.824	6085.2
743.01	6003.28
743.195	6068.81
743.38	6013.52
743.565	6048.33
743.75	5898.83
743.935	6007.37
744.12	6050.38
744.305	6052.43
744.49	5937.74
744.675	5808.72
744.86	5947.98
745.045	5886.54
745.23	5954.13
745.415	5722.71
745.6	5704.28
745.785	5632.6
745.97	5614.16
746.155	5735
746.34	5708.37
746.525	5583.45
746.71	5661.27
746.895	5732.95
747.079	5581.4
747.264	5362.26
747.449	5435.99
747.634	5337.69
747.819	5487.19
748.003	5315.16
748.188	5397.08
748.373	5214.81
748.557	5460.57
748.742	5266.01
748.927	5337.69
749.111	5225.05
749.296	5110.36
749.481	5188.19
749.665	5143.13
749.85	5016.16
750.034	5048.93
750.219	5124.7
750.404	5044.83
750.588	4911.71
750.773	4786.79
750.957	4960.86
751.141	4807.27
751.326	4829.79
751.51	4821.6
751.695	4651.62
751.879	4659.81
752.064	4741.73
752.248	4708.96
752.432	4551.27
752.617	4631.14
752.801	4477.54
752.985	4555.37
753.17	4489.83
753.354	4512.36
753.538	4608.61
753.722	4518.5
753.907	4397.67
754.091	4248.17
754.275	4323.94
754.459	4170.35
754.643	4274.79
754.828	4262.51
755.012	4235.88
755.196	4033.13
755.38	4184.68
755.564	4098.67
755.748	4049.52
755.932	4153.96
756.116	3930.73
756.3	3838.58
756.484	3912.3
756.668	3928.69
756.852	3826.29
757.036	3807.86
757.22	3779.18
757.404	3900.02
757.588	3652.21
757.772	3693.17
757.956	3711.6
758.14	3803.76
758.323	3519.09
758.507	3578.48
758.691	3611.25
758.875	3547.76
759.059	3662.45
759.242	3576.44
759.426	3525.24
759.61	3607.16
759.794	3418.74
759.977	3451.51
760.161	3463.8
760.345	3379.83
760.528	3267.19
760.712	3322.49
760.895	3361.4
761.079	3398.26
761.263	3236.47
761.446	3238.52
761.63	3201.66
761.813	3267.19
761.997	3111.55
762.18	3095.16
762.364	3398.26
762.547	3127.93
762.731	3242.62
762.914	3119.74
763.098	3136.12
763.281	3005.05
763.464	3078.78
763.648	3078.78
763.831	2970.24
764.015	3134.07
764.198	3050.11
764.381	3052.16
764.564	2914.94
764.748	2890.37
764.931	2888.32
765.114	2910.85
765.297	2882.17
765.481	2886.27
765.664	2890.37
765.847	2912.89
766.03	2828.93
766.213	2847.36
766.397	2841.22
766.58	2728.58
766.763	2667.14
766.946	2734.72
767.129	2734.72
767.312	2675.33
767.495	2693.76
767.678	2773.63
767.861	2634.37
768.044	2710.15
768.227	2783.87
768.41	2570.88
768.593	2663.04
768.776	2691.71
768.959	2546.31
769.142	2613.89
769.324	2480.77
769.507	2521.73
769.69	2617.99
769.873	2544.26
770.056	2527.88
770.239	2577.03
770.421	2476.68
770.604	2398.85
770.787	2454.15
770.97	2458.25
771.152	2394.76
771.335	2349.7
771.518	2333.32
771.7	2421.38
771.883	2359.94
772.066	2247.3
772.248	2423.43
772.431	2278.02
772.613	2331.27
772.796	2196.11
772.978	2300.55
773.161	2159.24
773.343	2249.35
773.526	2271.88
773.708	2054.8
773.891	2177.67
774.073	2110.09
774.256	2108.04
774.438	2189.96
774.621	2071.18
774.803	1985.16
774.985	1970.83
775.168	2003.6
775.35	2054.8
775.532	2009.74
775.715	2019.98
775.897	1993.36
776.079	2028.17
776.261	2038.41
776.444	1966.73
776.626	1888.91
776.808	1866.38
776.99	1872.53
777.173	1913.49
777.355	1862.29
777.537	1915.53
777.719	1850
777.901	1854.09
778.083	1684.11
778.265	1694.35
778.447	1862.29
778.629	1710.74
778.811	1720.98
778.993	1741.46
779.175	1696.4
779.357	1690.26
779.539	1653.39
779.721	1583.76
779.903	1612.43
780.085	1653.39
780.267	1612.43
780.449	1604.24
780.631	1608.34
780.812	1616.53
780.994	1567.38
781.176	1542.8
781.358	1579.67
781.54	1391.25
781.721	1495.7
781.903	1487.51
782.085	1460.88
782.267	1448.6
782.448	1362.58
782.63	1354.39
782.812	1374.87
782.993	1409.69
783.175	1448.6
783.357	1309.33
783.538	1329.81
783.72	1292.95
783.901	1268.38
784.083	1340.05
784.264	1333.91
784.446	1276.57
784.627	1243.8
784.809	1284.76
784.99	1188.5
785.172	1233.56
785.353	1211.03
785.535	1225.37
785.716	1180.31
785.897	1170.07
786.079	1260.18
786.26	1260.18
786.441	1325.72
786.623	1133.21
786.804	1223.32
786.985	1170.07
787.167	1172.12
787.348	1129.11
787.529	1157.78
787.71	1098.39
787.891	1125.02
788.073	1028.76
788.254	1055.39
788.435	1036.95
788.616	1149.59
788.797	1041.05
788.978	1018.52
789.159	1061.53
789.34	1067.67
789.522	1055.39
789.703	920.22
789.884	1049.24
790.065	996
790.246	1129.11
790.427	963.23
790.607	987.8
790.788	998.04
790.969	963.23
791.15	903.84
791.331	944.8
791.512	928.41
791.693	850.59
791.874	922.27
792.054	1073.82
792.235	957.08
792.416	832.16
792.597	881.31
792.778	920.22
792.958	897.69
793.139	893.6
793.32	848.54
793.5	840.35
793.681	897.69
793.862	823.97
794.042	834.21
794.223	793.25
794.404	793.25
794.584	744.1
794.765	807.58
794.945	760.48
795.126	809.63
795.306	842.4
795.487	805.53
795.667	809.63
795.848	801.44
796.028	731.81
796.209	656.03
796.389	731.81
796.57	766.62
796.75	828.06
796.93	635.55
797.111	731.81
797.291	721.57
797.471	785.05
797.652	744.1
797.832	653.98
798.012	588.45
798.192	680.61
798.373	656.03
798.553	713.38
798.733	606.88
798.913	690.85
799.093	750.24
799.274	705.18
799.454	701.09
799.634	778.91
799.814	750.24
799.994	688.8
800.174	643.74
800.354	701.09
800.534	567.97
800.714	658.08
800.894	662.18
801.074	604.83
801.254	676.51
801.434	686.75
801.614	625.31
801.794	602.79
801.974	1419.92
802.154	563.87
802.334	629.41
802.514	670.37
802.693	574.11
802.873	613.03
803.053	727.71
803.233	563.87
803.413	584.35
803.592	516.77
803.772	580.26
803.952	529.06
804.131	469.67
804.311	598.69
804.491	494.24
804.67	557.73
804.85	516.77
805.03	535.2
805.209	613.03
805.389	563.87
805.568	524.96
805.748	551.59
805.928	580.26
806.107	578.21
806.287	514.72
806.466	494.24
806.646	518.82
806.825	506.53
807.004	516.77
807.184	432.8
807.363	535.2
807.543	486.05
807.722	570.02
807.901	539.3
808.081	498.34
808.26	494.24
808.439	479.91
808.619	561.83
808.798	531.11
808.977	578.21
809.156	453.28
809.336	537.25
809.515	531.11
809.694	477.86
809.873	416.42
810.052	481.96
810.231	555.68
810.411	473.76
810.59	422.56
810.769	531.11
810.948	465.57
811.127	449.19
811.306	486.05
811.485	348.84
811.664	471.72
811.843	555.68
812.022	457.38
812.201	391.84
812.38	416.42
812.559	402.08
812.737	428.71
812.916	397.99
813.095	447.14
813.274	383.65
813.453	410.28
813.632	373.41
813.811	420.52
813.989	348.84
814.168	430.76
814.347	309.93
814.526	354.98
814.704	420.52
814.883	381.6
815.062	293.54
815.24	389.8
815.419	400.04
815.598	424.61
815.776	314.02
815.955	391.84
816.133	367.27
816.312	375.46
816.49	389.8
816.669	359.08
816.847	365.22
817.026	436.9
817.204	375.46
817.383	391.84
817.561	277.16
817.74	359.08
817.918	422.56
818.097	381.6
818.275	324.26
818.453	397.99
818.632	359.08
818.81	305.83
818.988	318.12
819.167	338.6
819.345	334.5
819.523	367.27
819.701	361.13
819.879	404.13
820.058	342.69
820.236	305.83
820.414	318.12
820.592	342.69
820.77	289.45
820.948	264.87
821.127	285.35
821.305	391.84
821.483	281.25
821.661	375.46
821.839	348.84
822.017	334.5
822.195	389.8
822.373	367.27
822.551	346.79
822.729	271.01
822.907	363.17
823.085	383.65
823.262	326.31
823.44	301.73
823.618	277.16
823.796	262.82
823.974	244.39
824.152	258.73
824.329	281.25
824.507	318.12
824.685	250.53
824.863	287.4
825.04	285.35
825.218	314.02
825.396	221.86
825.574	250.53
825.751	307.88
825.929	232.1
826.107	228.01
826.284	225.96
826.462	307.88
826.639	305.83
826.817	219.82
826.994	293.54
827.172	248.49
827.349	332.45
827.527	236.2
827.704	185
827.882	301.73
828.059	242.34
828.237	236.2
828.414	307.88
828.591	221.86
828.769	174.76
828.946	217.77
829.124	238.25
829.301	252.58
829.478	252.58
829.655	258.73
829.833	217.77
830.01	234.15
830.187	268.97
830.364	189.1
830.542	225.96
830.719	305.83
830.896	225.96
831.073	244.39
831.25	234.15
831.427	273.06
831.604	178.86
831.782	209.58
831.959	264.87
832.136	197.29
832.313	162.47
832.49	144.04
832.667	187.05
832.844	219.82
833.021	176.81
833.198	293.54
833.374	154.28
833.551	195.24
833.728	250.53
833.905	240.29
834.082	185
834.259	228.01
834.436	234.15
834.612	113.32
834.789	191.14
834.966	176.81
835.143	258.73
835.319	146.09
835.496	228.01
835.673	131.75
835.85	289.45
836.026	154.28
836.203	187.05
836.38	154.28
836.556	164.52
836.733	162.47
836.909	225.96
837.086	127.66
837.262	135.85
837.439	197.29
837.616	160.42
837.792	146.09
837.968	152.23
838.145	154.28
838.321	164.52
838.498	232.1
838.674	127.66
838.851	223.91
839.027	148.14
839.203	170.66
839.38	223.91
839.556	160.42
839.732	205.48
839.909	156.33
840.085	146.09
840.261	170.66
840.437	283.3
840.614	135.85
840.79	178.86
840.966	168.62
841.142	166.57
841.318	101.03
841.494	148.14
841.671	168.62
841.847	133.8
842.023	92.84
842.199	195.24
842.375	201.38
842.551	90.79
842.727	68.27
842.903	203.43
843.079	103.08
843.255	127.66
843.431	201.38
843.607	185
843.783	121.51
843.959	146.09
844.134	103.08
844.31	244.39
844.486	117.42
844.662	141.99
844.838	121.51
845.013	176.81
845.189	234.15
845.365	96.94
845.541	55.98
845.716	174.76
845.892	121.51
846.068	125.61
846.244	123.56
846.419	185
846.595	90.79
846.77	109.22
846.946	88.75
847.122	47.79
847.297	29.35
847.473	160.42
847.648	39.59
847.824	154.28
847.999	58.03
848.175	35.5
848.35	154.28
848.526	228.01
848.701	137.9
848.876	103.08
849.052	119.46
849.227	84.65
849.403	125.61
849.578	80.55
849.753	119.46
849.929	225.96
850.104	78.51
850.279	146.09
850.454	172.71
850.63	111.27
850.805	207.53
850.98	160.42
851.155	166.57
851.33	131.75
851.505	68.27
851.681	139.94
851.856	86.7
852.031	80.55
852.206	80.55
852.381	72.36
852.556	92.84
852.731	154.28
852.906	94.89
853.081	164.52
853.256	219.82
853.431	135.85
853.606	39.59
853.781	35.5
853.956	12.97
854.131	80.55
854.305	19.11
854.48	72.36
854.655	107.18
854.83	-1.37
855.005	10.92
855.18	129.7
855.354	90.79
855.529	119.46
855.704	51.88
855.879	135.85
856.053	96.94
856.228	88.75
856.403	55.98
856.577	72.36
856.752	27.31
856.926	64.17
857.101	23.21
857.276	45.74
857.45	2.73
857.625	72.36
857.799	62.12
857.974	94.89
858.148	6.83
858.323	109.22
858.497	47.79
858.672	141.99
858.846	17.07
859.02	92.84
859.195	49.83
859.369	105.13
859.543	47.79
859.718	72.36
859.892	96.94
860.066	55.98
860.241	6.83
860.415	70.31
860.589	70.31
860.763	101.03
860.938	21.16
861.112	78.51
861.286	37.55
861.46	109.22
861.634	31.4
861.808	-3.41
861.982	-13.65
862.157	12.97
862.331	117.42
862.505	2.73
862.679	37.55
862.853	101.03
863.027	35.5
863.201	101.03
863.375	55.98
863.549	103.08
863.722	19.11
863.896	41.64
864.07	31.4
864.244	72.36
864.418	80.55
864.592	55.98
864.766	72.36
864.939	86.7
865.113	-21.85
865.287	113.32
865.461	60.07
865.634	-56.66
865.808	39.59
865.982	4.78
866.156	70.31
866.329	29.35
866.503	117.42
866.676	86.7
866.85	127.66
867.024	68.27
867.197	84.65
867.371	62.12
867.544	94.89
867.718	19.11
867.891	45.74
868.065	39.59
868.238	45.74
868.412	80.55
868.585	-3.41
868.759	-11.61
868.932	35.5
869.105	27.31
869.279	31.4
869.452	21.16
869.625	55.98
869.799	41.64
869.972	-50.52
870.145	53.93
870.319	43.69
870.492	82.6
870.665	25.26
870.838	15.02
871.011	-30.04
871.185	-52.56
871.358	8.87
871.531	47.79
871.704	-13.65
871.877	12.97
872.05	21.16
872.223	-42.32
872.396	64.17
872.569	117.42
872.742	-21.85
872.915	39.59
873.088	15.02
873.261	-60.76
873.434	47.79
873.607	-5.46
873.78	105.13
873.953	-1.37
874.126	58.03
874.299	90.79
874.471	43.69
874.644	15.02
874.817	45.74
874.99	74.41
875.163	58.03
875.335	105.13
875.508	31.4
875.681	47.79
875.853	-11.61
876.026	-30.04
876.199	53.93
876.371	53.93
876.544	86.7
876.717	-9.56
876.889	33.45
877.062	62.12
877.234	35.5
877.407	-13.65
877.579	37.55
877.752	51.88
877.924	47.79
878.097	45.74
878.269	27.31
878.442	-1.37
878.614	45.74
878.786	4.78
878.959	35.5
879.131	29.35
879.303	39.59
879.476	-79.19
879.648	105.13
879.82	21.16
879.993	-1.37
880.165	80.55
880.337	-64.85
880.509	27.31
880.681	10.92
880.854	-9.56
881.026	35.5
881.198	70.31
881.37	29.35
881.542	15.02
881.714	113.32
881.886	19.11
882.058	19.11
882.23	84.65
882.402	-17.75
882.574	6.83
882.746	92.84
882.918	92.84
883.09	64.17
883.262	35.5
883.434	70.31
883.606	-71
883.778	0.68
883.95	101.03
884.122	6.83
884.293	33.45
884.465	31.4
884.637	96.94
884.809	10.92
884.98	6.83
885.152	51.88
885.324	49.83
885.496	-68.95
885.667	6.83
885.839	35.5
886.011	55.98
886.182	21.16
886.354	-7.51
886.525	53.93
886.697	-54.61
886.869	12.97
887.04	78.51
887.212	113.32
887.383	103.08
887.555	-9.56
887.726	25.26
887.897	-19.8
888.069	60.07
888.24	17.07
888.412	-19.8
888.583	-54.61
888.754	0.68
888.926	-54.61
889.097	8.87
889.268	2.73
889.44	2.73
889.611	-11.61
889.782	0.68
889.953	70.31
890.125	70.31
890.296	-71
890.467	8.87
890.638	-9.56
890.809	33.45
890.98	31.4
891.151	47.79
891.323	117.42
891.494	84.65
891.665	17.07
891.836	23.21
892.007	66.22
892.178	-1.37
892.349	21.16
892.52	29.35
892.691	94.89
892.862	-25.94
893.032	-1.37
893.203	2.73
893.374	-17.75
893.545	105.13
893.716	78.51
893.887	0.68
894.057	12.97
894.228	29.35
894.399	-3.41
894.57	80.55
894.74	-50.52
894.911	-9.56
895.082	-50.52
895.253	64.17
895.423	53.93
895.594	29.35
895.764	23.21
895.935	21.16
896.106	-34.13
896.276	-44.37
896.447	4.78
896.617	-66.9
896.788	8.87
896.958	12.97
897.129	88.75
897.299	66.22
897.47	-7.51
897.64	29.35
897.81	105.13
897.981	62.12
898.151	27.31
898.322	45.74
898.492	21.16
898.662	-25.94
898.832	10.92
899.003	-25.94
899.173	64.17
899.343	-40.28
899.513	37.55
