Data from USB4F104151__22__11-29-54-666.txt Node

Date: Fri Mar 14 11:29:54 EDT 2025
User: louis
Spectrometer: USB4F10415
Trigger mode: 4
Integration Time (sec): 5.000000E-2
Scans to average: 1
Electric dark correction enabled: true
Nonlinearity correction enabled: false
Boxcar width: 0
XAxis mode: Wavelengths
Number of Pixels in Spectrum: 3648
>>>>>Begin Spectral Data<<<<<
178.204	-138.58
178.424	-138.58
178.644	-138.58
178.864	-191.83
179.084	-142.68
179.304	8.87
179.524	-73.04
179.744	4.78
179.964	53.93
180.184	-1.37
180.404	-1.37
180.624	4.78
180.844	-3.41
181.064	-27.99
181.283	-7.51
181.503	33.45
181.723	8.87
181.943	-73.04
182.163	72.36
182.383	8.87
182.602	8.87
182.822	49.83
183.042	0.68
183.262	-3.41
183.482	15.02
183.701	86.7
183.921	49.83
184.141	41.64
184.361	12.97
184.58	0.68
184.8	-21.85
185.02	0.68
185.239	43.69
185.459	4.78
185.679	12.97
185.898	-23.89
186.118	-15.7
186.338	-13.65
186.557	39.59
186.777	0.68
186.997	-15.7
187.216	-44.37
187.436	39.59
187.655	53.93
187.875	51.88
188.095	-66.9
188.314	41.64
188.534	25.26
188.753	23.21
188.973	58.03
189.192	49.83
189.412	58.03
189.631	10.92
189.851	31.4
190.07	49.83
190.29	-7.51
190.509	-23.89
190.729	-11.61
190.948	80.55
191.168	189.1
191.387	8.87
191.607	-48.47
191.826	8.87
192.045	-42.32
192.265	-7.51
192.484	8.87
192.704	74.41
192.923	15.02
193.142	92.84
193.362	117.42
193.581	88.75
193.8	-5.46
194.02	66.22
194.239	-5.46
194.458	17.07
194.678	-23.89
194.897	2.73
195.116	105.13
195.335	-25.94
195.555	49.83
195.774	25.26
195.993	64.17
196.212	19.11
196.432	94.89
196.651	2.73
196.87	-5.46
197.089	33.45
197.308	41.64
197.528	41.64
197.747	-7.51
197.966	19.11
198.185	131.75
198.404	4.78
198.623	53.93
198.842	25.26
199.062	41.64
199.281	37.55
199.5	-32.08
199.719	-21.85
199.938	33.45
200.157	72.36
200.376	17.07
200.595	76.46
200.814	107.18
201.033	-7.51
201.252	53.93
201.471	-54.61
201.69	-34.13
201.909	64.17
202.128	72.36
202.347	15.02
202.566	17.07
202.785	12.97
203.004	-21.85
203.223	107.18
203.442	-40.28
203.661	-7.51
203.879	15.02
204.098	17.07
204.317	27.31
204.536	90.79
204.755	41.64
204.974	25.26
205.193	58.03
205.411	152.23
205.63	-7.51
205.849	74.41
206.068	74.41
206.287	-42.32
206.505	60.07
206.724	-3.41
206.943	62.12
207.162	-13.65
207.381	-30.04
207.599	15.02
207.818	2.73
208.037	-48.47
208.255	-36.18
208.474	82.6
208.693	37.55
208.911	-56.66
209.13	-7.51
209.349	12.97
209.567	8.87
209.786	41.64
210.005	-23.89
210.223	41.64
210.442	-32.08
210.661	-7.51
210.879	43.69
211.098	45.74
211.316	17.07
211.535	90.79
211.753	27.31
211.972	-15.7
212.191	-7.51
212.409	-19.8
212.628	62.12
212.846	-27.99
213.065	33.45
213.283	53.93
213.502	55.98
213.72	-83.28
213.938	41.64
214.157	-5.46
214.375	-44.37
214.594	-7.51
214.812	74.41
215.031	-34.13
215.249	23.21
215.467	-23.89
215.686	17.07
215.904	51.88
216.122	51.88
216.341	121.51
216.559	-38.23
216.778	78.51
216.996	-17.75
217.214	17.07
217.432	29.35
217.651	25.26
217.869	-27.99
218.087	78.51
218.306	-34.13
218.524	64.17
218.742	-77.14
218.96	33.45
219.179	25.26
219.397	123.56
219.615	109.22
219.833	90.79
220.051	-56.66
220.27	62.12
220.488	0.68
220.706	74.41
220.924	-25.94
221.142	72.36
221.36	-73.04
221.578	-17.75
221.796	96.94
222.015	94.89
222.233	8.87
222.451	64.17
222.669	-9.56
222.887	49.83
223.105	6.83
223.323	35.5
223.541	39.59
223.759	72.36
223.977	17.07
224.195	41.64
224.413	135.85
224.631	-1.37
224.849	90.79
225.067	53.93
225.285	105.13
225.503	58.03
225.721	-68.95
225.939	8.87
226.157	41.64
226.375	105.13
226.592	-27.99
226.81	6.83
227.028	74.41
227.246	37.55
227.464	6.83
227.682	60.07
227.9	17.07
228.117	25.26
228.335	25.26
228.553	-15.7
228.771	74.41
228.989	17.07
229.206	-17.75
229.424	43.69
229.642	-40.28
229.86	-17.75
230.077	78.51
230.295	39.59
230.513	74.41
230.731	15.02
230.948	68.27
231.166	92.84
231.384	6.83
231.601	29.35
231.819	121.51
232.037	17.07
232.254	-46.42
232.472	-23.89
232.689	6.83
232.907	-15.7
233.125	-91.48
233.342	-27.99
233.56	17.07
233.777	8.87
233.995	10.92
234.213	58.03
234.43	31.4
234.648	82.6
234.865	72.36
235.083	82.6
235.3	-9.56
235.518	62.12
235.735	33.45
235.953	117.42
236.17	45.74
236.388	-15.7
236.605	58.03
236.822	-1.37
237.04	37.55
237.257	49.83
237.475	-25.94
237.692	19.11
237.909	49.83
238.127	29.35
238.344	58.03
238.562	41.64
238.779	-68.95
238.996	-50.52
239.214	111.27
239.431	39.59
239.648	-83.28
239.865	74.41
240.083	41.64
240.3	25.26
240.517	12.97
240.735	39.59
240.952	90.79
241.169	49.83
241.386	8.87
241.603	-17.75
241.821	29.35
242.038	86.7
242.255	21.16
242.472	-42.32
242.689	-13.65
242.907	2.73
243.124	-13.65
243.341	17.07
243.558	-7.51
243.775	-1.37
243.992	-34.13
244.209	17.07
244.426	109.22
244.643	45.74
244.86	21.16
245.078	31.4
245.295	-60.76
245.512	-13.65
245.729	60.07
245.946	4.78
246.163	-17.75
246.38	-3.41
246.597	45.74
246.814	74.41
247.031	-9.56
247.248	15.02
247.464	15.02
247.681	-42.32
247.898	86.7
248.115	74.41
248.332	6.83
248.549	49.83
248.766	90.79
248.983	90.79
249.2	94.89
249.417	66.22
249.633	25.26
249.85	-5.46
250.067	33.45
250.284	-25.94
250.501	6.83
250.717	19.11
250.934	-32.08
251.151	25.26
251.368	29.35
251.585	64.17
251.801	0.68
252.018	-3.41
252.235	2.73
252.451	-27.99
252.668	-27.99
252.885	47.79
253.102	58.03
253.318	33.45
253.535	-25.94
253.752	47.79
253.968	0.68
254.185	-7.51
254.401	8.87
254.618	15.02
254.835	49.83
255.051	53.93
255.268	45.74
255.484	8.87
255.701	0.68
255.917	58.03
256.134	-25.94
256.351	90.79
256.567	6.83
256.784	66.22
257	86.7
257.217	41.64
257.433	74.41
257.65	82.6
257.866	88.75
258.082	0.68
258.299	-5.46
258.515	4.78
258.732	-9.56
258.948	37.55
259.165	66.22
259.381	12.97
259.597	-34.13
259.814	55.98
260.03	0.68
260.246	23.21
260.463	88.75
260.679	21.16
260.895	-9.56
261.112	64.17
261.328	-42.32
261.544	53.93
261.761	113.32
261.977	31.4
262.193	-60.76
262.409	19.11
262.626	90.79
262.842	31.4
263.058	53.93
263.274	55.98
263.49	-11.61
263.707	113.32
263.923	-66.9
264.139	-56.66
264.355	47.79
264.571	41.64
264.787	49.83
265.004	80.55
265.22	8.87
265.436	-1.37
265.652	31.4
265.868	55.98
266.084	-23.89
266.3	31.4
266.516	-32.08
266.732	-21.85
266.948	45.74
267.164	74.41
267.38	88.75
267.596	-3.41
267.812	-5.46
268.028	19.11
268.244	25.26
268.46	74.41
268.676	-1.37
268.892	53.93
269.108	-15.7
269.324	-15.7
269.54	-15.7
269.756	72.36
269.972	-25.94
270.188	8.87
270.403	-21.85
270.619	88.75
270.835	-42.32
271.051	-1.37
271.267	8.87
271.483	-15.7
271.698	-3.41
271.914	31.4
272.13	-15.7
272.346	8.87
272.562	31.4
272.777	25.26
272.993	33.45
273.209	47.79
273.425	37.55
273.64	25.26
273.856	33.45
274.072	-42.32
274.287	68.27
274.503	98.99
274.719	0.68
274.934	90.79
275.15	-93.52
275.366	0.68
275.581	-15.7
275.797	58.03
276.012	86.7
276.228	62.12
276.444	-50.52
276.659	41.64
276.875	-7.51
277.09	21.16
277.306	17.07
277.521	8.87
277.737	82.6
277.952	96.94
278.168	-21.85
278.383	23.21
278.599	21.16
278.814	55.98
279.03	25.26
279.245	33.45
279.461	12.97
279.676	8.87
279.892	-77.14
280.107	-25.94
280.322	-101.72
280.538	25.26
280.753	-17.75
280.969	-7.51
281.184	25.26
281.399	82.6
281.615	4.78
281.83	12.97
282.045	-50.52
282.26	39.59
282.476	33.45
282.691	47.79
282.906	43.69
283.122	53.93
283.337	15.02
283.552	58.03
283.767	47.79
283.983	70.31
284.198	17.07
284.413	80.55
284.628	-7.51
284.843	33.45
285.058	-11.61
285.274	58.03
285.489	-19.8
285.704	25.26
285.919	35.5
286.134	6.83
286.349	33.45
286.564	-77.14
286.779	15.02
286.995	15.02
287.21	2.73
287.425	29.35
287.64	17.07
287.855	47.79
288.07	31.4
288.285	-32.08
288.5	27.31
288.715	98.99
288.93	12.97
289.145	72.36
289.36	35.5
289.575	27.31
289.79	47.79
290.004	29.35
290.219	78.51
290.434	64.17
290.649	4.78
290.864	31.4
291.079	31.4
291.294	78.51
291.509	58.03
291.724	33.45
291.938	-11.61
292.153	86.7
292.368	-50.52
292.583	19.11
292.798	66.22
293.012	62.12
293.227	21.16
293.442	-68.95
293.657	-32.08
293.871	76.46
294.086	86.7
294.301	70.31
294.516	98.99
294.73	33.45
294.945	25.26
295.16	-46.42
295.374	15.02
295.589	86.7
295.804	-23.89
296.018	12.97
296.233	33.45
296.447	31.4
296.662	-3.41
296.877	66.22
297.091	27.31
297.306	58.03
297.52	-7.51
297.735	39.59
297.949	41.64
298.164	49.83
298.378	64.17
298.593	15.02
298.807	49.83
299.022	33.45
299.236	88.75
299.451	-50.52
299.665	47.79
299.88	47.79
300.094	-3.41
300.309	-19.8
300.523	41.64
300.737	66.22
300.952	15.02
301.166	39.59
301.381	12.97
301.595	45.74
301.809	10.92
302.024	45.74
302.238	-23.89
302.452	137.9
302.667	0.68
302.881	70.31
303.095	31.4
303.309	80.55
303.524	8.87
303.738	72.36
303.952	0.68
304.166	37.55
304.381	41.64
304.595	33.45
304.809	17.07
305.023	45.74
305.237	2.73
305.452	-5.46
305.666	-7.51
305.88	25.26
306.094	45.74
306.308	66.22
306.522	-21.85
306.736	29.35
306.95	53.93
307.164	78.51
307.379	17.07
307.593	80.55
307.807	8.87
308.021	90.79
308.235	53.93
308.449	-134.48
308.663	0.68
308.877	103.08
309.091	8.87
309.305	103.08
309.519	-54.61
309.733	4.78
309.947	-19.8
310.161	49.83
310.374	58.03
310.588	131.75
310.802	-32.08
311.016	29.35
311.23	-1.37
311.444	8.87
311.658	17.07
311.872	53.93
312.085	84.65
312.299	35.5
312.513	74.41
312.727	41.64
312.941	21.16
313.154	21.16
313.368	82.6
313.582	53.93
313.796	-15.7
314.009	17.07
314.223	103.08
314.437	-21.85
314.651	4.78
314.864	68.27
315.078	19.11
315.292	-15.7
315.505	-44.37
315.719	82.6
315.933	51.88
316.146	-3.41
316.36	-7.51
316.573	78.51
316.787	137.9
317.001	80.55
317.214	82.6
317.428	21.16
317.641	-23.89
317.855	-36.18
318.068	0.68
318.282	35.5
318.495	103.08
318.709	66.22
318.922	-1.37
319.136	15.02
319.349	66.22
319.563	41.64
319.776	-11.61
319.99	12.97
320.203	45.74
320.417	47.79
320.63	-19.8
320.843	21.16
321.057	90.79
321.27	35.5
321.483	37.55
321.697	82.6
321.91	-32.08
322.124	15.02
322.337	-50.52
322.55	21.16
322.763	12.97
322.977	4.78
323.19	23.21
323.403	8.87
323.617	66.22
323.83	82.6
324.043	-11.61
324.256	21.16
324.469	-23.89
324.683	86.7
324.896	15.02
325.109	-15.7
325.322	-25.94
325.535	135.85
325.748	25.26
325.962	31.4
326.175	49.83
326.388	111.27
326.601	4.78
326.814	29.35
327.027	62.12
327.24	29.35
327.453	-25.94
327.666	47.79
327.879	62.12
328.092	12.97
328.305	55.98
328.518	84.65
328.731	-52.56
328.944	41.64
329.157	51.88
329.37	21.16
329.583	74.41
329.796	76.46
330.009	-23.89
330.222	25.26
330.435	80.55
330.648	-13.65
330.861	8.87
331.073	64.17
331.286	41.64
331.499	58.03
331.712	8.87
331.925	-54.61
332.138	37.55
332.35	31.4
332.563	8.87
332.776	0.68
332.989	-11.61
333.202	6.83
333.414	17.07
333.627	-34.13
333.84	60.07
334.053	72.36
334.265	-15.7
334.478	115.37
334.691	-1.37
334.903	84.65
335.116	29.35
335.329	12.97
335.541	58.03
335.754	94.89
335.966	2.73
336.179	62.12
336.392	6.83
336.604	53.93
336.817	66.22
337.029	-3.41
337.242	64.17
337.454	-11.61
337.667	49.83
337.88	64.17
338.092	64.17
338.305	60.07
338.517	12.97
338.729	49.83
338.942	107.18
339.154	0.68
339.367	49.83
339.579	-11.61
339.792	-7.51
340.004	12.97
340.217	4.78
340.429	33.45
340.641	41.64
340.854	-32.08
341.066	21.16
341.278	58.03
341.491	78.51
341.703	98.99
341.915	0.68
342.128	98.99
342.34	-17.75
342.552	-1.37
342.764	33.45
342.977	21.16
343.189	-40.28
343.401	19.11
343.613	-7.51
343.826	39.59
344.038	-17.75
344.25	-46.42
344.462	-32.08
344.674	88.75
344.886	-23.89
345.099	37.55
345.311	43.69
345.523	-25.94
345.735	-36.18
345.947	29.35
346.159	37.55
346.371	-73.04
346.583	25.26
346.795	90.79
347.007	101.03
347.219	8.87
347.431	70.31
347.643	86.7
347.855	17.07
348.067	62.12
348.279	-73.04
348.491	66.22
348.703	41.64
348.915	70.31
349.127	31.4
349.339	58.03
349.551	4.78
349.763	47.79
349.975	19.11
350.187	6.83
350.399	101.03
350.61	60.07
350.822	76.46
351.034	39.59
351.246	49.83
351.458	68.27
351.669	-32.08
351.881	53.93
352.093	12.97
352.305	31.4
352.517	62.12
352.728	53.93
352.94	-38.23
353.152	66.22
353.363	0.68
353.575	25.26
353.787	76.46
353.999	55.98
354.21	62.12
354.422	-23.89
354.633	4.78
354.845	80.55
355.057	15.02
355.268	39.59
355.48	74.41
355.692	17.07
355.903	60.07
356.115	-30.04
356.326	-25.94
356.538	15.02
356.749	12.97
356.961	144.04
357.172	98.99
357.384	33.45
357.595	80.55
357.807	23.21
358.018	-40.28
358.23	2.73
358.441	137.9
358.653	15.02
358.864	-68.95
359.075	4.78
359.287	72.36
359.498	37.55
359.709	82.6
359.921	58.03
360.132	58.03
360.344	23.21
360.555	17.07
360.766	25.26
360.977	47.79
361.189	94.89
361.4	33.45
361.611	68.27
361.823	15.02
362.034	2.73
362.245	19.11
362.456	82.6
362.667	19.11
362.879	4.78
363.09	29.35
363.301	-25.94
363.512	-25.94
363.723	23.21
363.935	-30.04
364.146	33.45
364.357	47.79
364.568	76.46
364.779	-48.47
364.99	82.6
365.201	121.51
365.412	94.89
365.623	-34.13
365.834	47.79
366.045	17.07
366.256	49.83
366.467	-7.51
366.678	82.6
366.889	-44.37
367.1	103.08
367.311	17.07
367.522	33.45
367.733	25.26
367.944	90.79
368.155	8.87
368.366	90.79
368.577	60.07
368.788	31.4
368.999	-66.9
369.209	113.32
369.42	88.75
369.631	98.99
369.842	90.79
370.053	45.74
370.264	84.65
370.474	17.07
370.685	47.79
370.896	4.78
371.107	90.79
371.317	64.17
371.528	-23.89
371.739	64.17
371.95	29.35
372.16	0.68
372.371	19.11
372.582	23.21
372.792	105.13
373.003	39.59
373.214	88.75
373.424	62.12
373.635	-5.46
373.846	119.46
374.056	17.07
374.267	66.22
374.477	94.89
374.688	58.03
374.898	131.75
375.109	-9.56
375.319	62.12
375.53	74.41
375.74	51.88
375.951	0.68
376.161	19.11
376.372	62.12
376.582	19.11
376.793	80.55
377.003	41.64
377.214	64.17
377.424	62.12
377.635	74.41
377.845	-3.41
378.055	152.23
378.266	45.74
378.476	74.41
378.686	62.12
378.897	-23.89
379.107	31.4
379.317	58.03
379.528	-1.37
379.738	144.04
379.948	-17.75
380.158	82.6
380.369	0.68
380.579	39.59
380.789	15.02
380.999	29.35
381.21	49.83
381.42	74.41
381.63	-17.75
381.84	105.13
382.05	66.22
382.261	98.99
382.471	131.75
382.681	-25.94
382.891	141.99
383.101	47.79
383.311	37.55
383.521	66.22
383.731	25.26
383.941	33.45
384.151	29.35
384.361	29.35
384.571	31.4
384.781	72.36
384.991	78.51
385.201	35.5
385.411	-25.94
385.621	64.17
385.831	31.4
386.041	37.55
386.251	49.83
386.461	109.22
386.671	17.07
386.881	94.89
387.091	-7.51
387.301	82.6
387.511	53.93
387.72	68.27
387.93	55.98
388.14	19.11
388.35	49.83
388.56	68.27
388.769	92.84
388.979	86.7
389.189	-30.04
389.399	90.79
389.609	49.83
389.818	141.99
390.028	82.6
390.238	98.99
390.447	17.07
390.657	31.4
390.867	62.12
391.076	47.79
391.286	33.45
391.496	21.16
391.705	4.78
391.915	101.03
392.125	144.04
392.334	74.41
392.544	82.6
392.753	47.79
392.963	98.99
393.172	-23.89
393.382	8.87
393.591	76.46
393.801	66.22
394.01	64.17
394.22	47.79
394.429	123.56
394.639	43.69
394.848	64.17
395.058	127.66
395.267	31.4
395.477	94.89
395.686	74.41
395.895	111.27
396.105	74.41
396.314	123.56
396.524	88.75
396.733	123.56
396.942	105.13
397.152	45.74
397.361	86.7
397.57	45.74
397.78	119.46
397.989	0.68
398.198	150.18
398.407	117.42
398.617	33.45
398.826	96.94
399.035	199.34
399.244	53.93
399.453	164.52
399.663	82.6
399.872	78.51
400.081	74.41
400.29	121.51
400.499	105.13
400.708	101.03
400.917	103.08
401.127	152.23
401.336	94.89
401.545	135.85
401.754	62.12
401.963	191.14
402.172	86.7
402.381	58.03
402.59	115.37
402.799	127.66
403.008	133.8
403.217	152.23
403.426	117.42
403.635	4.78
403.844	164.52
404.053	105.13
404.262	103.08
404.471	207.53
404.68	172.71
404.888	107.18
405.097	98.99
405.306	94.89
405.515	197.29
405.724	94.89
405.933	172.71
406.142	170.66
406.35	213.67
406.559	166.57
406.768	213.67
406.977	266.92
407.185	123.56
407.394	178.86
407.603	146.09
407.812	156.33
408.02	250.53
408.229	182.95
408.438	279.21
408.646	209.58
408.855	199.34
409.064	279.21
409.272	205.48
409.481	328.36
409.69	258.73
409.898	287.4
410.107	250.53
410.315	311.97
410.524	242.34
410.733	359.08
410.941	324.26
411.15	397.99
411.358	383.65
411.567	393.89
411.775	397.99
411.984	408.23
412.192	492.2
412.401	387.75
412.609	436.9
412.818	481.96
413.026	479.91
413.234	449.19
413.443	553.63
413.651	494.24
413.86	567.97
414.068	592.55
414.276	617.12
414.485	586.4
414.693	705.18
414.901	598.69
415.11	666.27
415.318	645.79
415.526	709.28
415.734	721.57
415.943	785.05
416.151	735.9
416.359	881.31
416.567	864.93
416.776	979.61
416.984	932.51
417.192	905.88
417.4	901.79
417.608	946.84
417.817	1139.35
418.025	1053.34
418.233	1153.69
418.441	1041.05
418.649	1100.44
418.857	1194.65
419.065	1256.09
419.273	1227.42
419.481	1383.06
419.689	1342.1
419.897	1514.13
420.105	1426.07
420.313	1567.38
420.521	1610.39
420.729	1569.43
420.937	1702.54
421.145	1645.2
421.353	1761.94
421.561	1909.39
421.769	1950.35
421.977	2017.93
422.185	1915.53
422.393	2157.19
422.601	2286.22
422.809	2280.07
423.017	2267.78
423.224	2405
423.432	2497.16
423.64	2333.32
423.848	2644.61
424.056	2540.16
424.263	2726.53
424.471	2953.85
424.679	2904.7
424.887	2982.53
425.094	3072.64
425.302	3095.16
425.51	3191.42
425.718	3455.61
425.925	3318.39
426.133	3463.8
426.341	3660.4
426.548	3797.62
426.756	3850.86
426.964	3961.45
427.171	4096.62
427.379	4180.59
427.586	4315.75
427.794	4416.1
428.001	4602.47
428.209	4862.56
428.417	4801.12
428.624	5116.51
428.832	5096.03
429.039	5175.9
429.247	5065.31
429.454	5462.62
429.662	5939.79
429.869	5538.39
430.076	5947.98
430.284	5923.41
430.491	6103.63
430.699	6279.75
430.906	6525.51
431.114	6466.12
431.321	6636.1
431.528	6855.23
431.736	7340.6
431.943	7629.37
432.15	7469.62
432.358	7555.64
432.565	7977.52
432.772	7899.7
432.979	8254
433.187	8526.38
433.394	8270.38
433.601	9038.37
433.808	9089.57
434.016	9099.81
434.223	9103.9
434.43	9863.7
434.637	9634.33
434.844	10263.05
435.052	10519.05
435.259	10367.5
435.466	10551.82
435.673	10435.08
435.88	11127.3
436.087	11811.32
436.294	11823.61
436.501	11600.38
436.708	11461.12
436.915	12059.12
437.122	12698.09
437.329	12554.73
437.537	13226.46
437.743	13461.98
437.95	13267.42
438.157	14002.65
438.364	14342.61
438.571	14203.35
438.778	14385.62
438.985	15595.96
439.192	14948.81
439.399	15548.86
439.606	15198.66
439.813	16142.77
440.02	17025.45
440.227	16859.56
440.433	16540.08
440.64	17193.38
440.847	17011.11
441.054	17285.54
441.261	18422.16
441.467	18583.95
441.674	18571.66
441.881	19405.19
442.088	19284.36
442.294	19124.61
442.501	19892.6
442.708	20025.72
442.914	21145.96
443.121	22047.07
443.328	21350.76
443.534	22634.83
443.741	22141.27
443.948	21653.86
444.154	23497.03
444.361	23333.19
444.568	23419.21
444.774	23566.66
444.981	23771.46
445.187	24690.99
445.394	25592.1
445.6	24918.32
445.807	27433.22
446.013	25995.55
446.22	26618.13
446.426	27922.69
446.633	28195.07
446.839	28633.33
447.046	28008.7
447.252	29311.21
447.459	29483.24
447.665	29346.03
447.871	30595.29
448.078	31576.26
448.284	30445.79
448.491	31379.66
448.697	32372.92
448.903	32688.31
449.11	32688.31
449.316	32460.99
449.522	32772.28
449.728	33878.18
449.935	34023.59
450.141	34011.3
450.347	34916.5
450.553	34060.45
450.76	34181.28
450.966	35381.39
451.172	34640.03
451.378	35752.07
451.584	34764.95
451.791	35666.06
451.997	35844.23
452.203	36690.04
452.409	36520.06
452.615	36065.41
452.821	34850.97
453.027	34232.48
453.233	35960.97
453.44	34678.94
453.646	34785.43
453.852	34934.93
454.058	35735.69
454.264	34345.12
454.47	35350.67
454.676	34072.74
454.882	35426.45
455.088	32401.6
455.294	33048.75
455.5	33222.83
455.705	33728.68
455.911	31842.5
456.117	31373.52
456.323	31160.53
456.529	29874.4
456.735	30886.1
456.941	30124.25
457.147	29274.35
457.352	28719.35
457.558	28369.15
457.764	28360.95
457.97	27535.62
458.176	27097.36
458.381	26947.86
458.587	25796.9
458.793	25512.23
458.999	24322.36
459.204	26011.93
459.41	25141.55
459.616	23884.09
459.821	23750.98
460.027	23429.45
460.233	23263.56
460.438	22081.88
460.644	22178.14
460.85	21191.02
461.055	20744.56
461.261	20785.52
461.466	19143.05
461.672	18839.95
461.878	20119.93
462.083	18745.74
462.289	18293.14
462.494	18336.15
462.7	17428.9
462.905	16898.47
463.111	17242.53
463.316	17660.32
463.522	17256.87
463.727	17217.96
463.932	17131.94
464.138	16959.91
464.343	16865.71
464.549	16613.81
464.754	17084.84
464.959	16720.3
465.165	16681.39
465.37	16077.24
465.575	15843.77
465.781	16341.43
465.986	16439.73
466.191	15958.46
466.397	15612.35
466.602	14688.71
466.807	15516.09
467.012	15348.16
467.218	15120.84
467.423	14899.66
467.628	15262.15
467.833	15851.96
468.038	15184.32
468.244	14744.01
468.449	15417.79
468.654	14735.82
468.859	14913.99
469.064	14645.71
469.269	13892.05
469.474	14055.89
469.679	14344.66
469.885	14008.79
470.09	14365.14
470.295	14148.05
470.5	13640.15
470.705	13865.43
470.91	13316.58
471.115	13537.76
471.32	13867.48
471.525	13586.91
471.73	13070.82
471.935	13185.51
472.139	12712.42
472.344	12894.69
472.549	12763.62
472.754	12691.94
472.959	12239.34
473.164	12128.75
473.369	11790.84
473.574	12392.94
473.778	12220.91
473.983	11823.61
474.188	11934.2
474.393	11704.82
474.598	11444.73
474.802	11551.23
475.007	11311.61
475.212	11371.01
475.417	10969.6
475.621	11012.61
475.826	11082.24
476.031	10863.11
476.235	10678.79
476.44	10668.55
476.645	10514.95
476.849	10453.52
477.054	10469.9
477.259	10082.83
477.463	10359.31
477.668	9884.18
477.872	10244.62
478.077	9939.48
478.282	9493.02
478.486	9712.15
478.691	9763.35
478.895	9476.63
479.1	9329.18
479.304	9312.8
479.509	9312.8
479.713	9544.22
479.918	8958.5
480.122	9091.62
480.326	9183.77
480.531	9075.23
480.735	8895.01
480.94	8829.48
481.144	9208.35
481.348	8819.24
481.553	8903.2
481.757	8679.97
481.961	8997.41
482.166	9032.22
482.37	8895.01
482.574	8739.37
482.778	8866.34
482.983	8968.74
483.187	8708.65
483.391	8948.26
483.595	8780.32
483.8	8530.47
484.004	8782.37
484.208	8978.98
484.412	8813.09
484.616	8978.98
484.821	8944.16
485.025	8581.67
485.229	8952.35
485.433	8630.82
485.637	8847.91
485.841	8653.35
486.045	8841.76
486.249	8722.98
486.453	8845.86
486.657	8761.89
486.861	8827.43
487.065	8495.66
487.269	8675.88
487.473	8501.8
487.677	8892.96
487.881	8759.84
488.085	8864.29
488.289	8743.46
488.493	8778.28
488.697	8823.33
488.901	9003.55
489.105	8669.73
489.309	8849.96
489.512	8895.01
489.716	8823.33
489.92	8829.48
490.124	8925.73
490.328	9056.8
490.531	8913.44
490.735	9083.42
490.939	9060.9
491.143	9067.04
491.346	8860.2
491.55	9062.94
491.754	9093.66
491.958	9228.83
492.161	9110.05
492.365	9204.25
492.569	9202.21
492.772	9099.81
492.976	9345.56
493.18	9402.91
493.383	9441.82
493.587	9445.91
493.79	9896.47
493.994	9370.14
494.197	9607.7
494.401	9861.65
494.605	9531.93
494.808	9873.94
495.012	10035.73
495.215	9894.42
495.419	10019.35
495.622	10097.17
495.825	10285.58
496.029	10019.35
496.232	10402.32
496.436	10443.28
496.639	10740.23
496.843	10639.88
497.046	10629.64
497.249	10824.2
497.453	10848.77
497.656	10990.08
497.859	11182.59
498.063	11186.69
498.266	11446.78
498.469	11166.21
498.673	11717.11
498.876	11612.67
499.079	11520.51
499.282	11801.08
499.485	12038.64
499.689	12001.78
499.892	12220.91
500.095	12411.37
500.298	12478.96
500.501	12556.78
500.705	12810.73
500.908	12747.24
501.111	12986.85
501.314	13173.22
501.517	13615.58
501.72	13441.5
501.923	13361.63
502.126	13646.3
502.329	13967.83
502.532	14193.11
502.735	14262.74
502.938	14139.86
503.141	14275.02
503.344	14647.76
503.547	14680.52
503.75	14887.37
503.953	15155.65
504.156	15188.42
504.359	15462.85
504.562	15555.01
504.765	15716.79
504.968	15999.41
505.17	16093.62
505.373	16107.96
505.576	16411.06
505.779	16538.03
505.982	16724.4
506.185	17029.54
506.387	16898.47
506.59	17162.66
506.793	17713.56
506.996	17328.55
507.198	18112.92
507.401	17793.44
507.604	18110.87
507.807	18258.32
508.009	18633.1
508.212	18649.49
508.415	18842
508.617	19188.1
508.82	19259.78
509.022	19167.62
509.225	19573.12
509.428	19696
509.63	20005.24
509.833	20054.39
510.035	20502.9
510.238	20420.98
510.44	20654.45
510.643	20789.61
510.845	21229.93
511.048	21145.96
511.25	21209.45
511.453	21498.21
511.655	22118.75
511.858	22114.65
512.06	22153.56
512.262	22522.19
512.465	22522.19
512.667	22960.46
512.87	22952.27
513.072	23116.11
513.274	23615.81
513.477	23712.06
513.679	24107.32
513.881	24230.2
514.084	24160.57
514.286	24346.94
514.488	24459.57
514.69	25424.17
514.893	25073.96
515.095	25112.88
515.297	25749.79
515.499	25731.36
515.701	26085.66
515.904	26355.99
516.106	26910.99
516.308	26558.74
516.51	27107.6
516.712	27109.65
516.914	27420.94
517.116	27990.27
517.318	27857.15
517.52	28283.13
517.722	28053.76
517.925	28578.04
518.127	28788.98
518.329	28969.2
518.531	29001.97
518.733	29429.99
518.935	29898.98
519.136	29567.21
519.338	30443.74
519.54	30148.83
519.742	30912.72
519.944	30695.64
520.146	31639.75
520.348	31336.65
520.55	31310.03
520.752	31756.49
520.954	32252.09
521.155	32084.16
521.357	32319.68
521.559	32712.89
521.761	33179.82
521.963	33310.89
522.164	33521.84
522.366	33644.71
522.568	34105.51
522.77	34171.04
522.971	34818.2
523.173	34502.81
523.375	35027.09
523.576	34877.59
523.778	35270.8
523.98	35973.25
524.181	35965.06
524.383	36024.45
524.584	36106.37
524.786	36591.74
524.988	36268.16
525.189	36864.12
525.391	36892.79
525.592	36853.88
525.794	37388.4
525.995	37613.68
526.197	37711.98
526.398	37795.95
526.6	38185.06
526.801	38140
527.003	38226.02
527.204	38697.05
527.406	38957.14
527.607	38885.47
527.808	39372.88
528.01	38553.69
528.211	39102.55
528.412	40065.1
528.614	39792.72
528.815	39680.08
529.016	40110.15
529.218	39538.77
529.419	40038.47
529.62	40214.6
529.822	40034.38
530.023	40683.58
530.224	40525.89
530.425	40521.79
530.626	40183.88
530.828	40661.05
531.029	41103.42
531.23	40695.87
531.431	40923.19
531.632	40884.28
531.833	41443.38
532.035	41338.93
532.236	41240.63
532.437	41281.59
532.638	41343.03
532.839	41891.88
533.04	41836.59
533.241	41365.56
533.442	42235.94
533.643	42117.16
533.844	41941.03
534.045	41963.56
534.246	41699.37
534.447	41881.64
534.648	41904.17
534.849	42111.02
535.05	41689.13
535.251	41922.6
535.451	41900.08
535.652	42436.64
535.853	42020.91
536.054	42338.34
536.255	42379.3
536.456	42078.25
536.657	42770.46
536.857	42151.98
537.058	42137.64
537.259	42698.78
537.46	42375.2
537.66	42242.09
537.861	42567.71
538.062	42088.49
538.263	42268.71
538.463	42301.48
538.664	42293.29
538.865	42817.57
539.065	42289.19
539.266	42272.81
539.466	42424.36
539.667	42209.32
539.868	42864.67
540.068	42287.14
540.269	42528.8
540.469	42633.25
540.67	41932.84
540.87	42473.51
541.071	42453.03
541.271	42795.04
541.472	42520.61
541.672	42346.53
541.873	42338.34
542.073	41979.95
542.274	42493.99
542.474	42121.26
542.675	41967.66
542.875	42358.82
543.075	42524.71
543.276	42051.62
543.476	42969.11
543.676	42014.76
543.877	42453.03
544.077	42461.22
544.277	42313.76
544.478	42336.29
544.678	42469.41
544.878	42569.76
545.078	42276.9
545.279	41934.89
545.479	41986.09
545.679	42190.89
545.879	41553.97
546.079	41920.55
546.28	41943.08
546.48	41660.46
546.68	42344.48
546.88	42356.77
547.08	42055.72
547.28	41859.12
547.48	42063.91
547.68	42287.14
547.88	41695.28
548.081	41977.9
548.281	41961.51
548.481	41926.7
548.681	42737.69
548.881	41816.11
549.081	42678.3
549.28	41891.88
549.48	42461.22
549.68	41744.43
549.88	42864.67
550.08	41867.31
550.28	41777.2
550.48	41842.73
550.68	42326.05
550.88	41932.84
551.08	42166.31
551.279	41867.31
551.479	41723.95
551.679	42035.24
551.879	41750.57
552.079	41881.64
552.278	41617.46
552.478	41951.27
552.678	41992.23
552.878	42025
553.077	41816.11
553.277	41160.76
553.477	42252.33
553.676	41879.6
553.876	41603.12
554.076	41508.91
554.275	41496.63
554.475	41044.02
554.674	41383.99
554.874	41519.15
555.074	41334.84
555.273	41760.81
555.473	41816.11
555.672	40826.94
555.872	41166.9
556.071	41033.78
556.271	41486.39
556.47	41064.5
556.67	40841.28
556.869	40822.84
557.068	40794.17
557.268	40560.7
557.467	40992.83
557.667	40552.51
557.866	40949.82
558.065	40654.91
558.265	40220.74
558.464	40175.69
558.663	40507.46
558.863	39723.08
559.062	40497.22
559.261	39936.07
559.461	40364.1
559.66	39585.87
559.859	39995.46
560.058	39352.4
560.258	40138.82
560.457	39301.2
560.656	39977.03
560.855	39397.46
561.054	39614.54
561.253	39518.29
561.453	39438.42
561.652	39407.7
561.851	39184.47
562.05	38940.76
562.249	38742.11
562.448	39049.3
562.647	39016.54
562.846	39053.4
563.045	38824.03
563.244	38269.03
563.443	38664.28
563.642	37972.07
563.841	38408.29
564.04	38148.2
564.239	38520.93
564.438	38076.52
564.637	38117.48
564.836	38238.31
565.035	37286
565.234	37806.19
565.432	37656.68
565.631	37406.83
565.83	37566.57
566.029	36933.75
566.228	37238.9
566.427	37046.39
566.625	36722.81
566.824	36325.5
567.023	36950.13
567.222	36214.91
567.42	36817.02
567.619	36307.07
567.818	36233.35
568.016	36352.13
568.215	36456.57
568.414	35780.74
568.612	36413.57
568.811	35766.41
569.01	35932.29
569.208	35539.08
569.407	35567.76
569.605	34902.17
569.804	35184.79
570.002	35057.81
570.201	35451.02
570.4	34971.8
570.598	34484.38
570.797	34545.82
570.995	34875.54
571.193	34320.54
571.392	34637.98
571.59	34230.43
571.789	34226.34
571.987	34355.36
572.186	33990.82
572.384	33812.65
572.582	33730.73
572.781	34005.16
572.979	33425.58
573.177	33472.68
573.376	33722.54
573.574	33032.37
573.772	33401
573.971	33073.33
574.169	32909.49
574.367	32663.74
574.565	32901.3
574.763	32710.84
574.962	32526.52
575.16	32147.65
575.358	32483.51
575.556	31889.6
575.754	32307.39
575.952	31893.7
576.151	32282.81
576.349	31828.16
576.547	32002.24
576.745	31533.26
576.943	31779.01
577.141	31539.4
577.339	31418.57
577.537	31598.79
577.735	31217.87
577.933	31293.65
578.131	31303.88
578.329	30851.28
578.527	30597.34
578.725	30384.35
578.923	31025.36
579.121	30658.77
579.319	30599.38
579.516	30943.44
579.714	30615.77
579.912	30585.05
580.11	30066.91
580.308	30533.85
580.506	30290.14
580.704	29638.89
580.901	29855.97
581.099	29862.11
581.297	29685.99
581.495	29395.18
581.692	29638.89
581.89	29444.33
582.088	29597.93
582.285	29321.45
582.483	29196.53
582.681	29221.1
582.878	29032.69
583.076	28905.71
583.274	29090.03
583.471	28711.16
583.669	28788.98
583.866	28592.37
584.064	28803.32
584.262	28109.05
584.459	28649.72
584.657	28401.91
584.854	28547.32
585.052	28115.2
585.249	28438.78
585.447	27740.42
585.644	27697.41
585.841	28020.99
586.039	28055.81
586.236	27701.51
586.434	27492.62
586.631	27640.07
586.828	27652.36
587.026	27480.33
587.223	27107.6
587.42	27220.24
587.618	27351.31
587.815	26741.01
588.012	27273.48
588.21	26800.4
588.407	26945.81
588.604	26687.76
588.801	26652.95
588.999	26528.02
589.196	26525.97
589.393	26376.47
589.59	26124.57
589.787	26468.63
589.984	26059.04
590.182	25674.02
590.379	26243.35
590.576	26102.04
590.773	25960.73
590.97	25936.16
591.167	25819.42
591.364	25434.41
591.561	25803.04
591.758	25350.44
591.955	25467.17
592.152	25549.09
592.349	25004.33
592.546	25241.9
592.743	25176.36
592.94	24611.12
593.137	25125.16
593.334	25237.8
593.531	24609.08
593.727	25180.46
593.924	24561.97
594.121	24181.05
594.318	24734
594.515	24207.67
594.712	24758.58
594.908	24160.57
595.105	24437.05
595.302	24086.84
595.499	24080.7
595.696	23832.9
595.892	23654.72
596.089	24078.65
596.286	23802.18
596.482	23890.24
596.679	23685.44
596.876	23646.53
597.072	23847.23
597.269	23470.4
597.466	23253.32
597.662	23368.01
597.859	23408.97
598.055	23331.14
598.252	23404.87
598.448	23206.22
598.645	23126.35
598.841	22944.08
599.038	23023.95
599.234	22765.9
599.431	22550.87
599.627	22776.14
599.824	22677.84
600.02	22413.65
600.217	22626.64
600.413	22057.31
600.609	22208.86
600.806	22360.41
601.002	22020.44
601.198	21836.13
601.395	21850.46
601.591	22161.75
601.787	21885.28
601.984	21666.14
602.18	21924.19
602.376	21649.76
602.572	21494.11
602.769	21127.53
602.965	21590.37
603.161	21514.59
603.357	21193.06
603.553	21379.43
603.75	21459.3
603.946	21074.28
604.142	21340.52
604.338	20906.35
604.534	20873.58
604.73	20664.69
604.926	20715.89
605.122	21008.75
605.318	20513.14
605.514	20629.87
605.71	20699.5
605.906	20609.39
606.102	20513.14
606.298	20423.03
606.494	20539.76
606.69	20564.34
606.886	20439.41
607.082	19878.27
607.278	20040.06
607.474	19927.42
607.67	20457.84
607.866	19546.5
608.062	19804.54
608.257	19868.03
608.453	19812.73
608.649	19825.02
608.845	19810.68
609.041	19730.81
609.236	19562.88
609.432	19526.02
609.628	19816.83
609.824	19548.54
610.019	19618.18
610.215	19534.21
610.411	19476.87
610.606	19517.82
610.802	19323.27
610.998	18907.53
611.193	19214.73
611.389	19151.24
611.584	18735.5
611.78	18901.39
611.976	19091.85
612.171	19026.31
612.367	18981.26
612.562	18979.21
612.758	18712.97
612.953	18780.56
613.149	18717.07
613.344	18563.47
613.539	18643.34
613.735	18700.69
613.93	18547.09
614.126	18303.38
614.321	18741.64
614.517	18672.01
614.712	18401.68
614.907	18098.58
615.103	18508.18
615.298	18211.22
615.493	18469.26
615.688	17942.94
615.884	18571.66
616.079	18164.12
616.274	18278.8
616.47	18317.72
616.665	18213.27
616.86	17963.42
617.055	18055.58
617.25	17924.51
617.445	17940.89
617.641	17623.45
617.836	17916.31
618.031	17459.62
618.226	17772.96
618.421	17650.08
618.616	17766.81
618.811	17359.27
619.006	17678.75
619.201	17301.92
619.396	17404.32
619.591	17082.79
619.786	17361.31
619.981	17125.8
620.176	17414.56
620.371	16806.31
620.566	17273.25
620.761	16818.6
620.956	16902.57
621.151	16443.82
621.346	16630.19
621.541	16576.94
621.735	16654.76
621.93	16343.47
622.125	16613.81
622.32	15970.74
622.515	15970.74
622.709	16417.2
622.904	16253.36
623.099	15929.78
623.294	15864.25
623.488	15847.86
623.683	15569.34
623.878	15483.33
624.072	15456.7
624.267	15481.28
624.462	15557.05
624.656	15077.83
624.851	15208.9
625.046	15092.16
625.24	15061.44
625.435	14784.97
625.629	14883.27
625.824	14905.8
626.018	14701
626.213	14545.36
626.407	14688.71
626.602	14512.59
626.796	14500.3
626.991	14406.09
627.185	14270.93
627.38	14299.6
627.574	13832.66
627.768	13765.08
627.963	13836.76
628.157	13763.03
628.352	13814.23
628.546	13609.43
628.74	13877.72
628.935	13586.91
629.129	13533.66
629.323	13105.63
629.517	13418.97
629.712	13273.57
629.906	13455.84
630.1	13173.22
630.294	12970.47
630.489	12970.47
630.683	13066.72
630.877	12837.35
631.071	12952.04
631.265	12782.06
631.459	12681.71
631.653	12419.57
631.848	12444.14
632.042	12347.89
632.236	12489.2
632.43	12161.52
632.624	12145.14
632.818	12265.97
633.012	12106.23
633.206	12280.3
633.4	12044.79
633.594	11702.78
633.788	11938.29
633.982	11952.63
634.176	11909.62
634.369	11829.75
634.563	11547.13
634.757	11450.88
634.951	11590.14
635.145	11680.25
635.339	11481.6
635.533	11520.51
635.726	11471.36
635.92	11325.95
636.114	11334.14
636.308	11125.25
636.501	11051.52
636.695	11035.14
636.889	10983.94
637.083	10725.9
637.276	10945.03
637.47	10770.95
637.664	10873.35
637.857	10938.88
638.051	10764.81
638.244	10637.83
638.438	10490.38
638.632	10455.56
638.825	10361.36
639.019	10273.29
639.212	10076.69
639.406	10226.19
639.599	10005.01
639.793	10101.26
639.986	10031.63
640.18	10162.7
640.373	9878.04
640.567	10015.25
640.76	9921.04
640.954	9863.7
641.147	9781.78
641.34	9619.99
641.534	9810.45
641.727	9869.84
641.92	9837.08
642.114	9624.09
642.307	9576.98
642.5	9499.16
642.694	9228.83
642.887	9409.05
643.08	9511.45
643.273	9282.08
643.467	9009.7
643.66	9030.18
643.853	9273.89
644.046	8946.21
644.239	9026.08
644.432	9128.48
644.626	8798.76
644.819	8901.15
645.012	8917.54
645.205	8737.32
645.398	8731.17
645.591	8536.62
645.784	8456.75
645.977	8614.44
646.17	8528.42
646.363	8589.86
646.556	8417.83
646.749	8274.48
646.942	8499.75
647.135	8393.26
647.328	8331.82
647.521	8344.11
647.714	8245.8
647.907	8311.34
648.099	8102.45
648.292	8133.17
648.485	7836.21
648.678	7862.83
648.871	7854.64
649.064	7801.4
649.256	7922.23
649.449	7750.2
649.642	7770.68
649.835	7739.96
650.027	7682.61
650.22	7696.95
650.413	7586.36
650.605	7762.48
650.798	7359.03
650.991	7422.52
651.183	7647.8
651.376	7543.35
651.568	7469.62
651.761	7291.45
651.954	7410.23
652.146	7422.52
652.339	7219.77
652.531	7410.23
652.724	7322.17
652.916	7258.68
653.109	7225.92
653.301	7273.02
653.494	7330.36
653.686	7053.89
653.879	7230.01
654.071	6959.68
654.263	6959.68
654.456	6896.19
654.648	6939.2
654.84	6773.32
655.033	6715.97
655.225	6961.73
655.417	6715.97
655.61	6701.64
655.802	6707.78
655.994	6695.49
656.186	6603.33
656.379	6619.72
656.571	6355.53
656.763	6656.58
656.955	6445.64
657.148	6404.68
657.34	6355.53
657.532	6545.99
657.724	6363.72
657.916	6394.44
658.108	6322.76
658.3	6193.74
658.492	6349.39
658.684	6230.6
658.876	6195.79
659.068	6130.25
659.26	6193.74
659.452	6142.54
659.644	6191.69
659.836	6273.61
660.028	6136.4
660.22	6066.77
660.412	5980.75
660.604	6050.38
660.796	6191.69
660.988	5913.17
661.18	6083.15
661.372	5927.5
661.563	5753.43
661.755	5993.04
661.947	5851.73
662.139	5765.71
662.331	5849.68
662.522	5829.2
662.714	5841.49
662.906	5565.01
663.097	5743.19
663.289	5771.86
663.481	5552.73
663.673	5755.47
663.864	5626.45
664.056	5542.49
664.247	5728.85
664.439	5503.57
664.631	5651.03
664.822	5612.12
665.014	5577.3
665.205	5489.24
665.397	5300.83
665.588	5530.2
665.78	5517.91
665.971	5448.28
666.163	5476.95
666.354	5456.47
666.546	5313.11
666.737	5186.14
666.929	5366.36
667.12	5347.93
667.311	5325.4
667.503	5352.02
667.694	5522.01
667.885	5296.73
668.077	5403.22
668.268	5218.91
668.459	5413.46
668.651	5149.28
668.842	5333.59
669.033	5143.13
669.224	5292.63
669.416	5337.69
669.607	5134.94
669.798	5118.56
669.989	5354.07
670.18	5155.42
670.371	5200.48
670.563	5257.82
670.754	5100.12
670.945	5161.56
671.136	5194.33
671.327	5128.8
671.518	5198.43
671.709	5149.28
671.9	5141.08
672.091	5186.14
672.282	5159.52
672.473	5014.11
672.664	5227.1
672.855	5216.86
673.046	5243.48
673.237	5227.1
673.428	5325.4
673.619	5083.74
673.809	5038.69
674	5096.03
674.191	5118.56
674.382	5149.28
674.573	5397.08
674.764	5325.4
674.954	5253.72
675.145	5177.95
675.336	5124.7
675.527	5255.77
675.717	5339.74
675.908	5145.18
676.099	5075.55
676.289	5296.73
676.48	5231.19
676.671	5184.09
676.861	5286.49
677.052	5241.43
677.243	5233.24
677.433	5403.22
677.624	5356.12
677.814	5345.88
678.005	5395.03
678.195	5253.72
678.386	5339.74
678.576	5333.59
678.767	5309.02
678.957	5419.61
679.148	5370.46
679.338	5415.51
679.529	5446.23
679.719	5276.25
679.909	5534.29
680.1	5562.97
680.29	5497.43
680.481	5509.72
680.671	5450.33
680.861	5571.16
681.052	5339.74
681.242	5614.16
681.432	5489.24
681.622	5595.73
681.813	5483.09
682.003	5648.98
682.193	5669.46
682.383	5495.38
682.573	5798.48
682.764	5626.45
682.954	5528.15
683.144	5724.76
683.334	5536.34
683.524	5524.05
683.714	5685.84
683.904	5657.17
684.094	5689.94
684.284	5548.63
684.474	5788.24
684.664	5618.26
684.854	5487.19
685.044	5702.23
685.234	5653.08
685.424	5653.08
685.614	5542.49
685.804	5612.12
685.994	5538.39
686.184	5466.71
686.374	5468.76
686.564	5517.91
686.753	5479
686.943	5438.04
687.133	5495.38
687.323	5435.99
687.513	5503.57
687.702	5407.32
687.892	5487.19
688.082	5194.33
688.272	5354.07
688.461	5266.01
688.651	5243.48
688.841	5241.43
689.03	5304.92
689.22	5206.62
689.41	5300.83
689.599	5124.7
689.789	5161.56
689.979	5044.83
690.168	5093.98
690.358	4880.99
690.547	4924
690.737	4967.01
690.926	4874.85
691.116	4719.2
691.305	4946.53
691.495	4844.13
691.684	4842.08
691.874	4749.92
692.063	4950.62
692.252	4825.7
692.442	4678.24
692.631	4565.6
692.82	4639.33
693.01	4682.34
693.199	4522.6
693.388	4637.28
693.578	4588.13
693.767	4616.8
693.956	4485.73
694.146	4440.68
694.335	4493.93
694.524	4416.1
694.713	4416.1
694.902	4344.42
695.092	4309.61
695.281	4295.27
695.47	4242.03
695.659	4317.8
695.848	4244.07
696.037	4233.83
696.226	4213.35
696.415	4168.3
696.604	4303.46
696.793	4328.04
696.982	4244.07
697.171	4127.34
697.36	4182.63
697.549	4121.2
697.738	4096.62
697.927	4250.22
698.116	4168.3
698.305	4207.21
698.494	4235.88
698.683	4024.94
698.872	3990.13
699.061	4022.89
699.25	3973.74
699.438	4153.96
699.627	4045.42
699.816	3990.13
700.005	4055.66
700.193	3943.02
700.382	3938.93
700.571	4008.56
700.76	4065.9
700.948	4110.96
701.137	3947.12
701.326	3891.82
701.514	4043.37
701.703	4047.47
701.892	3986.03
702.08	4094.57
702.269	4061.8
702.457	3994.22
702.646	3981.93
702.834	3994.22
703.023	4010.61
703.212	3953.26
703.4	4002.41
703.589	4117.1
703.777	4108.91
703.965	3920.49
704.154	4010.61
704.342	4010.61
704.531	4080.24
704.719	3981.93
704.907	4121.2
705.096	4033.13
705.284	4211.31
705.472	4086.38
705.661	4063.85
705.849	4162.16
706.037	4121.2
706.226	4090.48
706.414	4215.4
706.602	4153.96
706.79	4219.5
706.979	4047.47
707.167	4106.86
707.355	4022.89
707.543	4160.11
707.731	4162.16
707.919	4252.27
708.107	4145.77
708.296	4293.23
708.484	4029.04
708.672	4301.42
708.86	4178.54
709.048	4209.26
709.236	4338.28
709.424	4268.65
709.612	4231.79
709.8	4315.75
709.988	4237.93
710.176	4364.9
710.364	4391.53
710.551	4366.95
710.739	4397.67
710.927	4399.72
711.115	4323.94
711.303	4473.45
711.491	4526.69
711.679	4276.84
711.866	4436.58
712.054	4551.27
712.242	4428.39
712.43	4665.96
712.617	4514.41
712.805	4397.67
712.993	4592.23
713.181	4467.3
713.368	4594.28
713.556	4553.32
713.744	4397.67
713.931	4684.39
714.119	4741.73
714.306	4792.93
714.494	4625
714.682	4743.78
714.869	4575.84
715.057	4694.63
715.244	4704.87
715.432	4862.56
715.619	4657.76
715.807	4840.03
715.994	4819.55
716.182	4866.66
716.369	4809.31
716.556	5001.82
716.744	4960.86
716.931	4819.55
717.119	4938.34
717.306	4911.71
717.493	4913.76
717.681	4956.77
717.868	4917.86
718.055	4792.93
718.242	4928.1
718.43	5147.23
718.617	5136.99
718.804	5026.4
718.991	5050.97
719.179	5102.17
719.366	5165.66
719.553	5216.86
719.74	5118.56
719.927	5165.66
720.114	5194.33
720.301	5349.98
720.488	5227.1
720.676	5292.63
720.863	5325.4
721.05	5286.49
721.237	5390.94
721.424	5360.22
721.611	5272.15
721.798	5413.46
721.985	5413.46
722.172	5456.47
722.358	5366.36
722.545	5481.05
722.732	5438.04
722.919	5495.38
723.106	5339.74
723.293	5487.19
723.48	5583.45
723.667	5431.9
723.853	5593.69
724.04	5587.54
724.227	5616.21
724.414	5648.98
724.6	5513.81
724.787	5583.45
724.974	5567.06
725.161	5595.73
725.347	5608.02
725.534	5784.15
725.72	5782.1
725.907	5792.34
726.094	5763.67
726.28	5812.82
726.467	5753.43
726.653	5837.39
726.84	5859.92
727.027	6019.66
727.213	5737.04
727.4	5972.56
727.586	5806.67
727.773	5911.12
727.959	5988.94
728.145	5816.91
728.332	5982.8
728.518	6001.23
728.705	5931.6
728.891	5775.95
729.077	5808.72
729.264	5868.11
729.45	6072.91
729.636	6034
729.823	6058.57
730.009	6070.86
730.195	5954.13
730.382	6283.85
730.568	6083.15
730.754	6156.88
730.94	6128.21
731.126	6128.21
731.313	6062.67
731.499	6167.12
731.685	6099.53
731.871	6087.25
732.057	6226.51
732.243	6099.53
732.429	6234.7
732.615	6292.04
732.801	6218.32
732.987	6330.95
733.173	6298.19
733.359	6353.48
733.545	6177.36
733.731	6257.23
733.917	6273.61
734.103	6306.38
734.289	6316.62
734.475	6337.1
734.661	6388.3
734.847	6361.67
735.033	6427.21
735.219	6179.4
735.404	6308.43
735.59	6390.35
735.776	6134.35
735.962	6404.68
736.148	6378.06
736.333	6351.43
736.519	6279.75
736.705	6464.07
736.89	6302.28
737.076	6294.09
737.262	6246.99
737.447	6257.23
737.633	6179.4
737.819	6318.67
738.004	6318.67
738.19	6302.28
738.375	6310.47
738.561	6447.69
738.747	6292.04
738.932	6177.36
739.118	6289.99
739.303	6183.5
739.489	6371.91
739.674	6285.9
739.859	6343.24
740.045	6175.31
740.23	6027.85
740.416	6025.81
740.601	6257.23
740.786	6050.38
740.972	6156.88
741.157	6163.02
741.342	6308.43
741.528	6228.56
741.713	6070.86
741.898	6040.14
742.084	6036.05
742.269	6111.82
742.454	6240.84
742.639	6066.77
742.824	5960.27
743.01	5960.27
743.195	5958.22
743.38	6138.44
743.565	5876.3
743.75	5956.18
743.935	5853.78
744.12	5964.37
744.305	5902.93
744.49	5636.69
744.675	5859.92
744.86	5718.61
745.045	5728.85
745.23	5831.25
745.415	5831.25
745.6	5747.28
745.785	5636.69
745.97	5704.28
746.155	5550.68
746.34	5714.52
746.525	5522.01
746.71	5735
746.895	5575.25
747.079	5534.29
747.264	5454.42
747.449	5405.27
747.634	5366.36
747.819	5446.23
748.003	5286.49
748.188	5180
748.373	5268.06
748.557	5139.04
748.742	5245.53
748.927	5161.56
749.111	5126.75
749.296	5014.11
749.481	5214.81
749.665	4956.77
749.85	4837.98
750.034	5100.12
750.219	4921.95
750.404	4819.55
750.588	4850.27
750.773	4825.7
750.957	4676.2
751.141	4735.59
751.326	4790.88
751.51	4856.42
751.695	4694.63
751.879	4754.02
752.064	4735.59
752.248	4645.48
752.432	4371.05
752.617	4547.17
752.801	4440.68
752.985	4424.3
753.17	4436.58
753.354	4381.29
753.538	4381.29
753.722	4246.12
753.907	4190.83
754.091	4205.16
754.275	4141.68
754.459	4305.51
754.643	4035.18
754.828	4170.35
755.012	3867.25
755.196	4121.2
755.38	4078.19
755.564	4076.14
755.748	3936.88
755.932	3983.98
756.116	3895.92
756.3	3940.97
756.484	3881.58
756.668	3951.21
756.852	3613.3
757.036	3764.85
757.22	3744.37
757.404	3670.64
757.588	3723.89
757.772	3717.75
757.956	3846.77
758.14	3672.69
758.323	3478.13
758.507	3654.26
758.691	3381.88
758.875	3471.99
759.059	3422.84
759.242	3439.22
759.426	3351.16
759.61	3490.42
759.794	3447.41
759.977	3394.17
760.161	3404.41
760.345	3324.54
760.528	3351.16
760.712	3281.53
760.895	3203.71
761.079	3109.5
761.263	3273.34
761.446	3162.75
761.63	3314.3
761.813	3211.9
761.997	3089.02
762.18	3138.17
762.364	3127.93
762.547	3027.58
762.731	3121.79
762.914	3054.2
763.098	3195.51
763.281	2923.13
763.464	3019.39
763.648	3023.48
763.831	2978.43
764.015	2820.74
764.198	2925.18
764.381	2957.95
764.564	2986.62
764.748	2849.41
764.931	2822.78
765.114	2841.22
765.297	2886.27
765.481	2759.3
765.664	2857.6
765.847	2691.71
766.03	2876.03
766.213	2898.56
766.397	2669.19
766.58	2785.92
766.763	2697.86
766.946	2693.76
767.129	2652.8
767.312	2740.86
767.495	2638.47
767.678	2589.32
767.861	2568.84
768.044	2470.53
768.227	2626.18
768.41	2597.51
768.593	2660.99
768.776	2548.36
768.959	2570.88
769.142	2503.3
769.324	2464.39
769.507	2480.77
769.69	2392.71
769.873	2374.28
770.056	2568.84
770.239	2409.09
770.421	2466.44
770.604	2441.86
770.787	2384.52
770.97	2333.32
771.152	2316.94
771.335	2253.45
771.518	2359.94
771.7	2392.71
771.883	2161.29
772.066	2247.3
772.248	2245.26
772.431	2325.13
772.613	2325.13
772.796	2282.12
772.978	2155.15
773.161	2269.83
773.343	2204.3
773.526	2175.63
773.708	2144.91
773.891	2028.17
774.073	2122.38
774.256	2038.41
774.438	2015.88
774.621	1991.31
774.803	2167.43
774.985	1993.36
775.168	2120.33
775.35	1981.07
775.532	2058.89
775.715	2040.46
775.897	1837.71
776.079	1843.85
776.261	2048.65
776.444	1809.04
776.626	1825.42
776.808	1788.56
776.99	1852.05
777.173	1841.81
777.355	1770.13
777.537	1831.57
777.719	1774.22
777.901	1800.85
778.083	1708.69
778.265	1694.35
778.447	1782.42
778.629	1626.77
778.811	1671.83
778.993	1637.01
779.175	1628.82
779.357	1622.67
779.539	1606.29
779.721	1669.78
779.903	1673.87
780.085	1569.43
780.267	1528.47
780.449	1598.1
780.631	1495.7
780.812	1628.82
780.994	1479.32
781.176	1491.6
781.358	1602.19
781.54	1421.97
781.721	1417.88
781.903	1376.92
782.085	1358.49
782.267	1487.51
782.448	1391.25
782.63	1393.3
782.812	1430.16
782.993	1356.44
783.175	1364.63
783.357	1315.48
783.538	1333.91
783.72	1258.14
783.901	1317.53
784.083	1249.94
784.264	1286.81
784.446	1333.91
784.627	1297.05
784.809	1251.99
784.99	1180.31
785.172	1299.09
785.353	1239.7
785.535	1284.76
785.716	1188.5
785.897	1114.78
786.079	1200.79
786.26	1118.87
786.441	1145.5
786.623	1067.67
786.804	1110.68
786.985	1145.5
787.167	1122.97
787.348	1008.28
787.529	1155.74
787.71	1131.16
787.891	1063.58
788.073	940.7
788.254	1061.53
788.435	1118.87
788.616	1094.3
788.797	1000.09
788.978	1016.48
789.159	912.03
789.34	1024.67
789.522	934.56
789.703	991.9
789.884	938.65
790.065	979.61
790.246	977.56
790.427	963.23
790.607	1049.24
790.788	932.51
790.969	942.75
791.15	979.61
791.331	1030.81
791.512	834.21
791.693	803.49
791.874	828.06
792.054	942.75
792.235	975.52
792.416	795.29
792.597	846.49
792.778	856.73
792.958	871.07
793.139	832.16
793.32	836.25
793.5	801.44
793.681	858.78
793.862	856.73
794.042	815.77
794.223	832.16
794.404	717.47
794.584	877.21
794.765	793.25
794.945	924.32
795.126	725.66
795.306	805.53
795.487	795.29
795.667	701.09
795.848	823.97
796.028	762.53
796.209	692.9
796.389	785.05
796.57	688.8
796.75	772.77
796.93	629.41
797.111	815.77
797.291	717.47
797.471	715.42
797.652	703.14
797.832	596.64
798.012	735.9
798.192	653.98
798.373	711.33
798.553	613.03
798.733	684.7
798.913	647.84
799.093	637.6
799.274	690.85
799.454	639.65
799.634	721.57
799.814	701.09
799.994	672.42
800.174	696.99
800.354	617.12
800.534	565.92
800.714	580.26
800.894	631.46
801.074	623.27
801.254	615.07
801.434	643.74
801.614	549.54
801.794	621.22
801.974	1303.19
802.154	656.03
802.334	590.5
802.514	541.35
802.693	572.07
802.873	574.11
803.053	506.53
803.233	604.83
803.413	529.06
803.592	570.02
803.772	531.11
803.952	533.15
804.131	416.42
804.311	500.39
804.491	563.87
804.67	418.47
804.85	508.58
805.03	535.2
805.209	588.45
805.389	471.72
805.568	420.52
805.748	492.2
805.928	555.68
806.107	557.73
806.287	537.25
806.466	443.04
806.646	504.48
806.825	479.91
807.004	549.54
807.184	420.52
807.363	529.06
807.543	522.91
807.722	418.47
807.901	500.39
808.081	565.92
808.26	447.14
808.439	520.87
808.619	449.19
808.798	445.09
808.977	438.95
809.156	459.43
809.336	479.91
809.515	541.35
809.694	424.61
809.873	414.37
810.052	508.58
810.231	504.48
810.411	492.2
810.59	436.9
810.769	422.56
810.948	559.78
811.127	381.6
811.306	373.41
811.485	344.74
811.664	543.39
811.843	365.22
812.022	414.37
812.201	357.03
812.38	410.28
812.559	408.23
812.737	359.08
812.916	361.13
813.095	363.17
813.274	418.47
813.453	391.84
813.632	369.32
813.811	418.47
813.989	328.36
814.168	381.6
814.347	287.4
814.526	320.17
814.704	426.66
814.883	432.8
815.062	275.11
815.24	357.03
815.419	324.26
815.598	455.33
815.776	381.6
815.955	379.56
816.133	287.4
816.312	371.37
816.49	348.84
816.669	391.84
816.847	328.36
817.026	393.89
817.204	361.13
817.383	369.32
817.561	408.23
817.74	365.22
817.918	336.55
818.097	311.97
818.275	303.78
818.453	320.17
818.632	291.49
818.81	344.74
818.988	289.45
819.167	328.36
819.345	291.49
819.523	250.53
819.701	350.89
819.879	344.74
820.058	352.93
820.236	326.31
820.414	371.37
820.592	262.82
820.77	328.36
820.948	418.47
821.127	195.24
821.305	359.08
821.483	273.06
821.661	338.6
821.839	236.2
822.017	275.11
822.195	203.43
822.373	328.36
822.551	346.79
822.729	314.02
822.907	299.69
823.085	273.06
823.262	287.4
823.44	244.39
823.618	236.2
823.796	303.78
823.974	246.44
824.152	201.38
824.329	271.01
824.507	211.62
824.685	281.25
824.863	189.1
825.04	297.64
825.218	217.77
825.396	213.67
825.574	301.73
825.751	244.39
825.929	303.78
826.107	271.01
826.284	246.44
826.462	291.49
826.639	131.75
826.817	211.62
826.994	189.1
827.172	197.29
827.349	318.12
827.527	258.73
827.704	250.53
827.882	268.97
828.059	187.05
828.237	180.9
828.414	221.86
828.591	121.51
828.769	180.9
828.946	193.19
829.124	180.9
829.301	238.25
829.478	135.85
829.655	287.4
829.833	180.9
830.01	250.53
830.187	283.3
830.364	129.7
830.542	230.06
830.719	350.89
830.896	201.38
831.073	311.97
831.25	211.62
831.427	250.53
831.604	193.19
831.782	232.1
831.959	131.75
832.136	139.94
832.313	189.1
832.49	215.72
832.667	197.29
832.844	164.52
833.021	123.56
833.198	189.1
833.374	187.05
833.551	197.29
833.728	207.53
833.905	236.2
834.082	154.28
834.259	152.23
834.436	209.58
834.612	164.52
834.789	121.51
834.966	117.42
835.143	156.33
835.319	90.79
835.496	213.67
835.673	191.14
835.85	219.82
836.026	123.56
836.203	197.29
836.38	162.47
836.556	238.25
836.733	98.99
836.909	225.96
837.086	115.37
837.262	201.38
837.439	96.94
837.616	164.52
837.792	168.62
837.968	158.38
838.145	107.18
838.321	129.7
838.498	203.43
838.674	180.9
838.851	119.46
839.027	133.8
839.203	127.66
839.38	160.42
839.556	129.7
839.732	125.61
839.909	154.28
840.085	197.29
840.261	90.79
840.437	137.9
840.614	80.55
840.79	191.14
840.966	148.14
841.142	240.3
841.318	156.33
841.494	148.14
841.671	113.32
841.847	148.14
842.023	154.28
842.199	203.43
842.375	113.32
842.551	74.41
842.727	96.94
842.903	129.7
843.079	115.37
843.255	156.33
843.431	230.06
843.607	86.7
843.783	37.55
843.959	127.66
844.134	152.23
844.31	193.19
844.486	139.94
844.662	84.65
844.838	92.84
845.013	135.85
845.189	107.18
845.365	170.66
845.541	139.94
845.716	131.75
845.892	139.94
846.068	176.81
846.244	129.7
846.419	107.18
846.595	107.18
846.77	19.11
846.946	115.37
847.122	39.59
847.297	74.41
847.473	162.47
847.648	82.6
847.824	49.83
847.999	-44.37
848.175	64.17
848.35	221.86
848.526	148.14
848.701	103.08
848.876	129.7
849.052	15.02
849.227	62.12
849.403	41.64
849.578	90.79
849.753	109.22
849.929	55.98
850.104	37.55
850.279	90.79
850.454	82.6
850.63	115.37
850.805	86.7
850.98	62.12
851.155	105.13
851.33	86.7
851.505	41.64
851.681	156.33
851.856	96.94
852.031	41.64
852.206	47.79
852.381	168.62
852.556	98.99
852.731	72.36
852.906	49.83
853.081	90.79
853.256	154.28
853.431	72.36
853.606	-5.46
853.781	66.22
853.956	31.4
854.131	113.32
854.305	68.27
854.48	8.87
854.655	47.79
854.83	31.4
855.005	45.74
855.18	148.14
855.354	33.45
855.529	131.75
855.704	74.41
855.879	98.99
856.053	78.51
856.228	25.26
856.403	-3.41
856.577	107.18
856.752	-25.94
856.926	41.64
857.101	0.68
857.276	-13.65
857.45	33.45
857.625	39.59
857.799	74.41
857.974	133.8
858.148	-25.94
858.323	88.75
858.497	131.75
858.672	74.41
858.846	4.78
859.02	72.36
859.195	-42.32
859.369	107.18
859.543	45.74
859.718	68.27
859.892	8.87
860.066	70.31
860.241	33.45
860.415	21.16
860.589	0.68
860.763	25.26
860.938	41.64
861.112	86.7
861.286	21.16
861.46	72.36
861.634	41.64
861.808	135.85
861.982	6.83
862.157	27.31
862.331	17.07
862.505	10.92
862.679	27.31
862.853	39.59
863.027	82.6
863.201	82.6
863.375	39.59
863.549	37.55
863.722	51.88
863.896	33.45
864.07	58.03
864.244	-40.28
864.418	-11.61
864.592	47.79
864.766	-5.46
864.939	66.22
865.113	43.69
865.287	107.18
865.461	4.78
865.634	41.64
865.808	-19.8
865.982	17.07
866.156	47.79
866.329	-1.37
866.503	-30.04
866.676	-13.65
866.85	64.17
867.024	29.35
867.197	-7.51
867.371	17.07
867.544	88.75
867.718	-3.41
867.891	70.31
868.065	-42.32
868.238	62.12
868.412	39.59
868.585	-9.56
868.759	47.79
868.932	49.83
869.105	-40.28
869.279	58.03
869.452	96.94
869.625	17.07
869.799	-25.94
869.972	-32.08
870.145	53.93
870.319	15.02
870.492	58.03
870.665	23.21
870.838	10.92
871.011	-81.24
871.185	41.64
871.358	-66.9
871.531	43.69
871.704	-19.8
871.877	33.45
872.05	15.02
872.223	37.55
872.396	33.45
872.569	25.26
872.742	-42.32
872.915	55.98
873.088	25.26
873.261	29.35
873.434	-40.28
873.607	45.74
873.78	111.27
873.953	12.97
874.126	35.5
874.299	70.31
874.471	94.89
874.644	15.02
874.817	51.88
874.99	72.36
875.163	-64.85
875.335	-23.89
875.508	0.68
875.681	41.64
875.853	-23.89
876.026	41.64
876.199	-25.94
876.371	21.16
876.544	-44.37
876.717	111.27
876.889	-32.08
877.062	47.79
877.234	-15.7
877.407	8.87
877.579	33.45
877.752	107.18
877.924	6.83
878.097	-23.89
878.269	53.93
878.442	-13.65
878.614	35.5
878.786	31.4
878.959	0.68
879.131	72.36
879.303	-19.8
879.476	109.22
879.648	12.97
879.82	4.78
879.993	-7.51
880.165	33.45
880.337	33.45
880.509	39.59
880.681	31.4
880.854	49.83
881.026	66.22
881.198	96.94
881.37	8.87
881.542	4.78
881.714	-17.75
881.886	23.21
882.058	-23.89
882.23	37.55
882.402	47.79
882.574	21.16
882.746	-7.51
882.918	-7.51
883.09	-44.37
883.262	23.21
883.434	21.16
883.606	-27.99
883.778	58.03
883.95	47.79
884.122	-17.75
884.293	8.87
884.465	8.87
884.637	41.64
884.809	-3.41
884.98	-30.04
885.152	53.93
885.324	41.64
885.496	17.07
885.667	-3.41
885.839	29.35
886.011	-21.85
886.182	6.83
886.354	66.22
886.525	8.87
886.697	17.07
886.869	-42.32
887.04	0.68
887.212	12.97
887.383	15.02
887.555	33.45
887.726	17.07
887.897	-66.9
888.069	8.87
888.24	39.59
888.412	19.11
888.583	19.11
888.754	-9.56
888.926	-13.65
889.097	25.26
889.268	-66.9
889.44	45.74
889.611	-23.89
889.782	-27.99
889.953	-56.66
890.125	62.12
890.296	-32.08
890.467	-34.13
890.638	37.55
890.809	-13.65
890.98	-50.52
891.151	74.41
891.323	-7.51
891.494	66.22
891.665	-19.8
891.836	-27.99
892.007	-27.99
892.178	86.7
892.349	-1.37
892.52	-58.71
892.691	23.21
892.862	-11.61
893.032	17.07
893.203	-46.42
893.374	8.87
893.545	0.68
893.716	-68.95
893.887	4.78
894.057	86.7
894.228	-7.51
894.399	-40.28
894.57	2.73
894.74	-66.9
894.911	21.16
895.082	78.51
895.253	90.79
895.423	-9.56
895.594	-27.99
895.764	12.97
895.935	31.4
896.106	8.87
896.276	-75.09
896.447	37.55
896.617	15.02
896.788	-52.56
896.958	-48.47
897.129	-66.9
897.299	-85.33
897.47	74.41
897.64	-34.13
897.81	-11.61
897.981	4.78
898.151	53.93
898.322	8.87
898.492	41.64
898.662	47.79
898.832	-48.47
899.003	-32.08
899.173	74.41
899.343	-60.76
899.513	-9.56
