Data from USB4F104151__26__11-30-03-965.txt Node

Date: Fri Mar 14 11:30:03 EDT 2025
User: louis
Spectrometer: USB4F10415
Trigger mode: 4
Integration Time (sec): 5.000000E-2
Scans to average: 1
Electric dark correction enabled: true
Nonlinearity correction enabled: false
Boxcar width: 0
XAxis mode: Wavelengths
Number of Pixels in Spectrum: 3648
>>>>>Begin Spectral Data<<<<<
178.204	-44.88
178.424	-44.88
178.644	-44.88
178.864	-194.39
179.084	-108.37
179.304	-22.36
179.524	-20.31
179.744	-63.32
179.964	61.61
180.184	-12.12
180.404	0.17
180.624	61.61
180.844	-8.02
181.064	-28.5
181.283	0.17
181.503	18.6
181.723	12.46
181.943	-61.27
182.163	26.79
182.383	12.46
182.602	41.13
182.822	12.46
183.042	0.17
183.262	-28.5
183.482	-67.41
183.701	37.03
183.921	32.94
184.141	0.17
184.361	20.65
184.58	20.65
184.8	59.56
185.02	-36.69
185.239	-34.64
185.459	37.03
185.679	123.05
185.898	0.17
186.118	67.75
186.338	-16.21
186.557	-28.5
186.777	32.94
186.997	37.03
187.216	-46.93
187.436	61.61
187.655	-28.5
187.875	-3.93
188.095	86.19
188.314	-3.93
188.534	71.85
188.753	-3.93
188.973	43.18
189.192	61.61
189.412	-36.69
189.631	41.13
189.851	12.46
190.07	47.27
190.29	16.55
190.509	28.84
190.729	20.65
190.948	12.46
191.168	90.28
191.387	118.95
191.607	20.65
191.826	57.51
192.045	-34.64
192.265	2.22
192.484	-44.88
192.704	24.75
192.923	-12.12
193.142	73.9
193.362	63.66
193.581	26.79
193.8	20.65
194.02	100.52
194.239	-1.88
194.458	14.51
194.678	12.46
194.897	45.23
195.116	53.42
195.335	26.79
195.555	-24.4
195.774	-32.6
195.993	26.79
196.212	18.6
196.432	4.27
196.651	-8.02
196.87	10.41
197.089	96.43
197.308	69.8
197.528	20.65
197.747	-20.31
197.966	32.94
198.185	77.99
198.404	-12.12
198.623	59.56
198.842	22.7
199.062	151.72
199.281	34.99
199.5	4.27
199.719	41.13
199.938	67.75
200.157	61.61
200.376	63.66
200.595	2.22
200.814	2.22
201.033	2.22
201.252	63.66
201.471	47.27
201.69	37.03
201.909	12.46
202.128	24.75
202.347	94.38
202.566	43.18
202.785	-32.6
203.004	43.18
203.223	118.95
203.442	86.19
203.661	8.36
203.879	102.57
204.098	69.8
204.317	-20.31
204.536	53.42
204.755	69.8
204.974	20.65
205.193	51.37
205.411	127.14
205.63	90.28
205.849	37.03
206.068	-46.93
206.287	37.03
206.505	112.81
206.724	28.84
206.943	-3.93
207.162	75.95
207.381	18.6
207.599	57.51
207.818	0.17
208.037	26.79
208.255	69.8
208.474	-53.08
208.693	-14.17
208.911	-16.21
209.13	37.03
209.349	55.47
209.567	53.42
209.786	127.14
210.005	26.79
210.223	37.03
210.442	18.6
210.661	-22.36
210.879	-20.31
211.098	-8.02
211.316	43.18
211.535	20.65
211.753	49.32
211.972	96.43
212.191	-3.93
212.409	37.03
212.628	-22.36
212.846	-16.21
213.065	67.75
213.283	16.55
213.502	75.95
213.72	61.61
213.938	-1.88
214.157	-40.79
214.375	41.13
214.594	34.99
214.812	28.84
215.031	-44.88
215.249	-53.08
215.467	18.6
215.686	-24.4
215.904	88.23
216.122	32.94
216.341	118.95
216.559	102.57
216.778	45.23
216.996	20.65
217.214	37.03
217.432	-53.08
217.651	-8.02
217.869	20.65
218.087	24.75
218.306	49.32
218.524	88.23
218.742	16.55
218.96	80.04
219.179	45.23
219.397	-1.88
219.615	94.38
219.833	61.61
220.051	41.13
220.27	43.18
220.488	-44.88
220.706	16.55
220.924	49.32
221.142	-14.17
221.36	59.56
221.578	77.99
221.796	24.75
222.015	0.17
222.233	24.75
222.451	116.9
222.669	-3.93
222.887	55.47
223.105	20.65
223.323	61.61
223.541	-71.51
223.759	61.61
223.977	14.51
224.195	37.03
224.413	49.32
224.631	106.67
224.849	-46.93
225.067	84.14
225.285	-53.08
225.503	-20.31
225.721	-16.21
225.939	20.65
226.157	20.65
226.375	110.76
226.592	-3.93
226.81	45.23
227.028	22.7
227.246	137.38
227.464	61.61
227.682	18.6
227.9	67.75
228.117	86.19
228.335	100.52
228.553	8.36
228.771	18.6
228.989	43.18
229.206	-53.08
229.424	0.17
229.642	-51.03
229.86	16.55
230.077	4.27
230.295	-32.6
230.513	57.51
230.731	43.18
230.948	51.37
231.166	77.99
231.384	-10.07
231.601	-18.26
231.819	43.18
232.037	-40.79
232.254	-20.31
232.472	-12.12
232.689	14.51
232.907	71.85
233.125	61.61
233.342	37.03
233.56	2.22
233.777	26.79
233.995	-20.31
234.213	67.75
234.43	14.51
234.648	92.33
234.865	34.99
235.083	0.17
235.3	-79.7
235.518	26.79
235.735	37.03
235.953	30.89
236.17	57.51
236.388	0.17
236.605	102.57
236.822	98.47
237.04	28.84
237.257	37.03
237.475	-36.69
237.692	88.23
237.909	49.32
238.127	4.27
238.344	20.65
238.562	28.84
238.779	-22.36
238.996	24.75
239.214	73.9
239.431	47.27
239.648	-30.55
239.865	86.19
240.083	20.65
240.3	26.79
240.517	53.42
240.735	-3.93
240.952	8.36
241.169	18.6
241.386	37.03
241.603	8.36
241.821	-28.5
242.038	34.99
242.255	100.52
242.472	2.22
242.689	41.13
242.907	28.84
243.124	-46.93
243.341	71.85
243.558	12.46
243.775	49.32
243.992	8.36
244.209	39.08
244.426	88.23
244.643	37.03
244.86	2.22
245.078	53.42
245.295	80.04
245.512	75.95
245.729	-8.02
245.946	75.95
246.163	53.42
246.38	2.22
246.597	28.84
246.814	24.75
247.031	61.61
247.248	34.99
247.464	22.7
247.681	12.46
247.898	-5.97
248.115	-63.32
248.332	-18.26
248.549	53.42
248.766	26.79
248.983	12.46
249.2	32.94
249.417	28.84
249.633	12.46
249.85	73.9
250.067	16.55
250.284	12.46
250.501	16.55
250.717	-22.36
250.934	-61.27
251.151	-53.08
251.368	32.94
251.585	57.51
251.801	28.84
252.018	-46.93
252.235	80.04
252.451	-20.31
252.668	26.79
252.885	77.99
253.102	47.27
253.318	2.22
253.535	24.75
253.752	16.55
253.968	-14.17
254.185	26.79
254.401	61.61
254.618	65.71
254.835	-36.69
255.051	106.67
255.268	20.65
255.484	90.28
255.701	61.61
255.917	47.27
256.134	20.65
256.351	55.47
256.567	4.27
256.784	88.23
257	-8.02
257.217	41.13
257.433	131.24
257.65	67.75
257.866	69.8
258.082	20.65
258.299	43.18
258.515	61.61
258.732	-14.17
258.948	45.23
259.165	28.84
259.381	-32.6
259.597	43.18
259.814	53.42
260.03	12.46
260.246	86.19
260.463	28.84
260.679	41.13
260.895	18.6
261.112	28.84
261.328	45.23
261.544	-81.75
261.761	110.76
261.977	2.22
262.193	-48.98
262.409	34.99
262.626	61.61
262.842	4.27
263.058	28.84
263.274	37.03
263.49	26.79
263.707	71.85
263.923	18.6
264.139	-44.88
264.355	-10.07
264.571	143.53
264.787	53.42
265.004	47.27
265.22	20.65
265.436	100.52
265.652	0.17
265.868	0.17
266.084	73.9
266.3	86.19
266.516	-24.4
266.732	-30.55
266.948	47.27
267.164	-5.97
267.38	37.03
267.596	-8.02
267.812	80.04
268.028	28.84
268.244	-20.31
268.46	-1.88
268.676	-12.12
268.892	75.95
269.108	-48.98
269.324	55.47
269.54	2.22
269.756	30.89
269.972	-1.88
270.188	-20.31
270.403	-32.6
270.619	-57.17
270.835	22.7
271.051	102.57
271.267	0.17
271.483	-65.36
271.698	-3.93
271.914	12.46
272.13	-16.21
272.346	94.38
272.562	37.03
272.777	45.23
272.993	30.89
273.209	61.61
273.425	108.71
273.64	10.41
273.856	12.46
274.072	-65.36
274.287	-26.45
274.503	53.42
274.719	69.8
274.934	14.51
275.15	-16.21
275.366	-40.79
275.581	-51.03
275.797	82.09
276.012	10.41
276.228	-1.88
276.444	12.46
276.659	41.13
276.875	4.27
277.09	2.22
277.306	30.89
277.521	18.6
277.737	39.08
277.952	67.75
278.168	-24.4
278.383	-8.02
278.599	6.31
278.814	47.27
279.03	-10.07
279.245	8.36
279.461	-1.88
279.676	-12.12
279.892	20.65
280.107	-5.97
280.322	30.89
280.538	41.13
280.753	-5.97
280.969	-8.02
281.184	8.36
281.399	45.23
281.615	12.46
281.83	-14.17
282.045	-5.97
282.26	10.41
282.476	39.08
282.691	102.57
282.906	2.22
283.122	65.71
283.337	0.17
283.552	-20.31
283.767	32.94
283.983	49.32
284.198	51.37
284.413	49.32
284.628	-28.5
284.843	86.19
285.058	86.19
285.274	8.36
285.489	-57.17
285.704	106.67
285.919	20.65
286.134	-71.51
286.349	51.37
286.564	63.66
286.779	110.76
286.995	-53.08
287.21	30.89
287.425	59.56
287.64	28.84
287.855	22.7
288.07	-28.5
288.285	-30.55
288.5	86.19
288.715	4.27
288.93	-5.97
289.145	20.65
289.36	30.89
289.575	59.56
289.79	55.47
290.004	28.84
290.219	59.56
290.434	-55.12
290.649	73.9
290.864	18.6
291.079	37.03
291.294	-3.93
291.509	67.75
291.724	26.79
291.938	34.99
292.153	88.23
292.368	14.51
292.583	-16.21
292.798	26.79
293.012	0.17
293.227	37.03
293.442	28.84
293.657	24.75
293.871	69.8
294.086	-59.22
294.301	51.37
294.516	55.47
294.73	-3.93
294.945	-18.26
295.16	8.36
295.374	106.67
295.589	102.57
295.804	28.84
296.018	-69.46
296.233	49.32
296.447	30.89
296.662	10.41
296.877	65.71
297.091	-30.55
297.306	0.17
297.52	59.56
297.735	53.42
297.949	67.75
298.164	45.23
298.378	-30.55
298.593	-36.69
298.807	67.75
299.022	30.89
299.236	67.75
299.451	12.46
299.665	-14.17
299.88	26.79
300.094	61.61
300.309	116.9
300.523	-40.79
300.737	0.17
300.952	41.13
301.166	86.19
301.381	-3.93
301.595	41.13
301.809	80.04
302.024	12.46
302.238	-3.93
302.452	116.9
302.667	59.56
302.881	18.6
303.095	20.65
303.309	77.99
303.524	14.51
303.738	69.8
303.952	14.51
304.166	24.75
304.381	10.41
304.595	98.47
304.809	-36.69
305.023	-12.12
305.237	34.99
305.452	30.89
305.666	-5.97
305.88	37.03
306.094	86.19
306.308	51.37
306.522	12.46
306.736	16.55
306.95	41.13
307.164	77.99
307.379	4.27
307.593	32.94
307.807	90.28
308.021	123.05
308.235	57.51
308.449	-69.46
308.663	4.27
308.877	65.71
309.091	4.27
309.305	53.42
309.519	-3.93
309.733	26.79
309.947	-40.79
310.161	45.23
310.374	84.14
310.588	84.14
310.802	12.46
311.016	-20.31
311.23	-14.17
311.444	18.6
311.658	-63.32
311.872	69.8
312.085	-40.79
312.299	28.84
312.513	86.19
312.727	26.79
312.941	77.99
313.154	57.51
313.368	53.42
313.582	16.55
313.796	14.51
314.009	-14.17
314.223	28.84
314.437	63.66
314.651	-20.31
314.864	-12.12
315.078	22.7
315.292	-12.12
315.505	12.46
315.719	84.14
315.933	49.32
316.146	20.65
316.36	-8.02
316.573	-20.31
316.787	90.28
317.001	51.37
317.214	-32.6
317.428	53.42
317.641	43.18
317.855	86.19
318.068	57.51
318.282	30.89
318.495	16.55
318.709	90.28
318.922	-36.69
319.136	82.09
319.349	12.46
319.563	-12.12
319.776	75.95
319.99	-22.36
320.203	28.84
320.417	12.46
320.63	82.09
320.843	51.37
321.057	26.79
321.27	65.71
321.483	67.75
321.697	65.71
321.91	37.03
322.124	45.23
322.337	77.99
322.55	41.13
322.763	-22.36
322.977	4.27
323.19	-26.45
323.403	37.03
323.617	37.03
323.83	94.38
324.043	49.32
324.256	-5.97
324.469	28.84
324.683	51.37
324.896	-16.21
325.109	118.95
325.322	-36.69
325.535	118.95
325.748	32.94
325.962	28.84
326.175	2.22
326.388	65.71
326.601	-8.02
326.814	-89.94
327.027	28.84
327.24	41.13
327.453	-46.93
327.666	55.47
327.879	18.6
328.092	-40.79
328.305	102.57
328.518	-36.69
328.731	-61.27
328.944	-3.93
329.157	82.09
329.37	-16.21
329.583	32.94
329.796	90.28
330.009	-36.69
330.222	63.66
330.435	-10.07
330.648	37.03
330.861	8.36
331.073	43.18
331.286	94.38
331.499	20.65
331.712	4.27
331.925	2.22
332.138	69.8
332.35	71.85
332.563	127.14
332.776	53.42
332.989	-40.79
333.202	-12.12
333.414	-5.97
333.627	20.65
333.84	34.99
334.053	34.99
334.265	26.79
334.478	16.55
334.691	8.36
334.903	57.51
335.116	-44.88
335.329	118.95
335.541	61.61
335.754	67.75
335.966	-38.74
336.179	-12.12
336.392	43.18
336.604	34.99
336.817	86.19
337.029	82.09
337.242	51.37
337.454	137.38
337.667	-63.32
337.88	63.66
338.092	12.46
338.305	10.41
338.517	49.32
338.729	20.65
338.942	67.75
339.154	37.03
339.367	67.75
339.579	32.94
339.792	-44.88
340.004	20.65
340.217	2.22
340.429	41.13
340.641	43.18
340.854	41.13
341.066	20.65
341.278	26.79
341.491	110.76
341.703	-12.12
341.915	-5.97
342.128	47.27
342.34	8.36
342.552	-10.07
342.764	26.79
342.977	61.61
343.189	51.37
343.401	18.6
343.613	-20.31
343.826	77.99
344.038	22.7
344.25	22.7
344.462	26.79
344.674	71.85
344.886	-5.97
345.099	43.18
345.311	53.42
345.523	8.36
345.735	45.23
345.947	69.8
346.159	14.51
346.371	65.71
346.583	8.36
346.795	77.99
347.007	22.7
347.219	49.32
347.431	12.46
347.643	151.72
347.855	8.36
348.067	73.9
348.279	-32.6
348.491	18.6
348.703	43.18
348.915	28.84
349.127	-24.4
349.339	65.71
349.551	32.94
349.763	32.94
349.975	-44.88
350.187	69.8
350.399	-30.55
350.61	16.55
350.822	47.27
351.034	20.65
351.246	32.94
351.458	100.52
351.669	-36.69
351.881	71.85
352.093	37.03
352.305	67.75
352.517	86.19
352.728	65.71
352.94	32.94
353.152	108.71
353.363	55.47
353.575	16.55
353.787	73.9
353.999	59.56
354.21	45.23
354.422	37.03
354.633	49.32
354.845	43.18
355.057	77.99
355.268	45.23
355.48	18.6
355.692	47.27
355.903	63.66
356.115	82.09
356.326	-38.74
356.538	-28.5
356.749	84.14
356.961	102.57
357.172	-8.02
357.384	-28.5
357.595	92.33
357.807	34.99
358.018	45.23
358.23	10.41
358.441	75.95
358.653	32.94
358.864	47.27
359.075	-8.02
359.287	123.05
359.498	41.13
359.709	57.51
359.921	-5.97
360.132	4.27
360.344	90.28
360.555	-28.5
360.766	26.79
360.977	84.14
361.189	53.42
361.4	24.75
361.611	26.79
361.823	90.28
362.034	116.9
362.245	0.17
362.456	20.65
362.667	28.84
362.879	-3.93
363.09	26.79
363.301	24.75
363.512	102.57
363.723	32.94
363.935	-12.12
364.146	135.34
364.357	12.46
364.568	49.32
364.779	-38.74
364.99	135.34
365.201	-32.6
365.412	98.47
365.623	100.52
365.834	86.19
366.045	41.13
366.256	57.51
366.467	16.55
366.678	28.84
366.889	-26.45
367.1	-12.12
367.311	49.32
367.522	73.9
367.733	8.36
367.944	61.61
368.155	37.03
368.366	55.47
368.577	51.37
368.788	100.52
368.999	51.37
369.209	28.84
369.42	131.24
369.631	84.14
369.842	96.43
370.053	12.46
370.264	-12.12
370.474	-26.45
370.685	71.85
370.896	-36.69
371.107	49.32
371.317	82.09
371.528	114.86
371.739	12.46
371.95	102.57
372.16	53.42
372.371	8.36
372.582	-16.21
372.792	53.42
373.003	24.75
373.214	53.42
373.424	34.99
373.635	4.27
373.846	77.99
374.056	-8.02
374.267	69.8
374.477	34.99
374.688	51.37
374.898	4.27
375.109	4.27
375.319	4.27
375.53	12.46
375.74	57.51
375.951	41.13
376.161	43.18
376.372	98.47
376.582	34.99
376.793	84.14
377.003	37.03
377.214	32.94
377.424	53.42
377.635	53.42
377.845	-20.31
378.055	90.28
378.266	20.65
378.476	4.27
378.686	6.31
378.897	53.42
379.107	77.99
379.317	28.84
379.528	24.75
379.738	-36.69
379.948	28.84
380.158	26.79
380.369	18.6
380.579	45.23
380.789	53.42
380.999	92.33
381.21	37.03
381.42	92.33
381.63	4.27
381.84	69.8
382.05	34.99
382.261	69.8
382.471	125.1
382.681	112.81
382.891	110.76
383.101	10.41
383.311	8.36
383.521	53.42
383.731	45.23
383.941	-20.31
384.151	53.42
384.361	59.56
384.571	43.18
384.781	18.6
384.991	88.23
385.201	37.03
385.411	16.55
385.621	61.61
385.831	80.04
386.041	34.99
386.251	112.81
386.461	75.95
386.671	10.41
386.881	86.19
387.091	20.65
387.301	41.13
387.511	61.61
387.72	55.47
387.93	129.19
388.14	-40.79
388.35	28.84
388.56	57.51
388.769	106.67
388.979	45.23
389.189	45.23
389.399	61.61
389.609	88.23
389.818	102.57
390.028	10.41
390.238	98.47
390.447	0.17
390.657	41.13
390.867	37.03
391.076	-16.21
391.286	28.84
391.496	61.61
391.705	18.6
391.915	86.19
392.125	129.19
392.334	86.19
392.544	73.9
392.753	88.23
392.963	28.84
393.172	61.61
393.382	20.65
393.591	110.76
393.801	75.95
394.01	37.03
394.22	39.08
394.429	28.84
394.639	37.03
394.848	94.38
395.058	26.79
395.267	2.22
395.477	90.28
395.686	110.76
395.895	69.8
396.105	164.01
396.314	49.32
396.524	65.71
396.733	116.9
396.942	118.95
397.152	65.71
397.361	127.14
397.57	63.66
397.78	65.71
397.989	65.71
398.198	118.95
398.407	41.13
398.617	90.28
398.826	28.84
399.035	24.75
399.244	59.56
399.453	90.28
399.663	114.86
399.872	125.1
400.081	65.71
400.29	149.67
400.499	57.51
400.708	86.19
400.917	53.42
401.127	80.04
401.336	43.18
401.545	125.1
401.754	161.96
401.963	137.38
402.172	133.29
402.381	69.8
402.59	80.04
402.799	123.05
403.008	123.05
403.217	112.81
403.426	151.72
403.635	82.09
403.844	118.95
404.053	102.57
404.262	151.72
404.471	147.62
404.68	59.56
404.888	118.95
405.097	127.14
405.306	88.23
405.515	102.57
405.724	155.82
405.933	168.1
406.142	168.1
406.35	102.57
406.559	155.82
406.768	133.29
406.977	118.95
407.185	174.25
407.394	217.26
407.603	233.64
407.812	184.49
408.02	241.83
408.229	168.1
408.438	209.06
408.646	184.49
408.855	250.02
409.064	237.74
409.272	266.41
409.481	268.45
409.69	237.74
409.898	151.72
410.107	196.78
410.315	282.79
410.524	270.5
410.733	301.22
410.941	274.6
411.15	323.75
411.358	290.98
411.567	397.48
411.775	364.71
411.984	252.07
412.192	389.28
412.401	315.56
412.609	446.63
412.818	381.09
413.026	405.67
413.234	407.72
413.443	491.68
413.651	477.35
413.86	411.81
414.068	553.12
414.276	598.18
414.485	450.72
414.693	581.79
414.901	544.93
415.11	585.89
415.318	600.23
415.526	600.23
415.734	684.19
415.943	630.95
416.151	649.38
416.359	606.37
416.567	694.43
416.776	774.3
416.984	870.56
417.192	780.45
417.4	823.45
417.608	716.96
417.817	831.65
418.025	948.38
418.233	954.52
418.441	946.33
418.649	897.18
418.857	1093.79
419.065	1118.36
419.273	970.91
419.481	1112.22
419.689	1151.13
419.897	1321.11
420.105	1247.38
420.313	1310.87
420.521	1368.21
420.729	1413.27
420.937	1439.89
421.145	1462.42
421.353	1589.39
421.561	1638.55
421.769	1542.29
421.977	1732.75
422.185	1730.7
422.393	1863.82
422.601	1943.69
422.809	1929.36
423.017	1888.4
423.224	2001.04
423.432	2125.96
423.64	2035.85
423.848	2250.89
424.056	2076.81
424.263	2445.45
424.471	2355.33
424.679	2402.44
424.887	2410.63
425.094	2633.86
425.302	2533.51
425.51	2756.74
425.718	2809.98
425.925	2822.27
426.133	2963.58
426.341	3102.84
426.548	3231.87
426.756	3156.09
426.964	3389.56
427.171	3412.09
427.379	3647.6
427.586	3418.23
427.794	3723.38
428.001	3836.02
428.209	3885.17
428.417	4071.53
428.624	4255.85
428.832	4329.58
429.039	4196.46
429.247	4124.78
429.454	4591.72
429.662	5056.61
429.869	4622.44
430.076	4833.38
430.284	4747.36
430.491	5017.69
430.699	5347.42
430.906	5353.56
431.114	5537.88
431.321	5548.12
431.528	5699.67
431.736	5982.29
431.943	6230.09
432.15	6166.6
432.358	6244.43
432.565	6627.4
432.772	6498.38
432.979	6899.78
433.187	6983.74
433.394	7096.38
433.601	7530.55
433.808	7405.63
434.016	7606.33
434.223	8032.3
434.43	8278.06
434.637	8003.63
434.844	8716.33
435.052	8734.76
435.259	9005.09
435.466	8900.64
435.673	8769.57
435.88	9459.74
436.087	9830.42
436.294	10090.51
436.501	9506.84
436.708	9959.44
436.915	10086.42
437.122	10541.07
437.329	10598.41
437.537	11003.91
437.743	11276.29
437.95	11145.22
438.157	11503.61
438.364	12079.09
438.571	11804.66
438.778	12111.86
438.985	13109.22
439.192	12732.39
439.399	12986.34
439.606	12806.12
439.813	13408.22
440.02	14186.45
440.227	13944.79
440.433	13922.26
440.64	14231.51
440.847	14696.39
441.054	14522.32
441.261	15683.52
441.467	15542.21
441.674	15650.75
441.881	16314.29
442.088	16428.98
442.294	16314.29
442.501	16381.87
442.708	16813.99
442.914	17485.73
443.121	18304.92
443.328	17831.83
443.534	18821
443.741	18622.35
443.948	18317.2
444.154	19390.34
444.361	19337.09
444.568	19464.07
444.774	19564.42
444.981	19982.2
445.187	20529.01
445.394	21188.46
445.6	20897.64
445.807	23322.44
446.013	21962.59
446.22	22179.67
446.426	23369.54
446.633	23381.83
446.839	24274.74
447.046	23146.31
447.252	24416.05
447.459	24389.43
447.665	24553.27
447.871	25454.37
448.078	26564.37
448.284	24993.58
448.491	25931.55
448.697	27768.58
448.903	27602.69
449.11	27608.84
449.316	27172.62
449.522	27516.68
449.728	28471.03
449.935	28595.96
450.141	28450.55
450.347	29372.14
450.553	28233.47
450.76	28718.84
450.966	29452.01
451.172	29363.95
451.378	30015.2
451.584	29304.56
451.791	30088.93
451.997	29929.19
452.203	30172.89
452.409	30777.05
452.615	30205.66
452.821	29097.71
453.027	28819.19
453.233	30123.74
453.44	29241.07
453.646	29210.35
453.852	29744.87
454.058	29855.46
454.264	28944.11
454.47	29376.23
454.676	29083.37
454.882	29859.56
455.088	27162.38
455.294	27285.26
455.5	27762.44
455.705	28217.08
455.911	27154.19
456.117	26314.52
456.323	26408.73
456.529	24561.46
456.735	25827.1
456.941	25421.61
457.147	24766.26
457.352	23711.55
457.558	23455.56
457.764	23719.74
457.97	23398.21
458.176	22792.01
458.381	22937.42
458.587	21569.38
458.793	21839.71
458.999	20445.04
459.204	21763.93
459.41	21149.54
459.616	19881.85
459.821	20062.07
460.027	19959.67
460.233	19347.33
460.438	18288.53
460.644	18943.88
460.85	17915.8
461.055	17567.65
461.261	17536.93
461.466	16414.64
461.672	15718.33
461.878	16596.91
462.083	15873.98
462.289	15280.07
462.494	15462.33
462.7	14653.39
462.905	14442.45
463.111	14661.58
463.316	14854.09
463.522	14553.04
463.727	14462.93
463.932	14315.47
464.138	14184.4
464.343	14335.95
464.549	13850.58
464.754	14305.23
464.959	14231.51
465.165	13965.27
465.37	13416.41
465.575	13047.78
465.781	13772.76
465.986	13955.03
466.191	13406.17
466.397	13184.99
466.602	12324.85
466.807	12756.97
467.012	12980.2
467.218	12693.48
467.423	12785.64
467.628	12607.47
467.833	13062.12
468.038	12857.32
468.244	12333.04
468.449	12996.58
468.654	12521.45
468.859	12374
469.064	12105.71
469.269	11759.61
469.474	11829.24
469.679	12144.63
469.885	11544.57
470.09	12120.05
470.295	11538.43
470.5	11458.56
470.705	11775.99
470.91	11309.05
471.115	11077.63
471.32	11309.05
471.525	11507.71
471.73	11313.15
471.935	10936.32
472.139	10586.12
472.344	10815.49
472.549	10506.25
472.754	10618.89
472.959	10416.14
473.164	10207.25
473.369	10115.09
473.574	10405.9
473.778	10166.29
473.983	10031.12
474.188	10119.18
474.393	9789.46
474.598	9771.03
474.802	9521.18
475.007	9695.25
475.212	9607.19
475.417	8908.83
475.621	9250.85
475.826	9308.19
476.031	9027.62
476.235	8644.65
476.44	9064.48
476.645	8951.84
476.849	8792.1
477.054	8900.64
477.259	8714.28
477.463	8597.54
477.668	8278.06
477.872	8593.45
478.077	8316.97
478.282	8165.42
478.486	8214.57
478.691	8140.85
478.895	8204.33
479.1	7907.38
479.304	7913.52
479.509	7753.78
479.713	7940.15
479.918	7639.09
480.122	7618.61
480.326	7612.47
480.531	7630.9
480.735	7622.71
480.94	7723.06
481.144	7843.89
481.348	7331.9
481.553	7399.48
481.757	7467.06
481.961	7565.37
482.166	7551.03
482.37	7585.85
482.574	7131.2
482.778	7186.49
482.983	7454.78
483.187	7450.68
483.391	7387.19
483.595	7376.95
483.8	7331.9
484.004	7331.9
484.208	7403.58
484.412	7409.72
484.616	7495.74
484.821	7415.87
485.025	7215.16
485.229	7481.4
485.433	7237.69
485.637	7317.56
485.841	7401.53
486.045	7297.08
486.249	7397.43
486.453	7252.03
486.657	7317.56
486.861	7319.61
487.065	7401.53
487.269	7401.53
487.473	7143.49
487.677	7458.87
487.881	7469.11
488.085	7260.22
488.289	7360.57
488.493	7307.32
488.697	7370.81
488.901	7307.32
489.105	7376.95
489.309	7288.89
489.512	7297.08
489.716	7424.06
489.92	7325.75
490.124	7479.35
490.328	7739.44
490.531	7587.89
490.735	7639.09
490.939	7567.42
491.143	7591.99
491.346	7557.18
491.55	7639.09
491.754	7596.09
491.958	7768.12
492.161	7661.62
492.365	7581.75
492.569	7622.71
492.772	7804.98
492.976	7850.03
493.18	7884.85
493.383	8083.5
493.587	7981.1
493.79	8022.06
493.994	8032.3
494.197	8259.63
494.401	8026.16
494.605	8036.4
494.808	8183.85
495.012	8347.69
495.215	8439.85
495.419	8480.81
495.622	8364.08
495.825	8474.67
496.029	8652.84
496.232	8673.32
496.436	8658.98
496.639	8931.36
496.843	8867.88
497.046	9113.63
497.249	9197.6
497.453	9005.09
497.656	9263.13
497.859	9347.1
498.063	9394.2
498.266	9732.12
498.469	9519.13
498.673	9515.03
498.876	9711.64
499.079	9850.9
499.282	9891.86
499.485	10039.31
499.689	10110.99
499.892	10334.22
500.095	10162.19
500.298	10539.02
500.501	10395.66
500.705	10846.21
500.908	10758.15
501.111	11028.48
501.314	10952.71
501.517	11251.71
501.72	11202.56
501.923	11345.92
502.126	11458.56
502.329	11948.02
502.532	11765.75
502.735	11866.1
502.938	12122.1
503.141	11952.12
503.344	12359.66
503.547	12447.72
503.75	12496.88
503.953	12851.17
504.156	13039.59
504.359	12937.19
504.562	12664.81
504.765	13184.99
504.968	13295.58
505.17	13555.68
505.373	13596.64
505.576	13795.29
505.779	14053.33
505.982	13873.11
506.185	14194.64
506.387	14464.97
506.59	14602.19
506.793	14770.12
506.996	14696.39
507.198	15144.9
507.401	14864.33
507.604	15085.51
507.807	15243.2
508.009	15536.06
508.212	15400.9
508.415	16000.95
508.617	15980.47
508.82	15982.52
509.022	15929.27
509.225	16261.04
509.428	16566.19
509.63	16895.91
509.833	16920.49
510.035	17135.53
510.238	17129.38
510.44	17256.36
510.643	17504.16
510.845	17704.86
511.048	17487.78
511.25	18050.97
511.453	18096.02
511.655	18597.77
511.858	18370.45
512.06	18677.65
512.262	18911.11
512.465	18689.93
512.667	19077
512.87	19220.36
513.072	19259.27
513.274	19879.8
513.477	19937.15
513.679	20197.24
513.881	20412.28
514.084	20631.41
514.286	20615.02
514.488	20754.29
514.69	21378.92
514.893	21235.56
515.095	21124.97
515.297	21544.8
515.499	21604.19
515.701	21870.43
515.904	22368.09
516.106	22099.8
516.308	22304.6
516.51	22976.33
516.712	22560.59
516.914	23080.78
517.116	23082.83
517.318	23707.46
517.52	23609.15
517.722	23594.82
517.925	23838.53
518.127	24364.85
518.329	24160.06
518.531	24016.7
518.733	24930.09
518.935	24891.18
519.136	25177.9
519.338	25460.52
519.54	25628.45
519.742	25659.17
519.944	25689.89
520.146	26621.72
520.348	26472.21
520.55	26652.44
520.752	26431.26
520.954	27453.19
521.155	27213.58
521.357	27096.85
521.559	27696.9
521.761	27965.18
521.963	28096.25
522.164	28235.52
522.366	28323.58
522.568	28890.87
522.77	28684.02
522.971	29464.3
523.173	29095.66
523.375	29423.34
523.576	29701.86
523.778	29148.91
523.98	30013.15
524.181	30127.84
524.383	29810.4
524.584	30703.32
524.786	30670.55
524.988	30400.22
525.189	30949.07
525.391	31114.96
525.592	31313.61
525.794	31643.34
525.995	31499.98
526.197	31338.19
526.398	31475.4
526.6	32089.79
526.801	32171.71
527.003	32861.88
527.204	32542.39
527.406	33042.1
527.607	32992.95
527.808	33197.74
528.01	32671.42
528.211	33144.5
528.412	33547.95
528.614	33463.98
528.815	33437.36
529.016	34139.81
529.218	33541.8
529.419	33889.96
529.62	34354.85
529.822	34215.58
530.023	34160.29
530.224	34514.59
530.425	34518.68
530.626	34305.7
530.828	34420.38
531.029	35014.29
531.23	34829.98
531.431	34733.72
531.632	34703
531.833	35540.62
532.035	35303.06
532.236	34825.88
532.437	35720.84
532.638	34977.43
532.839	35313.3
533.04	35356.3
533.241	34897.56
533.442	36034.18
533.643	35657.35
533.844	35606.16
534.045	35337.87
534.246	34993.81
534.447	35929.73
534.648	35661.45
534.849	35772.04
535.05	35899.01
535.251	35741.32
535.451	35767.94
535.652	36101.76
535.853	36171.39
536.054	35905.16
536.255	36128.39
536.456	35640.97
536.657	36261.51
536.857	35972.74
537.058	35864.2
537.259	36195.97
537.46	35862.15
537.66	35890.82
537.861	36404.86
538.062	35974.79
538.263	36236.93
538.463	35952.26
538.664	36134.53
538.865	36404.86
539.065	36208.26
539.266	35817.1
539.466	36470.4
539.667	36105.86
539.868	36499.07
540.068	36032.13
540.269	35997.32
540.469	36519.55
540.67	35686.03
540.87	36140.68
541.071	36136.58
541.271	36179.59
541.472	36249.22
541.672	36365.95
541.873	35780.23
542.073	35864.2
542.274	36181.63
542.474	35985.03
542.675	36134.53
542.875	36322.94
543.075	36042.37
543.276	35477.13
543.476	36337.28
543.676	36290.18
543.877	36202.11
544.077	36181.63
544.277	36251.27
544.478	35853.96
544.678	36075.14
544.878	35765.9
545.078	36132.48
545.279	35573.39
545.479	35802.76
545.679	36411.01
545.879	36089.48
546.079	36001.41
546.28	36114.05
546.48	35792.52
546.68	35923.59
546.88	35862.15
547.08	35761.8
547.28	35927.69
547.48	35688.07
547.68	35763.85
547.88	35907.21
548.081	35985.03
548.281	35919.49
548.481	35849.86
548.681	36101.76
548.881	35892.87
549.081	35862.15
549.28	35772.04
549.48	35944.07
549.68	35800.71
549.88	36308.61
550.08	36075.14
550.28	35886.73
550.48	35735.18
550.68	36132.48
550.88	35677.83
551.08	35907.21
551.279	35942.02
551.479	35313.3
551.679	36025.99
551.879	35491.47
552.079	35792.52
552.278	35718.79
552.478	35759.75
552.678	35485.33
552.878	35714.7
553.077	35587.72
553.277	35268.24
553.477	35825.29
553.676	35595.92
553.876	35434.13
554.076	35364.5
554.275	35354.26
554.475	34559.64
554.674	35282.58
554.874	35694.22
555.074	35335.82
555.273	35214.99
555.473	35499.66
555.672	34803.35
555.872	34993.81
556.071	35090.07
556.271	35264.14
556.47	34862.74
556.67	35012.24
556.869	34559.64
557.068	34594.46
557.268	34553.5
557.467	34870.93
557.667	34604.7
557.866	34510.49
558.065	34598.55
558.265	34203.3
558.464	34301.6
558.663	34442.91
558.863	33738.41
559.062	34260.64
559.261	33842.85
559.461	34549.4
559.66	34092.71
559.859	34119.33
560.058	33468.08
560.258	34162.34
560.457	33627.82
560.656	33924.77
560.855	33568.43
561.054	33978.02
561.253	33367.73
561.453	33572.52
561.652	33566.38
561.851	33224.37
562.05	33242.8
562.249	32726.71
562.448	33236.66
562.647	32923.32
562.846	32730.81
563.045	32865.97
563.244	32292.54
563.443	32775.86
563.642	32882.36
563.841	32603.83
564.04	32546.49
564.239	32642.74
564.438	32036.55
564.637	32462.52
564.836	32239.29
565.035	31817.41
565.234	32007.87
565.432	31497.93
565.631	31649.48
565.83	31547.08
566.029	31471.31
566.228	31377.1
566.427	31260.37
566.625	31461.07
566.824	30951.12
567.023	31381.2
567.222	30887.64
567.42	31088.34
567.619	30727.89
567.818	31010.51
568.016	30768.85
568.215	30772.95
568.414	30381.79
568.612	30680.79
568.811	30246.62
569.01	30009.06
569.208	29406.95
569.407	30078.69
569.605	29877.99
569.804	29832.93
570.002	29322.99
570.201	29812.45
570.4	29449.96
570.598	29325.04
570.797	29048.56
570.995	29507.3
571.193	28788.47
571.392	28792.56
571.59	28565.24
571.789	28684.02
571.987	28577.53
572.186	28577.53
572.384	28225.28
572.582	28583.67
572.781	28669.69
572.979	27758.34
573.177	28331.77
573.376	28516.09
573.574	28032.77
573.772	27975.42
573.971	27942.66
574.169	27565.83
574.367	27473.67
574.565	27459.34
574.763	27469.58
574.962	27457.29
575.16	26949.39
575.358	27592.45
575.556	26930.96
575.754	27371.27
575.952	26822.42
576.151	27229.96
576.349	26693.4
576.547	26789.65
576.745	26677.01
576.943	26603.28
577.141	26416.92
577.339	26248.99
577.537	26449.69
577.735	26173.21
577.933	26019.61
578.131	26304.28
578.329	25925.41
578.527	25843.49
578.725	26036
578.923	25786.15
579.121	25343.78
579.319	25745.19
579.516	25855.78
579.714	25513.77
579.912	25362.22
580.11	25042.73
580.308	25567.01
580.506	25091.88
580.704	25034.54
580.901	25247.53
581.099	25323.3
581.297	24737.59
581.495	24567.6
581.692	24784.69
581.89	24692.53
582.088	24788.78
582.285	24547.12
582.483	24799.02
582.681	24526.64
582.878	24387.38
583.076	24123.19
583.274	24577.84
583.471	24180.54
583.669	24317.75
583.866	23803.71
584.064	24143.67
584.262	23658.31
584.459	24145.72
584.657	23811.9
584.854	24020.8
585.052	23433.03
585.249	23406.41
585.447	23838.53
585.644	23150.41
585.841	23482.18
586.039	23334.73
586.236	23261
586.434	23093.07
586.631	22910.8
586.828	23217.99
587.026	23082.83
587.223	22716.24
587.42	22675.28
587.618	22744.91
587.815	22484.82
588.012	22394.71
588.21	22335.32
588.407	22216.54
588.604	22503.25
588.801	22038.36
588.999	22173.53
589.196	22259.54
589.393	22392.66
589.59	22265.69
589.787	22105.95
589.984	21905.24
590.182	21755.74
590.379	21819.23
590.576	21456.74
590.773	21935.96
590.97	21448.55
591.167	21811.04
591.364	21645.15
591.561	21542.75
591.758	21210.98
591.955	21096.3
592.152	21385.06
592.349	21141.35
592.546	20961.13
592.743	20989.8
592.94	20776.81
593.137	20856.68
593.334	21024.62
593.531	20805.49
593.727	20899.69
593.924	20682.61
594.121	20492.15
594.318	20746.09
594.515	20287.35
594.712	20787.05
594.908	20348.79
595.105	20373.36
595.302	20168.57
595.499	20293.49
595.696	20289.4
595.892	19832.7
596.089	19824.51
596.286	20019.07
596.482	19971.96
596.679	19855.23
596.876	19623.81
597.072	19607.42
597.269	19853.18
597.466	19560.32
597.662	19163.01
597.859	19337.09
598.055	19468.16
598.252	19267.46
598.448	19224.45
598.645	19130.25
598.841	18982.79
599.038	19142.53
599.234	19105.67
599.431	18818.96
599.627	18829.2
599.824	18773.9
600.02	18919.31
600.217	18734.99
600.413	18796.43
600.609	18495.38
600.806	18534.29
601.002	18433.94
601.198	18536.34
601.395	18683.79
601.591	18093.97
601.787	18446.23
601.984	18179.99
602.18	18311.06
602.376	17782.68
602.572	17792.92
602.769	18134.93
602.965	17858.46
603.161	17913.75
603.357	17895.32
603.553	17618.85
603.75	17731.48
603.946	17416.1
604.142	17708.96
604.338	17457.06
604.534	17651.61
604.73	17473.44
604.926	17285.03
605.122	17524.64
605.318	17051.56
605.514	17229.73
605.71	17166.24
605.906	17080.23
606.102	17188.77
606.298	17135.53
606.494	17024.93
606.69	16668.59
606.886	16945.06
607.082	16723.88
607.278	16750.51
607.474	16738.22
607.67	16658.35
607.866	16510.89
608.062	16895.91
608.257	16586.67
608.453	16592.81
608.649	16541.61
608.845	16324.53
609.041	16357.3
609.236	16566.19
609.432	16549.81
609.628	16486.32
609.824	16488.37
610.019	16328.63
610.215	16263.09
610.411	16310.19
610.606	16091.06
610.802	16074.68
610.998	15906.74
611.193	16023.48
611.389	15990.71
611.584	16119.73
611.78	15744.95
611.976	15912.89
612.171	15689.66
612.367	16031.67
612.562	15994.81
612.758	15364.03
612.953	15472.57
613.149	15816.63
613.344	15527.87
613.539	15888.31
613.735	15689.66
613.93	15546.3
614.126	15773.63
614.321	15591.36
614.517	15335.36
614.712	15699.9
614.907	15388.61
615.103	15351.74
615.298	15513.53
615.493	15454.14
615.688	14845.9
615.884	15462.33
616.079	15171.52
616.274	15067.08
616.47	15249.35
616.665	15222.72
616.86	15097.8
617.055	15099.84
617.25	14868.42
617.445	14972.87
617.641	14661.58
617.836	14868.42
618.031	14594
618.226	15083.46
618.421	14704.59
618.616	14596.04
618.811	14596.04
619.006	14821.32
619.201	14483.41
619.396	14499.79
619.591	14243.79
619.786	14462.93
619.981	14041.04
620.176	14426.06
620.371	13901.78
620.566	14264.27
620.761	14030.8
620.956	14096.34
621.151	13725.66
621.346	13987.8
621.541	13682.65
621.735	13920.21
621.93	13666.27
622.125	13436.89
622.32	13490.14
622.515	13559.77
622.709	13420.51
622.904	13484
623.099	13248.48
623.294	13430.75
623.488	13199.33
623.683	13248.48
623.878	12857.32
624.072	13144.03
624.267	12914.66
624.462	12853.22
624.656	12697.58
624.851	12793.83
625.046	12662.76
625.24	12560.36
625.435	12466.16
625.629	12478.44
625.824	12296.18
626.018	12210.16
626.213	11943.92
626.407	12007.41
626.602	12050.42
626.796	12201.97
626.991	12161.01
627.185	12021.75
627.38	11935.73
627.574	11745.27
627.768	11659.26
627.963	11560.95
628.157	11497.47
628.352	11470.84
628.546	11272.19
628.74	11560.95
628.935	11243.52
629.129	11313.15
629.323	11038.72
629.517	11005.95
629.712	11087.87
629.906	11071.49
630.1	10768.39
630.294	11028.48
630.489	10917.89
630.683	10924.04
630.877	10782.73
631.071	10676.23
631.265	10637.32
631.459	10528.78
631.653	10477.58
631.848	10604.55
632.042	10235.92
632.236	10498.06
632.43	10373.13
632.624	10293.26
632.818	10172.43
633.012	10051.6
633.206	9947.15
633.4	10065.94
633.594	9814.04
633.788	9928.72
633.982	9785.37
634.176	9914.39
634.369	9666.58
634.563	9639.96
634.757	9744.41
634.951	9580.57
635.145	9613.34
635.339	9752.6
635.533	9469.98
635.726	9396.25
635.92	9359.39
636.114	9242.65
636.308	9228.32
636.501	9291.8
636.695	9347.1
636.889	9011.23
637.083	9023.52
637.276	9091.1
637.47	9039.9
637.664	9021.47
637.857	9005.09
638.051	8968.23
638.244	8738.85
638.438	8796.2
638.632	8785.96
638.825	8685.61
639.019	8767.52
639.212	8517.67
639.406	8648.74
639.599	8677.41
639.793	8534.06
639.986	8421.42
640.18	8335.4
640.373	8341.55
640.567	8208.43
640.76	8224.81
640.954	8130.61
641.147	7974.96
641.34	8007.73
641.534	8106.03
641.727	8030.26
641.92	7995.44
642.114	7931.95
642.307	7870.51
642.5	7944.24
642.694	7819.32
642.887	8048.69
643.08	7909.43
643.273	7696.44
643.467	7725.11
643.66	7673.91
643.853	7491.64
644.046	7524.41
644.239	7598.13
644.432	7538.74
644.626	7495.74
644.819	7401.53
645.012	7350.33
645.205	7397.43
645.398	7387.19
645.591	7342.14
645.784	7065.66
645.977	7151.68
646.17	7069.76
646.363	7200.83
646.556	7008.32
646.749	6899.78
646.942	7032.9
647.135	6977.6
647.328	6998.08
647.521	6940.74
647.714	6684.74
647.907	6713.41
648.099	6768.71
648.292	6858.82
648.485	6791.24
648.678	6746.18
648.871	6445.13
649.064	6459.46
649.256	6576.2
649.449	6703.17
649.642	6441.03
649.835	6408.26
650.027	6471.75
650.22	6561.86
650.413	6580.29
650.605	6416.46
650.798	6246.48
650.991	6312.01
651.183	6223.95
651.376	6428.74
651.568	6336.59
651.761	6053.97
651.954	6176.84
652.146	6148.17
652.339	6187.08
652.531	6125.65
652.724	6056.01
652.916	5832.79
653.109	6025.29
653.301	5939.28
653.494	6139.98
653.686	5757.01
653.879	5900.37
654.071	5718.1
654.263	5640.28
654.456	5867.6
654.648	5908.56
654.84	5662.8
655.033	5722.2
655.225	5673.04
655.417	5722.2
655.61	5660.76
655.802	5570.65
655.994	5548.12
656.186	5478.49
656.379	5599.32
656.571	5703.76
656.763	5486.68
656.955	5443.67
657.148	5216.35
657.34	5531.73
657.532	5361.75
657.724	5431.38
657.916	5431.38
658.108	5492.82
658.3	5337.18
658.492	5324.89
658.684	5105.76
658.876	5247.07
659.068	5222.49
659.26	5130.33
659.452	5150.81
659.644	5156.96
659.836	5138.52
660.028	5032.03
660.22	4976.73
660.412	5130.33
660.604	4903.01
660.796	5140.57
660.988	5079.13
661.18	4968.54
661.372	4806.75
661.563	4915.3
661.755	4991.07
661.947	5009.5
662.139	4950.11
662.331	4888.67
662.522	4784.23
662.714	4726.88
662.906	4847.71
663.097	4853.86
663.289	4827.23
663.481	4800.61
663.673	4819.04
663.864	4812.9
664.056	4784.23
664.247	4845.66
664.439	4821.09
664.631	4720.74
664.822	4735.07
665.014	4833.38
665.205	4669.54
665.397	4571.24
665.588	4626.53
665.78	4571.24
665.971	4604
666.163	4591.72
666.354	4704.35
666.546	4534.37
666.737	4624.48
666.929	4534.37
667.12	4548.71
667.311	4528.23
667.503	4485.22
667.694	4642.92
667.885	4548.71
668.077	4517.99
668.268	4536.42
668.459	4431.98
668.651	4542.57
668.842	4540.52
669.033	4464.74
669.224	4399.21
669.416	4558.95
669.607	4393.06
669.798	4513.89
669.989	4671.59
670.18	4393.06
670.371	4425.83
670.563	4520.04
670.754	4702.31
670.945	4456.55
671.136	4489.32
671.327	4483.17
671.518	4427.88
671.709	4536.42
671.9	4442.21
672.091	4544.61
672.282	4417.64
672.473	4485.22
672.664	4438.12
672.855	4477.03
673.046	4452.45
673.237	4599.91
673.428	4495.46
673.619	4601.96
673.809	4573.28
674	4477.03
674.191	4534.37
674.382	4573.28
674.573	4483.17
674.764	4427.88
674.954	4528.23
675.145	4454.5
675.336	4542.57
675.527	4524.13
675.717	4540.52
675.908	4573.28
676.099	4583.52
676.289	4636.77
676.48	4638.82
676.671	4696.16
676.861	4714.59
677.052	4647.01
677.243	4649.06
677.433	4616.29
677.624	4812.9
677.814	4692.07
678.005	4798.56
678.195	4714.59
678.386	4698.21
678.576	4675.68
678.767	4786.27
678.957	4952.16
679.148	4890.72
679.338	4765.79
679.529	4825.19
679.719	4870.24
679.909	4960.35
680.1	4835.42
680.29	4958.3
680.481	4888.67
680.671	4931.68
680.861	4841.57
681.052	5072.99
681.242	4989.02
681.432	5015.65
681.622	4993.12
681.813	5042.27
682.003	5009.5
682.193	5089.37
682.383	5066.85
682.573	5064.8
682.764	5099.61
682.954	5128.28
683.144	5101.66
683.334	4978.78
683.524	5025.89
683.714	5154.91
683.904	5099.61
684.094	5163.1
684.284	5242.97
684.474	5116
684.664	5148.76
684.854	5109.85
685.044	5113.95
685.234	5156.96
685.424	5105.76
685.614	5083.23
685.804	5191.77
685.994	5032.03
686.184	5132.38
686.374	5189.72
686.564	4905.06
686.753	4976.73
686.943	5181.53
687.133	5034.08
687.323	4905.06
687.513	5007.45
687.702	4857.95
687.892	4870.24
688.082	4907.1
688.272	4999.26
688.461	4927.58
688.651	4874.34
688.841	4890.72
689.03	4833.38
689.22	4898.91
689.41	4745.31
689.599	4767.84
689.789	4747.36
689.979	4745.31
690.168	4542.57
690.358	4509.8
690.547	4589.67
690.737	4663.4
690.926	4581.48
691.116	4489.32
691.305	4477.03
691.495	4321.38
691.684	4354.15
691.874	4386.92
692.063	4329.58
692.252	4337.77
692.442	4325.48
692.631	4153.45
692.82	4354.15
693.01	4130.92
693.199	4255.85
693.388	4204.65
693.578	4130.92
693.767	4042.86
693.956	4059.24
694.146	4026.48
694.335	3940.46
694.524	4032.62
694.713	4036.72
694.902	3973.23
695.092	3887.22
695.281	3977.33
695.47	4085.87
695.659	3901.55
695.848	3909.74
696.037	3801.2
696.226	3860.59
696.415	3854.45
696.604	3838.06
696.793	3786.86
696.982	3762.29
697.171	3879.02
697.36	3829.87
697.549	3813.49
697.738	3682.42
697.927	3680.37
698.116	3868.78
698.305	3649.65
698.494	3772.53
698.683	3631.22
698.872	3817.58
699.061	3653.75
699.25	3639.41
699.438	3653.75
699.627	3694.71
699.816	3776.63
700.005	3688.56
700.193	3670.13
700.382	3598.45
700.571	3674.23
700.76	3661.94
700.948	3676.27
701.137	3612.79
701.326	3573.88
701.514	3641.46
701.703	3604.6
701.892	3610.74
702.08	3616.88
702.269	3711.09
702.457	3727.47
702.646	3635.32
702.834	3610.74
703.023	3684.47
703.212	3768.43
703.4	3672.18
703.589	3659.89
703.777	3547.25
703.965	3620.98
704.154	3635.32
704.342	3526.77
704.531	3596.4
704.719	3592.31
704.907	3747.95
705.096	3557.49
705.284	3661.94
705.472	3592.31
705.661	3657.84
705.849	3772.53
706.037	3709.04
706.226	3649.65
706.414	3801.2
706.602	3819.63
706.79	3754.1
706.979	3715.19
707.167	3868.78
707.355	3596.4
707.543	3805.3
707.731	3774.58
707.919	3772.53
708.107	3846.26
708.296	3786.86
708.484	3637.36
708.672	3885.17
708.86	3813.49
709.048	3805.3
709.236	3813.49
709.424	3948.65
709.612	3928.17
709.8	3901.55
709.988	3899.5
710.176	3956.85
710.364	3956.85
710.551	3940.46
710.739	4018.29
710.927	4036.72
711.115	3917.93
711.303	3997.81
711.491	4001.9
711.679	3993.71
711.866	4092.01
712.054	3981.42
712.242	4063.34
712.43	4198.51
712.617	4149.36
712.805	4300.91
712.993	4165.74
713.181	4233.32
713.368	4292.71
713.556	4264.04
713.744	4188.27
713.931	4331.62
714.119	4317.29
714.306	4403.3
714.494	4173.93
714.682	4317.29
714.869	4206.7
715.057	4489.32
715.244	4425.83
715.432	4595.81
715.619	4509.8
715.807	4452.45
715.994	4517.99
716.182	4442.21
716.369	4495.46
716.556	4558.95
716.744	4618.34
716.931	4618.34
717.119	4694.12
717.306	4786.27
717.493	4728.93
717.681	4659.3
717.868	4663.4
718.055	4665.44
718.242	4704.35
718.43	4931.68
718.617	4993.12
718.804	4900.96
718.991	4862.05
719.179	4958.3
719.366	4939.87
719.553	4780.13
719.74	4896.86
719.927	4941.92
720.114	5017.69
720.301	4825.19
720.488	4927.58
720.676	4993.12
720.863	4845.66
721.05	5025.89
721.237	5075.04
721.424	5025.89
721.611	5156.96
721.798	5007.45
721.985	5310.55
722.172	5116
722.358	5187.68
722.545	5146.72
722.732	5099.61
722.919	5075.04
723.106	5111.9
723.293	5242.97
723.48	5288.03
723.667	5468.25
723.853	5285.98
724.04	5519.45
724.227	5378.14
724.414	5449.82
724.6	5406.81
724.787	5382.23
724.974	5378.14
725.161	5470.3
725.347	5355.61
725.534	5552.21
725.72	5462.1
725.907	5656.66
726.094	5724.24
726.28	5578.84
726.467	5582.93
726.653	5648.47
726.84	5574.74
727.027	5736.53
727.213	5595.22
727.4	5695.57
727.586	5728.34
727.773	5834.83
727.959	5789.78
728.145	5795.92
728.332	5853.27
728.518	5861.46
728.705	5965.9
728.891	5746.77
729.077	5810.26
729.264	5926.99
729.45	5779.54
729.636	6107.21
729.823	5883.98
730.009	6099.02
730.195	5931.09
730.382	5943.38
730.568	6056.01
730.754	6088.78
730.94	5992.53
731.126	6178.89
731.313	6117.45
731.499	6156.36
731.685	6162.51
731.871	6025.29
732.057	6221.9
732.243	6131.79
732.429	6332.49
732.615	6113.36
732.801	6185.04
732.987	6209.61
733.173	6148.17
733.359	6088.78
733.545	6172.75
733.731	6078.54
733.917	6426.7
734.103	6271.05
734.289	6352.97
734.475	6279.24
734.661	6518.86
734.847	6275.15
735.033	6416.46
735.219	6314.06
735.404	6318.15
735.59	6326.35
735.776	6092.88
735.962	6334.54
736.148	6588.49
736.333	6254.67
736.519	6291.53
736.705	6522.95
736.89	6357.07
737.076	6303.82
737.262	6434.89
737.447	6291.53
737.633	6359.11
737.819	6492.23
738.004	6361.16
738.19	6473.8
738.375	6166.6
738.561	6443.08
738.747	6168.65
738.932	6285.39
739.118	6418.5
739.303	6402.12
739.489	6332.49
739.674	6176.84
739.859	6277.19
740.045	6314.06
740.23	6252.62
740.416	6301.77
740.601	6187.08
740.786	6185.04
740.972	6307.91
741.157	6238.28
741.342	6211.66
741.528	6060.11
741.713	6320.2
741.898	6230.09
742.084	6058.06
742.269	6275.15
742.454	6099.02
742.639	6164.56
742.824	6035.53
743.01	5902.42
743.195	6170.7
743.38	6099.02
743.565	6047.82
743.75	6127.69
743.935	5896.27
744.12	6076.49
744.305	5808.21
744.49	5830.74
744.675	5775.44
744.86	5857.36
745.045	5867.6
745.23	5914.7
745.415	5752.91
745.6	5757.01
745.785	5648.47
745.97	5843.03
746.155	5779.54
746.34	5822.55
746.525	5562.45
746.71	5750.87
746.895	5509.21
747.079	5521.49
747.264	5398.62
747.449	5443.67
747.634	5519.45
747.819	5709.91
748.003	5488.73
748.188	5347.42
748.373	5255.26
748.557	5402.71
748.742	5290.07
748.927	5302.36
749.111	5257.31
749.296	5163.1
749.481	5038.17
749.665	5046.37
749.85	5050.46
750.034	5189.72
750.219	5097.56
750.404	5009.5
750.588	4989.02
750.773	4862.05
750.957	4841.57
751.141	4849.76
751.326	4821.09
751.51	4894.82
751.695	4816.99
751.879	4898.91
752.064	4776.03
752.248	4653.16
752.432	4636.77
752.617	4644.96
752.801	4579.43
752.985	4624.48
753.17	4614.24
753.354	4397.16
753.538	4372.58
753.722	4169.84
753.907	4378.73
754.091	4153.45
754.275	4419.69
754.459	4239.47
754.643	4221.03
754.828	4223.08
755.012	4188.27
755.196	4221.03
755.38	3977.33
755.564	4006
755.748	4087.92
755.932	4098.16
756.116	3950.7
756.3	4059.24
756.484	3967.09
756.668	3936.37
756.852	3895.41
757.036	3905.65
757.22	3876.98
757.404	3780.72
757.588	3645.56
757.772	3817.58
757.956	3848.3
758.14	3870.83
758.323	3739.76
758.507	3840.11
758.691	3557.49
758.875	3772.53
759.059	3549.3
759.242	3541.11
759.426	3481.72
759.61	3489.91
759.794	3315.83
759.977	3477.62
760.161	3491.96
760.345	3534.96
760.528	3407.99
760.712	3498.1
760.895	3240.06
761.079	3283.06
761.263	3309.69
761.446	3059.84
761.63	3293.3
761.813	3305.59
761.997	3270.78
762.18	3182.71
762.364	3149.95
762.547	3203.19
762.731	3211.39
762.914	3088.51
763.098	3039.36
763.281	3051.64
763.464	3115.13
763.648	3215.48
763.831	3035.26
764.015	3027.07
764.198	3037.31
764.381	2961.53
764.564	3113.08
764.748	2891.9
764.931	2848.9
765.114	2912.38
765.297	2879.61
765.481	2752.64
765.664	2945.15
765.847	2926.72
766.03	2820.22
766.213	2879.61
766.397	2707.59
766.58	2699.39
766.763	2670.72
766.946	2662.53
767.129	2814.08
767.312	2603.14
767.495	2670.72
767.678	2685.06
767.861	2728.07
768.044	2723.97
768.227	2650.24
768.41	2582.66
768.593	2625.67
768.776	2625.67
768.959	2676.87
769.142	2625.67
769.324	2525.32
769.507	2556.04
769.69	2513.03
769.873	2478.21
770.056	2572.42
770.239	2457.73
770.421	2529.41
770.604	2355.33
770.787	2517.12
770.97	2394.25
771.152	2285.7
771.335	2394.25
771.518	2289.8
771.7	2437.25
771.883	2455.69
772.066	2347.14
772.248	2400.39
772.431	2261.13
772.613	2314.38
772.796	2205.83
772.978	2232.46
773.161	2281.61
773.343	2248.84
773.526	2087.05
773.708	2195.59
773.891	2037.9
774.073	2101.39
774.256	2054.28
774.438	2246.79
774.621	2166.92
774.803	2035.85
774.985	1931.41
775.168	2160.78
775.35	2076.81
775.532	2058.38
775.715	2044.04
775.897	1996.94
776.079	1910.93
776.261	1933.45
776.444	1972.36
776.626	1872.01
776.808	1915.02
776.99	1910.93
777.173	1833.1
777.355	1843.34
777.537	1822.86
777.719	1841.29
777.901	1859.73
778.083	1663.12
778.265	1761.42
778.447	1712.27
778.629	1855.63
778.811	1724.56
778.993	1771.66
779.175	1738.9
779.357	1624.21
779.539	1691.79
779.721	1691.79
779.903	1573.01
780.085	1659.03
780.267	1659.03
780.449	1550.48
780.631	1630.35
780.812	1575.06
780.994	1527.96
781.176	1618.07
781.358	1478.8
781.54	1519.76
781.721	1493.14
781.903	1484.95
782.085	1466.52
782.267	1503.38
782.448	1415.32
782.63	1425.56
782.812	1396.89
782.993	1351.83
783.175	1222.81
783.357	1296.53
783.538	1460.37
783.72	1400.98
783.901	1333.4
784.083	1384.6
784.264	1409.17
784.446	1192.09
784.627	1231
784.809	1241.24
784.99	1253.53
785.172	1323.16
785.353	1351.83
785.535	1114.27
785.716	1235.1
785.897	1194.14
786.079	1200.28
786.26	1138.84
786.441	1083.55
786.623	1142.94
786.804	1108.12
786.985	1026.2
787.167	1110.17
787.348	1151.13
787.529	1171.61
787.71	1151.13
787.891	1085.59
788.073	1157.27
788.254	1036.44
788.435	1087.64
788.616	1136.79
788.797	960.67
788.978	923.8
789.159	1050.78
789.34	1069.21
789.522	1011.87
789.703	1026.2
789.884	950.43
790.065	1015.96
790.246	952.48
790.427	932
790.607	1001.63
790.788	927.9
790.969	921.76
791.15	1018.01
791.331	899.23
791.512	944.28
791.693	909.47
791.874	858.27
792.054	950.43
792.235	913.56
792.416	909.47
792.597	895.13
792.778	962.72
792.958	852.13
793.139	913.56
793.32	919.71
793.5	778.4
793.681	929.95
793.862	786.59
794.042	864.41
794.223	884.89
794.404	813.21
794.584	700.58
794.765	802.97
794.945	772.25
795.126	886.94
795.306	813.21
795.487	747.68
795.667	843.93
795.848	800.93
796.028	755.87
796.209	721.06
796.389	751.78
796.57	790.69
796.75	757.92
796.93	733.34
797.111	676
797.291	702.62
797.471	731.3
797.652	622.75
797.832	706.72
798.012	706.72
798.192	723.1
798.373	647.33
798.553	667.81
798.733	665.76
798.913	684.19
799.093	723.1
799.274	698.53
799.454	667.81
799.634	692.38
799.814	659.62
799.994	741.54
800.174	667.81
800.354	692.38
800.534	608.42
800.714	680.1
800.894	606.37
801.074	567.46
801.254	628.9
801.434	659.62
801.614	669.86
801.794	569.51
801.974	1413.27
802.154	663.71
802.334	667.81
802.514	610.47
802.693	596.13
802.873	680.1
803.053	659.62
803.233	569.51
803.413	635.04
803.592	524.45
803.772	575.65
803.952	583.84
804.131	475.3
804.311	635.04
804.491	577.7
804.67	520.35
804.85	544.93
805.03	575.65
805.209	528.55
805.389	506.02
805.568	530.59
805.748	528.55
805.928	508.07
806.107	544.93
806.287	518.31
806.466	587.94
806.646	497.83
806.825	479.4
807.004	463.01
807.184	481.44
807.363	610.47
807.543	518.31
807.722	438.44
807.901	551.07
808.081	577.7
808.26	448.68
808.439	526.5
808.619	477.35
808.798	477.35
808.977	491.68
809.156	528.55
809.336	463.01
809.515	538.79
809.694	506.02
809.873	417.96
810.052	569.51
810.231	469.16
810.411	430.24
810.59	469.16
810.769	430.24
810.948	499.88
811.127	379.04
811.306	383.14
811.485	454.82
811.664	514.21
811.843	405.67
812.022	467.11
812.201	430.24
812.38	483.49
812.559	438.44
812.737	467.11
812.916	319.65
813.095	422.05
813.274	393.38
813.453	301.22
813.632	428.2
813.811	364.71
813.989	366.76
814.168	338.09
814.347	420
814.526	315.56
814.704	481.44
814.883	411.81
815.062	340.13
815.24	420
815.419	348.33
815.598	364.71
815.776	327.85
815.955	465.06
816.133	297.13
816.312	366.76
816.49	290.98
816.669	403.62
816.847	272.55
817.026	430.24
817.204	405.67
817.383	368.81
817.561	360.61
817.74	360.61
817.918	387.24
818.097	368.81
818.275	288.93
818.453	350.37
818.632	372.9
818.81	399.52
818.988	315.56
819.167	344.23
819.345	356.52
819.523	278.69
819.701	274.6
819.879	348.33
820.058	280.74
820.236	340.13
820.414	264.36
820.592	221.35
820.77	286.89
820.948	329.89
821.127	241.83
821.305	311.46
821.483	295.08
821.661	344.23
821.839	284.84
822.017	239.78
822.195	278.69
822.373	370.85
822.551	290.98
822.729	288.93
822.907	282.79
823.085	282.79
823.262	311.46
823.44	254.12
823.618	315.56
823.796	239.78
823.974	256.17
824.152	192.68
824.329	250.02
824.507	250.02
824.685	258.21
824.863	272.55
825.04	348.33
825.218	245.93
825.396	309.41
825.574	325.8
825.751	188.58
825.929	286.89
826.107	241.83
826.284	204.97
826.462	297.13
826.639	225.45
826.817	190.63
826.994	217.26
827.172	250.02
827.349	278.69
827.527	258.21
827.704	207.02
827.882	278.69
828.059	280.74
828.237	250.02
828.414	268.45
828.591	174.25
828.769	280.74
828.946	174.25
829.124	159.91
829.301	229.54
829.478	123.05
829.655	217.26
829.833	270.5
830.01	188.58
830.187	301.22
830.364	258.21
830.542	223.4
830.719	295.08
830.896	245.93
831.073	303.27
831.25	258.21
831.427	290.98
831.604	139.43
831.782	180.39
831.959	217.26
832.136	204.97
832.313	161.96
832.49	180.39
832.667	153.77
832.844	204.97
833.021	270.5
833.198	209.06
833.374	192.68
833.551	225.45
833.728	217.26
833.905	192.68
834.082	184.49
834.259	198.82
834.436	207.02
834.612	133.29
834.789	239.78
834.966	151.72
835.143	221.35
835.319	161.96
835.496	184.49
835.673	180.39
835.85	168.1
836.026	223.4
836.203	192.68
836.38	129.19
836.556	135.34
836.733	176.3
836.909	202.92
837.086	182.44
837.262	159.91
837.439	151.72
837.616	141.48
837.792	151.72
837.968	264.36
838.145	143.53
838.321	151.72
838.498	190.63
838.674	200.87
838.851	174.25
839.027	110.76
839.203	118.95
839.38	241.83
839.556	147.62
839.732	215.21
839.909	155.82
840.085	139.43
840.261	129.19
840.437	106.67
840.614	223.4
840.79	250.02
840.966	159.91
841.142	151.72
841.318	110.76
841.494	114.86
841.671	143.53
841.847	176.3
842.023	82.09
842.199	118.95
842.375	209.06
842.551	88.23
842.727	100.52
842.903	274.6
843.079	82.09
843.255	161.96
843.431	34.99
843.607	135.34
843.783	102.57
843.959	168.1
844.134	90.28
844.31	108.71
844.486	143.53
844.662	108.71
844.838	100.52
845.013	143.53
845.189	127.14
845.365	135.34
845.541	174.25
845.716	53.42
845.892	94.38
846.068	125.1
846.244	100.52
846.419	86.19
846.595	34.99
846.77	123.05
846.946	102.57
847.122	123.05
847.297	94.38
847.473	106.67
847.648	114.86
847.824	71.85
847.999	114.86
848.175	125.1
848.35	114.86
848.526	98.47
848.701	139.43
848.876	168.1
849.052	69.8
849.227	86.19
849.403	121
849.578	73.9
849.753	137.38
849.929	182.44
850.104	90.28
850.279	24.75
850.454	131.24
850.63	53.42
850.805	100.52
850.98	67.75
851.155	69.8
851.33	59.56
851.505	82.09
851.681	131.24
851.856	88.23
852.031	59.56
852.206	51.37
852.381	53.42
852.556	123.05
852.731	155.82
852.906	41.13
853.081	77.99
853.256	77.99
853.431	139.43
853.606	53.42
853.781	84.14
853.956	108.71
854.131	71.85
854.305	39.08
854.48	77.99
854.655	110.76
854.83	127.14
855.005	59.56
855.18	92.33
855.354	98.47
855.529	69.8
855.704	69.8
855.879	100.52
856.053	-3.93
856.228	190.63
856.403	20.65
856.577	184.49
856.752	71.85
856.926	65.71
857.101	102.57
857.276	37.03
857.45	20.65
857.625	82.09
857.799	-5.97
857.974	94.38
858.148	4.27
858.323	53.42
858.497	98.47
858.672	-12.12
858.846	-5.97
859.02	30.89
859.195	28.84
859.369	-8.02
859.543	59.56
859.718	61.61
859.892	53.42
860.066	96.43
860.241	88.23
860.415	80.04
860.589	59.56
860.763	47.27
860.938	84.14
861.112	59.56
861.286	14.51
861.46	53.42
861.634	65.71
861.808	59.56
861.982	-46.93
862.157	2.22
862.331	-3.93
862.505	24.75
862.679	61.61
862.853	28.84
863.027	6.31
863.201	164.01
863.375	45.23
863.549	69.8
863.722	32.94
863.896	125.1
864.07	106.67
864.244	94.38
864.418	86.19
864.592	30.89
864.766	53.42
864.939	61.61
865.113	75.95
865.287	82.09
865.461	-22.36
865.634	57.51
865.808	32.94
865.982	90.28
866.156	102.57
866.329	-12.12
866.503	94.38
866.676	16.55
866.85	45.23
867.024	37.03
867.197	8.36
867.371	8.36
867.544	8.36
867.718	-96.08
867.891	67.75
868.065	0.17
868.238	51.37
868.412	94.38
868.585	-14.17
868.759	6.31
868.932	53.42
869.105	45.23
869.279	34.99
869.452	-14.17
869.625	12.46
869.799	-14.17
869.972	-3.93
870.145	41.13
870.319	82.09
870.492	-55.12
870.665	-3.93
870.838	10.41
871.011	12.46
871.185	-22.36
871.358	-53.08
871.531	39.08
871.704	24.75
871.877	22.7
872.05	30.89
872.223	37.03
872.396	53.42
872.569	43.18
872.742	-12.12
872.915	26.79
873.088	-20.31
873.261	-24.4
873.434	30.89
873.607	6.31
873.78	59.56
873.953	-30.55
874.126	-38.74
874.299	41.13
874.471	-34.64
874.644	24.75
874.817	20.65
874.99	168.1
875.163	-22.36
875.335	-5.97
875.508	-22.36
875.681	102.57
875.853	67.75
876.026	32.94
876.199	8.36
876.371	71.85
876.544	2.22
876.717	0.17
876.889	-61.27
877.062	92.33
877.234	-14.17
877.407	-14.17
877.579	37.03
877.752	-30.55
877.924	24.75
878.097	10.41
878.269	61.61
878.442	57.51
878.614	16.55
878.786	73.9
878.959	-1.88
879.131	-8.02
879.303	-26.45
879.476	30.89
879.648	-20.31
879.82	32.94
879.993	26.79
880.165	2.22
880.337	-5.97
880.509	8.36
880.681	-46.93
880.854	-12.12
881.026	30.89
881.198	20.65
881.37	-32.6
881.542	94.38
881.714	-5.97
881.886	28.84
882.058	-94.04
882.23	-22.36
882.402	28.84
882.574	34.99
882.746	4.27
882.918	53.42
883.09	34.99
883.262	45.23
883.434	-14.17
883.606	0.17
883.778	-3.93
883.95	20.65
884.122	-5.97
884.293	14.51
884.465	53.42
884.637	18.6
884.809	-1.88
884.98	-51.03
885.152	26.79
885.324	-24.4
885.496	-14.17
885.667	2.22
885.839	32.94
886.011	26.79
886.182	45.23
886.354	32.94
886.525	-3.93
886.697	12.46
886.869	37.03
887.04	20.65
887.212	63.66
887.383	53.42
887.555	-61.27
887.726	86.19
887.897	-10.07
888.069	-20.31
888.24	45.23
888.412	84.14
888.583	-53.08
888.754	135.34
888.926	-3.93
889.097	-22.36
889.268	-10.07
889.44	84.14
889.611	-22.36
889.782	-34.64
889.953	2.22
890.125	77.99
890.296	-85.84
890.467	47.27
890.638	8.36
890.809	37.03
890.98	43.18
891.151	94.38
891.323	28.84
891.494	0.17
891.665	-20.31
891.836	-8.02
892.007	-42.84
892.178	26.79
892.349	32.94
892.52	-96.08
892.691	-8.02
892.862	49.32
893.032	-12.12
893.203	22.7
893.374	-26.45
893.545	75.95
893.716	-20.31
893.887	8.36
894.057	-12.12
894.228	24.75
894.399	-28.5
894.57	73.9
894.74	71.85
894.911	45.23
895.082	61.61
895.253	-42.84
895.423	73.9
895.594	-10.07
895.764	-24.4
895.935	-16.21
896.106	61.61
896.276	16.55
896.447	0.17
896.617	-18.26
896.788	0.17
896.958	-61.27
897.129	-34.64
897.299	-55.12
897.47	116.9
897.64	37.03
897.81	-26.45
897.981	61.61
898.151	-46.93
898.322	49.32
898.492	-69.46
898.662	-32.6
898.832	75.95
899.003	45.23
899.173	47.27
899.343	51.37
899.513	6.31
