Data from USB4F104151__92__11-32-07-801.txt Node

Date: Fri Mar 14 11:32:07 EDT 2025
User: louis
Spectrometer: USB4F10415
Trigger mode: 4
Integration Time (sec): 5.000000E-2
Scans to average: 1
Electric dark correction enabled: true
Nonlinearity correction enabled: false
Boxcar width: 0
XAxis mode: Wavelengths
Number of Pixels in Spectrum: 3648
>>>>>Begin Spectral Data<<<<<
178.204	-146.26
178.424	-146.26
178.644	-146.26
178.864	-176.98
179.084	-193.36
179.304	-25.43
179.524	-37.72
179.744	-29.52
179.964	60.59
180.184	-0.85
180.404	25.77
180.624	-0.85
180.844	27.82
181.064	-47.96
181.283	40.11
181.503	-0.85
181.723	-11.09
181.943	-127.83
182.163	3.24
182.383	-11.09
182.602	93.35
182.822	83.11
183.042	21.67
183.262	-25.43
183.482	21.67
183.701	-50
183.921	66.73
184.141	23.72
184.361	99.5
184.58	9.39
184.8	-17.24
185.02	-29.52
185.239	-41.81
185.459	11.43
185.679	60.59
185.898	-7
186.118	23.72
186.338	48.3
186.557	44.2
186.777	13.48
186.997	56.49
187.216	79.02
187.436	60.59
187.655	101.55
187.875	40.11
188.095	52.39
188.314	60.59
188.534	105.64
188.753	89.26
188.973	29.87
189.192	85.16
189.412	11.43
189.631	27.82
189.851	101.55
190.07	74.92
190.29	-37.72
190.509	-21.33
190.729	-11.09
190.948	72.87
191.168	152.74
191.387	21.67
191.607	-19.29
191.826	54.44
192.045	40.11
192.265	58.54
192.484	5.29
192.704	5.29
192.923	-47.96
193.142	111.78
193.362	74.92
193.581	52.39
193.8	68.78
194.02	48.3
194.239	72.87
194.458	87.21
194.678	-0.85
194.897	29.87
195.116	-0.85
195.335	50.35
195.555	48.3
195.774	91.31
195.993	68.78
196.212	23.72
196.432	58.54
196.651	44.2
196.87	62.63
197.089	113.83
197.308	70.83
197.528	13.48
197.747	31.91
197.966	31.91
198.185	74.92
198.404	48.3
198.623	79.02
198.842	101.55
199.062	124.07
199.281	81.07
199.5	7.34
199.719	85.16
199.938	36.01
200.157	23.72
200.376	117.93
200.595	111.78
200.814	115.88
201.033	89.26
201.252	15.53
201.471	15.53
201.69	9.39
201.909	33.96
202.128	27.82
202.347	23.72
202.566	74.92
202.785	-52.05
203.004	-4.95
203.223	54.44
203.442	21.67
203.661	11.43
203.879	-17.24
204.098	79.02
204.317	-58.2
204.536	70.83
204.755	81.07
204.974	38.06
205.193	-9.05
205.411	195.75
205.63	85.16
205.849	21.67
206.068	-17.24
206.287	3.24
206.505	70.83
206.724	-9.05
206.943	5.29
207.162	81.07
207.381	1.19
207.599	9.39
207.818	83.11
208.037	17.58
208.255	27.82
208.474	58.54
208.693	50.35
208.911	25.77
209.13	3.24
209.349	27.82
209.567	27.82
209.786	85.16
210.005	72.87
210.223	97.45
210.442	-0.85
210.661	-33.62
210.879	79.02
211.098	68.78
211.316	3.24
211.535	83.11
211.753	70.83
211.972	76.97
212.191	42.15
212.409	36.01
212.628	50.35
212.846	15.53
213.065	171.18
213.283	136.36
213.502	68.78
213.72	107.69
213.938	-4.95
214.157	27.82
214.375	85.16
214.594	48.3
214.812	40.11
215.031	52.39
215.249	-29.52
215.467	48.3
215.686	48.3
215.904	23.72
216.122	52.39
216.341	5.29
216.559	23.72
216.778	42.15
216.996	101.55
217.214	23.72
217.432	3.24
217.651	79.02
217.869	150.7
218.087	42.15
218.306	19.63
218.524	25.77
218.742	72.87
218.96	89.26
219.179	19.63
219.397	83.11
219.615	56.49
219.833	44.2
220.051	-31.57
220.27	89.26
220.488	85.16
220.706	36.01
220.924	-23.38
221.142	-27.48
221.36	52.39
221.578	58.54
221.796	62.63
222.015	60.59
222.233	36.01
222.451	-11.09
222.669	1.19
222.887	33.96
223.105	-33.62
223.323	15.53
223.541	-56.15
223.759	11.43
223.977	9.39
224.195	27.82
224.413	21.67
224.631	76.97
224.849	52.39
225.067	95.4
225.285	23.72
225.503	5.29
225.721	-60.24
225.939	113.83
226.157	5.29
226.375	79.02
226.592	44.2
226.81	66.73
227.028	48.3
227.246	97.45
227.464	-9.05
227.682	25.77
227.9	36.01
228.117	31.91
228.335	68.78
228.553	13.48
228.771	1.19
228.989	50.35
229.206	50.35
229.424	3.24
229.642	97.45
229.86	-9.05
230.077	95.4
230.295	74.92
230.513	38.06
230.731	-2.9
230.948	17.58
231.166	93.35
231.384	-29.52
231.601	-4.95
231.819	-21.33
232.037	44.2
232.254	40.11
232.472	23.72
232.689	15.53
232.907	68.78
233.125	64.68
233.342	103.59
233.56	-2.9
233.777	9.39
233.995	91.31
234.213	93.35
234.43	-33.62
234.648	15.53
234.865	101.55
235.083	119.98
235.3	85.16
235.518	23.72
235.735	40.11
235.953	122.02
236.17	19.63
236.388	-13.14
236.605	31.91
236.822	101.55
237.04	93.35
237.257	46.25
237.475	15.53
237.692	27.82
237.909	68.78
238.127	54.44
238.344	29.87
238.562	44.2
238.779	-7
238.996	-0.85
239.214	-29.52
239.431	44.2
239.648	-17.24
239.865	25.77
240.083	89.26
240.3	56.49
240.517	-7
240.735	33.96
240.952	17.58
241.169	81.07
241.386	60.59
241.603	-47.96
241.821	-7
242.038	79.02
242.255	33.96
242.472	-0.85
242.689	132.26
242.907	11.43
243.124	17.58
243.341	46.25
243.558	-0.85
243.775	56.49
243.992	-37.72
244.209	31.91
244.426	42.15
244.643	60.59
244.86	87.21
245.078	132.26
245.295	40.11
245.512	27.82
245.729	21.67
245.946	81.07
246.163	101.55
246.38	48.3
246.597	40.11
246.814	38.06
247.031	46.25
247.248	46.25
247.464	54.44
247.681	36.01
247.898	113.83
248.115	-9.05
248.332	29.87
248.549	44.2
248.766	81.07
248.983	31.91
249.2	25.77
249.417	66.73
249.633	29.87
249.85	99.5
250.067	-21.33
250.284	21.67
250.501	-43.86
250.717	33.96
250.934	-15.19
251.151	38.06
251.368	79.02
251.585	74.92
251.801	-9.05
252.018	31.91
252.235	-15.19
252.451	83.11
252.668	-58.2
252.885	74.92
253.102	68.78
253.318	11.43
253.535	50.35
253.752	-19.29
253.968	-4.95
254.185	-21.33
254.401	72.87
254.618	27.82
254.835	-2.9
255.051	142.5
255.268	60.59
255.484	60.59
255.701	58.54
255.917	70.83
256.134	-25.43
256.351	11.43
256.567	-17.24
256.784	44.2
257	-13.14
257.217	64.68
257.433	124.07
257.65	54.44
257.866	38.06
258.082	-31.57
258.299	-21.33
258.515	56.49
258.732	13.48
258.948	31.91
259.165	-58.2
259.381	-39.76
259.597	46.25
259.814	140.46
260.03	27.82
260.246	19.63
260.463	9.39
260.679	1.19
260.895	42.15
261.112	58.54
261.328	27.82
261.544	-31.57
261.761	113.83
261.977	11.43
262.193	33.96
262.409	85.16
262.626	83.11
262.842	76.97
263.058	-88.92
263.274	33.96
263.49	-29.52
263.707	-21.33
263.923	70.83
264.139	1.19
264.355	64.68
264.571	117.93
264.787	58.54
265.004	91.31
265.22	58.54
265.436	-11.09
265.652	36.01
265.868	38.06
266.084	-17.24
266.3	83.11
266.516	-17.24
266.732	109.74
266.948	23.72
267.164	126.12
267.38	68.78
267.596	105.64
267.812	146.6
268.028	107.69
268.244	44.2
268.46	58.54
268.676	-7
268.892	56.49
269.108	50.35
269.324	54.44
269.54	-41.81
269.756	66.73
269.972	36.01
270.188	97.45
270.403	-0.85
270.619	-0.85
270.835	-7
271.051	13.48
271.267	11.43
271.483	-21.33
271.698	52.39
271.914	17.58
272.13	3.24
272.346	46.25
272.562	74.92
272.777	113.83
272.993	62.63
273.209	-56.15
273.425	29.87
273.64	-2.9
273.856	81.07
274.072	15.53
274.287	44.2
274.503	58.54
274.719	48.3
274.934	21.67
275.15	-4.95
275.366	-13.14
275.581	7.34
275.797	19.63
276.012	44.2
276.228	-33.62
276.444	33.96
276.659	122.02
276.875	-88.92
277.09	-7
277.306	54.44
277.521	81.07
277.737	17.58
277.952	101.55
278.168	60.59
278.383	76.97
278.599	27.82
278.814	64.68
279.03	111.78
279.245	54.44
279.461	68.78
279.676	44.2
279.892	-23.38
280.107	-15.19
280.322	56.49
280.538	31.91
280.753	-15.19
280.969	52.39
281.184	48.3
281.399	109.74
281.615	68.78
281.83	36.01
282.045	9.39
282.26	11.43
282.476	-43.86
282.691	50.35
282.906	85.16
283.122	122.02
283.337	17.58
283.552	50.35
283.767	58.54
283.983	101.55
284.198	89.26
284.413	58.54
284.628	-82.77
284.843	54.44
285.058	52.39
285.274	60.59
285.489	-72.53
285.704	36.01
285.919	9.39
286.134	101.55
286.349	33.96
286.564	36.01
286.779	122.02
286.995	138.41
287.21	5.29
287.425	27.82
287.64	44.2
287.855	5.29
288.07	-4.95
288.285	29.87
288.5	109.74
288.715	85.16
288.93	31.91
289.145	40.11
289.36	46.25
289.575	11.43
289.79	36.01
290.004	17.58
290.219	-0.85
290.434	42.15
290.649	-2.9
290.864	64.68
291.079	83.11
291.294	-7
291.509	54.44
291.724	93.35
291.938	25.77
292.153	17.58
292.368	60.59
292.583	19.63
292.798	3.24
293.012	33.96
293.227	-31.57
293.442	11.43
293.657	46.25
293.871	60.59
294.086	29.87
294.301	107.69
294.516	3.24
294.73	-13.14
294.945	-9.05
295.16	21.67
295.374	56.49
295.589	105.64
295.804	-47.96
296.018	52.39
296.233	126.12
296.447	144.55
296.662	-45.91
296.877	109.74
297.091	74.92
297.306	72.87
297.52	27.82
297.735	50.35
297.949	76.97
298.164	76.97
298.378	64.68
298.593	64.68
298.807	13.48
299.022	-39.76
299.236	134.31
299.451	50.35
299.665	40.11
299.88	19.63
300.094	76.97
300.309	66.73
300.523	97.45
300.737	89.26
300.952	36.01
301.166	46.25
301.381	99.5
301.595	-17.24
301.809	44.2
302.024	31.91
302.238	-29.52
302.452	-13.14
302.667	27.82
302.881	87.21
303.095	33.96
303.309	122.02
303.524	19.63
303.738	89.26
303.952	38.06
304.166	91.31
304.381	-21.33
304.595	154.79
304.809	5.29
305.023	54.44
305.237	117.93
305.452	25.77
305.666	74.92
305.88	117.93
306.094	23.72
306.308	44.2
306.522	111.78
306.736	60.59
306.95	42.15
307.164	27.82
307.379	97.45
307.593	103.59
307.807	19.63
308.021	146.6
308.235	109.74
308.449	50.35
308.663	25.77
308.877	142.5
309.091	54.44
309.305	89.26
309.519	-17.24
309.733	-9.05
309.947	3.24
310.161	66.73
310.374	74.92
310.588	74.92
310.802	58.54
311.016	21.67
311.23	48.3
311.444	-80.72
311.658	36.01
311.872	130.22
312.085	17.58
312.299	103.59
312.513	74.92
312.727	144.55
312.941	36.01
313.154	72.87
313.368	1.19
313.582	83.11
313.796	1.19
314.009	11.43
314.223	54.44
314.437	46.25
314.651	40.11
314.864	79.02
315.078	-21.33
315.292	-60.24
315.505	-27.48
315.719	19.63
315.933	85.16
316.146	25.77
316.36	66.73
316.573	50.35
316.787	11.43
317.001	42.15
317.214	3.24
317.428	52.39
317.641	48.3
317.855	54.44
318.068	-29.52
318.282	97.45
318.495	66.73
318.709	23.72
318.922	58.54
319.136	76.97
319.349	52.39
319.563	5.29
319.776	13.48
319.99	21.67
320.203	60.59
320.417	27.82
320.63	44.2
320.843	85.16
321.057	85.16
321.27	44.2
321.483	76.97
321.697	150.7
321.91	11.43
322.124	21.67
322.337	91.31
322.55	48.3
322.763	101.55
322.977	23.72
323.19	11.43
323.403	11.43
323.617	68.78
323.83	103.59
324.043	48.3
324.256	60.59
324.469	11.43
324.683	72.87
324.896	31.91
325.109	-15.19
325.322	44.2
325.535	9.39
325.748	85.16
325.962	76.97
326.175	-45.91
326.388	19.63
326.601	89.26
326.814	29.87
327.027	31.91
327.24	76.97
327.453	1.19
327.666	36.01
327.879	142.5
328.092	56.49
328.305	33.96
328.518	-0.85
328.731	-58.2
328.944	27.82
329.157	-7
329.37	56.49
329.583	134.31
329.796	101.55
330.009	3.24
330.222	109.74
330.435	27.82
330.648	60.59
330.861	-41.81
331.073	93.35
331.286	48.3
331.499	68.78
331.712	66.73
331.925	79.02
332.138	40.11
332.35	68.78
332.563	-21.33
332.776	48.3
332.989	31.91
333.202	-7
333.414	68.78
333.627	54.44
333.84	115.88
334.053	31.91
334.265	33.96
334.478	5.29
334.691	56.49
334.903	11.43
335.116	50.35
335.329	93.35
335.541	52.39
335.754	124.07
335.966	-4.95
336.179	42.15
336.392	60.59
336.604	11.43
336.817	36.01
337.029	46.25
337.242	33.96
337.454	140.46
337.667	52.39
337.88	29.87
338.092	9.39
338.305	11.43
338.517	21.67
338.729	107.69
338.942	109.74
339.154	21.67
339.367	15.53
339.579	169.13
339.792	64.68
340.004	74.92
340.217	21.67
340.429	15.53
340.641	42.15
340.854	-17.24
341.066	-37.72
341.278	138.41
341.491	89.26
341.703	3.24
341.915	27.82
342.128	5.29
342.34	15.53
342.552	31.91
342.764	40.11
342.977	81.07
343.189	60.59
343.401	85.16
343.613	21.67
343.826	31.91
344.038	21.67
344.25	33.96
344.462	76.97
344.674	52.39
344.886	7.34
345.099	93.35
345.311	-21.33
345.523	62.63
345.735	-50
345.947	97.45
346.159	48.3
346.371	5.29
346.583	38.06
346.795	40.11
347.007	46.25
347.219	52.39
347.431	36.01
347.643	93.35
347.855	54.44
348.067	81.07
348.279	64.68
348.491	70.83
348.703	95.4
348.915	52.39
349.127	23.72
349.339	68.78
349.551	-7
349.763	136.36
349.975	85.16
350.187	158.89
350.399	76.97
350.61	11.43
350.822	142.5
351.034	64.68
351.246	93.35
351.458	68.78
351.669	36.01
351.881	48.3
352.093	93.35
352.305	93.35
352.517	101.55
352.728	97.45
352.94	74.92
353.152	113.83
353.363	-17.24
353.575	15.53
353.787	83.11
353.999	68.78
354.21	105.64
354.422	36.01
354.633	29.87
354.845	48.3
355.057	19.63
355.268	25.77
355.48	33.96
355.692	36.01
355.903	54.44
356.115	68.78
356.326	17.58
356.538	152.74
356.749	31.91
356.961	144.55
357.172	33.96
357.384	-11.09
357.595	165.03
357.807	-56.15
358.018	19.63
358.23	87.21
358.441	99.5
358.653	13.48
358.864	89.26
359.075	36.01
359.287	93.35
359.498	50.35
359.709	66.73
359.921	15.53
360.132	132.26
360.344	29.87
360.555	44.2
360.766	62.63
360.977	74.92
361.189	99.5
361.4	33.96
361.611	33.96
361.823	89.26
362.034	64.68
362.245	-76.63
362.456	-7
362.667	54.44
362.879	74.92
363.09	44.2
363.301	-9.05
363.512	50.35
363.723	-13.14
363.935	42.15
364.146	64.68
364.357	89.26
364.568	58.54
364.779	-29.52
364.99	74.92
365.201	1.19
365.412	126.12
365.623	-41.81
365.834	85.16
366.045	91.31
366.256	21.67
366.467	42.15
366.678	42.15
366.889	23.72
367.1	9.39
367.311	19.63
367.522	15.53
367.733	40.11
367.944	-29.52
368.155	1.19
368.366	132.26
368.577	122.02
368.788	138.41
368.999	103.59
369.209	-21.33
369.42	117.93
369.631	81.07
369.842	42.15
370.053	42.15
370.264	48.3
370.474	40.11
370.685	83.11
370.896	21.67
371.107	60.59
371.317	85.16
371.528	-21.33
371.739	66.73
371.95	27.82
372.16	103.59
372.371	-21.33
372.582	33.96
372.792	19.63
373.003	128.17
373.214	54.44
373.424	107.69
373.635	-13.14
373.846	109.74
374.056	89.26
374.267	44.2
374.477	-0.85
374.688	33.96
374.898	42.15
375.109	68.78
375.319	91.31
375.53	58.54
375.74	56.49
375.951	111.78
376.161	119.98
376.372	89.26
376.582	79.02
376.793	62.63
377.003	17.58
377.214	81.07
377.424	97.45
377.635	99.5
377.845	91.31
378.055	60.59
378.266	29.87
378.476	89.26
378.686	3.24
378.897	17.58
379.107	95.4
379.317	113.83
379.528	11.43
379.738	66.73
379.948	25.77
380.158	54.44
380.369	68.78
380.579	56.49
380.789	40.11
380.999	58.54
381.21	76.97
381.42	122.02
381.63	5.29
381.84	101.55
382.05	85.16
382.261	52.39
382.471	60.59
382.681	11.43
382.891	148.65
383.101	42.15
383.311	56.49
383.521	36.01
383.731	101.55
383.941	48.3
384.151	91.31
384.361	23.72
384.571	60.59
384.781	60.59
384.991	115.88
385.201	113.83
385.411	119.98
385.621	72.87
385.831	95.4
386.041	-4.95
386.251	66.73
386.461	87.21
386.671	-19.29
386.881	31.91
387.091	31.91
387.301	150.7
387.511	93.35
387.72	27.82
387.93	132.26
388.14	-4.95
388.35	-23.38
388.56	68.78
388.769	99.5
388.979	85.16
389.189	5.29
389.399	138.41
389.609	89.26
389.818	113.83
390.028	19.63
390.238	126.12
390.447	46.25
390.657	119.98
390.867	93.35
391.076	-29.52
391.286	124.07
391.496	25.77
391.705	103.59
391.915	134.31
392.125	158.89
392.334	44.2
392.544	142.5
392.753	21.67
392.963	-31.57
393.172	40.11
393.382	81.07
393.591	62.63
393.801	87.21
394.01	103.59
394.22	150.7
394.429	56.49
394.639	81.07
394.848	81.07
395.058	60.59
395.267	64.68
395.477	68.78
395.686	109.74
395.895	146.6
396.105	189.61
396.314	113.83
396.524	68.78
396.733	138.41
396.942	173.22
397.152	150.7
397.361	99.5
397.57	113.83
397.78	89.26
397.989	146.6
398.198	148.65
398.407	93.35
398.617	97.45
398.826	99.5
399.035	48.3
399.244	140.46
399.453	138.41
399.663	134.31
399.872	134.31
400.081	36.01
400.29	148.65
400.499	91.31
400.708	132.26
400.917	81.07
401.127	76.97
401.336	181.42
401.545	165.03
401.754	175.27
401.963	142.5
402.172	156.84
402.381	140.46
402.59	60.59
402.799	105.64
403.008	144.55
403.217	126.12
403.426	183.46
403.635	89.26
403.844	177.32
404.053	150.7
404.262	79.02
404.471	205.99
404.68	249
404.888	142.5
405.097	144.55
405.306	171.18
405.515	109.74
405.724	113.83
405.933	97.45
406.142	177.32
406.35	183.46
406.559	146.6
406.768	203.94
406.977	230.57
407.185	179.37
407.394	277.67
407.603	181.42
407.812	228.52
408.02	201.9
408.229	171.18
408.438	259.24
408.646	189.61
408.855	259.24
409.064	300.2
409.272	298.15
409.481	240.81
409.69	289.96
409.898	212.14
410.107	230.57
410.315	408.74
410.524	251.05
410.733	412.84
410.941	296.1
411.15	412.84
411.358	347.3
411.567	380.07
411.775	371.88
411.984	394.4
412.192	433.32
412.401	406.69
412.609	396.45
412.818	466.08
413.026	453.8
413.234	451.75
413.443	449.7
413.651	441.51
413.86	560.29
414.068	574.63
414.276	498.85
414.485	494.76
414.693	648.35
414.901	670.88
415.11	660.64
415.318	619.68
415.526	674.98
415.734	740.51
415.943	666.78
416.151	793.76
416.359	847.01
416.567	799.9
416.776	883.87
416.984	865.44
417.192	916.64
417.4	918.68
417.608	896.16
417.817	967.84
418.025	980.12
418.233	1072.28
418.441	1086.62
418.649	1051.8
418.857	1131.67
419.065	1125.53
419.273	1285.27
419.481	1287.32
419.689	1279.13
419.897	1520.79
420.105	1424.53
420.313	1406.1
420.521	1559.7
420.729	1598.61
420.937	1492.12
421.145	1629.33
421.353	1707.15
421.561	1715.34
421.769	1848.46
421.977	1805.46
422.185	1870.99
422.393	1903.76
422.601	2026.64
422.809	2108.55
423.017	2067.6
423.224	2237.58
423.432	2311.3
423.64	2342.02
423.848	2567.3
424.056	2405.51
424.263	2579.59
424.471	2598.02
424.679	2722.95
424.887	2905.21
425.094	2897.02
425.302	2925.69
425.51	3001.47
425.718	3122.3
425.925	3163.26
426.133	3275.9
426.341	3470.45
426.548	3572.85
426.756	3501.17
426.964	3685.49
427.171	3820.66
427.379	4088.94
427.586	4187.24
427.794	4148.33
428.001	4265.07
428.209	4531.3
428.417	4359.27
428.624	4766.82
428.832	4725.86
429.039	4729.95
429.247	4775.01
429.454	5076.06
429.662	5682.26
429.869	5104.73
430.076	5569.62
430.284	5442.65
430.491	5639.25
430.699	5823.57
430.906	6022.22
431.114	6034.51
431.321	6325.32
431.528	6433.86
431.736	6761.54
431.943	7179.33
432.15	6833.22
432.358	6896.71
432.565	7504.95
432.772	7461.94
432.979	7842.87
433.187	7668.79
433.394	7771.19
433.601	8307.76
433.808	8442.92
434.016	8299.56
434.223	8586.28
434.43	9243.68
434.637	8930.34
434.844	9411.61
435.052	9872.4
435.259	9585.69
435.466	9890.84
435.673	9788.44
435.88	10243.09
436.087	10873.86
436.294	10931.2
436.501	10630.15
436.708	10863.62
436.915	11455.48
437.122	11592.7
437.329	11668.47
437.537	11906.04
437.743	12155.89
437.95	12028.92
438.157	12743.66
438.364	13362.14
438.571	13134.82
438.778	13274.08
438.985	14296.02
439.192	13757.4
439.399	14240.72
439.606	14031.83
439.813	14973.89
440.02	15506.37
440.227	15363.01
440.433	15377.34
440.64	15477.69
440.847	15655.87
441.054	16186.29
441.261	17091.49
441.467	17046.44
441.674	17165.22
441.881	18111.38
442.088	17890.2
442.294	17787.8
442.501	18156.44
442.708	18490.26
442.914	19479.43
443.121	20134.78
443.328	19602.3
443.534	20994.92
443.741	20372.34
443.948	19968.89
444.154	21300.07
444.361	21367.65
444.568	21629.79
444.774	21427.04
444.981	21691.23
445.187	22448.98
445.394	23155.53
445.6	23010.12
445.807	25242.41
446.013	24238.9
446.22	24615.73
446.426	25416.49
446.633	25998.11
446.839	26352.41
447.046	25494.31
447.252	27005.71
447.459	26923.79
447.665	26940.18
447.871	28091.13
448.078	29168.37
448.284	28031.74
448.491	28762.87
448.697	29680.36
448.903	30227.17
449.11	30333.66
449.316	29854.44
449.522	30321.37
449.728	31429.32
449.935	31419.08
450.141	31343.31
450.347	32234.17
450.553	31036.11
450.76	31822.53
450.966	32338.62
451.172	31941.32
451.378	32967.35
451.584	32047.81
451.791	33163.95
451.997	32883.38
452.203	33661.61
452.409	33514.16
452.615	33215.15
452.821	31781.57
453.027	31775.43
453.233	33227.44
453.44	32428.73
453.646	32262.85
453.852	32719.54
454.058	32879.28
454.264	32092.86
454.47	32608.95
454.676	31969.99
454.882	33045.17
455.088	30284.51
455.294	30743.25
455.5	31111.89
455.705	30986.96
455.911	30081.76
456.117	29381.35
456.323	29127.41
456.529	27370.25
456.735	28646.13
456.941	27818.75
457.147	27392.78
457.352	26479.38
457.558	26379.03
457.764	26127.13
457.97	25791.27
458.176	25180.97
458.381	25584.42
458.587	24257.34
458.793	24298.3
458.999	22883.15
459.204	24275.77
459.41	23739.2
459.616	22025.05
459.821	22250.33
460.027	22156.12
460.233	21719.9
460.438	20216.69
460.644	20607.86
460.85	19968.89
461.055	19422.08
461.261	19497.86
461.466	17984.41
461.672	17441.7
461.878	18742.16
462.083	17550.24
462.289	17281.95
462.494	16931.75
462.7	16395.18
462.905	15676.35
463.111	16321.46
463.316	16513.97
463.522	16083.89
463.727	16274.35
463.932	15815.61
464.138	15772.6
464.343	15973.3
464.549	15348.67
464.754	16122.8
464.959	15842.23
465.165	15774.65
465.37	15315.9
465.575	14607.31
465.781	15219.65
465.986	15156.16
466.191	14701.51
466.397	14662.6
466.602	13583.32
466.807	14412.75
467.012	14289.87
467.218	14099.41
467.423	14320.59
467.628	14164.95
467.833	14568.4
468.038	14248.91
468.244	13743.06
468.449	14035.92
468.654	13683.67
468.859	13587.42
469.064	13736.92
469.269	13429.73
469.474	13251.55
469.679	13509.6
469.885	12997.6
470.09	13175.78
470.295	13296.61
470.5	12874.73
470.705	12895.21
470.91	12690.41
471.115	12671.98
471.32	12710.89
471.525	12678.12
471.73	12561.39
471.935	12348.4
472.139	11903.99
472.344	12039.15
472.549	11863.03
472.754	11770.87
472.959	11439.1
473.164	11389.95
473.369	11209.73
473.574	11746.3
473.778	11267.07
473.983	11297.79
474.188	11414.52
474.393	10671.11
474.598	10759.17
474.802	10687.5
475.007	10832.9
475.212	10775.56
475.417	10261.52
475.621	10343.44
475.826	10214.41
476.031	10286.09
476.235	10032.15
476.44	10097.68
476.645	9749.53
476.849	9929.75
477.054	9784.34
477.259	9571.35
477.463	9655.32
477.668	9454.62
477.872	9341.98
478.077	9282.59
478.282	9028.64
478.486	9118.75
478.691	8940.58
478.895	8924.19
479.1	8971.3
479.304	9002.02
479.509	8672.29
479.713	8829.99
479.918	8561.7
480.122	8487.98
480.326	8457.26
480.531	8713.25
480.735	8361
480.94	8408.11
481.144	8791.08
481.348	8272.94
481.553	8211.5
481.757	8309.8
481.961	8389.67
482.166	8197.17
482.37	8418.35
482.574	8133.68
482.778	8367.15
482.983	8221.74
483.187	8186.93
483.391	8418.35
483.595	8064.05
483.8	8105.01
484.004	8131.63
484.208	8514.6
484.412	8195.12
484.616	8270.89
484.821	8492.07
485.025	8150.06
485.229	8309.8
485.433	8158.25
485.637	8242.22
485.841	7984.18
486.045	8203.31
486.249	8195.12
486.453	8219.69
486.657	8117.29
486.861	8350.76
487.065	8010.8
487.269	8268.84
487.473	8074.29
487.677	8291.37
487.881	8344.62
488.085	8154.16
488.289	8227.89
488.493	8027.18
488.697	8383.53
488.901	8178.73
489.105	8154.16
489.309	8242.22
489.512	8379.43
489.716	8215.6
489.92	8352.81
490.124	8330.28
490.328	8508.46
490.531	8264.75
490.735	8506.41
490.939	8514.6
491.143	8457.26
491.346	8356.91
491.55	8426.54
491.754	8653.86
491.958	8590.38
492.161	8668.2
492.365	8377.39
492.569	8408.11
492.772	8725.54
492.976	8838.18
493.18	8637.48
493.383	8920.1
493.587	9012.26
493.79	8965.15
493.994	8936.48
494.197	9258.01
494.401	9190.43
494.605	9243.68
494.808	9106.46
495.012	9425.95
495.215	9178.14
495.419	9430.04
495.622	9399.32
495.825	9647.13
496.029	9595.93
496.232	9743.38
496.436	9487.39
496.639	10048.53
496.843	9819.16
497.046	10138.64
497.249	10357.77
497.453	10136.59
497.656	10454.03
497.859	10443.79
498.063	10546.19
498.266	10660.87
498.469	10812.42
498.673	10707.98
498.876	11111.43
499.079	11113.47
499.282	11070.47
499.485	11222.02
499.689	11381.76
499.892	11727.86
500.095	11635.71
500.298	11877.37
500.501	11781.11
500.705	12176.37
500.908	12073.97
501.111	12227.57
501.314	12278.77
501.517	12590.06
501.72	12641.26
501.923	12506.09
502.126	12878.82
502.329	13493.21
502.532	13374.43
502.735	13464.54
502.938	13773.78
503.141	13472.73
503.344	13861.85
503.547	13794.26
503.75	13956.05
503.953	14166.99
504.156	14480.33
504.359	14666.7
504.562	14851.02
504.765	15332.29
504.968	14900.17
505.17	15375.3
505.373	15412.16
505.576	15666.11
505.779	15885.24
505.982	15864.76
506.185	16243.63
506.387	16141.24
506.59	16325.55
506.793	17005.48
506.996	16630.7
507.198	17169.32
507.401	17148.84
507.604	17484.7
507.807	17796
508.009	17789.85
508.212	18092.95
508.415	18207.64
508.617	18598.8
508.82	18516.88
509.022	18484.11
509.225	19112.84
509.428	19155.85
509.63	19706.75
509.833	19694.46
510.035	19790.72
510.238	19954.55
510.44	20030.33
510.643	20511.6
510.845	20755.31
511.048	20800.37
511.25	21107.56
511.453	21117.8
511.655	21941.08
511.858	21930.84
512.06	21961.56
512.262	22326.1
512.465	22131.54
512.667	22926.16
512.87	23067.47
513.072	23333.7
513.274	23479.11
513.477	23903.04
513.679	24148.79
513.881	24247.1
514.084	24652.59
514.286	24822.58
514.488	24814.38
514.69	25760.55
514.893	25686.82
515.095	25873.18
515.297	26454.81
515.499	26055.45
515.701	26753.81
515.904	26923.79
516.106	27351.82
516.308	27480.84
516.51	27736.84
516.712	27980.54
516.914	28549.88
517.116	28816.11
517.318	29135.6
517.52	29246.19
517.722	29426.41
517.925	30221.02
518.127	30458.59
518.329	30769.88
518.531	30706.39
518.733	31445.71
518.935	31777.48
519.136	31699.65
519.338	32381.63
519.54	32789.17
519.742	32555.71
519.944	33184.43
520.146	33792.68
520.348	34239.14
520.55	34372.25
520.752	34564.76
520.954	35656.33
521.155	35238.54
521.357	35879.56
521.559	36256.39
521.761	36784.76
521.963	36786.81
522.164	37100.15
522.366	37376.62
522.568	37950.06
522.77	38117.99
522.971	38877.79
523.173	38670.94
523.375	39111.25
523.576	39449.17
523.778	39694.92
523.98	40137.29
524.181	40663.61
524.383	40499.78
524.584	41275.96
524.786	41310.77
524.988	41445.94
525.189	42113.58
525.391	42439.2
525.592	42750.49
525.794	42900
525.995	43203.1
526.197	43340.31
526.398	43790.86
526.6	43973.13
526.801	44452.36
527.003	44474.88
527.204	44503.56
527.406	45502.96
527.607	45072.89
527.808	45642.23
528.01	45101.56
528.211	45595.12
528.412	46520.8
528.614	46483.94
528.815	46715.36
529.016	47174.11
529.218	46877.15
529.419	47102.43
529.62	47464.92
529.822	47528.41
530.023	47561.17
530.224	47940.05
530.425	48153.04
530.626	47899.09
530.828	47989.2
531.029	49570.23
531.23	48591.3
531.431	48685.51
531.632	49058.24
531.833	49150.4
532.035	49222.08
532.236	49267.13
532.437	49912.24
532.638	49566.13
532.839	49834.42
533.04	49854.9
533.241	49695.16
533.442	50839.97
533.643	50223.53
533.844	50354.6
534.045	50399.66
534.246	49777.08
534.447	50461.1
534.648	50182.57
534.849	50649.51
535.05	50332.07
535.251	50373.03
535.451	50287.02
535.652	50737.57
535.853	50545.06
536.054	50934.18
536.255	50954.66
536.456	50092.46
536.657	51716.5
536.857	50864.55
537.058	51012
537.259	51110.3
537.46	51302.81
537.66	51009.95
537.861	51151.26
538.062	51098.01
538.263	51343.77
538.463	50962.85
538.664	51024.29
538.865	51581.34
539.065	51542.42
539.266	50774.44
539.466	51503.51
539.667	50868.64
539.868	51769.75
540.068	51116.45
540.269	51394.97
540.469	51769.75
540.67	50680.23
540.87	51663.25
541.071	51442.07
541.271	51421.59
541.472	51335.58
541.672	51392.92
541.873	51446.17
542.073	50854.31
542.274	51786.13
542.474	51433.88
542.675	51548.57
542.875	51786.13
543.075	51483.03
543.276	50903.46
543.476	51476.89
543.676	51067.3
543.877	51386.78
544.077	51255.71
544.277	51259.8
544.478	51583.38
544.678	51501.46
544.878	51278.24
545.078	51515.8
545.279	51188.13
545.479	51214.75
545.679	51284.38
545.879	51681.69
546.079	51511.7
546.28	51483.03
546.48	50991.52
546.68	51648.92
546.88	51319.2
547.08	51495.32
547.28	51450.27
547.48	51016.1
547.68	51642.77
547.88	51224.99
548.081	51356.06
548.281	51102.11
548.481	51433.88
548.681	51489.18
548.881	51108.25
549.081	51532.18
549.28	51196.32
549.48	51507.61
549.68	51184.03
549.88	52007.31
550.08	51302.81
550.28	51673.49
550.48	51175.84
550.68	51773.84
550.88	51354.01
551.08	51073.44
551.279	51319.2
551.479	50590.12
551.679	50925.99
551.879	50844.07
552.079	51360.15
552.278	51098.01
552.478	51255.71
552.678	51016.1
552.878	51454.36
553.077	51218.85
553.277	50225.58
553.477	51315.1
553.676	50569.64
553.876	50909.6
554.076	50815.4
554.275	50839.97
554.475	50391.47
554.674	50686.37
554.874	50960.8
555.074	50311.59
555.273	50512.3
555.473	51065.25
555.672	50241.96
555.872	50207.15
556.071	50176.43
556.271	50586.02
556.47	50172.33
556.67	50008.5
556.869	50379.18
557.068	49953.2
557.268	49756.6
557.467	49861.04
557.667	49594.81
557.866	49713.59
558.065	49838.51
558.265	49451.45
558.464	48951.74
558.663	49338.81
558.863	48835.01
559.062	49611.19
559.261	48716.23
559.461	49213.88
559.66	48503.24
559.859	48951.74
560.058	48705.99
560.258	48568.77
560.457	47944.14
560.656	48689.6
560.855	48130.51
561.054	48372.17
561.253	48161.23
561.453	47948.24
561.652	48044.49
561.851	48148.94
562.05	47350.23
562.249	47053.28
562.448	47782.35
562.647	46979.55
562.846	46948.83
563.045	46975.45
563.244	46254.57
563.443	47129.05
563.642	46461.41
563.841	46139.88
564.04	45787.63
564.239	46201.32
564.438	46037.48
564.637	46072.3
564.836	46037.48
565.035	45177.34
565.234	45183.48
565.432	45265.4
565.631	44618.24
565.83	44859.9
566.029	44659.2
566.228	44562.95
566.427	44306.95
566.625	43950.6
566.824	43661.84
567.023	44042.76
567.222	43387.41
567.42	43878.93
567.619	43506.19
567.818	43573.78
568.016	42881.56
568.215	43227.67
568.414	42742.3
568.612	42947.1
568.811	42123.82
569.01	42340.9
569.208	41880.11
569.407	42039.85
569.605	41568.82
569.804	42119.72
570.002	41376.31
570.201	41482.8
570.4	41194.04
570.598	41067.06
570.797	40878.65
570.995	40587.84
571.193	40079.94
571.392	40518.21
571.59	39828.04
571.789	40028.74
571.987	40153.67
572.186	39942.73
572.384	39207.51
572.582	39492.18
572.781	39338.58
572.979	39008.86
573.177	38943.32
573.376	38888.03
573.574	38529.63
573.772	38752.86
573.971	38351.46
574.169	38230.63
574.367	37679.72
574.565	38163.04
574.763	37687.92
574.962	37350
575.16	37249.65
575.358	37458.54
575.556	36747.9
575.754	37864.04
575.952	36721.27
576.151	37161.59
576.349	36180.61
576.547	36131.46
576.745	36289.15
576.943	36852.34
577.141	36084.36
577.339	36170.37
577.537	35588.75
577.735	35867.27
577.933	35216.02
578.131	35484.3
578.329	35377.81
578.527	34951.83
578.725	35076.76
578.923	34890.39
579.121	34869.91
579.319	34448.03
579.516	34812.57
579.714	34618.01
579.912	34073.25
580.11	34179.75
580.308	34063.01
580.506	33933.99
580.704	33495.72
580.901	33901.22
581.099	34071.2
581.297	33544.87
581.495	33403.56
581.692	33538.73
581.89	32828.09
582.088	33413.8
582.285	33034.93
582.483	33161.9
582.681	32658.1
582.878	32506.55
583.076	32076.48
583.274	32408.25
583.471	32099.01
583.669	32385.72
583.866	32008.9
584.064	32342.72
584.262	31457.99
584.459	31963.84
584.657	31738.57
584.854	31969.99
585.052	31038.16
585.249	31582.92
585.447	31251.15
585.644	30917.33
585.841	31115.98
586.039	31408.84
586.236	30958.29
586.434	30814.93
586.631	30309.08
586.828	30675.67
587.026	30382.81
587.223	30247.65
587.42	30231.26
587.618	29803.24
587.815	29795.04
588.012	29911.78
588.21	29766.37
588.407	29891.3
588.604	29399.79
588.801	29344.49
588.999	29534.95
589.196	29569.77
589.393	29385.45
589.59	28889.84
589.787	29209.32
589.984	28963.57
590.182	28607.22
590.379	28830.45
590.576	28820.21
590.773	28633.85
590.97	28306.17
591.167	28744.44
591.364	27951.87
591.561	28470.01
591.758	28078.85
591.955	27902.72
592.152	27691.78
592.349	27620.1
592.546	27753.22
592.743	27777.79
592.94	27204.36
593.137	27419.4
593.334	27673.35
593.531	27235.08
593.727	27499.27
593.924	27271.95
594.121	26678.04
594.318	27319.05
594.515	26721.04
594.712	27073.29
594.908	26286.87
595.105	26688.28
595.302	26493.72
595.499	26387.22
595.696	26471.19
595.892	26174.24
596.089	26508.05
596.286	26403.61
596.482	25996.06
596.679	25955.1
596.876	25746.21
597.072	25637.67
597.269	25944.86
597.466	25684.77
597.662	25484.07
597.859	25426.73
598.055	25719.59
598.252	25506.6
598.448	25377.58
598.645	25094.96
598.841	25058.09
599.038	24644.4
599.234	24994.61
599.431	24685.36
599.627	24392.5
599.824	24720.18
600.02	24400.69
600.217	24374.07
600.413	24496.95
600.609	24392.5
600.806	24214.33
601.002	24245.05
601.198	24118.07
601.395	24073.02
601.591	23991.1
601.787	23837.5
601.984	23573.31
602.18	23964.48
602.376	23704.38
602.572	23272.26
602.769	23583.55
602.965	23237.45
603.161	23599.94
603.357	23219.02
603.553	22913.87
603.75	23065.42
603.946	23073.61
604.142	23243.59
604.338	22469.46
604.534	22735.7
604.73	22491.99
604.926	22491.99
605.122	22592.34
605.318	22532.95
605.514	22190.94
605.71	22264.66
605.906	22131.54
606.102	22111.07
606.298	22426.45
606.494	22109.02
606.69	22231.9
606.886	22225.75
607.082	21451.62
607.278	21986.14
607.474	21400.42
607.67	21713.76
607.866	21123.94
608.062	21791.58
608.257	21398.37
608.453	21431.14
608.649	21320.55
608.845	21148.52
609.041	21183.34
609.236	21240.68
609.432	21214.05
609.628	21375.84
609.824	21220.2
610.019	20835.18
610.215	20878.19
610.411	20970.35
610.606	20765.55
610.802	20857.71
610.998	20640.62
611.193	20913
611.389	20738.93
611.584	20441.97
611.78	20335.48
611.976	20390.77
612.171	20548.47
612.367	20231.03
612.562	19977.08
612.758	20140.92
612.953	19948.41
613.149	20312.95
613.344	19792.76
613.539	20024.19
613.735	19903.35
613.93	19723.13
614.126	19633.02
614.321	19878.78
614.517	19452.8
614.712	19630.98
614.907	19604.35
615.103	19825.53
615.298	19479.43
615.493	19520.38
615.688	19293.06
615.884	19745.66
616.079	19288.96
616.274	19567.49
616.47	19229.57
616.665	19141.51
616.86	19207.05
617.055	18992.01
617.25	18942.86
617.445	19342.21
617.641	18623.37
617.836	19397.51
618.031	18611.09
618.226	18688.91
618.421	18789.26
618.616	18650
618.811	18430.87
619.006	18748.3
619.201	18199.44
619.396	18531.22
619.591	18076.57
619.786	18471.82
619.981	18006.94
620.176	18312.08
620.371	17714.08
620.566	17818.52
620.761	17748.89
620.956	17785.76
621.151	17281.95
621.346	17570.72
621.541	17349.54
621.735	17456.03
621.93	17118.12
622.125	17165.22
622.32	16911.27
622.515	17183.65
622.709	16911.27
622.904	17054.63
623.099	16718.76
623.294	16737.2
623.488	16587.69
623.683	16470.96
623.878	16427.95
624.072	16266.16
624.267	16231.35
624.462	16217.01
624.656	16018.36
624.851	15895.48
625.046	15909.82
625.24	15934.39
625.435	15545.28
625.629	15569.85
625.824	15688.64
626.018	15588.28
626.213	15166.4
626.407	15123.4
626.602	15080.39
626.796	15207.36
626.991	15059.91
627.185	14810.06
627.38	14709.71
627.574	14816.2
627.768	14588.88
627.963	14744.52
628.157	14345.17
628.352	14597.07
628.546	14326.74
628.74	14404.56
628.935	14214.1
629.129	14044.12
629.323	14103.51
629.517	14345.17
629.712	14011.35
629.906	14052.31
630.1	13538.27
630.294	13900.76
630.489	13648.86
630.683	13683.67
630.877	13366.24
631.071	13458.4
631.265	13464.54
631.459	13376.48
631.653	13253.6
631.848	13251.55
632.042	12913.64
632.236	13071.33
632.43	12905.45
632.624	13106.15
632.818	12999.65
633.012	12757.99
633.206	12694.5
633.4	12878.82
633.594	12557.29
633.788	12555.24
633.982	12641.26
634.176	12311.53
634.369	12362.73
634.563	12164.08
634.757	12172.27
634.951	12133.36
635.145	12055.54
635.339	11975.67
635.533	11998.2
635.726	11809.78
635.92	11684.86
636.114	11647.99
636.308	11701.24
636.501	11590.65
636.695	11725.82
636.889	11494.4
637.083	11310.08
637.276	11219.97
637.47	11303.93
637.664	11275.26
637.857	11361.28
638.051	10935.3
638.244	10781.7
638.438	11107.33
638.632	10867.72
638.825	10656.78
639.019	10765.32
639.212	10664.97
639.406	10728.45
639.599	10468.36
639.793	10382.35
639.986	10363.92
640.18	10411.02
640.373	10204.17
640.567	10308.62
640.76	10341.39
640.954	10026
641.147	10046.48
641.34	10003.47
641.534	10198.03
641.727	9985.04
641.92	10089.49
642.114	10019.86
642.307	9653.27
642.5	9634.84
642.694	9583.64
642.887	9620.5
643.08	9673.75
643.273	9507.87
643.467	9497.63
643.66	9276.45
643.853	9260.06
644.046	9141.28
644.239	9341.98
644.432	9231.39
644.626	9104.42
644.819	8952.87
645.012	9006.11
645.205	8954.91
645.398	8733.73
645.591	8973.35
645.784	8793.12
645.977	8633.38
646.17	8848.42
646.363	8660.01
646.556	8668.2
646.749	8580.14
646.942	8590.38
647.135	8481.83
647.328	8438.83
647.521	8346.67
647.714	8182.83
647.907	8432.68
648.099	8406.06
648.292	8375.34
648.485	8326.19
648.678	8191.02
648.871	8113.2
649.064	8141.87
649.256	8037.42
649.449	8047.66
649.642	7865.39
649.835	7816.24
650.027	7838.77
650.22	7863.35
650.413	7857.2
650.605	7986.22
650.798	7722.04
650.991	7535.67
651.183	7595.06
651.376	7689.27
651.568	7760.95
651.761	7396.41
651.954	7515.19
652.146	7482.42
652.339	7296.06
652.531	7502.9
652.724	7273.53
652.916	7218.24
653.109	7212.09
653.301	7087.17
653.494	7265.34
653.686	7175.23
653.879	7273.53
654.071	7169.09
654.263	7040.06
654.456	6954.05
654.648	6937.66
654.84	6777.92
655.033	6872.13
655.225	6857.79
655.417	6818.88
655.61	6794.31
655.802	6978.62
655.994	6714.44
656.186	6671.43
656.379	6663.24
656.571	6603.85
656.763	6521.93
656.955	6736.96
657.148	6788.16
657.34	6433.86
657.532	6325.32
657.724	6380.62
657.916	6595.65
658.108	6380.62
658.3	6327.37
658.492	6634.57
658.684	6304.84
658.876	6491.21
659.068	6263.88
659.26	6227.02
659.452	6284.36
659.644	6280.27
659.836	6141
660.028	6149.2
660.22	6018.13
660.412	6161.48
660.604	6065.23
660.796	5925.97
660.988	5968.98
661.18	5878.86
661.372	5858.39
661.563	6052.94
661.755	5966.93
661.947	5885.01
662.139	5766.23
662.331	5856.34
662.522	5905.49
662.714	5827.67
662.906	5749.84
663.097	5696.6
663.289	5835.86
663.481	5817.43
663.673	5715.03
663.864	5688.4
664.056	5735.51
664.247	5573.72
664.439	5532.76
664.631	5540.95
664.822	5557.33
665.014	5663.83
665.205	5524.57
665.397	5532.76
665.588	5456.98
665.78	5508.18
665.971	5559.38
666.163	5393.5
666.354	5430.36
666.546	5467.22
666.737	5450.84
666.929	5446.74
667.12	5413.98
667.311	5381.21
667.503	5377.11
667.694	5311.58
667.885	5399.64
668.077	5354.58
668.268	5209.18
668.459	5461.08
668.651	5287
668.842	5336.15
669.033	5256.28
669.224	5194.84
669.416	5299.29
669.607	5293.15
669.798	5151.84
669.989	5319.77
670.18	5151.84
670.371	5295.19
670.563	5168.22
670.754	5235.8
670.945	5127.26
671.136	5221.47
671.327	5141.6
671.518	5160.03
671.709	5104.73
671.9	5180.51
672.091	5196.89
672.282	5055.58
672.473	5090.4
672.664	5147.74
672.855	5305.43
673.046	5188.7
673.237	5131.36
673.428	5254.23
673.619	5108.83
673.809	5094.49
674	5112.92
674.191	5162.08
674.382	4938.85
674.573	5114.97
674.764	5209.18
674.954	5229.66
675.145	5145.69
675.336	5215.32
675.527	5243.99
675.717	5293.15
675.908	5051.49
676.099	5188.7
676.289	5219.42
676.48	5180.51
676.671	5311.58
676.861	5317.72
677.052	5153.88
677.243	5106.78
677.433	5268.57
677.624	5237.85
677.814	5235.8
678.005	5221.47
678.195	5250.14
678.386	5276.76
678.576	5205.08
678.767	5323.87
678.957	5354.58
679.148	5334.11
679.338	5418.07
679.529	5418.07
679.719	5284.95
679.909	5479.51
680.1	5428.31
680.29	5475.42
680.481	5366.87
680.671	5456.98
680.861	5315.67
681.052	5543
681.242	5330.01
681.432	5557.33
681.622	5434.46
681.813	5524.57
682.003	5428.31
682.193	5387.35
682.383	5549.14
682.573	5358.68
682.764	5647.44
682.954	5497.94
683.144	5565.53
683.334	5403.74
683.524	5614.68
683.714	5530.71
683.904	5669.97
684.094	5583.96
684.284	5504.09
684.474	5489.75
684.664	5487.7
684.854	5649.49
685.044	5407.83
685.234	5575.77
685.424	5432.41
685.614	5522.52
685.804	5653.59
685.994	5563.48
686.184	5641.3
686.374	5356.63
686.564	5332.06
686.753	5540.95
686.943	5569.62
687.133	5375.06
687.323	5463.13
687.513	5475.42
687.702	5342.3
687.892	5438.55
688.082	5491.8
688.272	5399.64
688.461	5430.36
688.651	5454.94
688.841	5295.19
689.03	5377.11
689.22	5377.11
689.41	5241.95
689.599	5278.81
689.789	5291.1
689.979	5264.47
690.168	5315.67
690.358	5098.59
690.547	5143.64
690.737	5094.49
690.926	5090.4
691.116	5041.25
691.305	5221.47
691.495	5039.2
691.684	5012.57
691.874	4975.71
692.063	5172.32
692.252	5008.48
692.442	5049.44
692.631	4787.3
692.82	5035.1
693.01	4877.41
693.199	4809.83
693.388	4957.28
693.578	5049.44
693.767	4930.66
693.956	4924.51
694.146	4844.64
694.335	4932.7
694.524	4891.74
694.713	4901.98
694.902	4793.44
695.092	4885.6
695.281	4836.45
695.47	4785.25
695.659	4846.69
695.848	4918.37
696.037	4881.5
696.226	4695.14
696.415	4852.83
696.604	4883.55
696.793	4844.64
696.982	4830.3
697.171	4912.22
697.36	4910.18
697.549	4801.63
697.738	4899.94
697.927	4912.22
698.116	4858.98
698.305	5004.38
698.494	4975.71
698.683	4983.9
698.872	4996.19
699.061	4918.37
699.25	4834.4
699.438	4940.9
699.627	4983.9
699.816	5053.53
700.005	4918.37
700.193	4830.3
700.382	4932.7
700.571	4910.18
700.76	4910.18
700.948	5080.16
701.137	5090.4
701.326	4895.84
701.514	5022.81
701.703	4963.42
701.892	5000.29
702.08	5090.4
702.269	5057.63
702.457	5026.91
702.646	5084.25
702.834	5090.4
703.023	5049.44
703.212	5184.6
703.4	5131.36
703.589	4957.28
703.777	5135.45
703.965	5008.48
704.154	5190.75
704.342	5278.81
704.531	5180.51
704.719	5223.51
704.907	5123.16
705.096	5155.93
705.284	5241.95
705.472	5178.46
705.661	5219.42
705.849	5327.96
706.037	5352.54
706.226	5143.64
706.414	5364.82
706.602	5252.19
706.79	5356.63
706.979	5262.43
707.167	5260.38
707.355	5295.19
707.543	5368.92
707.731	5416.02
707.919	5291.1
708.107	5499.99
708.296	5383.26
708.484	5237.85
708.672	5377.11
708.86	5481.56
709.048	5381.21
709.236	5465.18
709.424	5399.64
709.612	5532.76
709.8	5479.51
709.988	5442.65
710.176	5370.97
710.364	5647.44
710.551	5626.96
710.739	5528.66
710.927	5389.4
711.115	5475.42
711.303	5545.05
711.491	5637.2
711.679	5555.29
711.866	5524.57
712.054	5602.39
712.242	5563.48
712.43	5538.9
712.617	5598.29
712.805	5563.48
712.993	5749.84
713.181	5614.68
713.368	5737.56
713.556	5680.21
713.744	5622.87
713.931	5807.19
714.119	5749.84
714.306	5860.43
714.494	5788.75
714.682	5760.08
714.869	5700.69
715.057	5809.23
715.244	5581.91
715.432	5811.28
715.619	5903.44
715.807	5848.15
715.994	5897.3
716.182	5809.23
716.369	5925.97
716.556	5934.16
716.744	5768.27
716.931	5790.8
717.119	5897.3
717.306	5930.06
717.493	5729.36
717.681	5846.1
717.868	5674.07
718.055	5934.16
718.242	5770.32
718.43	5958.74
718.617	5946.45
718.804	5893.2
718.991	5997.65
719.179	6061.13
719.366	5803.09
719.553	6085.71
719.74	5930.06
719.927	5776.47
720.114	5893.2
720.301	5968.98
720.488	5950.54
720.676	5874.77
720.863	6052.94
721.05	6214.73
721.237	5946.45
721.424	5989.46
721.611	6050.89
721.798	5932.11
721.985	5932.11
722.172	6005.84
722.358	5950.54
722.545	6141
722.732	6001.74
722.919	6063.18
723.106	6042.7
723.293	5891.15
723.48	5948.5
723.667	6009.93
723.853	6022.22
724.04	6024.27
724.227	6179.92
724.414	5880.91
724.6	5954.64
724.787	6132.81
724.974	6171.72
725.161	6237.26
725.347	6011.98
725.534	6122.57
725.72	5968.98
725.907	6083.66
726.094	6118.48
726.28	5975.12
726.467	6005.84
726.653	6040.65
726.84	6249.55
727.027	6124.62
727.213	6106.19
727.4	6216.78
727.586	6124.62
727.773	6067.28
727.959	5928.02
728.145	6276.17
728.332	6091.85
728.518	6059.09
728.705	6132.81
728.891	6114.38
729.077	6194.25
729.264	6001.74
729.45	6145.1
729.636	6138.96
729.823	6085.71
730.009	6261.84
730.195	6155.34
730.382	6120.53
730.568	6046.8
730.754	6114.38
730.94	6063.18
731.126	6282.31
731.313	6184.01
731.499	6274.12
731.685	6261.84
731.871	6028.37
732.057	6184.01
732.243	6190.16
732.429	6040.65
732.615	6241.36
732.801	6046.8
732.987	6098
733.173	5968.98
733.359	6147.15
733.545	6083.66
733.731	6048.85
733.917	6229.07
734.103	6059.09
734.289	6177.87
734.475	6118.48
734.661	6233.16
734.847	6057.04
735.033	6089.81
735.219	6153.29
735.404	6085.71
735.59	6200.4
735.776	6081.61
735.962	6026.32
736.148	6052.94
736.333	6048.85
736.519	5919.82
736.705	6028.37
736.89	5815.38
737.076	5975.12
737.262	5885.01
737.447	5956.69
737.633	5932.11
737.819	5932.11
738.004	5864.53
738.19	5934.16
738.375	5817.43
738.561	5946.45
738.747	5774.42
738.932	5823.57
739.118	5844.05
739.303	5907.54
739.489	5899.34
739.674	5698.64
739.859	5751.89
740.045	5940.3
740.23	5866.58
740.416	5647.44
740.601	5747.79
740.786	5532.76
740.972	5682.26
741.157	5618.77
741.342	5586.01
741.528	5688.4
741.713	5635.16
741.898	5581.91
742.084	5651.54
742.269	5631.06
742.454	5633.11
742.639	5567.57
742.824	5569.62
743.01	5481.56
743.195	5622.87
743.38	5438.55
743.565	5563.48
743.75	5366.87
743.935	5358.68
744.12	5383.26
744.305	5311.58
744.49	5246.04
744.675	5241.95
744.86	5313.63
745.045	5246.04
745.23	5088.35
745.415	5227.61
745.6	5260.38
745.785	5088.35
745.97	5100.64
746.155	4983.9
746.34	4977.76
746.525	4904.03
746.71	5121.12
746.895	5024.86
747.079	5006.43
747.264	4844.64
747.449	4846.69
747.634	4727.91
747.819	4740.19
748.003	4822.11
748.188	4752.48
748.373	4793.44
748.557	4709.47
748.742	4588.64
748.927	4553.83
749.111	4652.13
749.296	4590.69
749.481	4572.26
749.665	4482.15
749.85	4555.88
750.034	4502.63
750.219	4369.51
750.404	4433
750.588	4353.13
750.773	4236.39
750.957	4205.67
751.141	4334.7
751.326	4113.52
751.51	4056.17
751.695	4289.64
751.879	4070.51
752.064	4123.76
752.248	4172.91
752.432	4172.91
752.617	4041.84
752.801	4062.32
752.985	4004.97
753.17	4052.08
753.354	4009.07
753.538	3945.58
753.722	3789.94
753.907	3925.1
754.091	3728.5
754.275	3773.55
754.459	3763.31
754.643	3724.4
754.828	3572.85
755.012	3716.21
755.196	3636.34
755.38	3622
755.564	3560.56
755.748	3501.17
755.932	3525.75
756.116	3529.84
756.3	3409.01
756.484	3345.53
756.668	3476.6
756.852	3318.9
757.036	3400.82
757.22	3441.78
757.404	3390.58
757.588	3239.03
757.772	3214.46
757.956	3300.47
758.14	3245.18
758.323	3146.87
758.507	3204.22
758.691	3210.36
758.875	3132.54
759.059	3148.92
759.242	3189.88
759.426	3040.38
759.61	3007.61
759.794	2958.46
759.977	3060.86
760.161	2993.28
760.345	2913.41
760.528	2978.94
760.712	3042.43
760.895	2899.07
761.079	2804.86
761.263	2901.12
761.446	2823.3
761.63	2950.27
761.813	2882.69
761.997	2776.19
762.18	2784.38
762.364	2751.62
762.547	2768
762.731	2698.37
762.914	2745.47
763.098	2698.37
763.281	2794.62
763.464	2667.65
763.648	2665.6
763.831	2700.42
764.015	2626.69
764.198	2610.31
764.381	2649.22
764.564	2477.19
764.748	2589.83
764.931	2636.93
765.114	2573.44
765.297	2595.97
765.481	2415.75
765.664	2491.52
765.847	2346.12
766.03	2387.08
766.213	2579.59
766.397	2428.04
766.58	2417.8
766.763	2473.09
766.946	2466.95
767.129	2387.08
767.312	2448.52
767.495	2370.69
767.678	2327.69
767.861	2331.78
768.044	2370.69
768.227	2303.11
768.41	2290.82
768.593	2391.17
768.776	2239.62
768.959	2288.78
769.142	2245.77
769.324	2178.19
769.507	2262.15
769.69	2247.82
769.873	2208.9
770.056	2278.54
770.239	2145.42
770.421	2243.72
770.604	2206.86
770.787	2241.67
770.97	2098.31
771.152	1987.72
771.335	2108.55
771.518	2045.07
771.7	2141.32
771.883	2133.13
772.066	2032.78
772.248	2067.6
772.431	2010.25
772.613	2018.44
772.796	1989.77
772.978	1932.43
773.161	1989.77
773.343	2012.3
773.526	1850.51
773.708	1846.41
773.891	1930.38
774.073	1936.53
774.256	1870.99
774.438	1989.77
774.621	1866.89
774.803	1885.33
774.985	1821.84
775.168	1870.99
775.35	1799.31
775.532	1879.18
775.715	1694.86
775.897	1729.68
776.079	1690.77
776.261	1705.1
776.444	1756.3
776.626	1744.02
776.808	1744.02
776.99	1631.38
777.173	1612.95
777.355	1594.51
777.537	1682.58
777.719	1592.47
777.901	1604.75
778.083	1543.32
778.265	1533.08
778.447	1731.73
778.629	1426.58
778.811	1494.16
778.993	1567.89
779.175	1526.93
779.357	1592.47
779.539	1393.81
779.721	1424.53
779.903	1436.82
780.085	1387.67
780.267	1469.59
780.449	1481.88
780.631	1346.71
780.812	1438.87
780.994	1445.01
781.176	1395.86
781.358	1363.09
781.54	1408.15
781.721	1346.71
781.903	1383.57
782.085	1297.56
782.267	1289.37
782.448	1262.74
782.63	1303.7
782.812	1254.55
782.993	1359
783.175	1264.79
783.357	1244.31
783.538	1289.37
783.72	1215.64
783.901	1137.82
784.083	1111.19
784.264	1209.5
784.446	1090.71
784.627	1135.77
784.809	1109.15
784.99	1186.97
785.172	1186.97
785.353	1164.44
785.535	1086.62
785.716	1107.1
785.897	1092.76
786.079	1035.42
786.26	1062.04
786.441	1162.39
786.623	1062.04
786.804	1004.7
786.985	1051.8
787.167	1123.48
787.348	994.46
787.529	1053.85
787.71	998.56
787.891	1006.75
788.073	924.83
788.254	949.4
788.435	1043.61
788.616	926.88
788.797	855.2
788.978	949.4
789.159	877.73
789.34	933.02
789.522	961.69
789.703	863.39
789.884	902.3
790.065	851.1
790.246	920.73
790.427	918.68
790.607	894.11
790.788	902.3
790.969	806.05
791.15	814.24
791.331	795.81
791.512	855.2
791.693	904.35
791.874	787.61
792.054	890.01
792.235	814.24
792.416	820.38
792.597	699.55
792.778	789.66
792.958	752.8
793.139	883.87
793.32	844.96
793.5	777.37
793.681	844.96
793.862	693.41
794.042	699.55
794.223	660.64
794.404	705.7
794.584	707.74
794.765	697.5
794.945	736.42
795.126	685.22
795.306	783.52
795.487	689.31
795.667	691.36
795.848	683.17
796.028	668.83
796.209	584.87
796.389	699.55
796.57	697.5
796.75	668.83
796.93	699.55
797.111	695.46
797.291	658.59
797.471	656.54
797.652	658.59
797.832	609.44
798.012	689.31
798.192	533.67
798.373	591.01
798.553	625.83
798.733	640.16
798.913	619.68
799.093	642.21
799.274	574.63
799.454	658.59
799.634	654.5
799.814	603.3
799.994	609.44
800.174	576.67
800.354	584.87
800.534	554.15
800.714	599.2
800.894	554.15
801.074	545.95
801.254	597.15
801.434	574.63
801.614	478.37
801.794	574.63
801.974	1227.93
802.154	603.3
802.334	591.01
802.514	484.52
802.693	539.81
802.873	537.76
803.053	566.43
803.233	566.43
803.413	396.45
803.592	451.75
803.772	486.56
803.952	535.71
804.131	414.88
804.311	517.28
804.491	502.95
804.67	400.55
804.85	435.36
805.03	582.82
805.209	529.57
805.389	490.66
805.568	474.28
805.748	535.71
805.928	482.47
806.107	406.69
806.287	494.76
806.466	513.19
806.646	453.8
806.825	466.08
807.004	466.08
807.184	490.66
807.363	513.19
807.543	476.32
807.722	449.7
807.901	461.99
808.081	513.19
808.26	394.4
808.439	451.75
808.619	484.52
808.798	392.36
808.977	429.22
809.156	457.89
809.336	402.6
809.515	482.47
809.694	414.88
809.873	418.98
810.052	488.61
810.231	421.03
810.411	388.26
810.59	427.17
810.769	410.79
810.948	445.6
811.127	386.21
811.306	388.26
811.485	412.84
811.664	421.03
811.843	369.83
812.022	337.06
812.201	318.63
812.38	382.12
812.559	392.36
812.737	371.88
812.916	380.07
813.095	388.26
813.274	351.4
813.453	289.96
813.632	404.64
813.811	451.75
813.989	390.31
814.168	281.77
814.347	322.73
814.526	283.81
814.704	451.75
814.883	386.21
815.062	273.57
815.24	328.87
815.419	326.82
815.598	373.92
815.776	281.77
815.955	306.34
816.133	285.86
816.312	267.43
816.49	298.15
816.669	279.72
816.847	298.15
817.026	320.68
817.204	355.49
817.383	310.44
817.561	265.38
817.74	320.68
817.918	281.77
818.097	226.47
818.275	253.09
818.453	242.85
818.632	222.38
818.81	337.06
818.988	236.71
819.167	312.49
819.345	353.45
819.523	306.34
819.701	273.57
819.879	318.63
820.058	380.07
820.236	320.68
820.414	285.86
820.592	322.73
820.77	214.18
820.948	230.57
821.127	322.73
821.305	240.81
821.483	306.34
821.661	265.38
821.839	289.96
822.017	306.34
822.195	222.38
822.373	353.45
822.551	220.33
822.729	232.62
822.907	224.42
823.085	269.48
823.262	173.22
823.44	306.34
823.618	310.44
823.796	322.73
823.974	263.33
824.152	312.49
824.329	287.91
824.507	332.97
824.685	281.77
824.863	214.18
825.04	275.62
825.218	271.53
825.396	283.81
825.574	287.91
825.751	273.57
825.929	216.23
826.107	216.23
826.284	212.14
826.462	205.99
826.639	205.99
826.817	232.62
826.994	144.55
827.172	191.66
827.349	298.15
827.527	220.33
827.704	296.1
827.882	257.19
828.059	222.38
828.237	226.47
828.414	179.37
828.591	205.99
828.769	214.18
828.946	214.18
829.124	218.28
829.301	240.81
829.478	165.03
829.655	199.85
829.833	138.41
830.01	175.27
830.187	230.57
830.364	140.46
830.542	232.62
830.719	306.34
830.896	230.57
831.073	212.14
831.25	208.04
831.427	249
831.604	195.75
831.782	85.16
831.959	240.81
832.136	230.57
832.313	177.32
832.49	171.18
832.667	187.56
832.844	160.94
833.021	187.56
833.198	191.66
833.374	169.13
833.551	197.8
833.728	154.79
833.905	165.03
834.082	175.27
834.259	199.85
834.436	167.08
834.612	126.12
834.789	185.51
834.966	181.42
835.143	142.5
835.319	224.42
835.496	197.8
835.673	255.14
835.85	193.7
836.026	181.42
836.203	140.46
836.38	162.98
836.556	126.12
836.733	136.36
836.909	228.52
837.086	154.79
837.262	48.3
837.439	132.26
837.616	130.22
837.792	109.74
837.968	134.31
838.145	76.97
838.321	220.33
838.498	154.79
838.674	162.98
838.851	175.27
839.027	130.22
839.203	109.74
839.38	154.79
839.556	148.65
839.732	126.12
839.909	205.99
840.085	140.46
840.261	44.2
840.437	142.5
840.614	220.33
840.79	165.03
840.966	126.12
841.142	91.31
841.318	130.22
841.494	119.98
841.671	122.02
841.847	154.79
842.023	165.03
842.199	165.03
842.375	111.78
842.551	11.43
842.727	212.14
842.903	175.27
843.079	60.59
843.255	140.46
843.431	113.83
843.607	150.7
843.783	-19.29
843.959	146.6
844.134	66.73
844.31	134.31
844.486	117.93
844.662	113.83
844.838	91.31
845.013	162.98
845.189	99.5
845.365	130.22
845.541	107.69
845.716	148.65
845.892	167.08
846.068	97.45
846.244	64.68
846.419	154.79
846.595	5.29
846.77	62.63
846.946	89.26
847.122	130.22
847.297	99.5
847.473	193.7
847.648	74.92
847.824	154.79
847.999	25.77
848.175	91.31
848.35	85.16
848.526	146.6
848.701	85.16
848.876	160.94
849.052	85.16
849.227	-21.33
849.403	113.83
849.578	158.89
849.753	124.07
849.929	56.49
850.104	36.01
850.279	117.93
850.454	101.55
850.63	154.79
850.805	117.93
850.98	93.35
851.155	87.21
851.33	165.03
851.505	115.88
851.681	154.79
851.856	85.16
852.031	103.59
852.206	111.78
852.381	52.39
852.556	105.64
852.731	144.55
852.906	93.35
853.081	44.2
853.256	113.83
853.431	85.16
853.606	152.74
853.781	5.29
853.956	23.72
854.131	93.35
854.305	109.74
854.48	85.16
854.655	64.68
854.83	-4.95
855.005	93.35
855.18	5.29
855.354	83.11
855.529	54.44
855.704	111.78
855.879	128.17
856.053	40.11
856.228	36.01
856.403	83.11
856.577	36.01
856.752	31.91
856.926	107.69
857.101	85.16
857.276	3.24
857.45	107.69
857.625	117.93
857.799	52.39
857.974	126.12
858.148	128.17
858.323	19.63
858.497	42.15
858.672	52.39
858.846	27.82
859.02	154.79
859.195	-47.96
859.369	79.02
859.543	74.92
859.718	60.59
859.892	60.59
860.066	81.07
860.241	54.44
860.415	31.91
860.589	-13.14
860.763	68.78
860.938	-17.24
861.112	87.21
861.286	46.25
861.46	74.92
861.634	38.06
861.808	138.41
861.982	-64.34
862.157	25.77
862.331	-7
862.505	7.34
862.679	-41.81
862.853	56.49
863.027	42.15
863.201	179.37
863.375	17.58
863.549	66.73
863.722	42.15
863.896	109.74
864.07	33.96
864.244	64.68
864.418	36.01
864.592	1.19
864.766	11.43
864.939	89.26
865.113	-4.95
865.287	99.5
865.461	-11.09
865.634	140.46
865.808	105.64
865.982	31.91
866.156	40.11
866.329	-29.52
866.503	122.02
866.676	44.2
866.85	23.72
867.024	68.78
867.197	60.59
867.371	68.78
867.544	40.11
867.718	87.21
867.891	79.02
868.065	7.34
868.238	17.58
868.412	99.5
868.585	27.82
868.759	48.3
868.932	52.39
869.105	19.63
869.279	5.29
869.452	56.49
869.625	48.3
869.799	74.92
869.972	-4.95
870.145	-19.29
870.319	42.15
870.492	40.11
870.665	31.91
870.838	-27.48
871.011	7.34
871.185	99.5
871.358	11.43
871.531	25.77
871.704	44.2
871.877	-19.29
872.05	60.59
872.223	-31.57
872.396	56.49
872.569	15.53
872.742	19.63
872.915	101.55
873.088	25.77
873.261	25.77
873.434	42.15
873.607	-25.43
873.78	76.97
873.953	-47.96
874.126	81.07
874.299	46.25
874.471	-29.52
874.644	29.87
874.817	-9.05
874.99	117.93
875.163	62.63
875.335	17.58
875.508	36.01
875.681	58.54
875.853	25.77
876.026	-66.39
876.199	-13.14
876.371	60.59
876.544	33.96
876.717	48.3
876.889	-37.72
877.062	1.19
877.234	9.39
877.407	60.59
877.579	-58.2
877.752	-9.05
877.924	7.34
878.097	27.82
878.269	60.59
878.442	3.24
878.614	-13.14
878.786	64.68
878.959	3.24
879.131	99.5
879.303	-29.52
879.476	-11.09
879.648	105.64
879.82	-0.85
879.993	72.87
880.165	23.72
880.337	-7
880.509	58.54
880.681	-4.95
880.854	33.96
881.026	40.11
881.198	76.97
881.37	11.43
881.542	-9.05
881.714	1.19
881.886	-2.9
882.058	5.29
882.23	-25.43
882.402	83.11
882.574	87.21
882.746	52.39
882.918	33.96
883.09	44.2
883.262	58.54
883.434	64.68
883.606	-19.29
883.778	23.72
883.95	76.97
884.122	111.78
884.293	138.41
884.465	23.72
884.637	3.24
884.809	46.25
884.98	27.82
885.152	-4.95
885.324	79.02
885.496	36.01
885.667	9.39
885.839	9.39
886.011	52.39
886.182	81.07
886.354	9.39
886.525	113.83
886.697	-33.62
886.869	-19.29
887.04	-4.95
887.212	36.01
887.383	68.78
887.555	-0.85
887.726	74.92
887.897	-4.95
888.069	48.3
888.24	58.54
888.412	23.72
888.583	-17.24
888.754	42.15
888.926	44.2
889.097	11.43
889.268	-66.39
889.44	50.35
889.611	-25.43
889.782	-64.34
889.953	64.68
890.125	64.68
890.296	83.11
890.467	-23.38
890.638	23.72
890.809	9.39
890.98	-31.57
891.151	44.2
891.323	58.54
891.494	134.31
891.665	19.63
891.836	64.68
892.007	-80.72
892.178	-7
892.349	-33.62
892.52	5.29
892.691	-27.48
892.862	23.72
893.032	3.24
893.203	5.29
893.374	-0.85
893.545	60.59
893.716	36.01
893.887	70.83
894.057	-9.05
894.228	36.01
894.399	-50
894.57	-37.72
894.74	3.24
894.911	130.22
895.082	74.92
895.253	68.78
895.423	-39.76
895.594	29.87
895.764	-43.86
895.935	27.82
896.106	9.39
896.276	-37.72
896.447	-4.95
896.617	-11.09
896.788	-33.62
896.958	-27.48
897.129	-11.09
897.299	-86.87
897.47	-33.62
897.64	27.82
897.81	29.87
897.981	44.2
898.151	19.63
898.322	85.16
898.492	36.01
898.662	-15.19
898.832	-54.1
899.003	19.63
899.173	46.25
899.343	-7
899.513	25.77
