Data from USB4F104151__24__11-29-55-816.txt Node

Date: Fri Mar 14 11:29:55 EDT 2025
User: louis
Spectrometer: USB4F10415
Trigger mode: 4
Integration Time (sec): 5.000000E-2
Scans to average: 1
Electric dark correction enabled: true
Nonlinearity correction enabled: false
Boxcar width: 0
XAxis mode: Wavelengths
Number of Pixels in Spectrum: 3648
>>>>>Begin Spectral Data<<<<<
178.204	-146.94
178.424	-146.94
178.644	-146.94
178.864	-132.61
179.084	-146.94
179.304	-9.73
179.524	-24.06
179.744	25.09
179.964	39.42
180.184	29.18
180.404	14.85
180.624	4.61
180.844	10.75
181.064	-46.59
181.283	-9.73
181.503	-52.74
181.723	18.94
181.943	-112.13
182.163	88.57
182.383	49.66
182.602	6.66
182.822	72.19
183.042	23.04
183.262	-9.73
183.482	16.9
183.701	12.8
183.921	57.86
184.141	-30.21
184.361	20.99
184.58	-17.92
184.8	51.71
185.02	-9.73
185.239	100.86
185.459	94.72
185.679	47.62
185.898	-3.58
186.118	59.9
186.338	31.23
186.557	88.57
186.777	-42.5
186.997	80.38
187.216	53.76
187.436	27.14
187.655	92.67
187.875	-26.11
188.095	-1.54
188.314	53.76
188.534	23.04
188.753	6.66
188.973	-19.97
189.192	55.81
189.412	41.47
189.631	37.38
189.851	84.48
190.07	96.77
190.29	-9.73
190.509	16.9
190.729	-36.35
190.948	47.62
191.168	129.53
191.387	51.71
191.607	31.23
191.826	47.62
192.045	-7.68
192.265	14.85
192.484	-58.88
192.704	45.57
192.923	-26.11
193.142	78.33
193.362	27.14
193.581	12.8
193.8	47.62
194.02	61.95
194.239	-9.73
194.458	-83.45
194.678	20.99
194.897	51.71
195.116	45.57
195.335	51.71
195.555	-1.54
195.774	23.04
195.993	61.95
196.212	-7.68
196.432	14.85
196.651	18.94
196.87	51.71
197.089	55.81
197.308	55.81
197.528	76.29
197.747	-60.93
197.966	66.05
198.185	41.47
198.404	82.43
198.623	80.38
198.842	66.05
199.062	72.19
199.281	29.18
199.5	8.7
199.719	-1.54
199.938	10.75
200.157	51.71
200.376	18.94
200.595	14.85
200.814	70.14
201.033	2.56
201.252	35.33
201.471	61.95
201.69	-22.02
201.909	18.94
202.128	37.38
202.347	10.75
202.566	39.42
202.785	0.51
203.004	-67.07
203.223	137.73
203.442	10.75
203.661	27.14
203.879	64
204.098	102.91
204.317	-5.63
204.536	14.85
204.755	-34.3
204.974	53.76
205.193	53.76
205.411	88.57
205.63	18.94
205.849	6.66
206.068	78.33
206.287	35.33
206.505	-22.02
206.724	-7.68
206.943	-17.92
207.162	-5.63
207.381	23.04
207.599	-3.58
207.818	61.95
208.037	-9.73
208.255	-11.78
208.474	-5.63
208.693	47.62
208.911	45.57
209.13	70.14
209.349	6.66
209.567	47.62
209.786	-11.78
210.005	2.56
210.223	-38.4
210.442	-9.73
210.661	68.09
210.879	55.81
211.098	39.42
211.316	37.38
211.535	72.19
211.753	109.05
211.972	-13.82
212.191	64
212.409	-13.82
212.628	27.14
212.846	-5.63
213.065	35.33
213.283	74.24
213.502	-26.11
213.72	-28.16
213.938	10.75
214.157	51.71
214.375	-1.54
214.594	10.75
214.812	-26.11
215.031	31.23
215.249	14.85
215.467	-13.82
215.686	23.04
215.904	6.66
216.122	-1.54
216.341	47.62
216.559	51.71
216.778	-17.92
216.996	39.42
217.214	41.47
217.432	31.23
217.651	8.7
217.869	51.71
218.087	16.9
218.306	-17.92
218.524	14.85
218.742	2.56
218.96	104.96
219.179	-30.21
219.397	-19.97
219.615	64
219.833	-17.92
220.051	-11.78
220.27	80.38
220.488	-1.54
220.706	16.9
220.924	-26.11
221.142	39.42
221.36	45.57
221.578	39.42
221.796	-3.58
222.015	104.96
222.233	2.56
222.451	29.18
222.669	39.42
222.887	64
223.105	12.8
223.323	-22.02
223.541	35.33
223.759	76.29
223.977	86.53
224.195	35.33
224.413	61.95
224.631	57.86
224.849	23.04
225.067	66.05
225.285	14.85
225.503	-3.58
225.721	-26.11
225.939	88.57
226.157	-36.35
226.375	88.57
226.592	12.8
226.81	-69.12
227.028	84.48
227.246	10.75
227.464	59.9
227.682	-19.97
227.9	45.57
228.117	129.53
228.335	-1.54
228.553	152.06
228.771	61.95
228.989	18.94
229.206	4.61
229.424	-60.93
229.642	20.99
229.86	84.48
230.077	31.23
230.295	-26.11
230.513	12.8
230.731	96.77
230.948	80.38
231.166	31.23
231.384	39.42
231.601	20.99
231.819	72.19
232.037	113.15
232.254	-32.26
232.472	53.76
232.689	-17.92
232.907	43.52
233.125	66.05
233.342	-22.02
233.56	25.09
233.777	2.56
233.995	88.57
234.213	27.14
234.43	80.38
234.648	16.9
234.865	12.8
235.083	33.28
235.3	-42.5
235.518	14.85
235.735	61.95
235.953	-11.78
236.17	53.76
236.388	4.61
236.605	0.51
236.822	94.72
237.04	127.49
237.257	53.76
237.475	27.14
237.692	18.94
237.909	-7.68
238.127	-9.73
238.344	20.99
238.562	96.77
238.779	12.8
238.996	33.28
239.214	47.62
239.431	68.09
239.648	-26.11
239.865	51.71
240.083	59.9
240.3	14.85
240.517	-38.4
240.735	23.04
240.952	72.19
241.169	8.7
241.386	23.04
241.603	16.9
241.821	-9.73
242.038	43.52
242.255	98.81
242.472	6.66
242.689	45.57
242.907	43.52
243.124	-5.63
243.341	104.96
243.558	20.99
243.775	27.14
243.992	-22.02
244.209	47.62
244.426	82.43
244.643	2.56
244.86	-26.11
245.078	18.94
245.295	-34.3
245.512	31.23
245.729	-58.88
245.946	70.14
246.163	12.8
246.38	59.9
246.597	68.09
246.814	8.7
247.031	12.8
247.248	-22.02
247.464	31.23
247.681	-3.58
247.898	117.25
248.115	35.33
248.332	74.24
248.549	143.87
248.766	78.33
248.983	88.57
249.2	-9.73
249.417	-5.63
249.633	-5.63
249.85	72.19
250.067	55.81
250.284	-1.54
250.501	70.14
250.717	57.86
250.934	4.61
251.151	45.57
251.368	70.14
251.585	12.8
251.801	6.66
252.018	-30.21
252.235	59.9
252.451	-52.74
252.668	-13.82
252.885	20.99
253.102	-44.54
253.318	66.05
253.535	-30.21
253.752	4.61
253.968	-3.58
254.185	-9.73
254.401	-42.5
254.618	119.29
254.835	-17.92
255.051	61.95
255.268	39.42
255.484	82.43
255.701	111.1
255.917	43.52
256.134	-77.31
256.351	72.19
256.567	8.7
256.784	23.04
257	0.51
257.217	12.8
257.433	100.86
257.65	68.09
257.866	47.62
258.082	-38.4
258.299	39.42
258.515	43.52
258.732	-71.17
258.948	6.66
259.165	47.62
259.381	18.94
259.597	23.04
259.814	-7.68
260.03	39.42
260.246	-5.63
260.463	27.14
260.679	16.9
260.895	92.67
261.112	121.34
261.328	80.38
261.544	-3.58
261.761	123.39
261.977	-28.16
262.193	14.85
262.409	33.28
262.626	68.09
262.842	55.81
263.058	18.94
263.274	72.19
263.49	137.73
263.707	78.33
263.923	64
264.139	-44.54
264.355	72.19
264.571	43.52
264.787	68.09
265.004	47.62
265.22	64
265.436	6.66
265.652	31.23
265.868	39.42
266.084	-11.78
266.3	-28.16
266.516	-52.74
266.732	-42.5
266.948	45.57
267.164	45.57
267.38	23.04
267.596	6.66
267.812	80.38
268.028	37.38
268.244	6.66
268.46	-17.92
268.676	-11.78
268.892	90.62
269.108	-34.3
269.324	-46.59
269.54	-1.54
269.756	76.29
269.972	-19.97
270.188	-24.06
270.403	-5.63
270.619	2.56
270.835	-1.54
271.051	14.85
271.267	-52.74
271.483	70.14
271.698	53.76
271.914	64
272.13	35.33
272.346	80.38
272.562	39.42
272.777	68.09
272.993	18.94
273.209	6.66
273.425	51.71
273.64	-17.92
273.856	90.62
274.072	-50.69
274.287	-13.82
274.503	31.23
274.719	66.05
274.934	23.04
275.15	-19.97
275.366	31.23
275.581	37.38
275.797	18.94
276.012	53.76
276.228	76.29
276.444	20.99
276.659	47.62
276.875	-1.54
277.09	-5.63
277.306	-24.06
277.521	-5.63
277.737	64
277.952	94.72
278.168	8.7
278.383	55.81
278.599	61.95
278.814	96.77
279.03	-1.54
279.245	113.15
279.461	80.38
279.676	25.09
279.892	31.23
280.107	12.8
280.322	-19.97
280.538	57.86
280.753	41.47
280.969	2.56
281.184	-1.54
281.399	121.34
281.615	55.81
281.83	64
282.045	14.85
282.26	-1.54
282.476	92.67
282.691	59.9
282.906	-7.68
283.122	64
283.337	-28.16
283.552	45.57
283.767	-17.92
283.983	96.77
284.198	10.75
284.413	31.23
284.628	-17.92
284.843	35.33
285.058	51.71
285.274	-13.82
285.489	29.18
285.704	41.47
285.919	-24.06
286.134	51.71
286.349	-32.26
286.564	-1.54
286.779	39.42
286.995	66.05
287.21	-5.63
287.425	49.66
287.64	2.56
287.855	29.18
288.07	-24.06
288.285	27.14
288.5	2.56
288.715	-1.54
288.93	16.9
289.145	-58.88
289.36	-17.92
289.575	8.7
289.79	88.57
290.004	-42.5
290.219	88.57
290.434	-1.54
290.649	-19.97
290.864	43.52
291.079	90.62
291.294	96.77
291.509	-17.92
291.724	55.81
291.938	39.42
292.153	27.14
292.368	23.04
292.583	6.66
292.798	53.76
293.012	53.76
293.227	29.18
293.442	-28.16
293.657	29.18
293.871	78.33
294.086	14.85
294.301	59.9
294.516	8.7
294.73	20.99
294.945	-17.92
295.16	14.85
295.374	-9.73
295.589	47.62
295.804	23.04
296.018	-3.58
296.233	150.01
296.447	86.53
296.662	31.23
296.877	88.57
297.091	31.23
297.306	4.61
297.52	27.14
297.735	4.61
297.949	45.57
298.164	-5.63
298.378	-13.82
298.593	18.94
298.807	-48.64
299.022	72.19
299.236	51.71
299.451	-71.17
299.665	4.61
299.88	12.8
300.094	35.33
300.309	31.23
300.523	31.23
300.737	39.42
300.952	14.85
301.166	107.01
301.381	-17.92
301.595	-9.73
301.809	96.77
302.024	37.38
302.238	-67.07
302.452	-1.54
302.667	39.42
302.881	41.47
303.095	61.95
303.309	29.18
303.524	10.75
303.738	59.9
303.952	-3.58
304.166	41.47
304.381	-52.74
304.595	35.33
304.809	6.66
305.023	14.85
305.237	18.94
305.452	6.66
305.666	23.04
305.88	59.9
306.094	35.33
306.308	61.95
306.522	23.04
306.736	23.04
306.95	121.34
307.164	51.71
307.379	55.81
307.593	72.19
307.807	37.38
308.021	49.66
308.235	39.42
308.449	2.56
308.663	-7.68
308.877	94.72
309.091	72.19
309.305	107.01
309.519	-56.83
309.733	35.33
309.947	4.61
310.161	96.77
310.374	53.76
310.588	94.72
310.802	-62.98
311.016	14.85
311.23	88.57
311.444	29.18
311.658	12.8
311.872	39.42
312.085	47.62
312.299	35.33
312.513	72.19
312.727	53.76
312.941	-54.78
313.154	47.62
313.368	16.9
313.582	80.38
313.796	20.99
314.009	55.81
314.223	70.14
314.437	-5.63
314.651	6.66
314.864	72.19
315.078	41.47
315.292	64
315.505	27.14
315.719	78.33
315.933	39.42
316.146	-56.83
316.36	-60.93
316.573	61.95
316.787	-19.97
317.001	-1.54
317.214	6.66
317.428	2.56
317.641	-3.58
317.855	86.53
318.068	64
318.282	90.62
318.495	25.09
318.709	72.19
318.922	47.62
319.136	35.33
319.349	47.62
319.563	27.14
319.776	39.42
319.99	-48.64
320.203	27.14
320.417	-34.3
320.63	23.04
320.843	143.87
321.057	70.14
321.27	64
321.483	12.8
321.697	72.19
321.91	61.95
322.124	57.86
322.337	98.81
322.55	33.28
322.763	-24.06
322.977	20.99
323.19	2.56
323.403	78.33
323.617	39.42
323.83	88.57
324.043	96.77
324.256	84.48
324.469	25.09
324.683	20.99
324.896	29.18
325.109	43.52
325.322	31.23
325.535	113.15
325.748	-28.16
325.962	10.75
326.175	41.47
326.388	27.14
326.601	45.57
326.814	0.51
327.027	-22.02
327.24	139.77
327.453	-38.4
327.666	88.57
327.879	76.29
328.092	20.99
328.305	18.94
328.518	14.85
328.731	12.8
328.944	98.81
329.157	37.38
329.37	-11.78
329.583	109.05
329.796	88.57
330.009	-34.3
330.222	55.81
330.435	-62.98
330.648	14.85
330.861	18.94
331.073	23.04
331.286	47.62
331.499	76.29
331.712	76.29
331.925	-5.63
332.138	-34.3
332.35	94.72
332.563	-17.92
332.776	64
332.989	-38.4
333.202	104.96
333.414	-17.92
333.627	53.76
333.84	-34.3
334.053	14.85
334.265	-7.68
334.478	35.33
334.691	31.23
334.903	127.49
335.116	10.75
335.329	51.71
335.541	55.81
335.754	119.29
335.966	39.42
336.179	23.04
336.392	-34.3
336.604	14.85
336.817	27.14
337.029	31.23
337.242	-5.63
337.454	80.38
337.667	-9.73
337.88	27.14
338.092	82.43
338.305	55.81
338.517	-1.54
338.729	-13.82
338.942	-50.69
339.154	31.23
339.367	23.04
339.579	31.23
339.792	37.38
340.004	182.78
340.217	-3.58
340.429	12.8
340.641	64
340.854	12.8
341.066	23.04
341.278	31.23
341.491	80.38
341.703	23.04
341.915	31.23
342.128	119.29
342.34	-71.17
342.552	66.05
342.764	31.23
342.977	29.18
343.189	96.77
343.401	39.42
343.613	-11.78
343.826	47.62
344.038	-24.06
344.25	47.62
344.462	-17.92
344.674	10.75
344.886	-93.69
345.099	14.85
345.311	-15.87
345.523	-58.88
345.735	14.85
345.947	68.09
346.159	-50.69
346.371	31.23
346.583	35.33
346.795	92.67
347.007	-26.11
347.219	43.52
347.431	-1.54
347.643	14.85
347.855	64
348.067	23.04
348.279	-1.54
348.491	2.56
348.703	39.42
348.915	35.33
349.127	80.38
349.339	14.85
349.551	-17.92
349.763	66.05
349.975	76.29
350.187	84.48
350.399	84.48
350.61	47.62
350.822	23.04
351.034	-13.82
351.246	14.85
351.458	82.43
351.669	2.56
351.881	55.81
352.093	33.28
352.305	133.63
352.517	111.1
352.728	45.57
352.94	68.09
353.152	10.75
353.363	20.99
353.575	47.62
353.787	49.66
353.999	-5.63
354.21	76.29
354.422	39.42
354.633	-17.92
354.845	-5.63
355.057	53.76
355.268	45.57
355.48	78.33
355.692	-28.16
355.903	-30.21
356.115	-32.26
356.326	31.23
356.538	6.66
356.749	102.91
356.961	64
357.172	55.81
357.384	35.33
357.595	121.34
357.807	82.43
358.018	6.66
358.23	45.57
358.441	109.05
358.653	53.76
358.864	-11.78
359.075	14.85
359.287	39.42
359.498	90.62
359.709	23.04
359.921	12.8
360.132	31.23
360.344	88.57
360.555	61.95
360.766	76.29
360.977	-1.54
361.189	47.62
361.4	39.42
361.611	121.34
361.823	94.72
362.034	49.66
362.245	70.14
362.456	-28.16
362.667	100.86
362.879	33.28
363.09	53.76
363.301	64
363.512	14.85
363.723	47.62
363.935	35.33
364.146	121.34
364.357	6.66
364.568	41.47
364.779	-9.73
364.99	55.81
365.201	29.18
365.412	64
365.623	-11.78
365.834	51.71
366.045	51.71
366.256	96.77
366.467	86.53
366.678	-5.63
366.889	33.28
367.1	86.53
367.311	20.99
367.522	39.42
367.733	23.04
367.944	84.48
368.155	18.94
368.366	170.49
368.577	98.81
368.788	117.25
368.999	35.33
369.209	147.97
369.42	74.24
369.631	113.15
369.842	86.53
370.053	8.7
370.264	59.9
370.474	-28.16
370.685	55.81
370.896	74.24
371.107	137.73
371.317	23.04
371.528	59.9
371.739	100.86
371.95	25.09
372.16	80.38
372.371	37.38
372.582	61.95
372.792	113.15
373.003	53.76
373.214	80.38
373.424	72.19
373.635	55.81
373.846	6.66
374.056	-9.73
374.267	64
374.477	80.38
374.688	72.19
374.898	35.33
375.109	68.09
375.319	55.81
375.53	84.48
375.74	6.66
375.951	64
376.161	137.73
376.372	72.19
376.582	102.91
376.793	35.33
377.003	43.52
377.214	-9.73
377.424	55.81
377.635	53.76
377.845	14.85
378.055	20.99
378.266	-50.69
378.476	72.19
378.686	2.56
378.897	86.53
379.107	2.56
379.317	70.14
379.528	-34.3
379.738	96.77
379.948	-3.58
380.158	113.15
380.369	70.14
380.579	-19.97
380.789	88.57
380.999	29.18
381.21	53.76
381.42	162.3
381.63	-50.69
381.84	-9.73
382.05	104.96
382.261	174.59
382.471	53.76
382.681	70.14
382.891	107.01
383.101	37.38
383.311	-9.73
383.521	-22.02
383.731	64
383.941	47.62
384.151	64
384.361	45.57
384.571	102.91
384.781	92.67
384.991	92.67
385.201	39.42
385.411	-34.3
385.621	2.56
385.831	90.62
386.041	18.94
386.251	-42.5
386.461	68.09
386.671	45.57
386.881	129.53
387.091	33.28
387.301	92.67
387.511	78.33
387.72	100.86
387.93	23.04
388.14	23.04
388.35	0.51
388.56	27.14
388.769	96.77
388.979	78.33
389.189	29.18
389.399	47.62
389.609	25.09
389.818	31.23
390.028	61.95
390.238	61.95
390.447	4.61
390.657	53.76
390.867	78.33
391.076	78.33
391.286	53.76
391.496	14.85
391.705	-28.16
391.915	84.48
392.125	127.49
392.334	100.86
392.544	160.25
392.753	-13.82
392.963	80.38
393.172	72.19
393.382	45.57
393.591	154.11
393.801	-26.11
394.01	107.01
394.22	96.77
394.429	47.62
394.639	84.48
394.848	113.15
395.058	94.72
395.267	31.23
395.477	16.9
395.686	84.48
395.895	96.77
396.105	127.49
396.314	80.38
396.524	20.99
396.733	70.14
396.942	94.72
397.152	178.69
397.361	66.05
397.57	152.06
397.78	94.72
397.989	121.34
398.198	141.82
398.407	78.33
398.617	80.38
398.826	78.33
399.035	76.29
399.244	111.1
399.453	143.87
399.663	168.45
399.872	43.52
400.081	121.34
400.29	195.07
400.499	119.29
400.708	174.59
400.917	88.57
401.127	53.76
401.336	35.33
401.545	170.49
401.754	107.01
401.963	115.2
402.172	141.82
402.381	139.77
402.59	125.44
402.799	152.06
403.008	141.82
403.217	123.39
403.426	129.53
403.635	55.81
403.844	135.68
404.053	139.77
404.262	133.63
404.471	211.45
404.68	162.3
404.888	47.62
405.097	109.05
405.306	133.63
405.515	158.21
405.724	160.25
405.933	88.57
406.142	195.07
406.35	164.35
406.559	168.45
406.768	119.29
406.977	264.7
407.185	201.21
407.394	160.25
407.603	182.78
407.812	193.02
408.02	264.7
408.229	217.6
408.438	244.22
408.646	227.84
408.855	158.21
409.064	285.18
409.272	307.71
409.481	346.62
409.69	248.32
409.898	272.89
410.107	276.99
410.315	356.86
410.524	334.33
410.733	344.57
410.941	315.9
411.15	358.91
411.358	299.52
411.567	387.58
411.775	387.58
411.984	352.76
412.192	406.01
412.401	416.25
412.609	508.41
412.818	524.79
413.026	461.3
413.234	457.21
413.443	444.92
413.651	432.63
413.86	449.02
414.068	694.77
414.276	596.47
414.485	584.18
414.693	668.15
414.901	723.44
415.11	635.38
415.318	653.81
415.526	686.58
415.734	768.5
415.943	715.25
416.151	727.54
416.359	799.22
416.567	883.19
416.776	936.43
416.984	989.68
417.192	924.15
417.4	1014.26
417.608	989.68
417.817	936.43
418.025	1116.65
418.233	1165.81
418.441	1077.74
418.649	1145.33
418.857	1317.36
419.065	1341.93
419.273	1317.36
419.481	1333.74
419.689	1442.28
419.897	1456.62
420.105	1405.42
420.313	1499.63
420.521	1708.52
420.729	1622.5
420.937	1700.33
421.145	1685.99
421.353	1792.48
421.561	1866.21
421.769	1954.27
421.977	2075.1
422.185	2081.25
422.393	2146.78
422.601	2267.61
422.809	2128.35
423.017	2259.42
423.224	2292.19
423.432	2597.34
423.64	2439.64
423.848	2693.59
424.056	2599.38
424.263	2789.85
424.471	2767.32
424.679	2867.67
424.887	2922.96
425.094	3101.14
425.302	3103.18
425.51	3158.48
425.718	3328.46
425.925	3398.09
426.133	3617.22
426.341	3746.25
426.548	3862.98
426.756	3742.15
426.964	3983.81
427.171	4094.4
427.379	4116.93
427.586	4467.13
427.794	4469.18
428.001	4587.96
428.209	4803
428.417	4673.98
428.624	5126.58
428.832	5112.24
429.039	4962.74
429.247	5112.24
429.454	5568.94
429.662	5951.91
429.869	5613.99
430.076	5845.41
430.284	5751.21
430.491	6082.98
430.699	6484.38
430.906	6298.02
431.114	6556.06
431.321	6691.23
431.528	6828.44
431.736	7436.69
431.943	7704.97
432.15	7467.41
432.358	7545.23
432.565	7991.69
432.772	7776.65
432.979	8231.3
433.187	8425.86
433.394	8352.13
433.601	8896.89
433.808	9116.02
434.016	9193.84
434.223	9427.31
434.43	9841
434.637	9677.16
434.844	10105.19
435.052	10647.9
435.259	10467.68
435.466	10541.41
435.673	10445.15
435.88	10932.57
436.087	11878.73
436.294	11518.29
436.501	11559.25
436.708	11895.11
436.915	11970.89
437.122	12529.98
437.329	12349.76
437.537	13054.26
437.743	13234.49
437.95	13207.86
438.157	13744.43
438.364	14303.53
438.571	14160.17
438.778	14295.33
438.985	15464.72
439.192	15083.8
439.399	15671.57
439.606	15118.62
439.813	16089.35
440.02	17066.24
440.227	16759.04
440.433	16417.03
440.64	17156.35
440.847	17135.87
441.054	17656.05
441.261	18530.53
441.467	18350.31
441.674	18663.65
441.881	19417.3
442.088	19470.55
442.294	19499.22
442.501	19917.01
442.708	20338.89
442.914	20994.24
443.121	21901.49
443.328	21160.13
443.534	22569.13
443.741	22300.84
443.948	21811.38
444.154	23644.31
444.361	23484.57
444.568	23431.32
444.774	23529.62
444.981	23933.07
445.187	24504.46
445.394	25585.79
445.6	25034.88
445.807	27084.9
446.013	26605.67
446.22	27152.48
446.426	27971.67
446.633	28047.44
446.839	29200.45
447.046	27744.34
447.252	29397.06
447.459	29399.1
447.665	29335.62
447.871	30519.34
448.078	32235.54
448.284	30511.15
448.491	31164.45
448.697	32309.27
448.903	32964.62
449.11	32618.51
449.316	32825.36
449.522	33095.69
449.728	33871.87
449.935	34217.97
450.141	33980.41
450.347	34658.29
450.553	33855.48
450.76	33966.07
450.966	35354.6
451.172	34826.22
451.378	35733.47
451.584	34854.89
451.791	35817.44
451.997	35731.42
452.203	36093.91
452.409	35680.22
452.615	36106.2
452.821	34689.01
453.027	34412.53
453.233	36118.49
453.44	34443.25
453.646	35178.47
453.852	35319.78
454.058	35741.66
454.264	34451.44
454.47	35164.14
454.676	34195.45
454.882	35518.43
455.088	32563.22
455.294	32645.13
455.5	33175.56
455.705	33939.45
455.911	32272.4
456.117	31731.74
456.323	31528.99
456.529	29612.09
456.735	30644.27
456.941	29640.76
457.147	29265.99
457.352	28442.7
457.558	28098.64
457.764	28467.28
457.97	27826.26
458.176	27332.7
458.381	27336.8
458.587	25870.45
458.793	25954.42
458.999	24352.91
459.204	26105.97
459.41	25305.21
459.616	23625.88
459.821	23601.3
460.027	23531.67
460.233	23017.63
460.438	22143.15
460.644	22288.56
460.85	21184.7
461.055	20920.51
461.261	20887.75
461.466	19656.92
461.672	18872.54
461.878	20003.02
462.083	18755.81
462.289	18387.18
462.494	18215.15
462.7	17301.75
462.905	16691.46
463.111	17365.24
463.316	17418.49
463.522	17240.31
463.727	17213.69
463.932	17043.71
464.138	16902.4
464.343	16955.65
464.549	16468.23
464.754	17049.85
464.959	16937.21
465.165	16652.55
465.37	16218.38
465.575	15778.06
465.781	16183.56
465.986	16513.28
466.191	15780.11
466.397	15608.08
466.602	14770.46
466.807	15384.85
467.012	15208.73
467.218	15276.31
467.423	15016.22
467.628	15186.2
467.833	15653.14
468.038	15180.06
468.244	14962.97
468.449	15374.61
468.654	14813.47
468.859	14833.95
469.064	14776.61
469.269	14174.5
469.474	14344.49
469.679	14502.18
469.885	14166.31
470.09	14025
470.295	13932.84
470.5	13807.92
470.705	13934.89
470.91	13533.49
471.115	13250.87
471.32	13730.09
471.525	13457.71
471.73	13457.71
471.935	13322.55
472.139	12847.42
472.344	12880.19
472.549	12882.24
472.754	12661.05
472.959	12323.14
473.164	12177.73
473.369	11968.84
473.574	12425.54
473.778	12378.44
473.983	12165.45
474.188	12050.76
474.393	11467.09
474.598	11499.86
474.802	11409.75
475.007	11372.88
475.212	11188.57
475.417	10887.51
475.621	10840.41
475.826	11039.06
476.031	10907.99
476.235	10377.57
476.44	10740.06
476.645	10498.4
476.849	10557.79
477.054	10434.91
477.259	10254.69
477.463	10365.28
477.668	10082.66
477.872	9996.65
478.077	9795.95
478.282	9750.89
478.486	9734.51
478.691	9683.31
478.895	9576.81
479.1	9466.22
479.304	9607.53
479.509	9171.32
479.713	9476.46
479.918	9427.31
480.122	9148.79
480.326	9238.9
480.531	9154.93
480.735	8923.51
480.94	8860.02
481.144	9277.81
481.348	8896.89
481.553	8862.07
481.757	8968.57
481.961	8784.25
482.166	8980.85
482.37	8939.9
482.574	8843.64
482.778	8776.06
482.983	8860.02
483.187	8718.71
483.391	8939.9
483.595	8581.5
483.8	8870.26
484.004	8763.77
484.208	8823.16
484.412	8857.98
484.616	8737.15
484.821	8823.16
485.025	8796.54
485.229	8943.99
485.433	8716.67
485.637	8722.81
485.841	8642.94
486.045	8788.35
486.249	8743.29
486.453	8618.36
486.657	8739.19
486.861	8860.02
487.065	8579.45
487.269	8657.28
487.473	8644.99
487.677	8909.18
487.881	8847.74
488.085	8690.04
488.289	8673.66
488.493	8808.83
488.697	8749.43
488.901	8868.22
489.105	8796.54
489.309	8898.94
489.512	9005.43
489.716	8872.31
489.92	8968.57
490.124	8888.7
490.328	9001.33
490.531	8808.83
490.735	9107.83
490.939	9181.56
491.143	9075.06
491.346	8980.85
491.55	8974.71
491.754	9415.02
491.958	9144.69
492.161	9193.84
492.365	9148.79
492.569	9222.52
492.772	9286
492.976	9161.08
493.18	9476.46
493.383	9609.58
493.587	9478.51
493.79	9587.05
493.994	9468.27
494.197	9656.68
494.401	9769.32
494.605	9539.95
494.808	9927.02
495.012	9898.34
495.215	9961.83
495.419	10027.37
495.622	9820.52
495.825	10060.13
496.029	10412.39
496.232	10416.48
496.436	10287.46
496.639	10580.32
496.843	10396
497.046	10723.68
497.249	10989.91
497.453	10783.07
497.656	11055.45
497.859	10940.76
498.063	11125.08
498.266	11514.19
498.469	11522.38
498.673	11518.29
498.876	11639.12
499.079	11798.86
499.282	11878.73
499.485	12013.9
499.689	12233.03
499.892	12302.66
500.095	12331.33
500.298	12611.9
500.501	12562.75
500.705	12966.2
500.908	13281.59
501.111	13039.93
501.314	13066.55
501.517	13326.64
501.72	13371.7
501.923	13513.01
502.126	13830.44
502.329	13951.28
502.532	14047.53
502.735	14082.35
502.938	14295.33
503.141	14469.41
503.344	14924.06
503.547	14666.02
503.75	14975.26
503.953	15022.36
504.156	15479.06
504.359	15368.47
504.562	15454.48
504.765	15972.62
504.968	16099.59
505.17	16118.03
505.373	16072.97
505.576	16476.42
505.779	16855.29
505.982	16630.02
506.185	16894.21
506.387	17053.95
506.59	17262.84
506.793	17514.74
506.996	17389.81
507.198	17901.81
507.401	18088.17
507.604	18014.45
507.807	18704.61
508.009	18297.06
508.212	18766.05
508.415	18880.74
508.617	19081.44
508.82	19146.97
509.022	19075.29
509.225	19790.03
509.428	19906.77
509.63	19988.69
509.833	20134.09
510.035	20580.55
510.238	20361.42
510.44	20871.36
510.643	21010.62
510.845	21147.84
511.048	21149.89
511.25	21215.42
511.453	21547.19
511.655	22311.08
511.858	21811.38
512.06	22333.61
512.262	22388.91
512.465	22399.15
512.667	22909.09
512.87	23271.58
513.072	23120.03
513.274	23306.4
513.477	23812.24
513.679	23810.2
513.881	24058
514.084	24369.29
514.286	24477.83
514.488	24387.72
514.69	25063.55
514.893	25303.17
515.095	25571.45
515.297	25970.8
515.499	25878.65
515.701	26126.45
515.904	26175.6
516.106	26290.29
516.308	26888.29
516.51	27238.5
516.712	26857.57
516.914	27447.39
517.116	27738.2
517.318	27920.47
517.52	27981.91
517.722	28227.67
517.925	28459.09
518.127	28862.54
518.329	29124.68
518.531	28926.02
518.733	29958.2
518.935	29902.9
519.136	29749.31
519.338	30380.08
519.54	30713.9
519.742	30908.46
519.944	30990.38
520.146	31569.95
520.348	31717.4
520.55	31819.8
520.752	31559.71
520.954	32708.62
521.155	32045.08
521.357	32802.83
521.559	32606.22
521.761	33333.25
521.963	33533.95
522.164	33746.94
522.366	33914.87
522.568	33792
522.77	34080.76
522.971	34858.99
523.173	34496.5
523.375	34875.37
523.576	34990.06
523.778	35194.85
523.98	35420.13
524.181	35842.01
524.383	35733.47
524.584	36259.8
524.786	36528.08
524.988	35833.82
525.189	36712.4
525.391	36949.96
525.592	37310.41
525.794	37482.44
525.995	37621.7
526.197	37535.68
526.398	37660.61
526.6	38297.53
526.801	38223.8
527.003	38145.98
527.204	38688.69
527.406	39092.14
527.607	38768.56
527.808	39215.02
528.01	38336.44
528.211	39366.57
528.412	40009.63
528.614	39491.49
528.815	39989.15
529.016	40222.62
529.218	39747.49
529.419	39866.27
529.62	40699.79
529.822	40069.02
530.023	40503.19
530.224	40335.26
530.425	40550.29
530.626	40460.18
530.828	40501.14
531.029	41467.78
531.23	40902.54
531.431	40877.97
531.632	41238.41
531.833	40990.61
532.035	41262.99
532.236	41136.01
532.437	41541.51
532.638	41488.26
532.839	41713.54
533.04	41791.36
533.241	41349
533.442	42422.14
533.643	41754.5
533.844	41500.55
534.045	42045.31
534.246	41555.85
534.447	42131.33
534.648	42061.69
534.849	42319.74
535.05	41959.3
535.251	42311.55
535.451	41938.82
535.652	42223.48
535.853	42102.65
536.054	42295.16
536.255	42561.4
536.456	41830.27
536.657	42667.89
536.857	42039.17
537.058	42340.22
537.259	42684.28
537.46	42409.85
537.66	42413.94
537.861	42278.78
538.062	42307.45
538.263	42311.55
538.463	42121.09
538.664	42270.59
538.865	42471.29
539.065	42567.54
539.266	42024.83
539.466	42745.72
539.667	42223.48
539.868	42749.81
540.068	42176.38
540.269	42221.44
540.469	42688.37
540.67	42016.64
540.87	42356.6
541.071	42700.66
541.271	42528.63
541.472	42231.68
541.672	42008.45
541.873	42112.89
542.073	41723.78
542.274	42737.52
542.474	42254.2
542.675	42119.04
542.875	42745.72
543.075	42782.58
543.276	41957.25
543.476	42833.78
543.676	42309.5
543.877	42690.42
544.077	42491.77
544.277	42035.07
544.478	42446.71
544.678	42616.69
544.878	42219.39
545.078	42428.28
545.279	42157.95
545.479	41936.77
545.679	42305.4
545.879	42299.26
546.079	42495.86
546.28	42467.19
546.48	41805.7
546.68	42467.19
546.88	42313.59
547.08	42491.77
547.28	42286.97
547.48	42178.43
547.68	42266.49
547.88	41777.03
548.081	42516.34
548.281	42340.22
548.481	42106.75
548.681	42299.26
548.881	42459
549.081	42073.98
549.28	42022.78
549.48	42024.83
549.68	42207.1
549.88	42303.35
550.08	42375.03
550.28	42262.4
550.48	41828.23
550.68	42313.59
550.88	41959.3
551.08	42428.28
551.279	42102.65
551.479	41729.92
551.679	41918.34
551.879	41871.23
552.079	42262.4
552.278	41904
552.478	41871.23
552.678	41797.51
552.878	42176.38
553.077	41854.85
553.277	41748.35
553.477	42186.62
553.676	41418.63
553.876	41574.28
554.076	41332.62
554.275	41705.35
554.475	41473.93
554.674	41701.25
554.874	41660.29
555.074	41334.67
555.273	41396.1
555.473	41428.87
555.672	41213.84
555.872	40992.65
556.071	41279.37
556.271	41312.14
556.47	41107.34
556.67	40634.26
556.869	41244.55
557.068	40957.84
557.268	41189.26
557.467	40515.48
557.667	40828.82
557.866	40648.6
558.065	40499.09
558.265	40435.61
558.464	40456.09
558.663	40984.46
558.863	40378.26
559.062	40794
559.261	40103.84
559.461	40578.96
559.66	39462.82
559.859	40081.31
560.058	39493.54
560.258	40054.68
560.457	39387.05
560.656	39866.27
560.855	39333.8
561.054	39667.62
561.253	39018.41
561.453	39810.98
561.652	39643.04
561.851	39440.29
562.05	39255.98
562.249	39165.87
562.448	39159.72
562.647	39284.65
562.846	38936.49
563.045	38959.02
563.244	38459.32
563.443	38830
563.642	38107.07
563.841	38236.09
564.04	38166.46
564.239	38313.91
564.438	37980.09
564.637	38053.82
564.836	38375.35
565.035	37578.69
565.234	37519.3
565.432	37455.81
565.631	37437.38
565.83	37447.62
566.029	37267.4
566.228	37363.65
566.427	37169.1
566.625	36779.98
566.824	36298.71
567.023	36954.06
567.222	36079.58
567.42	36751.31
567.619	36405.2
567.818	36573.14
568.016	36446.16
568.215	36085.72
568.414	35733.47
568.612	36327.38
568.811	35565.54
569.01	35891.16
569.208	35231.72
569.407	35516.39
569.605	34990.06
569.804	35416.04
570.002	34799.6
570.201	35297.25
570.4	34613.23
570.598	34619.38
570.797	34615.28
570.995	34590.7
571.193	34146.29
571.392	34705.39
571.59	34105.34
571.789	34256.89
571.987	33961.98
572.186	34199.54
572.384	33925.11
572.582	34101.24
572.781	33783.8
572.979	33280
573.177	33239.04
573.376	33622.01
573.574	33284.1
573.772	33525.76
573.971	33032.2
574.169	32890.89
574.367	32522.26
574.565	32888.84
574.763	32495.63
574.962	32595.98
575.16	32288.79
575.358	32108.57
575.556	31887.39
575.754	32743.44
575.952	31991.83
576.151	32157.72
576.349	31703.07
576.547	31746.08
576.745	31756.32
576.943	31313.95
577.141	31690.78
577.339	31815.71
577.537	31627.29
577.735	31580.19
577.933	31086.63
578.131	31047.72
578.329	30756.91
578.527	30642.22
578.725	30793.77
578.923	30998.57
579.121	30711.85
579.319	30773.29
579.516	30523.44
579.714	30595.12
579.912	30378.03
580.11	30167.09
580.308	30048.31
580.506	30208.05
580.704	29370.43
580.901	29859.9
581.099	30218.29
581.297	29636.67
581.495	29370.43
581.692	29681.72
581.89	29450.3
582.088	29673.53
582.285	29114.44
582.483	29685.82
582.681	29444.16
582.878	29505.6
583.076	28919.88
583.274	29089.86
583.471	28756.04
583.669	28741.71
583.866	28729.42
584.064	28903.49
584.262	28442.7
584.459	28764.23
584.657	28362.83
584.854	28702.79
585.052	27732.06
585.249	28520.52
585.447	28293.2
585.644	27746.39
585.841	27951.19
586.039	28110.93
586.236	27572.32
586.434	27732.06
586.631	27449.44
586.828	27684.95
587.026	27297.89
587.223	27525.21
587.42	27099.23
587.618	27287.65
587.815	26972.26
588.012	27220.06
588.21	26886.25
588.407	27019.36
588.604	26865.77
588.801	26617.96
588.999	26245.23
589.196	26370.16
589.393	26642.54
589.59	26163.31
589.787	26212.46
589.984	26376.3
590.182	25913.46
590.379	26181.74
590.576	25981.04
590.773	26263.66
590.97	25712.76
591.167	26071.15
591.364	25348.22
591.561	25862.26
591.758	25669.75
591.955	25690.23
592.152	25616.51
592.349	25073.79
592.546	25424
592.743	25237.63
592.94	24838.28
593.137	24981.63
593.334	25014.4
593.531	24987.78
593.727	24856.71
593.924	24887.43
594.121	24469.64
594.318	24793.22
594.515	24385.68
594.712	24869
594.908	24709.25
595.105	24682.63
595.302	24103.06
595.499	24354.96
595.696	23896.21
595.892	23765.14
596.089	23890.07
596.286	23812.24
596.482	23912.6
596.679	23734.42
596.876	23779.48
597.072	23994.51
597.269	23623.83
597.466	23511.19
597.662	23351.45
597.859	23732.37
598.055	23220.38
598.252	23031.97
598.448	23171.23
598.645	22925.47
598.841	22585.51
599.038	22907.04
599.234	22831.27
599.431	22612.13
599.627	22569.13
599.824	22620.33
600.02	22429.87
600.217	22489.26
600.413	22499.5
600.609	22380.71
600.806	22489.26
601.002	21999.79
601.198	21983.41
601.395	21905.59
601.591	22030.51
601.787	21962.93
601.984	21924.02
602.18	21792.95
602.376	21391.55
602.572	21129.41
602.769	21692.6
602.965	21305.53
603.161	21317.82
603.357	21340.35
603.553	21145.79
603.75	21221.56
603.946	21029.06
604.142	21117.12
604.338	20938.94
604.534	20988.1
604.73	20560.07
604.926	20660.42
605.122	21053.63
605.318	20646.08
605.514	20441.29
605.71	20586.69
605.906	20332.75
606.102	20576.45
606.298	20371.66
606.494	20494.54
606.69	20314.31
606.886	20093.13
607.082	20086.99
607.278	20400.33
607.474	19886.29
607.67	20244.68
607.866	19851.47
608.062	19843.28
608.257	19783.89
608.453	19734.74
608.649	19820.75
608.845	19591.38
609.041	19601.62
609.236	19859.66
609.432	19810.51
609.628	19548.37
609.824	19747.03
610.019	19427.54
610.215	19484.89
610.411	19372.25
610.606	19263.71
610.802	19437.78
610.998	19319
611.193	19212.51
611.389	19046.62
611.584	19079.39
611.78	18954.46
611.976	18919.65
612.171	19011.81
612.367	19157.21
612.562	18675.94
612.758	18952.41
612.953	18770.15
613.149	19151.07
613.344	18809.06
613.539	18985.18
613.735	18811.1
613.93	18819.3
614.126	18770.15
614.321	18661.6
614.517	18491.62
614.712	18452.71
614.907	18411.75
615.103	18366.7
615.298	18116.84
615.493	18284.78
615.688	18036.97
615.884	18168.04
616.079	18057.45
616.274	18350.31
616.47	18012.4
616.665	18256.11
616.86	18211.05
617.055	17826.03
617.25	18018.54
617.445	18069.74
617.641	17701.11
617.836	17885.42
618.031	17570.04
618.226	17957.1
618.421	17559.8
618.616	17547.51
618.811	17221.88
619.006	17647.86
619.201	17318.14
619.396	17531.12
619.591	17058.04
619.786	17346.81
619.981	17027.32
620.176	17174.78
620.371	17168.63
620.566	16957.69
620.761	16847.1
620.956	17035.52
621.151	16498.95
621.346	16509.19
621.541	16120.07
621.735	16417.03
621.93	16161.03
622.125	16457.99
622.32	15884.56
622.515	16107.79
622.709	15993.1
622.904	16019.72
623.099	16019.72
623.294	15857.93
623.488	15589.65
623.683	15907.09
623.878	15485.2
624.072	15847.69
624.267	15548.69
624.462	15522.07
624.656	15040.79
624.851	15055.13
625.046	14983.45
625.24	15102.23
625.435	14766.37
625.629	14969.12
625.824	14741.79
626.018	14833.95
626.213	14430.5
626.407	14393.64
626.602	14414.12
626.796	14555.43
626.991	14551.33
627.185	14244.13
627.38	14094.63
627.574	14065.96
627.768	14010.67
627.963	13789.49
628.157	13764.91
628.352	13904.17
628.546	13629.74
628.74	13928.75
628.935	13576.5
629.129	13408.56
629.323	13324.6
629.517	13396.28
629.712	13175.09
629.906	13150.52
630.1	13013.31
630.294	13248.82
630.489	12953.91
630.683	13105.46
630.877	12894.52
631.071	12835.13
631.265	12702.01
631.459	12507.46
631.653	12607.81
631.848	12683.58
632.042	12661.05
632.236	12507.46
632.43	12286.28
632.624	12206.41
632.818	12308.8
633.012	12284.23
633.206	11843.92
633.4	12040.52
633.594	11663.69
633.788	12163.4
633.982	12089.67
634.176	11876.68
634.369	11532.62
634.563	11727.18
634.757	11622.73
634.951	11749.71
635.145	11585.87
635.339	11563.34
635.533	11438.42
635.726	11358.55
635.92	11450.71
636.114	11028.82
636.308	11270.48
636.501	11235.67
636.695	11024.73
636.889	10948.95
637.083	10940.76
637.276	10848.6
637.47	10756.44
637.664	10832.22
637.857	10703.2
638.051	11016.54
638.244	10357.09
638.438	10752.35
638.632	10584.41
638.825	10451.3
639.019	10590.56
639.212	10373.47
639.406	10221.92
639.599	10285.41
639.793	10207.59
639.986	10099.05
640.18	10082.66
640.373	10021.22
640.567	10008.94
640.76	9935.21
640.954	9849.19
641.147	9789.8
641.34	9779.56
641.534	9558.38
641.727	9587.05
641.92	9589.1
642.114	9494.9
642.307	9537.9
642.5	9388.4
642.694	9187.7
642.887	9296.24
643.08	9372.02
643.273	9181.56
643.467	9159.03
643.66	9169.27
643.853	8976.76
644.046	8763.77
644.239	8970.62
644.432	9025.91
644.626	8829.31
644.819	8743.29
645.012	8956.28
645.205	8888.7
645.398	8909.18
645.591	8647.04
645.784	8810.87
645.977	8534.4
646.17	8450.43
646.363	8452.48
646.556	8432
646.749	8608.12
646.942	8561.02
647.135	8452.48
647.328	8223.11
647.521	8298.88
647.714	8178.05
647.907	8247.68
648.099	8173.96
648.292	8229.25
648.485	8104.32
648.678	8075.65
648.871	7903.62
649.064	7879.05
649.256	7932.29
649.449	7760.27
649.642	7569.8
649.835	7602.57
650.027	7752.07
650.22	7819.66
650.413	7616.91
650.605	7645.58
650.798	7559.56
650.991	7621
651.183	7532.94
651.376	7575.95
651.568	7469.45
651.761	7436.69
651.954	7539.08
652.146	7477.65
652.339	7303.57
652.531	7240.08
652.724	7256.47
652.916	7104.92
653.109	7244.18
653.301	7252.37
653.494	7182.74
653.686	6979.99
653.879	7295.38
654.071	7106.96
654.263	7041.43
654.456	6920.6
654.648	6912.41
654.84	6828.44
655.033	6789.53
655.225	6961.56
655.417	6773.14
655.61	6836.63
655.802	6738.33
655.994	6723.99
656.186	6789.53
656.379	6490.52
656.571	6781.34
656.763	6607.26
656.955	6527.39
657.148	6642.07
657.34	6482.33
657.532	6420.89
657.724	6527.39
657.916	6424.99
658.108	6412.7
658.3	6457.76
658.492	6437.28
658.684	6318.5
658.876	6160.8
659.068	6267.3
659.26	6224.29
659.452	6142.37
659.644	6078.88
659.836	6027.68
660.028	6232.48
660.22	5927.33
660.412	6025.64
660.604	5986.72
660.796	6003.11
660.988	6011.3
661.18	6003.11
661.372	5890.47
661.563	6048.16
661.755	5927.33
661.947	5960.1
662.139	5841.32
662.331	5829.03
662.522	5683.63
662.714	5720.49
662.906	5757.35
663.097	5773.74
663.289	5773.74
663.481	5646.76
663.673	5730.73
663.864	5470.64
664.056	5497.26
664.247	5527.98
664.439	5507.5
664.631	5558.7
664.822	5560.75
665.014	5568.94
665.205	5446.06
665.397	5448.11
665.588	5577.13
665.78	5491.12
665.971	5497.26
666.163	5370.29
666.354	5437.87
666.546	5331.37
666.737	5431.73
666.929	5314.99
667.12	5353.9
667.311	5425.58
667.503	5349.81
667.694	5265.84
667.885	5335.47
668.077	5290.42
668.268	5206.45
668.459	5341.61
668.651	5216.69
668.842	5241.26
669.033	5198.26
669.224	5151.15
669.416	5341.61
669.607	5271.98
669.798	5216.69
669.989	5396.91
670.18	5085.62
670.371	5226.93
670.563	5118.39
670.754	5380.53
670.945	5040.56
671.136	5224.88
671.327	5179.82
671.518	5198.26
671.709	5282.22
671.9	5237.17
672.091	5212.59
672.282	5116.34
672.473	5130.67
672.664	5077.43
672.855	5130.67
673.046	5233.07
673.237	5192.11
673.428	5163.44
673.619	5171.63
673.809	5036.47
674	5073.33
674.191	5347.76
674.382	5083.57
674.573	5179.82
674.764	5185.97
674.954	5190.06
675.145	5114.29
675.336	5190.06
675.527	5161.39
675.717	5245.36
675.908	5149.11
676.099	5298.61
676.289	5142.96
676.48	5228.98
676.671	5204.4
676.861	5444.01
677.052	5192.11
677.243	5388.72
677.433	5278.13
677.624	5454.25
677.814	5292.46
678.005	5282.22
678.195	5331.37
678.386	5413.29
678.576	5200.3
678.767	5331.37
678.957	5372.33
679.148	5321.13
679.338	5351.85
679.529	5515.69
679.719	5349.81
679.909	5558.7
680.1	5249.46
680.29	5329.33
680.481	5480.88
680.671	5499.31
680.861	5665.19
681.052	5646.76
681.242	5628.33
681.432	5724.58
681.622	5345.71
681.813	5577.13
682.003	5544.36
682.193	5511.6
682.383	5724.58
682.573	5523.88
682.764	5738.92
682.954	5632.43
683.144	5587.37
683.334	5501.36
683.524	5648.81
683.714	5671.34
683.904	5597.61
684.094	5747.11
684.284	5509.55
684.474	5589.42
684.664	5503.4
684.854	5583.27
685.044	5632.43
685.234	5732.78
685.424	5695.91
685.614	5409.2
685.804	5640.62
685.994	5622.19
686.184	5519.79
686.374	5314.99
686.564	5314.99
686.753	5503.4
686.943	5280.18
687.133	5560.75
687.323	5339.57
687.513	5337.52
687.702	5233.07
687.892	5312.94
688.082	5394.86
688.272	5294.51
688.461	5325.23
688.651	5444.01
688.841	5296.56
689.03	5306.8
689.22	5314.99
689.41	5050.8
689.599	5024.18
689.789	4958.64
689.979	5173.68
690.168	5112.24
690.358	5011.89
690.547	5134.77
690.737	4987.32
690.926	4954.55
691.116	4891.06
691.305	4946.36
691.495	4770.23
691.684	4846.01
691.874	4829.62
692.063	4819.38
692.252	4770.23
692.442	4729.27
692.631	4549.05
692.82	4587.96
693.01	4450.75
693.199	4727.22
693.388	4559.29
693.578	4534.71
693.767	4444.6
693.956	4504
694.146	4286.91
694.335	4422.08
694.524	4358.59
694.713	4411.84
694.902	4352.45
695.092	4315.58
695.281	4356.54
695.47	4260.29
695.659	4241.86
695.848	4256.19
696.037	4270.53
696.226	4172.22
696.415	4045.25
696.604	4248
696.793	4139.46
696.982	4176.32
697.171	4299.2
697.36	4026.82
697.549	4082.11
697.738	4168.13
697.927	4028.87
698.116	4047.3
698.305	4094.4
698.494	4071.87
698.683	4123.07
698.872	4094.4
699.061	3946.95
699.25	4135.36
699.438	4065.73
699.627	4125.12
699.816	3996.1
700.005	4014.53
700.193	4127.17
700.382	3983.81
700.571	4211.14
700.76	4133.31
700.948	4037.06
701.137	3905.99
701.326	4028.87
701.514	3934.66
701.703	4170.18
701.892	3992
702.08	4213.18
702.269	4037.06
702.457	4110.79
702.646	4037.06
702.834	3987.91
703.023	4078.02
703.212	4204.99
703.4	3994.05
703.589	4053.44
703.777	4096.45
703.965	3996.1
704.154	4112.83
704.342	3881.41
704.531	4024.77
704.719	4133.31
704.907	4037.06
705.096	3985.86
705.284	3992
705.472	3996.1
705.661	4004.29
705.849	4020.67
706.037	4137.41
706.226	4164.03
706.414	4053.44
706.602	4104.64
706.79	4200.9
706.979	4209.09
707.167	4166.08
707.355	4065.73
707.543	4200.9
707.731	4127.17
707.919	4127.17
708.107	4248
708.296	4159.94
708.484	4147.65
708.672	4211.14
708.86	4233.66
709.048	4184.51
709.236	4225.47
709.424	4245.95
709.612	4239.81
709.8	4178.37
709.988	4248
710.176	4268.48
710.364	4340.16
710.551	4534.71
710.739	4397.5
710.927	4442.56
711.115	4424.12
711.303	4528.57
711.491	4569.53
711.679	4446.65
711.866	4479.42
712.054	4512.19
712.242	4504
712.43	4565.43
712.617	4606.39
712.805	4463.04
712.993	4463.04
713.181	4524.47
713.368	4600.25
713.556	4712.89
713.744	4458.94
713.931	4606.39
714.119	4585.91
714.306	4536.76
714.494	4565.43
714.682	4635.07
714.869	4561.34
715.057	4671.93
715.244	4637.11
715.432	4901.3
715.619	4739.51
715.807	4729.27
715.994	4737.46
716.182	4739.51
716.369	4938.16
716.556	4944.31
716.744	4790.71
716.931	4813.24
717.119	4909.49
717.306	4911.54
717.493	4950.45
717.681	5093.81
717.868	5028.28
718.055	4962.74
718.242	4944.31
718.43	5145.01
718.617	5136.82
718.804	5058.99
718.991	5085.62
719.179	5276.08
719.366	4972.98
719.553	5185.97
719.74	5200.3
719.927	5253.55
720.114	5122.48
720.301	5192.11
720.488	5091.76
720.676	5380.53
720.863	5261.74
721.05	5296.56
721.237	5290.42
721.424	5233.07
721.611	5265.84
721.798	5263.79
721.985	5405.1
722.172	5243.31
722.358	5396.91
722.545	5394.86
722.732	5355.95
722.919	5394.86
723.106	5384.62
723.293	5501.36
723.48	5550.51
723.667	5278.13
723.853	5411.25
724.04	5515.69
724.227	5573.03
724.414	5659.05
724.6	5595.56
724.787	5607.85
724.974	5597.61
725.161	5667.24
725.347	5595.56
725.534	5648.81
725.72	5687.72
725.907	5788.07
726.094	5818.79
726.28	5611.95
726.467	5642.67
726.653	5810.6
726.84	5783.98
727.027	5869.99
727.213	5663.15
727.4	5759.4
727.586	5697.96
727.773	5738.92
727.959	5872.04
728.145	5847.46
728.332	5851.56
728.518	5904.81
728.705	5896.61
728.891	5867.94
729.077	5974.44
729.264	5810.6
729.45	6027.68
729.636	6037.92
729.823	5917.09
730.009	6072.74
730.195	6109.6
730.382	6050.21
730.568	6082.98
730.754	6033.83
730.94	5945.77
731.126	6216.1
731.313	6044.07
731.499	6199.71
731.685	6001.06
731.871	6099.36
732.057	6285.73
732.243	6386.08
732.429	6287.78
732.615	6295.97
732.801	6316.45
732.987	6273.44
733.173	6042.02
733.359	6240.67
733.545	6060.45
733.731	6119.84
733.917	6328.74
734.103	6351.26
734.289	6310.3
734.475	6162.85
734.661	6359.45
734.847	6326.69
735.033	6185.38
735.219	6336.93
735.404	6392.22
735.59	6322.59
735.776	6220.19
735.962	6216.1
736.148	6242.72
736.333	6320.54
736.519	6283.68
736.705	6269.34
736.89	6345.12
737.076	6183.33
737.262	6166.95
737.447	6259.1
737.633	6179.23
737.819	6338.98
738.004	6281.63
738.19	6195.62
738.375	6343.07
738.561	6369.69
738.747	6222.24
738.932	6351.26
739.118	6412.7
739.303	6310.3
739.489	6298.02
739.674	6109.6
739.859	6220.19
740.045	6181.28
740.23	6152.61
740.416	6175.14
740.601	6220.19
740.786	6224.29
740.972	6123.94
741.157	6076.84
741.342	6193.57
741.528	5978.53
741.713	6203.81
741.898	6158.75
742.084	5990.82
742.269	6011.3
742.454	5908.9
742.639	6025.64
742.824	6085.03
743.01	6017.44
743.195	6001.06
743.38	5945.77
743.565	5978.53
743.75	6025.64
743.935	5880.23
744.12	6001.06
744.305	5773.74
744.49	5921.19
744.675	5855.65
744.86	5749.16
745.045	5798.31
745.23	5839.27
745.415	5794.22
745.6	5736.87
745.785	5489.07
745.97	5618.09
746.155	5474.73
746.34	5663.15
746.525	5474.73
746.71	5605.8
746.895	5444.01
747.079	5474.73
747.264	5401.01
747.449	5425.58
747.634	5462.44
747.819	5476.78
748.003	5267.89
748.188	5380.53
748.373	5300.66
748.557	5247.41
748.742	5159.35
748.927	5212.59
749.111	5130.67
749.296	5167.54
749.481	5056.95
749.665	5003.7
749.85	5018.04
750.034	4995.51
750.219	4821.43
750.404	4878.77
750.588	4946.36
750.773	4757.94
750.957	4831.67
751.141	4825.53
751.326	4815.29
751.51	4663.74
751.695	4585.91
751.879	4614.59
752.064	4651.45
752.248	4489.66
752.432	4557.24
752.617	4450.75
752.801	4485.56
752.985	4444.6
753.17	4475.32
753.354	4426.17
753.538	4413.88
753.722	4450.75
753.907	4256.19
754.091	4336.06
754.275	4200.9
754.459	4258.24
754.643	4270.53
754.828	4260.29
755.012	3914.18
755.196	4016.58
755.38	4035.01
755.564	3985.86
755.748	4071.87
755.932	3910.08
756.116	3977.67
756.3	3846.6
756.484	3944.9
756.668	3844.55
756.852	3729.86
757.036	3668.42
757.22	3652.04
757.404	3613.13
757.588	3615.18
757.772	3711.43
757.956	3672.52
758.14	3701.19
758.323	3498.44
758.507	3568.07
758.691	3496.39
758.875	3664.33
759.059	3486.15
759.242	3377.61
759.426	3451.34
759.61	3402.19
759.794	3369.42
759.977	3514.83
760.161	3539.4
760.345	3387.85
760.528	3303.89
760.712	3312.08
760.895	3342.8
761.079	3361.23
761.263	3224.01
761.446	3103.18
761.63	3250.64
761.813	3172.82
761.997	3310.03
762.18	3207.63
762.364	3203.54
762.547	3090.9
762.731	3070.42
762.914	3101.14
763.098	2968.02
763.281	3017.17
763.464	3004.88
763.648	2927.06
763.831	2922.96
764.015	2929.11
764.198	2951.63
764.381	2935.25
764.564	2808.28
764.748	2996.69
764.931	2830.8
765.114	2791.89
765.297	2787.8
765.481	2773.46
765.664	2793.94
765.847	2841.04
766.03	2761.17
766.213	2748.89
766.397	2724.31
766.58	2640.34
766.763	2841.04
766.946	2664.92
767.129	2718.17
767.312	2750.93
767.495	2593.24
767.678	2585.05
767.861	2648.54
768.044	2537.95
768.227	2628.06
768.41	2525.66
768.593	2628.06
768.776	2503.13
768.959	2578.9
769.142	2564.57
769.324	2470.36
769.507	2443.74
769.69	2394.59
769.873	2447.83
770.056	2456.03
770.239	2505.18
770.421	2464.22
770.604	2482.65
770.787	2273.76
770.97	2372.06
771.152	2370.01
771.335	2439.64
771.518	2271.71
771.7	2320.86
771.883	2363.87
772.066	2353.63
772.248	2200.03
772.431	2361.82
772.613	2169.31
772.796	2181.6
772.978	2177.5
773.161	2290.14
773.343	2159.07
773.526	2132.45
773.708	2107.87
773.891	1962.47
774.073	2157.02
774.256	2146.78
774.438	2193.89
774.621	2079.2
774.803	1989.09
774.985	2093.54
775.168	2038.24
775.35	2087.39
775.532	1970.66
775.715	1915.36
775.897	1939.94
776.079	1858.02
776.261	1890.79
776.444	1847.78
776.626	1941.99
776.808	1944.03
776.99	1851.88
777.173	1843.68
777.355	1722.85
777.537	1806.82
777.719	1886.69
777.901	1733.09
778.083	1745.38
778.265	1612.26
778.447	1685.99
778.629	1669.61
778.811	1659.37
778.993	1720.81
779.175	1573.35
779.357	1708.52
779.539	1665.51
779.721	1710.57
779.903	1649.13
780.085	1522.15
780.267	1513.96
780.449	1628.65
780.631	1546.73
780.812	1622.5
780.994	1464.81
781.176	1497.58
781.358	1518.06
781.54	1360.36
781.721	1571.3
781.903	1489.39
782.085	1395.18
782.267	1497.58
782.448	1325.55
782.63	1442.28
782.812	1325.55
782.993	1460.71
783.175	1411.56
783.357	1309.16
783.538	1415.66
783.72	1395.18
783.901	1255.92
784.083	1339.88
784.264	1204.72
784.446	1223.15
784.627	1284.59
784.809	1335.79
784.99	1217.01
785.172	1294.83
785.353	1235.44
785.535	1217.01
785.716	1126.89
785.897	1206.77
786.079	1192.43
786.26	1151.47
786.441	1202.67
786.623	1081.84
786.804	1143.28
786.985	1155.57
787.167	1137.13
787.348	1083.89
787.529	1120.75
787.71	1096.18
787.891	1022.45
788.073	1012.21
788.254	1098.22
788.435	1063.41
788.616	1067.5
788.797	1036.78
788.978	1012.21
789.159	1008.11
789.34	1030.64
789.522	942.58
789.703	1012.21
789.884	922.1
790.065	1038.83
790.246	977.39
790.427	993.78
790.607	977.39
790.788	1018.35
790.969	831.99
791.15	965.11
791.331	920.05
791.512	850.42
791.693	913.91
791.874	911.86
792.054	922.1
792.235	838.13
792.416	752.12
792.597	915.95
792.778	920.05
792.958	838.13
793.139	891.38
793.32	731.64
793.5	829.94
793.681	913.91
793.862	844.28
794.042	788.98
794.223	748.02
794.404	721.4
794.584	774.64
794.765	774.64
794.945	721.4
795.126	754.16
795.306	801.27
795.487	670.2
795.667	723.44
795.848	715.25
796.028	725.49
796.209	743.92
796.389	788.98
796.57	655.86
796.75	698.87
796.93	696.82
797.111	686.58
797.291	735.73
797.471	772.6
797.652	686.58
797.832	604.66
798.012	735.73
798.192	680.44
798.373	623.09
798.553	645.62
798.733	719.35
798.913	604.66
799.093	676.34
799.274	696.82
799.454	678.39
799.634	635.38
799.814	559.61
799.994	694.77
800.174	645.62
800.354	647.67
800.534	588.28
800.714	643.57
800.894	547.32
801.074	569.85
801.254	657.91
801.434	545.27
801.614	578.04
801.794	571.9
801.974	1391.08
802.154	573.94
802.334	590.33
802.514	643.57
802.693	559.61
802.873	584.18
803.053	623.09
803.233	571.9
803.413	645.62
803.592	518.65
803.772	621.05
803.952	535.03
804.131	612.85
804.311	555.51
804.491	612.85
804.67	573.94
804.85	530.94
805.03	588.28
805.209	547.32
805.389	506.36
805.568	453.11
805.748	535.03
805.928	489.98
806.107	512.5
806.287	457.21
806.466	420.35
806.646	512.5
806.825	563.7
807.004	506.36
807.184	522.74
807.363	477.69
807.543	506.36
807.722	512.5
807.901	481.78
808.081	530.94
808.26	465.4
808.439	436.73
808.619	508.41
808.798	408.06
808.977	457.21
809.156	500.22
809.336	504.31
809.515	539.13
809.694	397.82
809.873	477.69
810.052	465.4
810.231	510.46
810.411	424.44
810.59	449.02
810.769	444.92
810.948	479.74
811.127	401.91
811.306	408.06
811.485	446.97
811.664	479.74
811.843	408.06
812.022	381.43
812.201	479.74
812.38	416.25
812.559	279.04
812.737	457.21
812.916	465.4
813.095	381.43
813.274	414.2
813.453	395.77
813.632	389.63
813.811	399.87
813.989	322.04
814.168	348.67
814.347	365.05
814.526	350.71
814.704	342.52
814.883	383.48
815.062	324.09
815.24	358.91
815.419	356.86
815.598	336.38
815.776	334.33
815.955	340.47
816.133	299.52
816.312	412.15
816.49	299.52
816.669	342.52
816.847	317.95
817.026	340.47
817.204	274.94
817.383	371.19
817.561	334.33
817.74	307.71
817.918	367.1
818.097	334.33
818.275	334.33
818.453	326.14
818.632	403.96
818.81	299.52
818.988	297.47
819.167	299.52
819.345	326.14
819.523	274.94
819.701	365.05
819.879	320
820.058	356.86
820.236	315.9
820.414	266.75
820.592	365.05
820.77	412.15
820.948	338.43
821.127	338.43
821.305	268.8
821.483	256.51
821.661	301.56
821.839	309.76
822.017	276.99
822.195	303.61
822.373	309.76
822.551	190.97
822.729	367.1
822.907	276.99
823.085	268.8
823.262	252.41
823.44	184.83
823.618	178.69
823.796	246.27
823.974	252.41
824.152	291.32
824.329	225.79
824.507	309.76
824.685	289.28
824.863	293.37
825.04	246.27
825.218	301.56
825.396	211.45
825.574	231.93
825.751	264.7
825.929	256.51
826.107	131.58
826.284	334.33
826.462	231.93
826.639	295.42
826.817	168.45
826.994	174.59
827.172	211.45
827.349	301.56
827.527	291.32
827.704	240.12
827.882	313.85
828.059	233.98
828.237	244.22
828.414	231.93
828.591	170.49
828.769	264.7
828.946	174.59
829.124	299.52
829.301	233.98
829.478	236.03
829.655	252.41
829.833	209.4
830.01	203.26
830.187	182.78
830.364	127.49
830.542	215.55
830.719	270.84
830.896	223.74
831.073	193.02
831.25	219.64
831.427	182.78
831.604	215.55
831.782	145.92
831.959	252.41
832.136	193.02
832.313	242.17
832.49	123.39
832.667	127.49
832.844	207.36
833.021	227.84
833.198	211.45
833.374	252.41
833.551	252.41
833.728	145.92
833.905	258.56
834.082	139.77
834.259	121.34
834.436	186.88
834.612	207.36
834.789	219.64
834.966	154.11
835.143	188.93
835.319	195.07
835.496	236.03
835.673	244.22
835.85	154.11
836.026	172.54
836.203	240.12
836.38	158.21
836.556	129.53
836.733	172.54
836.909	295.42
837.086	117.25
837.262	190.97
837.439	113.15
837.616	152.06
837.792	135.68
837.968	113.15
838.145	80.38
838.321	162.3
838.498	68.09
838.674	176.64
838.851	125.44
839.027	127.49
839.203	145.92
839.38	172.54
839.556	166.4
839.732	233.98
839.909	182.78
840.085	104.96
840.261	145.92
840.437	135.68
840.614	113.15
840.79	201.21
840.966	170.49
841.142	158.21
841.318	211.45
841.494	129.53
841.671	137.73
841.847	104.96
842.023	121.34
842.199	135.68
842.375	150.01
842.551	113.15
842.727	53.76
842.903	150.01
843.079	102.91
843.255	96.77
843.431	43.52
843.607	240.12
843.783	39.42
843.959	86.53
844.134	64
844.31	254.46
844.486	64
844.662	162.3
844.838	137.73
845.013	98.81
845.189	170.49
845.365	102.91
845.541	107.01
845.716	76.29
845.892	121.34
846.068	88.57
846.244	96.77
846.419	96.77
846.595	6.66
846.77	51.71
846.946	100.86
847.122	133.63
847.297	96.77
847.473	154.11
847.648	113.15
847.824	102.91
847.999	37.38
848.175	27.14
848.35	109.05
848.526	109.05
848.701	100.86
848.876	143.87
849.052	129.53
849.227	64
849.403	154.11
849.578	137.73
849.753	84.48
849.929	156.16
850.104	12.8
850.279	98.81
850.454	64
850.63	86.53
850.805	121.34
850.98	82.43
851.155	88.57
851.33	80.38
851.505	121.34
851.681	145.92
851.856	51.71
852.031	64
852.206	123.39
852.381	2.56
852.556	145.92
852.731	84.48
852.906	137.73
853.081	55.81
853.256	86.53
853.431	70.14
853.606	53.76
853.781	35.33
853.956	-7.68
854.131	47.62
854.305	-1.54
854.48	31.23
854.655	20.99
854.83	45.57
855.005	80.38
855.18	43.52
855.354	51.71
855.529	115.2
855.704	57.86
855.879	147.97
856.053	29.18
856.228	131.58
856.403	41.47
856.577	82.43
856.752	53.76
856.926	72.19
857.101	37.38
857.276	8.7
857.45	53.76
857.625	80.38
857.799	33.28
857.974	150.01
858.148	4.61
858.323	76.29
858.497	72.19
858.672	64
858.846	31.23
859.02	150.01
859.195	8.7
859.369	23.04
859.543	31.23
859.718	-1.54
859.892	94.72
860.066	33.28
860.241	-3.58
860.415	-9.73
860.589	55.81
860.763	18.94
860.938	70.14
861.112	55.81
861.286	57.86
861.46	86.53
861.634	-75.26
861.808	88.57
861.982	61.95
862.157	4.61
862.331	109.05
862.505	57.86
862.679	20.99
862.853	39.42
863.027	59.9
863.201	80.38
863.375	-9.73
863.549	113.15
863.722	68.09
863.896	80.38
864.07	-9.73
864.244	-9.73
864.418	23.04
864.592	145.92
864.766	31.23
864.939	45.57
865.113	-11.78
865.287	55.81
865.461	-7.68
865.634	74.24
865.808	8.7
865.982	-15.87
866.156	12.8
866.329	72.19
866.503	107.01
866.676	55.81
866.85	-11.78
867.024	18.94
867.197	121.34
867.371	113.15
867.544	-5.63
867.718	-9.73
867.891	96.77
868.065	8.7
868.238	72.19
868.412	16.9
868.585	4.61
868.759	10.75
868.932	31.23
869.105	2.56
869.279	92.67
869.452	61.95
869.625	152.06
869.799	33.28
869.972	35.33
870.145	20.99
870.319	61.95
870.492	16.9
870.665	35.33
870.838	-3.58
871.011	-19.97
871.185	-26.11
871.358	72.19
871.531	96.77
871.704	59.9
871.877	-67.07
872.05	86.53
872.223	10.75
872.396	59.9
872.569	96.77
872.742	31.23
872.915	-28.16
873.088	47.62
873.261	43.52
873.434	37.38
873.607	43.52
873.78	51.71
873.953	43.52
874.126	51.71
874.299	-1.54
874.471	23.04
874.644	14.85
874.817	10.75
874.99	35.33
875.163	-34.3
875.335	14.85
875.508	70.14
875.681	111.1
875.853	4.61
876.026	61.95
876.199	115.2
876.371	37.38
876.544	23.04
876.717	-24.06
876.889	27.14
877.062	-32.26
877.234	-56.83
877.407	31.23
877.579	78.33
877.752	129.53
877.924	45.57
878.097	18.94
878.269	-1.54
878.442	-13.82
878.614	14.85
878.786	80.38
878.959	23.04
879.131	41.47
879.303	45.57
879.476	-7.68
879.648	72.19
879.82	76.29
879.993	29.18
880.165	31.23
880.337	-93.69
880.509	23.04
880.681	-46.59
880.854	-42.5
881.026	23.04
881.198	78.33
881.37	47.62
881.542	74.24
881.714	18.94
881.886	47.62
882.058	31.23
882.23	20.99
882.402	27.14
882.574	31.23
882.746	39.42
882.918	129.53
883.09	29.18
883.262	-34.3
883.434	111.1
883.606	-58.88
883.778	43.52
883.95	102.91
884.122	68.09
884.293	121.34
884.465	23.04
884.637	109.05
884.809	39.42
884.98	-1.54
885.152	-15.87
885.324	27.14
885.496	55.81
885.667	78.33
885.839	-52.74
886.011	72.19
886.182	14.85
886.354	8.7
886.525	66.05
886.697	-26.11
886.869	35.33
887.04	-1.54
887.212	10.75
887.383	55.81
887.555	-30.21
887.726	39.42
887.897	47.62
888.069	-5.63
888.24	39.42
888.412	-13.82
888.583	10.75
888.754	-24.06
888.926	-13.82
889.097	-9.73
889.268	10.75
889.44	23.04
889.611	23.04
889.782	-9.73
889.953	14.85
890.125	59.9
890.296	-1.54
890.467	-48.64
890.638	47.62
890.809	20.99
890.98	-30.21
891.151	39.42
891.323	45.57
891.494	31.23
891.665	-17.92
891.836	-46.59
892.007	-58.88
892.178	-24.06
892.349	-17.92
892.52	39.42
892.691	37.38
892.862	-17.92
893.032	-54.78
893.203	96.77
893.374	-13.82
893.545	33.28
893.716	-24.06
893.887	53.76
894.057	55.81
894.228	18.94
894.399	45.57
894.57	43.52
894.74	94.72
894.911	35.33
895.082	-42.5
895.253	-3.58
895.423	-11.78
895.594	70.14
895.764	14.85
895.935	-9.73
896.106	14.85
896.276	31.23
896.447	76.29
896.617	-26.11
896.788	-50.69
896.958	8.7
897.129	-34.3
897.299	-9.73
897.47	55.81
897.64	53.76
897.81	-46.59
897.981	80.38
898.151	-24.06
898.322	10.75
898.492	47.62
898.662	-19.97
898.832	-36.35
899.003	0.51
899.173	14.85
899.343	-11.78
899.513	2.56
