Data from USB4F104151__82__11-31-48-303.txt Node

Date: Fri Mar 14 11:31:48 EDT 2025
User: louis
Spectrometer: USB4F10415
Trigger mode: 4
Integration Time (sec): 5.000000E-2
Scans to average: 1
Electric dark correction enabled: true
Nonlinearity correction enabled: false
Boxcar width: 0
XAxis mode: Wavelengths
Number of Pixels in Spectrum: 3648
>>>>>Begin Spectral Data<<<<<
178.204	-134.82
178.424	-134.82
178.644	-134.82
178.864	-214.7
179.084	-214.7
179.304	29.01
179.524	-30.38
179.744	26.96
179.964	-1.71
180.184	14.68
180.404	-71.34
180.624	-7.85
180.844	6.49
181.064	-79.53
181.283	41.3
181.503	18.77
181.723	53.59
181.943	-13.99
182.163	74.07
182.383	-20.14
182.602	24.92
182.822	39.25
183.042	43.35
183.262	47.44
183.482	24.92
183.701	43.35
183.921	49.49
184.141	-16.04
184.361	39.25
184.58	33.11
184.8	57.68
185.02	-22.19
185.239	96.6
185.459	39.25
185.679	67.92
185.898	-54.95
186.118	104.79
186.338	-3.75
186.557	4.44
186.777	67.92
186.997	51.54
187.216	-7.85
187.436	135.51
187.655	72.02
187.875	43.35
188.095	43.35
188.314	86.36
188.534	26.96
188.753	8.53
188.973	10.58
189.192	57.68
189.412	86.36
189.631	61.78
189.851	-65.19
190.07	24.92
190.29	-108.2
190.509	-24.23
190.729	33.11
190.948	-7.85
191.168	155.99
191.387	35.16
191.607	26.96
191.826	33.11
192.045	18.77
192.265	31.06
192.484	2.39
192.704	78.16
192.923	10.58
193.142	108.88
193.362	88.4
193.581	129.36
193.8	76.12
194.02	74.07
194.239	86.36
194.458	84.31
194.678	26.96
194.897	6.49
195.116	8.53
195.335	-5.8
195.555	80.21
195.774	82.26
195.993	55.64
196.212	47.44
196.432	88.4
196.651	0.34
196.87	-13.99
197.089	108.88
197.308	-16.04
197.528	24.92
197.747	-5.8
197.966	4.44
198.185	39.25
198.404	61.78
198.623	22.87
198.842	94.55
199.062	82.26
199.281	69.97
199.5	86.36
199.719	4.44
199.938	90.45
200.157	-1.71
200.376	106.84
200.595	78.16
200.814	8.53
201.033	-3.75
201.252	108.88
201.471	26.96
201.69	80.21
201.909	-18.09
202.128	51.54
202.347	4.44
202.566	47.44
202.785	49.49
203.004	-9.9
203.223	88.4
203.442	51.54
203.661	18.77
203.879	59.73
204.098	53.59
204.317	18.77
204.536	63.83
204.755	35.16
204.974	47.44
205.193	10.58
205.411	102.74
205.63	10.58
205.849	-46.76
206.068	-38.57
206.287	41.3
206.505	84.31
206.724	96.6
206.943	-57
207.162	0.34
207.381	20.82
207.599	33.11
207.818	74.07
208.037	51.54
208.255	63.83
208.474	55.64
208.693	10.58
208.911	-5.8
209.13	51.54
209.349	20.82
209.567	63.83
209.786	106.84
210.005	67.92
210.223	6.49
210.442	-50.86
210.661	35.16
210.879	10.58
211.098	41.3
211.316	-1.71
211.535	-5.8
211.753	10.58
211.972	106.84
212.191	-50.86
212.409	-5.8
212.628	78.16
212.846	41.3
213.065	82.26
213.283	43.35
213.502	-48.81
213.72	76.12
213.938	53.59
214.157	47.44
214.375	84.31
214.594	24.92
214.812	67.92
215.031	39.25
215.249	51.54
215.467	88.4
215.686	43.35
215.904	-5.8
216.122	-34.47
216.341	92.5
216.559	33.11
216.778	43.35
216.996	59.73
217.214	4.44
217.432	22.87
217.651	-40.62
217.869	12.63
218.087	63.83
218.306	0.34
218.524	26.96
218.742	10.58
218.96	12.63
219.179	-5.8
219.397	43.35
219.615	67.92
219.833	-1.71
220.051	24.92
220.27	72.02
220.488	78.16
220.706	67.92
220.924	145.75
221.142	0.34
221.36	33.11
221.578	18.77
221.796	39.25
222.015	31.06
222.233	12.63
222.451	147.8
222.669	22.87
222.887	82.26
223.105	47.44
223.323	59.73
223.541	-50.86
223.759	63.83
223.977	0.34
224.195	88.4
224.413	69.97
224.631	37.2
224.849	-1.71
225.067	121.17
225.285	24.92
225.503	-22.19
225.721	-81.58
225.939	59.73
226.157	57.68
226.375	92.5
226.592	-5.8
226.81	82.26
227.028	125.27
227.246	84.31
227.464	31.06
227.682	59.73
227.9	57.68
228.117	8.53
228.335	-5.8
228.553	49.49
228.771	41.3
228.989	31.06
229.206	72.02
229.424	51.54
229.642	16.73
229.86	-50.86
230.077	51.54
230.295	43.35
230.513	47.44
230.731	86.36
230.948	80.21
231.166	127.32
231.384	43.35
231.601	6.49
231.819	115.03
232.037	37.2
232.254	33.11
232.472	53.59
232.689	26.96
232.907	112.98
233.125	-7.85
233.342	-5.8
233.56	2.39
233.777	37.2
233.995	22.87
234.213	84.31
234.43	59.73
234.648	55.64
234.865	49.49
235.083	80.21
235.3	-26.28
235.518	88.4
235.735	-9.9
235.953	117.08
236.17	-16.04
236.388	-3.75
236.605	-11.95
236.822	47.44
237.04	33.11
237.257	53.59
237.475	-20.14
237.692	166.23
237.909	24.92
238.127	129.36
238.344	-24.23
238.562	39.25
238.779	-40.62
238.996	-61.1
239.214	16.73
239.431	10.58
239.648	43.35
239.865	43.35
240.083	43.35
240.3	-28.33
240.517	10.58
240.735	2.39
240.952	63.83
241.169	100.69
241.386	20.82
241.603	53.59
241.821	10.58
242.038	61.78
242.255	86.36
242.472	-5.8
242.689	74.07
242.907	57.68
243.124	98.64
243.341	37.2
243.558	24.92
243.775	-38.57
243.992	-9.9
244.209	-5.8
244.426	72.02
244.643	76.12
244.86	69.97
245.078	43.35
245.295	100.69
245.512	-22.19
245.729	20.82
245.946	45.4
246.163	18.77
246.38	16.73
246.597	49.49
246.814	-18.09
247.031	26.96
247.248	-32.43
247.464	65.88
247.681	26.96
247.898	59.73
248.115	98.64
248.332	2.39
248.549	-1.71
248.766	84.31
248.983	57.68
249.2	39.25
249.417	20.82
249.633	63.83
249.85	16.73
250.067	108.88
250.284	76.12
250.501	74.07
250.717	55.64
250.934	35.16
251.151	-7.85
251.368	-9.9
251.585	22.87
251.801	-40.62
252.018	18.77
252.235	67.92
252.451	-22.19
252.668	61.78
252.885	82.26
253.102	26.96
253.318	26.96
253.535	-30.38
253.752	18.77
253.968	-7.85
254.185	14.68
254.401	10.58
254.618	65.88
254.835	82.26
255.051	33.11
255.268	41.3
255.484	106.84
255.701	-44.71
255.917	59.73
256.134	33.11
256.351	2.39
256.567	-26.28
256.784	47.44
257	-20.14
257.217	57.68
257.433	59.73
257.65	61.78
257.866	76.12
258.082	31.06
258.299	-9.9
258.515	8.53
258.732	90.45
258.948	8.53
259.165	59.73
259.381	22.87
259.597	92.5
259.814	29.01
260.03	22.87
260.246	-9.9
260.463	82.26
260.679	59.73
260.895	10.58
261.112	82.26
261.328	43.35
261.544	-3.75
261.761	123.22
261.977	41.3
262.193	65.88
262.409	80.21
262.626	10.58
262.842	59.73
263.058	18.77
263.274	33.11
263.49	55.64
263.707	76.12
263.923	47.44
264.139	8.53
264.355	55.64
264.571	47.44
264.787	76.12
265.004	-1.71
265.22	20.82
265.436	37.2
265.652	-16.04
265.868	96.6
266.084	-1.71
266.3	24.92
266.516	6.49
266.732	33.11
266.948	35.16
267.164	39.25
267.38	59.73
267.596	37.2
267.812	131.41
268.028	31.06
268.244	14.68
268.46	67.92
268.676	-30.38
268.892	74.07
269.108	0.34
269.324	59.73
269.54	49.49
269.756	55.64
269.972	-30.38
270.188	-9.9
270.403	-3.75
270.619	47.44
270.835	8.53
271.051	-26.28
271.267	-30.38
271.483	82.26
271.698	133.46
271.914	37.2
272.13	-13.99
272.346	26.96
272.562	2.39
272.777	67.92
272.993	8.53
273.209	20.82
273.425	47.44
273.64	49.49
273.856	78.16
274.072	29.01
274.287	90.45
274.503	24.92
274.719	4.44
274.934	-30.38
275.15	8.53
275.366	61.78
275.581	35.16
275.797	86.36
276.012	63.83
276.228	53.59
276.444	43.35
276.659	96.6
276.875	-16.04
277.09	45.4
277.306	-9.9
277.521	8.53
277.737	67.92
277.952	16.73
278.168	41.3
278.383	96.6
278.599	67.92
278.814	90.45
279.03	53.59
279.245	72.02
279.461	26.96
279.676	137.56
279.892	47.44
280.107	2.39
280.322	127.32
280.538	-20.14
280.753	-13.99
280.969	35.16
281.184	35.16
281.399	133.46
281.615	67.92
281.83	33.11
282.045	-9.9
282.26	100.69
282.476	69.97
282.691	153.94
282.906	6.49
283.122	-5.8
283.337	-11.95
283.552	86.36
283.767	-44.71
283.983	61.78
284.198	24.92
284.413	84.31
284.628	-46.76
284.843	39.25
285.058	55.64
285.274	31.06
285.489	31.06
285.704	86.36
285.919	51.54
286.134	41.3
286.349	31.06
286.564	24.92
286.779	-13.99
286.995	-9.9
287.21	-40.62
287.425	104.79
287.64	10.58
287.855	35.16
288.07	49.49
288.285	43.35
288.5	-1.71
288.715	94.55
288.93	57.68
289.145	35.16
289.36	57.68
289.575	82.26
289.79	76.12
290.004	14.68
290.219	92.5
290.434	-18.09
290.649	26.96
290.864	-22.19
291.079	-26.28
291.294	26.96
291.509	35.16
291.724	45.4
291.938	31.06
292.153	69.97
292.368	-13.99
292.583	-11.95
292.798	35.16
293.012	-54.95
293.227	61.78
293.442	10.58
293.657	67.92
293.871	108.88
294.086	2.39
294.301	112.98
294.516	131.41
294.73	-3.75
294.945	-59.05
295.16	22.87
295.374	112.98
295.589	-30.38
295.804	74.07
296.018	33.11
296.233	69.97
296.447	16.73
296.662	35.16
296.877	82.26
297.091	-3.75
297.306	22.87
297.52	63.83
297.735	39.25
297.949	49.49
298.164	76.12
298.378	104.79
298.593	-13.99
298.807	-20.14
299.022	33.11
299.236	-34.47
299.451	55.64
299.665	2.39
299.88	57.68
300.094	92.5
300.309	57.68
300.523	-22.19
300.737	80.21
300.952	-40.62
301.166	80.21
301.381	-71.34
301.595	82.26
301.809	2.39
302.024	22.87
302.238	0.34
302.452	41.3
302.667	10.58
302.881	53.59
303.095	10.58
303.309	26.96
303.524	35.16
303.738	22.87
303.952	47.44
304.166	76.12
304.381	-16.04
304.595	59.73
304.809	67.92
305.023	4.44
305.237	-22.19
305.452	2.39
305.666	39.25
305.88	98.64
306.094	47.44
306.308	26.96
306.522	26.96
306.736	59.73
306.95	41.3
307.164	45.4
307.379	63.83
307.593	80.21
307.807	33.11
308.021	59.73
308.235	2.39
308.449	-54.95
308.663	39.25
308.877	82.26
309.091	35.16
309.305	14.68
309.519	-57
309.733	43.35
309.947	-26.28
310.161	57.68
310.374	18.77
310.588	76.12
310.802	18.77
311.016	33.11
311.23	39.25
311.444	8.53
311.658	26.96
311.872	67.92
312.085	94.55
312.299	80.21
312.513	59.73
312.727	35.16
312.941	-18.09
313.154	22.87
313.368	-24.23
313.582	43.35
313.796	59.73
314.009	10.58
314.223	-67.24
314.437	76.12
314.651	33.11
314.864	65.88
315.078	10.58
315.292	14.68
315.505	10.58
315.719	18.77
315.933	-30.38
316.146	24.92
316.36	6.49
316.573	57.68
316.787	4.44
317.001	67.92
317.214	86.36
317.428	63.83
317.641	-42.67
317.855	24.92
318.068	-40.62
318.282	65.88
318.495	67.92
318.709	49.49
318.922	43.35
319.136	117.08
319.349	10.58
319.563	0.34
319.776	2.39
319.99	29.01
320.203	119.12
320.417	-26.28
320.63	80.21
320.843	74.07
321.057	18.77
321.27	26.96
321.483	80.21
321.697	51.54
321.91	31.06
322.124	45.4
322.337	20.82
322.55	10.58
322.763	-38.57
322.977	33.11
323.19	92.5
323.403	98.64
323.617	92.5
323.83	63.83
324.043	-81.58
324.256	74.07
324.469	-36.52
324.683	59.73
324.896	82.26
325.109	6.49
325.322	55.64
325.535	51.54
325.748	6.49
325.962	47.44
326.175	35.16
326.388	55.64
326.601	67.92
326.814	43.35
327.027	31.06
327.24	84.31
327.453	29.01
327.666	18.77
327.879	100.69
328.092	29.01
328.305	53.59
328.518	45.4
328.731	-5.8
328.944	47.44
329.157	63.83
329.37	49.49
329.583	92.5
329.796	59.73
330.009	-69.29
330.222	41.3
330.435	98.64
330.648	4.44
330.861	26.96
331.073	49.49
331.286	84.31
331.499	-1.71
331.712	82.26
331.925	-7.85
332.138	-5.8
332.35	35.16
332.563	51.54
332.776	53.59
332.989	33.11
333.202	2.39
333.414	16.73
333.627	26.96
333.84	-22.19
334.053	18.77
334.265	-30.38
334.478	14.68
334.691	67.92
334.903	6.49
335.116	55.64
335.329	29.01
335.541	98.64
335.754	86.36
335.966	-71.34
336.179	-57
336.392	24.92
336.604	108.88
336.817	24.92
337.029	39.25
337.242	100.69
337.454	65.88
337.667	76.12
337.88	155.99
338.092	2.39
338.305	-36.52
338.517	35.16
338.729	67.92
338.942	26.96
339.154	-52.91
339.367	-1.71
339.579	14.68
339.792	39.25
340.004	-9.9
340.217	-11.95
340.429	90.45
340.641	12.63
340.854	-5.8
341.066	76.12
341.278	110.93
341.491	43.35
341.703	76.12
341.915	10.58
342.128	-9.9
342.34	-13.99
342.552	-18.09
342.764	65.88
342.977	92.5
343.189	69.97
343.401	96.6
343.613	16.73
343.826	67.92
344.038	51.54
344.25	88.4
344.462	8.53
344.674	72.02
344.886	31.06
345.099	39.25
345.311	-9.9
345.523	14.68
345.735	-1.71
345.947	45.4
346.159	14.68
346.371	59.73
346.583	31.06
346.795	135.51
347.007	41.3
347.219	131.41
347.431	14.68
347.643	125.27
347.855	6.49
348.067	92.5
348.279	16.73
348.491	49.49
348.703	67.92
348.915	2.39
349.127	65.88
349.339	14.68
349.551	35.16
349.763	106.84
349.975	-22.19
350.187	127.32
350.399	18.77
350.61	127.32
350.822	24.92
351.034	123.22
351.246	47.44
351.458	61.78
351.669	26.96
351.881	72.02
352.093	63.83
352.305	24.92
352.517	-57
352.728	147.8
352.94	8.53
353.152	26.96
353.363	47.44
353.575	-5.8
353.787	133.46
353.999	96.6
354.21	47.44
354.422	51.54
354.633	39.25
354.845	65.88
355.057	139.6
355.268	49.49
355.48	117.08
355.692	-5.8
355.903	69.97
356.115	16.73
356.326	-77.48
356.538	90.45
356.749	80.21
356.961	106.84
357.172	51.54
357.384	43.35
357.595	137.56
357.807	80.21
358.018	37.2
358.23	29.01
358.441	100.69
358.653	125.27
358.864	74.07
359.075	45.4
359.287	14.68
359.498	53.59
359.709	26.96
359.921	-7.85
360.132	63.83
360.344	59.73
360.555	57.68
360.766	37.2
360.977	67.92
361.189	100.69
361.4	35.16
361.611	16.73
361.823	65.88
362.034	24.92
362.245	-46.76
362.456	84.31
362.667	110.93
362.879	26.96
363.09	51.54
363.301	82.26
363.512	45.4
363.723	-9.9
363.935	-9.9
364.146	80.21
364.357	49.49
364.568	80.21
364.779	-16.04
364.99	115.03
365.201	33.11
365.412	98.64
365.623	-54.95
365.834	55.64
366.045	26.96
366.256	84.31
366.467	112.98
366.678	47.44
366.889	8.53
367.1	39.25
367.311	74.07
367.522	41.3
367.733	115.03
367.944	29.01
368.155	74.07
368.366	33.11
368.577	59.73
368.788	57.68
368.999	51.54
369.209	57.68
369.42	149.84
369.631	147.8
369.842	49.49
370.053	-30.38
370.264	51.54
370.474	43.35
370.685	39.25
370.896	33.11
371.107	117.08
371.317	72.02
371.528	112.98
371.739	43.35
371.95	49.49
372.16	84.31
372.371	51.54
372.582	67.92
372.792	39.25
373.003	-20.14
373.214	72.02
373.424	98.64
373.635	55.64
373.846	63.83
374.056	10.58
374.267	12.63
374.477	76.12
374.688	6.49
374.898	100.69
375.109	153.94
375.319	63.83
375.53	43.35
375.74	78.16
375.951	-9.9
376.161	67.92
376.372	82.26
376.582	76.12
376.793	35.16
377.003	22.87
377.214	-13.99
377.424	92.5
377.635	74.07
377.845	10.58
378.055	102.74
378.266	-20.14
378.476	-1.71
378.686	14.68
378.897	4.44
379.107	82.26
379.317	63.83
379.528	-20.14
379.738	45.4
379.948	16.73
380.158	76.12
380.369	65.88
380.579	100.69
380.789	33.11
380.999	84.31
381.21	104.79
381.42	84.31
381.63	43.35
381.84	110.93
382.05	76.12
382.261	74.07
382.471	45.4
382.681	61.78
382.891	37.2
383.101	12.63
383.311	-5.8
383.521	92.5
383.731	55.64
383.941	18.77
384.151	-18.09
384.361	135.51
384.571	35.16
384.781	100.69
384.991	115.03
385.201	137.56
385.411	55.64
385.621	59.73
385.831	6.49
386.041	76.12
386.251	112.98
386.461	115.03
386.671	18.77
386.881	39.25
387.091	72.02
387.301	51.54
387.511	76.12
387.72	84.31
387.93	80.21
388.14	-7.85
388.35	-1.71
388.56	112.98
388.769	90.45
388.979	96.6
389.189	33.11
389.399	33.11
389.609	100.69
389.818	155.99
390.028	-22.19
390.238	115.03
390.447	-5.8
390.657	55.64
390.867	16.73
391.076	39.25
391.286	-1.71
391.496	41.3
391.705	43.35
391.915	108.88
392.125	69.97
392.334	63.83
392.544	20.82
392.753	31.06
392.963	29.01
393.172	43.35
393.382	51.54
393.591	131.41
393.801	-65.19
394.01	155.99
394.22	104.79
394.429	108.88
394.639	102.74
394.848	78.16
395.058	69.97
395.267	67.92
395.477	125.27
395.686	67.92
395.895	76.12
396.105	112.98
396.314	96.6
396.524	88.4
396.733	76.12
396.942	67.92
397.152	65.88
397.361	76.12
397.57	84.31
397.78	112.98
397.989	115.03
398.198	162.13
398.407	88.4
398.617	24.92
398.826	67.92
399.035	59.73
399.244	84.31
399.453	55.64
399.663	123.22
399.872	94.55
400.081	61.78
400.29	160.08
400.499	80.21
400.708	104.79
400.917	43.35
401.127	125.27
401.336	47.44
401.545	110.93
401.754	100.69
401.963	74.07
402.172	98.64
402.381	123.22
402.59	98.64
402.799	127.32
403.008	153.94
403.217	172.37
403.426	194.9
403.635	100.69
403.844	131.41
404.053	86.36
404.262	127.32
404.471	207.19
404.68	174.42
404.888	131.41
405.097	84.31
405.306	110.93
405.515	172.37
405.724	170.32
405.933	176.47
406.142	186.71
406.35	170.32
406.559	112.98
406.768	233.81
406.977	217.43
407.185	201.04
407.394	188.75
407.603	153.94
407.812	162.13
408.02	207.19
408.229	250.19
408.438	239.95
408.646	141.65
408.855	158.03
409.064	260.43
409.272	293.2
409.481	242
409.69	231.76
409.898	252.24
410.107	336.21
410.315	305.49
410.524	196.95
410.733	344.4
410.941	254.29
411.15	305.49
411.358	299.34
411.567	340.3
411.775	272.72
411.984	375.12
412.192	360.78
412.401	311.63
412.609	461.13
412.818	416.08
413.026	364.88
413.234	403.79
413.443	391.5
413.651	469.33
413.86	491.85
414.068	600.4
414.276	575.82
414.485	522.57
414.693	596.3
414.901	606.54
415.11	555.34
415.318	674.12
415.526	608.59
415.734	655.69
415.943	700.75
416.151	743.75
416.359	645.45
416.567	692.55
416.776	790.86
416.984	817.48
417.192	862.54
417.4	846.15
417.608	817.48
417.817	981.32
418.025	928.07
418.233	1030.47
418.441	928.07
418.649	983.37
418.857	1132.87
419.065	1149.25
419.273	1104.2
419.481	1163.59
419.689	1272.13
419.897	1329.47
420.105	1161.54
420.313	1268.03
420.521	1417.54
420.729	1403.2
420.937	1452.35
421.145	1507.65
421.353	1593.66
421.561	1575.23
421.769	1730.87
421.977	1665.34
422.185	1802.55
422.393	1810.75
422.601	1925.43
422.809	1997.11
423.017	1943.86
423.224	1937.72
423.432	2079.03
423.64	2206
423.848	2206
424.056	2257.2
424.263	2433.33
424.471	2406.7
424.679	2474.29
424.887	2519.34
425.094	2607.41
425.302	2605.36
425.51	2779.43
425.718	2838.83
425.925	2828.59
426.133	2943.27
426.341	3223.84
426.548	3324.19
426.756	3236.13
426.964	3520.8
427.171	3539.23
427.379	3668.25
427.586	3623.2
427.794	3741.98
428.001	3920.15
428.209	4196.63
428.417	4049.18
428.624	4378.9
428.832	4417.81
429.039	4315.41
429.247	4231.44
429.454	4823.31
429.662	5153.03
429.869	4835.6
430.076	5177.61
430.284	4905.23
430.491	5179.65
430.699	5566.72
430.906	5423.36
431.114	5484.8
431.321	5931.26
431.528	6037.75
431.736	6379.76
431.943	6416.63
432.15	6330.61
432.358	6211.83
432.565	6791.41
432.772	6756.59
432.979	7051.5
433.187	7123.18
433.394	7293.16
433.601	7649.5
433.808	7618.79
434.016	7788.77
434.223	8052.95
434.43	8345.81
434.637	8317.14
434.844	8722.64
435.052	8892.62
435.259	9201.86
435.466	9296.07
435.673	8945.87
435.88	9455.81
436.087	9984.19
436.294	9978.05
436.501	9943.23
436.708	9953.47
436.915	10457.27
437.122	10950.83
437.329	10627.25
437.537	11012.27
437.743	11296.94
437.95	11206.83
438.157	11843.74
438.364	12091.55
438.571	12271.77
438.778	12191.9
438.985	13193.36
439.192	12777.62
439.399	13400.2
439.606	12961.94
439.813	13897.86
440.02	14346.36
440.227	14291.07
440.433	14334.07
440.64	14610.55
440.847	14366.84
441.054	14911.6
441.261	15997.03
441.467	15640.68
441.674	15972.45
441.881	16480.35
442.088	16644.18
442.294	16320.6
442.501	16744.53
442.708	16973.91
442.914	17922.12
443.121	18583.61
443.328	17958.98
443.534	19292.21
443.741	18862.13
443.948	18554.94
444.154	19808.3
444.361	20017.19
444.568	20144.16
444.774	19943.46
444.981	19859.49
445.187	20846.62
445.394	21657.61
445.6	21194.77
445.807	23531.5
446.013	22368.26
446.22	22814.71
446.426	23863.27
446.633	24111.08
446.839	24661.98
447.046	23605.23
447.252	25276.37
447.459	24934.36
447.665	24799.19
447.871	26275.78
448.078	27267
448.284	25763.79
448.491	26570.69
448.697	27443.12
448.903	27981.74
449.11	28407.72
449.316	27850.67
449.522	28108.71
449.728	28794.78
449.935	29253.53
450.141	29050.78
450.347	29650.83
450.553	28719.01
450.76	29224.86
450.966	30246.79
451.172	29540.24
451.378	30441.35
451.584	29740.94
451.791	30465.92
451.997	30357.38
452.203	31025.02
452.409	31192.95
452.615	30869.37
452.821	29777.81
453.027	29372.31
453.233	31162.23
453.44	29843.34
453.646	29908.88
453.852	30447.49
454.058	30754.69
454.264	29396.88
454.47	30216.07
454.676	29413.27
454.882	30625.67
455.088	27744.17
455.294	28219.3
455.5	28610.46
455.705	28733.34
455.911	27844.52
456.117	27307.96
456.323	27019.19
456.529	25505.74
456.735	26730.43
456.941	25980.87
457.147	25343.95
457.352	24698.84
457.558	24147.94
457.764	24274.91
457.97	23807.98
458.176	23523.31
458.381	23277.55
458.587	22216.71
458.793	22452.22
458.999	20924.44
459.204	22630.4
459.41	21956.61
459.616	20299.81
459.821	20457.5
460.027	20158.5
460.233	20197.41
460.438	18927.67
460.644	19046.45
460.85	18303.04
461.055	17883.2
461.261	17993.79
461.466	16517.21
461.672	16109.66
461.878	17326.16
462.083	16191.58
462.289	15827.04
462.494	15816.8
462.7	15165.55
462.905	14876.79
463.111	14997.62
463.316	15050.86
463.522	14768.24
463.727	14864.5
463.932	14884.98
464.138	14641.27
464.343	14725.24
464.549	14035.07
464.754	15030.38
464.959	14753.91
465.165	14481.53
465.37	13918.34
465.575	13570.18
465.781	14192.76
465.986	14170.24
466.191	13613.19
466.397	13592.71
466.602	13006.99
466.807	13318.28
467.012	12951.7
467.218	13121.68
467.423	13004.94
467.628	12959.89
467.833	13518.98
468.038	13400.2
468.244	12697.75
468.449	13093.01
468.654	12662.93
468.859	12605.59
469.064	12617.88
469.269	12193.95
469.474	12196
469.679	12519.57
469.885	12089.5
470.09	12365.98
470.295	12013.73
470.5	11767.97
470.705	11976.86
470.91	11591.84
471.115	11495.59
471.32	11729.06
471.525	11681.96
471.73	11260.07
471.935	11131.05
472.139	10934.45
472.344	11186.35
472.549	10989.74
472.754	10739.89
472.959	10621.11
473.164	10506.42
473.369	10553.52
473.574	10686.64
473.778	10559.67
473.983	10385.59
474.188	10395.83
474.393	9990.33
474.598	10111.16
474.802	9908.41
475.007	9711.81
475.212	10084.54
475.417	9490.63
475.621	9400.52
475.826	9459.91
476.031	9298.12
476.235	9091.27
476.44	9208.01
476.645	9248.97
476.849	9226.44
477.054	8997.07
477.259	8917.2
477.463	8906.96
477.668	8564.95
477.872	8677.58
478.077	8517.84
478.282	8313.05
478.486	8423.64
478.691	8413.4
478.895	8433.88
479.1	8194.26
479.304	8243.42
479.509	7956.7
479.713	8171.74
479.918	7917.79
480.122	7874.78
480.326	7928.03
480.531	8128.73
480.735	7870.69
480.94	7708.9
481.144	7885.02
481.348	7715.04
481.553	7831.77
481.757	7573.73
481.961	7678.18
482.166	7618.79
482.37	7715.04
482.574	7483.62
482.778	7672.03
482.983	7831.77
483.187	7756
483.391	7801.05
483.595	7508.19
483.8	7502.05
484.004	7604.45
484.208	7796.96
484.412	7594.21
484.616	7534.82
484.821	7422.18
485.025	7422.18
485.229	7575.78
485.433	7592.16
485.637	7639.26
485.841	7497.95
486.045	7532.77
486.249	7848.16
486.453	7581.92
486.657	7669.98
486.861	7600.35
487.065	7500
487.269	7565.54
487.473	7438.56
487.677	7774.43
487.881	7807.2
488.085	7493.86
488.289	7669.98
488.493	7696.61
488.697	7643.36
488.901	7457
489.105	7538.91
489.309	7893.21
489.512	7651.55
489.716	7721.18
489.92	7606.5
490.124	7768.29
490.328	8024.28
490.531	7674.08
490.735	7885.02
490.939	7661.79
491.143	7686.37
491.346	7878.88
491.55	7739.62
491.754	7858.4
491.958	8001.76
492.161	8192.22
492.365	8157.4
492.569	7966.94
492.772	8130.78
492.976	8071.39
493.18	8161.5
493.383	8173.78
493.587	8405.21
493.79	8186.07
493.994	8282.33
494.197	8333.53
494.401	8546.51
494.605	8472.79
494.808	8618.19
495.012	8718.54
495.215	8700.11
495.419	8706.26
495.622	8741.07
495.825	8878.29
496.029	8943.82
496.232	9130.19
496.436	9154.76
496.639	9179.34
496.843	9126.09
497.046	9410.76
497.249	9515.2
497.453	9468.1
497.656	9431.24
497.859	9595.07
498.063	9820.35
498.266	10014.91
498.469	9853.12
498.673	10047.68
498.876	10164.41
499.079	10262.71
499.282	10209.47
499.485	10617.01
499.689	10424.5
499.892	10733.75
500.095	10715.31
500.298	11155.63
500.501	10791.09
500.705	11255.98
500.908	11305.13
501.111	11327.66
501.314	11622.56
501.517	11847.84
501.72	11696.29
501.923	11886.75
502.126	12118.17
502.329	12353.69
502.532	12308.63
502.735	12421.27
502.938	12746.9
503.141	12591.25
503.344	12988.56
503.547	13047.95
503.75	13269.13
503.953	13312.14
504.156	13486.22
504.359	13731.97
504.562	13488.26
504.765	13942.91
504.968	14061.69
505.17	14207.1
505.373	14219.39
505.576	14663.8
505.779	14676.09
505.982	14770.29
506.185	14932.08
506.387	15173.74
506.59	15356.01
506.793	15614.06
506.996	15474.79
507.198	15868
507.401	15997.03
507.604	16277.6
507.807	16320.6
508.009	16660.57
508.212	16592.98
508.415	16957.52
508.617	17174.61
508.82	16998.48
509.022	17008.72
509.225	17598.54
509.428	17776.71
509.63	17762.37
509.833	18057.28
510.035	18378.81
510.238	18354.24
510.44	18575.42
510.643	18903.09
510.845	19320.88
511.048	19314.73
511.25	19447.85
511.453	19560.49
511.655	20111.39
511.858	20457.5
512.06	20224.03
512.262	20555.8
512.465	20580.38
512.667	21157.91
512.87	21225.49
513.072	21338.13
513.274	21747.72
513.477	21755.91
513.679	22194.18
513.881	21919.75
514.084	22687.74
514.286	22872.06
514.488	23273.46
514.69	23717.87
514.893	23607.28
515.095	23693.29
515.297	24352.74
515.499	24127.46
515.701	24457.18
515.904	24807.39
516.106	25452.5
516.308	25188.31
516.51	26140.61
516.712	25952.2
516.914	26183.62
517.116	26904.51
517.318	26687.42
517.52	27062.2
517.722	27088.82
517.925	27477.94
518.127	27768.75
518.329	28227.49
518.531	27983.79
518.733	28544.93
518.935	29134.74
519.136	29163.42
519.338	29589.39
519.54	29939.6
519.742	30144.39
519.944	30304.13
520.146	30986.11
520.348	30918.53
520.55	31506.29
520.752	31799.15
520.954	32266.09
521.155	32245.61
521.357	32487.27
521.559	33124.19
521.761	33517.4
521.963	33613.65
522.164	33709.91
522.366	34211.66
522.568	34688.84
522.77	34727.75
522.971	35352.38
523.173	35247.93
523.375	35493.69
523.576	35770.16
523.778	35819.31
523.98	36695.85
524.181	36802.34
524.383	37166.88
524.584	37605.14
524.786	37621.53
524.988	37711.64
525.189	38166.29
525.391	38397.71
525.592	38731.53
525.794	39051.01
525.995	39055.11
526.197	39741.17
526.398	39722.74
526.6	40027.89
526.801	40607.47
527.003	40767.21
527.204	40589.03
527.406	41152.23
527.607	41238.24
527.808	41717.46
528.01	41109.22
528.211	41901.78
528.412	42303.18
528.614	42591.95
528.815	42487.5
529.016	42913.48
529.218	42864.33
529.419	42972.87
529.62	43089.6
529.822	43194.05
530.023	43683.51
530.224	43681.47
530.425	43683.51
530.626	43486.91
530.828	43675.32
531.029	44742.31
531.23	44465.84
531.431	44297.91
531.632	44713.64
531.833	44830.38
532.035	44824.23
532.236	45276.83
532.437	45156
532.638	45295.27
532.839	45194.92
533.04	45913.75
533.241	45166.24
533.442	46468.75
533.643	45835.93
533.844	45981.34
534.045	45993.62
534.246	45837.98
534.447	46179.99
534.648	46241.43
534.849	46304.91
535.05	46059.16
535.251	46812.81
535.451	46309.01
535.652	46808.72
535.853	46528.14
536.054	46917.26
536.255	46634.64
536.456	46311.06
536.657	47246.98
536.857	47099.53
537.058	46644.88
537.259	47230.6
537.46	47427.2
537.66	46669.45
537.861	47353.47
538.062	46741.13
538.263	47306.37
538.463	46802.57
538.664	47044.23
538.865	47423.11
539.065	47261.32
539.266	46814.86
539.466	46970.5
539.667	46734.99
539.868	47361.67
540.068	47310.47
540.269	46962.31
540.469	47640.19
540.67	47212.16
540.87	47462.02
541.071	47365.76
541.271	47189.64
541.472	46950.02
541.672	46997.13
541.873	47249.03
542.073	47011.46
542.274	47533.7
542.474	47150.73
542.675	47296.13
542.875	47464.07
543.075	47365.76
543.276	46878.35
543.476	47570.56
543.676	47171.21
543.877	47246.98
544.077	47425.15
544.277	47013.51
544.478	47062.66
544.678	47617.66
544.878	47556.22
545.078	47341.19
545.279	47033.99
545.479	47298.18
545.679	47275.65
545.879	47402.63
546.079	47160.97
546.28	46853.77
546.48	46827.15
546.68	47259.27
546.88	47382.15
547.08	47361.67
547.28	47214.21
547.48	46978.7
547.68	47197.83
547.88	46771.85
548.081	47320.71
548.281	47412.87
548.481	47222.4
548.681	47298.18
548.881	47396.48
549.081	47242.88
549.28	47304.32
549.48	47533.7
549.68	46997.13
549.88	47582.85
550.08	46700.17
550.28	47210.12
550.48	47308.42
550.68	47689.34
550.88	47636.09
551.08	47242.88
551.279	47005.32
551.479	47224.45
551.679	47273.6
551.879	47029.9
552.079	47429.25
552.278	47074.95
552.478	46919.31
552.678	47210.12
552.878	47117.96
553.077	46943.88
553.277	46296.72
553.477	47287.94
553.676	46683.79
553.876	46956.17
554.076	46872.2
554.275	46945.93
554.475	46481.04
554.674	46511.76
554.874	47062.66
555.074	46534.29
555.273	46802.57
555.473	46915.21
555.672	46419.6
555.872	46182.04
556.071	46540.43
556.271	46702.22
556.47	45803.16
556.67	45792.92
556.869	45975.19
557.068	46116.5
557.268	45522.59
557.467	46173.84
557.667	45723.29
557.866	45805.21
558.065	46132.89
558.265	45592.22
558.464	44916.39
558.663	45641.37
558.863	44910.25
559.062	45624.99
559.261	44887.72
559.461	45442.72
559.66	44424.88
559.859	44641.96
560.058	44883.62
560.258	44584.62
560.457	44228.27
560.656	44850.86
560.855	44007.09
561.054	44486.32
561.253	43544.25
561.453	44258.99
561.652	43943.61
561.851	43779.77
562.05	43370.18
562.249	43054.79
562.448	43654.84
562.647	43349.7
562.846	43220.67
563.045	42979.01
563.244	42544.84
563.443	43171.52
563.642	42360.53
563.841	42659.53
564.04	42579.66
564.239	42806.98
564.438	42020.56
564.637	42235.6
564.836	42028.76
565.035	41553.63
565.234	41287.39
565.432	41395.93
565.631	41103.07
565.83	41021.16
566.029	40849.13
566.228	40898.28
566.427	40752.87
566.625	40562.41
566.824	40058.61
567.023	40169.2
567.222	39612.15
567.42	40005.36
567.619	39819
567.818	39317.25
568.016	39757.56
568.215	39401.21
568.414	39255.81
568.612	39057.15
568.811	38569.74
569.01	38465.29
569.208	38344.46
569.407	38434.57
569.605	37768.98
569.804	38065.94
570.002	37469.98
570.201	38045.46
570.4	37560.09
570.598	37216.03
570.797	36998.94
570.995	37181.21
571.193	36550.44
571.392	37000.99
571.59	36179.76
571.789	36034.35
571.987	36208.43
572.186	36126.51
572.384	35807.03
572.582	35907.38
572.781	35774.26
572.979	34744.13
573.177	35546.93
573.376	35700.53
573.574	34811.71
573.772	35047.23
573.971	34901.82
574.169	34391.88
574.367	34328.39
574.565	34555.72
574.763	34129.74
574.962	33795.92
575.16	33425.24
575.358	33941.33
575.556	33609.56
575.754	33693.52
575.952	33118.04
576.151	33601.36
576.349	33040.22
576.547	32765.79
576.745	32872.29
576.943	33093.47
577.141	32505.7
577.339	32704.35
577.537	32204.65
577.735	32239.47
577.933	31539.06
578.131	32202.6
578.329	32221.03
578.527	31524.72
578.725	31702.9
578.923	32132.97
579.121	31182.71
579.319	31309.69
579.516	31610.74
579.714	31123.32
579.912	31006.59
580.11	30650.24
580.308	30762.88
580.506	30705.54
580.704	29925.26
580.901	30504.84
581.099	30179.21
581.297	30318.47
581.495	29980.56
581.692	30308.23
581.89	29757.33
582.088	29765.52
582.285	29630.35
582.483	29783.95
582.681	29566.87
582.878	29648.78
583.076	28929.95
583.274	29267.86
583.471	28415.91
583.669	28872.6
583.866	28526.5
584.064	28878.75
584.262	28557.22
584.459	28719.01
584.657	28112.81
584.854	28753.82
585.052	27987.88
585.249	28450.72
585.447	28274.6
585.644	27690.93
585.841	28004.27
586.039	27862.96
586.236	27611.06
586.434	27510.71
586.631	27596.72
586.828	27471.79
587.026	27432.88
587.223	26945.47
587.42	27289.52
587.618	26992.57
587.815	26773.44
588.012	26744.77
588.21	26664.89
588.407	26800.06
588.604	26683.33
588.801	26111.94
588.999	26398.66
589.196	26298.31
589.393	25921.48
589.59	25749.45
589.787	25987.02
589.984	25886.67
590.182	25309.14
590.379	25522.13
590.576	25194.45
590.773	25677.77
590.97	25511.89
591.167	25487.31
591.364	24893.4
591.561	25194.45
591.758	25128.92
591.955	24971.22
592.152	24885.21
592.349	24682.46
592.546	24813.53
592.743	24799.19
592.94	24397.79
593.137	24709.08
593.334	24434.66
593.531	24016.87
593.727	24301.54
593.924	24149.99
594.121	24131.56
594.318	24121.32
594.515	23678.96
594.712	24078.31
594.908	23654.38
595.105	23652.33
595.302	23384.05
595.499	23549.93
595.696	23662.57
595.892	23468.02
596.089	23171.06
596.286	23195.64
596.482	23306.23
596.679	23035.89
596.876	23031.8
597.072	22812.67
597.269	22810.62
597.466	22585.34
597.662	22503.42
597.859	22425.6
598.055	22595.58
598.252	22196.23
598.448	22466.56
598.645	22530.05
598.841	22175.75
599.038	21633.04
599.234	21915.65
599.431	22151.17
599.627	21944.33
599.824	21903.37
600.02	21856.26
600.217	21786.63
600.413	21579.79
600.609	21682.19
600.806	21514.25
601.002	21313.55
601.198	21067.8
601.395	21137.43
601.591	21209.11
601.787	21067.8
601.984	21041.17
602.18	21061.65
602.376	20815.9
602.572	20924.44
602.769	20701.21
602.965	20457.5
603.161	20637.72
603.357	20559.9
603.553	20656.15
603.75	20414.49
603.946	20240.42
604.142	20471.84
604.338	19847.21
604.534	20217.89
604.73	20221.98
604.926	19935.27
605.122	19886.12
605.318	19816.49
605.514	19673.13
605.71	19640.36
605.906	19386.41
606.102	19548.2
606.298	19384.37
606.494	19322.93
606.69	19466.28
606.886	19271.73
607.082	18827.32
607.278	19320.88
607.474	18939.96
607.67	19099.7
607.866	18675.77
608.062	19312.69
608.257	18755.64
608.453	19177.52
608.649	18870.33
608.845	18706.49
609.041	18516.03
609.236	18792.5
609.432	18626.62
609.628	18491.45
609.824	18473.02
610.019	18473.02
610.215	18325.57
610.411	18470.97
610.606	18305.09
610.802	18065.47
610.998	18319.42
611.193	18298.94
611.389	17889.35
611.584	17983.55
611.78	17973.32
611.976	17832.01
612.171	17725.51
612.367	17731.65
612.562	17446.99
612.758	17559.63
612.953	17537.1
613.149	17619.02
613.344	17524.81
613.539	17612.87
613.735	17440.84
613.93	17430.6
614.126	17305.68
614.321	17516.62
614.517	17524.81
614.712	17197.13
614.907	17256.53
615.103	17219.66
615.298	17109.07
615.493	17121.36
615.688	17031.25
615.884	16914.52
616.079	16584.79
616.274	17111.12
616.47	16744.53
616.665	16808.02
616.86	16722.01
617.055	16539.74
617.25	16660.57
617.445	16506.97
617.641	16382.04
617.836	16730.2
618.031	16267.36
618.226	16445.53
618.421	16093.28
618.616	16461.91
618.811	15865.96
619.006	16046.18
619.201	16064.61
619.396	15986.79
619.591	15624.29
619.786	15913.06
619.981	15595.62
620.176	15937.63
620.371	15620.2
620.566	15853.67
620.761	15534.18
620.956	15423.59
621.151	15310.96
621.346	15358.06
621.541	15128.69
621.735	15337.58
621.93	14766.2
622.125	15114.35
622.32	14641.27
622.515	15124.59
622.709	14817.4
622.904	14542.97
623.099	14696.57
623.294	14717.04
623.488	14495.86
623.683	14694.52
623.878	14207.1
624.072	14366.84
624.267	14219.39
624.462	14192.76
624.656	14164.09
624.851	13928.58
625.046	13762.69
625.24	13748.36
625.435	13598.85
625.629	13697.16
625.824	13666.44
626.018	13502.6
626.213	13297.8
626.407	13451.4
626.602	13041.81
626.796	13129.87
626.991	13363.34
627.185	12961.94
627.38	12703.89
627.574	13015.18
627.768	12707.99
627.963	12720.28
628.157	12898.45
628.352	12564.63
628.546	12470.42
628.74	12523.67
628.935	12427.42
629.129	12441.75
629.323	12345.5
629.517	11991.2
629.712	12122.27
629.906	12109.98
630.1	12114.08
630.294	11864.22
630.489	11905.18
630.683	12177.56
630.877	11589.8
631.071	11700.39
631.265	11438.25
631.459	11387.05
631.653	11600.04
631.848	11542.69
632.042	11401.38
632.236	11196.59
632.43	11042.99
632.624	11327.66
632.818	11126.96
633.012	10983.6
633.206	10981.55
633.4	10913.97
633.594	10950.83
633.788	11067.56
633.982	10934.45
634.176	10905.77
634.369	10653.87
634.563	10639.54
634.757	10354.87
634.951	10715.31
635.145	10414.26
635.339	10401.97
635.533	10096.83
635.726	10272.95
635.92	10123.45
636.114	10254.52
636.308	10057.92
636.501	9980.09
636.695	9967.81
636.889	9799.87
637.083	9674.95
637.276	9533.64
637.47	9803.97
637.664	9576.64
637.857	9791.68
638.051	9656.51
638.244	9650.37
638.438	9406.66
638.632	9582.79
638.825	9167.05
639.019	9357.51
639.212	9074.89
639.406	9218.25
639.599	8984.78
639.793	9281.74
639.986	8931.53
640.18	9138.38
640.373	8890.57
640.567	8947.92
640.76	8816.85
640.954	8863.95
641.147	8839.37
641.34	8546.51
641.534	8601.81
641.727	8642.77
641.92	8546.51
642.114	8513.75
642.307	8448.21
642.5	8415.44
642.694	8161.5
642.887	8282.33
643.08	8136.92
643.273	8267.99
643.467	8173.78
643.66	7946.46
643.853	7987.42
644.046	7778.53
644.239	7837.92
644.432	8018.14
644.626	7649.5
644.819	7602.4
645.012	7825.63
645.205	7715.04
645.398	7790.81
645.591	7561.44
645.784	7567.59
645.977	7463.14
646.17	7463.14
646.363	7518.43
646.556	7454.95
646.749	7516.39
646.942	7375.08
647.135	7280.87
647.328	7356.65
647.521	7119.08
647.714	7117.03
647.907	7137.51
648.099	7096.55
648.292	7260.39
648.485	7145.7
648.678	6869.23
648.871	6961.39
649.064	6924.52
649.256	6949.1
649.449	6998.25
649.642	6902
649.835	6699.25
650.027	6686.96
650.22	6678.77
650.413	6719.73
650.605	6629.62
650.798	6559.99
650.991	6506.74
651.183	6744.3
651.376	6566.13
651.568	6600.94
651.761	6326.52
651.954	6408.44
652.146	6441.2
652.339	6353.14
652.531	6355.19
652.724	6361.33
652.916	6367.48
653.109	6189.3
653.301	6244.6
653.494	6252.79
653.686	6138.1
653.879	6297.85
654.071	5857.53
654.263	6095.1
654.456	6119.67
654.648	6117.62
654.84	5972.22
655.033	5859.58
655.225	6062.33
655.417	5732.61
655.61	5921.02
655.802	6035.71
655.994	5980.41
656.186	5884.16
656.379	5759.23
656.571	5748.99
656.763	5742.85
656.955	5761.28
657.148	5677.31
657.34	5630.21
657.532	5474.56
657.724	5603.58
657.916	5671.17
658.108	5521.67
658.3	5474.56
658.492	5513.47
658.684	5554.43
658.876	5550.34
659.068	5355.78
659.26	5402.88
659.452	5566.72
659.644	5439.75
659.836	5392.64
660.028	5396.74
660.22	5413.12
660.412	5277.96
660.604	5265.67
660.796	5228.81
660.988	5232.9
661.18	5200.13
661.372	4974.86
661.563	5271.81
661.755	5054.73
661.947	5165.32
662.139	5052.68
662.331	5056.78
662.522	5003.53
662.714	5015.82
662.906	5034.25
663.097	5105.93
663.289	4989.19
663.481	4919.56
663.673	4991.24
663.864	4999.43
664.056	4790.54
664.247	4817.16
664.439	4894.99
664.631	4847.88
664.822	4993.29
665.014	4905.23
665.205	4917.51
665.397	4839.69
665.588	4923.66
665.78	4784.4
665.971	4790.54
666.163	4778.25
666.354	4888.84
666.546	4858.12
666.737	4747.53
666.929	4786.44
667.12	4831.5
667.311	4876.55
667.503	4790.54
667.694	4794.64
667.885	4768.01
668.077	4784.4
668.268	4739.34
668.459	4792.59
668.651	4602.13
668.842	4786.44
669.033	4700.43
669.224	4725.01
669.416	4876.55
669.607	4708.62
669.798	4714.77
669.989	4798.73
670.18	4778.25
670.371	4772.11
670.563	4712.72
670.754	4628.75
670.945	4782.35
671.136	4868.36
671.327	4661.52
671.518	4712.72
671.709	4776.2
671.9	4892.94
672.091	4813.07
672.282	4772.11
672.473	4800.78
672.664	4696.33
672.855	4864.27
673.046	4761.87
673.237	4765.96
673.428	4806.92
673.619	4755.72
673.809	4802.83
674	4798.73
674.191	4978.95
674.382	4925.71
674.573	4798.73
674.764	4872.46
674.954	4870.41
675.145	4808.97
675.336	4811.02
675.527	5036.3
675.717	4946.19
675.908	4897.03
676.099	4956.43
676.289	4964.62
676.48	4958.47
676.671	5013.77
676.861	5177.61
677.052	4927.75
677.243	4991.24
677.433	5042.44
677.624	5146.89
677.814	5124.36
678.005	5204.23
678.195	5105.93
678.386	5110.02
678.576	5191.94
678.767	5257.48
678.957	5220.61
679.148	5259.53
679.338	5187.85
679.529	5237
679.719	5177.61
679.909	5406.98
680.1	5308.68
680.29	5400.83
680.481	5318.92
680.671	5439.75
680.861	5529.86
681.052	5441.79
681.242	5482.75
681.432	5628.16
681.622	5394.69
681.813	5341.44
682.003	5529.86
682.193	5585.15
682.383	5769.47
682.573	5640.45
682.764	5740.8
682.954	5482.75
683.144	5564.67
683.334	5572.86
683.524	5740.8
683.714	5720.32
683.904	5644.54
684.094	5691.65
684.284	5622.02
684.474	5687.55
684.664	5603.58
684.854	5630.21
685.044	5679.36
685.234	5683.45
685.424	5595.39
685.614	5556.48
685.804	5642.5
685.994	5597.44
686.184	5611.78
686.374	5654.78
686.564	5490.95
686.753	5662.97
686.943	5550.34
687.133	5644.54
687.323	5615.87
687.513	5538.05
687.702	5415.17
687.892	5495.04
688.082	5507.33
688.272	5476.61
688.461	5411.07
688.651	5595.39
688.841	5318.92
689.03	5552.38
689.22	5462.27
689.41	5402.88
689.599	5404.93
689.789	5507.33
689.979	5214.47
690.168	5277.96
690.358	5212.42
690.547	5183.75
690.737	5210.37
690.926	5144.84
691.116	5179.65
691.305	5110.02
691.495	5142.79
691.684	4999.43
691.874	5052.68
692.063	5167.37
692.252	4884.75
692.442	5138.69
692.631	4811.02
692.82	5040.39
693.01	5060.87
693.199	5032.2
693.388	4931.85
693.578	4970.76
693.767	4866.32
693.956	4876.55
694.146	5046.54
694.335	4784.4
694.524	4735.25
694.713	4903.18
694.902	4833.55
695.092	4753.68
695.281	4856.08
695.47	4958.47
695.659	4819.21
695.848	4675.85
696.037	4864.27
696.226	4849.93
696.415	4651.28
696.604	4917.51
696.793	4845.84
696.982	4770.06
697.171	4989.19
697.36	4800.78
697.549	4770.06
697.738	4808.97
697.927	4735.25
698.116	4798.73
698.305	4841.74
698.494	4798.73
698.683	4716.81
698.872	4993.29
699.061	4864.27
699.25	4948.23
699.438	4800.78
699.627	4811.02
699.816	5003.53
700.005	4835.6
700.193	4915.47
700.382	5105.93
700.571	4905.23
700.76	5026.06
700.948	4757.77
701.137	4784.4
701.326	5024.01
701.514	4954.38
701.703	4927.75
701.892	4849.93
702.08	5165.32
702.269	5050.63
702.457	4802.83
702.646	5136.65
702.834	5134.6
703.023	5089.54
703.212	5169.41
703.4	5075.21
703.589	5040.39
703.777	5230.85
703.965	5089.54
704.154	5138.69
704.342	5077.26
704.531	5134.6
704.719	5169.41
704.907	5284.1
705.096	5148.93
705.284	5331.2
705.472	5251.33
705.661	5222.66
705.849	5243.14
706.037	5275.91
706.226	5335.3
706.414	5376.26
706.602	5376.26
706.79	5212.42
706.979	5384.45
707.167	5374.21
707.355	5292.29
707.543	5513.47
707.731	5253.38
707.919	5523.71
708.107	5277.96
708.296	5441.79
708.484	5261.57
708.672	5650.69
708.86	5507.33
709.048	5470.47
709.236	5384.45
709.424	5570.82
709.612	5654.78
709.8	5609.73
709.988	5552.38
710.176	5423.36
710.364	5497.09
710.551	5921.02
710.739	5501.19
710.927	5572.86
711.115	5599.49
711.303	5597.44
711.491	5570.82
711.679	5851.39
711.866	5656.83
712.054	5724.41
712.242	5658.88
712.43	5880.06
712.617	5855.48
712.805	5777.66
712.993	5845.24
713.181	5939.45
713.368	5945.59
713.556	6023.42
713.744	5826.81
713.931	6080.76
714.119	5943.55
714.306	6148.34
714.494	5914.88
714.682	5880.06
714.869	5839.1
715.057	6086.9
715.244	6025.47
715.432	5966.07
715.619	6088.95
715.807	6183.16
715.994	6179.06
716.182	5980.41
716.369	6136.06
716.556	6228.21
716.744	5970.17
716.931	6240.5
717.119	6252.79
717.306	6643.95
717.493	6248.69
717.681	6197.49
717.868	6240.5
718.055	6267.13
718.242	6277.37
718.43	6328.56
718.617	6473.97
718.804	6469.87
718.991	6297.85
719.179	6461.68
719.366	6328.56
719.553	6392.05
719.74	6572.27
719.927	6461.68
720.114	6510.83
720.301	6502.64
720.488	6437.11
720.676	6506.74
720.863	6418.68
721.05	6629.62
721.237	6482.16
721.424	6480.11
721.611	6572.27
721.798	6650.1
721.985	6306.04
722.172	6400.24
722.358	6676.72
722.545	6576.37
722.732	6496.5
722.919	6670.58
723.106	6570.23
723.293	6625.52
723.48	6756.59
723.667	6592.75
723.853	6562.03
724.04	6834.41
724.227	6949.1
724.414	6793.45
724.6	6559.99
724.787	6893.8
724.974	6846.7
725.161	6727.92
725.347	6625.52
725.534	6836.46
725.72	6920.43
725.907	6873.32
726.094	6809.84
726.28	6746.35
726.467	6738.16
726.653	6793.45
726.84	6895.85
727.027	6779.12
727.213	6928.62
727.4	7061.74
727.586	6871.28
727.773	6926.57
727.959	6942.96
728.145	7045.35
728.332	6912.24
728.518	6807.79
728.705	7061.74
728.891	6994.15
729.077	7104.74
729.264	6881.52
729.45	6938.86
729.636	7076.07
729.823	6994.15
730.009	7112.94
730.195	7069.93
730.382	7047.4
730.568	7059.69
730.754	7096.55
730.94	7006.44
731.126	7135.46
731.313	6914.28
731.499	7084.27
731.685	7071.98
731.871	7047.4
732.057	7076.07
732.243	7135.46
732.429	7201
732.615	7235.81
732.801	6955.24
732.987	7209.19
733.173	7121.13
733.359	7178.47
733.545	7114.98
733.731	7020.78
733.917	7256.29
734.103	7069.93
734.289	7235.81
734.475	6953.2
734.661	7209.19
734.847	7121.13
735.033	6981.87
735.219	7031.02
735.404	7274.73
735.59	7203.05
735.776	7059.69
735.962	7074.03
736.148	7092.46
736.333	7268.58
736.519	6990.06
736.705	7059.69
736.89	7100.65
737.076	7133.42
737.262	6891.76
737.447	7135.46
737.633	7018.73
737.819	7006.44
738.004	7090.41
738.19	7215.34
738.375	7104.74
738.561	7241.96
738.747	7033.07
738.932	6955.24
739.118	7088.36
739.303	6996.2
739.489	6942.96
739.674	7141.61
739.859	6805.74
740.045	6924.52
740.23	6846.7
740.416	6875.37
740.601	6879.47
740.786	7031.02
740.972	6791.41
741.157	6824.17
741.342	6775.02
741.528	6703.34
741.713	6615.28
741.898	6748.4
742.084	6805.74
742.269	6674.67
742.454	6709.49
742.639	6605.04
742.824	6570.23
743.01	6654.19
743.195	6564.08
743.38	6602.99
743.565	6562.03
743.75	6469.87
743.935	6449.39
744.12	6529.27
744.305	6449.39
744.49	6371.57
744.675	6273.27
744.86	6396.15
745.045	6156.54
745.23	6152.44
745.415	6213.88
745.6	6230.26
745.785	6080.76
745.97	6031.61
746.155	6164.73
746.34	6273.27
746.525	6113.53
746.71	6160.63
746.895	5888.25
747.079	6072.57
747.264	5916.92
747.449	5880.06
747.634	5779.71
747.819	5986.55
748.003	5712.13
748.188	5720.32
748.373	5816.57
748.557	5591.3
748.742	5628.16
748.927	5634.3
749.111	5630.21
749.296	5562.62
749.481	5517.57
749.665	5449.99
749.85	5343.49
750.034	5372.16
750.219	5339.4
750.404	5212.42
750.588	5288.2
750.773	5138.69
750.957	5138.69
751.141	5167.37
751.326	5208.33
751.51	5071.11
751.695	4987.15
751.879	5007.62
752.064	5161.22
752.248	4925.71
752.432	5036.3
752.617	4894.99
752.801	4819.21
752.985	4729.1
753.17	4839.69
753.354	4712.72
753.538	4702.48
753.722	4602.13
753.907	4651.28
754.091	4528.4
754.275	4483.34
754.459	4499.73
754.643	4477.2
754.828	4350.23
755.012	4407.57
755.196	4391.19
755.38	4282.64
755.564	4278.55
755.748	4251.92
755.932	4294.93
756.116	4172.05
756.3	4163.86
756.484	4213.01
756.668	4065.56
756.852	3885.34
757.036	4139.29
757.22	4071.7
757.404	4094.23
757.588	3858.71
757.772	3965.21
757.956	3770.65
758.14	4020.5
758.323	3758.36
758.507	3899.67
758.691	3694.88
758.875	3825.95
759.059	3877.15
759.242	3711.26
759.426	3725.6
759.61	3717.4
759.794	3739.93
759.977	3481.89
760.161	3713.31
760.345	3539.23
760.528	3639.58
760.712	3615.01
760.895	3508.51
761.079	3342.63
761.263	3385.63
761.446	3340.58
761.63	3346.72
761.813	3377.44
761.997	3295.52
762.18	3367.2
762.364	3369.25
762.547	3371.3
762.731	3158.31
762.914	3199.27
763.098	3289.38
763.281	3201.32
763.464	3316
763.648	3262.76
763.831	3131.69
764.015	3234.08
764.198	3139.88
764.381	3076.39
764.564	3201.32
764.748	3100.97
764.931	3080.49
765.114	2951.46
765.297	2967.85
765.481	3117.35
765.664	2939.18
765.847	2959.66
766.03	3123.49
766.213	3033.38
766.397	2902.31
766.58	2830.63
766.763	2894.12
766.946	2832.68
767.129	2847.02
767.312	2867.5
767.495	2791.72
767.678	2789.67
767.861	2736.43
768.044	2711.85
768.227	2881.83
768.41	2623.79
768.593	2777.39
768.776	2750.76
768.959	2656.56
769.142	2732.33
769.324	2574.64
769.507	2629.93
769.69	2605.36
769.873	2703.66
770.056	2593.07
770.239	2591.02
770.421	2505.01
770.604	2574.64
770.787	2525.49
770.97	2576.69
771.152	2572.59
771.335	2472.24
771.518	2341.17
771.7	2500.91
771.883	2447.66
772.066	2453.81
772.248	2443.57
772.431	2566.45
772.613	2263.35
772.796	2296.11
772.978	2468.14
773.161	2404.66
773.343	2337.07
773.526	2328.88
773.708	2230.58
773.891	2091.32
774.073	2222.39
774.256	2107.7
774.438	2322.74
774.621	2128.18
774.803	2234.68
774.985	2029.88
775.168	2214.2
775.35	2046.26
775.532	2185.52
775.715	2197.81
775.897	2113.85
776.079	1909.05
776.261	2038.07
776.444	1974.58
776.626	2040.12
776.808	1902.9
776.99	1943.86
777.173	2042.17
777.355	1859.9
777.537	1982.78
777.719	1829.18
777.901	1913.14
778.083	1933.62
778.265	1804.6
778.447	1888.57
778.629	1833.27
778.811	1800.51
778.993	1825.08
779.175	1804.6
779.357	1675.58
779.539	1726.78
779.721	1671.48
779.903	1708.35
780.085	1718.59
780.267	1743.16
780.449	1657.15
780.631	1786.17
780.812	1657.15
780.994	1616.19
781.176	1509.69
781.358	1614.14
781.54	1587.52
781.721	1648.96
781.903	1538.37
782.085	1509.69
782.267	1470.78
782.448	1507.65
782.63	1487.17
782.812	1444.16
782.993	1403.2
783.175	1448.26
783.357	1392.96
783.538	1366.34
783.72	1419.58
783.901	1362.24
784.083	1392.96
784.264	1368.38
784.446	1337.66
784.627	1304.9
784.809	1360.19
784.99	1173.83
785.172	1272.13
785.353	1247.55
785.535	1257.79
785.716	1251.65
785.897	1198.4
786.079	1360.19
786.26	1268.03
786.441	1206.59
786.623	1194.31
786.804	1239.36
786.985	1190.21
787.167	1159.49
787.348	1075.52
787.529	1245.51
787.71	1243.46
787.891	1268.03
788.073	1139.01
788.254	1059.14
788.435	1149.25
788.616	1196.36
788.797	1077.57
788.978	1096
789.159	1042.76
789.34	1065.29
789.522	1093.96
789.703	1120.58
789.884	1165.64
790.065	1038.66
790.246	1065.29
790.427	1044.81
790.607	1157.44
790.788	940.36
790.969	975.17
791.15	987.46
791.331	878.92
791.512	942.41
791.693	854.34
791.874	983.37
792.054	1022.28
792.235	913.74
792.416	899.4
792.597	993.61
792.778	923.98
792.958	993.61
793.139	854.34
793.32	848.2
793.5	856.39
793.681	895.3
793.862	901.45
794.042	899.4
794.223	827.72
794.404	885.06
794.584	862.54
794.765	774.47
794.945	860.49
795.126	821.58
795.306	903.5
795.487	788.81
795.667	805.19
795.848	870.73
796.028	743.75
796.209	756.04
796.389	840.01
796.57	788.81
796.75	731.47
796.93	778.57
797.111	731.47
797.291	665.93
797.471	776.52
797.652	846.15
797.832	788.81
798.012	756.04
798.192	624.97
798.373	633.16
798.553	741.71
798.733	729.42
798.913	657.74
799.093	647.5
799.274	715.08
799.454	684.36
799.634	723.27
799.814	723.27
799.994	692.55
800.174	756.04
800.354	745.8
800.534	702.79
800.714	694.6
800.894	672.08
801.074	612.68
801.254	606.54
801.434	739.66
801.614	624.97
801.794	713.03
801.974	1409.34
802.154	624.97
802.334	645.45
802.514	647.5
802.693	618.83
802.873	592.2
803.053	659.79
803.233	584.01
803.413	672.08
803.592	493.9
803.772	647.5
803.952	618.83
804.131	551.24
804.311	602.44
804.491	684.36
804.67	528.72
804.85	645.45
805.03	559.44
805.209	631.12
805.389	655.69
805.568	553.29
805.748	584.01
805.928	534.86
806.107	575.82
806.287	516.43
806.466	567.63
806.646	563.53
806.825	538.96
807.004	553.29
807.184	528.72
807.363	557.39
807.543	489.81
807.722	493.9
807.901	563.53
808.081	596.3
808.26	416.08
808.439	543.05
808.619	420.17
808.798	422.22
808.977	461.13
809.156	547.15
809.336	491.85
809.515	571.72
809.694	565.58
809.873	434.51
810.052	520.53
810.231	616.78
810.411	457.04
810.59	426.32
810.769	543.05
810.948	452.94
811.127	520.53
811.306	506.19
811.485	330.06
811.664	399.7
811.843	424.27
812.022	416.08
812.201	411.98
812.38	436.56
812.559	401.74
812.737	457.04
812.916	366.93
813.095	342.35
813.274	405.84
813.453	436.56
813.632	457.04
813.811	489.81
813.989	416.08
814.168	516.43
814.347	403.79
814.526	391.5
814.704	510.29
814.883	434.51
815.062	403.79
815.24	416.08
815.419	317.78
815.598	403.79
815.776	334.16
815.955	313.68
816.133	332.11
816.312	383.31
816.49	371.02
816.669	416.08
816.847	424.27
817.026	411.98
817.204	336.21
817.383	348.5
817.561	368.98
817.74	299.34
817.918	411.98
818.097	330.06
818.275	305.49
818.453	436.56
818.632	352.59
818.81	350.54
818.988	319.82
819.167	332.11
819.345	371.02
819.523	287.06
819.701	356.69
819.879	358.74
820.058	268.63
820.236	287.06
820.414	377.17
820.592	338.26
820.77	340.3
820.948	346.45
821.127	379.22
821.305	342.35
821.483	274.77
821.661	444.75
821.839	303.44
822.017	350.54
822.195	360.78
822.373	366.93
822.551	297.3
822.729	266.58
822.907	297.3
823.085	368.98
823.262	227.67
823.44	256.34
823.618	233.81
823.796	280.91
823.974	262.48
824.152	280.91
824.329	282.96
824.507	280.91
824.685	287.06
824.863	233.81
825.04	338.26
825.218	393.55
825.396	196.95
825.574	229.71
825.751	231.76
825.929	313.68
826.107	260.43
826.284	291.15
826.462	397.65
826.639	231.76
826.817	242
826.994	213.33
827.172	293.2
827.349	319.82
827.527	227.67
827.704	276.82
827.882	297.3
828.059	278.87
828.237	248.15
828.414	262.48
828.591	194.9
828.769	256.34
828.946	172.37
829.124	248.15
829.301	305.49
829.478	207.19
829.655	233.81
829.833	276.82
830.01	176.47
830.187	166.23
830.364	205.14
830.542	201.04
830.719	278.87
830.896	242
831.073	244.05
831.25	297.3
831.427	293.2
831.604	282.96
831.782	194.9
831.959	215.38
832.136	237.91
832.313	196.95
832.49	194.9
832.667	186.71
832.844	168.27
833.021	207.19
833.198	221.52
833.374	192.85
833.551	209.23
833.728	203.09
833.905	158.03
834.082	178.51
834.259	182.61
834.436	377.17
834.612	203.09
834.789	198.99
834.966	328.02
835.143	178.51
835.319	180.56
835.496	250.19
835.673	258.39
835.85	170.32
836.026	207.19
836.203	231.76
836.38	180.56
836.556	211.28
836.733	147.8
836.909	264.53
837.086	198.99
837.262	141.65
837.439	180.56
837.616	215.38
837.792	203.09
837.968	198.99
838.145	178.51
838.321	196.95
838.498	182.61
838.674	151.89
838.851	242
839.027	141.65
839.203	145.75
839.38	149.84
839.556	235.86
839.732	186.71
839.909	219.47
840.085	108.88
840.261	108.88
840.437	174.42
840.614	133.46
840.79	164.18
840.966	145.75
841.142	141.65
841.318	108.88
841.494	184.66
841.671	201.04
841.847	43.35
842.023	133.46
842.199	184.66
842.375	188.75
842.551	119.12
842.727	172.37
842.903	231.76
843.079	158.03
843.255	190.8
843.431	170.32
843.607	155.99
843.783	117.08
843.959	188.75
844.134	110.93
844.31	151.89
844.486	104.79
844.662	51.54
844.838	141.65
845.013	117.08
845.189	131.41
845.365	174.42
845.541	133.46
845.716	47.44
845.892	127.32
846.068	129.36
846.244	123.22
846.419	18.77
846.595	76.12
846.77	106.84
846.946	166.23
847.122	84.31
847.297	172.37
847.473	229.71
847.648	90.45
847.824	153.94
847.999	92.5
848.175	100.69
848.35	121.17
848.526	149.84
848.701	135.51
848.876	129.36
849.052	164.18
849.227	119.12
849.403	100.69
849.578	125.27
849.753	145.75
849.929	106.84
850.104	51.54
850.279	117.08
850.454	102.74
850.63	166.23
850.805	147.8
850.98	92.5
851.155	164.18
851.33	164.18
851.505	133.46
851.681	162.13
851.856	65.88
852.031	100.69
852.206	131.41
852.381	123.22
852.556	104.79
852.731	96.6
852.906	115.03
853.081	151.89
853.256	135.51
853.431	117.08
853.606	35.16
853.781	47.44
853.956	-42.67
854.131	108.88
854.305	10.58
854.48	115.03
854.655	10.58
854.83	-26.28
855.005	31.06
855.18	129.36
855.354	119.12
855.529	84.31
855.704	2.39
855.879	125.27
856.053	47.44
856.228	67.92
856.403	76.12
856.577	88.4
856.752	100.69
856.926	47.44
857.101	22.87
857.276	49.49
857.45	92.5
857.625	110.93
857.799	57.68
857.974	98.64
858.148	125.27
858.323	59.73
858.497	80.21
858.672	47.44
858.846	51.54
859.02	137.56
859.195	106.84
859.369	22.87
859.543	72.02
859.718	153.94
859.892	84.31
860.066	92.5
860.241	-5.8
860.415	18.77
860.589	96.6
860.763	63.83
860.938	96.6
861.112	90.45
861.286	49.49
861.46	33.11
861.634	117.08
861.808	129.36
861.982	61.78
862.157	24.92
862.331	67.92
862.505	-3.75
862.679	4.44
862.853	18.77
863.027	14.68
863.201	84.31
863.375	33.11
863.549	76.12
863.722	96.6
863.896	127.32
864.07	43.35
864.244	51.54
864.418	96.6
864.592	47.44
864.766	26.96
864.939	72.02
865.113	92.5
865.287	121.17
865.461	8.53
865.634	76.12
865.808	16.73
865.982	-34.47
866.156	-20.14
866.329	14.68
866.503	59.73
866.676	76.12
866.85	18.77
867.024	82.26
867.197	129.36
867.371	63.83
867.544	80.21
867.718	43.35
867.891	-22.19
868.065	-3.75
868.238	37.2
868.412	125.27
868.585	84.31
868.759	86.36
868.932	12.63
869.105	-22.19
869.279	24.92
869.452	69.97
869.625	90.45
869.799	39.25
869.972	0.34
870.145	24.92
870.319	106.84
870.492	51.54
870.665	26.96
870.838	43.35
871.011	-26.28
871.185	-9.9
871.358	74.07
871.531	72.02
871.704	49.49
871.877	67.92
872.05	47.44
872.223	47.44
872.396	84.31
872.569	108.88
872.742	14.68
872.915	-5.8
873.088	31.06
873.261	4.44
873.434	63.83
873.607	26.96
873.78	51.54
873.953	-16.04
874.126	2.39
874.299	76.12
874.471	84.31
874.644	22.87
874.817	84.31
874.99	63.83
875.163	-38.57
875.335	61.78
875.508	-1.71
875.681	84.31
875.853	-36.52
876.026	31.06
876.199	67.92
876.371	57.68
876.544	10.58
876.717	41.3
876.889	41.3
877.062	22.87
877.234	-9.9
877.407	22.87
877.579	31.06
877.752	-1.71
877.924	72.02
878.097	18.77
878.269	65.88
878.442	65.88
878.614	82.26
878.786	82.26
878.959	37.2
879.131	4.44
879.303	-38.57
879.476	18.77
879.648	82.26
879.82	43.35
879.993	18.77
880.165	39.25
880.337	39.25
880.509	-34.47
880.681	-91.82
880.854	35.16
881.026	115.03
881.198	84.31
881.37	98.64
881.542	37.2
881.714	-9.9
881.886	-22.19
882.058	35.16
882.23	55.64
882.402	31.06
882.574	-7.85
882.746	0.34
882.918	57.68
883.09	10.58
883.262	45.4
883.434	41.3
883.606	-69.29
883.778	8.53
883.95	88.4
884.122	-54.95
884.293	106.84
884.465	31.06
884.637	59.73
884.809	98.64
884.98	63.83
885.152	26.96
885.324	49.49
885.496	45.4
885.667	2.39
885.839	16.73
886.011	80.21
886.182	35.16
886.354	-9.9
886.525	18.77
886.697	55.64
886.869	49.49
887.04	-20.14
887.212	57.68
887.383	180.56
887.555	-1.71
887.726	24.92
887.897	67.92
888.069	8.53
888.24	24.92
888.412	-71.34
888.583	-22.19
888.754	37.2
888.926	-13.99
889.097	-5.8
889.268	-22.19
889.44	-7.85
889.611	-46.76
889.782	53.59
889.953	80.21
890.125	49.49
890.296	-28.33
890.467	-5.8
890.638	-16.04
890.809	55.64
890.98	-36.52
891.151	-5.8
891.323	69.97
891.494	18.77
891.665	-11.95
891.836	84.31
892.007	55.64
892.178	-32.43
892.349	26.96
892.52	0.34
892.691	61.78
892.862	-13.99
893.032	-28.33
893.203	-59.05
893.374	63.83
893.545	67.92
893.716	-3.75
893.887	102.74
894.057	2.39
894.228	-22.19
894.399	12.63
894.57	59.73
894.74	14.68
894.911	80.21
895.082	-3.75
895.253	-59.05
895.423	59.73
895.594	-13.99
895.764	16.73
895.935	-44.71
896.106	80.21
896.276	-44.71
896.447	-46.76
896.617	-52.91
896.788	37.2
896.958	59.73
897.129	-38.57
897.299	31.06
897.47	96.6
897.64	47.44
897.81	-18.09
897.981	35.16
898.151	-73.39
898.322	67.92
898.492	0.34
898.662	-73.39
898.832	35.16
899.003	88.4
899.173	72.02
899.343	-48.81
899.513	-18.09
