Data from USB4F104151__85__11-32-00-802.txt Node

Date: Fri Mar 14 11:32:00 EDT 2025
User: louis
Spectrometer: USB4F10415
Trigger mode: 4
Integration Time (sec): 5.000000E-2
Scans to average: 1
Electric dark correction enabled: true
Nonlinearity correction enabled: false
Boxcar width: 0
XAxis mode: Wavelengths
Number of Pixels in Spectrum: 3648
>>>>>Begin Spectral Data<<<<<
178.204	-154.45
178.424	-154.45
178.644	-154.45
178.864	-121.68
179.084	-189.27
179.304	17.58
179.524	-27.48
179.744	31.91
179.964	62.63
180.184	17.58
180.404	-25.43
180.624	5.29
180.844	-27.48
181.064	-50
181.283	-15.19
181.503	-50
181.723	60.59
181.943	-11.09
182.163	93.35
182.383	-82.77
182.602	113.83
182.822	68.78
183.042	19.63
183.262	17.58
183.482	-17.24
183.701	23.72
183.921	27.82
184.141	-15.19
184.361	48.3
184.58	17.58
184.8	76.97
185.02	46.25
185.239	87.21
185.459	36.01
185.679	72.87
185.898	38.06
186.118	83.11
186.338	25.77
186.557	119.98
186.777	74.92
186.997	-7
187.216	40.11
187.436	99.5
187.655	95.4
187.875	56.49
188.095	21.67
188.314	23.72
188.534	52.39
188.753	1.19
188.973	72.87
189.192	113.83
189.412	138.41
189.631	23.72
189.851	13.48
190.07	66.73
190.29	1.19
190.509	79.02
190.729	17.58
190.948	111.78
191.168	113.83
191.387	23.72
191.607	-23.38
191.826	66.73
192.045	1.19
192.265	58.54
192.484	62.63
192.704	56.49
192.923	-41.81
193.142	95.4
193.362	7.34
193.581	126.12
193.8	42.15
194.02	13.48
194.239	74.92
194.458	42.15
194.678	-23.38
194.897	1.19
195.116	36.01
195.335	5.29
195.555	15.53
195.774	40.11
195.993	-43.86
196.212	56.49
196.432	74.92
196.651	42.15
196.87	3.24
197.089	83.11
197.308	70.83
197.528	76.97
197.747	-4.95
197.966	7.34
198.185	132.26
198.404	7.34
198.623	99.5
198.842	124.07
199.062	81.07
199.281	91.31
199.5	1.19
199.719	89.26
199.938	58.54
200.157	128.17
200.376	122.02
200.595	29.87
200.814	58.54
201.033	38.06
201.252	85.16
201.471	70.83
201.69	70.83
201.909	70.83
202.128	64.68
202.347	50.35
202.566	60.59
202.785	56.49
203.004	-7
203.223	113.83
203.442	42.15
203.661	19.63
203.879	124.07
204.098	95.4
204.317	99.5
204.536	66.73
204.755	-15.19
204.974	62.63
205.193	56.49
205.411	138.41
205.63	66.73
205.849	48.3
206.068	31.91
206.287	9.39
206.505	126.12
206.724	62.63
206.943	25.77
207.162	13.48
207.381	-7
207.599	-43.86
207.818	72.87
208.037	115.88
208.255	11.43
208.474	40.11
208.693	81.07
208.911	111.78
209.13	42.15
209.349	87.21
209.567	46.25
209.786	83.11
210.005	97.45
210.223	87.21
210.442	-23.38
210.661	64.68
210.879	17.58
211.098	38.06
211.316	52.39
211.535	-11.09
211.753	25.77
211.972	115.88
212.191	-11.09
212.409	81.07
212.628	85.16
212.846	31.91
213.065	74.92
213.283	50.35
213.502	64.68
213.72	-56.15
213.938	48.3
214.157	-11.09
214.375	91.31
214.594	40.11
214.812	95.4
215.031	23.72
215.249	-25.43
215.467	42.15
215.686	38.06
215.904	52.39
216.122	-15.19
216.341	107.69
216.559	99.5
216.778	140.46
216.996	105.64
217.214	-43.86
217.432	83.11
217.651	33.96
217.869	42.15
218.087	50.35
218.306	1.19
218.524	89.26
218.742	23.72
218.96	48.3
219.179	-2.9
219.397	109.74
219.615	132.26
219.833	9.39
220.051	-7
220.27	38.06
220.488	50.35
220.706	15.53
220.924	-21.33
221.142	58.54
221.36	72.87
221.578	70.83
221.796	76.97
222.015	17.58
222.233	40.11
222.451	122.02
222.669	111.78
222.887	17.58
223.105	64.68
223.323	74.92
223.541	-45.91
223.759	48.3
223.977	33.96
224.195	50.35
224.413	1.19
224.631	93.35
224.849	13.48
225.067	109.74
225.285	23.72
225.503	64.68
225.721	-74.58
225.939	-35.67
226.157	74.92
226.375	144.55
226.592	23.72
226.81	33.96
227.028	29.87
227.246	97.45
227.464	31.91
227.682	33.96
227.9	74.92
228.117	58.54
228.335	21.67
228.553	79.02
228.771	54.44
228.989	83.11
229.206	21.67
229.424	42.15
229.642	40.11
229.86	13.48
230.077	79.02
230.295	-0.85
230.513	113.83
230.731	46.25
230.948	87.21
231.166	33.96
231.384	-47.96
231.601	31.91
231.819	79.02
232.037	19.63
232.254	-43.86
232.472	-2.9
232.689	48.3
232.907	95.4
233.125	15.53
233.342	-9.05
233.56	42.15
233.777	-17.24
233.995	9.39
234.213	25.77
234.43	42.15
234.648	7.34
234.865	31.91
235.083	64.68
235.3	95.4
235.518	74.92
235.735	113.83
235.953	132.26
236.17	17.58
236.388	-23.38
236.605	1.19
236.822	115.88
237.04	7.34
237.257	99.5
237.475	13.48
237.692	31.91
237.909	38.06
238.127	5.29
238.344	-7
238.562	7.34
238.779	42.15
238.996	-86.87
239.214	48.3
239.431	89.26
239.648	-7
239.865	42.15
240.083	48.3
240.3	1.19
240.517	25.77
240.735	-15.19
240.952	115.88
241.169	56.49
241.386	99.5
241.603	-7
241.821	66.73
242.038	81.07
242.255	15.53
242.472	1.19
242.689	21.67
242.907	169.13
243.124	42.15
243.341	70.83
243.558	42.15
243.775	9.39
243.992	-76.63
244.209	33.96
244.426	74.92
244.643	117.93
244.86	-13.14
245.078	42.15
245.295	60.59
245.512	23.72
245.729	15.53
245.946	58.54
246.163	21.67
246.38	33.96
246.597	46.25
246.814	46.25
247.031	103.59
247.248	91.31
247.464	7.34
247.681	48.3
247.898	56.49
248.115	150.7
248.332	25.77
248.549	46.25
248.766	54.44
248.983	81.07
249.2	38.06
249.417	68.78
249.633	-9.05
249.85	115.88
250.067	46.25
250.284	13.48
250.501	66.73
250.717	107.69
250.934	58.54
251.151	46.25
251.368	33.96
251.585	58.54
251.801	66.73
252.018	52.39
252.235	42.15
252.451	29.87
252.668	62.63
252.885	74.92
253.102	1.19
253.318	66.73
253.535	9.39
253.752	87.21
253.968	7.34
254.185	97.45
254.401	17.58
254.618	1.19
254.835	-25.43
255.051	111.78
255.268	89.26
255.484	103.59
255.701	15.53
255.917	46.25
256.134	50.35
256.351	119.98
256.567	54.44
256.784	29.87
257	-39.76
257.217	19.63
257.433	23.72
257.65	83.11
257.866	74.92
258.082	87.21
258.299	38.06
258.515	40.11
258.732	72.87
258.948	21.67
259.165	83.11
259.381	1.19
259.597	50.35
259.814	7.34
260.03	-0.85
260.246	33.96
260.463	62.63
260.679	113.83
260.895	54.44
261.112	115.88
261.328	66.73
261.544	23.72
261.761	40.11
261.977	50.35
262.193	3.24
262.409	33.96
262.626	179.37
262.842	68.78
263.058	17.58
263.274	99.5
263.49	95.4
263.707	17.58
263.923	74.92
264.139	50.35
264.355	15.53
264.571	44.2
264.787	66.73
265.004	105.64
265.22	136.36
265.436	-52.05
265.652	1.19
265.868	89.26
266.084	29.87
266.3	124.07
266.516	-15.19
266.732	126.12
266.948	25.77
267.164	17.58
267.38	81.07
267.596	113.83
267.812	33.96
268.028	91.31
268.244	-41.81
268.46	130.22
268.676	-66.39
268.892	68.78
269.108	64.68
269.324	87.21
269.54	42.15
269.756	165.03
269.972	15.53
270.188	126.12
270.403	-23.38
270.619	74.92
270.835	44.2
271.051	74.92
271.267	-0.85
271.483	5.29
271.698	-9.05
271.914	107.69
272.13	48.3
272.346	95.4
272.562	56.49
272.777	105.64
272.993	15.53
273.209	56.49
273.425	83.11
273.64	-33.62
273.856	56.49
274.072	29.87
274.287	58.54
274.503	9.39
274.719	56.49
274.934	33.96
275.15	50.35
275.366	21.67
275.581	17.58
275.797	-0.85
276.012	79.02
276.228	74.92
276.444	7.34
276.659	95.4
276.875	66.73
277.09	40.11
277.306	-15.19
277.521	25.77
277.737	19.63
277.952	79.02
278.168	33.96
278.383	33.96
278.599	42.15
278.814	93.35
279.03	17.58
279.245	124.07
279.461	17.58
279.676	29.87
279.892	7.34
280.107	-4.95
280.322	-9.05
280.538	50.35
280.753	11.43
280.969	89.26
281.184	13.48
281.399	105.64
281.615	15.53
281.83	54.44
282.045	-11.09
282.26	56.49
282.476	11.43
282.691	38.06
282.906	-15.19
283.122	58.54
283.337	19.63
283.552	109.74
283.767	11.43
283.983	66.73
284.198	81.07
284.413	-54.1
284.628	13.48
284.843	5.29
285.058	33.96
285.274	25.77
285.489	19.63
285.704	40.11
285.919	62.63
286.134	7.34
286.349	-33.62
286.564	91.31
286.779	50.35
286.995	68.78
287.21	66.73
287.425	66.73
287.64	42.15
287.855	62.63
288.07	38.06
288.285	31.91
288.5	64.68
288.715	29.87
288.93	85.16
289.145	25.77
289.36	83.11
289.575	7.34
289.79	58.54
290.004	-23.38
290.219	124.07
290.434	72.87
290.649	3.24
290.864	99.5
291.079	15.53
291.294	72.87
291.509	-2.9
291.724	33.96
291.938	38.06
292.153	136.36
292.368	13.48
292.583	70.83
292.798	87.21
293.012	91.31
293.227	48.3
293.442	25.77
293.657	54.44
293.871	29.87
294.086	50.35
294.301	33.96
294.516	25.77
294.73	70.83
294.945	70.83
295.16	-13.14
295.374	68.78
295.589	29.87
295.804	-23.38
296.018	76.97
296.233	58.54
296.447	23.72
296.662	-7
296.877	21.67
297.091	117.93
297.306	91.31
297.52	-37.72
297.735	17.58
297.949	74.92
298.164	56.49
298.378	93.35
298.593	-23.38
298.807	33.96
299.022	60.59
299.236	181.42
299.451	21.67
299.665	79.02
299.88	-0.85
300.094	91.31
300.309	52.39
300.523	79.02
300.737	-11.09
300.952	31.91
301.166	66.73
301.381	60.59
301.595	58.54
301.809	66.73
302.024	15.53
302.238	38.06
302.452	107.69
302.667	70.83
302.881	93.35
303.095	29.87
303.309	5.29
303.524	33.96
303.738	-2.9
303.952	50.35
304.166	83.11
304.381	9.39
304.595	167.08
304.809	31.91
305.023	38.06
305.237	38.06
305.452	19.63
305.666	136.36
305.88	70.83
306.094	1.19
306.308	42.15
306.522	70.83
306.736	91.31
306.95	62.63
307.164	15.53
307.379	15.53
307.593	89.26
307.807	17.58
308.021	33.96
308.235	79.02
308.449	15.53
308.663	13.48
308.877	25.77
309.091	58.54
309.305	15.53
309.519	13.48
309.733	66.73
309.947	-52.05
310.161	68.78
310.374	-15.19
310.588	83.11
310.802	21.67
311.016	48.3
311.23	7.34
311.444	31.91
311.658	13.48
311.872	50.35
312.085	66.73
312.299	7.34
312.513	50.35
312.727	48.3
312.941	38.06
313.154	74.92
313.368	25.77
313.582	99.5
313.796	-0.85
314.009	33.96
314.223	72.87
314.437	107.69
314.651	91.31
314.864	38.06
315.078	64.68
315.292	103.59
315.505	21.67
315.719	72.87
315.933	99.5
316.146	21.67
316.36	9.39
316.573	107.69
316.787	17.58
317.001	25.77
317.214	74.92
317.428	62.63
317.641	17.58
317.855	42.15
318.068	70.83
318.282	33.96
318.495	99.5
318.709	74.92
318.922	128.17
319.136	107.69
319.349	42.15
319.563	9.39
319.776	42.15
319.99	3.24
320.203	48.3
320.417	83.11
320.63	74.92
320.843	54.44
321.057	91.31
321.27	52.39
321.483	89.26
321.697	74.92
321.91	58.54
322.124	40.11
322.337	87.21
322.55	17.58
322.763	66.73
322.977	76.97
323.19	9.39
323.403	19.63
323.617	119.98
323.83	89.26
324.043	52.39
324.256	64.68
324.469	-35.67
324.683	33.96
324.896	13.48
325.109	68.78
325.322	-7
325.535	93.35
325.748	60.59
325.962	42.15
326.175	40.11
326.388	58.54
326.601	117.93
326.814	50.35
327.027	134.31
327.24	64.68
327.453	33.96
327.666	74.92
327.879	103.59
328.092	87.21
328.305	99.5
328.518	81.07
328.731	-35.67
328.944	83.11
329.157	44.2
329.37	95.4
329.583	115.88
329.796	60.59
330.009	42.15
330.222	31.91
330.435	50.35
330.648	126.12
330.861	40.11
331.073	23.72
331.286	54.44
331.499	23.72
331.712	83.11
331.925	-23.38
332.138	17.58
332.35	140.46
332.563	48.3
332.776	27.82
332.989	-9.05
333.202	91.31
333.414	27.82
333.627	62.63
333.84	23.72
334.053	-35.67
334.265	17.58
334.478	23.72
334.691	21.67
334.903	85.16
335.116	97.45
335.329	15.53
335.541	85.16
335.754	138.41
335.966	-17.24
336.179	9.39
336.392	52.39
336.604	25.77
336.817	29.87
337.029	9.39
337.242	56.49
337.454	56.49
337.667	42.15
337.88	66.73
338.092	58.54
338.305	7.34
338.517	33.96
338.729	48.3
338.942	83.11
339.154	76.97
339.367	66.73
339.579	66.73
339.792	21.67
340.004	81.07
340.217	-31.57
340.429	13.48
340.641	-23.38
340.854	25.77
341.066	9.39
341.278	105.64
341.491	60.59
341.703	64.68
341.915	-41.81
342.128	66.73
342.34	27.82
342.552	38.06
342.764	62.63
342.977	44.2
343.189	62.63
343.401	-27.48
343.613	-9.05
343.826	89.26
344.038	46.25
344.25	-7
344.462	48.3
344.674	81.07
344.886	15.53
345.099	44.2
345.311	46.25
345.523	60.59
345.735	-2.9
345.947	50.35
346.159	79.02
346.371	95.4
346.583	-25.43
346.795	83.11
347.007	33.96
347.219	119.98
347.431	72.87
347.643	115.88
347.855	140.46
348.067	91.31
348.279	-37.72
348.491	83.11
348.703	74.92
348.915	1.19
349.127	31.91
349.339	124.07
349.551	-0.85
349.763	79.02
349.975	58.54
350.187	91.31
350.399	148.65
350.61	42.15
350.822	1.19
351.034	81.07
351.246	107.69
351.458	58.54
351.669	36.01
351.881	177.32
352.093	99.5
352.305	81.07
352.517	72.87
352.728	76.97
352.94	105.64
353.152	124.07
353.363	25.77
353.575	54.44
353.787	165.03
353.999	15.53
354.21	74.92
354.422	-4.95
354.633	42.15
354.845	46.25
355.057	33.96
355.268	68.78
355.48	132.26
355.692	50.35
355.903	48.3
356.115	19.63
356.326	64.68
356.538	66.73
356.749	66.73
356.961	62.63
357.172	38.06
357.384	25.77
357.595	140.46
357.807	-56.15
358.018	50.35
358.23	29.87
358.441	140.46
358.653	103.59
358.864	60.59
359.075	62.63
359.287	79.02
359.498	169.13
359.709	64.68
359.921	56.49
360.132	81.07
360.344	185.51
360.555	-93.01
360.766	83.11
360.977	42.15
361.189	97.45
361.4	91.31
361.611	99.5
361.823	130.22
362.034	89.26
362.245	25.77
362.456	72.87
362.667	42.15
362.879	17.58
363.09	46.25
363.301	128.17
363.512	74.92
363.723	83.11
363.935	25.77
364.146	-4.95
364.357	58.54
364.568	64.68
364.779	-9.05
364.99	68.78
365.201	15.53
365.412	107.69
365.623	1.19
365.834	62.63
366.045	-11.09
366.256	40.11
366.467	83.11
366.678	83.11
366.889	33.96
367.1	36.01
367.311	62.63
367.522	7.34
367.733	105.64
367.944	124.07
368.155	113.83
368.366	124.07
368.577	113.83
368.788	89.26
368.999	-7
369.209	11.43
369.42	169.13
369.631	181.42
369.842	56.49
370.053	-25.43
370.264	89.26
370.474	21.67
370.685	76.97
370.896	44.2
371.107	146.6
371.317	56.49
371.528	38.06
371.739	72.87
371.95	54.44
372.16	105.64
372.371	-15.19
372.582	74.92
372.792	27.82
373.003	79.02
373.214	117.93
373.424	70.83
373.635	-31.57
373.846	103.59
374.056	79.02
374.267	91.31
374.477	185.51
374.688	5.29
374.898	50.35
375.109	66.73
375.319	124.07
375.53	115.88
375.74	79.02
375.951	72.87
376.161	64.68
376.372	130.22
376.582	21.67
376.793	115.88
377.003	17.58
377.214	-2.9
377.424	111.78
377.635	25.77
377.845	115.88
378.055	91.31
378.266	-39.76
378.476	-2.9
378.686	17.58
378.897	66.73
379.107	79.02
379.317	-25.43
379.528	21.67
379.738	119.98
379.948	38.06
380.158	38.06
380.369	97.45
380.579	154.79
380.789	54.44
380.999	56.49
381.21	7.34
381.42	89.26
381.63	-11.09
381.84	113.83
382.05	126.12
382.261	167.08
382.471	89.26
382.681	109.74
382.891	99.5
383.101	56.49
383.311	13.48
383.521	-35.67
383.731	162.98
383.941	46.25
384.151	-11.09
384.361	111.78
384.571	140.46
384.781	124.07
384.991	111.78
385.201	160.94
385.411	132.26
385.621	56.49
385.831	56.49
386.041	136.36
386.251	42.15
386.461	64.68
386.671	91.31
386.881	54.44
387.091	52.39
387.301	68.78
387.511	42.15
387.72	107.69
387.93	79.02
388.14	-50
388.35	58.54
388.56	31.91
388.769	124.07
388.979	89.26
389.189	74.92
389.399	117.93
389.609	146.6
389.818	48.3
390.028	17.58
390.238	138.41
390.447	13.48
390.657	115.88
390.867	23.72
391.076	11.43
391.286	181.42
391.496	126.12
391.705	17.58
391.915	42.15
392.125	62.63
392.334	46.25
392.544	181.42
392.753	62.63
392.963	21.67
393.172	58.54
393.382	54.44
393.591	130.22
393.801	5.29
394.01	142.5
394.22	148.65
394.429	87.21
394.639	89.26
394.848	124.07
395.058	152.74
395.267	74.92
395.477	107.69
395.686	122.02
395.895	134.31
396.105	128.17
396.314	138.41
396.524	64.68
396.733	72.87
396.942	171.18
397.152	144.55
397.361	122.02
397.57	50.35
397.78	119.98
397.989	31.91
398.198	261.29
398.407	99.5
398.617	115.88
398.826	140.46
399.035	142.5
399.244	167.08
399.453	85.16
399.663	101.55
399.872	167.08
400.081	144.55
400.29	126.12
400.499	99.5
400.708	162.98
400.917	31.91
401.127	154.79
401.336	152.74
401.545	212.14
401.754	187.56
401.963	138.41
402.172	150.7
402.381	160.94
402.59	124.07
402.799	95.4
403.008	132.26
403.217	132.26
403.426	177.32
403.635	97.45
403.844	189.61
404.053	156.84
404.262	122.02
404.471	230.57
404.68	212.14
404.888	140.46
405.097	122.02
405.306	152.74
405.515	160.94
405.724	177.32
405.933	195.75
406.142	138.41
406.35	230.57
406.559	226.47
406.768	244.9
406.977	230.57
407.185	238.76
407.394	201.9
407.603	140.46
407.812	216.23
408.02	292.01
408.229	238.76
408.438	255.14
408.646	228.52
408.855	246.95
409.064	238.76
409.272	203.94
409.481	349.35
409.69	220.33
409.898	242.85
410.107	263.33
410.315	253.09
410.524	335.01
410.733	263.33
410.941	312.49
411.15	253.09
411.358	410.79
411.567	423.08
411.775	279.72
411.984	423.08
412.192	455.84
412.401	468.13
412.609	398.5
412.818	556.19
413.026	498.85
413.234	484.52
413.443	527.52
413.651	492.71
413.86	576.67
414.068	541.86
414.276	597.15
414.485	511.14
414.693	588.96
414.901	672.93
415.11	681.12
415.318	732.32
415.526	742.56
415.734	646.3
415.943	656.54
416.151	820.38
416.359	728.22
416.567	804
416.776	867.49
416.984	887.97
417.192	916.64
417.4	918.68
417.608	947.36
417.817	996.51
418.025	1049.75
418.233	1152.15
418.441	1023.13
418.649	1129.63
418.857	1176.73
419.065	1211.54
419.273	1166.49
419.481	1297.56
419.689	1365.14
419.897	1391.77
420.105	1385.62
420.313	1541.27
420.521	1514.64
420.729	1594.51
420.937	1580.18
421.145	1576.08
421.353	1690.77
421.561	1764.5
421.769	1721.49
421.977	1846.41
422.185	1815.69
422.393	2102.41
422.601	2053.26
422.809	2024.59
423.017	2176.14
423.224	2190.47
423.432	2331.78
423.64	2311.3
423.848	2391.17
424.056	2438.28
424.263	2581.64
424.471	2628.74
424.679	2636.93
424.887	2841.73
425.094	2917.5
425.302	3062.91
425.51	3009.66
425.718	3107.96
425.925	3212.41
426.133	3208.31
426.341	3488.89
426.548	3556.47
426.756	3652.72
426.964	3687.54
427.171	3884.14
427.379	3980.4
427.586	4013.17
427.794	4080.75
428.001	4351.08
428.209	4461.67
428.417	4533.35
428.624	4664.42
428.832	4789.35
429.039	4615.27
429.247	4684.9
429.454	5350.49
429.662	5545.05
429.869	5209.18
430.076	5499.99
430.284	5454.94
430.491	5766.23
430.699	6020.17
430.906	5985.36
431.114	5971.02
431.321	6132.81
431.528	6456.39
431.736	6687.81
431.943	6937.66
432.15	6968.38
432.358	6988.86
432.565	7255.1
432.772	7396.41
432.979	7605.3
433.187	7799.86
433.394	7797.81
433.601	8412.2
433.808	8440.87
434.016	8205.36
434.223	8762.4
434.43	9331.74
434.637	8827.94
434.844	9606.17
435.052	9788.44
435.259	9833.49
435.466	9864.21
435.673	9819.16
435.88	10542.09
436.087	10781.7
436.294	11056.13
436.501	10595.34
436.708	10863.62
436.915	11312.13
437.122	11885.56
437.329	11682.81
437.537	12182.51
437.743	12375.02
437.95	12018.68
438.157	12882.92
438.364	13298.66
438.571	13251.55
438.778	13210.59
438.985	14355.41
439.192	14025.68
439.399	14466
439.606	14052.31
439.813	14795.72
440.02	15645.63
440.227	15508.41
440.433	15354.82
440.64	15875
440.847	15836.09
441.054	16004.02
441.261	17064.87
441.467	17128.36
441.674	17499.04
441.881	17783.71
442.088	17802.14
442.294	17601.44
442.501	18140.05
442.708	18547.6
442.914	19151.75
443.121	20030.33
443.328	19862.4
443.534	21228.39
443.741	20224.89
443.948	20233.08
444.154	21494.63
444.361	21674.85
444.568	21613.41
444.774	21568.35
444.981	22102.87
445.187	22610.77
445.394	23470.92
445.6	23042.89
445.807	25266.99
446.013	24421.17
446.22	24650.55
446.426	25977.63
446.633	25969.44
446.839	26792.72
447.046	25842.46
447.252	26964.75
447.459	27226.89
447.665	27153.16
447.871	28154.62
448.078	29295.34
448.284	27998.98
448.491	28965.62
448.697	29563.62
448.903	30337.76
449.11	30221.02
449.316	30137.05
449.522	30591.7
449.728	31345.36
449.935	31361.74
450.141	31673.03
450.347	32129.73
450.553	30823.12
450.76	31541.96
450.966	32561.85
451.172	32058.05
451.378	32520.89
451.584	32133.82
451.791	32991.92
451.997	33024.69
452.203	33555.11
452.409	33725.1
452.615	33188.53
452.821	32111.3
453.027	31623.88
453.233	33862.31
453.44	31963.84
453.646	32680.63
453.852	32559.8
454.058	33200.82
454.264	31791.81
454.47	32418.49
454.676	31775.43
454.882	33118.9
455.088	30135.01
455.294	30462.68
455.5	31077.07
455.705	31365.84
455.911	30184.16
456.117	29256.43
456.323	28816.11
456.529	27761.41
456.735	28584.69
456.941	27816.71
457.147	27405.06
457.352	26403.61
457.558	26489.62
457.764	26254.11
457.97	25971.49
458.176	25461.54
458.381	25582.37
458.587	24019.77
458.793	24351.54
458.999	23104.33
459.204	24359.73
459.41	23614.27
459.616	22192.98
459.821	22209.37
460.027	22049.63
460.233	21508.96
460.438	20544.37
460.644	20845.42
460.85	19530.62
461.055	19696.51
461.261	19628.93
461.466	18205.59
461.672	17492.9
461.878	18684.81
462.083	17761.18
462.289	17007.53
462.494	17105.83
462.7	16243.63
462.905	15899.58
463.111	16479.15
463.316	16573.36
463.522	16249.78
463.727	15977.4
463.932	16124.85
464.138	15958.97
464.343	15819.71
464.549	15506.37
464.754	15862.71
464.959	15852.47
465.165	15721.4
465.37	15012.81
465.575	14709.71
465.781	15074.24
465.986	15401.92
466.191	14779.34
466.397	14447.57
466.602	14005.2
466.807	14466
467.012	14363.6
467.218	14136.27
467.423	14015.44
467.628	14101.46
467.833	14748.62
468.038	14152.66
468.244	13933.53
468.449	14453.71
468.654	14050.26
468.859	13738.97
469.064	13585.37
469.269	13181.92
469.474	13466.59
469.679	13419.49
469.885	13077.48
470.09	13157.35
470.295	13145.06
470.5	12874.73
470.705	12958.69
470.91	12841.96
471.115	12542.96
471.32	12667.88
471.525	12588.01
471.73	12473.32
471.935	12284.91
472.139	11793.4
472.344	11889.65
472.549	12033.01
472.754	12055.54
472.959	11553.79
473.164	11310.08
473.369	11181.06
473.574	11617.27
473.778	11467.77
473.983	11555.83
474.188	11254.78
474.393	10521.61
474.598	10920.96
474.802	10722.31
475.007	10619.91
475.212	10750.98
475.417	10193.94
475.621	10163.22
475.826	10267.66
476.031	10171.41
476.235	10087.44
476.44	9939.99
476.645	9837.59
476.849	10015.76
477.054	9823.25
477.259	9720.85
477.463	9749.53
477.668	9507.87
477.872	9514.01
478.077	9409.56
478.282	9159.71
478.486	9223.2
478.691	9073.7
478.895	9016.35
479.1	9034.78
479.304	8971.3
479.509	8395.82
479.713	8868.9
479.918	8680.49
480.122	8623.14
480.326	8932.39
480.531	8606.76
480.735	8340.52
480.94	8516.65
481.144	8662.05
481.348	8361
481.553	8510.5
481.757	8250.41
481.961	8459.31
482.166	8479.79
482.37	8354.86
482.574	8125.49
482.778	8361
482.983	8662.05
483.187	8250.41
483.391	8348.72
483.595	8274.99
483.8	8174.64
484.004	8201.26
484.208	8502.31
484.412	8383.53
484.616	8266.8
484.821	8414.25
485.025	8090.67
485.229	8332.33
485.433	8113.2
485.637	8326.19
485.841	8123.44
486.045	8344.62
486.249	8307.76
486.453	8205.36
486.657	8250.41
486.861	8334.38
487.065	8309.8
487.269	8299.56
487.473	8117.29
487.677	8533.03
487.881	8377.39
488.085	8287.28
488.289	8221.74
488.493	8158.25
488.697	8457.26
488.901	8252.46
489.105	8201.26
489.309	8135.73
489.512	8479.79
489.716	8342.57
489.92	8385.58
490.124	8291.37
490.328	8512.55
490.531	8412.2
490.735	8236.08
490.939	8582.18
491.143	8434.73
491.346	8520.74
491.55	8537.13
491.754	8608.81
491.958	8721.45
492.161	8647.72
492.365	8664.1
492.569	8567.85
492.772	8502.31
492.976	8766.5
493.18	8936.48
493.383	8854.56
493.587	8952.87
493.79	8993.83
493.994	9042.98
494.197	9028.64
494.401	9106.46
494.605	9182.24
494.808	9208.86
495.012	9290.78
495.215	9270.3
495.419	9425.95
495.622	9481.24
495.825	9620.5
496.029	9845.78
496.232	9667.61
496.436	9823.25
496.639	10202.13
496.843	9839.64
497.046	10152.98
497.249	10275.85
497.453	10218.51
497.656	10386.44
497.859	10380.3
498.063	10556.43
498.266	10900.48
498.469	10707.98
498.673	10800.13
498.876	10951.68
499.079	11049.99
499.282	10976.26
499.485	11400.19
499.689	11541.5
499.892	11777.01
500.095	11420.67
500.298	11787.25
500.501	11920.37
500.705	12094.45
500.908	12342.25
501.111	12379.12
501.314	12694.5
501.517	12665.83
501.72	12647.4
501.923	12710.89
502.126	12991.46
502.329	13304.8
502.532	13339.62
502.735	13257.7
502.938	13575.13
503.141	13698.01
503.344	13820.89
503.547	14064.6
503.75	14396.37
503.953	14615.5
504.156	14466
504.359	14693.32
504.562	14779.34
504.765	15168.45
504.968	15274.95
505.17	15367.1
505.373	15365.06
505.576	15631.29
505.779	15772.6
505.982	16026.55
506.185	16169.91
506.387	16268.21
506.59	16642.99
506.793	16976.81
506.996	16722.86
507.198	17159.08
507.401	17042.34
507.604	17331.11
507.807	17718.17
508.009	17826.71
508.212	17949.59
508.415	18523.02
508.617	18342.8
508.82	18545.55
509.022	18666.38
509.225	18992.01
509.428	19190.66
509.63	19280.77
509.833	19426.18
510.035	19952.51
510.238	20009.85
510.44	20048.76
510.643	20626.29
510.845	20714.35
511.048	20956.01
511.25	20968.3
511.453	21289.83
511.655	21932.89
511.858	21789.53
512.06	22209.37
512.262	21869.4
512.465	22453.08
512.667	22754.13
512.87	22684.5
513.072	23143.24
513.274	23505.73
513.477	23708.48
513.679	23939.9
513.881	24058.68
514.084	24603.44
514.286	24791.86
514.488	24978.22
514.69	25541.41
514.893	25660.2
515.095	26080.03
515.297	26247.96
515.499	26348.31
515.701	26624.79
515.904	26899.22
516.106	27331.34
516.308	27284.23
516.51	27843.33
516.712	27872
516.914	28383.99
517.116	28984.05
517.318	29412.07
517.52	29326.06
517.722	29725.41
517.925	29969.12
518.127	30360.28
518.329	30812.88
518.531	30837.46
518.733	31527.63
518.935	31883.97
519.136	31980.23
519.338	32236.22
519.54	32371.39
519.742	32850.61
519.944	33049.27
520.146	33721
520.348	33897.13
520.55	34146.98
520.752	34527.9
520.954	35185.3
521.155	34744.98
521.357	35523.21
521.559	35895.94
521.761	36823.67
521.963	36518.53
522.164	37071.48
522.366	37081.72
522.568	37780.07
522.77	37905
522.971	38414.94
523.173	38449.76
523.375	39070.29
523.576	39434.83
523.778	39557.71
523.98	39789.13
524.181	40319.56
524.383	40430.15
524.584	41022.01
524.786	41628.21
524.988	41167.41
525.189	41824.81
525.391	41882.16
525.592	42256.93
525.794	42590.75
525.995	42625.57
526.197	42787.36
526.398	43452.95
526.6	43909.64
526.801	43602.45
527.003	44237.32
527.204	44511.75
527.406	44886.53
527.607	44968.44
527.808	45576.69
528.01	44925.44
528.211	45713.91
528.412	46160.36
528.614	46240.23
528.815	46397.93
529.016	47266.27
529.218	46875.1
529.419	46868.96
529.62	47641.04
529.822	47147.48
530.023	47305.18
530.224	47501.78
530.425	47753.68
530.626	47352.28
530.828	47204.83
531.029	48828.87
531.23	47952.33
531.431	48232.91
531.632	48449.99
531.833	49015.23
532.035	49338.81
532.236	49017.28
532.437	49220.03
532.638	49129.92
532.839	49123.77
533.04	49543.61
533.241	49000.89
533.442	50270.64
533.643	49881.52
533.844	49754.55
534.045	49998.26
534.246	50047.41
534.447	50477.48
534.648	50018.74
534.849	50325.93
535.05	49852.85
535.251	50336.17
535.451	50497.96
535.652	50889.12
535.853	50448.81
536.054	50485.67
536.255	50794.92
536.456	50151.85
536.657	51059.1
536.857	50264.49
537.058	50702.76
537.259	51653.01
537.46	50647.46
537.66	50452.9
537.861	50913.7
538.062	50444.71
538.263	51112.35
538.463	50989.47
538.664	50784.68
538.865	51042.72
539.065	51675.54
539.266	50747.81
539.466	51022.24
539.667	50330.03
539.868	51597.72
540.068	50995.62
540.269	50966.94
540.469	51296.67
540.67	50792.87
540.87	51081.63
541.071	51149.21
541.271	51425.69
541.472	51149.21
541.672	50874.79
541.873	51212.7
542.073	50497.96
542.274	51384.73
542.474	51179.93
542.675	50981.28
542.875	51132.83
543.075	50768.29
543.276	50538.92
543.476	51716.5
543.676	50829.73
543.877	51472.79
544.077	51095.97
544.277	51106.21
544.478	50817.44
544.678	51169.69
544.878	51009.95
545.078	51349.92
545.279	50745.76
545.479	51018.14
545.679	51384.73
545.879	51145.12
546.079	51128.73
546.28	50829.73
546.48	50858.4
546.68	51210.65
546.88	51169.69
547.08	51007.9
547.28	50653.61
547.48	50524.58
547.68	50907.55
547.88	50612.65
548.081	51114.4
548.281	50952.61
548.481	50731.43
548.681	51478.94
548.881	51212.7
549.081	51138.97
549.28	50897.31
549.48	51474.84
549.68	51141.02
549.88	51882.39
550.08	50870.69
550.28	51442.07
550.48	50743.72
550.68	51116.45
550.88	51038.62
551.08	51069.34
551.279	50989.47
551.479	50809.25
551.679	50901.41
551.879	50731.43
552.079	51145.12
552.278	50399.66
552.478	50856.35
552.678	50833.83
552.878	50989.47
553.077	50825.64
553.277	50229.68
553.477	51382.68
553.676	50809.25
553.876	50571.69
554.076	50743.72
554.275	50082.22
554.475	49938.86
554.674	50661.8
554.874	50864.55
555.074	50137.52
555.273	50108.85
555.473	50354.6
555.672	50368.94
555.872	50221.48
556.071	49842.61
556.271	50411.95
556.47	49760.69
556.67	49494.46
556.869	50186.67
557.068	49834.42
557.268	49347
557.467	49449.4
557.667	49338.81
557.866	49238.46
558.065	49263.03
558.265	49152.44
558.464	48980.42
558.663	49600.95
558.863	48318.92
559.062	49027.52
559.261	48343.5
559.461	48886.21
559.66	48226.76
559.859	48419.27
560.058	48255.43
560.258	48519.62
560.457	48011.73
560.656	48036.3
560.855	47739.35
561.054	48220.62
561.253	47514.07
561.453	47696.34
561.652	47520.21
561.851	47944.14
562.05	46741.99
562.249	47131.1
562.448	47086.04
562.647	46823.9
562.846	46889.44
563.045	46737.89
563.244	46422.5
563.443	47135.2
563.642	45691.38
563.841	46141.93
564.04	45681.14
564.239	46180.84
564.438	45595.12
564.637	45781.49
564.836	45885.93
565.035	44968.44
565.234	45267.45
565.432	44833.28
565.631	44847.61
565.83	44993.02
566.029	44329.48
566.228	44403.21
566.427	43989.52
566.625	44323.33
566.824	43555.35
567.023	43774.48
567.222	43035.16
567.42	43715.09
567.619	43172.38
567.818	43172.38
568.016	42865.18
568.215	43301.4
568.414	42822.17
568.612	42787.36
568.811	42355.24
569.01	42306.09
569.208	41867.82
569.407	41929.26
569.605	41597.49
569.804	41869.87
570.002	41290.29
570.201	41155.13
570.4	40745.53
570.598	40831.55
570.797	40561.22
570.995	40286.79
571.193	40118.85
571.392	40786.49
571.59	40102.47
571.789	39832.14
571.987	39668.3
572.186	39717.45
572.384	39094.87
572.582	39479.89
572.781	38967.9
572.979	38359.65
573.177	39219.8
573.376	38988.38
573.574	38349.41
573.772	38476.38
573.971	38193.76
574.169	37591.66
574.367	37804.65
574.565	37796.46
574.763	37386.86
574.962	37624.43
575.16	36899.45
575.358	37608.04
575.556	36733.56
575.754	37134.96
575.952	36440.7
576.151	36891.26
576.349	36147.84
576.547	36489.85
576.745	36205.19
576.943	36272.77
577.141	36031.11
577.339	35924.61
577.537	35711.63
577.735	35502.73
577.933	35613.32
578.131	35588.75
578.329	35179.15
578.527	35144.34
578.725	35066.52
578.923	35306.13
579.121	34908.82
579.319	34742.94
579.516	34957.97
579.714	34286.24
579.912	34030.24
580.11	33966.76
580.308	33997.48
580.506	33807.01
580.704	33524.4
580.901	33823.4
581.099	33753.77
581.297	33555.11
581.495	33442.48
581.692	33385.13
581.89	33098.42
582.088	33372.85
582.285	32590.52
582.483	33118.9
582.681	32473.79
582.878	32823.99
583.076	32318.14
583.274	32467.64
583.471	31791.81
583.669	32336.57
583.866	31699.65
584.064	32205.5
584.262	31980.23
584.459	32123.58
584.657	31589.06
584.854	31754.95
585.052	30911.19
585.249	31156.94
585.447	31439.56
585.644	30800.6
585.841	31183.57
586.039	31320.78
586.236	30900.95
586.434	30536.41
586.631	30419.67
586.828	30216.93
587.026	30571.22
587.223	30206.69
587.42	30370.52
587.618	29932.26
587.815	29778.66
588.012	29614.82
588.21	29715.17
588.407	29971.17
588.604	29702.89
588.801	29528.81
588.999	29461.23
589.196	29293.29
589.393	29223.66
589.59	29059.82
589.787	28936.95
589.984	28924.66
590.182	28490.49
590.379	29049.58
590.576	28570.36
590.773	28715.76
590.97	28359.42
591.167	28416.76
591.364	28220.16
591.561	28400.38
591.758	27816.71
591.955	27996.93
592.152	28007.17
592.349	27663.11
592.546	27808.51
592.743	27689.73
592.94	27185.93
593.137	27405.06
593.334	27521.8
593.531	27095.82
593.727	27317
593.924	27265.8
594.121	26678.04
594.318	26995.47
594.515	26141.47
594.712	26895.12
594.908	26817.3
595.105	26700.56
595.302	26432.28
595.499	26424.09
595.696	26532.63
595.892	26082.08
596.089	26094.36
596.286	26227.48
596.482	25778.98
596.679	26000.16
596.876	25803.55
597.072	25723.68
597.269	25664.29
597.466	25344.81
597.662	25191.21
597.859	25422.63
598.055	25766.69
598.252	25291.56
598.448	25297.7
598.645	24867.63
598.841	25074.48
599.038	25043.76
599.234	25115.44
599.431	24834.86
599.627	24521.52
599.824	24832.82
600.02	24494.9
600.217	24527.67
600.413	24501.04
600.609	24320.82
600.806	24075.07
601.002	24183.61
601.198	23950.14
601.395	23794.5
601.591	23876.41
601.787	23843.65
601.984	23675.71
602.18	24007.48
602.376	23413.57
602.572	23302.98
602.769	23573.31
602.965	23108.43
603.161	23151.43
603.357	23255.88
603.553	23339.85
603.75	23266.12
603.946	23028.56
604.142	22971.21
604.338	22739.79
604.534	23006.03
604.73	22524.75
604.926	22424.4
605.122	22436.69
605.318	22264.66
605.514	22254.42
605.71	22369.11
605.906	22373.21
606.102	21965.66
606.298	21945.18
606.494	21703.52
606.69	22133.59
606.886	21541.73
607.082	21633.89
607.278	21705.57
607.474	21551.97
607.67	21857.12
607.866	21359.46
608.062	21535.59
608.257	21261.16
608.453	21291.88
608.649	21271.4
608.845	21128.04
609.041	21263.21
609.236	21197.67
609.432	21093.22
609.628	20982.63
609.824	20794.22
610.019	20689.77
610.215	20579.18
610.411	20947.82
610.606	20589.42
610.802	20849.52
610.998	20530.03
611.193	20652.91
611.389	20415.35
611.584	20349.81
611.78	20081.53
611.976	20476.79
612.171	20335.48
612.367	20194.17
612.562	20063.1
612.758	20108.15
612.953	19897.21
613.149	20296.56
613.344	19987.32
613.539	20241.27
613.735	19637.12
613.93	19739.52
614.126	19608.45
614.321	19766.14
614.517	19805.05
614.712	19563.39
614.907	19676.03
615.103	19714.94
615.298	19354.5
615.493	19471.23
615.688	19071.88
615.884	19743.61
616.079	18905.99
616.274	19372.93
616.47	19133.32
616.665	19260.29
616.86	19045.26
617.055	19114.89
617.25	18932.62
617.445	19166.09
617.641	18916.23
617.836	18983.82
618.031	18320.28
618.226	18740.11
618.421	18664.33
618.616	18762.64
618.811	18123.67
619.006	18629.52
619.201	18293.65
619.396	18248.6
619.591	17935.26
619.786	17972.12
619.981	17689.5
620.176	17953.69
620.371	17894.3
620.566	17920.92
620.761	17707.93
620.956	17806.23
621.151	17572.77
621.346	17558.43
621.541	17247.14
621.735	17462.18
621.93	16968.62
622.125	17187.75
622.32	16915.37
622.515	17296.29
622.709	16849.83
622.904	16833.45
623.099	16786.35
623.294	16802.73
623.488	16145.33
623.683	16507.82
623.878	16251.83
624.072	16075.7
624.267	16214.96
624.462	16108.47
624.656	15944.63
624.851	16145.33
625.046	15705.02
625.24	15721.4
625.435	15426.5
625.629	15666.11
625.824	15518.65
626.018	15461.31
626.213	15023.05
626.407	15346.62
626.602	15049.67
626.796	15244.23
626.991	15258.56
627.185	14939.08
627.38	14705.61
627.574	14789.58
627.768	14799.82
627.963	14732.23
628.157	14601.16
628.352	14750.67
628.546	14377.94
628.74	14357.46
628.935	14285.78
629.129	14236.63
629.323	14091.22
629.517	14056.4
629.712	14070.74
629.906	13638.62
630.1	13622.23
630.294	13911
630.489	13388.77
630.683	13734.87
630.877	13616.09
631.071	13470.69
631.265	13333.47
631.459	13345.76
631.653	13001.7
631.848	13063.14
632.042	13196.26
632.236	13102.05
632.43	12944.36
632.624	12997.6
632.818	12831.72
633.012	12616.68
633.206	12637.16
633.4	12887.01
633.594	12446.7
633.788	12547.05
633.982	12243.95
634.176	12354.54
634.369	12096.5
634.563	12186.61
634.757	12239.86
634.951	12196.85
635.145	11916.28
635.339	12100.59
635.533	11691
635.726	11977.72
635.92	11678.71
636.114	11723.77
636.308	11803.64
636.501	11410.43
636.695	11693.05
636.889	11379.71
637.083	11392
637.276	11105.28
637.47	10963.97
637.664	11199.49
637.857	11176.96
638.051	11074.56
638.244	11031.55
638.438	10920.96
638.632	11090.95
638.825	10830.85
639.019	10851.33
639.212	10492.94
639.406	10632.2
639.599	10581
639.793	10478.6
639.986	10263.57
640.18	10505.23
640.373	10503.18
640.567	10097.68
640.76	10191.89
640.954	10026
641.147	10249.23
641.34	9972.75
641.534	9868.31
641.727	10050.58
641.92	9985.04
642.114	9874.45
642.307	9833.49
642.5	9690.13
642.694	9382.94
642.887	9499.67
643.08	9530.39
643.273	9626.65
643.467	9384.99
643.66	9223.2
643.853	9223.2
644.046	9452.57
644.239	9167.9
644.432	8991.78
644.626	8991.78
644.819	9102.37
645.012	8918.05
645.205	9085.98
645.398	8772.64
645.591	8832.04
645.784	8627.24
645.977	8713.25
646.17	8674.34
646.363	8647.72
646.556	8537.13
646.749	8657.96
646.942	8627.24
647.135	8533.03
647.328	8475.69
647.521	8361
647.714	8270.89
647.907	8197.17
648.099	8152.11
648.292	8096.82
648.485	7965.75
648.678	7963.7
648.871	8119.34
649.064	7906.35
649.256	8135.73
649.449	7892.02
649.642	7908.4
649.835	7894.07
650.027	7883.83
650.22	7599.16
650.413	7695.41
650.605	7773.24
650.798	7726.13
650.991	7474.23
651.183	7572.54
651.376	7507
651.568	7492.66
651.761	7443.51
651.954	7625.78
652.146	7324.73
652.339	7433.27
652.531	7306.3
652.724	7269.44
652.916	7021.63
653.109	7205.95
653.301	7310.4
653.494	7382.07
653.686	6890.56
653.879	7287.87
654.071	6997.06
654.263	6933.57
654.456	6876.23
654.648	7050.3
654.84	7035.97
655.033	6798.4
655.225	7081.02
655.417	6759.49
655.61	6980.67
655.802	6779.97
655.994	6722.63
656.186	6759.49
656.379	6722.63
656.571	6589.51
656.763	6614.09
656.955	6675.52
657.148	6573.13
657.34	6661.19
657.532	6556.74
657.724	6478.92
657.916	6497.35
658.108	6233.16
658.3	6282.31
658.492	6298.7
658.684	6249.55
658.876	6450.25
659.068	6370.38
659.26	6224.97
659.452	6202.44
659.644	6216.78
659.836	6292.55
660.028	6153.29
660.22	5948.5
660.412	6237.26
660.604	5973.07
660.796	6028.37
660.988	5971.02
661.18	5987.41
661.372	6040.65
661.563	6030.41
661.755	6009.93
661.947	5909.58
662.139	5973.07
662.331	5932.11
662.522	5737.56
662.714	5928.02
662.906	5788.75
663.097	5792.85
663.289	5684.31
663.481	5631.06
663.673	5684.31
663.864	5661.78
664.056	5706.84
664.247	5739.6
664.439	5649.49
664.631	5633.11
664.822	5749.84
665.014	5694.55
665.205	5411.93
665.397	5516.37
665.588	5563.48
665.78	5567.57
665.971	5469.27
666.163	5612.63
666.354	5649.49
666.546	5440.6
666.737	5338.2
666.929	5432.41
667.12	5557.33
667.311	5342.3
667.503	5405.78
667.694	5413.98
667.885	5428.31
668.077	5463.13
668.268	5364.82
668.459	5502.04
668.651	5233.75
668.842	5278.81
669.033	5186.65
669.224	5334.11
669.416	5452.89
669.607	5309.53
669.798	5250.14
669.989	5352.54
670.18	5200.99
670.371	5342.3
670.563	5272.67
670.754	5264.47
670.945	5225.56
671.136	5307.48
671.327	5336.15
671.518	5176.41
671.709	5131.36
671.9	5246.04
672.091	5239.9
672.282	5225.56
672.473	5211.23
672.664	5350.49
672.855	5131.36
673.046	5241.95
673.237	5358.68
673.428	5178.46
673.619	5190.75
673.809	5094.49
674	5252.19
674.191	5217.37
674.382	5123.16
674.573	5203.04
674.764	5188.7
674.954	5407.83
675.145	5010.53
675.336	5317.72
675.527	5338.2
675.717	5151.84
675.908	5225.56
676.099	5276.76
676.289	5313.63
676.48	5319.77
676.671	5147.74
676.861	5315.67
677.052	5295.19
677.243	5213.28
677.433	5379.16
677.624	5356.63
677.814	5330.01
678.005	5311.58
678.195	5469.27
678.386	5424.22
678.576	5360.73
678.767	5375.06
678.957	5444.7
679.148	5461.08
679.338	5340.25
679.529	5317.72
679.719	5295.19
679.909	5426.26
680.1	5510.23
680.29	5741.65
680.481	5635.16
680.671	5577.81
680.861	5579.86
681.052	5663.83
681.242	5551.19
681.432	5614.68
681.622	5629.01
681.813	5551.19
682.003	5518.42
682.193	5583.96
682.383	5760.08
682.573	5659.73
682.764	5794.9
682.954	5751.89
683.144	5776.47
683.334	5532.76
683.524	5878.86
683.714	5712.98
683.904	5712.98
684.094	5837.91
684.284	5573.72
684.474	5899.34
684.664	5643.35
684.854	5739.6
685.044	5624.92
685.234	5526.61
685.424	5798.99
685.614	5538.9
685.804	5745.75
685.994	5694.55
686.184	5731.41
686.374	5758.03
686.564	5608.53
686.753	5741.65
686.943	5743.7
687.133	5766.23
687.323	5569.62
687.513	5469.27
687.702	5608.53
687.892	5571.67
688.082	5538.9
688.272	5565.53
688.461	5454.94
688.651	5528.66
688.841	5489.75
689.03	5538.9
689.22	5362.78
689.41	5403.74
689.599	5508.18
689.789	5506.13
689.979	5403.74
690.168	5385.3
690.358	5338.2
690.547	5250.14
690.737	5307.48
690.926	5289.05
691.116	5268.57
691.305	5233.75
691.495	5192.8
691.684	5170.27
691.874	5346.39
692.063	5186.65
692.252	5006.43
692.442	5246.04
692.631	5002.33
692.82	5112.92
693.01	4990.05
693.199	5047.39
693.388	5014.62
693.578	5127.26
693.767	5080.16
693.956	5094.49
694.146	5090.4
694.335	4973.66
694.524	5035.1
694.713	5043.29
694.902	4959.33
695.092	4961.37
695.281	4838.5
695.47	5108.83
695.659	4990.05
695.848	4967.52
696.037	5039.2
696.226	4875.36
696.415	4844.64
696.604	4955.23
696.793	5071.97
696.982	4920.42
697.171	5127.26
697.36	4990.05
697.549	4975.71
697.738	4942.94
697.927	5026.91
698.116	5039.2
698.305	4924.51
698.494	4852.83
698.683	4858.98
698.872	5108.83
699.061	4967.52
699.25	4992.09
699.438	5055.58
699.627	5043.29
699.816	5141.6
700.005	4983.9
700.193	4998.24
700.382	5121.12
700.571	4895.84
700.76	5059.68
700.948	5100.64
701.137	5184.6
701.326	5235.8
701.514	5186.65
701.703	5102.68
701.892	5168.22
702.08	5219.42
702.269	5194.84
702.457	5078.11
702.646	5129.31
702.834	4977.76
703.023	5203.04
703.212	5174.36
703.4	5272.67
703.589	5096.54
703.777	5217.37
703.965	5192.8
704.154	5129.31
704.342	5190.75
704.531	5137.5
704.719	5301.34
704.907	5272.67
705.096	5346.39
705.284	5291.1
705.472	5284.95
705.661	5418.07
705.849	5270.62
706.037	5289.05
706.226	5205.08
706.414	5401.69
706.602	5141.6
706.79	5317.72
706.979	5215.32
707.167	5391.45
707.355	5461.08
707.543	5465.18
707.731	5440.6
707.919	5360.73
708.107	5323.87
708.296	5321.82
708.484	5373.02
708.672	5526.61
708.86	5442.65
709.048	5375.06
709.236	5428.31
709.424	5600.34
709.612	5594.2
709.8	5508.18
709.988	5493.85
710.176	5512.28
710.364	5596.25
710.551	5586.01
710.739	5649.49
710.927	5561.43
711.115	5559.38
711.303	5545.05
711.491	5538.9
711.679	5665.88
711.866	5602.39
712.054	5571.67
712.242	5577.81
712.43	5858.39
712.617	5559.38
712.805	5686.36
712.993	5653.59
713.181	5485.65
713.368	5649.49
713.556	5649.49
713.744	5674.07
713.931	5874.77
714.119	5805.14
714.306	5798.99
714.494	5708.88
714.682	5762.13
714.869	5925.97
715.057	5823.57
715.244	5692.5
715.432	5977.17
715.619	5907.54
715.807	5790.8
715.994	5780.56
716.182	5954.64
716.369	5856.34
716.556	5934.16
716.744	5823.57
716.931	5932.11
717.119	5921.87
717.306	5942.35
717.493	5891.15
717.681	5905.49
717.868	6003.79
718.055	6009.93
718.242	6001.74
718.43	6063.18
718.617	5909.58
718.804	5964.88
718.991	6100.05
719.179	6014.03
719.366	5964.88
719.553	5987.41
719.74	5964.88
719.927	5899.34
720.114	5915.73
720.301	6071.37
720.488	6044.75
720.676	6044.75
720.863	6188.11
721.05	6165.58
721.237	6175.82
721.424	6057.04
721.611	6124.62
721.798	6167.63
721.985	5966.93
722.172	6046.8
722.358	6044.75
722.545	6216.78
722.732	5989.46
722.919	6120.53
723.106	6098
723.293	6083.66
723.48	6165.58
723.667	6159.44
723.853	5999.7
724.04	6216.78
724.227	6243.4
724.414	6282.31
724.6	6204.49
724.787	6184.01
724.974	6333.51
725.161	6231.12
725.347	6227.02
725.534	6292.55
725.72	6216.78
725.907	6331.47
726.094	6310.99
726.28	6210.64
726.467	6128.72
726.653	6347.85
726.84	6280.27
727.027	6343.75
727.213	6184.01
727.4	6321.23
727.586	6331.47
727.773	6179.92
727.959	6227.02
728.145	6323.27
728.332	6145.1
728.518	6186.06
728.705	6278.22
728.891	6284.36
729.077	6128.72
729.264	6407.24
729.45	6145.1
729.636	6300.75
729.823	6286.41
730.009	6151.24
730.195	6212.68
730.382	6259.79
730.568	6245.45
730.754	6366.28
730.94	6376.52
731.126	6356.04
731.313	6296.65
731.499	6231.12
731.685	6331.47
731.871	6276.17
732.057	6296.65
732.243	6300.75
732.429	6280.27
732.615	6118.48
732.801	6245.45
732.987	6116.43
733.173	6124.62
733.359	6175.82
733.545	6300.75
733.731	6163.53
733.917	6184.01
734.103	6118.48
734.289	6198.35
734.475	6173.77
734.661	6382.67
734.847	6204.49
735.033	6175.82
735.219	6259.79
735.404	6233.16
735.59	6343.75
735.776	6270.03
735.962	6157.39
736.148	6054.99
736.333	6169.68
736.519	6214.73
736.705	6214.73
736.89	6296.65
737.076	6247.5
737.262	6108.24
737.447	6026.32
737.633	6190.16
737.819	6163.53
738.004	6177.87
738.19	5993.55
738.375	6063.18
738.561	6065.23
738.747	5895.25
738.932	5952.59
739.118	6034.51
739.303	6179.92
739.489	5944.4
739.674	5889.1
739.859	5885.01
740.045	5798.99
740.23	5848.15
740.416	5831.76
740.601	5907.54
740.786	5979.22
740.972	5792.85
741.157	5784.66
741.342	5645.4
741.528	5870.67
741.713	5819.47
741.898	5723.22
742.084	5665.88
742.269	5866.58
742.454	5760.08
742.639	5684.31
742.824	5569.62
743.01	5624.92
743.195	5618.77
743.38	5620.82
743.565	5563.48
743.75	5676.12
743.935	5424.22
744.12	5825.62
744.305	5471.32
744.49	5282.91
744.675	5323.87
744.86	5325.91
745.045	5368.92
745.23	5350.49
745.415	5456.98
745.6	5268.57
745.785	5207.13
745.97	5266.52
746.155	5172.32
746.34	5145.69
746.525	5207.13
746.71	5086.3
746.895	5153.88
747.079	5149.79
747.264	4918.37
747.449	5071.97
747.634	4904.03
747.819	4916.32
748.003	4777.06
748.188	4897.89
748.373	4891.74
748.557	4949.09
748.742	4701.28
748.927	4775.01
749.111	4684.9
749.296	4645.99
749.481	4740.19
749.665	4752.48
749.85	4557.93
750.034	4582.5
750.219	4510.82
750.404	4476.01
750.588	4500.58
750.773	4437.09
750.957	4406.38
751.141	4420.71
751.326	4465.77
751.51	4369.51
751.695	4277.35
751.879	4172.91
752.064	4273.26
752.248	4306.02
752.432	4306.02
752.617	4150.38
752.801	4166.76
752.985	4060.27
753.17	4103.28
753.354	4037.74
753.538	4078.7
753.722	3939.44
753.907	4043.88
754.091	3867.76
754.275	3878
754.459	3718.26
754.643	3814.51
754.828	3720.31
755.012	3677.3
755.196	3841.14
755.38	3716.21
755.564	3646.58
755.748	3531.89
755.932	3515.51
756.116	3478.65
756.3	3540.08
756.484	3540.08
756.668	3415.16
756.852	3396.73
757.036	3376.25
757.22	3447.93
757.404	3368.06
757.588	3353.72
757.772	3353.72
757.956	3392.63
758.14	3302.52
758.323	3189.88
758.507	3300.47
758.691	3261.56
758.875	3261.56
759.059	3134.59
759.242	3331.19
759.426	3161.21
759.61	3150.97
759.794	3277.94
759.977	3142.78
760.161	3097.72
760.345	3015.8
760.528	3034.24
760.712	3015.8
760.895	3075.2
761.079	2901.12
761.263	2868.35
761.446	2897.02
761.63	2921.6
761.813	2864.25
761.997	2890.88
762.18	2768
762.364	2888.83
762.547	2888.83
762.731	2757.76
762.914	2729.09
763.098	2743.42
763.281	2745.47
763.464	2778.24
763.648	2645.12
763.831	2573.44
764.015	2743.42
764.198	2618.5
764.381	2763.9
764.564	2624.64
764.748	2653.31
764.931	2681.99
765.114	2552.96
765.297	2598.02
765.481	2522.24
765.664	2649.22
765.847	2563.2
766.03	2669.7
766.213	2520.2
766.397	2454.66
766.58	2579.59
766.763	2569.35
766.946	2464.9
767.129	2397.32
767.312	2509.96
767.495	2423.94
767.678	2352.26
767.861	2444.42
768.044	2296.97
768.227	2389.13
768.41	2372.74
768.593	2403.46
768.776	2442.37
768.959	2315.4
769.142	2385.03
769.324	2266.25
769.507	2176.14
769.69	2204.81
769.873	2258.06
770.056	2266.25
770.239	2184.33
770.421	2253.96
770.604	2165.9
770.787	2147.47
770.97	2157.71
771.152	2151.56
771.335	2163.85
771.518	2192.52
771.7	2110.6
771.883	2155.66
772.066	2030.73
772.248	2106.51
772.431	2071.69
772.613	2008.2
772.796	2075.79
772.978	2106.51
773.161	2126.99
773.343	1950.86
773.526	1959.05
773.708	1965.2
773.891	2024.59
774.073	1954.96
774.256	1934.48
774.438	1987.72
774.621	1854.61
774.803	1875.09
774.985	1881.23
775.168	1858.7
775.35	1735.82
775.532	1805.46
775.715	1758.35
775.897	1827.98
776.079	1799.31
776.261	1801.36
776.444	1653.91
776.626	1805.46
776.808	1690.77
776.99	1647.76
777.173	1707.15
777.355	1719.44
777.537	1746.06
777.719	1684.62
777.901	1598.61
778.083	1500.31
778.265	1606.8
778.447	1567.89
778.629	1592.47
778.811	1623.19
778.993	1514.64
779.175	1586.32
779.357	1516.69
779.539	1481.88
779.721	1459.35
779.903	1574.03
780.085	1455.25
780.267	1496.21
780.449	1457.3
780.631	1426.58
780.812	1451.16
780.994	1387.67
781.176	1393.81
781.358	1334.42
781.54	1299.61
781.721	1410.2
781.903	1236.12
782.085	1381.53
782.267	1250.46
782.448	1318.04
782.63	1221.78
782.812	1295.51
782.993	1266.84
783.175	1262.74
783.357	1225.88
783.538	1334.42
783.72	1229.98
783.901	1217.69
784.083	1148.06
784.264	1213.59
784.446	1244.31
784.627	1197.21
784.809	1164.44
784.99	1131.67
785.172	1082.52
785.353	1129.63
785.535	1139.87
785.716	1059.99
785.897	1125.53
786.079	1139.87
786.26	1129.63
786.441	1064.09
786.623	1016.99
786.804	1135.77
786.985	1103
787.167	1035.42
787.348	1033.37
787.529	1094.81
787.71	1064.09
787.891	959.64
788.073	984.22
788.254	978.08
788.435	1035.42
788.616	1053.85
788.797	1012.89
788.978	986.27
789.159	900.25
789.34	967.84
789.522	836.77
789.703	861.34
789.884	939.16
790.065	830.62
790.246	998.56
790.427	904.35
790.607	902.3
790.788	937.12
790.969	754.85
791.15	892.06
791.331	746.66
791.512	806.05
791.693	859.29
791.874	861.34
792.054	914.59
792.235	824.48
792.416	818.33
792.597	775.33
792.778	820.38
792.958	804
793.139	726.18
793.32	785.57
793.5	836.77
793.681	828.57
793.862	804
794.042	697.5
794.223	771.23
794.404	820.38
794.584	728.22
794.765	828.57
794.945	746.66
795.126	767.13
795.306	775.33
795.487	736.42
795.667	795.81
795.848	744.61
796.028	775.33
796.209	795.81
796.389	787.61
796.57	738.46
796.75	681.12
796.93	629.92
797.111	607.39
797.291	652.45
797.471	662.69
797.652	685.22
797.832	611.49
798.012	722.08
798.192	631.97
798.373	654.5
798.553	607.39
798.733	679.07
798.913	638.11
799.093	656.54
799.274	599.2
799.454	650.4
799.634	672.93
799.814	627.87
799.994	625.83
800.174	664.74
800.354	640.16
800.534	591.01
800.714	591.01
800.894	599.2
801.074	584.87
801.254	517.28
801.434	695.46
801.614	664.74
801.794	607.39
801.974	1320.09
802.154	531.62
802.334	695.46
802.514	621.73
802.693	562.34
802.873	504.99
803.053	574.63
803.233	558.24
803.413	539.81
803.592	513.19
803.772	447.65
803.952	492.71
804.131	500.9
804.311	525.47
804.491	537.76
804.67	445.6
804.85	431.27
805.03	562.34
805.209	523.43
805.389	517.28
805.568	511.14
805.748	504.99
805.928	408.74
806.107	486.56
806.287	496.8
806.466	496.8
806.646	478.37
806.825	451.75
807.004	515.23
807.184	466.08
807.363	410.79
807.543	410.79
807.722	464.04
807.901	539.81
808.081	502.95
808.26	404.64
808.439	509.09
808.619	470.18
808.798	466.08
808.977	427.17
809.156	390.31
809.336	492.71
809.515	431.27
809.694	443.56
809.873	435.36
810.052	427.17
810.231	498.85
810.411	421.03
810.59	390.31
810.769	418.98
810.948	427.17
811.127	382.12
811.306	429.22
811.485	394.4
811.664	498.85
811.843	425.12
812.022	410.79
812.201	400.55
812.38	324.77
812.559	392.36
812.737	345.25
812.916	367.78
813.095	312.49
813.274	398.5
813.453	478.37
813.632	433.32
813.811	412.84
813.989	310.44
814.168	349.35
814.347	287.91
814.526	357.54
814.704	464.04
814.883	441.51
815.062	269.48
815.24	371.88
815.419	238.76
815.598	304.29
815.776	357.54
815.955	316.58
816.133	332.97
816.312	386.21
816.49	332.97
816.669	300.2
816.847	353.45
817.026	388.26
817.204	296.1
817.383	367.78
817.561	298.15
817.74	294.05
817.918	279.72
818.097	287.91
818.275	337.06
818.453	433.32
818.632	318.63
818.81	359.59
818.988	353.45
819.167	324.77
819.345	304.29
819.523	308.39
819.701	302.25
819.879	337.06
820.058	363.69
820.236	322.73
820.414	306.34
820.592	298.15
820.77	267.43
820.948	281.77
821.127	279.72
821.305	255.14
821.483	222.38
821.661	347.3
821.839	255.14
822.017	312.49
822.195	220.33
822.373	367.78
822.551	271.53
822.729	279.72
822.907	269.48
823.085	304.29
823.262	302.25
823.44	302.25
823.618	228.52
823.796	322.73
823.974	255.14
824.152	165.03
824.329	277.67
824.507	287.91
824.685	326.82
824.863	226.47
825.04	259.24
825.218	279.72
825.396	238.76
825.574	234.66
825.751	238.76
825.929	312.49
826.107	226.47
826.284	234.66
826.462	275.62
826.639	228.52
826.817	222.38
826.994	205.99
827.172	234.66
827.349	306.34
827.527	273.57
827.704	242.85
827.882	269.48
828.059	228.52
828.237	222.38
828.414	189.61
828.591	193.7
828.769	210.09
828.946	205.99
829.124	246.95
829.301	242.85
829.478	201.9
829.655	287.91
829.833	275.62
830.01	173.22
830.187	255.14
830.364	263.33
830.542	255.14
830.719	281.77
830.896	195.75
831.073	222.38
831.25	222.38
831.427	240.81
831.604	267.43
831.782	144.55
831.959	236.71
832.136	169.13
832.313	193.7
832.49	203.94
832.667	199.85
832.844	169.13
833.021	220.33
833.198	234.66
833.374	183.46
833.551	242.85
833.728	253.09
833.905	179.37
834.082	156.84
834.259	205.99
834.436	287.91
834.612	195.75
834.789	181.42
834.966	179.37
835.143	177.32
835.319	103.59
835.496	165.03
835.673	156.84
835.85	222.38
836.026	179.37
836.203	224.42
836.38	234.66
836.556	189.61
836.733	89.26
836.909	216.23
837.086	152.74
837.262	132.26
837.439	138.41
837.616	119.98
837.792	134.31
837.968	201.9
838.145	68.78
838.321	199.85
838.498	257.19
838.674	148.65
838.851	230.57
839.027	68.78
839.203	179.37
839.38	181.42
839.556	115.88
839.732	189.61
839.909	117.93
840.085	224.42
840.261	119.98
840.437	210.09
840.614	197.8
840.79	160.94
840.966	91.31
841.142	115.88
841.318	130.22
841.494	132.26
841.671	165.03
841.847	85.16
842.023	138.41
842.199	177.32
842.375	214.18
842.551	23.72
842.727	167.08
842.903	173.22
843.079	103.59
843.255	173.22
843.431	126.12
843.607	222.38
843.783	23.72
843.959	146.6
844.134	74.92
844.31	175.27
844.486	74.92
844.662	99.5
844.838	173.22
845.013	132.26
845.189	216.23
845.365	160.94
845.541	136.36
845.716	36.01
845.892	124.07
846.068	165.03
846.244	130.22
846.419	79.02
846.595	103.59
846.77	54.44
846.946	109.74
847.122	181.42
847.297	124.07
847.473	132.26
847.648	-0.85
847.824	101.55
847.999	89.26
848.175	50.35
848.35	83.11
848.526	136.36
848.701	74.92
848.876	113.83
849.052	185.51
849.227	97.45
849.403	62.63
849.578	83.11
849.753	60.59
849.929	66.73
850.104	33.96
850.279	144.55
850.454	107.69
850.63	136.36
850.805	60.59
850.98	31.91
851.155	66.73
851.33	205.99
851.505	58.54
851.681	91.31
851.856	33.96
852.031	113.83
852.206	70.83
852.381	56.49
852.556	89.26
852.731	60.59
852.906	113.83
853.081	91.31
853.256	128.17
853.431	42.15
853.606	85.16
853.781	58.54
853.956	7.34
854.131	85.16
854.305	25.77
854.48	91.31
854.655	40.11
854.83	38.06
855.005	66.73
855.18	113.83
855.354	42.15
855.529	126.12
855.704	48.3
855.879	154.79
856.053	91.31
856.228	113.83
856.403	40.11
856.577	140.46
856.752	89.26
856.926	62.63
857.101	97.45
857.276	60.59
857.45	64.68
857.625	107.69
857.799	38.06
857.974	50.35
858.148	31.91
858.323	54.44
858.497	5.29
858.672	31.91
858.846	68.78
859.02	148.65
859.195	33.96
859.369	76.97
859.543	74.92
859.718	87.21
859.892	83.11
860.066	25.77
860.241	64.68
860.415	66.73
860.589	105.64
860.763	89.26
860.938	107.69
861.112	83.11
861.286	-7
861.46	111.78
861.634	81.07
861.808	70.83
861.982	95.4
862.157	-11.09
862.331	54.44
862.505	31.91
862.679	7.34
862.853	23.72
863.027	62.63
863.201	128.17
863.375	64.68
863.549	60.59
863.722	66.73
863.896	72.87
864.07	74.92
864.244	44.2
864.418	21.67
864.592	89.26
864.766	13.48
864.939	74.92
865.113	91.31
865.287	15.53
865.461	68.78
865.634	48.3
865.808	64.68
865.982	9.39
866.156	33.96
866.329	-9.05
866.503	54.44
866.676	74.92
866.85	9.39
867.024	38.06
867.197	70.83
867.371	62.63
867.544	81.07
867.718	9.39
867.891	54.44
868.065	21.67
868.238	5.29
868.412	21.67
868.585	29.87
868.759	38.06
868.932	74.92
869.105	25.77
869.279	46.25
869.452	29.87
869.625	132.26
869.799	36.01
869.972	46.25
870.145	66.73
870.319	83.11
870.492	66.73
870.665	17.58
870.838	62.63
871.011	-4.95
871.185	-52.05
871.358	62.63
871.531	29.87
871.704	13.48
871.877	74.92
872.05	62.63
872.223	7.34
872.396	64.68
872.569	60.59
872.742	-23.38
872.915	1.19
873.088	-17.24
873.261	5.29
873.434	66.73
873.607	66.73
873.78	85.16
873.953	33.96
874.126	38.06
874.299	54.44
874.471	50.35
874.644	42.15
874.817	40.11
874.99	42.15
875.163	-64.34
875.335	46.25
875.508	-7
875.681	48.3
875.853	68.78
876.026	79.02
876.199	58.54
876.371	38.06
876.544	42.15
876.717	13.48
876.889	13.48
877.062	31.91
877.234	-15.19
877.407	33.96
877.579	99.5
877.752	23.72
877.924	29.87
878.097	68.78
878.269	105.64
878.442	66.73
878.614	105.64
878.786	1.19
878.959	42.15
879.131	33.96
879.303	-31.57
879.476	-2.9
879.648	60.59
879.82	48.3
879.993	66.73
880.165	66.73
880.337	42.15
880.509	42.15
880.681	64.68
880.854	27.82
881.026	38.06
881.198	162.98
881.37	83.11
881.542	33.96
881.714	9.39
881.886	5.29
882.058	48.3
882.23	33.96
882.402	23.72
882.574	9.39
882.746	124.07
882.918	5.29
883.09	105.64
883.262	-11.09
883.434	7.34
883.606	-31.57
883.778	29.87
883.95	97.45
884.122	-31.57
884.293	23.72
884.465	-64.34
884.637	70.83
884.809	-7
884.98	-9.05
885.152	9.39
885.324	81.07
885.496	7.34
885.667	25.77
885.839	68.78
886.011	33.96
886.182	66.73
886.354	42.15
886.525	93.35
886.697	124.07
886.869	1.19
887.04	66.73
887.212	38.06
887.383	113.83
887.555	48.3
887.726	42.15
887.897	33.96
888.069	23.72
888.24	9.39
888.412	23.72
888.583	-15.19
888.754	64.68
888.926	-29.52
889.097	-0.85
889.268	-2.9
889.44	48.3
889.611	7.34
889.782	-29.52
889.953	48.3
890.125	74.92
890.296	-47.96
890.467	-9.05
890.638	-2.9
890.809	70.83
890.98	-13.14
891.151	-41.81
891.323	113.83
891.494	70.83
891.665	33.96
891.836	25.77
892.007	9.39
892.178	9.39
892.349	-17.24
892.52	3.24
892.691	89.26
892.862	-33.62
893.032	33.96
893.203	17.58
893.374	19.63
893.545	156.84
893.716	-27.48
893.887	72.87
894.057	9.39
894.228	13.48
894.399	-17.24
894.57	103.59
894.74	74.92
894.911	83.11
895.082	52.39
895.253	17.58
895.423	-4.95
895.594	56.49
895.764	113.83
895.935	-35.67
896.106	-25.43
896.276	-13.14
896.447	1.19
896.617	-72.53
896.788	-25.43
896.958	5.29
897.129	-9.05
897.299	33.96
897.47	52.39
897.64	-0.85
897.81	42.15
897.981	29.87
898.151	23.72
898.322	79.02
898.492	58.54
898.662	-0.85
898.832	-15.19
899.003	-66.39
899.173	33.96
899.343	-29.52
899.513	3.24
