Data from USB4F104151__12__11-29-44-418.txt Node

Date: Fri Mar 14 11:29:44 EDT 2025
User: louis
Spectrometer: USB4F10415
Trigger mode: 4
Integration Time (sec): 5.000000E-2
Scans to average: 1
Electric dark correction enabled: true
Nonlinearity correction enabled: false
Boxcar width: 0
XAxis mode: Wavelengths
Number of Pixels in Spectrum: 3648
>>>>>Begin Spectral Data<<<<<
178.204	-93.35
178.424	-93.35
178.644	-93.35
178.864	-177.32
179.084	-154.79
179.304	27.48
179.524	9.05
179.744	-70.83
179.964	109.4
180.184	7
180.404	-9.39
180.624	13.14
180.844	-38.06
181.064	4.95
181.283	-36.01
181.503	-74.92
181.723	58.2
181.943	21.33
182.163	50
182.383	25.43
182.602	99.16
182.822	78.68
183.042	17.24
183.262	66.39
183.482	-44.2
183.701	13.14
183.921	37.72
184.141	4.95
184.361	123.73
184.58	13.14
184.8	11.09
185.02	76.63
185.239	101.2
185.459	66.39
185.679	93.01
185.898	-11.43
186.118	84.82
186.338	35.67
186.557	80.72
186.777	29.52
186.997	86.87
187.216	105.3
187.436	78.68
187.655	78.68
187.875	105.3
188.095	56.15
188.314	39.76
188.534	95.06
188.753	99.16
188.973	60.24
189.192	142.16
189.412	84.82
189.631	109.4
189.851	80.72
190.07	74.58
190.29	-19.63
190.509	17.24
190.729	29.52
190.948	21.33
191.168	248.66
191.387	84.82
191.607	-5.29
191.826	54.1
192.045	27.48
192.265	54.1
192.484	2.9
192.704	25.43
192.923	31.57
193.142	80.72
193.362	60.24
193.581	115.54
193.8	101.2
194.02	2.9
194.239	21.33
194.458	-27.82
194.678	-3.24
194.897	103.25
195.116	84.82
195.335	4.95
195.555	99.16
195.774	25.43
195.993	52.05
196.212	86.87
196.432	82.77
196.651	-11.43
196.87	11.09
197.089	78.68
197.308	62.29
197.528	111.44
197.747	39.76
197.966	27.48
198.185	84.82
198.404	-40.11
198.623	-21.67
198.842	68.44
199.062	93.01
199.281	29.52
199.5	-11.43
199.719	9.05
199.938	45.91
200.157	64.34
200.376	25.43
200.595	136.02
200.814	54.1
201.033	17.24
201.252	86.87
201.471	-21.67
201.69	43.86
201.909	54.1
202.128	93.01
202.347	66.39
202.566	19.29
202.785	-44.2
203.004	7
203.223	64.34
203.442	15.19
203.661	37.72
203.879	25.43
204.098	47.96
204.317	2.9
204.536	31.57
204.755	21.33
204.974	52.05
205.193	54.1
205.411	21.33
205.63	41.81
205.849	33.62
206.068	74.58
206.287	-13.48
206.505	140.12
206.724	2.9
206.943	13.14
207.162	39.76
207.381	19.29
207.599	-7.34
207.818	-15.53
208.037	95.06
208.255	27.48
208.474	68.44
208.693	27.48
208.911	2.9
209.13	54.1
209.349	64.34
209.567	21.33
209.786	74.58
210.005	37.72
210.223	52.05
210.442	-60.59
210.661	97.11
210.879	70.48
211.098	7
211.316	62.29
211.535	33.62
211.753	70.48
211.972	50
212.191	9.05
212.409	54.1
212.628	23.38
212.846	82.77
213.065	93.01
213.283	97.11
213.502	41.81
213.72	-9.39
213.938	27.48
214.157	62.29
214.375	27.48
214.594	70.48
214.812	127.83
215.031	31.57
215.249	17.24
215.467	93.01
215.686	60.24
215.904	80.72
216.122	52.05
216.341	113.49
216.559	76.63
216.778	35.67
216.996	37.72
217.214	-11.43
217.432	60.24
217.651	45.91
217.869	123.73
218.087	88.92
218.306	17.24
218.524	-19.63
218.742	-44.2
218.96	29.52
219.179	82.77
219.397	62.29
219.615	66.39
219.833	21.33
220.051	13.14
220.27	78.68
220.488	21.33
220.706	62.29
220.924	123.73
221.142	33.62
221.36	107.35
221.578	68.44
221.796	62.29
222.015	90.96
222.233	21.33
222.451	109.4
222.669	-19.63
222.887	64.34
223.105	-11.43
223.323	-19.63
223.541	-44.2
223.759	125.78
223.977	21.33
224.195	107.35
224.413	25.43
224.631	123.73
224.849	74.58
225.067	148.31
225.285	29.52
225.503	56.15
225.721	-13.48
225.939	54.1
226.157	136.02
226.375	99.16
226.592	62.29
226.81	17.24
227.028	101.2
227.246	199.51
227.464	52.05
227.682	52.05
227.9	50
228.117	86.87
228.335	19.29
228.553	43.86
228.771	93.01
228.989	84.82
229.206	-13.48
229.424	64.34
229.642	17.24
229.86	7
230.077	111.44
230.295	90.96
230.513	62.29
230.731	-17.58
230.948	64.34
231.166	7
231.384	-19.63
231.601	54.1
231.819	74.58
232.037	62.29
232.254	-27.82
232.472	47.96
232.689	11.09
232.907	68.44
233.125	86.87
233.342	25.43
233.56	-44.2
233.777	66.39
233.995	74.58
234.213	119.64
234.43	86.87
234.648	37.72
234.865	95.06
235.083	111.44
235.3	95.06
235.518	62.29
235.735	125.78
235.953	95.06
236.17	76.63
236.388	41.81
236.605	11.09
236.822	56.15
237.04	109.4
237.257	62.29
237.475	0.85
237.692	70.48
237.909	37.72
238.127	29.52
238.344	11.09
238.562	125.78
238.779	4.95
238.996	-46.25
239.214	21.33
239.431	148.31
239.648	25.43
239.865	54.1
240.083	27.48
240.3	45.91
240.517	-19.63
240.735	70.48
240.952	62.29
241.169	68.44
241.386	29.52
241.603	-19.63
241.821	54.1
242.038	109.4
242.255	93.01
242.472	43.86
242.689	33.62
242.907	76.63
243.124	27.48
243.341	41.81
243.558	-23.72
243.775	-33.96
243.992	9.05
244.209	37.72
244.426	78.68
244.643	60.24
244.86	-31.91
245.078	129.88
245.295	54.1
245.512	72.53
245.729	-56.49
245.946	84.82
246.163	103.25
246.38	64.34
246.597	-48.3
246.814	35.67
247.031	-7.34
247.248	29.52
247.464	9.05
247.681	35.67
247.898	90.96
248.115	58.2
248.332	-15.53
248.549	76.63
248.766	119.64
248.983	101.2
249.2	95.06
249.417	80.72
249.633	107.35
249.85	64.34
250.067	50
250.284	-7.34
250.501	78.68
250.717	66.39
250.934	13.14
251.151	-33.96
251.368	84.82
251.585	35.67
251.801	109.4
252.018	127.83
252.235	45.91
252.451	15.19
252.668	95.06
252.885	70.48
253.102	133.97
253.318	19.29
253.535	37.72
253.752	62.29
253.968	-11.43
254.185	2.9
254.401	62.29
254.618	111.44
254.835	68.44
255.051	93.01
255.268	109.4
255.484	31.57
255.701	21.33
255.917	103.25
256.134	4.95
256.351	25.43
256.567	35.67
256.784	54.1
257	19.29
257.217	43.86
257.433	29.52
257.65	113.49
257.866	31.57
258.082	60.24
258.299	45.91
258.515	74.58
258.732	41.81
258.948	-11.43
259.165	4.95
259.381	0.85
259.597	70.48
259.814	35.67
260.03	86.87
260.246	54.1
260.463	33.62
260.679	45.91
260.895	54.1
261.112	74.58
261.328	54.1
261.544	2.9
261.761	127.83
261.977	21.33
262.193	-46.25
262.409	9.05
262.626	54.1
262.842	103.25
263.058	27.48
263.274	142.16
263.49	74.58
263.707	111.44
263.923	21.33
264.139	84.82
264.355	52.05
264.571	93.01
264.787	45.91
265.004	64.34
265.22	27.48
265.436	-23.72
265.652	-31.91
265.868	84.82
266.084	21.33
266.3	78.68
266.516	78.68
266.732	25.43
266.948	78.68
267.164	52.05
267.38	93.01
267.596	4.95
267.812	52.05
268.028	105.3
268.244	74.58
268.46	60.24
268.676	103.25
268.892	101.2
269.108	47.96
269.324	11.09
269.54	9.05
269.756	29.52
269.972	45.91
270.188	70.48
270.403	70.48
270.619	-3.24
270.835	56.15
271.051	45.91
271.267	60.24
271.483	27.48
271.698	17.24
271.914	76.63
272.13	-15.53
272.346	95.06
272.562	-62.63
272.777	-1.19
272.993	97.11
273.209	29.52
273.425	125.78
273.64	43.86
273.856	107.35
274.072	50
274.287	45.91
274.503	52.05
274.719	45.91
274.934	86.87
275.15	-19.63
275.366	29.52
275.581	-42.15
275.797	54.1
276.012	-13.48
276.228	127.83
276.444	45.91
276.659	117.59
276.875	4.95
277.09	78.68
277.306	70.48
277.521	7
277.737	54.1
277.952	54.1
278.168	41.81
278.383	123.73
278.599	62.29
278.814	15.19
279.03	86.87
279.245	45.91
279.461	45.91
279.676	78.68
279.892	45.91
280.107	62.29
280.322	33.62
280.538	33.62
280.753	13.14
280.969	19.29
281.184	52.05
281.399	2.9
281.615	-19.63
281.83	25.43
282.045	74.58
282.26	39.76
282.476	29.52
282.691	58.2
282.906	-27.82
283.122	-36.01
283.337	74.58
283.552	78.68
283.767	37.72
283.983	97.11
284.198	17.24
284.413	101.2
284.628	103.25
284.843	62.29
285.058	95.06
285.274	68.44
285.489	-19.63
285.704	117.59
285.919	-19.63
286.134	93.01
286.349	15.19
286.564	-13.48
286.779	113.49
286.995	35.67
287.21	-40.11
287.425	25.43
287.64	35.67
287.855	115.54
288.07	82.77
288.285	119.64
288.5	54.1
288.715	86.87
288.93	45.91
289.145	21.33
289.36	93.01
289.575	45.91
289.79	76.63
290.004	84.82
290.219	95.06
290.434	11.09
290.649	35.67
290.864	88.92
291.079	-13.48
291.294	21.33
291.509	78.68
291.724	13.14
291.938	-3.24
292.153	23.38
292.368	-15.53
292.583	39.76
292.798	41.81
293.012	74.58
293.227	50
293.442	2.9
293.657	95.06
293.871	58.2
294.086	86.87
294.301	127.83
294.516	131.92
294.73	13.14
294.945	-15.53
295.16	93.01
295.374	115.54
295.589	68.44
295.804	13.14
296.018	15.19
296.233	66.39
296.447	64.34
296.662	54.1
296.877	60.24
297.091	47.96
297.306	68.44
297.52	84.82
297.735	93.01
297.949	125.78
298.164	76.63
298.378	37.72
298.593	25.43
298.807	-36.01
299.022	54.1
299.236	119.64
299.451	70.48
299.665	50
299.88	41.81
300.094	21.33
300.309	58.2
300.523	0.85
300.737	41.81
300.952	72.53
301.166	66.39
301.381	15.19
301.595	13.14
301.809	74.58
302.024	-7.34
302.238	43.86
302.452	41.81
302.667	33.62
302.881	111.44
303.095	88.92
303.309	43.86
303.524	54.1
303.738	7
303.952	4.95
304.166	47.96
304.381	13.14
304.595	133.97
304.809	82.77
305.023	31.57
305.237	82.77
305.452	21.33
305.666	23.38
305.88	86.87
306.094	66.39
306.308	-13.48
306.522	27.48
306.736	33.62
306.95	74.58
307.164	-40.11
307.379	9.05
307.593	93.01
307.807	109.4
308.021	35.67
308.235	-5.29
308.449	11.09
308.663	62.29
308.877	109.4
309.091	25.43
309.305	111.44
309.519	-36.01
309.733	86.87
309.947	2.9
310.161	95.06
310.374	107.35
310.588	19.29
310.802	0.85
311.016	54.1
311.23	82.77
311.444	43.86
311.658	-11.43
311.872	58.2
312.085	78.68
312.299	103.25
312.513	74.58
312.727	99.16
312.941	19.29
313.154	41.81
313.368	-9.39
313.582	45.91
313.796	70.48
314.009	43.86
314.223	74.58
314.437	90.96
314.651	25.43
314.864	115.54
315.078	29.52
315.292	33.62
315.505	39.76
315.719	62.29
315.933	27.48
316.146	60.24
316.36	31.57
316.573	109.4
316.787	99.16
317.001	70.48
317.214	43.86
317.428	78.68
317.641	50
317.855	52.05
318.068	-31.91
318.282	93.01
318.495	142.16
318.709	101.2
318.922	25.43
319.136	72.53
319.349	123.73
319.563	86.87
319.776	66.39
319.99	39.76
320.203	93.01
320.417	29.52
320.63	95.06
320.843	52.05
321.057	35.67
321.27	109.4
321.483	82.77
321.697	107.35
321.91	45.91
322.124	78.68
322.337	62.29
322.55	33.62
322.763	125.78
322.977	82.77
323.19	60.24
323.403	84.82
323.617	84.82
323.83	127.83
324.043	76.63
324.256	95.06
324.469	4.95
324.683	66.39
324.896	-5.29
325.109	74.58
325.322	45.91
325.535	136.02
325.748	150.36
325.962	29.52
326.175	107.35
326.388	21.33
326.601	54.1
326.814	74.58
327.027	4.95
327.24	156.5
327.453	-19.63
327.666	35.67
327.879	29.52
328.092	80.72
328.305	68.44
328.518	99.16
328.731	54.1
328.944	82.77
329.157	13.14
329.37	0.85
329.583	93.01
329.796	103.25
330.009	7
330.222	21.33
330.435	50
330.648	86.87
330.861	13.14
331.073	37.72
331.286	111.44
331.499	90.96
331.712	2.9
331.925	78.68
332.138	11.09
332.35	136.02
332.563	84.82
332.776	93.01
332.989	13.14
333.202	-15.53
333.414	70.48
333.627	45.91
333.84	21.33
334.053	62.29
334.265	47.96
334.478	76.63
334.691	25.43
334.903	54.1
335.116	11.09
335.329	68.44
335.541	21.33
335.754	181.07
335.966	84.82
336.179	95.06
336.392	82.77
336.604	76.63
336.817	119.64
337.029	2.9
337.242	90.96
337.454	45.91
337.667	-5.29
337.88	78.68
338.092	60.24
338.305	131.92
338.517	95.06
338.729	78.68
338.942	164.69
339.154	13.14
339.367	-17.58
339.579	43.86
339.792	11.09
340.004	74.58
340.217	99.16
340.429	152.4
340.641	27.48
340.854	82.77
341.066	58.2
341.278	62.29
341.491	226.13
341.703	74.58
341.915	62.29
342.128	131.92
342.34	125.78
342.552	-3.24
342.764	23.38
342.977	111.44
343.189	84.82
343.401	66.39
343.613	70.48
343.826	78.68
344.038	13.14
344.25	66.39
344.462	58.2
344.674	103.25
344.886	74.58
345.099	111.44
345.311	119.64
345.523	43.86
345.735	4.95
345.947	62.29
346.159	86.87
346.371	62.29
346.583	37.72
346.795	88.92
347.007	58.2
347.219	60.24
347.431	37.72
347.643	176.98
347.855	62.29
348.067	95.06
348.279	33.62
348.491	62.29
348.703	78.68
348.915	29.52
349.127	54.1
349.339	119.64
349.551	37.72
349.763	138.07
349.975	97.11
350.187	162.64
350.399	115.54
350.61	78.68
350.822	0.85
351.034	82.77
351.246	70.48
351.458	136.02
351.669	68.44
351.881	101.2
352.093	13.14
352.305	76.63
352.517	93.01
352.728	113.49
352.94	33.62
353.152	119.64
353.363	13.14
353.575	66.39
353.787	103.25
353.999	78.68
354.21	166.74
354.422	39.76
354.633	7
354.845	43.86
355.057	78.68
355.268	74.58
355.48	119.64
355.692	33.62
355.903	-3.24
356.115	103.25
356.326	15.19
356.538	111.44
356.749	93.01
356.961	101.2
357.172	66.39
357.384	17.24
357.595	138.07
357.807	54.1
358.018	37.72
358.23	76.63
358.441	138.07
358.653	62.29
358.864	41.81
359.075	123.73
359.287	95.06
359.498	142.16
359.709	101.2
359.921	86.87
360.132	41.81
360.344	107.35
360.555	39.76
360.766	152.4
360.977	95.06
361.189	70.48
361.4	103.25
361.611	125.78
361.823	86.87
362.034	66.39
362.245	0.85
362.456	56.15
362.667	68.44
362.879	29.52
363.09	95.06
363.301	72.53
363.512	45.91
363.723	127.83
363.935	70.48
364.146	109.4
364.357	82.77
364.568	136.02
364.779	27.48
364.99	123.73
365.201	99.16
365.412	86.87
365.623	66.39
365.834	64.34
366.045	103.25
366.256	70.48
366.467	58.2
366.678	95.06
366.889	60.24
367.1	45.91
367.311	131.92
367.522	62.29
367.733	86.87
367.944	129.88
368.155	25.43
368.366	78.68
368.577	90.96
368.788	82.77
368.999	97.11
369.209	90.96
369.42	131.92
369.631	160.59
369.842	54.1
370.053	82.77
370.264	45.91
370.474	-48.3
370.685	0.85
370.896	21.33
371.107	82.77
371.317	84.82
371.528	60.24
371.739	33.62
371.95	166.74
372.16	123.73
372.371	35.67
372.582	97.11
372.792	37.72
373.003	109.4
373.214	-23.72
373.424	29.52
373.635	21.33
373.846	97.11
374.056	50
374.267	123.73
374.477	103.25
374.688	-3.24
374.898	33.62
375.109	76.63
375.319	41.81
375.53	123.73
375.74	121.68
375.951	21.33
376.161	58.2
376.372	174.93
376.582	58.2
376.793	58.2
377.003	74.58
377.214	78.68
377.424	140.12
377.635	33.62
377.845	27.48
378.055	119.64
378.266	21.33
378.476	25.43
378.686	93.01
378.897	90.96
379.107	138.07
379.317	97.11
379.528	15.19
379.738	86.87
379.948	50
380.158	58.2
380.369	52.05
380.579	183.12
380.789	45.91
380.999	31.57
381.21	70.48
381.42	76.63
381.63	70.48
381.84	76.63
382.05	195.41
382.261	33.62
382.471	17.24
382.681	13.14
382.891	152.4
383.101	123.73
383.311	-7.34
383.521	97.11
383.731	82.77
383.941	115.54
384.151	127.83
384.361	17.24
384.571	80.72
384.781	109.4
384.991	123.73
385.201	191.31
385.411	148.31
385.621	54.1
385.831	115.54
386.041	115.54
386.251	117.59
386.461	70.48
386.671	107.35
386.881	84.82
387.091	37.72
387.301	117.59
387.511	88.92
387.72	107.35
387.93	74.58
388.14	47.96
388.35	93.01
388.56	158.55
388.769	115.54
388.979	50
389.189	17.24
389.399	125.78
389.609	78.68
389.818	121.68
390.028	127.83
390.238	97.11
390.447	78.68
390.657	93.01
390.867	9.05
391.076	78.68
391.286	160.59
391.496	111.44
391.705	78.68
391.915	133.97
392.125	170.83
392.334	76.63
392.544	136.02
392.753	45.91
392.963	101.2
393.172	176.98
393.382	29.52
393.591	168.79
393.801	66.39
394.01	154.45
394.22	90.96
394.429	74.58
394.639	113.49
394.848	140.12
395.058	168.79
395.267	76.63
395.477	158.55
395.686	160.59
395.895	140.12
396.105	111.44
396.314	76.63
396.524	125.78
396.733	84.82
396.942	154.45
397.152	230.23
397.361	115.54
397.57	97.11
397.78	127.83
397.989	140.12
398.198	150.36
398.407	133.97
398.617	174.93
398.826	142.16
399.035	148.31
399.244	101.2
399.453	176.98
399.663	158.55
399.872	181.07
400.081	160.59
400.29	160.59
400.499	156.5
400.708	109.4
400.917	93.01
401.127	125.78
401.336	90.96
401.545	275.28
401.754	240.47
401.963	205.65
402.172	101.2
402.381	62.29
402.59	150.36
402.799	176.98
403.008	275.28
403.217	152.4
403.426	183.12
403.635	144.21
403.844	150.36
404.053	193.36
404.262	160.59
404.471	244.56
404.68	113.49
404.888	168.79
405.097	166.74
405.306	133.97
405.515	133.97
405.724	250.71
405.933	250.71
406.142	222.03
406.35	285.52
406.559	238.42
406.768	232.27
406.977	306
407.185	201.55
407.394	240.47
407.603	217.94
407.812	265.04
408.02	297.81
408.229	310.1
408.438	283.47
408.646	246.61
408.855	332.62
409.064	279.38
409.272	273.23
409.481	328.53
409.69	291.66
409.898	326.48
410.107	361.3
410.315	314.19
410.524	389.97
410.733	422.73
410.941	394.06
411.15	394.06
411.358	406.35
411.567	492.37
411.775	475.98
411.984	420.69
412.192	349.01
412.401	525.13
412.609	590.67
412.818	521.04
413.026	521.04
413.234	578.38
413.443	586.57
413.651	541.52
413.86	588.62
414.068	695.11
414.276	676.68
414.485	715.59
414.693	734.03
414.901	678.73
415.11	832.33
415.318	797.51
415.526	811.85
415.734	750.41
415.943	910.15
416.151	955.21
416.359	955.21
416.567	994.12
416.776	1004.36
416.984	1041.22
417.192	1098.56
417.4	1143.62
417.608	1028.93
417.817	1160
418.025	1176.39
418.233	1340.22
418.441	1329.99
418.649	1323.84
418.857	1442.62
419.065	1512.25
419.273	1399.62
419.481	1590.08
419.689	1536.83
419.897	1698.62
420.105	1762.11
420.313	1684.28
420.521	1901.37
420.729	1856.31
420.937	1891.13
421.145	2007.86
421.353	1956.66
421.561	2245.43
421.769	2126.64
421.977	2179.89
422.185	2290.48
422.393	2407.22
422.601	2566.96
422.809	2513.71
423.017	2702.12
423.224	2679.6
423.432	2802.47
423.64	2845.48
423.848	2921.26
424.056	2949.93
424.263	3238.69
424.471	3191.59
424.679	3330.85
424.887	3568.41
425.094	3519.26
425.302	3523.36
425.51	3789.6
425.718	3740.44
425.925	3732.25
426.133	3998.49
426.341	4186.9
426.548	4322.07
426.756	4121.37
426.964	4471.57
427.171	4721.42
427.379	4686.61
427.586	4995.85
427.794	4977.42
428.001	5124.87
428.209	5550.85
428.417	5395.2
428.624	5649.15
428.832	5804.8
429.039	5675.77
429.247	5649.15
429.454	6204.15
429.662	6656.75
429.869	6333.17
430.076	6628.08
430.284	6570.74
430.491	6851.31
430.699	7082.73
430.906	7224.04
431.114	7187.18
431.321	7488.23
431.528	7738.08
431.736	8055.51
431.943	8598.23
432.15	8262.36
432.358	8227.54
432.565	8858.32
432.772	8915.66
432.979	9263.82
433.187	9558.72
433.394	9542.34
433.601	10058.43
433.808	10105.53
434.016	10107.58
434.223	10488.5
434.43	11186.86
434.637	10990.25
434.844	11514.53
435.052	11965.09
435.259	11760.29
435.466	11815.59
435.673	11711.14
435.88	12636.82
436.087	13388.43
436.294	13249.16
436.501	13032.08
436.708	13146.76
436.915	13513.35
437.122	14322.3
437.329	14365.31
437.537	14539.38
437.743	14695.03
437.95	14903.92
438.157	15596.14
438.364	16093.79
438.571	16050.78
438.778	16155.23
438.985	17488.46
439.192	17013.33
439.399	17662.54
439.606	17295.95
439.813	17990.21
440.02	19386.93
440.227	19046.96
440.433	18766.39
440.64	19501.61
440.847	19313.2
441.054	19700.26
441.261	20900.37
441.467	20654.62
441.674	20830.74
441.881	21977.61
442.088	21672.46
442.294	21639.69
442.501	22600.19
442.708	22753.79
442.914	23941.61
443.121	24525.28
443.328	24144.36
443.534	25854.41
443.741	24943.06
443.948	24547.81
444.154	26292.68
444.361	26300.87
444.568	26556.86
444.774	26356.16
444.981	26589.63
445.187	27902.38
445.394	28588.45
445.6	28445.09
445.807	30673.28
446.013	29989.26
446.22	29899.15
446.426	31320.44
446.633	32119.15
446.839	32948.57
447.046	31412.6
447.252	33761.62
447.459	33429.85
447.665	33145.18
447.871	34474.31
448.078	36059.44
448.284	34269.51
448.491	34971.97
448.697	36458.79
448.903	37216.54
449.11	37372.19
449.316	36821.28
449.522	37159.2
449.728	38557.96
449.935	38666.5
450.141	38576.39
450.347	39379.2
450.553	38486.28
450.76	38330.64
450.966	40091.89
451.172	39426.3
451.378	40343.79
451.584	39336.19
451.791	40390.89
451.997	40321.26
452.203	41105.63
452.409	40863.97
452.615	41054.43
452.821	39274.75
453.027	38881.54
453.233	40661.22
453.44	39149.82
453.646	39430.4
453.852	39432.44
454.058	40399.08
454.264	38658.31
454.47	40016.11
454.676	38926.6
454.882	40268.01
455.088	36794.66
455.294	37226.78
455.5	37605.66
455.705	37921.04
455.911	36049.2
456.117	35580.21
456.323	35258.68
456.529	33288.54
456.735	34441.54
456.941	33947.98
457.147	33347.93
457.352	32426.34
457.558	32110.96
457.764	32053.61
457.97	31259
458.176	30714.24
458.381	30615.94
458.587	29188.5
458.793	28883.36
458.999	27558.32
459.204	29628.82
459.41	28645.79
459.616	26587.58
459.821	27072.95
460.027	26735.04
460.233	26298.82
460.438	25100.76
460.644	25045.46
460.85	23929.32
461.055	23822.83
461.261	23593.45
461.466	21746.19
461.672	21258.77
461.878	22600.19
462.083	21340.69
462.289	20773.4
462.494	20740.63
462.7	20171.3
462.905	19067.44
463.111	19819.05
463.316	19771.94
463.522	19384.88
463.727	19661.35
463.932	19372.59
464.138	19161.65
464.343	19300.91
464.549	18817.59
464.754	19290.67
464.959	19331.63
465.165	19089.97
465.37	18051.65
465.575	17715.78
465.781	18524.73
465.986	18473.53
466.191	17967.68
466.397	17640.01
466.602	16730.71
466.807	17529.42
467.012	17265.23
467.218	17322.57
467.423	16908.88
467.628	17220.17
467.833	17939.01
468.038	17125.97
468.244	16933.46
468.449	17584.71
468.654	16812.63
468.859	16800.34
469.064	16738.9
469.269	15852.13
469.474	16005.73
469.679	16523.87
469.885	15954.53
470.09	16171.61
470.295	15979.11
470.5	15446.63
470.705	15669.86
470.91	15413.87
471.115	15192.69
471.32	15434.35
471.525	15186.54
471.73	14989.94
471.935	14924.4
472.139	14185.08
472.344	14398.07
472.549	14422.65
472.754	14402.17
472.959	14215.8
473.164	13738.63
473.369	13505.16
473.574	14029.44
473.778	13675.14
473.983	13849.22
474.188	13707.91
474.393	13148.81
474.598	13105.81
474.802	12972.69
475.007	13083.28
475.212	12888.72
475.417	12348.06
475.621	12436.12
475.826	12386.97
476.031	12018.33
476.235	12090.01
476.44	11958.94
476.645	12022.43
476.849	11754.15
477.054	11598.5
477.259	11670.18
477.463	11768.48
477.668	11326.12
477.872	11504.29
478.077	11164.33
478.282	10752.69
478.486	10695.35
478.691	10758.83
478.895	10758.83
479.1	10836.66
479.304	10742.45
479.509	10451.64
479.713	10744.5
479.918	10371.77
480.122	10285.75
480.326	10425.01
480.531	10422.97
480.735	10232.51
480.94	10062.52
481.144	10701.49
481.348	10076.86
481.553	10207.93
481.757	9941.69
481.961	10126.01
482.166	10310.33
482.37	9857.73
482.574	9949.89
482.778	10072.76
482.983	10265.27
483.187	9999.04
483.391	10087.1
483.595	9726.66
483.8	9917.12
484.004	9958.08
484.208	10173.11
484.412	9904.83
484.616	10054.33
484.821	9937.6
485.025	9798.34
485.229	10146.49
485.433	9958.08
485.637	9945.79
485.841	9915.07
486.045	9870.01
486.249	10128.06
486.453	9902.78
486.657	10007.23
486.861	9794.24
487.065	9528
487.269	9964.22
487.473	9874.11
487.677	9927.36
487.881	10250.94
488.085	10054.33
488.289	10042.04
488.493	9964.22
488.697	10220.22
488.901	10218.17
489.105	9970.37
489.309	10070.72
489.512	10060.48
489.716	10035.9
489.92	10072.76
490.124	9953.98
490.328	10257.08
490.531	10076.86
490.735	10339
490.939	10295.99
491.143	10044.09
491.346	10345.14
491.55	10449.59
491.754	10431.16
491.958	10367.67
492.161	10216.12
492.365	10519.22
492.569	10482.36
492.772	10498.74
492.976	10463.93
493.18	10668.72
493.383	10713.78
493.587	10889.9
493.79	10842.8
493.994	10842.8
494.197	10924.72
494.401	11023.02
494.605	11104.94
494.808	11309.74
495.012	11362.98
495.215	11258.54
495.419	11473.57
495.622	11340.46
495.825	11524.77
496.029	11522.73
496.232	11813.54
496.436	11764.39
496.639	12204.7
496.843	12034.72
497.046	12317.34
497.249	12493.46
497.453	12440.22
497.656	12503.7
497.859	12536.47
498.063	12573.33
498.266	13128.33
498.469	13070.99
498.673	13027.98
498.876	13413
499.079	13423.24
499.282	13513.35
499.485	13939.33
499.689	14137.98
499.892	14199.42
500.095	14113.41
500.298	14447.22
500.501	14434.94
500.705	14641.78
500.908	15090.29
501.111	14830.2
501.314	15170.16
501.517	15393.39
501.72	15346.28
501.923	15231.6
502.126	15762.02
502.329	16134.75
502.532	15770.21
502.735	16013.92
502.938	16300.64
503.141	16814.68
503.344	16845.4
503.547	16874.07
503.75	17066.58
503.953	17482.31
504.156	17445.45
504.359	17582.67
504.562	17646.15
504.765	18188.86
504.968	18233.92
505.17	18430.52
505.373	18502.2
505.576	19114.55
505.779	19077.68
505.982	19157.55
506.185	19556.91
506.387	19814.95
506.59	19657.26
506.793	20167.2
506.996	20156.96
507.198	20847.13
507.401	20544.03
507.604	21037.59
507.807	21195.28
508.009	21312.02
508.212	21514.77
508.415	21893.64
508.617	22249.99
508.82	22147.59
509.022	22155.78
509.225	22639.1
509.428	22919.67
509.63	23423.47
509.833	23474.67
510.035	23933.42
510.238	23478.77
510.44	23962.09
510.643	24359.39
510.845	24465.89
511.048	24650.21
511.25	25176.53
511.453	25043.42
511.655	26059.21
511.858	25354.71
512.06	25944.52
512.262	26454.47
512.465	26468.8
512.667	26601.92
512.87	26991.03
513.072	26962.36
513.274	27609.52
513.477	27918.76
513.679	28072.36
513.881	28508.58
514.084	28510.63
514.286	28705.18
514.488	29014.43
514.69	29428.12
514.893	29987.21
515.095	29839.76
515.297	30192.01
515.499	30300.55
515.701	30945.66
515.904	31263.1
516.106	31396.21
516.308	31617.39
516.51	32033.13
516.712	32272.74
516.914	32508.26
517.116	33216.86
517.318	32991.58
517.52	33599.83
517.722	33096.03
517.925	34072.91
518.127	34236.75
518.329	34552.13
518.531	34769.22
518.733	35223.87
518.935	35598.65
519.136	35805.49
519.338	36272.43
519.54	36540.71
519.742	36464.94
519.944	37067.04
520.146	38000.91
520.348	37853.46
520.55	38029.59
520.752	38189.33
520.954	39207.17
521.155	38627.59
521.357	39590.14
521.559	39551.23
521.761	40509.68
521.963	40255.73
522.164	40921.32
522.366	40909.03
522.568	41261.28
522.77	41201.89
522.971	42490.06
523.173	41953.49
523.375	42438.86
523.576	42215.63
523.778	42549.45
523.98	43573.44
524.181	43614.4
524.383	43647.16
524.584	44304.56
524.786	44529.84
524.988	44300.47
525.189	44935.34
525.391	45437.09
525.592	45449.38
525.794	45600.93
525.995	45865.11
526.197	46102.68
526.398	46342.29
526.6	46850.19
526.801	46989.45
527.003	47212.68
527.204	47577.22
527.406	47691.9
527.607	47483.01
527.808	48660.59
528.01	47954.04
528.211	48412.79
528.412	48859.24
528.614	48873.58
528.815	48957.55
529.016	49389.67
529.218	49096.81
529.419	49297.51
529.62	49918.04
529.822	49789.02
530.023	49645.66
530.224	49848.41
530.425	50358.36
530.626	49766.49
530.828	49729.63
531.029	50978.89
531.23	50280.53
531.431	50714.7
531.632	50878.54
531.833	50876.49
532.035	51167.3
532.236	51028.04
532.437	51312.71
532.638	51189.83
532.839	51482.69
533.04	52023.36
533.241	51253.32
533.442	52435
533.643	52043.84
533.844	52318.26
534.045	51902.53
534.246	51763.26
534.447	52490.29
534.648	52095.03
534.849	52365.37
535.05	51669.06
535.251	52283.45
535.451	52191.29
535.652	52631.6
535.853	52529.2
536.054	52361.27
536.255	52447.29
536.456	52273.21
536.657	53057.58
536.857	52357.17
537.058	52265.02
537.259	52766.77
537.46	52490.29
537.66	52250.68
537.861	53033
538.062	52320.31
538.263	52852.78
538.463	52727.86
538.664	52887.6
538.865	52299.83
539.065	52891.69
539.266	52494.39
539.466	52652.08
539.667	52074.55
539.868	53184.55
540.068	52836.4
540.269	52824.11
540.469	52983.85
540.67	52959.28
540.87	52312.12
541.071	52707.38
541.271	53076.01
541.472	52369.46
541.672	52463.67
541.873	52627.51
542.073	52246.58
542.274	53176.36
542.474	52873.26
542.675	52656.18
542.875	52969.52
543.075	52887.6
543.276	52238.39
543.476	52959.28
543.676	52586.55
543.877	52607.03
544.077	52754.48
544.277	52324.41
544.478	52496.44
544.678	52914.22
544.878	52500.53
545.078	52725.81
545.279	52592.69
545.479	52688.95
545.679	52668.47
545.879	52449.33
546.079	52451.38
546.28	52308.02
546.48	52193.34
546.68	52979.76
546.88	52377.65
547.08	52443.19
547.28	52219.96
547.48	52369.46
547.68	52537.4
547.88	52158.52
548.081	52361.27
548.281	52830.26
548.481	52355.13
548.681	52838.45
548.881	52230.2
549.081	52312.12
549.28	52129.85
549.48	52469.81
549.68	52004.92
549.88	52715.57
550.08	52320.31
550.28	52727.86
550.48	52142.14
550.68	52385.85
550.88	52148.28
551.08	52437.05
551.279	52758.58
551.479	52037.69
551.679	52273.21
551.879	52389.94
552.079	52400.18
552.278	51980.35
552.478	52119.61
552.678	51849.28
552.878	52510.77
553.077	51871.81
553.277	51693.63
553.477	52672.56
553.676	51976.25
553.876	51978.3
554.076	51566.66
554.275	51564.61
554.475	51740.74
554.674	51890.24
554.874	51537.99
555.074	51558.47
555.273	51910.72
555.473	51576.9
555.672	51593.28
555.872	51497.03
556.071	51531.84
556.271	51337.29
556.47	51161.16
556.67	50452.56
556.869	50866.25
557.068	50784.33
557.268	50948.17
557.467	50880.59
557.667	50749.52
557.866	50927.69
558.065	50493.52
558.265	50258.01
558.464	50407.51
558.663	51001.42
558.863	49913.95
559.062	50731.09
559.261	49823.84
559.461	50169.94
559.66	49145.96
559.859	49725.53
560.058	49457.25
560.258	49821.79
560.457	49231.97
560.656	49848.41
560.855	49078.38
561.054	49338.47
561.253	48717.93
561.453	49301.61
561.652	49043.56
561.851	49039.47
562.05	48674.93
562.249	48556.14
562.448	48699.5
562.647	48289.91
562.846	47966.33
563.045	48367.73
563.244	47644.8
563.443	48222.33
563.642	47515.78
563.841	47452.29
564.04	47077.51
564.239	47939.71
564.438	47126.66
564.637	47104.13
564.836	47138.95
565.035	46655.63
565.234	47167.62
565.432	46442.64
565.631	46362.77
565.83	46610.57
566.029	46549.14
566.228	46123.16
566.427	45840.54
566.625	45349.03
566.824	45009.06
567.023	45600.93
567.222	44853.42
567.42	45643.93
567.619	45422.75
567.818	44812.46
568.016	44890.28
568.215	44912.81
568.414	44284.08
568.612	44765.35
568.811	43894.97
569.01	44306.61
569.208	43573.44
569.407	43804.86
569.605	43460.8
569.804	44185.78
570.002	43528.38
570.201	43561.15
570.4	43104.45
570.598	42713.29
570.797	43036.87
570.995	42873.03
571.193	42432.72
571.392	42631.37
571.59	42125.52
571.789	42148.05
571.987	41881.81
572.186	42023.12
572.384	41631.96
572.582	42113.23
572.781	41615.58
572.979	41081.06
573.177	41279.71
573.376	41232.61
573.574	40673.51
573.772	41009.38
573.971	40409.32
574.169	40225.01
574.367	40081.65
574.565	40663.27
574.763	39913.72
574.962	39854.33
575.16	39549.18
575.358	39631.1
575.556	39168.26
575.754	39758.07
575.952	39241.98
576.151	39321.85
576.349	38770.95
576.547	38613.26
576.745	38951.17
576.943	38797.57
577.141	38652.17
577.339	39045.38
577.537	38603.02
577.735	38197.52
577.933	37538.07
578.131	38076.69
578.329	37595.42
578.527	37484.83
578.725	37658.9
578.923	37927.19
579.121	37048.61
579.319	37509.4
579.516	37460.25
579.714	36927.78
579.912	36813.09
580.11	37060.9
580.308	36675.88
580.506	36602.15
580.704	35854.64
580.901	36249.9
581.099	36360.49
581.297	36268.33
581.495	35950.9
581.692	35948.85
581.89	35486.01
582.088	35699
582.285	35287.35
582.483	35727.67
582.681	35477.82
582.878	35518.78
583.076	34455.88
583.274	34971.97
583.471	34726.21
583.669	34586.95
583.866	34443.59
584.064	34974.02
584.262	34267.47
584.459	34754.88
584.657	34353.48
584.854	34513.22
585.052	33593.68
585.249	34040.14
585.447	34179.4
585.644	33139.04
585.841	33628.5
586.039	33802.58
586.236	33329.5
586.434	32891.23
586.631	33171.8
586.828	33239.39
587.026	33048.93
587.223	32932.19
587.42	32936.29
587.618	32776.55
587.815	32463.21
588.012	32442.73
588.21	32352.62
588.407	32504.17
588.604	32559.46
588.801	31863.15
588.999	31562.1
589.196	31979.89
589.393	31865.2
589.59	31385.97
589.787	31674.74
589.984	31832.43
590.182	31295.86
590.379	31359.35
590.576	31111.55
590.773	31068.54
590.97	30816.64
591.167	30863.74
591.364	30366.09
591.561	30591.36
591.758	30308.74
591.955	30443.91
592.152	30650.75
592.349	29796.75
592.546	30466.44
592.743	30429.57
592.94	29735.31
593.137	30153.1
593.334	30128.52
593.531	29473.17
593.727	29899.15
593.924	29628.82
594.121	29237.66
594.318	29735.31
594.515	28950.94
594.712	29159.83
594.908	29069.72
595.105	29299.09
595.302	28787.1
595.499	28907.93
595.696	28821.92
595.892	28123.56
596.089	28715.42
596.286	28682.66
596.482	28606.88
596.679	28324.26
596.876	28395.94
597.072	28113.32
597.269	28113.32
597.466	27951.53
597.662	27799.98
597.859	27965.87
598.055	27539.89
598.252	27560.37
598.448	27576.75
598.645	27640.24
598.841	27285.94
599.038	27439.54
599.234	27345.33
599.431	27173.3
599.627	26958.27
599.824	26900.92
600.02	26749.37
600.217	26870.2
600.413	26710.46
600.609	26390.98
600.806	26499.52
601.002	26732.99
601.198	26116.55
601.395	26450.37
601.591	26028.49
601.787	26143.17
601.984	26010.06
602.18	26165.7
602.376	26071.5
602.572	25633.23
602.769	25745.87
602.965	25547.22
603.161	25592.27
603.357	25233.88
603.553	25229.78
603.75	25471.44
603.946	24986.07
604.142	25348.56
604.338	24783.32
604.534	24840.67
604.73	24691.16
604.926	24414.69
605.122	24582.62
605.318	24512.99
605.514	24332.77
605.71	24445.41
605.906	24213.99
606.102	24373.73
606.298	24386.02
606.494	24263.14
606.69	24252.9
606.886	24146.4
607.082	23890.41
607.278	24130.02
607.474	23499.25
607.67	23974.38
607.866	23491.05
608.062	23767.53
608.257	23413.23
608.453	23417.33
608.649	23065.08
608.845	23181.81
609.041	23491.05
609.236	23245.3
609.432	23351.79
609.628	22974.97
609.824	22972.92
610.019	22764.03
610.215	22766.07
610.411	22864.38
610.606	22682.11
610.802	22995.45
610.998	22807.03
611.193	23030.26
611.389	22462.97
611.584	22628.86
611.78	22176.26
611.976	22501.89
612.171	22481.41
612.367	22305.28
612.562	22010.37
612.758	21955.08
612.953	21891.59
613.149	21961.22
613.344	21750.28
613.539	22301.19
613.735	22241.79
613.93	21932.55
614.126	21758.47
614.321	22225.41
614.517	21899.78
614.712	21729.8
614.907	21455.37
615.103	21471.76
615.298	21260.82
615.493	21660.17
615.688	20978.2
615.884	21574.16
616.079	21371.41
616.274	21234.19
616.47	21168.66
616.665	20976.15
616.86	21099.03
617.055	21240.34
617.25	20978.2
617.445	20927
617.641	20660.76
617.836	21252.63
618.031	20492.83
618.226	20539.93
618.421	20576.8
618.616	20820.5
618.811	20339.23
619.006	20810.26
619.201	20093.47
619.396	20501.02
619.591	19825.19
619.786	20312.61
619.981	19882.53
620.176	19941.93
620.371	19907.11
620.566	19782.18
620.761	19671.59
620.956	19763.75
621.151	19255.86
621.346	19563.05
621.541	18956.85
621.735	19391.02
621.93	18981.43
622.125	19169.84
622.32	18844.21
622.515	18831.93
622.709	18778.68
622.904	18852.41
623.099	18512.44
623.294	18803.25
623.488	18160.19
623.683	18426.43
623.878	17820.23
624.072	18221.63
624.267	17818.18
624.462	17568.33
624.656	17951.3
624.851	17824.33
625.046	17404.49
625.24	17711.69
625.435	17318.48
625.629	17498.7
625.824	17177.17
626.018	16988.75
626.213	16665.18
626.407	16874.07
626.602	16632.41
626.796	16775.77
626.991	16724.57
627.185	16499.29
627.38	16581.21
627.574	16403.04
627.768	16198.24
627.963	16310.88
628.157	16194.14
628.352	16286.3
628.546	15710.82
628.74	16032.35
628.935	15811.17
629.129	15780.45
629.323	15450.73
629.517	15637.09
629.712	15581.8
629.906	15647.33
630.1	15084.14
630.294	15340.14
630.489	15012.46
630.683	15184.49
630.877	15078
631.071	14854.77
631.265	15084.14
631.459	15006.32
631.653	14733.94
631.848	14668.41
632.042	14299.77
632.236	14551.67
632.43	14246.52
632.624	14310.01
632.818	14269.05
633.012	13986.43
633.206	14035.58
633.4	14228.09
633.594	13818.5
633.788	13748.87
633.982	13705.86
634.176	13972.1
634.369	13632.13
634.563	13787.78
634.757	13333.13
634.951	13386.38
635.145	13331.08
635.339	13173.39
635.533	13261.45
635.726	12999.31
635.92	12794.51
636.114	12911.25
636.308	13052.56
636.501	12851.86
636.695	13021.84
636.889	12673.68
637.083	12802.71
637.276	12661.4
637.47	12495.51
637.664	12526.23
637.857	12460.7
638.051	12143.26
638.244	12354.2
638.438	12092.06
638.632	12063.39
638.825	12016.29
639.019	12020.38
639.212	11946.66
639.406	11897.5
639.599	11661.99
639.793	11788.96
639.986	11426.47
640.18	11653.8
640.373	11500.2
640.567	11195.05
640.76	11614.88
640.954	11315.88
641.147	11115.18
641.34	11279.02
641.534	11215.53
641.727	11121.32
641.92	11201.19
642.114	10998.45
642.307	10916.53
642.5	10810.03
642.694	10691.25
642.887	10523.32
643.08	10855.09
643.273	10595
643.467	10652.34
643.66	10416.82
643.853	10588.85
644.046	10189.5
644.239	10390.2
644.432	10265.27
644.626	9994.94
644.819	10015.42
645.012	10248.89
645.205	9999.04
645.398	9925.31
645.591	9859.77
645.784	9958.08
645.977	9650.88
646.17	9904.83
646.363	9667.27
646.556	9530.05
646.749	9720.51
646.942	9806.53
647.135	9390.79
647.328	9460.42
647.521	9210.57
647.714	9177.8
647.907	9396.93
648.099	9249.48
648.292	9335.49
648.485	9134.79
648.678	9093.83
648.871	9110.22
649.064	8848.08
649.256	8880.85
649.449	8880.85
649.642	8784.59
649.835	8962.76
650.027	8760.02
650.22	8682.19
650.413	8800.98
650.605	8680.14
650.798	8583.89
650.991	8491.73
651.183	8610.51
651.376	8381.14
651.568	8331.99
651.761	8301.27
651.954	8483.54
652.146	8303.32
652.339	8186.58
652.531	8434.39
652.724	8030.94
652.916	8108.76
653.109	7959.26
653.301	8215.26
653.494	8041.18
653.686	7936.73
653.879	7930.59
654.071	7811.81
654.263	7785.18
654.456	7779.04
654.648	7774.94
654.84	7754.46
655.033	7774.94
655.225	8016.6
655.417	7514.85
655.61	7736.03
655.802	7660.26
655.994	7641.82
656.186	7520.99
656.379	7381.73
656.571	7559.91
656.763	7275.24
656.955	7195.37
657.148	7387.88
657.34	7322.34
657.532	7129.83
657.724	7256.81
657.916	7242.47
658.108	7197.42
658.3	7088.87
658.492	7209.7
658.684	6857.45
658.876	7105.26
659.068	7039.72
659.26	6996.71
659.452	7097.07
659.644	7029.48
659.836	6922.99
660.028	6845.16
660.22	6652.66
660.412	6845.16
660.604	6796.01
660.796	6832.88
660.988	6697.71
661.18	6783.73
661.372	6398.71
661.563	6566.64
661.755	6681.33
661.947	6533.87
662.139	6390.52
662.331	6580.98
662.522	6333.17
662.714	6349.56
662.906	6263.54
663.097	6574.83
663.289	6200.05
663.481	6210.29
663.673	6288.12
663.864	6107.9
664.056	6251.25
664.247	6114.04
664.439	6130.42
664.631	6161.14
664.822	6269.69
665.014	6042.36
665.205	6300.41
665.397	5913.34
665.588	6107.9
665.78	6011.64
665.971	5978.87
666.163	5999.35
666.354	6028.03
666.546	5874.43
666.737	5974.78
666.929	5972.73
667.12	5929.72
667.311	5866.24
667.503	5868.28
667.694	5880.57
667.885	5788.41
668.077	5761.79
668.268	5796.6
668.459	5755.65
668.651	5700.35
668.842	5841.66
669.033	5657.34
669.224	5853.95
669.416	5712.64
669.607	5868.28
669.798	5780.22
669.989	5589.76
670.18	5647.1
670.371	5761.79
670.563	5620.48
670.754	5679.87
670.945	5579.52
671.136	5624.58
671.327	5591.81
671.518	5573.38
671.709	5784.32
671.9	5593.86
672.091	5747.45
672.282	5583.62
672.473	5624.58
672.664	5616.38
672.855	5434.11
673.046	5690.11
673.237	5700.35
673.428	5583.62
673.619	5739.26
673.809	5655.3
674	5673.73
674.191	5686.01
674.382	5518.08
674.573	5602.05
674.764	5481.22
674.954	5618.43
675.145	5442.31
675.336	5694.21
675.527	5716.73
675.717	5556.99
675.908	5583.62
676.099	5597.95
676.289	5573.38
676.48	5620.48
676.671	5452.55
676.861	5636.86
677.052	5614.34
677.243	5581.57
677.433	5690.11
677.624	5591.81
677.814	5604.1
678.005	5653.25
678.195	5479.17
678.386	5497.6
678.576	5513.99
678.767	5556.99
678.957	5667.58
679.148	5501.7
679.338	5716.73
679.529	5743.36
679.719	5714.69
679.909	5835.52
680.1	5665.53
680.29	5837.56
680.481	5804.8
680.671	5743.36
680.861	5739.26
681.052	5858.04
681.242	5714.69
681.432	5778.17
681.622	5743.36
681.813	5559.04
682.003	5690.11
682.193	5894.91
682.383	5962.49
682.573	5853.95
682.764	5876.48
682.954	5698.3
683.144	5794.56
683.334	5892.86
683.524	5786.37
683.714	5907.2
683.904	5870.33
684.094	5919.48
684.284	6025.98
684.474	6111.99
684.664	5812.99
684.854	5942.01
685.044	5935.87
685.234	5931.77
685.424	5755.65
685.614	5872.38
685.804	5948.15
685.994	5755.65
686.184	5911.29
686.374	5657.34
686.564	5604.1
686.753	5790.46
686.943	5772.03
687.133	5804.8
687.323	5765.89
687.513	5702.4
687.702	5661.44
687.892	5559.04
688.082	5774.08
688.272	5776.13
688.461	5499.65
688.651	5565.18
688.841	5419.78
689.03	5509.89
689.22	5477.12
689.41	5368.58
689.599	5354.24
689.789	5563.14
689.979	5442.31
690.168	5366.53
690.358	5303.04
690.547	5298.95
690.737	5409.54
690.926	5237.51
691.116	5231.37
691.305	5165.83
691.495	5260.04
691.684	5092.1
691.874	5278.47
692.063	5088.01
692.252	5198.6
692.442	5079.82
692.631	4920.07
692.82	5018.38
693.01	4850.44
693.199	5004.04
693.388	4977.42
693.578	4940.55
693.767	4895.5
693.956	4838.16
694.146	4860.68
694.335	4928.27
694.524	4846.35
694.713	4911.88
694.902	4772.62
695.092	4885.26
695.281	4694.8
695.47	4778.76
695.659	4641.55
695.848	4702.99
696.037	4625.17
696.226	4778.76
696.415	4690.7
696.604	4727.57
696.793	4533.01
696.982	4805.39
697.171	4690.7
697.36	4543.25
697.549	4623.12
697.738	4643.6
697.927	4551.44
698.116	4789
698.305	4555.54
698.494	4608.78
698.683	4670.22
698.872	4569.87
699.061	4549.39
699.25	4737.81
699.438	4500.24
699.627	4686.61
699.816	4475.67
700.005	4684.56
700.193	4641.55
700.382	4543.25
700.571	4598.54
700.76	4698.89
700.948	4498.19
701.137	4762.38
701.326	4485.9
701.514	4664.08
701.703	4713.23
701.892	4535.06
702.08	4862.73
702.269	4614.93
702.457	4504.34
702.646	4694.8
702.834	4434.71
703.023	4571.92
703.212	4715.28
703.4	4616.97
703.589	4649.74
703.777	4725.52
703.965	4512.53
704.154	4629.26
704.342	4592.4
704.531	4709.13
704.719	4621.07
704.907	4725.52
705.096	4539.15
705.284	4664.08
705.472	4621.07
705.661	4764.43
705.849	4815.63
706.037	4604.69
706.226	4668.17
706.414	4592.4
706.602	4651.79
706.79	4686.61
706.979	4555.54
707.167	4846.35
707.355	4756.24
707.543	4727.57
707.731	4838.16
707.919	4786.96
708.107	4698.89
708.296	4805.39
708.484	4801.29
708.672	4850.44
708.86	4838.16
709.048	4926.22
709.236	4973.32
709.424	4805.39
709.612	4911.88
709.8	4838.16
709.988	4786.96
710.176	5034.76
710.364	4891.4
710.551	4891.4
710.739	4934.41
710.927	4997.9
711.115	5008.14
711.303	5059.34
711.491	5083.91
711.679	4915.98
711.866	5081.86
712.054	5010.18
712.242	5042.95
712.43	5225.22
712.617	5079.82
712.805	5063.43
712.993	4993.8
713.181	5053.19
713.368	5137.16
713.556	5221.13
713.744	5065.48
713.931	5344
714.119	5229.32
714.306	5153.54
714.494	5120.78
714.682	5114.63
714.869	5180.17
715.057	5354.24
715.244	5280.52
715.432	5401.35
715.619	5249.8
715.807	5591.81
715.994	5321.48
716.182	5470.98
716.369	5305.09
716.556	5616.38
716.744	5360.39
716.931	5370.63
717.119	5448.45
717.306	5411.59
717.493	5493.51
717.681	5518.08
717.868	5436.16
718.055	5280.52
718.242	5651.2
718.43	5780.22
718.617	5450.5
718.804	5681.92
718.991	5577.47
719.179	5548.8
719.366	5458.69
719.553	5546.75
719.74	5450.5
719.927	5483.27
720.114	5600
720.301	5743.36
720.488	5544.7
720.676	5747.45
720.863	5616.38
721.05	5657.34
721.237	5856
721.424	5843.71
721.611	5944.06
721.798	5686.01
721.985	5767.93
722.172	5792.51
722.358	5792.51
722.545	5827.32
722.732	5507.84
722.919	5982.97
723.106	5591.81
723.293	5931.77
723.48	5802.75
723.667	5851.9
723.853	5919.48
724.04	6011.64
724.227	5923.58
724.414	6077.18
724.6	5964.54
724.787	5903.1
724.974	6038.27
725.161	6071.03
725.347	5909.24
725.534	5966.59
725.72	6007.55
725.907	6054.65
726.094	6202.1
726.28	6046.46
726.467	6109.94
726.653	6107.9
726.84	6148.86
727.027	6183.67
727.213	6103.8
727.4	6327.03
727.586	6060.79
727.773	6251.25
727.959	6181.62
728.145	6304.5
728.332	6193.91
728.518	6161.14
728.705	6316.79
728.891	6335.22
729.077	6195.96
729.264	6310.65
729.45	6261.49
729.636	6243.06
729.823	6173.43
730.009	6204.15
730.195	6136.57
730.382	6355.7
730.568	6193.91
730.754	6288.12
730.94	6181.62
731.126	6497.01
731.313	6454
731.499	6310.65
731.685	6259.45
731.871	6404.85
732.057	6411
732.243	6327.03
732.429	6351.6
732.615	6288.12
732.801	6349.56
732.987	6261.49
733.173	6501.11
733.359	6449.91
733.545	6406.9
733.731	6302.45
733.917	6331.12
734.103	6408.95
734.289	6404.85
734.475	6357.75
734.661	6284.02
734.847	6339.32
735.033	6382.32
735.219	6161.14
735.404	6238.97
735.59	6378.23
735.776	6359.8
735.962	6427.38
736.148	6324.98
736.333	6333.17
736.519	6198.01
736.705	6443.76
736.89	6349.56
737.076	6394.61
737.262	6177.53
737.447	6431.48
737.633	6329.08
737.819	6157.05
738.004	6247.16
738.19	6376.18
738.375	6458.1
738.561	6507.25
738.747	6210.29
738.932	6179.58
739.118	6298.36
739.303	6198.01
739.489	6263.54
739.674	6185.72
739.859	6214.39
740.045	6269.69
740.23	6238.97
740.416	6210.29
740.601	6279.93
740.786	6228.73
740.972	6040.31
741.157	6122.23
741.342	6042.36
741.528	6028.03
741.713	6103.8
741.898	6050.55
742.084	5997.31
742.269	6173.43
742.454	5933.82
742.639	5991.16
742.824	5927.67
743.01	6001.4
743.195	5942.01
743.38	5931.77
743.565	5974.78
743.75	5849.85
743.935	5841.66
744.12	5821.18
744.305	5843.71
744.49	5804.8
744.675	5896.96
744.86	5710.59
745.045	5714.69
745.23	5808.89
745.415	5663.49
745.6	5575.42
745.785	5458.69
745.97	5675.77
746.155	5436.16
746.34	5620.48
746.525	5389.06
746.71	5454.59
746.895	5382.92
747.079	5485.31
747.264	5411.59
747.449	5454.59
747.634	5440.26
747.819	5243.65
748.003	5169.93
748.188	5223.17
748.373	5210.89
748.557	5198.6
748.742	5081.86
748.927	5116.68
749.111	4940.55
749.296	5083.91
749.481	5092.1
749.665	4993.8
749.85	4985.61
750.034	4948.75
750.219	4899.59
750.404	4672.27
750.588	4592.4
750.773	4862.73
750.957	4746
751.141	4666.13
751.326	4586.26
751.51	4598.54
751.695	4602.64
751.879	4612.88
752.064	4625.17
752.248	4510.48
752.432	4526.86
752.617	4483.86
752.801	4365.07
752.985	4371.22
753.17	4328.21
753.354	4277.01
753.538	4229.91
753.722	4184.85
753.907	4240.15
754.091	4184.85
754.275	4086.55
754.459	4330.26
754.643	4051.74
754.828	4057.88
755.012	4115.22
755.196	3973.91
755.38	3914.52
755.564	3810.08
755.748	3945.24
755.932	3969.82
756.116	3740.44
756.3	3715.87
756.484	3777.31
756.668	3914.52
756.852	3715.87
757.036	3783.45
757.22	3545.89
757.404	3726.11
757.588	3578.65
757.772	3633.95
757.956	3533.6
758.14	3400.48
758.323	3500.83
758.507	3547.94
758.691	3470.11
758.875	3515.17
759.059	3504.93
759.242	3347.23
759.426	3212.07
759.61	3343.14
759.794	3396.39
759.977	3222.31
760.161	3279.65
760.345	3228.45
760.528	3396.39
760.712	3226.4
760.895	3101.48
761.079	3187.49
761.263	3199.78
761.446	3138.34
761.63	3089.19
761.813	3128.1
761.997	3156.77
762.18	3068.71
762.364	3027.75
762.547	2951.98
762.731	3042.09
762.914	3021.61
763.098	2911.02
763.281	2937.64
763.464	2974.5
763.648	2839.34
763.831	2878.25
764.015	2857.77
764.198	2859.82
764.381	2976.55
764.564	2892.59
764.748	2816.81
764.931	2775.85
765.114	2695.98
765.297	2818.86
765.481	2855.72
765.664	2806.57
765.847	2814.76
766.03	2878.25
766.213	2728.75
766.397	2691.88
766.58	2757.42
766.763	2714.41
766.946	2681.64
767.129	2667.31
767.312	2593.58
767.495	2616.11
767.678	2728.75
767.861	2489.14
768.044	2618.16
768.227	2581.29
768.41	2560.81
768.593	2698.03
768.776	2530.09
768.959	2480.94
769.142	2493.23
769.324	2462.51
769.507	2405.17
769.69	2413.36
769.873	2501.42
770.056	2534.19
770.239	2446.13
770.421	2538.29
770.604	2333.49
770.787	2378.55
770.97	2493.23
771.152	2306.87
771.335	2337.59
771.518	2345.78
771.7	2347.83
771.883	2323.25
772.066	2249.52
772.248	2255.67
772.431	2241.33
772.613	2265.91
772.796	2138.93
772.978	2220.85
773.161	2200.37
773.343	2138.93
773.526	2112.31
773.708	2011.96
773.891	2106.17
774.073	2014.01
774.256	2110.26
774.438	2208.56
774.621	1993.53
774.803	1981.24
774.985	1927.99
775.168	2059.06
775.35	1927.99
775.532	1944.38
775.715	1958.71
775.897	1782.59
776.079	1921.85
776.261	1911.61
776.444	1844.03
776.626	1813.31
776.808	1905.46
776.99	1819.45
777.173	1768.25
777.355	1815.35
777.537	1749.82
777.719	1786.68
777.901	1755.96
778.083	1690.43
778.265	1659.71
778.447	1780.54
778.629	1569.6
778.811	1725.24
778.993	1626.94
779.175	1633.08
779.357	1610.56
779.539	1567.55
779.721	1602.36
779.903	1575.74
780.085	1624.89
780.267	1459.01
780.449	1635.13
780.631	1534.78
780.812	1534.78
780.994	1459.01
781.176	1512.25
781.358	1467.2
781.54	1483.58
781.721	1661.76
781.903	1528.64
782.085	1370.94
782.267	1440.58
782.448	1295.17
782.63	1375.04
782.812	1424.19
782.993	1413.95
783.175	1295.17
783.357	1364.8
783.538	1395.52
783.72	1356.61
783.901	1319.75
784.083	1233.73
784.264	1297.22
784.446	1270.59
784.627	1258.31
784.809	1307.46
784.99	1321.79
785.172	1225.54
785.353	1190.72
785.535	1104.71
785.716	1221.44
785.897	1114.95
786.079	1184.58
786.26	1198.92
786.441	1213.25
786.623	1135.43
786.804	1153.86
786.985	1186.63
787.167	1127.24
787.348	1035.08
787.529	1221.44
787.71	1149.76
787.891	1106.76
788.073	1082.18
788.254	1014.6
788.435	1076.04
788.616	1069.89
788.797	1098.56
788.978	1000.26
789.159	1043.27
789.34	1028.93
789.522	1094.47
789.703	1045.32
789.884	1002.31
790.065	998.21
790.246	918.34
790.427	920.39
790.607	1108.8
790.788	947.01
790.969	799.56
791.15	951.11
791.331	955.21
791.512	944.97
791.693	936.78
791.874	885.58
792.054	916.3
792.235	983.88
792.416	881.48
792.597	809.8
792.778	871.24
792.958	869.19
793.139	922.44
793.32	832.33
793.5	889.67
793.681	928.58
793.862	781.13
794.042	820.04
794.223	828.23
794.404	824.14
794.584	770.89
794.765	750.41
794.945	852.81
795.126	803.66
795.306	797.51
795.487	777.03
795.667	725.83
795.848	828.23
796.028	762.7
796.209	674.64
796.389	740.17
796.57	754.51
796.75	758.6
796.93	824.14
797.111	725.83
797.291	676.68
797.471	811.85
797.652	658.25
797.832	658.25
798.012	666.44
798.192	613.2
798.373	617.29
798.553	725.83
798.733	684.87
798.913	748.36
799.093	641.87
799.274	652.11
799.454	633.68
799.634	688.97
799.814	660.3
799.994	639.82
800.174	658.25
800.354	549.71
800.534	643.92
800.714	691.02
800.894	668.49
801.074	627.53
801.254	691.02
801.434	643.92
801.614	570.19
801.794	568.14
801.974	1444.67
802.154	600.91
802.334	609.1
802.514	600.91
802.693	607.05
802.873	594.76
803.053	637.77
803.233	650.06
803.413	506.7
803.592	609.1
803.772	527.18
803.952	574.28
804.131	590.67
804.311	609.1
804.491	613.2
804.67	488.27
804.85	578.38
805.03	537.42
805.209	494.41
805.389	508.75
805.568	475.98
805.748	502.61
805.928	490.32
806.107	570.19
806.287	463.69
806.466	504.65
806.646	521.04
806.825	475.98
807.004	574.28
807.184	527.18
807.363	551.76
807.543	533.33
807.722	521.04
807.901	432.97
808.081	469.84
808.26	389.97
808.439	557.9
808.619	545.61
808.798	387.92
808.977	562
809.156	582.48
809.336	441.17
809.515	463.69
809.694	420.69
809.873	441.17
810.052	486.22
810.231	455.5
810.411	467.79
810.59	410.45
810.769	500.56
810.948	461.65
811.127	430.93
811.306	461.65
811.485	387.92
811.664	490.32
811.843	385.87
812.022	467.79
812.201	443.21
812.38	428.88
812.559	426.83
812.737	435.02
812.916	334.67
813.095	324.43
813.274	518.99
813.453	414.54
813.632	385.87
813.811	375.63
813.989	441.17
814.168	359.25
814.347	336.72
814.526	426.83
814.704	430.93
814.883	457.55
815.062	355.15
815.24	453.45
815.419	381.78
815.598	365.39
815.776	250.71
815.955	387.92
816.133	328.53
816.312	453.45
816.49	381.78
816.669	324.43
816.847	365.39
817.026	373.58
817.204	373.58
817.383	406.35
817.561	326.48
817.74	297.81
817.918	410.45
818.097	346.96
818.275	324.43
818.453	289.62
818.632	324.43
818.81	289.62
818.988	273.23
819.167	293.71
819.345	381.78
819.523	306
819.701	219.99
819.879	357.2
820.058	226.13
820.236	332.62
820.414	250.71
820.592	365.39
820.77	340.82
820.948	281.43
821.127	320.34
821.305	371.54
821.483	252.75
821.661	299.86
821.839	392.02
822.017	318.29
822.195	301.9
822.373	392.02
822.551	365.39
822.729	289.62
822.907	287.57
823.085	340.82
823.262	277.33
823.44	355.15
823.618	314.19
823.796	252.75
823.974	131.92
824.152	271.19
824.329	297.81
824.507	332.62
824.685	291.66
824.863	338.77
825.04	267.09
825.218	262.99
825.396	303.95
825.574	314.19
825.751	316.24
825.929	326.48
826.107	246.61
826.284	265.04
826.462	199.51
826.639	303.95
826.817	222.03
826.994	265.04
827.172	201.55
827.349	308.05
827.527	193.36
827.704	254.8
827.882	222.03
828.059	228.18
828.237	240.47
828.414	260.95
828.591	179.03
828.769	314.19
828.946	355.15
829.124	295.76
829.301	287.57
829.478	205.65
829.655	232.27
829.833	291.66
830.01	181.07
830.187	306
830.364	230.23
830.542	279.38
830.719	273.23
830.896	199.51
831.073	172.88
831.25	234.32
831.427	185.17
831.604	217.94
831.782	291.66
831.959	230.23
832.136	242.51
832.313	234.32
832.49	226.13
832.667	213.84
832.844	234.32
833.021	279.38
833.198	111.44
833.374	222.03
833.551	179.03
833.728	207.7
833.905	209.75
834.082	133.97
834.259	172.88
834.436	297.81
834.612	148.31
834.789	250.71
834.966	160.59
835.143	170.83
835.319	127.83
835.496	207.7
835.673	195.41
835.85	217.94
836.026	152.4
836.203	254.8
836.38	127.83
836.556	166.74
836.733	174.93
836.909	195.41
837.086	148.31
837.262	162.64
837.439	199.51
837.616	244.56
837.792	191.31
837.968	228.18
838.145	166.74
838.321	103.25
838.498	107.35
838.674	166.74
838.851	181.07
839.027	95.06
839.203	160.59
839.38	201.55
839.556	172.88
839.732	158.55
839.909	199.51
840.085	103.25
840.261	131.92
840.437	205.65
840.614	146.26
840.79	166.74
840.966	121.68
841.142	172.88
841.318	240.47
841.494	127.83
841.671	201.55
841.847	189.27
842.023	156.5
842.199	181.07
842.375	193.36
842.551	119.64
842.727	144.21
842.903	209.75
843.079	136.02
843.255	197.46
843.431	115.54
843.607	119.64
843.783	125.78
843.959	183.12
844.134	109.4
844.31	166.74
844.486	148.31
844.662	111.44
844.838	119.64
845.013	193.36
845.189	150.36
845.365	123.73
845.541	152.4
845.716	90.96
845.892	140.12
846.068	144.21
846.244	95.06
846.419	152.4
846.595	125.78
846.77	101.2
846.946	193.36
847.122	109.4
847.297	99.16
847.473	95.06
847.648	93.01
847.824	174.93
847.999	123.73
848.175	123.73
848.35	160.59
848.526	78.68
848.701	127.83
848.876	93.01
849.052	74.58
849.227	90.96
849.403	35.67
849.578	99.16
849.753	88.92
849.929	185.17
850.104	13.14
850.279	50
850.454	74.58
850.63	111.44
850.805	54.1
850.98	97.11
851.155	54.1
851.33	127.83
851.505	0.85
851.681	45.91
851.856	68.44
852.031	136.02
852.206	144.21
852.381	66.39
852.556	78.68
852.731	113.49
852.906	60.24
853.081	113.49
853.256	142.16
853.431	66.39
853.606	68.44
853.781	66.39
853.956	43.86
854.131	150.36
854.305	68.44
854.48	86.87
854.655	95.06
854.83	111.44
855.005	70.48
855.18	199.51
855.354	35.67
855.529	64.34
855.704	103.25
855.879	140.12
856.053	54.1
856.228	127.83
856.403	84.82
856.577	119.64
856.752	-11.43
856.926	154.45
857.101	109.4
857.276	56.15
857.45	45.91
857.625	84.82
857.799	52.05
857.974	37.72
858.148	2.9
858.323	64.34
858.497	78.68
858.672	70.48
858.846	39.76
859.02	109.4
859.195	99.16
859.369	101.2
859.543	50
859.718	115.54
859.892	105.3
860.066	101.2
860.241	33.62
860.415	68.44
860.589	70.48
860.763	80.72
860.938	86.87
861.112	121.68
861.286	74.58
861.46	35.67
861.634	103.25
861.808	66.39
861.982	2.9
862.157	45.91
862.331	56.15
862.505	62.29
862.679	95.06
862.853	62.29
863.027	101.2
863.201	127.83
863.375	13.14
863.549	70.48
863.722	84.82
863.896	82.77
864.07	33.62
864.244	70.48
864.418	82.77
864.592	70.48
864.766	62.29
864.939	58.2
865.113	17.24
865.287	58.2
865.461	27.48
865.634	66.39
865.808	-15.53
865.982	78.68
866.156	45.91
866.329	27.48
866.503	72.53
866.676	82.77
866.85	37.72
867.024	19.29
867.197	52.05
867.371	72.53
867.544	111.44
867.718	41.81
867.891	111.44
868.065	21.33
868.238	33.62
868.412	58.2
868.585	111.44
868.759	115.54
868.932	74.58
869.105	-7.34
869.279	109.4
869.452	95.06
869.625	78.68
869.799	76.63
869.972	66.39
870.145	29.52
870.319	140.12
870.492	31.57
870.665	21.33
870.838	-27.82
871.011	-38.06
871.185	39.76
871.358	58.2
871.531	78.68
871.704	43.86
871.877	21.33
872.05	13.14
872.223	62.29
872.396	68.44
872.569	25.43
872.742	-5.29
872.915	60.24
873.088	45.91
873.261	13.14
873.434	21.33
873.607	0.85
873.78	95.06
873.953	17.24
874.126	4.95
874.299	119.64
874.471	29.52
874.644	31.57
874.817	9.05
874.99	123.73
875.163	21.33
875.335	99.16
875.508	9.05
875.681	-1.19
875.853	148.31
876.026	2.9
876.199	52.05
876.371	29.52
876.544	29.52
876.717	-25.77
876.889	-3.24
877.062	-1.19
877.234	60.24
877.407	29.52
877.579	62.29
877.752	90.96
877.924	50
878.097	-7.34
878.269	41.81
878.442	52.05
878.614	60.24
878.786	54.1
878.959	-11.43
879.131	0.85
879.303	-79.02
879.476	35.67
879.648	-1.19
879.82	164.69
879.993	-48.3
880.165	4.95
880.337	78.68
880.509	45.91
880.681	4.95
880.854	50
881.026	9.05
881.198	74.58
881.37	70.48
881.542	58.2
881.714	47.96
881.886	15.19
882.058	13.14
882.23	29.52
882.402	-11.43
882.574	9.05
882.746	52.05
882.918	33.62
883.09	45.91
883.262	54.1
883.434	78.68
883.606	-1.19
883.778	29.52
883.95	103.25
884.122	121.68
884.293	4.95
884.465	95.06
884.637	72.53
884.809	-3.24
884.98	-3.24
885.152	133.97
885.324	86.87
885.496	4.95
885.667	99.16
885.839	43.86
886.011	84.82
886.182	60.24
886.354	50
886.525	58.2
886.697	62.29
886.869	-13.48
887.04	15.19
887.212	84.82
887.383	9.05
887.555	50
887.726	82.77
887.897	58.2
888.069	45.91
888.24	-9.39
888.412	29.52
888.583	76.63
888.754	-27.82
888.926	17.24
889.097	70.48
889.268	-3.24
889.44	9.05
889.611	-52.39
889.782	29.52
889.953	13.14
890.125	45.91
890.296	0.85
890.467	4.95
890.638	-21.67
890.809	62.29
890.98	-7.34
891.151	27.48
891.323	101.2
891.494	82.77
891.665	13.14
891.836	-3.24
892.007	19.29
892.178	78.68
892.349	68.44
892.52	2.9
892.691	21.33
892.862	29.52
893.032	-5.29
893.203	58.2
893.374	15.19
893.545	27.48
893.716	19.29
893.887	23.38
894.057	-29.87
894.228	4.95
894.399	9.05
894.57	50
894.74	64.34
894.911	9.05
895.082	52.05
895.253	41.81
895.423	70.48
895.594	21.33
895.764	-5.29
895.935	-52.39
896.106	43.86
896.276	-11.43
896.447	150.36
896.617	-60.59
896.788	45.91
896.958	56.15
897.129	25.43
897.299	-19.63
897.47	35.67
897.64	54.1
897.81	19.29
897.981	-13.48
898.151	-54.44
898.322	66.39
898.492	33.62
898.662	-1.19
898.832	41.81
899.003	-21.67
899.173	-3.24
899.343	25.43
899.513	-3.24
