Data from USB4F104151__15__11-29-46-017.txt Node

Date: Fri Mar 14 11:29:46 EDT 2025
User: louis
Spectrometer: USB4F10415
Trigger mode: 4
Integration Time (sec): 5.000000E-2
Scans to average: 1
Electric dark correction enabled: true
Nonlinearity correction enabled: false
Boxcar width: 0
XAxis mode: Wavelengths
Number of Pixels in Spectrum: 3648
>>>>>Begin Spectral Data<<<<<
178.204	-166.74
178.424	-166.74
178.644	-166.74
178.864	-123.73
179.084	-127.83
179.304	-76.63
179.524	-29.52
179.744	-21.33
179.964	72.87
180.184	-21.33
180.404	13.48
180.624	23.72
180.844	27.82
181.064	1.19
181.283	50.35
181.503	-68.44
181.723	27.82
181.943	21.67
182.163	126.12
182.383	52.39
182.602	3.24
182.822	29.87
183.042	66.73
183.262	-97.11
183.482	40.11
183.701	68.78
183.921	3.24
184.141	-21.33
184.361	99.5
184.58	68.78
184.8	62.63
185.02	33.96
185.239	87.21
185.459	56.49
185.679	128.17
185.898	-33.62
186.118	44.2
186.338	54.44
186.557	83.11
186.777	40.11
186.997	58.54
187.216	-15.19
187.436	36.01
187.655	68.78
187.875	70.83
188.095	5.29
188.314	48.3
188.534	52.39
188.753	5.29
188.973	-4.95
189.192	70.83
189.412	15.53
189.631	11.43
189.851	68.78
190.07	25.77
190.29	54.44
190.509	79.02
190.729	13.48
190.948	83.11
191.168	154.79
191.387	13.48
191.607	36.01
191.826	74.92
192.045	46.25
192.265	25.77
192.484	-54.1
192.704	42.15
192.923	-13.14
193.142	79.02
193.362	-31.57
193.581	52.39
193.8	5.29
194.02	52.39
194.239	21.67
194.458	68.78
194.678	29.87
194.897	85.16
195.116	29.87
195.335	109.74
195.555	15.53
195.774	3.24
195.993	31.91
196.212	21.67
196.432	-23.38
196.651	36.01
196.87	27.82
197.089	138.41
197.308	111.78
197.528	126.12
197.747	17.58
197.966	21.67
198.185	111.78
198.404	27.82
198.623	79.02
198.842	83.11
199.062	68.78
199.281	23.72
199.5	27.82
199.719	74.92
199.938	126.12
200.157	81.07
200.376	56.49
200.595	21.67
200.814	70.83
201.033	52.39
201.252	95.4
201.471	23.72
201.69	85.16
201.909	107.69
202.128	25.77
202.347	107.69
202.566	62.63
202.785	-64.34
203.004	23.72
203.223	126.12
203.442	111.78
203.661	-43.86
203.879	25.77
204.098	9.39
204.317	-64.34
204.536	83.11
204.755	11.43
204.974	36.01
205.193	85.16
205.411	124.07
205.63	1.19
205.849	17.58
206.068	93.35
206.287	-11.09
206.505	29.87
206.724	54.44
206.943	-23.38
207.162	-39.76
207.381	-11.09
207.599	-52.05
207.818	52.39
208.037	-11.09
208.255	29.87
208.474	13.48
208.693	-11.09
208.911	115.88
209.13	5.29
209.349	64.68
209.567	36.01
209.786	142.5
210.005	-17.24
210.223	9.39
210.442	36.01
210.661	74.92
210.879	33.96
211.098	13.48
211.316	-11.09
211.535	54.44
211.753	13.48
211.972	5.29
212.191	62.63
212.409	25.77
212.628	21.67
212.846	-56.15
213.065	68.78
213.283	76.97
213.502	9.39
213.72	3.24
213.938	33.96
214.157	1.19
214.375	66.73
214.594	-0.85
214.812	85.16
215.031	25.77
215.249	-27.48
215.467	46.25
215.686	85.16
215.904	33.96
216.122	-31.57
216.341	33.96
216.559	68.78
216.778	95.4
216.996	74.92
217.214	-4.95
217.432	21.67
217.651	54.44
217.869	97.45
218.087	42.15
218.306	-31.57
218.524	74.92
218.742	19.63
218.96	105.64
219.179	-31.57
219.397	48.3
219.615	66.73
219.833	11.43
220.051	13.48
220.27	79.02
220.488	13.48
220.706	38.06
220.924	-0.85
221.142	-11.09
221.36	54.44
221.578	-11.09
221.796	13.48
222.015	36.01
222.233	-29.52
222.451	128.17
222.669	-11.09
222.887	74.92
223.105	58.54
223.323	-35.67
223.541	29.87
223.759	36.01
223.977	-11.09
224.195	111.78
224.413	117.93
224.631	21.67
224.849	54.44
225.067	76.97
225.285	21.67
225.503	21.67
225.721	-45.91
225.939	99.5
226.157	70.83
226.375	169.13
226.592	93.35
226.81	-13.14
227.028	152.74
227.246	68.78
227.464	56.49
227.682	21.67
227.9	64.68
228.117	-13.14
228.335	46.25
228.553	-62.29
228.771	52.39
228.989	-47.96
229.206	109.74
229.424	23.72
229.642	17.58
229.86	36.01
230.077	76.97
230.295	11.43
230.513	91.31
230.731	42.15
230.948	128.17
231.166	38.06
231.384	95.4
231.601	54.44
231.819	27.82
232.037	-11.09
232.254	21.67
232.472	56.49
232.689	33.96
232.907	83.11
233.125	29.87
233.342	-19.29
233.56	-60.24
233.777	-4.95
233.995	9.39
234.213	44.2
234.43	29.87
234.648	70.83
234.865	-58.2
235.083	74.92
235.3	60.59
235.518	62.63
235.735	56.49
235.953	29.87
236.17	74.92
236.388	38.06
236.605	-47.96
236.822	111.78
237.04	38.06
237.257	29.87
237.475	27.82
237.692	13.48
237.909	7.34
238.127	58.54
238.344	42.15
238.562	107.69
238.779	42.15
238.996	29.87
239.214	85.16
239.431	62.63
239.648	87.21
239.865	62.63
240.083	11.43
240.3	-47.96
240.517	95.4
240.735	29.87
240.952	111.78
241.169	117.93
241.386	-0.85
241.603	5.29
241.821	9.39
242.038	97.45
242.255	136.36
242.472	-45.91
242.689	76.97
242.907	-7
243.124	-2.9
243.341	25.77
243.558	19.63
243.775	46.25
243.992	66.73
244.209	79.02
244.426	117.93
244.643	15.53
244.86	46.25
245.078	50.35
245.295	62.63
245.512	19.63
245.729	19.63
245.946	29.87
246.163	146.6
246.38	95.4
246.597	91.31
246.814	62.63
247.031	-0.85
247.248	-39.76
247.464	38.06
247.681	44.2
247.898	54.44
248.115	119.98
248.332	-7
248.549	93.35
248.766	99.5
248.983	81.07
249.2	17.58
249.417	19.63
249.633	38.06
249.85	117.93
250.067	74.92
250.284	87.21
250.501	54.44
250.717	74.92
250.934	107.69
251.151	111.78
251.368	-21.33
251.585	101.55
251.801	128.17
252.018	60.59
252.235	52.39
252.451	46.25
252.668	-2.9
252.885	33.96
253.102	54.44
253.318	29.87
253.535	64.68
253.752	-31.57
253.968	-27.48
254.185	-45.91
254.401	-11.09
254.618	25.77
254.835	46.25
255.051	7.34
255.268	103.59
255.484	50.35
255.701	33.96
255.917	52.39
256.134	54.44
256.351	68.78
256.567	44.2
256.784	58.54
257	42.15
257.217	142.5
257.433	42.15
257.65	95.4
257.866	124.07
258.082	68.78
258.299	25.77
258.515	62.63
258.732	76.97
258.948	64.68
259.165	66.73
259.381	23.72
259.597	85.16
259.814	25.77
260.03	95.4
260.246	50.35
260.463	111.78
260.679	89.26
260.895	3.24
261.112	79.02
261.328	13.48
261.544	-60.24
261.761	181.42
261.977	85.16
262.193	-47.96
262.409	36.01
262.626	66.73
262.842	-19.29
263.058	17.58
263.274	58.54
263.49	-15.19
263.707	46.25
263.923	103.59
264.139	-7
264.355	-13.14
264.571	101.55
264.787	89.26
265.004	70.83
265.22	68.78
265.436	-27.48
265.652	11.43
265.868	-4.95
266.084	11.43
266.3	36.01
266.516	-11.09
266.732	54.44
266.948	21.67
267.164	52.39
267.38	1.19
267.596	85.16
267.812	76.97
268.028	38.06
268.244	15.53
268.46	46.25
268.676	5.29
268.892	33.96
269.108	31.91
269.324	42.15
269.54	25.77
269.756	48.3
269.972	54.44
270.188	-2.9
270.403	56.49
270.619	68.78
270.835	-11.09
271.051	83.11
271.267	83.11
271.483	13.48
271.698	48.3
271.914	58.54
272.13	21.67
272.346	81.07
272.562	56.49
272.777	87.21
272.993	27.82
273.209	29.87
273.425	66.73
273.64	5.29
273.856	109.74
274.072	38.06
274.287	95.4
274.503	52.39
274.719	70.83
274.934	7.34
275.15	-23.38
275.366	-2.9
275.581	29.87
275.797	62.63
276.012	29.87
276.228	66.73
276.444	87.21
276.659	42.15
276.875	-29.52
277.09	33.96
277.306	44.2
277.521	83.11
277.737	-13.14
277.952	60.59
278.168	17.58
278.383	-2.9
278.599	-35.67
278.814	52.39
279.03	52.39
279.245	74.92
279.461	33.96
279.676	44.2
279.892	-27.48
280.107	-60.24
280.322	60.59
280.538	85.16
280.753	25.77
280.969	54.44
281.184	21.67
281.399	27.82
281.615	79.02
281.83	103.59
282.045	11.43
282.26	48.3
282.476	72.87
282.691	54.44
282.906	111.78
283.122	-23.38
283.337	9.39
283.552	79.02
283.767	27.82
283.983	97.45
284.198	-7
284.413	15.53
284.628	58.54
284.843	-7
285.058	19.63
285.274	42.15
285.489	-17.24
285.704	46.25
285.919	91.31
286.134	70.83
286.349	95.4
286.564	13.48
286.779	56.49
286.995	31.91
287.21	-11.09
287.425	9.39
287.64	27.82
287.855	54.44
288.07	-31.57
288.285	58.54
288.5	191.66
288.715	-50
288.93	87.21
289.145	105.64
289.36	140.46
289.575	19.63
289.79	38.06
290.004	29.87
290.219	21.67
290.434	29.87
290.649	21.67
290.864	21.67
291.079	29.87
291.294	79.02
291.509	60.59
291.724	79.02
291.938	-19.29
292.153	52.39
292.368	19.63
292.583	25.77
292.798	138.41
293.012	42.15
293.227	44.2
293.442	13.48
293.657	87.21
293.871	124.07
294.086	-17.24
294.301	83.11
294.516	83.11
294.73	64.68
294.945	-45.91
295.16	38.06
295.374	48.3
295.589	99.5
295.804	33.96
296.018	70.83
296.233	117.93
296.447	83.11
296.662	58.54
296.877	119.98
297.091	3.24
297.306	76.97
297.52	70.83
297.735	70.83
297.949	-19.29
298.164	109.74
298.378	83.11
298.593	1.19
298.807	-9.05
299.022	31.91
299.236	99.5
299.451	50.35
299.665	29.87
299.88	-2.9
300.094	91.31
300.309	42.15
300.523	60.59
300.737	-9.05
300.952	-4.95
301.166	79.02
301.381	11.43
301.595	-15.19
301.809	111.78
302.024	36.01
302.238	-29.52
302.452	107.69
302.667	-23.38
302.881	74.92
303.095	21.67
303.309	64.68
303.524	38.06
303.738	79.02
303.952	83.11
304.166	62.63
304.381	5.29
304.595	103.59
304.809	36.01
305.023	46.25
305.237	36.01
305.452	79.02
305.666	97.45
305.88	70.83
306.094	91.31
306.308	81.07
306.522	111.78
306.736	42.15
306.95	11.43
307.164	46.25
307.379	50.35
307.593	21.67
307.807	36.01
308.021	99.5
308.235	29.87
308.449	38.06
308.663	-35.67
308.877	58.54
309.091	-9.05
309.305	99.5
309.519	-13.14
309.733	81.07
309.947	29.87
310.161	56.49
310.374	-39.76
310.588	48.3
310.802	23.72
311.016	29.87
311.23	60.59
311.444	25.77
311.658	23.72
311.872	152.74
312.085	29.87
312.299	79.02
312.513	58.54
312.727	31.91
312.941	52.39
313.154	111.78
313.368	119.98
313.582	-11.09
313.796	-15.19
314.009	44.2
314.223	72.87
314.437	27.82
314.651	97.45
314.864	15.53
315.078	-15.19
315.292	-33.62
315.505	-19.29
315.719	109.74
315.933	-2.9
316.146	93.35
316.36	111.78
316.573	76.97
316.787	54.44
317.001	115.88
317.214	7.34
317.428	25.77
317.641	-47.96
317.855	56.49
318.068	62.63
318.282	38.06
318.495	107.69
318.709	50.35
318.922	46.25
319.136	124.07
319.349	103.59
319.563	13.48
319.776	5.29
319.99	-2.9
320.203	3.24
320.417	-9.05
320.63	85.16
320.843	119.98
321.057	126.12
321.27	36.01
321.483	74.92
321.697	29.87
321.91	76.97
322.124	21.67
322.337	38.06
322.55	31.91
322.763	117.93
322.977	15.53
323.19	-15.19
323.403	58.54
323.617	46.25
323.83	195.75
324.043	-43.86
324.256	99.5
324.469	11.43
324.683	62.63
324.896	60.59
325.109	72.87
325.322	87.21
325.535	89.26
325.748	70.83
325.962	5.29
326.175	44.2
326.388	-2.9
326.601	103.59
326.814	-21.33
327.027	54.44
327.24	33.96
327.453	-4.95
327.666	19.63
327.879	48.3
328.092	74.92
328.305	76.97
328.518	-2.9
328.731	-13.14
328.944	60.59
329.157	33.96
329.37	36.01
329.583	79.02
329.796	169.13
330.009	40.11
330.222	72.87
330.435	68.78
330.648	42.15
330.861	15.53
331.073	95.4
331.286	-21.33
331.499	54.44
331.712	48.3
331.925	19.63
332.138	-4.95
332.35	17.58
332.563	3.24
332.776	93.35
332.989	58.54
333.202	-11.09
333.414	-4.95
333.627	111.78
333.84	66.73
334.053	36.01
334.265	-37.72
334.478	36.01
334.691	52.39
334.903	36.01
335.116	-4.95
335.329	9.39
335.541	111.78
335.754	60.59
335.966	21.67
336.179	58.54
336.392	38.06
336.604	21.67
336.817	52.39
337.029	21.67
337.242	-13.14
337.454	119.98
337.667	3.24
337.88	48.3
338.092	70.83
338.305	99.5
338.517	76.97
338.729	70.83
338.942	99.5
339.154	5.29
339.367	-7
339.579	62.63
339.792	44.2
340.004	19.63
340.217	79.02
340.429	-11.09
340.641	-13.14
340.854	-41.81
341.066	-19.29
341.278	52.39
341.491	23.72
341.703	9.39
341.915	52.39
342.128	44.2
342.34	79.02
342.552	31.91
342.764	79.02
342.977	66.73
343.189	103.59
343.401	46.25
343.613	17.58
343.826	29.87
344.038	50.35
344.25	11.43
344.462	5.29
344.674	54.44
344.886	95.4
345.099	66.73
345.311	60.59
345.523	52.39
345.735	-43.86
345.947	68.78
346.159	64.68
346.371	9.39
346.583	21.67
346.795	136.36
347.007	76.97
347.219	40.11
347.431	60.59
347.643	54.44
347.855	-7
348.067	128.17
348.279	13.48
348.491	91.31
348.703	-4.95
348.915	-29.52
349.127	95.4
349.339	46.25
349.551	-52.05
349.763	58.54
349.975	70.83
350.187	79.02
350.399	85.16
350.61	91.31
350.822	70.83
351.034	1.19
351.246	87.21
351.458	48.3
351.669	62.63
351.881	117.93
352.093	111.78
352.305	60.59
352.517	60.59
352.728	87.21
352.94	52.39
353.152	68.78
353.363	38.06
353.575	107.69
353.787	66.73
353.999	70.83
354.21	103.59
354.422	46.25
354.633	31.91
354.845	115.88
355.057	46.25
355.268	62.63
355.48	23.72
355.692	-2.9
355.903	89.26
356.115	44.2
356.326	1.19
356.538	48.3
356.749	93.35
356.961	38.06
357.172	42.15
357.384	21.67
357.595	138.41
357.807	85.16
358.018	40.11
358.23	87.21
358.441	126.12
358.653	60.59
358.864	111.78
359.075	36.01
359.287	50.35
359.498	62.63
359.709	42.15
359.921	62.63
360.132	31.91
360.344	126.12
360.555	23.72
360.766	72.87
360.977	109.74
361.189	50.35
361.4	-2.9
361.611	25.77
361.823	42.15
362.034	44.2
362.245	48.3
362.456	99.5
362.667	62.63
362.879	33.96
363.09	27.82
363.301	27.82
363.512	138.41
363.723	-31.57
363.935	83.11
364.146	152.74
364.357	79.02
364.568	74.92
364.779	-56.15
364.99	148.65
365.201	13.48
365.412	54.44
365.623	44.2
365.834	95.4
366.045	54.44
366.256	54.44
366.467	68.78
366.678	21.67
366.889	42.15
367.1	52.39
367.311	74.92
367.522	46.25
367.733	44.2
367.944	119.98
368.155	87.21
368.366	36.01
368.577	113.83
368.788	142.5
368.999	-52.05
369.209	19.63
369.42	103.59
369.631	107.69
369.842	128.17
370.053	38.06
370.264	40.11
370.474	68.78
370.685	54.44
370.896	38.06
371.107	79.02
371.317	38.06
371.528	-2.9
371.739	134.31
371.95	72.87
372.16	87.21
372.371	38.06
372.582	29.87
372.792	93.35
373.003	58.54
373.214	107.69
373.424	74.92
373.635	91.31
373.846	103.59
374.056	52.39
374.267	-7
374.477	42.15
374.688	87.21
374.898	83.11
375.109	87.21
375.319	62.63
375.53	95.4
375.74	29.87
375.951	62.63
376.161	62.63
376.372	64.68
376.582	42.15
376.793	89.26
377.003	48.3
377.214	-31.57
377.424	117.93
377.635	29.87
377.845	83.11
378.055	70.83
378.266	111.78
378.476	62.63
378.686	136.36
378.897	91.31
379.107	70.83
379.317	27.82
379.528	33.96
379.738	70.83
379.948	46.25
380.158	152.74
380.369	42.15
380.579	27.82
380.789	52.39
380.999	124.07
381.21	76.97
381.42	91.31
381.63	93.35
381.84	29.87
382.05	-15.19
382.261	132.26
382.471	66.73
382.681	97.45
382.891	36.01
383.101	83.11
383.311	103.59
383.521	13.48
383.731	136.36
383.941	87.21
384.151	23.72
384.361	136.36
384.571	87.21
384.781	62.63
384.991	124.07
385.201	134.31
385.411	101.55
385.621	70.83
385.831	62.63
386.041	50.35
386.251	13.48
386.461	89.26
386.671	11.43
386.881	117.93
387.091	144.55
387.301	27.82
387.511	101.55
387.72	70.83
387.93	70.83
388.14	-19.29
388.35	42.15
388.56	156.84
388.769	85.16
388.979	138.41
389.189	46.25
389.399	136.36
389.609	144.55
389.818	58.54
390.028	70.83
390.238	148.65
390.447	13.48
390.657	46.25
390.867	130.22
391.076	27.82
391.286	54.44
391.496	56.49
391.705	64.68
391.915	111.78
392.125	72.87
392.334	156.84
392.544	85.16
392.753	17.58
392.963	99.5
393.172	136.36
393.382	101.55
393.591	181.42
393.801	99.5
394.01	119.98
394.22	115.88
394.429	62.63
394.639	68.78
394.848	193.7
395.058	85.16
395.267	62.63
395.477	119.98
395.686	74.92
395.895	169.13
396.105	173.22
396.314	191.66
396.524	154.79
396.733	136.36
396.942	36.01
397.152	136.36
397.361	62.63
397.57	177.32
397.78	91.31
397.989	70.83
398.198	214.18
398.407	119.98
398.617	126.12
398.826	74.92
399.035	148.65
399.244	36.01
399.453	169.13
399.663	85.16
399.872	134.31
400.081	70.83
400.29	148.65
400.499	103.59
400.708	142.5
400.917	167.08
401.127	132.26
401.336	70.83
401.545	156.84
401.754	152.74
401.963	150.7
402.172	183.46
402.381	165.03
402.59	173.22
402.799	136.36
403.008	224.42
403.217	158.89
403.426	162.98
403.635	146.6
403.844	199.85
404.053	128.17
404.262	144.55
404.471	267.43
404.68	83.11
404.888	56.49
405.097	158.89
405.306	193.7
405.515	134.31
405.724	152.74
405.933	234.66
406.142	265.38
406.35	152.74
406.559	187.56
406.768	249
406.977	253.09
407.185	265.38
407.394	199.85
407.603	197.8
407.812	232.62
408.02	257.19
408.229	242.85
408.438	308.39
408.646	261.29
408.855	226.47
409.064	312.49
409.272	269.48
409.481	349.35
409.69	292.01
409.898	255.14
410.107	308.39
410.315	371.88
410.524	283.81
410.733	382.12
410.941	320.68
411.15	371.88
411.358	404.64
411.567	472.23
411.775	443.56
411.984	490.66
412.192	470.18
412.401	502.95
412.609	488.61
412.818	578.72
413.026	595.11
413.234	595.11
413.443	627.87
413.651	595.11
413.86	623.78
414.068	697.5
414.276	660.64
414.485	619.68
414.693	750.75
414.901	793.76
415.11	808.09
415.318	857.25
415.526	902.3
415.734	754.85
415.943	896.16
416.151	894.11
416.359	980.12
416.567	945.31
416.776	939.16
416.984	1021.08
417.192	1141.91
417.4	1129.63
417.608	1086.62
417.817	1182.87
418.025	1182.87
418.233	1270.94
418.441	1281.18
418.649	1352.85
418.857	1381.53
419.065	1477.78
419.273	1397.91
419.481	1551.51
419.689	1645.71
419.897	1713.3
420.105	1627.28
420.313	1688.72
420.521	1698.96
420.729	1723.54
420.937	1922.19
421.145	1885.33
421.353	2069.64
421.561	2096.27
421.769	2124.94
421.977	2290.82
422.185	2215.05
422.393	2348.17
422.601	2370.69
422.809	2448.52
423.017	2528.39
423.224	2700.42
423.432	2724.99
423.64	2749.57
423.848	2962.56
424.056	2870.4
424.263	3241.08
424.471	3208.31
424.679	3196.03
424.887	3400.82
425.094	3437.69
425.302	3617.91
425.51	3730.55
425.718	3679.35
425.925	3794.03
426.133	3943.53
426.341	4252.78
426.548	4383.85
426.756	4220.01
426.964	4416.62
427.171	4645.99
427.379	4844.64
427.586	4928.61
427.794	4953.18
428.001	5141.6
428.209	5346.39
428.417	5280.86
428.624	5712.98
428.832	5657.68
429.039	5743.7
429.247	5856.34
429.454	6374.47
429.662	6599.75
429.869	6460.49
430.076	6734.92
430.284	6556.74
430.491	6861.89
430.699	7138.37
430.906	7171.13
431.114	7234.62
431.321	7500.86
431.528	7713.84
431.736	7881.78
431.943	8498.22
432.15	8442.92
432.358	8418.35
432.565	8864.8
432.772	8852.52
432.979	9477.15
433.187	9534.49
433.394	9442.33
433.601	10128.4
433.808	10077.2
434.016	10173.46
434.223	10646.54
434.43	11256.83
434.637	11109.38
434.844	11570.17
435.052	11883.51
435.259	11789.3
435.466	11877.37
435.673	11811.83
435.88	12489.71
436.087	13333.47
436.294	13188.07
436.501	12854.25
436.708	13126.63
436.915	13622.23
437.122	14586.83
437.329	14367.7
437.537	14701.51
437.743	14986.18
437.95	14824.39
438.157	15651.77
438.364	16063.41
438.571	15893.43
438.778	16192.44
438.985	17621.92
439.192	17052.58
439.399	17468.32
439.606	17322.91
439.813	18176.92
440.02	19202.95
440.227	18697.1
440.433	18523.02
440.64	19217.29
440.847	19217.29
441.054	19657.6
441.261	20783.98
441.467	20652.91
441.674	20972.39
441.881	21826.4
442.088	21869.4
442.294	21457.76
442.501	22463.32
442.708	22844.24
442.914	23532.36
443.121	24595.25
443.328	24107.83
443.534	25631.52
443.741	24996.65
443.948	24537.91
444.154	26643.22
444.361	26127.13
444.568	26372.89
444.774	26651.41
444.981	26340.12
445.187	27607.81
445.394	28506.87
445.6	28345.08
445.807	31048.4
446.013	29823.72
446.22	30233.31
446.426	31498.95
446.633	32025.28
446.839	32793.27
447.046	31611.59
447.252	32901.81
447.459	33036.98
447.665	33127.09
447.871	34634.39
448.078	35877.51
448.284	34579.1
448.491	34996.88
448.697	36268.67
448.903	37184.12
449.11	37386.86
449.316	36403.84
449.522	37130.87
449.728	38232.68
449.935	38453.86
450.141	38648.41
450.347	39725.64
450.553	37724.78
450.76	38961.75
450.966	39854.67
451.172	39381.59
451.378	40178.25
451.584	39750.22
451.791	40301.12
451.997	40286.79
452.203	40653.37
452.409	40589.89
452.615	40892.99
452.821	38697.56
453.027	38861.4
453.233	40608.32
453.44	38992.47
453.646	39307.86
453.852	39713.36
454.058	40366.66
454.264	39248.47
454.47	39748.17
454.676	38761.05
454.882	40120.9
455.088	36553.34
455.294	37169.78
455.5	37620.33
455.705	37718.64
455.911	36389.5
456.117	35584.65
456.323	35130
456.529	33579.69
456.735	34620.06
456.941	33919.65
457.147	33587.88
457.352	32490.17
457.558	31507.15
457.764	31832.77
457.97	31138.51
458.176	30653.14
458.381	30419.67
458.587	29555.43
458.793	29225.71
458.999	27532.04
459.204	29557.48
459.41	28850.93
459.616	26477.33
459.821	27179.79
460.027	26899.22
460.233	26116.89
460.438	25027.37
460.644	25123.63
460.85	24214.33
461.055	23845.69
461.261	23647.04
461.466	21904.22
461.672	21078.89
461.878	22850.38
462.083	21166.95
462.289	20636.53
462.494	20665.2
462.7	19547.01
462.905	19016.58
463.111	19864.44
463.316	19837.82
463.522	19430.27
463.727	19323.78
463.932	19407.75
464.138	19043.21
464.343	19454.85
464.549	18697.1
464.754	19258.24
464.959	19118.98
465.165	18836.36
465.37	18213.78
465.575	17777.56
465.781	18619.28
465.986	18578.32
466.191	17935.26
466.397	17662.88
466.602	16542.64
466.807	17484.7
467.012	17572.77
467.218	17277.86
467.423	17005.48
467.628	17030.05
467.833	17945.5
468.038	17126.31
468.244	16737.2
468.449	17492.9
468.654	16679.85
468.859	16788.39
469.064	16559.02
469.269	16229.3
469.474	16012.21
469.679	16223.16
469.885	15756.22
470.09	16237.49
470.295	15983.54
470.5	15530.94
470.705	15604.67
470.91	15483.84
471.115	15143.88
471.32	15446.97
471.525	15340.48
471.73	14857.16
471.935	14699.47
472.139	14427.09
472.344	14633.93
472.549	14318.54
472.754	14351.31
472.959	14058.45
473.164	13724.63
473.369	13636.57
473.574	13923.29
473.778	13904.85
473.983	13861.85
474.188	13448.16
474.393	13126.63
474.598	13048.8
474.802	13087.71
475.007	12727.27
475.212	12889.06
475.417	12391.41
475.621	12512.24
475.826	12506.09
476.031	12297.2
476.235	11985.91
476.44	12252.14
476.645	11836.41
476.849	11832.31
477.054	11623.42
477.259	11486.2
477.463	11523.07
477.668	11361.28
477.872	11451.39
478.077	11351.04
478.282	10910.72
478.486	11031.55
478.691	10920.96
478.895	10818.57
479.1	10830.85
479.304	10775.56
479.509	10497.03
479.713	10581
479.918	10411.02
480.122	10335.24
480.326	10519.56
480.531	10540.04
480.735	10112.02
480.94	10097.68
481.144	10394.64
481.348	10095.63
481.553	10277.9
481.757	9763.86
481.961	9929.75
482.166	10417.16
482.37	9966.61
482.574	9890.84
482.778	10038.29
482.983	10089.49
483.187	10073.1
483.391	9890.84
483.595	10077.2
483.8	9913.36
484.004	9999.38
484.208	10056.72
484.412	10005.52
484.616	10060.82
484.821	9999.38
485.025	9876.5
485.229	10269.71
485.433	9776.15
485.637	9954.32
485.841	9880.6
486.045	9896.98
486.249	9835.54
486.453	9704.47
486.657	9991.19
486.861	10169.36
487.065	9638.94
487.269	9886.74
487.473	9665.56
487.677	10091.54
487.881	10159.12
488.085	9929.75
488.289	10114.06
488.493	9946.13
488.697	10107.92
488.901	10046.48
489.105	9999.38
489.309	9882.64
489.512	10019.86
489.716	9954.32
489.92	10075.15
490.124	9745.43
490.328	10148.88
490.531	10122.26
490.735	10255.37
490.939	10138.64
491.143	10216.46
491.346	10152.98
491.55	10279.95
491.754	10431.5
491.958	10521.61
492.161	10615.82
492.365	10531.85
492.569	10535.95
492.772	10359.82
492.976	10552.33
493.18	10736.65
493.383	10793.99
493.587	10761.22
493.79	11076.61
493.994	10769.41
494.197	10998.79
494.401	11416.57
494.605	11006.98
494.808	11052.03
495.012	11123.71
495.215	11166.72
495.419	11406.33
495.622	11555.83
495.825	11480.06
496.029	11586.55
496.232	11947
496.436	11729.91
496.639	11979.76
496.843	12069.87
497.046	12301.29
497.249	12149.75
497.453	12229.62
497.656	12669.93
497.859	12352.49
498.063	12725.22
498.266	12938.21
498.469	13319.14
498.673	13118.43
498.876	13120.48
499.079	13282.27
499.282	13444.06
499.485	13853.66
499.689	13743.06
499.892	14035.92
500.095	14101.46
500.298	14371.79
500.501	14267.34
500.705	14363.6
500.908	14803.91
501.111	14873.54
501.314	15190.98
501.517	15328.19
501.72	15295.43
501.923	15459.26
502.126	15754.17
502.329	15872.95
502.532	16006.07
502.735	16462.77
502.938	16475.06
503.141	16632.75
503.344	16876.46
503.547	16905.13
503.75	17081.25
503.953	17111.97
504.156	17509.28
504.359	17638.3
504.562	17830.81
504.765	18013.08
504.968	18301.84
505.17	18639.76
505.373	18453.39
505.576	19094.41
505.779	19207.05
505.982	19254.15
506.185	19579.78
506.387	19293.06
506.59	19774.33
506.793	20394.87
506.996	20013.95
507.198	20589.42
507.401	20747.12
507.604	20949.87
507.807	21166.95
508.009	21347.17
508.212	21498.72
508.415	21807.97
508.617	22057.82
508.82	22170.46
509.022	22207.32
509.225	22616.91
509.428	23028.56
509.63	22981.45
509.833	23278.41
510.035	23716.67
510.238	23362.37
510.44	23976.76
510.643	24476.47
510.845	24668.98
511.048	24267.58
511.25	24793.9
511.453	24947.5
511.655	26006.3
511.858	25561.89
512.06	25729.83
512.262	26180.38
512.465	25877.28
512.667	26690.32
512.87	27360.01
513.072	26870.54
513.274	27790.08
513.477	27949.82
513.679	28160.76
513.881	28467.96
514.084	28711.67
514.286	28668.66
514.488	28713.72
514.69	29364.97
514.893	29706.98
515.095	29489.9
515.297	30063.33
515.499	30159.58
515.701	30919.38
515.904	31083.22
516.106	31414.99
516.308	31701.7
516.51	32363.2
516.712	32072.39
516.914	32492.22
517.116	32981.68
517.318	33071.79
517.52	33405.61
517.722	33303.21
517.925	33897.13
518.127	34556.57
518.329	34759.32
518.531	34605.72
518.733	35138.19
518.935	35881.61
519.136	36104.84
519.338	36000.39
519.54	36229.76
519.742	36866.68
519.944	37208.69
520.146	37700.2
520.348	37735.02
520.55	38087.27
520.752	38046.31
520.954	38990.42
521.155	38752.86
521.357	39510.61
521.559	39983.69
521.761	40426.05
521.963	40344.13
522.164	40548.93
522.366	40993.34
522.568	41384.5
522.77	41607.73
522.971	42211.88
523.173	41865.77
523.375	42222.12
523.576	42957.34
523.778	42730.01
523.98	43418.13
524.181	43457.04
524.383	43991.56
524.584	44294.66
524.786	43995.66
524.988	44478.98
525.189	44982.78
525.391	44988.92
525.592	45572.6
525.794	45978.09
525.995	45722.1
526.197	45926.89
526.398	46545.38
526.6	46778.85
526.801	47124.96
527.003	47102.43
527.204	47069.66
527.406	48069.07
527.607	47675.86
527.808	48351.69
528.01	47550.93
528.211	48159.18
528.412	49109.44
528.614	48855.49
528.815	49273.27
529.016	49736.12
529.218	49109.44
529.419	49293.75
529.62	50047.41
529.822	49676.72
530.023	49738.16
530.224	49478.07
530.425	49830.32
530.626	49936.82
530.828	50198.96
531.029	50989.47
531.23	50366.89
531.431	50565.54
531.632	51268
531.833	51102.11
532.035	51151.26
532.236	51112.35
532.437	51659.16
532.638	51009.95
532.839	51853.72
533.04	51628.44
533.241	51231.13
533.442	52248.97
533.643	52025.74
533.844	51657.11
534.045	51769.75
534.246	51288.48
534.447	52296.08
534.648	51749.27
534.849	52410.76
535.05	51972.5
535.251	52486.54
535.451	52283.79
535.652	52466.06
535.853	52193.68
536.054	52484.49
536.255	52619.66
536.456	51620.25
536.657	52648.33
536.857	52752.77
537.058	52468.11
537.259	52967.81
537.46	52992.39
537.66	52513.16
537.861	52586.89
538.062	52459.91
538.263	52705.67
538.463	52625.8
538.664	52783.49
538.865	52853.12
539.065	53188.99
539.266	52210.06
539.466	52738.44
539.667	52027.79
539.868	53229.95
540.068	52713.86
540.269	52705.67
540.469	52500.87
540.67	52464.01
540.87	52533.64
541.071	52437.39
541.271	53041.54
541.472	52552.07
541.672	52695.43
541.873	52644.23
542.073	51763.6
542.274	52945.28
542.474	52625.8
542.675	52504.97
542.875	53090.69
543.075	52640.14
543.276	52382.09
543.476	52992.39
543.676	52337.04
543.877	52980.1
544.077	52509.07
544.277	53115.26
544.478	52574.6
544.678	52930.95
544.878	52457.87
545.078	52648.33
545.279	52740.49
545.479	52074.9
545.679	52590.98
545.879	52365.71
546.079	52380.04
546.28	52744.58
546.48	52150.67
546.68	52154.77
546.88	52631.94
547.08	52525.45
547.28	52031.89
547.48	51724.69
547.68	52380.04
547.88	52132.24
548.081	52459.91
548.281	52105.62
548.481	52320.65
548.681	52574.6
548.881	51906.96
549.081	52500.87
549.28	51970.45
549.48	52312.46
549.68	52404.62
549.88	52976
550.08	52099.47
550.28	52648.33
550.48	52201.87
550.68	52398.48
550.88	51870.1
551.08	52011.41
551.279	52212.11
551.479	52081.04
551.679	52238.73
551.879	52279.69
552.079	52648.33
552.278	52066.7
552.478	52197.77
552.678	51782.04
552.878	52421
553.077	51986.83
553.277	51364.25
553.477	51898.77
553.676	52328.84
553.876	51995.03
554.076	51542.42
554.275	51374.49
554.475	51554.71
554.674	51890.58
554.874	51685.78
555.074	51648.92
555.273	51417.5
555.473	51829.14
555.672	50747.81
555.872	51431.83
556.071	51505.56
556.271	51544.47
556.47	50481.58
556.67	50776.48
556.869	50862.5
557.068	50946.47
557.268	50907.55
557.467	50649.51
557.667	50690.47
557.866	50618.79
558.065	50708.9
558.265	50168.24
558.464	50076.08
558.663	50559.4
558.863	49658.29
559.062	50616.74
559.261	49684.92
559.461	49887.67
559.66	49486.26
559.859	50063.79
560.058	49193.4
560.258	49527.22
560.457	49121.73
560.656	49873.33
560.855	48955.84
561.054	49633.72
561.253	48695.75
561.453	48900.54
561.652	49166.78
561.851	49058.24
562.05	48462.28
562.249	48239.05
562.448	48742.85
562.647	48290.25
562.846	48376.26
563.045	48187.85
563.244	47890.9
563.443	48241.1
563.642	47471.06
563.841	47526.36
564.04	47387.1
564.239	47737.3
564.438	47108.57
564.637	47225.31
564.836	47127
565.035	46723.55
565.234	46907.87
565.432	46873.06
565.631	46215.66
565.83	46539.24
566.029	46053.87
566.228	46109.16
566.427	46041.58
566.625	45480.44
566.824	45058.56
567.023	45795.82
567.222	45099.51
567.42	45509.11
567.619	45165.05
567.818	44845.57
568.016	44990.97
568.215	44909.05
568.414	44411.4
568.612	44612.1
568.811	44339.72
569.01	43950.6
569.208	43575.83
569.407	44317.19
569.605	43768.33
569.804	43932.17
570.002	43358.74
570.201	43092.51
570.4	43117.08
570.598	42699.3
570.797	43117.08
570.995	42744.35
571.193	42140.2
571.392	42703.39
571.59	42244.65
571.789	41974.31
571.987	41804.33
572.186	41601.58
572.384	41617.97
572.582	41572.91
572.781	41888.3
572.979	40985.15
573.177	41382.45
573.376	40643.13
573.574	40852.03
573.772	41056.82
573.971	40671.81
574.169	40516.16
574.367	40286.79
574.565	40247.88
574.763	39993.93
574.962	40114.76
575.16	39729.74
575.358	39807.56
575.556	38957.66
575.754	39930.44
575.952	39369.3
576.151	39471.7
576.349	38795.87
576.547	38832.73
576.745	39139.93
576.943	38810.2
577.141	38181.48
577.339	38447.71
577.537	38279.78
577.735	38402.66
577.933	37911.14
578.131	38117.99
578.329	37370.48
578.527	37350
578.725	37732.97
578.923	37460.59
579.121	37413.49
579.319	37407.34
579.516	37519.98
579.714	37538.41
579.912	36721.27
580.11	36770.43
580.308	36897.4
580.506	36258.43
580.704	36205.19
580.901	36405.89
581.099	36522.62
581.297	35867.27
581.495	36027.01
581.692	35916.42
581.89	35390.09
582.088	35766.92
582.285	35353.23
582.483	35377.81
582.681	35486.35
582.878	35252.88
583.076	34390.69
583.274	35005.08
583.471	34149.03
583.669	35003.03
583.866	34503.32
584.064	34534.04
584.262	34263.71
584.459	34560.67
584.657	33927.84
584.854	34474.65
585.052	33768.1
585.249	33921.7
585.447	34175.65
585.644	33452.72
585.841	33710.76
586.039	33671.85
586.236	33151.66
586.434	33032.88
586.631	33176.24
586.828	33055.41
587.026	32830.13
587.223	32856.76
587.42	32924.34
587.618	32735.93
587.815	32643.77
588.012	32230.08
588.21	32131.78
588.407	32015.04
588.604	32133.82
588.801	31939.27
588.999	31703.75
589.196	31775.43
589.393	31374.03
589.59	31855.3
589.787	31455.95
589.984	31318.73
590.182	30675.67
590.379	31046.35
590.576	30903
590.773	31238.86
590.97	30812.88
591.167	31029.97
591.364	30595.8
591.561	30978.77
591.758	30468.83
591.955	30454.49
592.152	30569.18
592.349	29981.41
592.546	30399.19
592.743	29817.57
592.94	29780.71
593.137	30008.03
593.334	30132.96
593.531	29725.41
593.727	29555.43
593.924	29659.88
594.121	29606.63
594.318	29743.84
594.515	28992.24
594.712	29696.74
594.908	28803.83
595.105	29305.58
595.302	28967.66
595.499	29096.69
595.696	28881.65
595.892	28302.07
596.089	28867.31
596.286	28855.03
596.482	28261.12
596.679	28388.09
596.876	28818.16
597.072	28056.32
597.269	28068.61
597.466	27962.11
597.662	27855.62
597.859	27468.55
598.055	27902.72
598.252	27296.52
598.448	27468.55
598.645	27228.94
598.841	27335.43
599.038	27155.21
599.234	27085.58
599.431	26774.29
599.627	26895.12
599.824	26848.02
600.02	26985.23
600.217	26735.38
600.413	26848.02
600.609	26350.36
600.806	26303.26
601.002	26266.39
601.198	26032.93
601.395	26342.17
601.591	26209.05
601.787	26075.93
601.984	25623.33
602.18	26217.24
602.376	25955.1
602.572	25793.31
602.769	25654.05
602.965	25226.03
603.161	25604.9
603.357	25064.24
603.553	25363.24
603.75	25174.83
603.946	24900.4
604.142	25361.19
604.338	24761.14
604.534	25049.9
604.73	24656.69
604.926	24427.32
605.122	24746.8
605.318	24525.62
605.514	24423.22
605.71	24415.03
605.906	24558.39
606.102	23849.79
606.298	24136.51
606.494	24415.03
606.69	24126.27
606.886	24216.38
607.082	23657.28
607.278	23921.47
607.474	23515.97
607.67	23665.47
607.866	23419.72
608.062	23976.76
608.257	23358.28
608.453	23595.84
608.649	23485.25
608.845	23120.71
609.041	23397.19
609.236	23022.41
609.432	22889.29
609.628	22795.09
609.824	23159.63
610.019	23087.95
610.215	22758.22
610.411	22795.09
610.606	22420.31
610.802	22641.49
610.998	22659.92
611.193	22903.63
611.389	22350.68
611.584	22362.97
611.78	22539.09
611.976	22403.92
612.171	22389.59
612.367	22088.54
612.562	22135.64
612.758	21953.37
612.953	21844.83
613.149	22336.34
613.344	22094.68
613.539	22123.35
613.735	21875.55
613.93	22043.48
614.126	21762.91
614.321	21941.08
614.517	21746.53
614.712	21654.37
614.907	21625.7
615.103	21848.93
615.298	21410.66
615.493	21437.28
615.688	21093.22
615.884	21635.94
616.079	21189.48
616.274	21468
616.47	20929.39
616.665	21136.23
616.86	21087.08
617.055	21402.47
617.25	21027.69
617.445	20966.25
617.641	20853.61
617.836	21042.03
618.031	20462.45
618.226	20681.58
618.421	20648.82
618.616	20652.91
618.811	20421.49
619.006	20751.21
619.201	19987.32
619.396	20341.62
619.591	19786.62
619.786	20192.12
619.981	19663.74
620.176	20075.38
620.371	19696.51
620.566	19854.2
620.761	19649.41
620.956	19657.6
621.151	19104.65
621.346	19614.59
621.541	19170.18
621.735	19305.35
621.93	19069.83
622.125	19428.23
622.32	18817.93
622.515	18924.43
622.709	18840.46
622.904	18502.54
623.099	18555.79
623.294	18488.21
623.488	18394
623.683	18385.81
623.878	17978.26
624.072	18000.79
624.267	17953.69
624.462	17642.4
624.656	17787.8
624.851	17580.96
625.046	17513.38
625.24	17580.96
625.435	17234.85
625.629	17165.22
625.824	17302.43
626.018	17214.37
626.213	16937.9
626.407	16874.41
626.602	16593.84
626.796	16661.42
626.991	16655.28
627.185	16550.83
627.38	16509.87
627.574	16427.95
627.768	16214.96
627.963	16110.52
628.157	16104.37
628.352	16253.87
628.546	15930.3
628.74	15995.83
628.935	15827.9
629.129	15676.35
629.323	15332.29
629.517	15487.93
629.712	15422.4
629.906	15465.41
630.1	15090.63
630.294	15320
630.489	15285.19
630.683	15164.36
630.877	14810.06
631.071	14762.95
631.265	14910.41
631.459	14570.44
631.653	14672.84
631.848	14494.67
632.042	14496.72
632.236	14525.39
632.43	14361.55
632.624	14230.48
632.818	14310.35
633.012	13872.09
633.206	14037.97
633.4	14304.21
633.594	13849.56
633.788	13734.87
633.982	13814.74
634.176	13865.94
634.369	13591.52
634.563	13515.74
634.757	13460.45
634.951	13501.4
635.145	13364.19
635.339	13509.6
635.533	13331.42
635.726	13306.85
635.92	12727.27
636.114	12950.5
636.308	13075.43
636.501	12854.25
636.695	12817.38
636.889	12755.94
637.083	12690.41
637.276	12585.96
637.47	12209.14
637.664	12440.56
637.857	12348.4
638.051	12399.6
638.244	12129.27
638.438	12106.74
638.632	12237.81
638.825	11863.03
639.019	11817.97
639.212	11711.48
639.406	11953.14
639.599	11803.64
639.793	11795.45
639.986	11518.97
640.18	11555.83
640.373	11422.72
640.567	11432.96
640.76	11379.71
640.954	11299.84
641.147	11351.04
641.34	11283.45
641.534	11084.8
641.727	11215.87
641.92	11045.89
642.114	10902.53
642.307	10851.33
642.5	10820.61
642.694	10662.92
642.887	10732.55
643.08	10685.45
643.273	10568.71
643.467	10488.84
643.66	10494.99
643.853	10406.92
644.046	10400.78
644.239	10212.37
644.432	10294.29
644.626	10109.97
644.819	10175.5
645.012	10261.52
645.205	10112.02
645.398	9917.46
645.591	9763.86
645.784	9929.75
645.977	9712.66
646.17	9843.73
646.363	9765.91
646.556	9647.13
646.749	9606.17
646.942	9557.02
647.135	9528.35
647.328	9436.19
647.521	9544.73
647.714	9145.38
647.907	9350.17
648.099	9182.24
648.292	9288.73
648.485	9286.68
648.678	9012.26
648.871	9010.21
649.064	9151.52
649.256	9112.61
649.449	9178.14
649.642	8940.58
649.835	8832.04
650.027	8768.55
650.22	8653.86
650.413	8635.43
650.605	8932.39
650.798	8631.33
650.991	8471.59
651.183	8315.95
651.376	8399.91
651.568	8311.85
651.761	8283.18
651.954	8342.57
652.146	8184.88
652.339	8274.99
652.531	8129.58
652.724	8131.63
652.916	7932.98
653.109	7982.13
653.301	7980.08
653.494	8039.47
653.686	7918.64
653.879	8201.26
654.071	7758.9
654.263	7812.15
654.456	7801.91
654.648	7840.82
654.84	7752.76
655.033	7713.84
655.225	7670.84
655.417	7652.41
655.61	7742.52
655.802	7636.02
655.994	7500.86
656.186	7537.72
656.379	7517.24
656.571	7357.5
656.763	7441.47
656.955	7144.51
657.148	7435.32
657.34	7283.77
657.532	7281.72
657.724	7091.26
657.916	7148.61
658.108	7183.42
658.3	7105.6
658.492	7038.02
658.684	7015.49
658.876	6829.12
659.068	7195.71
659.26	7046.21
659.452	6966.34
659.644	6861.89
659.836	6786.12
660.028	6779.97
660.22	6646.85
660.412	6714.44
660.604	6730.82
660.796	6779.97
660.988	6718.53
661.18	6726.72
661.372	6607.94
661.563	6616.13
661.755	6530.12
661.947	6507.59
662.139	6437.96
662.331	6333.51
662.522	6296.65
662.714	6429.77
662.906	6411.34
663.097	6362.19
663.289	6261.84
663.481	6224.97
663.673	6280.27
663.864	6294.6
664.056	6210.64
664.247	6136.91
664.439	6235.21
664.631	6073.42
664.822	6280.27
665.014	6188.11
665.205	5817.43
665.397	6059.09
665.588	5968.98
665.78	6030.41
665.971	5934.16
666.163	6134.86
666.354	6087.76
666.546	5934.16
666.737	5878.86
666.929	5934.16
667.12	5801.04
667.311	5913.68
667.503	5788.75
667.694	5846.1
667.885	5846.1
668.077	5786.71
668.268	5712.98
668.459	5721.17
668.651	5706.84
668.842	5637.2
669.033	5862.48
669.224	5678.16
669.416	5727.32
669.607	5688.4
669.798	5590.1
669.989	5731.41
670.18	5659.73
670.371	5608.53
670.563	5332.06
670.754	5631.06
670.945	5645.4
671.136	5657.68
671.327	5631.06
671.518	5655.64
671.709	5688.4
671.9	5846.1
672.091	5684.31
672.282	5614.68
672.473	5485.65
672.664	5563.48
672.855	5602.39
673.046	5516.37
673.237	5698.64
673.428	5581.91
673.619	5522.52
673.809	5631.06
674	5448.79
674.191	5620.82
674.382	5502.04
674.573	5485.65
674.764	5643.35
674.954	5780.56
675.145	5409.88
675.336	5491.8
675.527	5481.56
675.717	5614.68
675.908	5518.42
676.099	5583.96
676.289	5469.27
676.48	5641.3
676.671	5424.22
676.861	5504.09
677.052	5522.52
677.243	5411.93
677.433	5450.84
677.624	5837.91
677.814	5465.18
678.005	5598.29
678.195	5721.17
678.386	5661.78
678.576	5690.45
678.767	5454.94
678.957	5665.88
679.148	5753.94
679.338	5690.45
679.529	5737.56
679.719	5690.45
679.909	5649.49
680.1	5672.02
680.29	5704.79
680.481	5751.89
680.671	5870.67
680.861	5753.94
681.052	5766.23
681.242	5502.04
681.432	5717.08
681.622	5698.64
681.813	5735.51
682.003	5776.47
682.193	5698.64
682.383	5784.66
682.573	5762.13
682.764	5606.49
682.954	5811.28
683.144	5801.04
683.334	5821.52
683.524	6038.61
683.714	5903.44
683.904	5751.89
684.094	5647.44
684.284	5780.56
684.474	5825.62
684.664	5971.02
684.854	5674.07
685.044	5882.96
685.234	5968.98
685.424	5745.75
685.614	5721.17
685.804	5901.39
685.994	5788.75
686.184	5837.91
686.374	5768.27
686.564	5639.25
686.753	5678.16
686.943	5557.33
687.133	5721.17
687.323	5588.05
687.513	5510.23
687.702	5672.02
687.892	5534.81
688.082	5530.71
688.272	5719.12
688.461	5604.44
688.651	5530.71
688.841	5534.81
689.03	5577.81
689.22	5280.86
689.41	5377.11
689.599	5321.82
689.789	5475.42
689.979	5397.59
690.168	5350.49
690.358	5354.58
690.547	5166.17
690.737	5370.97
690.926	5155.93
691.116	5149.79
691.305	5254.23
691.495	5133.4
691.684	5057.63
691.874	5071.97
692.063	5131.36
692.252	5227.61
692.442	5076.06
692.631	4959.33
692.82	4822.11
693.01	4879.46
693.199	4969.57
693.388	4822.11
693.578	4908.13
693.767	4893.79
693.956	4949.09
694.146	4854.88
694.335	4828.26
694.524	4809.83
694.713	4826.21
694.902	4766.82
695.092	4734.05
695.281	4613.22
695.47	4660.32
695.659	4674.66
695.848	4727.91
696.037	4664.42
696.226	4740.19
696.415	4670.56
696.604	4732
696.793	4650.08
696.982	4582.5
697.171	4578.4
697.36	4596.84
697.549	4613.22
697.738	4660.32
697.927	4570.21
698.116	4664.42
698.305	4592.74
698.494	4723.81
698.683	4633.7
698.872	4602.98
699.061	4535.4
699.25	4559.97
699.438	4613.22
699.627	4584.55
699.816	4598.88
700.005	4666.47
700.193	4666.47
700.382	4547.69
700.571	4650.08
700.76	4496.49
700.948	4609.12
701.137	4623.46
701.326	4557.93
701.514	4594.79
701.703	4641.89
701.892	4533.35
702.08	4740.19
702.269	4453.48
702.457	4449.38
702.646	4598.88
702.834	4596.84
703.023	4541.54
703.212	4498.53
703.4	4551.78
703.589	4461.67
703.777	4662.37
703.965	4584.55
704.154	4713.57
704.342	4658.28
704.531	4740.19
704.719	4674.66
704.907	4580.45
705.096	4752.48
705.284	4635.75
705.472	4582.5
705.661	4549.73
705.849	4703.33
706.037	4787.3
706.226	4613.22
706.414	4658.28
706.602	4609.12
706.79	4822.11
706.979	4754.53
707.167	4787.3
707.355	4576.36
707.543	4680.8
707.731	4869.22
707.919	4867.17
708.107	4854.88
708.296	4670.56
708.484	4828.26
708.672	4805.73
708.86	4785.25
709.048	4840.54
709.236	4940.9
709.424	4830.3
709.612	5026.91
709.8	4793.44
709.988	4820.07
710.176	4846.69
710.364	4979.81
710.551	5018.72
710.739	4879.46
710.927	4936.8
711.115	4887.65
711.303	4899.94
711.491	5082.21
711.679	4871.26
711.866	4977.76
712.054	5016.67
712.242	5078.11
712.43	5090.4
712.617	5071.97
712.805	5119.07
712.993	4840.54
713.181	4930.66
713.368	5346.39
713.556	5217.37
713.744	5080.16
713.931	5071.97
714.119	5166.17
714.306	5215.32
714.494	5102.68
714.682	5149.79
714.869	5180.51
715.057	5219.42
715.244	5207.13
715.432	5403.74
715.619	5366.87
715.807	5223.51
715.994	5260.38
716.182	5344.35
716.369	5362.78
716.556	5401.69
716.744	5442.65
716.931	5280.86
717.119	5483.61
717.306	5293.15
717.493	5514.33
717.681	5354.58
717.868	5481.56
718.055	5493.85
718.242	5438.55
718.43	5686.36
718.617	5520.47
718.804	5624.92
718.991	5719.12
719.179	5428.31
719.366	5524.57
719.553	5624.92
719.74	5559.38
719.927	5678.16
720.114	5598.29
720.301	5645.4
720.488	5516.37
720.676	5586.01
720.863	5688.4
721.05	5839.95
721.237	5755.99
721.424	5792.85
721.611	5776.47
721.798	5682.26
721.985	5624.92
722.172	5624.92
722.358	5723.22
722.545	5674.07
722.732	5796.95
722.919	5770.32
723.106	5747.79
723.293	5919.82
723.48	5852.24
723.667	5776.47
723.853	5858.39
724.04	5796.95
724.227	5868.63
724.414	5712.98
724.6	5895.25
724.787	5979.22
724.974	5981.26
725.161	5923.92
725.347	5917.78
725.534	5958.74
725.72	6024.27
725.907	6147.15
726.094	6122.57
726.28	6040.65
726.467	5860.43
726.653	5973.07
726.84	6128.72
727.027	6059.09
727.213	5792.85
727.4	6057.04
727.586	6116.43
727.773	6007.89
727.959	5993.55
728.145	6190.16
728.332	6100.05
728.518	6149.2
728.705	6224.97
728.891	6141
729.077	6184.01
729.264	6147.15
729.45	6147.15
729.636	6327.37
729.823	6079.57
730.009	6124.62
730.195	6208.59
730.382	6253.64
730.568	6171.72
730.754	6229.07
730.94	6263.88
731.126	6286.41
731.313	6401.1
731.499	6343.75
731.685	6153.29
731.871	6302.79
732.057	6272.07
732.243	6405.19
732.429	6278.22
732.615	6353.99
732.801	6437.96
732.987	6397
733.173	6202.44
733.359	6401.1
733.545	6204.49
733.731	6274.12
733.917	6288.46
734.103	6417.48
734.289	6388.81
734.475	6224.97
734.661	6255.69
734.847	6558.79
735.033	6390.86
735.219	6372.43
735.404	6347.85
735.59	6335.56
735.776	6190.16
735.962	6431.82
736.148	6296.65
736.333	6386.76
736.519	6321.23
736.705	6419.53
736.89	6321.23
737.076	6345.8
737.262	6071.37
737.447	6239.31
737.633	6319.18
737.819	6378.57
738.004	6218.83
738.19	6294.6
738.375	6323.27
738.561	6476.87
738.747	6165.58
738.932	6190.16
739.118	6261.84
739.303	6272.07
739.489	6360.14
739.674	6153.29
739.859	6057.04
740.045	6202.44
740.23	6272.07
740.416	6114.38
740.601	6171.72
740.786	6104.14
740.972	6011.98
741.157	5948.5
741.342	6083.66
741.528	5999.7
741.713	5960.78
741.898	6054.99
742.084	5917.78
742.269	6098
742.454	6022.22
742.639	5991.5
742.824	5940.3
743.01	5989.46
743.195	5831.76
743.38	5837.91
743.565	5690.45
743.75	5977.17
743.935	5817.43
744.12	5928.02
744.305	5755.99
744.49	5811.28
744.675	5657.68
744.86	5686.36
745.045	5739.6
745.23	5629.01
745.415	5710.93
745.6	5512.28
745.785	5428.31
745.97	5520.47
746.155	5543
746.34	5489.75
746.525	5387.35
746.71	5561.43
746.895	5381.21
747.079	5129.31
747.264	5325.91
747.449	5323.87
747.634	5162.08
747.819	5190.75
748.003	5182.56
748.188	5110.88
748.373	5080.16
748.557	5137.5
748.742	4955.23
748.927	5082.21
749.111	4971.61
749.296	4969.57
749.481	4895.84
749.665	4875.36
749.85	4811.87
750.034	4910.18
750.219	4772.96
750.404	4838.5
750.588	4602.98
750.773	4699.23
750.957	4795.49
751.141	4723.81
751.326	4527.21
751.51	4568.16
751.695	4396.14
751.879	4451.43
752.064	4529.25
752.248	4584.55
752.432	4623.46
752.617	4398.18
752.801	4482.15
752.985	4320.36
753.17	4281.45
753.354	4303.98
753.538	4150.38
753.722	4215.91
753.907	4183.15
754.091	4115.56
754.275	4150.38
754.459	4148.33
754.643	4074.6
754.828	4023.41
755.012	4004.97
755.196	3994.73
755.38	3925.1
755.564	3949.68
755.748	3779.7
755.932	3918.96
756.116	3732.59
756.3	3763.31
756.484	3732.59
756.668	3736.69
756.852	3683.44
757.036	3771.51
757.22	3556.47
757.404	3648.63
757.588	3492.98
757.772	3650.67
757.956	3540.08
758.14	3632.24
758.323	3378.3
758.507	3501.17
758.691	3347.58
758.875	3380.34
759.059	3320.95
759.242	3257.46
759.426	3501.17
759.61	3366.01
759.794	3155.07
759.977	3435.64
760.161	3267.7
760.345	3314.81
760.528	3290.23
760.712	3224.7
760.895	3189.88
761.079	3196.03
761.263	3159.16
761.446	3052.67
761.63	3110.01
761.813	3159.16
761.997	2987.13
762.18	3028.09
762.364	2995.32
762.547	3017.85
762.731	2942.08
762.914	2921.6
763.098	2933.89
763.281	2892.93
763.464	2935.93
763.648	2913.41
763.831	2946.17
764.015	2829.44
764.198	2970.75
764.381	2831.49
764.564	2770.05
764.748	2796.67
764.931	2954.37
765.114	2714.75
765.297	2804.86
765.481	2794.62
765.664	2774.14
765.847	2772.1
766.03	2735.23
766.213	2696.32
766.397	2675.84
766.58	2643.07
766.763	2692.23
766.946	2626.69
767.129	2679.94
767.312	2737.28
767.495	2577.54
767.678	2538.63
767.861	2626.69
768.044	2464.9
768.227	2626.69
768.41	2462.85
768.593	2548.87
768.776	2503.81
768.959	2499.72
769.142	2593.92
769.324	2464.9
769.507	2520.2
769.69	2313.35
769.873	2469
770.056	2415.75
770.239	2389.13
770.421	2430.09
770.604	2411.65
770.787	2356.36
770.97	2411.65
771.152	2192.52
771.335	2276.49
771.518	2311.3
771.7	2327.69
771.883	2301.06
772.066	2200.71
772.248	2258.06
772.431	2288.78
772.613	2172.04
772.796	2120.84
772.978	2251.91
773.161	2196.62
773.343	2036.88
773.526	2081.93
773.708	2065.55
773.891	1995.92
774.073	2086.03
774.256	1985.68
774.438	2126.99
774.621	1969.29
774.803	2049.16
774.985	1995.92
775.168	1950.86
775.35	1954.96
775.532	1883.28
775.715	1893.52
775.897	1764.5
776.079	1903.76
776.261	1963.15
776.444	1930.38
776.626	1836.17
776.808	1860.75
776.99	1760.4
777.173	1827.98
777.355	1864.85
777.537	1744.02
777.719	1789.07
777.901	1821.84
778.083	1770.64
778.265	1623.19
778.447	1725.58
778.629	1594.51
778.811	1586.32
778.993	1635.47
779.175	1559.7
779.357	1660.05
779.539	1608.85
779.721	1637.52
779.903	1619.09
780.085	1555.6
780.267	1559.7
780.449	1658
780.631	1555.6
780.812	1625.23
780.994	1535.12
781.176	1520.79
781.358	1479.83
781.54	1369.24
781.721	1469.59
781.903	1418.39
782.085	1434.77
782.267	1502.36
782.448	1397.91
782.63	1438.87
782.812	1307.8
782.993	1377.43
783.175	1365.14
783.357	1373.33
783.538	1363.09
783.72	1328.28
783.901	1315.99
784.083	1279.13
784.264	1313.94
784.446	1279.13
784.627	1281.18
784.809	1172.63
784.99	1221.78
785.172	1219.74
785.353	1133.72
785.535	1223.83
785.716	1156.25
785.897	1199.26
786.079	1182.87
786.26	1094.81
786.441	1123.48
786.623	1123.48
786.804	1119.39
786.985	1133.72
787.167	1086.62
787.348	1045.66
787.529	1086.62
787.71	1154.2
787.891	1043.61
788.073	1066.14
788.254	1035.42
788.435	1041.56
788.616	1045.66
788.797	1041.56
788.978	1055.9
789.159	1051.8
789.34	996.51
789.522	1025.18
789.703	869.53
789.884	996.51
790.065	949.4
790.246	1027.23
790.427	984.22
790.607	1004.7
790.788	937.12
790.969	885.92
791.15	894.11
791.331	928.92
791.512	947.36
791.693	873.63
791.874	879.77
792.054	1006.75
792.235	1029.27
792.416	857.25
792.597	898.2
792.778	844.96
792.958	844.96
793.139	855.2
793.32	924.83
793.5	828.57
793.681	836.77
793.862	754.85
794.042	865.44
794.223	804
794.404	943.26
794.584	816.29
794.765	738.46
794.945	783.52
795.126	820.38
795.306	898.2
795.487	767.13
795.667	822.43
795.848	822.43
796.028	777.37
796.209	740.51
796.389	812.19
796.57	703.65
796.75	738.46
796.93	748.7
797.111	773.28
797.291	707.74
797.471	691.36
797.652	683.17
797.832	629.92
798.012	773.28
798.192	668.83
798.373	699.55
798.553	705.7
798.733	728.22
798.913	646.3
799.093	672.93
799.274	746.66
799.454	715.94
799.634	674.98
799.814	617.63
799.994	537.76
800.174	699.55
800.354	611.49
800.534	578.72
800.714	664.74
800.894	570.53
801.074	601.25
801.254	607.39
801.434	666.78
801.614	533.67
801.794	595.11
801.974	1379.48
802.154	650.4
802.334	509.09
802.514	611.49
802.693	593.06
802.873	586.91
803.053	623.78
803.233	550.05
803.413	558.24
803.592	558.24
803.772	535.71
803.952	582.82
804.131	494.76
804.311	562.34
804.491	564.39
804.67	496.8
804.85	498.85
805.03	513.19
805.209	521.38
805.389	517.28
805.568	494.76
805.748	470.18
805.928	484.52
806.107	535.71
806.287	591.01
806.466	511.14
806.646	443.56
806.825	564.39
807.004	486.56
807.184	509.09
807.363	478.37
807.543	552.1
807.722	464.04
807.901	545.95
808.081	494.76
808.26	447.65
808.439	464.04
808.619	494.76
808.798	439.46
808.977	447.65
809.156	455.84
809.336	447.65
809.515	437.41
809.694	447.65
809.873	461.99
810.052	398.5
810.231	554.15
810.411	482.47
810.59	431.27
810.769	488.61
810.948	507.04
811.127	455.84
811.306	494.76
811.485	384.16
811.664	464.04
811.843	375.97
812.022	378.02
812.201	488.61
812.38	384.16
812.559	451.75
812.737	388.26
812.916	312.49
813.095	363.69
813.274	369.83
813.453	355.49
813.632	359.59
813.811	457.89
813.989	486.56
814.168	439.46
814.347	277.67
814.526	378.02
814.704	390.31
814.883	439.46
815.062	341.16
815.24	443.56
815.419	414.88
815.598	316.58
815.776	316.58
815.955	359.59
816.133	371.88
816.312	324.77
816.49	380.07
816.669	302.25
816.847	306.34
817.026	390.31
817.204	332.97
817.383	392.36
817.561	418.98
817.74	357.54
817.918	339.11
818.097	326.82
818.275	289.96
818.453	349.35
818.632	287.91
818.81	324.77
818.988	318.63
819.167	357.54
819.345	365.73
819.523	294.05
819.701	314.53
819.879	314.53
820.058	298.15
820.236	396.45
820.414	308.39
820.592	294.05
820.77	310.44
820.948	332.97
821.127	308.39
821.305	298.15
821.483	306.34
821.661	263.33
821.839	281.77
822.017	261.29
822.195	257.19
822.373	296.1
822.551	339.11
822.729	365.73
822.907	273.57
823.085	353.45
823.262	314.53
823.44	292.01
823.618	267.43
823.796	255.14
823.974	308.39
824.152	257.19
824.329	300.2
824.507	277.67
824.685	306.34
824.863	269.48
825.04	326.82
825.218	265.38
825.396	296.1
825.574	246.95
825.751	212.14
825.929	304.29
826.107	218.28
826.284	324.77
826.462	238.76
826.639	191.66
826.817	240.81
826.994	263.33
827.172	205.99
827.349	242.85
827.527	191.66
827.704	332.97
827.882	283.81
828.059	232.62
828.237	242.85
828.414	255.14
828.591	150.7
828.769	273.57
828.946	210.09
829.124	261.29
829.301	232.62
829.478	169.13
829.655	306.34
829.833	304.29
830.01	83.11
830.187	218.28
830.364	216.23
830.542	236.71
830.719	244.9
830.896	234.66
831.073	244.9
831.25	193.7
831.427	216.23
831.604	218.28
831.782	226.47
831.959	285.86
832.136	244.9
832.313	201.9
832.49	177.32
832.667	167.08
832.844	169.13
833.021	234.66
833.198	179.37
833.374	212.14
833.551	226.47
833.728	234.66
833.905	271.53
834.082	158.89
834.259	132.26
834.436	199.85
834.612	181.42
834.789	255.14
834.966	197.8
835.143	142.5
835.319	197.8
835.496	152.74
835.673	273.57
835.85	210.09
836.026	146.6
836.203	197.8
836.38	156.84
836.556	189.61
836.733	142.5
836.909	205.99
837.086	214.18
837.262	158.89
837.439	107.69
837.616	79.02
837.792	148.65
837.968	236.71
838.145	160.94
838.321	119.98
838.498	195.75
838.674	193.7
838.851	115.88
839.027	99.5
839.203	132.26
839.38	126.12
839.556	103.59
839.732	253.09
839.909	109.74
840.085	132.26
840.261	148.65
840.437	142.5
840.614	76.97
840.79	165.03
840.966	191.66
841.142	136.36
841.318	183.46
841.494	197.8
841.671	68.78
841.847	85.16
842.023	165.03
842.199	158.89
842.375	185.51
842.551	109.74
842.727	101.55
842.903	152.74
843.079	109.74
843.255	144.55
843.431	119.98
843.607	150.7
843.783	95.4
843.959	99.5
844.134	144.55
844.31	146.6
844.486	105.64
844.662	119.98
844.838	70.83
845.013	134.31
845.189	93.35
845.365	107.69
845.541	76.97
845.716	134.31
845.892	89.26
846.068	89.26
846.244	144.55
846.419	197.8
846.595	-4.95
846.77	138.41
846.946	173.22
847.122	83.11
847.297	93.35
847.473	152.74
847.648	38.06
847.824	91.31
847.999	66.73
848.175	56.49
848.35	201.9
848.526	119.98
848.701	93.35
848.876	93.35
849.052	128.17
849.227	171.18
849.403	136.36
849.578	111.78
849.753	212.14
849.929	117.93
850.104	136.36
850.279	119.98
850.454	165.03
850.63	140.46
850.805	115.88
850.98	81.07
851.155	103.59
851.33	83.11
851.505	17.58
851.681	140.46
851.856	56.49
852.031	70.83
852.206	128.17
852.381	54.44
852.556	85.16
852.731	74.92
852.906	128.17
853.081	103.59
853.256	167.08
853.431	119.98
853.606	66.73
853.781	99.5
853.956	50.35
854.131	134.31
854.305	62.63
854.48	31.91
854.655	103.59
854.83	74.92
855.005	91.31
855.18	111.78
855.354	85.16
855.529	109.74
855.704	99.5
855.879	66.73
856.053	38.06
856.228	93.35
856.403	29.87
856.577	76.97
856.752	64.68
856.926	97.45
857.101	42.15
857.276	21.67
857.45	136.36
857.625	83.11
857.799	46.25
857.974	95.4
858.148	33.96
858.323	83.11
858.497	68.78
858.672	79.02
858.846	3.24
859.02	140.46
859.195	52.39
859.369	60.59
859.543	29.87
859.718	66.73
859.892	76.97
860.066	31.91
860.241	68.78
860.415	87.21
860.589	44.2
860.763	36.01
860.938	3.24
861.112	124.07
861.286	156.84
861.46	29.87
861.634	25.77
861.808	128.17
861.982	40.11
862.157	60.59
862.331	38.06
862.505	54.44
862.679	13.48
862.853	50.35
863.027	13.48
863.201	175.27
863.375	36.01
863.549	36.01
863.722	101.55
863.896	83.11
864.07	27.82
864.244	62.63
864.418	83.11
864.592	46.25
864.766	25.77
864.939	-2.9
865.113	-15.19
865.287	44.2
865.461	25.77
865.634	5.29
865.808	103.59
865.982	54.44
866.156	11.43
866.329	-23.38
866.503	62.63
866.676	142.5
866.85	140.46
867.024	89.26
867.197	87.21
867.371	119.98
867.544	27.82
867.718	87.21
867.891	95.4
868.065	-15.19
868.238	-23.38
868.412	46.25
868.585	60.59
868.759	21.67
868.932	25.77
869.105	66.73
869.279	93.35
869.452	38.06
869.625	64.68
869.799	-31.57
869.972	-11.09
870.145	64.68
870.319	-9.05
870.492	17.58
870.665	46.25
870.838	-78.68
871.011	5.29
871.185	21.67
871.358	76.97
871.531	31.91
871.704	5.29
871.877	62.63
872.05	-2.9
872.223	-2.9
872.396	79.02
872.569	-2.9
872.742	-45.91
872.915	64.68
873.088	54.44
873.261	3.24
873.434	117.93
873.607	-17.24
873.78	115.88
873.953	21.67
874.126	99.5
874.299	38.06
874.471	83.11
874.644	42.15
874.817	5.29
874.99	85.16
875.163	52.39
875.335	58.54
875.508	54.44
875.681	58.54
875.853	13.48
876.026	87.21
876.199	7.34
876.371	27.82
876.544	3.24
876.717	-68.44
876.889	17.58
877.062	74.92
877.234	-15.19
877.407	23.72
877.579	-21.33
877.752	46.25
877.924	-11.09
878.097	5.29
878.269	42.15
878.442	64.68
878.614	111.78
878.786	38.06
878.959	36.01
879.131	46.25
879.303	-41.81
879.476	9.39
879.648	54.44
879.82	111.78
879.993	-35.67
880.165	-9.05
880.337	-4.95
880.509	68.78
880.681	36.01
880.854	21.67
881.026	46.25
881.198	169.13
881.37	-7
881.542	48.3
881.714	52.39
881.886	68.78
882.058	81.07
882.23	-7
882.402	70.83
882.574	87.21
882.746	79.02
882.918	68.78
883.09	64.68
883.262	85.16
883.434	-54.1
883.606	-31.57
883.778	-7
883.95	60.59
884.122	44.2
884.293	58.54
884.465	-23.38
884.637	44.2
884.809	27.82
884.98	64.68
885.152	68.78
885.324	-0.85
885.496	13.48
885.667	-2.9
885.839	21.67
886.011	38.06
886.182	72.87
886.354	23.72
886.525	70.83
886.697	81.07
886.869	36.01
887.04	-39.76
887.212	42.15
887.383	50.35
887.555	46.25
887.726	1.19
887.897	-11.09
888.069	31.91
888.24	33.96
888.412	62.63
888.583	19.63
888.754	19.63
888.926	19.63
889.097	-54.1
889.268	-11.09
889.44	29.87
889.611	-54.1
889.782	-25.43
889.953	7.34
890.125	64.68
890.296	-4.95
890.467	46.25
890.638	-7
890.809	15.53
890.98	-47.96
891.151	93.35
891.323	1.19
891.494	-23.38
891.665	27.82
891.836	1.19
892.007	-19.29
892.178	3.24
892.349	-13.14
892.52	21.67
892.691	17.58
892.862	-4.95
893.032	3.24
893.203	-2.9
893.374	46.25
893.545	79.02
893.716	13.48
893.887	33.96
894.057	-35.67
894.228	33.96
894.399	3.24
894.57	68.78
894.74	13.48
894.911	13.48
895.082	25.77
895.253	31.91
895.423	-11.09
895.594	74.92
895.764	-2.9
895.935	-66.39
896.106	62.63
896.276	-47.96
896.447	-35.67
896.617	29.87
896.788	44.2
896.958	-9.05
897.129	-17.24
897.299	-11.09
897.47	38.06
897.64	29.87
897.81	-25.43
897.981	31.91
898.151	13.48
898.322	-7
898.492	5.29
898.662	29.87
898.832	-7
899.003	25.77
899.173	60.59
899.343	17.58
899.513	9.39
