Data from USB4F104151__75__11-31-37-504.txt Node

Date: Fri Mar 14 11:31:37 EDT 2025
User: louis
Spectrometer: USB4F10415
Trigger mode: 4
Integration Time (sec): 5.000000E-2
Scans to average: 1
Electric dark correction enabled: true
Nonlinearity correction enabled: false
Boxcar width: 0
XAxis mode: Wavelengths
Number of Pixels in Spectrum: 3648
>>>>>Begin Spectral Data<<<<<
178.204	-180.22
178.424	-180.22
178.644	-180.22
178.864	-147.45
179.084	-143.36
179.304	26.62
179.524	-61.44
179.744	-6.14
179.964	8.19
180.184	12.29
180.404	18.43
180.624	24.58
180.844	36.86
181.064	-28.67
181.283	-20.48
181.503	-38.91
181.723	28.67
181.943	-38.91
182.163	106.49
182.383	12.29
182.602	-30.72
182.822	59.39
183.042	-30.72
183.262	-38.91
183.482	-90.11
183.701	30.72
183.921	-20.48
184.141	-36.86
184.361	22.53
184.58	38.91
184.8	34.82
185.02	2.05
185.239	49.15
185.459	26.62
185.679	26.62
185.898	28.67
186.118	-6.14
186.338	40.96
186.557	-8.19
186.777	-47.1
186.997	-4.1
187.216	-14.34
187.436	122.88
187.655	0
187.875	-16.38
188.095	-6.14
188.314	51.2
188.534	49.15
188.753	69.63
188.973	18.43
189.192	118.78
189.412	-28.67
189.631	90.11
189.851	0
190.07	8.19
190.29	-22.53
190.509	-4.1
190.729	53.25
190.948	77.82
191.168	176.13
191.387	20.48
191.607	-12.29
191.826	38.91
192.045	22.53
192.265	59.39
192.484	-28.67
192.704	71.68
192.923	-36.86
193.142	131.07
193.362	94.21
193.581	98.3
193.8	92.16
194.02	20.48
194.239	57.34
194.458	-30.72
194.678	-4.1
194.897	90.11
195.116	36.86
195.335	45.06
195.555	-12.29
195.774	8.19
195.993	43.01
196.212	-30.72
196.432	12.29
196.651	2.05
196.87	-20.48
197.089	116.73
197.308	49.15
197.528	86.01
197.747	57.34
197.966	86.01
198.185	40.96
198.404	20.48
198.623	18.43
198.842	69.63
199.062	100.35
199.281	110.59
199.5	-36.86
199.719	12.29
199.938	-8.19
200.157	0
200.376	61.44
200.595	81.92
200.814	12.29
201.033	0
201.252	94.21
201.471	36.86
201.69	67.58
201.909	61.44
202.128	34.82
202.347	83.97
202.566	100.35
202.785	24.58
203.004	4.1
203.223	67.58
203.442	4.1
203.661	-2.05
203.879	-30.72
204.098	-28.67
204.317	20.48
204.536	49.15
204.755	133.12
204.974	32.77
205.193	43.01
205.411	96.25
205.63	63.49
205.849	-12.29
206.068	53.25
206.287	0
206.505	12.29
206.724	61.44
206.943	0
207.162	69.63
207.381	12.29
207.599	22.53
207.818	75.77
208.037	24.58
208.255	-34.82
208.474	59.39
208.693	69.63
208.911	18.43
209.13	-14.34
209.349	83.97
209.567	-6.14
209.786	79.87
210.005	94.21
210.223	-38.91
210.442	18.43
210.661	4.1
210.879	16.38
211.098	-12.29
211.316	-14.34
211.535	43.01
211.753	-20.48
211.972	53.25
212.191	16.38
212.409	28.67
212.628	49.15
212.846	-12.29
213.065	55.3
213.283	10.24
213.502	-36.86
213.72	-12.29
213.938	40.96
214.157	4.1
214.375	-20.48
214.594	43.01
214.812	36.86
215.031	-40.96
215.249	77.82
215.467	-4.1
215.686	26.62
215.904	129.02
216.122	4.1
216.341	16.38
216.559	36.86
216.778	94.21
216.996	28.67
217.214	18.43
217.432	-24.58
217.651	-18.43
217.869	43.01
218.087	10.24
218.306	12.29
218.524	49.15
218.742	102.4
218.96	71.68
219.179	-24.58
219.397	16.38
219.615	77.82
219.833	12.29
220.051	-69.63
220.27	69.63
220.488	2.05
220.706	28.67
220.924	-12.29
221.142	38.91
221.36	30.72
221.578	-38.91
221.796	100.35
222.015	96.25
222.233	16.38
222.451	124.93
222.669	20.48
222.887	26.62
223.105	-12.29
223.323	83.97
223.541	-40.96
223.759	28.67
223.977	-32.77
224.195	67.58
224.413	149.5
224.631	10.24
224.849	45.06
225.067	83.97
225.285	-26.62
225.503	51.2
225.721	-40.96
225.939	18.43
226.157	20.48
226.375	22.53
226.592	45.06
226.81	57.34
227.028	20.48
227.246	122.88
227.464	22.53
227.682	30.72
227.9	92.16
228.117	45.06
228.335	-8.19
228.553	81.92
228.771	-28.67
228.989	-61.44
229.206	45.06
229.424	26.62
229.642	12.29
229.86	-57.34
230.077	32.77
230.295	51.2
230.513	43.01
230.731	18.43
230.948	43.01
231.166	81.92
231.384	43.01
231.601	-49.15
231.819	141.31
232.037	-49.15
232.254	-16.38
232.472	-12.29
232.689	4.1
232.907	77.82
233.125	36.86
233.342	20.48
233.56	-69.63
233.777	-49.15
233.995	-38.91
234.213	88.06
234.43	53.25
234.648	69.63
234.865	53.25
235.083	-10.24
235.3	4.1
235.518	61.44
235.735	65.54
235.953	8.19
236.17	28.67
236.388	69.63
236.605	36.86
236.822	69.63
237.04	100.35
237.257	-26.62
237.475	-57.34
237.692	88.06
237.909	106.49
238.127	-45.06
238.344	12.29
238.562	102.4
238.779	-30.72
238.996	45.06
239.214	12.29
239.431	77.82
239.648	43.01
239.865	94.21
240.083	77.82
240.3	16.38
240.517	43.01
240.735	67.58
240.952	12.29
241.169	106.49
241.386	51.2
241.603	4.1
241.821	-28.67
242.038	81.92
242.255	-16.38
242.472	-63.49
242.689	75.77
242.907	2.05
243.124	86.01
243.341	6.14
243.558	6.14
243.775	16.38
243.992	-8.19
244.209	75.77
244.426	112.64
244.643	32.77
244.86	-8.19
245.078	67.58
245.295	24.58
245.512	34.82
245.729	24.58
245.946	77.82
246.163	14.34
246.38	32.77
246.597	-10.24
246.814	4.1
247.031	-28.67
247.248	18.43
247.464	114.69
247.681	67.58
247.898	-4.1
248.115	40.96
248.332	10.24
248.549	69.63
248.766	86.01
248.983	67.58
249.2	-36.86
249.417	38.91
249.633	-34.82
249.85	10.24
250.067	-49.15
250.284	40.96
250.501	86.01
250.717	10.24
250.934	6.14
251.151	53.25
251.368	12.29
251.585	73.73
251.801	4.1
252.018	-26.62
252.235	18.43
252.451	-77.82
252.668	16.38
252.885	43.01
253.102	-65.53
253.318	53.25
253.535	90.11
253.752	-18.43
253.968	-32.77
254.185	2.05
254.401	22.53
254.618	81.92
254.835	36.86
255.051	38.91
255.268	61.44
255.484	28.67
255.701	45.06
255.917	57.34
256.134	-71.68
256.351	6.14
256.567	-102.4
256.784	65.54
257	-20.48
257.217	61.44
257.433	53.25
257.65	79.87
257.866	141.31
258.082	61.44
258.299	-12.29
258.515	-4.1
258.732	-4.1
258.948	18.43
259.165	45.06
259.381	-36.86
259.597	59.39
259.814	-14.34
260.03	57.34
260.246	-24.58
260.463	10.24
260.679	69.63
260.895	-4.1
261.112	26.62
261.328	16.38
261.544	-32.77
261.761	79.87
261.977	-10.24
262.193	-4.1
262.409	108.54
262.626	-20.48
262.842	4.1
263.058	65.54
263.274	77.82
263.49	20.48
263.707	24.58
263.923	16.38
264.139	-65.53
264.355	122.88
264.571	-26.62
264.787	-4.1
265.004	53.25
265.22	43.01
265.436	20.48
265.652	65.54
265.868	145.41
266.084	-10.24
266.3	-45.06
266.516	-36.86
266.732	20.48
266.948	83.97
267.164	47.1
267.38	47.1
267.596	67.58
267.812	143.36
268.028	34.82
268.244	16.38
268.46	98.3
268.676	-8.19
268.892	86.01
269.108	-81.92
269.324	32.77
269.54	12.29
269.756	4.1
269.972	22.53
270.188	49.15
270.403	-4.1
270.619	-16.38
270.835	6.14
271.051	57.34
271.267	-36.86
271.483	12.29
271.698	92.16
271.914	12.29
272.13	36.86
272.346	24.58
272.562	45.06
272.777	57.34
272.993	51.2
273.209	12.29
273.425	45.06
273.64	32.77
273.856	135.17
274.072	40.96
274.287	12.29
274.503	6.14
274.719	135.17
274.934	-10.24
275.15	40.96
275.366	90.11
275.581	59.39
275.797	53.25
276.012	-36.86
276.228	-24.58
276.444	51.2
276.659	28.67
276.875	-18.43
277.09	28.67
277.306	-32.77
277.521	-8.19
277.737	22.53
277.952	92.16
278.168	59.39
278.383	51.2
278.599	26.62
278.814	-26.62
279.03	51.2
279.245	75.77
279.461	-12.29
279.676	69.63
279.892	-22.53
280.107	-71.68
280.322	49.15
280.538	67.58
280.753	-6.14
280.969	53.25
281.184	-4.1
281.399	124.93
281.615	-12.29
281.83	43.01
282.045	-6.14
282.26	28.67
282.476	-22.53
282.691	83.97
282.906	83.97
283.122	-38.91
283.337	-43.01
283.552	86.01
283.767	45.06
283.983	43.01
284.198	-61.44
284.413	49.15
284.628	-106.49
284.843	75.77
285.058	61.44
285.274	20.48
285.489	4.1
285.704	53.25
285.919	83.97
286.134	20.48
286.349	-47.1
286.564	49.15
286.779	77.82
286.995	-12.29
287.21	63.49
287.425	36.86
287.64	26.62
287.855	100.35
288.07	0
288.285	-10.24
288.5	55.3
288.715	20.48
288.93	86.01
289.145	-32.77
289.36	24.58
289.575	-57.34
289.79	-2.05
290.004	28.67
290.219	51.2
290.434	22.53
290.649	14.34
290.864	49.15
291.079	6.14
291.294	-10.24
291.509	77.82
291.724	-45.06
291.938	6.14
292.153	-26.62
292.368	-6.14
292.583	-28.67
292.798	57.34
293.012	-49.15
293.227	69.63
293.442	26.62
293.657	61.44
293.871	16.38
294.086	20.48
294.301	75.77
294.516	59.39
294.73	28.67
294.945	-14.34
295.16	-6.14
295.374	8.19
295.589	4.1
295.804	-6.14
296.018	-20.48
296.233	28.67
296.447	28.67
296.662	10.24
296.877	16.38
297.091	20.48
297.306	55.3
297.52	-47.1
297.735	79.87
297.949	51.2
298.164	45.06
298.378	-26.62
298.593	16.38
298.807	32.77
299.022	77.82
299.236	69.63
299.451	28.67
299.665	-4.1
299.88	61.44
300.094	57.34
300.309	4.1
300.523	-2.05
300.737	-4.1
300.952	-12.29
301.166	92.16
301.381	32.77
301.595	18.43
301.809	0
302.024	4.1
302.238	16.38
302.452	-22.53
302.667	-28.67
302.881	10.24
303.095	16.38
303.309	-4.1
303.524	22.53
303.738	-4.1
303.952	-53.25
304.166	24.58
304.381	-14.34
304.595	92.16
304.809	53.25
305.023	36.86
305.237	26.62
305.452	24.58
305.666	-12.29
305.88	8.19
306.094	-4.1
306.308	47.1
306.522	53.25
306.736	38.91
306.95	63.49
307.164	-16.38
307.379	-12.29
307.593	100.35
307.807	26.62
308.021	122.88
308.235	28.67
308.449	-28.67
308.663	-6.14
308.877	124.93
309.091	16.38
309.305	59.39
309.519	-61.44
309.733	43.01
309.947	2.05
310.161	40.96
310.374	77.82
310.588	114.69
310.802	-45.06
311.016	-2.05
311.23	47.1
311.444	4.1
311.658	-45.06
311.872	49.15
312.085	77.82
312.299	94.21
312.513	92.16
312.727	102.4
312.941	-45.06
313.154	51.2
313.368	59.39
313.582	43.01
313.796	69.63
314.009	43.01
314.223	45.06
314.437	8.19
314.651	4.1
314.864	40.96
315.078	8.19
315.292	-26.62
315.505	-20.48
315.719	0
315.933	57.34
316.146	-61.44
316.36	-18.43
316.573	28.67
316.787	47.1
317.001	-2.05
317.214	26.62
317.428	45.06
317.641	0
317.855	34.82
318.068	47.1
318.282	53.25
318.495	53.25
318.709	-30.72
318.922	-40.96
319.136	86.01
319.349	34.82
319.563	28.67
319.776	38.91
319.99	-10.24
320.203	10.24
320.417	45.06
320.63	45.06
320.843	69.63
321.057	43.01
321.27	47.1
321.483	28.67
321.697	96.25
321.91	61.44
322.124	73.73
322.337	24.58
322.55	-16.38
322.763	-14.34
322.977	65.54
323.19	112.64
323.403	14.34
323.617	-16.38
323.83	126.97
324.043	32.77
324.256	32.77
324.469	-71.68
324.683	-12.29
324.896	61.44
325.109	22.53
325.322	-8.19
325.535	118.78
325.748	28.67
325.962	20.48
326.175	-12.29
326.388	57.34
326.601	45.06
326.814	86.01
327.027	16.38
327.24	45.06
327.453	-30.72
327.666	-4.1
327.879	49.15
328.092	26.62
328.305	8.19
328.518	40.96
328.731	-8.19
328.944	24.58
329.157	10.24
329.37	8.19
329.583	126.97
329.796	28.67
330.009	-38.91
330.222	88.06
330.435	-43.01
330.648	40.96
330.861	-2.05
331.073	34.82
331.286	61.44
331.499	45.06
331.712	-57.34
331.925	10.24
332.138	43.01
332.35	83.97
332.563	-2.05
332.776	98.3
332.989	61.44
333.202	26.62
333.414	-6.14
333.627	57.34
333.84	43.01
334.053	59.39
334.265	-36.86
334.478	-6.14
334.691	4.1
334.903	32.77
335.116	20.48
335.329	-65.53
335.541	40.96
335.754	106.49
335.966	14.34
336.179	57.34
336.392	0
336.604	53.25
336.817	79.87
337.029	36.86
337.242	28.67
337.454	14.34
337.667	67.58
337.88	0
338.092	69.63
338.305	40.96
338.517	12.29
338.729	28.67
338.942	55.3
339.154	-8.19
339.367	34.82
339.579	36.86
339.792	0
340.004	110.59
340.217	49.15
340.429	61.44
340.641	28.67
340.854	-65.53
341.066	-63.49
341.278	102.4
341.491	36.86
341.703	34.82
341.915	-14.34
342.128	118.78
342.34	22.53
342.552	10.24
342.764	65.54
342.977	51.2
343.189	12.29
343.401	0
343.613	-20.48
343.826	28.67
344.038	49.15
344.25	36.86
344.462	75.77
344.674	2.05
344.886	28.67
345.099	-4.1
345.311	12.29
345.523	-2.05
345.735	-14.34
345.947	22.53
346.159	-51.2
346.371	20.48
346.583	-6.14
346.795	86.01
347.007	-30.72
347.219	67.58
347.431	-4.1
347.643	26.62
347.855	2.05
348.067	86.01
348.279	34.82
348.491	108.54
348.703	26.62
348.915	83.97
349.127	6.14
349.339	34.82
349.551	61.44
349.763	45.06
349.975	49.15
350.187	55.3
350.399	10.24
350.61	108.54
350.822	45.06
351.034	-4.1
351.246	6.14
351.458	43.01
351.669	49.15
351.881	139.26
352.093	114.69
352.305	69.63
352.517	12.29
352.728	69.63
352.94	24.58
353.152	-16.38
353.363	22.53
353.575	57.34
353.787	49.15
353.999	38.91
354.21	100.35
354.422	-16.38
354.633	4.1
354.845	14.34
355.057	61.44
355.268	12.29
355.48	49.15
355.692	0
355.903	18.43
356.115	-22.53
356.326	47.1
356.538	36.86
356.749	-36.86
356.961	40.96
357.172	-36.86
357.384	-30.72
357.595	77.82
357.807	-49.15
358.018	-49.15
358.23	59.39
358.441	90.11
358.653	61.44
358.864	45.06
359.075	53.25
359.287	98.3
359.498	61.44
359.709	4.1
359.921	-40.96
360.132	-6.14
360.344	75.77
360.555	18.43
360.766	24.58
360.977	26.62
361.189	69.63
361.4	28.67
361.611	36.86
361.823	57.34
362.034	83.97
362.245	-32.77
362.456	47.1
362.667	22.53
362.879	59.39
363.09	94.21
363.301	45.06
363.512	34.82
363.723	45.06
363.935	2.05
364.146	49.15
364.357	43.01
364.568	40.96
364.779	-14.34
364.99	71.68
365.201	-67.58
365.412	28.67
365.623	8.19
365.834	69.63
366.045	86.01
366.256	38.91
366.467	12.29
366.678	71.68
366.889	-53.25
367.1	63.49
367.311	77.82
367.522	10.24
367.733	61.44
367.944	67.58
368.155	12.29
368.366	61.44
368.577	86.01
368.788	110.59
368.999	-81.92
369.209	67.58
369.42	92.16
369.631	45.06
369.842	96.25
370.053	-8.19
370.264	10.24
370.474	22.53
370.685	-4.1
370.896	73.73
371.107	114.69
371.317	36.86
371.528	-12.29
371.739	28.67
371.95	43.01
372.16	38.91
372.371	-53.25
372.582	57.34
372.792	24.58
373.003	-38.91
373.214	28.67
373.424	67.58
373.635	45.06
373.846	88.06
374.056	73.73
374.267	49.15
374.477	43.01
374.688	40.96
374.898	86.01
375.109	-47.1
375.319	18.43
375.53	45.06
375.74	-53.25
375.951	-8.19
376.161	-53.25
376.372	129.02
376.582	8.19
376.793	-28.67
377.003	-18.43
377.214	-36.86
377.424	8.19
377.635	139.26
377.845	-69.63
378.055	34.82
378.266	-34.82
378.476	30.72
378.686	43.01
378.897	28.67
379.107	75.77
379.317	12.29
379.528	32.77
379.738	63.49
379.948	57.34
380.158	57.34
380.369	51.2
380.579	98.3
380.789	-8.19
380.999	108.54
381.21	-6.14
381.42	69.63
381.63	63.49
381.84	94.21
382.05	61.44
382.261	86.01
382.471	38.91
382.681	20.48
382.891	-12.29
383.101	51.2
383.311	-12.29
383.521	36.86
383.731	40.96
383.941	61.44
384.151	4.1
384.361	49.15
384.571	133.12
384.781	18.43
384.991	18.43
385.201	81.92
385.411	98.3
385.621	45.06
385.831	63.49
386.041	45.06
386.251	-32.77
386.461	22.53
386.671	14.34
386.881	61.44
387.091	36.86
387.301	65.54
387.511	-24.58
387.72	36.86
387.93	-12.29
388.14	-12.29
388.35	51.2
388.56	34.82
388.769	108.54
388.979	-20.48
389.189	-20.48
389.399	-6.14
389.609	106.49
389.818	57.34
390.028	69.63
390.238	96.25
390.447	10.24
390.657	67.58
390.867	12.29
391.076	57.34
391.286	81.92
391.496	88.06
391.705	49.15
391.915	18.43
392.125	83.97
392.334	12.29
392.544	51.2
392.753	43.01
392.963	-20.48
393.172	55.3
393.382	12.29
393.591	110.59
393.801	53.25
394.01	184.32
394.22	108.54
394.429	14.34
394.639	69.63
394.848	55.3
395.058	90.11
395.267	28.67
395.477	-2.05
395.686	102.4
395.895	114.69
396.105	141.31
396.314	147.45
396.524	96.25
396.733	65.54
396.942	65.54
397.152	116.73
397.361	122.88
397.57	-10.24
397.78	69.63
397.989	135.17
398.198	167.93
398.407	57.34
398.617	71.68
398.826	81.92
399.035	92.16
399.244	114.69
399.453	43.01
399.663	126.97
399.872	147.45
400.081	51.2
400.29	26.62
400.499	51.2
400.708	122.88
400.917	141.31
401.127	53.25
401.336	69.63
401.545	129.02
401.754	106.49
401.963	110.59
402.172	131.07
402.381	81.92
402.59	65.54
402.799	69.63
403.008	153.6
403.217	118.78
403.426	116.73
403.635	38.91
403.844	163.84
404.053	161.79
404.262	118.78
404.471	141.31
404.68	135.17
404.888	118.78
405.097	92.16
405.306	227.32
405.515	139.26
405.724	190.46
405.933	106.49
406.142	155.65
406.35	208.89
406.559	176.13
406.768	200.7
406.977	159.74
407.185	174.08
407.394	172.03
407.603	100.35
407.812	200.7
408.02	235.52
408.229	241.66
408.438	139.26
408.646	129.02
408.855	223.23
409.064	196.61
409.272	251.9
409.481	169.98
409.69	253.95
409.898	245.76
410.107	268.28
410.315	251.9
410.524	249.85
410.733	258.04
410.941	247.8
411.15	315.39
411.358	290.81
411.567	370.68
411.775	274.43
411.984	380.92
412.192	274.43
412.401	374.78
412.609	395.26
412.818	360.44
413.026	495.61
413.234	339.96
413.443	393.21
413.651	335.87
413.86	446.46
414.068	489.46
414.276	528.38
414.485	385.02
414.693	479.22
414.901	632.82
415.11	509.94
415.318	514.04
415.526	632.82
415.734	561.14
415.943	585.72
416.151	716.79
416.359	671.73
416.567	585.72
416.776	722.93
416.984	802.8
417.192	835.57
417.4	724.98
417.608	761.84
417.817	802.8
418.025	802.8
418.233	870.39
418.441	763.89
418.649	925.68
418.857	944.11
419.065	1083.38
419.273	1011.7
419.481	1062.9
419.689	1034.22
419.897	1077.23
420.105	1118.19
420.313	1306.6
420.521	1302.51
420.729	1241.07
420.937	1277.93
421.145	1413.1
421.353	1404.91
421.561	1312.75
421.769	1544.17
421.977	1558.5
422.185	1535.98
422.393	1673.19
422.601	1716.2
422.809	1787.88
423.017	1775.59
423.224	1853.41
423.432	1978.34
423.64	1839.08
423.848	2056.16
424.056	2066.4
424.263	2222.05
424.471	2191.33
424.679	2258.91
424.887	2279.39
425.094	2428.89
425.302	2539.48
425.51	2652.12
425.718	2721.75
425.925	2650.07
426.133	2682.84
426.341	2994.13
426.548	3051.47
426.756	2959.31
426.964	3033.04
427.171	3143.63
427.379	3184.59
427.586	3336.14
427.794	3330
428.001	3631.05
428.209	3805.13
428.417	3690.44
428.624	4024.26
428.832	3944.39
429.039	3862.47
429.247	3868.61
429.454	4345.79
429.662	4558.78
429.869	4321.21
430.076	4511.68
430.284	4587.45
430.491	4779.96
430.699	4902.84
430.906	5005.24
431.114	4939.7
431.321	5228.46
431.528	5269.42
431.736	5664.68
431.943	6014.88
432.15	5732.26
432.358	5830.57
432.565	6109.09
432.772	6254.5
432.979	6469.53
433.187	6750.11
433.394	6713.24
433.601	6789.02
433.808	7083.92
434.016	7022.48
434.223	7106.45
434.43	7706.51
434.637	7720.84
434.844	7987.08
435.052	8343.42
435.259	7921.54
435.466	8306.56
435.673	8230.79
435.88	8691.58
436.087	9142.13
436.294	9183.09
436.501	8818.55
436.708	9035.64
436.915	9404.27
437.122	9715.56
437.329	9748.33
437.537	10162.02
437.743	10313.57
437.95	10174.31
438.157	10655.58
438.364	11251.54
438.571	10850.14
438.778	11247.44
438.985	12085.06
439.192	11618.13
439.399	11849.55
439.606	11712.33
439.813	12564.29
440.02	13418.29
440.227	12992.31
440.433	12906.3
440.64	13135.67
440.847	13016.89
441.054	13629.23
441.261	14280.49
441.467	14493.47
441.674	14581.54
441.881	14958.36
442.088	14792.48
442.294	15036.19
442.501	15372.05
442.708	15482.64
442.914	16080.65
443.121	17110.78
443.328	16336.65
443.534	17444.6
443.741	17149.69
443.948	17024.76
444.154	18030.32
444.361	17975.02
444.568	18005.74
444.774	18024.17
444.981	18179.82
445.187	18851.55
445.394	19547.86
445.6	19511
445.807	21278.4
446.013	20195.02
446.22	20747.97
446.426	21210.81
446.633	21661.37
446.839	22455.98
447.046	21446.33
447.252	22679.21
447.459	22744.74
447.665	22415.02
447.871	23629.46
448.078	24542.86
448.284	23445.15
448.491	24172.18
448.697	25081.47
448.903	25489.02
449.11	25415.29
449.316	25089.67
449.522	25243.26
449.728	25988.72
449.935	26416.75
450.141	26209.9
450.347	27082.34
450.553	26068.59
450.76	26148.47
450.966	27422.3
451.172	26928.74
451.378	27729.5
451.584	26812.01
451.791	27879
451.997	27702.87
452.203	27981.4
452.409	27983.44
452.615	27965.01
452.821	26898.02
453.027	26545.77
453.233	28212.82
453.44	26922.6
453.646	27528.8
453.852	27280.99
454.058	27635.29
454.264	26725.99
454.47	27745.88
454.676	26566.25
454.882	27698.78
455.088	25253.5
455.294	25630.33
455.5	25941.62
455.705	26508.91
455.911	25140.86
456.117	24708.74
456.323	24559.24
456.529	22996.64
456.735	23955.09
456.941	23305.88
457.147	22863.52
457.352	22566.57
457.558	22111.92
457.764	22206.13
457.97	21614.26
458.176	21038.78
458.381	21358.27
458.587	20186.83
458.793	20270.79
458.999	19072.73
459.204	20416.2
459.41	20102.86
459.616	18636.52
459.821	18450.15
460.027	18755.3
460.233	18130.67
460.438	17348.34
460.644	17299.19
460.85	16756.48
461.055	16271.11
461.261	16178.95
461.466	15083.29
461.672	14739.23
461.878	15838.99
462.083	14640.93
462.289	14262.05
462.494	14335.78
462.7	13463.35
462.905	13211.45
463.111	13862.7
463.316	13676.34
463.522	13424.44
463.727	13418.29
463.932	13203.25
464.138	13256.5
464.343	13291.32
464.549	13074.23
464.754	13375.28
464.959	13225.78
465.165	13215.54
465.37	12478.27
465.575	12230.47
465.781	12801.85
465.986	12865.34
466.191	12457.79
466.397	12228.42
466.602	11636.56
466.807	11972.43
467.012	11894.6
467.218	11878.22
467.423	11648.85
467.628	11775.82
467.833	12205.89
468.038	11886.41
468.244	11468.62
468.449	11958.09
468.654	11618.13
468.859	11392.85
469.064	11487.06
469.269	10973.02
469.474	10893.15
469.679	11278.16
469.885	10973.02
470.09	10952.54
470.295	11026.26
470.5	10807.13
470.705	10923.87
470.91	10821.47
471.115	10487.65
471.32	10588
471.525	10405.73
471.73	10219.36
471.935	10170.21
472.139	9994.09
472.344	9998.18
472.549	10082.15
472.754	9987.94
472.959	9621.36
473.164	9486.19
473.369	9308.02
473.574	9600.88
473.778	9611.12
473.983	9465.71
474.188	9457.52
474.393	8892.28
474.598	9133.94
474.802	8912.76
475.007	8949.62
475.212	9004.92
475.417	8636.28
475.621	8454.01
475.826	8552.32
476.031	8345.47
476.235	8312.71
476.44	8421.25
476.645	8142.72
476.849	8380.29
477.054	8191.88
477.259	7974.79
477.463	7944.07
477.668	7794.57
477.872	7835.53
478.077	7843.72
478.282	7679.88
478.486	7618.44
478.691	7479.18
478.895	7616.4
479.1	7530.38
479.304	7389.07
479.509	7231.38
479.713	7319.44
479.918	7350.16
480.122	6913.94
480.326	7231.38
480.531	7190.42
480.735	7118.74
480.94	6944.66
481.144	7262.1
481.348	6803.35
481.553	6942.61
481.757	6768.54
481.961	6862.74
482.166	7008.15
482.37	6893.46
482.574	6907.8
482.778	6750.11
482.983	7004.05
483.187	6784.92
483.391	6950.81
483.595	6918.04
483.8	6770.58
484.004	6893.46
484.208	6801.3
484.412	6881.18
484.616	6991.77
484.821	6885.27
485.025	6760.34
485.229	6854.55
485.433	6721.43
485.637	6938.52
485.841	6703
486.045	6797.21
486.249	6827.93
486.453	6754.2
486.657	6997.91
486.861	6676.38
487.065	6729.63
487.269	6895.51
487.473	6664.09
487.677	6877.08
487.881	6938.52
488.085	6776.73
488.289	6770.58
488.493	6746.01
488.697	6965.14
488.901	7032.72
489.105	6883.22
489.309	6895.51
489.512	6991.77
489.716	6897.56
489.92	6688.67
490.124	6954.9
490.328	6901.65
490.531	6768.54
490.735	7141.27
490.939	7024.53
491.143	6997.91
491.346	6926.23
491.55	7167.89
491.754	7169.94
491.958	7163.79
492.161	7184.27
492.365	7327.63
492.569	7042.96
492.772	7217.04
492.976	7368.59
493.18	7372.69
493.383	7264.15
493.587	7280.53
493.79	7430.03
493.994	7245.71
494.197	7645.07
494.401	7622.54
494.605	7630.73
494.808	7595.92
495.012	7636.88
495.215	7653.26
495.419	7946.12
495.622	7747.47
495.825	7892.87
496.029	8062.85
496.232	7970.69
496.436	8241.03
496.639	8337.28
496.843	8236.93
497.046	8253.31
497.249	8550.27
497.453	8595.32
497.656	8597.37
497.859	8542.08
498.063	8796.03
498.266	9103.22
498.469	8679.29
498.673	9111.41
498.876	9205.62
499.079	9058.17
499.282	9295.73
499.485	9320.31
499.689	9543.53
499.892	9586.54
500.095	9551.73
500.298	9989.99
500.501	9801.58
500.705	10002.28
500.908	10053.48
501.111	10135.4
501.314	10284.9
501.517	10594.14
501.72	10571.61
501.923	10688.35
502.126	10893.15
502.329	10930.01
502.532	11061.08
502.735	11204.44
502.938	11198.29
503.141	11306.84
503.344	11493.2
503.547	11554.64
503.75	11917.13
503.953	12003.14
504.156	12007.24
504.359	12226.37
504.562	12234.57
504.765	12480.32
504.968	12549.95
505.17	12711.74
505.373	12642.11
505.576	12965.69
505.779	13256.5
505.982	13160.25
506.185	13342.52
506.387	13412.15
506.59	13864.75
506.793	13815.6
506.996	13819.69
507.198	14202.66
507.401	14274.34
507.604	14595.87
507.807	14642.98
508.009	14561.06
508.212	15036.19
508.415	14901.02
508.617	15413.01
508.82	15413.01
509.022	15224.6
509.225	15511.32
509.428	15882
509.63	16101.13
509.833	15830.8
510.035	16586.5
510.238	16256.78
510.44	16617.22
510.643	16840.45
510.845	16922.37
511.048	16998.14
511.25	17186.55
511.453	17452.79
511.655	18058.99
511.858	17991.41
512.06	17882.86
512.262	18147.05
512.465	18353.9
512.667	18636.52
512.87	18804.45
513.072	18962.14
513.274	19236.57
513.477	19492.57
513.679	19310.3
513.881	19830.48
514.084	20000.46
514.286	20070.09
514.488	19869.39
514.69	20676.29
514.893	20588.23
515.095	20823.75
515.297	21192.38
515.499	20784.83
515.701	21593.78
515.904	21960.37
516.106	22163.12
516.308	22316.72
516.51	22718.12
516.712	22431.4
516.914	22924.96
517.116	23404.19
517.318	23254.69
517.52	23500.44
517.722	23422.62
517.925	24331.92
518.127	24202.89
518.329	24737.41
518.531	24301.2
518.733	25202.3
518.935	24972.93
519.136	25235.07
519.338	26125.94
519.54	26207.86
519.742	25996.92
519.944	26474.09
520.146	26984.04
520.348	27051.62
520.55	27127.39
520.752	27641.43
520.954	28335.7
521.155	27690.59
521.357	28567.12
521.559	28380.75
521.761	29343.3
521.963	29144.64
522.164	29433.41
522.366	29783.61
522.568	29937.21
522.77	30322.23
522.971	30398
523.173	30438.96
523.375	30774.83
523.576	31000.1
523.778	30746.15
523.98	31634.97
524.181	31659.55
524.383	31737.37
524.584	32425.49
524.786	32357.91
524.988	32562.7
525.189	32761.36
525.391	32771.6
525.592	33586.69
525.794	33351.17
525.995	33889.79
526.197	33879.55
526.398	34098.68
526.6	34235.89
526.801	34690.54
527.003	34858.48
527.204	34680.3
527.406	35356.13
527.607	35575.27
527.808	35743.2
528.01	34948.59
528.211	36034.01
528.412	36183.51
528.614	36337.11
528.815	36103.64
529.016	36449.75
529.218	36341.21
529.419	36742.61
529.62	36906.44
529.822	36634.07
530.023	37131.72
530.224	37572.03
530.425	37094.86
530.626	37342.66
530.828	37524.93
531.029	38092.22
531.23	37672.39
531.431	37993.92
531.632	38303.16
531.833	38137.27
532.035	38057.4
532.236	38368.69
532.437	38806.96
532.638	38086.07
532.839	38761.9
533.04	38872.49
533.241	38669.75
533.442	39318.95
533.643	39067.05
533.844	39099.82
534.045	39409.06
534.246	38927.79
534.447	39404.97
534.648	39429.54
534.849	39564.71
535.05	39083.44
535.251	39497.13
535.451	39384.49
535.652	39630.24
535.853	39544.23
536.054	39478.69
536.255	39822.75
536.456	39380.39
536.657	40220.06
536.857	39687.59
537.058	39351.72
537.259	40361.37
537.46	39925.15
537.66	39755.17
537.861	40304.03
538.062	39710.11
538.263	40097.18
538.463	39591.33
538.664	39490.98
538.865	40367.51
539.065	40207.77
539.266	39470.5
539.466	40605.08
539.667	39597.48
539.868	40379.8
540.068	40039.84
540.269	40170.91
540.469	40517.01
540.67	40179.1
540.87	39701.92
541.071	40207.77
541.271	40156.57
541.472	40056.22
541.672	39792.03
541.873	39869.86
542.073	39738.79
542.274	40394.14
542.474	39816.61
542.675	39835.04
542.875	40402.33
543.075	40256.92
543.276	39460.26
543.476	40447.38
543.676	40209.82
543.877	40240.54
544.077	39810.46
544.277	39697.83
544.478	39712.16
544.678	39814.56
544.878	39974.3
545.078	40211.87
545.279	39796.13
545.479	39771.55
545.679	40367.51
545.879	39761.31
546.079	40132
546.28	40048.03
546.48	39730.59
546.68	40375.7
546.88	40205.72
547.08	40205.72
547.28	39691.68
547.48	39714.21
547.68	40191.39
547.88	39632.29
548.081	40027.55
548.281	39906.72
548.481	39685.54
548.681	40412.57
548.881	40148.38
549.081	40101.28
549.28	39769.51
549.48	40134.04
549.68	39867.81
549.88	40437.14
550.08	39734.69
550.28	40052.12
550.48	39781.79
550.68	40070.56
550.88	39921.05
551.08	39736.74
551.279	40236.44
551.479	39300.52
551.679	39923.1
551.879	39585.19
552.079	39873.95
552.278	40093.08
552.478	39523.75
552.678	39904.67
552.878	39789.98
553.077	39603.62
553.277	39441.83
553.477	39828.9
553.676	39925.15
553.876	39390.63
554.076	39728.55
554.275	39507.37
554.475	39075.24
554.674	39261.61
554.874	39593.38
555.074	39095.72
555.273	39241.13
555.473	39527.84
555.672	38976.94
555.872	39099.82
556.071	39255.46
556.271	39067.05
556.47	38960.56
556.67	38626.74
556.869	38794.67
557.068	38800.82
557.268	38557.11
557.467	38448.57
557.667	38954.41
557.866	38516.15
558.065	38761.9
558.265	38311.35
558.464	37897.66
558.663	38503.86
558.863	37977.53
559.062	38385.08
559.261	37731.78
559.461	38102.46
559.66	37217.74
559.859	37776.83
560.058	37305.8
560.258	37715.39
560.457	37307.85
560.656	37549.51
560.855	37352.9
561.054	37287.37
561.253	36474.32
561.453	36928.97
561.652	37076.43
561.851	36902.35
562.05	36615.63
562.249	36240.85
562.448	36529.62
562.647	36330.97
562.846	36439.51
563.045	36543.95
563.244	35726.81
563.443	36296.15
563.642	35532.26
563.841	35816.93
564.04	35892.7
564.239	35886.56
564.438	35544.55
564.637	35411.43
564.836	35337.7
565.035	34940.39
565.234	35077.61
565.432	34641.39
565.631	34450.93
565.83	34510.32
566.029	34162.17
566.228	34125.3
566.427	33977.85
566.625	33680.89
566.824	33562.11
567.023	33715.71
567.222	33474.05
567.42	33857.02
567.619	33246.72
567.818	33394.18
568.016	33426.95
568.215	33359.36
568.414	32843.27
568.612	33029.64
568.811	32376.34
569.01	32656.91
569.208	32097.81
569.407	32505.36
569.605	32353.81
569.804	32362
570.002	31749.66
570.201	31958.55
570.4	31706.65
570.598	31620.64
570.797	31417.89
570.995	31501.86
571.193	31057.45
571.392	31305.25
571.59	30621.23
571.789	30520.88
571.987	30619.18
572.186	30608.94
572.384	30377.52
572.582	30555.69
572.781	30625.32
572.979	29587
573.177	30002.74
573.376	29980.21
573.574	29443.65
573.772	29980.21
573.971	29683.26
574.169	29265.47
574.367	28931.65
574.565	29089.35
574.763	29134.4
574.962	28759.63
575.16	28481.1
575.358	28728.91
575.556	28503.63
575.754	28655.18
575.952	28098.13
576.151	28431.95
576.349	28089.94
576.547	28061.27
576.745	28374.61
576.943	27745.88
577.141	27874.9
577.339	27635.29
577.537	27602.52
577.735	27661.91
577.933	26947.17
578.131	27268.7
578.329	27094.63
578.527	26916.45
578.725	26906.21
578.923	27029.09
579.121	26742.38
579.319	26721.9
579.516	26635.88
579.714	26662.51
579.912	26396.27
580.11	26203.76
580.308	26244.72
580.506	26289.77
580.704	25622.14
580.901	25892.47
581.099	25949.81
581.297	25763.45
581.495	25370.24
581.692	25951.86
581.89	25421.44
582.088	25304.7
582.285	25190.02
582.483	25255.55
582.681	25077.38
582.878	25022.08
583.076	24731.27
583.274	25050.75
583.471	24815.24
583.669	24684.17
583.866	24573.58
584.064	24790.66
584.262	24415.88
584.459	24557.19
584.657	24137.36
584.854	24250
585.052	24047.25
585.249	24082.06
585.447	23828.12
585.644	23654.04
585.841	23969.43
586.039	23944.85
586.236	23498.39
586.434	23355.04
586.631	23598.74
586.828	23291.55
587.026	23279.26
587.223	23142.05
587.42	23166.62
587.618	23060.13
587.815	22797.99
588.012	22910.63
588.21	22808.23
588.407	22879.91
588.604	22566.57
588.801	22435.5
588.999	22415.02
589.196	22494.89
589.393	22351.53
589.59	22329
589.787	22005.42
589.984	21929.65
590.182	21753.52
590.379	21946.03
590.576	21685.94
590.773	21800.63
590.97	21698.23
591.167	21767.86
591.364	21429.94
591.561	21704.37
591.758	21372.6
591.955	21614.26
592.152	21509.82
592.349	21014.21
592.546	21376.7
592.743	21227.2
592.94	20825.79
593.137	21272.25
593.334	21077.69
593.531	20491.98
593.727	20958.91
593.924	20788.93
594.121	20596.42
594.318	20692.68
594.515	20451.02
594.712	20422.34
594.908	20430.54
595.105	20033.23
595.302	20309.71
595.499	20297.42
595.696	20215.5
595.892	19853.01
596.089	19984.08
596.286	19979.98
596.482	19848.91
596.679	19744.47
596.876	19879.63
597.072	19924.69
597.269	19697.36
597.466	19345.11
597.662	19537.62
597.859	19580.63
598.055	19234.52
598.252	19087.07
598.448	19009.25
598.645	19015.39
598.841	18542.31
599.038	19021.53
599.234	18994.91
599.431	18724.58
599.627	18695.91
599.824	18906.85
600.02	18681.57
600.217	18536.17
600.413	18691.81
600.609	18532.07
600.806	18087.66
601.002	18458.34
601.198	18171.63
601.395	18360.04
601.591	18110.19
601.787	18120.43
601.984	18102
602.18	18228.97
602.376	17938.16
602.572	18069.23
602.769	17858.29
602.965	17755.89
603.161	17837.81
603.357	17645.3
603.553	17702.64
603.75	17755.89
603.946	17590
604.142	17458.93
604.338	17366.78
604.534	17444.6
604.73	17309.43
604.926	17145.59
605.122	17106.68
605.318	17098.49
605.514	17014.52
605.71	16709.38
605.906	16887.55
606.102	16559.88
606.298	16705.28
606.494	16750.34
606.69	16570.12
606.886	16539.4
607.082	16596.74
607.278	16736
607.474	16271.11
607.67	16422.66
607.866	15900.43
608.062	16484.1
608.257	16176.91
608.453	16221.96
608.649	16252.68
608.845	16015.12
609.041	15980.3
609.236	15931.15
609.432	16074.51
609.628	16047.88
609.824	15920.91
610.019	15531.8
610.215	15787.79
610.411	16160.52
610.606	15535.89
610.802	15771.41
610.998	15931.15
611.193	15787.79
611.389	15589.14
611.584	15480.6
611.78	15626
611.976	15437.59
612.171	15537.94
612.367	15511.32
612.562	15361.81
612.758	15159.06
612.953	15294.23
613.149	15355.67
613.344	15159.06
613.539	15064.86
613.735	14864.16
613.93	15052.57
614.126	14896.92
614.321	15075.1
614.517	14964.51
614.712	15075.1
614.907	14767.9
615.103	14980.89
615.298	14870.3
615.493	14937.88
615.688	14397.22
615.884	14855.97
616.079	14599.97
616.274	14714.66
616.47	14851.87
616.665	14335.78
616.86	14579.49
617.055	14440.23
617.25	14399.27
617.445	14645.02
617.641	14171.94
617.836	14419.75
618.031	14055.21
618.226	14169.9
618.421	14208.81
618.616	14298.92
618.811	13997.87
619.006	14165.8
619.201	13930.28
619.396	13963.05
619.591	13649.71
619.786	13942.57
619.981	13555.51
620.176	13633.33
620.371	13424.44
620.566	13440.82
620.761	13467.44
620.956	13485.87
621.151	13150.01
621.346	13285.17
621.541	13213.49
621.735	13199.16
621.93	12998.46
622.125	13127.48
622.32	12709.69
622.515	12887.87
622.709	12703.55
622.904	12631.87
623.099	12828.48
623.294	12648.25
623.488	12422.98
623.683	12666.69
623.878	12263.24
624.072	12435.27
624.267	12517.18
624.462	12320.58
624.656	12144.45
624.851	12015.43
625.046	11939.66
625.24	12142.41
625.435	11859.79
625.629	11743.05
625.824	11810.64
626.018	11800.4
626.213	11431.76
626.407	11431.76
626.602	11536.21
626.796	11603.79
626.991	11411.28
627.185	11442
627.38	11300.69
627.574	11124.57
627.768	11145.05
627.963	11042.65
628.157	11075.41
628.352	10880.86
628.546	10729.31
628.74	10866.52
628.935	10805.08
629.129	10624.86
629.323	10651.49
629.517	10616.67
629.712	10510.18
629.906	10471.26
630.1	10401.63
630.294	10585.95
630.489	10202.98
630.683	10313.57
630.877	10211.17
631.071	10274.66
631.265	10094.44
631.459	10116.97
631.653	10061.67
631.848	10014.57
632.042	10030.95
632.236	10006.38
632.43	9981.8
632.624	9942.89
632.818	9641.84
633.012	9584.49
633.206	9586.54
633.4	9744.24
633.594	9564.01
633.788	9561.97
633.982	9398.13
634.176	9348.98
634.369	9471.86
634.563	9166.71
634.757	8961.91
634.951	9142.13
635.145	9193.33
635.339	9109.36
635.533	8978.29
635.726	8966.01
635.92	8912.76
636.114	8912.76
636.308	8800.12
636.501	8802.17
636.695	8699.77
636.889	8685.44
637.083	8490.88
637.276	8568.7
637.47	8378.24
637.664	8468.35
637.857	8540.03
638.051	8417.15
638.244	8517.5
638.438	8208.26
638.632	8218.5
638.825	8011.65
639.019	8294.27
639.212	7929.73
639.406	8001.41
639.599	7997.32
639.793	7802.76
639.986	7718.79
640.18	7948.17
640.373	7866.25
640.567	7827.34
640.76	7540.62
640.954	7708.55
641.147	7559.05
641.34	7487.37
641.534	7337.87
641.727	7579.53
641.92	7565.2
642.114	7417.74
642.307	7335.82
642.5	7362.45
642.694	7352.21
642.887	7315.34
643.08	7247.76
643.273	7194.51
643.467	7063.44
643.66	7028.63
643.853	6987.67
644.046	6926.23
644.239	6936.47
644.432	6877.08
644.626	6956.95
644.819	6670.23
645.012	6627.23
645.205	6801.3
645.398	6780.82
645.591	6811.54
645.784	6707.1
645.977	6537.12
646.17	6739.87
646.363	6533.02
646.556	6565.79
646.749	6324.13
646.942	6479.77
647.135	6375.33
647.328	6397.85
647.521	6444.96
647.714	6389.66
647.907	6186.91
648.099	6326.18
648.292	6258.59
648.485	6231.97
648.678	6199.2
648.871	6270.88
649.064	5898.15
649.256	6012.84
649.449	6039.46
649.642	5975.97
649.835	5937.06
650.027	5990.31
650.22	5912.49
650.413	5875.62
650.605	5791.66
650.798	5781.42
650.991	5750.7
651.183	5869.48
651.376	5572.52
651.568	5685.16
651.761	5650.35
651.954	5568.43
652.146	5633.96
652.339	5668.78
652.531	5672.87
652.724	5418.93
652.916	5609.39
653.109	5287.86
653.301	5535.66
653.494	5322.67
653.686	5326.77
653.879	5410.73
654.071	5283.76
654.263	5283.76
654.456	5427.12
654.648	5361.58
654.84	5275.57
655.033	5195.7
655.225	5191.6
655.417	5074.87
655.61	5304.24
655.802	5294
655.994	5140.4
656.186	5111.73
656.379	5089.2
656.571	5087.15
656.763	5044.15
656.955	5027.76
657.148	5191.6
657.34	5136.31
657.532	4857.78
657.724	4974.52
657.916	4898.74
658.108	4759.48
658.3	4716.47
658.492	4806.58
658.684	4863.93
658.876	4820.92
659.068	4726.71
659.26	4671.42
659.452	4775.86
659.644	4739
659.836	4562.87
660.028	4677.56
660.22	4458.43
660.412	4716.47
660.604	4640.7
660.796	4708.28
660.988	4700.09
661.18	4491.2
661.372	4499.39
661.563	4526.01
661.755	4476.86
661.947	4431.8
662.139	4485.05
662.331	4497.34
662.522	4483
662.714	4628.41
662.906	4452.28
663.097	4452.28
663.289	4360.13
663.481	4313.02
663.673	4523.96
663.864	4370.37
664.056	4356.03
664.247	4214.72
664.439	4206.53
664.631	4394.94
664.822	4374.46
665.014	4450.24
665.205	4368.32
665.397	4104.13
665.588	4233.15
665.78	4143.04
665.971	4136.9
666.163	4300.73
666.354	4284.35
666.546	4237.25
666.737	4208.58
666.929	4116.42
667.12	4075.46
667.311	4224.96
667.503	4116.42
667.694	4032.45
667.885	4112.32
668.077	4124.61
668.268	4153.28
668.459	4149.18
668.651	4059.07
668.842	4149.18
669.033	4026.31
669.224	4100.03
669.416	4188.1
669.607	4095.94
669.798	4087.75
669.989	4304.83
670.18	4190.14
670.371	4075.46
670.563	4018.11
670.754	4224.96
670.945	4255.68
671.136	4138.94
671.327	4048.83
671.518	4145.09
671.709	4188.1
671.9	4179.9
672.091	4255.68
672.282	4251.58
672.473	4071.36
672.664	4163.52
672.855	4132.8
673.046	4198.34
673.237	4224.96
673.428	4087.75
673.619	4257.73
673.809	4143.04
674	4263.87
674.191	4159.42
674.382	4095.94
674.573	4378.56
674.764	4149.18
674.954	4208.58
675.145	4255.68
675.336	4263.87
675.527	4218.82
675.717	4321.21
675.908	4054.98
676.099	4321.21
676.289	4290.49
676.48	4278.21
676.671	4145.09
676.861	4425.66
677.052	4380.61
677.243	4353.98
677.433	4353.98
677.624	4317.12
677.814	4368.32
678.005	4341.69
678.195	4472.76
678.386	4517.82
678.576	4460.48
678.767	4431.8
678.957	4528.06
679.148	4505.53
679.338	4581.31
679.529	4542.39
679.719	4530.11
679.909	4634.55
680.1	4556.73
680.29	4595.64
680.481	4603.83
680.671	4685.75
680.861	4571.07
681.052	4786.1
681.242	4626.36
681.432	4732.86
681.622	4659.13
681.813	4708.28
682.003	4726.71
682.193	4630.46
682.383	4763.58
682.573	4693.94
682.764	4810.68
682.954	4741.05
683.144	4765.62
683.334	4771.77
683.524	4878.26
683.714	4845.49
683.904	4874.17
684.094	4853.69
684.284	4896.69
684.474	4806.58
684.664	4935.6
684.854	4972.47
685.044	4816.82
685.234	4841.4
685.424	4808.63
685.614	4876.21
685.804	5081.01
685.994	4759.48
686.184	4884.41
686.374	4829.11
686.564	4911.03
686.753	4804.53
686.943	4667.32
687.133	4896.69
687.323	4786.1
687.513	4622.27
687.702	4601.79
687.892	4685.75
688.082	4702.14
688.272	4812.73
688.461	4614.07
688.651	4763.58
688.841	4599.74
689.03	4536.25
689.22	4419.52
689.41	4638.65
689.599	4562.87
689.789	4605.88
689.979	4474.81
690.168	4460.48
690.358	4476.86
690.547	4435.9
690.737	4378.56
690.926	4374.46
691.116	4407.23
691.305	4577.21
691.495	4358.08
691.684	4192.19
691.874	4235.2
692.063	4362.17
692.252	4292.54
692.442	4315.07
692.631	4206.53
692.82	4229.06
693.01	4143.04
693.199	4143.04
693.388	4198.34
693.578	4091.84
693.767	4227.01
693.956	4169.66
694.146	3960.77
694.335	4110.27
694.524	4089.79
694.713	4091.84
694.902	4097.99
695.092	4067.27
695.281	3993.54
695.47	4067.27
695.659	3911.62
695.848	3854.28
696.037	4040.64
696.226	4089.79
696.415	4097.99
696.604	3975.11
696.793	4059.07
696.982	4016.07
697.171	3991.49
697.36	3968.96
697.549	4016.07
697.738	3887.04
697.927	3899.33
698.116	4050.88
698.305	3975.11
698.494	4032.45
698.683	4001.73
698.872	4128.7
699.061	4036.55
699.25	3989.44
699.438	4040.64
699.627	4091.84
699.816	3999.68
700.005	3958.72
700.193	4022.21
700.382	4134.85
700.571	4018.11
700.76	4069.31
700.948	4153.28
701.137	4159.42
701.326	4032.45
701.514	4138.94
701.703	4120.51
701.892	3993.54
702.08	4317.12
702.269	4124.61
702.457	4175.81
702.646	4214.72
702.834	4140.99
703.023	4181.95
703.212	4192.19
703.4	4130.75
703.589	4104.13
703.777	4284.35
703.965	4294.59
704.154	4468.67
704.342	4134.85
704.531	4227.01
704.719	4210.62
704.907	4300.73
705.096	4157.38
705.284	4089.79
705.472	4294.59
705.661	4296.64
705.849	4325.31
706.037	4474.81
706.226	4392.89
706.414	4323.26
706.602	4403.13
706.79	4370.37
706.979	4224.96
707.167	4345.79
707.355	4310.97
707.543	4415.42
707.731	4370.37
707.919	4444.09
708.107	4214.72
708.296	4546.49
708.484	4423.61
708.672	4493.24
708.86	4569.02
709.048	4526.01
709.236	4540.35
709.424	4571.07
709.612	4591.55
709.8	4603.83
709.988	4544.44
710.176	4663.22
710.364	4691.9
710.551	4538.3
710.739	4687.8
710.927	4569.02
711.115	4618.17
711.303	4763.58
711.491	4732.86
711.679	4712.38
711.866	4667.32
712.054	4794.29
712.242	4837.3
712.43	4886.45
712.617	4843.45
712.805	4825.01
712.993	4679.61
713.181	4755.38
713.368	4896.69
713.556	4906.93
713.744	4894.65
713.931	4997.04
714.119	4900.79
714.306	4990.9
714.494	4997.04
714.682	4915.12
714.869	4898.74
715.057	5040.05
715.244	4923.32
715.432	5007.28
715.619	5097.39
715.807	4990.9
715.994	5144.5
716.182	5099.44
716.369	5199.79
716.556	5236.66
716.744	5171.12
716.931	5113.78
717.119	5226.42
717.306	5361.58
717.493	5271.47
717.681	5345.2
717.868	5152.69
718.055	5298.1
718.242	5447.6
718.43	5384.11
718.617	5267.38
718.804	5248.94
718.991	5435.31
719.179	5484.46
719.366	5425.07
719.553	5427.12
719.74	5392.3
719.927	5564.33
720.114	5388.21
720.301	5586.86
720.488	5408.69
720.676	5509.04
720.863	5451.69
721.05	5705.64
721.237	5660.59
721.424	5595.05
721.611	5580.71
721.798	5605.29
721.985	5500.84
722.172	5629.87
722.358	5791.66
722.545	5619.63
722.732	5660.59
722.919	5877.67
723.106	5556.14
723.293	5609.39
723.48	5599.15
723.667	5717.93
723.853	5767.08
724.04	5834.66
724.227	5738.41
724.414	5894.05
724.6	5765.03
724.787	5797.8
724.974	5861.29
725.161	5722.02
725.347	5722.02
725.534	5941.16
725.72	5861.29
725.907	5844.9
726.094	5840.81
726.28	5859.24
726.467	5805.99
726.653	5916.58
726.84	5906.34
727.027	6035.36
727.213	5861.29
727.4	6021.03
727.586	6096.8
727.773	5939.11
727.959	5994.4
728.145	6066.08
728.332	6002.6
728.518	6010.79
728.705	6078.37
728.891	5992.36
729.077	5916.58
729.264	6004.64
729.45	6035.36
729.636	6088.61
729.823	6111.14
730.009	6098.85
730.195	6258.59
730.382	5947.3
730.568	6170.53
730.754	6033.32
730.94	6057.89
731.126	6125.47
731.313	6135.71
731.499	6168.48
731.685	6231.97
731.871	6141.86
732.057	6154.15
732.243	6172.58
732.429	5935.01
732.615	6098.85
732.801	6131.62
732.987	6129.57
733.173	6049.7
733.359	6274.98
733.545	6160.29
733.731	6178.72
733.917	6168.48
734.103	6211.49
734.289	6014.88
734.475	6164.39
734.661	6211.49
734.847	6262.69
735.033	6156.19
735.219	6250.4
735.404	6320.03
735.59	6217.63
735.776	6131.62
735.962	6332.32
736.148	6059.94
736.333	6322.08
736.519	6037.41
736.705	6203.3
736.89	6180.77
737.076	6389.66
737.262	6049.7
737.447	6227.87
737.633	6115.23
737.819	6174.63
738.004	6115.23
738.19	6285.22
738.375	6021.03
738.561	6258.59
738.747	6064.04
738.932	6125.47
739.118	6221.73
739.303	6184.87
739.489	6182.82
739.674	5988.26
739.859	6027.17
740.045	6043.56
740.23	5984.16
740.416	5988.26
740.601	5955.49
740.786	5726.12
740.972	5816.23
741.157	5992.36
741.342	5828.52
741.528	6049.7
741.713	5957.54
741.898	5963.69
742.084	5871.53
742.269	6012.84
742.454	5955.49
742.639	5853.09
742.824	5820.33
743.01	5793.7
743.195	5765.03
743.38	5840.81
743.565	5732.26
743.75	5672.87
743.935	5844.9
744.12	5861.29
744.305	5578.67
744.49	5529.52
744.675	5586.86
744.86	5545.9
745.045	5674.92
745.23	5377.97
745.415	5621.67
745.6	5613.48
745.785	5431.21
745.97	5480.36
746.155	5511.08
746.34	5418.93
746.525	5267.38
746.71	5498.8
746.895	5244.85
747.079	5302.19
747.264	5236.66
747.449	5179.31
747.634	5332.91
747.819	5013.43
748.003	4923.32
748.188	5046.2
748.373	4976.56
748.557	5095.35
748.742	4974.52
748.927	5083.06
749.111	4913.08
749.296	4870.07
749.481	4968.37
749.665	4837.3
749.85	4575.16
750.034	4829.11
750.219	4761.53
750.404	4745.14
750.588	4575.16
750.773	4626.36
750.957	4601.79
751.141	4673.46
751.326	4442.04
751.51	4485.05
751.695	4452.28
751.879	4409.28
752.064	4407.23
752.248	4376.51
752.432	4415.42
752.617	4423.61
752.801	4257.73
752.985	4241.34
753.17	4214.72
753.354	4249.54
753.538	4089.79
753.722	4140.99
753.907	4042.69
754.091	3919.81
754.275	3968.96
754.459	3993.54
754.643	3983.3
754.828	3954.63
755.012	3862.47
755.196	3850.18
755.38	3848.13
755.564	3825.61
755.748	3854.28
755.932	3803.08
756.116	3723.21
756.3	3751.88
756.484	3778.5
756.668	3749.83
756.852	3493.83
757.036	3665.86
757.22	3659.72
757.404	3698.63
757.588	3422.16
757.772	3491.79
757.956	3559.37
758.14	3393.48
758.323	3409.87
758.507	3508.17
758.691	3420.11
758.875	3330
759.059	3313.61
759.242	3442.64
759.426	3186.64
759.61	3373
759.794	3246.03
759.977	3182.54
760.161	3311.57
760.345	3131.34
760.528	3117.01
760.712	3155.92
760.895	3084.24
761.079	3141.58
761.263	3151.82
761.446	3080.15
761.63	2996.18
761.813	3022.8
761.997	3125.2
762.18	2926.55
762.364	2879.44
762.547	2977.75
762.731	2961.36
762.914	2961.36
763.098	2942.93
763.281	2852.82
763.464	2807.77
763.648	2820.05
763.831	2947.03
764.015	2838.48
764.198	2772.95
764.381	2715.61
764.564	2707.41
764.748	2777.05
764.931	2854.87
765.114	2590.68
765.297	2666.46
765.481	2658.26
765.664	2533.34
765.847	2605.02
766.03	2654.17
766.213	2607.06
766.397	2598.87
766.58	2615.26
766.763	2709.46
766.946	2478.04
767.129	2471.9
767.312	2582.49
767.495	2437.08
767.678	2461.66
767.861	2502.62
768.044	2453.47
768.227	2523.1
768.41	2420.7
768.593	2496.47
768.776	2455.51
768.959	2342.88
769.142	2492.38
769.324	2365.4
769.507	2340.83
769.69	2322.4
769.873	2383.84
770.056	2482.14
770.239	2179.04
770.421	2365.4
770.604	2281.44
770.787	2332.64
770.97	2297.82
771.152	2222.05
771.335	2338.78
771.518	2185.18
771.7	2265.05
771.883	2172.89
772.066	2201.57
772.248	2170.85
772.431	2306.01
772.613	2101.22
772.796	2172.89
772.978	2156.51
773.161	2170.85
773.343	2050.02
773.526	2021.35
773.708	1927.14
773.891	2039.78
774.073	2043.87
774.256	1898.47
774.438	2170.85
774.621	1988.58
774.803	1920.99
774.985	1888.23
775.168	1839.08
775.35	1937.38
775.532	1929.19
775.715	1898.47
775.897	1888.23
776.079	1906.66
776.261	1898.47
776.444	1798.12
776.626	1857.51
776.808	1757.16
776.99	1716.2
777.173	1771.49
777.355	1742.82
777.537	1837.03
777.719	1843.17
777.901	1634.28
778.083	1773.54
778.265	1550.31
778.447	1593.32
778.629	1599.46
778.811	1650.66
778.993	1548.26
779.175	1677.29
779.357	1581.03
779.539	1517.54
779.721	1597.42
779.903	1542.12
780.085	1542.12
780.267	1380.33
780.449	1466.35
780.631	1507.31
780.812	1535.98
780.994	1339.37
781.176	1421.29
781.358	1370.09
781.54	1310.7
781.721	1388.52
781.903	1363.95
782.085	1413.1
782.267	1372.14
782.448	1269.74
782.63	1415.15
782.812	1318.89
782.993	1318.89
783.175	1214.45
783.357	1320.94
783.538	1312.75
783.72	1322.99
783.901	1353.71
784.083	1277.93
784.264	1148.91
784.446	1140.72
784.627	1208.3
784.809	1191.92
784.99	1187.82
785.172	1148.91
785.353	1146.86
785.535	1155.05
785.716	1042.42
785.897	1052.66
786.079	1099.76
786.26	1183.73
786.441	1107.95
786.623	1089.52
786.804	1054.7
786.985	1128.43
787.167	1150.96
787.348	1066.99
787.529	1052.66
787.71	1052.66
787.891	1124.33
788.073	978.93
788.254	921.59
788.435	1046.51
788.616	1052.66
788.797	1048.56
788.978	999.41
789.159	946.16
789.34	1011.7
789.522	937.97
789.703	968.69
789.884	954.35
790.065	874.48
790.246	980.98
790.427	856.05
790.607	946.16
790.788	825.33
790.969	913.39
791.15	780.28
791.331	835.57
791.512	905.2
791.693	845.81
791.874	897.01
792.054	925.68
792.235	894.96
792.416	765.94
792.597	753.65
792.778	827.38
792.958	737.27
793.139	815.09
793.32	790.52
793.5	714.74
793.681	806.9
793.862	827.38
794.042	796.66
794.223	778.23
794.404	708.6
794.584	761.84
794.765	727.03
794.945	712.69
795.126	780.28
795.306	724.98
795.487	745.46
795.667	770.04
795.848	714.74
796.028	684.02
796.209	724.98
796.389	765.94
796.57	696.31
796.75	714.74
796.93	704.5
797.111	624.63
797.291	630.77
797.471	610.29
797.652	698.36
797.832	669.69
798.012	737.27
798.192	559.1
798.373	567.29
798.553	559.1
798.733	671.73
798.913	608.25
799.093	665.59
799.274	575.48
799.454	622.58
799.634	651.25
799.814	684.02
799.994	718.84
800.174	544.76
800.354	632.82
800.534	518.14
800.714	618.49
800.894	583.67
801.074	495.61
801.254	544.76
801.434	460.79
801.614	622.58
801.794	620.53
801.974	1294.32
802.154	643.06
802.334	546.81
802.514	585.72
802.693	561.14
802.873	475.13
803.053	571.38
803.233	495.61
803.413	577.53
803.592	511.99
803.772	505.85
803.952	532.47
804.131	511.99
804.311	534.52
804.491	620.53
804.67	442.36
804.85	471.03
805.03	442.36
805.209	616.44
805.389	524.28
805.568	436.22
805.748	434.17
805.928	421.88
806.107	577.53
806.287	511.99
806.466	464.89
806.646	425.98
806.825	471.03
807.004	425.98
807.184	501.75
807.363	501.75
807.543	559.1
807.722	397.31
807.901	495.61
808.081	475.13
808.26	378.87
808.439	479.22
808.619	428.03
808.798	428.03
808.977	438.27
809.156	434.17
809.336	452.6
809.515	432.12
809.694	446.46
809.873	409.59
810.052	389.11
810.231	528.38
810.411	454.65
810.59	385.02
810.769	380.92
810.948	356.35
811.127	413.69
811.306	286.72
811.485	403.45
811.664	471.03
811.843	387.07
812.022	364.54
812.201	387.07
812.38	434.17
812.559	436.22
812.737	430.07
812.916	405.5
813.095	368.63
813.274	462.84
813.453	362.49
813.632	378.87
813.811	382.97
813.989	327.68
814.168	372.73
814.347	323.58
814.526	372.73
814.704	436.22
814.883	421.88
815.062	372.73
815.24	385.02
815.419	251.9
815.598	362.49
815.776	299
815.955	348.15
816.133	323.58
816.312	411.64
816.49	331.77
816.669	296.96
816.847	387.07
817.026	280.57
817.204	315.39
817.383	299
817.561	280.57
817.74	364.54
817.918	317.44
818.097	315.39
818.275	344.06
818.453	329.72
818.632	296.96
818.81	239.61
818.988	294.91
819.167	256
819.345	358.39
819.523	331.77
819.701	258.04
819.879	282.62
820.058	278.52
820.236	296.96
820.414	278.52
820.592	217.08
820.77	319.48
820.948	249.85
821.127	331.77
821.305	311.29
821.483	296.96
821.661	307.2
821.839	186.37
822.017	315.39
822.195	274.43
822.373	196.61
822.551	288.76
822.729	296.96
822.907	217.08
823.085	305.15
823.262	282.62
823.44	221.18
823.618	288.76
823.796	202.75
823.974	258.04
824.152	249.85
824.329	266.24
824.507	288.76
824.685	294.91
824.863	266.24
825.04	286.72
825.218	299
825.396	311.29
825.574	299
825.751	290.81
825.929	231.42
826.107	151.55
826.284	190.46
826.462	229.37
826.639	133.12
826.817	294.91
826.994	282.62
827.172	165.89
827.349	227.32
827.527	215.04
827.704	233.47
827.882	227.32
828.059	241.66
828.237	247.8
828.414	258.04
828.591	172.03
828.769	225.28
828.946	172.03
829.124	243.71
829.301	233.47
829.478	223.23
829.655	217.08
829.833	159.74
830.01	241.66
830.187	223.23
830.364	274.43
830.542	180.22
830.719	167.93
830.896	163.84
831.073	227.32
831.25	192.51
831.427	159.74
831.604	108.54
831.782	256
831.959	157.69
832.136	184.32
832.313	241.66
832.49	200.7
832.667	200.7
832.844	133.12
833.021	227.32
833.198	159.74
833.374	178.17
833.551	190.46
833.728	194.56
833.905	169.98
834.082	73.73
834.259	172.03
834.436	200.7
834.612	92.16
834.789	212.99
834.966	202.75
835.143	104.45
835.319	114.69
835.496	192.51
835.673	116.73
835.85	192.51
836.026	194.56
836.203	155.65
836.38	212.99
836.556	100.35
836.733	83.97
836.909	204.8
837.086	73.73
837.262	141.31
837.439	98.3
837.616	51.2
837.792	196.61
837.968	114.69
838.145	32.77
838.321	104.45
838.498	194.56
838.674	141.31
838.851	196.61
839.027	98.3
839.203	114.69
839.38	135.17
839.556	124.93
839.732	200.7
839.909	145.41
840.085	225.28
840.261	86.01
840.437	126.97
840.614	184.32
840.79	104.45
840.966	223.23
841.142	102.4
841.318	53.25
841.494	141.31
841.671	143.36
841.847	131.07
842.023	94.21
842.199	129.02
842.375	167.93
842.551	159.74
842.727	38.91
842.903	190.46
843.079	120.83
843.255	139.26
843.431	155.65
843.607	151.55
843.783	81.92
843.959	126.97
844.134	49.15
844.31	143.36
844.486	102.4
844.662	73.73
844.838	124.93
845.013	143.36
845.189	98.3
845.365	120.83
845.541	112.64
845.716	75.77
845.892	172.03
846.068	45.06
846.244	92.16
846.419	145.41
846.595	20.48
846.77	49.15
846.946	83.97
847.122	73.73
847.297	157.69
847.473	122.88
847.648	4.1
847.824	131.07
847.999	55.3
848.175	190.46
848.35	86.01
848.526	145.41
848.701	126.97
848.876	196.61
849.052	139.26
849.227	43.01
849.403	28.67
849.578	69.63
849.753	36.86
849.929	63.49
850.104	67.58
850.279	90.11
850.454	94.21
850.63	73.73
850.805	59.39
850.98	143.36
851.155	67.58
851.33	110.59
851.505	10.24
851.681	53.25
851.856	94.21
852.031	61.44
852.206	61.44
852.381	36.86
852.556	102.4
852.731	51.2
852.906	102.4
853.081	75.77
853.256	122.88
853.431	102.4
853.606	32.77
853.781	32.77
853.956	12.29
854.131	104.45
854.305	118.78
854.48	51.2
854.655	71.68
854.83	59.39
855.005	49.15
855.18	53.25
855.354	53.25
855.529	116.73
855.704	36.86
855.879	77.82
856.053	61.44
856.228	2.05
856.403	4.1
856.577	96.25
856.752	8.19
856.926	12.29
857.101	40.96
857.276	77.82
857.45	26.62
857.625	86.01
857.799	-10.24
857.974	16.38
858.148	8.19
858.323	63.49
858.497	22.53
858.672	12.29
858.846	90.11
859.02	14.34
859.195	53.25
859.369	86.01
859.543	106.49
859.718	69.63
859.892	141.31
860.066	81.92
860.241	73.73
860.415	94.21
860.589	24.58
860.763	90.11
860.938	2.05
861.112	24.58
861.286	67.58
861.46	26.62
861.634	67.58
861.808	61.44
861.982	32.77
862.157	16.38
862.331	88.06
862.505	18.43
862.679	8.19
862.853	75.77
863.027	47.1
863.201	69.63
863.375	61.44
863.549	61.44
863.722	26.62
863.896	59.39
864.07	69.63
864.244	126.97
864.418	47.1
864.592	34.82
864.766	-6.14
864.939	-20.48
865.113	73.73
865.287	49.15
865.461	59.39
865.634	26.62
865.808	75.77
865.982	-10.24
866.156	38.91
866.329	-38.91
866.503	12.29
866.676	61.44
866.85	-18.43
867.024	-40.96
867.197	28.67
867.371	71.68
867.544	20.48
867.718	53.25
867.891	10.24
868.065	38.91
868.238	86.01
868.412	36.86
868.585	-24.58
868.759	-6.14
868.932	-20.48
869.105	-30.72
869.279	-4.1
869.452	-28.67
869.625	20.48
869.799	18.43
869.972	-14.34
870.145	69.63
870.319	28.67
870.492	-28.67
870.665	51.2
870.838	-4.1
871.011	20.48
871.185	61.44
871.358	-22.53
871.531	59.39
871.704	32.77
871.877	22.53
872.05	18.43
872.223	-81.92
872.396	24.58
872.569	2.05
872.742	-40.96
872.915	18.43
873.088	-32.77
873.261	-8.19
873.434	69.63
873.607	12.29
873.78	2.05
873.953	4.1
874.126	65.54
874.299	16.38
874.471	16.38
874.644	65.54
874.817	20.48
874.99	32.77
875.163	100.35
875.335	30.72
875.508	69.63
875.681	139.26
875.853	10.24
876.026	69.63
876.199	-12.29
876.371	61.44
876.544	18.43
876.717	49.15
876.889	-38.91
877.062	61.44
877.234	45.06
877.407	18.43
877.579	6.14
877.752	-8.19
877.924	34.82
878.097	43.01
878.269	12.29
878.442	53.25
878.614	36.86
878.786	36.86
878.959	-34.82
879.131	10.24
879.303	-38.91
879.476	-26.62
879.648	40.96
879.82	34.82
879.993	0
880.165	12.29
880.337	-92.16
880.509	-12.29
880.681	-4.1
880.854	0
881.026	28.67
881.198	83.97
881.37	16.38
881.542	40.96
881.714	-24.58
881.886	8.19
882.058	40.96
882.23	24.58
882.402	30.72
882.574	0
882.746	-69.63
882.918	4.1
883.09	-61.44
883.262	-16.38
883.434	-8.19
883.606	0
883.778	-36.86
883.95	-30.72
884.122	-24.58
884.293	10.24
884.465	-55.3
884.637	51.2
884.809	36.86
884.98	65.54
885.152	-4.1
885.324	75.77
885.496	-43.01
885.667	67.58
885.839	-34.82
886.011	8.19
886.182	-12.29
886.354	36.86
886.525	36.86
886.697	4.1
886.869	6.14
887.04	24.58
887.212	65.54
887.383	61.44
887.555	18.43
887.726	-34.82
887.897	55.3
888.069	98.3
888.24	102.4
888.412	16.38
888.583	-20.48
888.754	45.06
888.926	-49.15
889.097	-32.77
889.268	-14.34
889.44	-20.48
889.611	-28.67
889.782	-71.68
889.953	-36.86
890.125	36.86
890.296	51.2
890.467	-49.15
890.638	6.14
890.809	20.48
890.98	-55.3
891.151	71.68
891.323	96.25
891.494	10.24
891.665	0
891.836	-4.1
892.007	92.16
892.178	-86.01
892.349	45.06
892.52	2.05
892.691	77.82
892.862	24.58
893.032	-55.3
893.203	-71.68
893.374	65.54
893.545	77.82
893.716	-81.92
893.887	45.06
894.057	-81.92
894.228	36.86
894.399	-45.06
894.57	-20.48
894.74	2.05
894.911	14.34
895.082	-4.1
895.253	63.49
895.423	-45.06
895.594	45.06
895.764	51.2
895.935	16.38
896.106	47.1
896.276	18.43
896.447	12.29
896.617	4.1
896.788	-98.3
896.958	-71.68
897.129	6.14
897.299	28.67
897.47	110.59
897.64	14.34
897.81	32.77
897.981	14.34
898.151	-28.67
898.322	36.86
898.492	16.38
898.662	-12.29
898.832	0
899.003	22.53
899.173	-6.14
899.343	0
899.513	-77.82
