Data from USB4F104151__99__11-32-16-300.txt Node

Date: Fri Mar 14 11:32:16 EDT 2025
User: louis
Spectrometer: USB4F10415
Trigger mode: 4
Integration Time (sec): 5.000000E-2
Scans to average: 1
Electric dark correction enabled: true
Nonlinearity correction enabled: false
Boxcar width: 0
XAxis mode: Wavelengths
Number of Pixels in Spectrum: 3648
>>>>>Begin Spectral Data<<<<<
178.204	-183.98
178.424	-183.98
178.644	-183.98
178.864	-181.93
179.084	-224.94
179.304	4.44
179.524	-36.52
179.744	10.58
179.964	16.73
180.184	2.39
180.404	78.16
180.624	-77.48
180.844	-13.99
181.064	0.34
181.283	8.53
181.503	41.3
181.723	-34.47
181.943	-13.99
182.163	135.51
182.383	-22.19
182.602	35.16
182.822	110.93
183.042	59.73
183.262	-63.15
183.482	-50.86
183.701	49.49
183.921	4.44
184.141	-3.75
184.361	69.97
184.58	78.16
184.8	8.53
185.02	78.16
185.239	119.12
185.459	-32.43
185.679	47.44
185.898	10.58
186.118	53.59
186.338	10.58
186.557	43.35
186.777	-7.85
186.997	-3.75
187.216	0.34
187.436	131.41
187.655	72.02
187.875	74.07
188.095	65.88
188.314	43.35
188.534	108.88
188.753	-3.75
188.973	65.88
189.192	76.12
189.412	4.44
189.631	33.11
189.851	41.3
190.07	41.3
190.29	-52.91
190.509	-28.33
190.729	51.54
190.948	47.44
191.168	119.12
191.387	57.68
191.607	16.73
191.826	76.12
192.045	-65.19
192.265	-30.38
192.484	29.01
192.704	8.53
192.923	-44.71
193.142	82.26
193.362	-3.75
193.581	-3.75
193.8	92.5
194.02	20.82
194.239	-77.48
194.458	26.96
194.678	16.73
194.897	4.44
195.116	-5.8
195.335	80.21
195.555	29.01
195.774	10.58
195.993	61.78
196.212	67.92
196.432	29.01
196.651	43.35
196.87	20.82
197.089	151.89
197.308	37.2
197.528	94.55
197.747	-61.1
197.966	-16.04
198.185	104.79
198.404	18.77
198.623	35.16
198.842	37.2
199.062	82.26
199.281	0.34
199.5	53.59
199.719	2.39
199.938	45.4
200.157	51.54
200.376	-3.75
200.595	168.27
200.814	61.78
201.033	2.39
201.252	41.3
201.471	-5.8
201.69	41.3
201.909	65.88
202.128	45.4
202.347	35.16
202.566	35.16
202.785	61.78
203.004	-20.14
203.223	104.79
203.442	96.6
203.661	-28.33
203.879	35.16
204.098	59.73
204.317	49.49
204.536	115.03
204.755	45.4
204.974	94.55
205.193	-36.52
205.411	59.73
205.63	90.45
205.849	14.68
206.068	31.06
206.287	0.34
206.505	6.49
206.724	-42.67
206.943	-7.85
207.162	18.77
207.381	33.11
207.599	2.39
207.818	16.73
208.037	41.3
208.255	33.11
208.474	88.4
208.693	29.01
208.911	18.77
209.13	29.01
209.349	41.3
209.567	4.44
209.786	0.34
210.005	26.96
210.223	24.92
210.442	-1.71
210.661	31.06
210.879	69.97
211.098	24.92
211.316	84.31
211.535	86.36
211.753	-3.75
211.972	53.59
212.191	12.63
212.409	8.53
212.628	10.58
212.846	18.77
213.065	26.96
213.283	112.98
213.502	-44.71
213.72	12.63
213.938	49.49
214.157	39.25
214.375	37.2
214.594	29.01
214.812	43.35
215.031	37.2
215.249	4.44
215.467	33.11
215.686	37.2
215.904	104.79
216.122	45.4
216.341	20.82
216.559	63.83
216.778	12.63
216.996	84.31
217.214	-122.54
217.432	43.35
217.651	57.68
217.869	29.01
218.087	16.73
218.306	84.31
218.524	80.21
218.742	-40.62
218.96	133.46
219.179	-30.38
219.397	33.11
219.615	67.92
219.833	37.2
220.051	33.11
220.27	69.97
220.488	2.39
220.706	49.49
220.924	51.54
221.142	-1.71
221.36	12.63
221.578	-3.75
221.796	2.39
222.015	20.82
222.233	110.93
222.451	-9.9
222.669	22.87
222.887	45.4
223.105	-26.28
223.323	84.31
223.541	20.82
223.759	0.34
223.977	-20.14
224.195	117.08
224.413	45.4
224.631	26.96
224.849	-20.14
225.067	135.51
225.285	-13.99
225.503	8.53
225.721	-112.3
225.939	10.58
226.157	-26.28
226.375	82.26
226.592	-20.14
226.81	2.39
227.028	35.16
227.246	-3.75
227.464	33.11
227.682	18.77
227.9	2.39
228.117	39.25
228.335	31.06
228.553	-42.67
228.771	45.4
228.989	82.26
229.206	65.88
229.424	-13.99
229.642	47.44
229.86	35.16
230.077	-38.57
230.295	20.82
230.513	-3.75
230.731	47.44
230.948	41.3
231.166	102.74
231.384	51.54
231.601	12.63
231.819	-1.71
232.037	26.96
232.254	12.63
232.472	-30.38
232.689	20.82
232.907	10.58
233.125	-11.95
233.342	39.25
233.56	67.92
233.777	31.06
233.995	51.54
234.213	39.25
234.43	8.53
234.648	63.83
234.865	16.73
235.083	10.58
235.3	24.92
235.518	24.92
235.735	72.02
235.953	76.12
236.17	-54.95
236.388	-44.71
236.605	47.44
236.822	72.02
237.04	-1.71
237.257	29.01
237.475	53.59
237.692	4.44
237.909	49.49
238.127	45.4
238.344	33.11
238.562	33.11
238.779	-44.71
238.996	-11.95
239.214	-13.99
239.431	61.78
239.648	8.53
239.865	33.11
240.083	57.68
240.3	22.87
240.517	-77.48
240.735	96.6
240.952	131.41
241.169	37.2
241.386	41.3
241.603	2.39
241.821	-5.8
242.038	4.44
242.255	92.5
242.472	-5.8
242.689	76.12
242.907	20.82
243.124	31.06
243.341	35.16
243.558	-104.11
243.775	45.4
243.992	43.35
244.209	37.2
244.426	86.36
244.643	135.51
244.86	-20.14
245.078	59.73
245.295	29.01
245.512	61.78
245.729	-13.99
245.946	-20.14
246.163	29.01
246.38	-38.57
246.597	-38.57
246.814	20.82
247.031	61.78
247.248	57.68
247.464	12.63
247.681	-63.15
247.898	-24.23
248.115	51.54
248.332	-1.71
248.549	57.68
248.766	141.65
248.983	45.4
249.2	-44.71
249.417	80.21
249.633	88.4
249.85	4.44
250.067	33.11
250.284	16.73
250.501	-7.85
250.717	20.82
250.934	24.92
251.151	12.63
251.368	-11.95
251.585	119.12
251.801	59.73
252.018	-40.62
252.235	-26.28
252.451	-83.63
252.668	-7.85
252.885	67.92
253.102	94.55
253.318	-16.04
253.535	20.82
253.752	-13.99
253.968	20.82
254.185	16.73
254.401	37.2
254.618	-5.8
254.835	16.73
255.051	106.84
255.268	4.44
255.484	12.63
255.701	-63.15
255.917	102.74
256.134	39.25
256.351	-20.14
256.567	41.3
256.784	6.49
257	-18.09
257.217	41.3
257.433	24.92
257.65	84.31
257.866	98.64
258.082	-81.58
258.299	26.96
258.515	8.53
258.732	-52.91
258.948	18.77
259.165	53.59
259.381	4.44
259.597	26.96
259.814	-48.81
260.03	-22.19
260.246	-22.19
260.463	14.68
260.679	74.07
260.895	18.77
261.112	-38.57
261.328	2.39
261.544	0.34
261.761	121.17
261.977	47.44
262.193	4.44
262.409	-13.99
262.626	24.92
262.842	20.82
263.058	35.16
263.274	-22.19
263.49	18.77
263.707	26.96
263.923	12.63
264.139	6.49
264.355	2.39
264.571	18.77
264.787	2.39
265.004	84.31
265.22	26.96
265.436	33.11
265.652	-22.19
265.868	-16.04
266.084	16.73
266.3	43.35
266.516	-44.71
266.732	0.34
266.948	67.92
267.164	10.58
267.38	6.49
267.596	22.87
267.812	24.92
268.028	49.49
268.244	-3.75
268.46	2.39
268.676	8.53
268.892	16.73
269.108	-52.91
269.324	24.92
269.54	31.06
269.756	29.01
269.972	-50.86
270.188	-3.75
270.403	-42.67
270.619	33.11
270.835	51.54
271.051	78.16
271.267	51.54
271.483	12.63
271.698	2.39
271.914	94.55
272.13	115.03
272.346	10.58
272.562	53.59
272.777	80.21
272.993	-5.8
273.209	-11.95
273.425	37.2
273.64	-44.71
273.856	-20.14
274.072	82.26
274.287	-18.09
274.503	51.54
274.719	-5.8
274.934	10.58
275.15	-48.81
275.366	47.44
275.581	-24.23
275.797	10.58
276.012	41.3
276.228	-20.14
276.444	78.16
276.659	76.12
276.875	16.73
277.09	-22.19
277.306	-22.19
277.521	37.2
277.737	37.2
277.952	96.6
278.168	-3.75
278.383	31.06
278.599	86.36
278.814	-24.23
279.03	90.45
279.245	59.73
279.461	-1.71
279.676	47.44
279.892	-1.71
280.107	12.63
280.322	31.06
280.538	67.92
280.753	43.35
280.969	26.96
281.184	-28.33
281.399	29.01
281.615	12.63
281.83	18.77
282.045	51.54
282.26	14.68
282.476	139.6
282.691	26.96
282.906	24.92
283.122	2.39
283.337	-69.29
283.552	2.39
283.767	-13.99
283.983	35.16
284.198	-44.71
284.413	82.26
284.628	-46.76
284.843	78.16
285.058	45.4
285.274	29.01
285.489	51.54
285.704	67.92
285.919	26.96
286.134	33.11
286.349	63.83
286.564	20.82
286.779	90.45
286.995	55.64
287.21	41.3
287.425	35.16
287.64	-30.38
287.855	90.45
288.07	4.44
288.285	59.73
288.5	16.73
288.715	41.3
288.93	41.3
289.145	41.3
289.36	-20.14
289.575	6.49
289.79	16.73
290.004	47.44
290.219	94.55
290.434	-16.04
290.649	-1.71
290.864	-3.75
291.079	-48.81
291.294	43.35
291.509	90.45
291.724	-11.95
291.938	-5.8
292.153	39.25
292.368	12.63
292.583	98.64
292.798	16.73
293.012	8.53
293.227	29.01
293.442	12.63
293.657	51.54
293.871	61.78
294.086	43.35
294.301	67.92
294.516	41.3
294.73	67.92
294.945	59.73
295.16	57.68
295.374	67.92
295.589	55.64
295.804	26.96
296.018	8.53
296.233	47.44
296.447	0.34
296.662	53.59
296.877	61.78
297.091	86.36
297.306	-16.04
297.52	22.87
297.735	51.54
297.949	-9.9
298.164	35.16
298.378	43.35
298.593	12.63
298.807	-28.33
299.022	88.4
299.236	47.44
299.451	-3.75
299.665	-16.04
299.88	-18.09
300.094	8.53
300.309	-36.52
300.523	0.34
300.737	41.3
300.952	10.58
301.166	4.44
301.381	61.78
301.595	112.98
301.809	31.06
302.024	45.4
302.238	51.54
302.452	67.92
302.667	41.3
302.881	-26.28
303.095	69.97
303.309	82.26
303.524	-16.04
303.738	10.58
303.952	33.11
304.166	-34.47
304.381	-79.53
304.595	49.49
304.809	45.4
305.023	4.44
305.237	18.77
305.452	14.68
305.666	67.92
305.88	10.58
306.094	26.96
306.308	100.69
306.522	2.39
306.736	61.78
306.95	18.77
307.164	16.73
307.379	20.82
307.593	86.36
307.807	65.88
308.021	69.97
308.235	20.82
308.449	-50.86
308.663	-38.57
308.877	33.11
309.091	51.54
309.305	14.68
309.519	-34.47
309.733	125.27
309.947	14.68
310.161	78.16
310.374	-20.14
310.588	88.4
310.802	18.77
311.016	-67.24
311.23	-11.95
311.444	-18.09
311.658	-3.75
311.872	8.53
312.085	76.12
312.299	-9.9
312.513	47.44
312.727	24.92
312.941	-57
313.154	20.82
313.368	6.49
313.582	18.77
313.796	49.49
314.009	24.92
314.223	86.36
314.437	61.78
314.651	-36.52
314.864	67.92
315.078	104.79
315.292	61.78
315.505	43.35
315.719	51.54
315.933	33.11
316.146	-52.91
316.36	-91.82
316.573	-9.9
316.787	78.16
317.001	33.11
317.214	-24.23
317.428	63.83
317.641	-11.95
317.855	69.97
318.068	55.64
318.282	14.68
318.495	170.32
318.709	-11.95
318.922	69.97
319.136	94.55
319.349	86.36
319.563	-52.91
319.776	4.44
319.99	18.77
320.203	59.73
320.417	-30.38
320.63	51.54
320.843	141.65
321.057	53.59
321.27	-7.85
321.483	35.16
321.697	90.45
321.91	72.02
322.124	29.01
322.337	47.44
322.55	37.2
322.763	18.77
322.977	-7.85
323.19	-13.99
323.403	88.4
323.617	94.55
323.83	16.73
324.043	84.31
324.256	88.4
324.469	-63.15
324.683	69.97
324.896	-22.19
325.109	41.3
325.322	24.92
325.535	98.64
325.748	26.96
325.962	41.3
326.175	-11.95
326.388	45.4
326.601	12.63
326.814	16.73
327.027	78.16
327.24	92.5
327.453	14.68
327.666	12.63
327.879	18.77
328.092	55.64
328.305	53.59
328.518	-7.85
328.731	47.44
328.944	-3.75
329.157	-20.14
329.37	80.21
329.583	98.64
329.796	29.01
330.009	33.11
330.222	94.55
330.435	59.73
330.648	-32.43
330.861	24.92
331.073	61.78
331.286	-3.75
331.499	41.3
331.712	35.16
331.925	35.16
332.138	31.06
332.35	39.25
332.563	67.92
332.776	-3.75
332.989	-3.75
333.202	-7.85
333.414	35.16
333.627	67.92
333.84	94.55
334.053	37.2
334.265	69.97
334.478	-40.62
334.691	-13.99
334.903	8.53
335.116	-30.38
335.329	18.77
335.541	94.55
335.754	67.92
335.966	4.44
336.179	14.68
336.392	24.92
336.604	33.11
336.817	78.16
337.029	2.39
337.242	12.63
337.454	53.59
337.667	12.63
337.88	104.79
338.092	-22.19
338.305	47.44
338.517	-30.38
338.729	55.64
338.942	115.03
339.154	26.96
339.367	45.4
339.579	96.6
339.792	-16.04
340.004	-1.71
340.217	41.3
340.429	84.31
340.641	-13.99
340.854	-11.95
341.066	-20.14
341.278	84.31
341.491	51.54
341.703	-67.24
341.915	12.63
342.128	18.77
342.34	53.59
342.552	-42.67
342.764	18.77
342.977	4.44
343.189	43.35
343.401	-3.75
343.613	12.63
343.826	59.73
344.038	-28.33
344.25	67.92
344.462	-13.99
344.674	69.97
344.886	86.36
345.099	61.78
345.311	61.78
345.523	61.78
345.735	-28.33
345.947	84.31
346.159	12.63
346.371	16.73
346.583	-28.33
346.795	102.74
347.007	24.92
347.219	67.92
347.431	20.82
347.643	88.4
347.855	-13.99
348.067	31.06
348.279	24.92
348.491	16.73
348.703	12.63
348.915	14.68
349.127	0.34
349.339	61.78
349.551	-57
349.763	55.64
349.975	98.64
350.187	92.5
350.399	117.08
350.61	37.2
350.822	16.73
351.034	2.39
351.246	-28.33
351.458	-7.85
351.669	6.49
351.881	-1.71
352.093	78.16
352.305	127.32
352.517	35.16
352.728	102.74
352.94	22.87
353.152	96.6
353.363	-42.67
353.575	74.07
353.787	18.77
353.999	49.49
354.21	106.84
354.422	-61.1
354.633	61.78
354.845	86.36
355.057	-48.81
355.268	57.68
355.48	63.83
355.692	-28.33
355.903	96.6
356.115	106.84
356.326	-7.85
356.538	55.64
356.749	84.31
356.961	98.64
357.172	37.2
357.384	-3.75
357.595	45.4
357.807	24.92
358.018	0.34
358.23	14.68
358.441	145.75
358.653	117.08
358.864	24.92
359.075	-16.04
359.287	-5.8
359.498	67.92
359.709	65.88
359.921	37.2
360.132	61.78
360.344	-57
360.555	49.49
360.766	4.44
360.977	12.63
361.189	41.3
361.4	29.01
361.611	-11.95
361.823	184.66
362.034	4.44
362.245	47.44
362.456	18.77
362.667	45.4
362.879	29.01
363.09	6.49
363.301	98.64
363.512	63.83
363.723	-38.57
363.935	8.53
364.146	61.78
364.357	55.64
364.568	33.11
364.779	37.2
364.99	65.88
365.201	-3.75
365.412	18.77
365.623	16.73
365.834	20.82
366.045	4.44
366.256	84.31
366.467	4.44
366.678	-28.33
366.889	57.68
367.1	49.49
367.311	90.45
367.522	-7.85
367.733	4.44
367.944	29.01
368.155	20.82
368.366	29.01
368.577	86.36
368.788	123.22
368.999	-44.71
369.209	4.44
369.42	78.16
369.631	139.6
369.842	20.82
370.053	12.63
370.264	55.64
370.474	65.88
370.685	53.59
370.896	16.73
371.107	20.82
371.317	51.54
371.528	76.12
371.739	117.08
371.95	115.03
372.16	45.4
372.371	47.44
372.582	-3.75
372.792	41.3
373.003	41.3
373.214	16.73
373.424	16.73
373.635	29.01
373.846	-11.95
374.056	0.34
374.267	143.7
374.477	20.82
374.688	-24.23
374.898	92.5
375.109	12.63
375.319	65.88
375.53	57.68
375.74	26.96
375.951	29.01
376.161	33.11
376.372	112.98
376.582	43.35
376.793	94.55
377.003	-3.75
377.214	4.44
377.424	43.35
377.635	37.2
377.845	74.07
378.055	106.84
378.266	0.34
378.476	18.77
378.686	49.49
378.897	78.16
379.107	-38.57
379.317	22.87
379.528	-26.28
379.738	65.88
379.948	57.68
380.158	-13.99
380.369	53.59
380.579	84.31
380.789	53.59
380.999	8.53
381.21	59.73
381.42	86.36
381.63	-24.23
381.84	110.93
382.05	51.54
382.261	43.35
382.471	63.83
382.681	24.92
382.891	37.2
383.101	76.12
383.311	-30.38
383.521	18.77
383.731	82.26
383.941	121.17
384.151	-3.75
384.361	4.44
384.571	41.3
384.781	61.78
384.991	16.73
385.201	112.98
385.411	29.01
385.621	18.77
385.831	4.44
386.041	63.83
386.251	-11.95
386.461	-5.8
386.671	96.6
386.881	49.49
387.091	-63.15
387.301	57.68
387.511	53.59
387.72	63.83
387.93	41.3
388.14	-13.99
388.35	24.92
388.56	117.08
388.769	115.03
388.979	84.31
389.189	37.2
389.399	51.54
389.609	57.68
389.818	61.78
390.028	67.92
390.238	29.01
390.447	-30.38
390.657	98.64
390.867	92.5
391.076	18.77
391.286	110.93
391.496	43.35
391.705	26.96
391.915	123.22
392.125	94.55
392.334	102.74
392.544	84.31
392.753	78.16
392.963	53.59
393.172	14.68
393.382	22.87
393.591	143.7
393.801	-18.09
394.01	59.73
394.22	16.73
394.429	86.36
394.639	39.25
394.848	121.17
395.058	2.39
395.267	100.69
395.477	69.97
395.686	37.2
395.895	102.74
396.105	123.22
396.314	65.88
396.524	37.2
396.733	69.97
396.942	92.5
397.152	129.36
397.361	133.46
397.57	139.6
397.78	90.45
397.989	20.82
398.198	86.36
398.407	100.69
398.617	102.74
398.826	53.59
399.035	39.25
399.244	108.88
399.453	86.36
399.663	-1.71
399.872	61.78
400.081	49.49
400.29	51.54
400.499	-24.23
400.708	135.51
400.917	98.64
401.127	10.58
401.336	51.54
401.545	129.36
401.754	63.83
401.963	137.56
402.172	94.55
402.381	74.07
402.59	29.01
402.799	86.36
403.008	69.97
403.217	98.64
403.426	115.03
403.635	94.55
403.844	98.64
404.053	61.78
404.262	53.59
404.471	168.27
404.68	149.84
404.888	84.31
405.097	65.88
405.306	92.5
405.515	162.13
405.724	86.36
405.933	133.46
406.142	108.88
406.35	110.93
406.559	133.46
406.768	110.93
406.977	229.71
407.185	213.33
407.394	168.27
407.603	160.08
407.812	215.38
408.02	182.61
408.229	137.56
408.438	104.79
408.646	78.16
408.855	205.14
409.064	254.29
409.272	207.19
409.481	282.96
409.69	201.04
409.898	110.93
410.107	242
410.315	186.71
410.524	317.78
410.733	192.85
410.941	237.91
411.15	278.87
411.358	215.38
411.567	346.45
411.775	313.68
411.984	334.16
412.192	291.15
412.401	346.45
412.609	422.22
412.818	389.46
413.026	348.5
413.234	350.54
413.443	373.07
413.651	362.83
413.86	373.07
414.068	459.09
414.276	532.81
414.485	442.7
414.693	512.33
414.901	600.4
415.11	551.24
415.318	522.57
415.526	520.53
415.734	504.14
415.943	508.24
416.151	571.72
416.359	594.25
416.567	618.83
416.776	614.73
416.984	700.75
417.192	747.85
417.4	698.7
417.608	684.36
417.817	702.79
418.025	776.52
418.233	827.72
418.441	770.38
418.649	837.96
418.857	897.35
419.065	1075.52
419.273	981.32
419.481	934.22
419.689	999.75
419.897	1048.9
420.105	1065.29
420.313	1167.68
420.521	1206.59
420.729	1175.88
420.937	1147.2
421.145	1272.13
421.353	1261.89
421.561	1384.77
421.769	1347.9
421.977	1427.78
422.185	1466.69
422.393	1585.47
422.601	1708.35
422.809	1593.66
423.017	1593.66
423.224	1734.97
423.432	1763.64
423.64	1761.59
423.848	1976.63
424.056	1755.45
424.263	1947.96
424.471	1970.49
424.679	2040.12
424.887	2113.85
425.094	2128.18
425.302	2380.08
425.51	2347.31
425.718	2418.99
425.925	2382.13
426.133	2525.49
426.341	2785.58
426.548	2797.87
426.756	2812.2
426.964	2748.72
427.171	3017
427.379	3043.62
427.586	3074.34
427.794	3217.7
428.001	3424.55
428.209	3412.26
428.417	3445.02
428.624	3764.51
428.832	3698.97
429.039	3641.63
429.247	3629.34
429.454	3989.78
429.662	4280.6
429.869	3975.45
430.076	4161.81
430.284	4122.9
430.491	4374.8
430.699	4538.64
430.906	4604.18
431.114	4643.09
431.321	4815.12
431.528	4890.89
431.736	5130.5
431.943	5331.2
432.15	5239.05
432.358	5361.92
432.565	5687.55
432.772	5718.27
432.979	5933.31
433.187	6115.58
433.394	5968.12
433.601	6424.82
433.808	6332.66
434.016	6408.44
434.223	6725.87
434.43	7121.13
434.637	6959.34
434.844	7270.63
435.052	7594.21
435.259	7420.13
435.466	7567.59
435.673	7457
435.88	7930.08
436.087	8368.34
436.294	8237.27
436.501	8106.2
436.708	8224.98
436.915	8693.97
437.122	9015.5
437.329	8880.33
437.537	9095.37
437.743	9418.95
437.95	9337.03
438.157	9867.45
438.364	10143.93
438.571	9955.52
438.778	10213.56
438.985	10856.62
439.192	10725.55
439.399	11090.09
439.606	10944.69
439.813	11356.33
440.02	11917.47
440.227	11770.02
440.433	11802.79
440.64	11999.39
440.847	11917.47
441.054	12441.75
441.261	13058.19
441.467	13150.35
441.674	13324.43
441.881	13801.6
442.088	13801.6
442.294	13588.61
442.501	13936.77
442.708	14289.02
442.914	14723.19
443.121	15333.48
443.328	15005.81
443.534	16167.01
443.741	15685.73
443.948	15200.37
444.154	16566.36
444.361	16492.63
444.568	16466.01
444.774	16611.42
444.981	16885.84
445.187	17094.74
445.394	18030.66
445.6	17633.35
445.807	19220.53
446.013	18634.81
446.22	18925.62
446.426	19613.74
446.633	19583.02
446.839	20449.31
447.046	19402.8
447.252	20588.57
447.459	20791.32
447.665	20699.16
447.871	21467.15
448.078	22458.37
448.284	21479.44
448.491	21991.43
448.697	22843.38
448.903	23093.24
449.11	23486.45
449.316	23078.9
449.522	23451.63
449.728	24127.46
449.935	24082.41
450.141	24096.74
450.347	24733.66
450.553	23928.81
450.76	24166.37
450.966	25286.61
451.172	24504.29
451.378	25122.77
451.584	25014.23
451.791	25530.32
451.997	25280.47
452.203	25802.7
452.409	25937.87
452.615	25548.75
452.821	24821.72
453.027	24360.93
453.233	25638.86
453.44	24694.75
453.646	24854.49
453.852	24889.31
454.058	25288.66
454.264	24829.91
454.47	24999.9
454.676	24664.03
454.882	24975.32
455.088	23013.37
455.294	23396.34
455.5	23959.53
455.705	24039.4
455.911	23113.72
456.117	22552.57
456.323	22384.64
456.529	21104.66
456.735	21747.72
456.941	21581.84
457.147	21116.95
457.352	20346.91
457.558	20228.13
457.764	20082.72
457.97	19898.41
458.176	19427.37
458.381	19193.9
458.587	18524.22
458.793	18651.19
458.999	17471.56
459.204	18761.78
459.41	18284.61
459.616	17236.05
459.821	17027.15
460.027	17166.42
460.233	16558.17
460.438	15796.32
460.644	16087.14
460.85	15413.35
461.055	14819.44
461.261	15067.25
461.466	13873.28
461.672	13529.22
461.878	14323.83
462.083	13574.28
462.289	13097.1
462.494	13088.91
462.7	12488.85
462.905	11942.05
463.111	12421.27
463.316	12728.47
463.522	12341.4
463.727	12406.94
463.932	12062.88
464.138	12146.84
464.343	12290.2
464.549	11776.16
464.754	12490.9
464.959	12023.97
465.165	12048.54
465.37	11679.91
465.575	11280.55
465.781	11569.32
465.986	11733.15
466.191	11344.04
466.397	11114.67
466.602	10512.56
466.807	11047.08
467.012	11149.48
467.218	11018.41
467.423	10811.57
467.628	10580.15
467.833	11227.31
468.038	11008.17
468.244	10655.92
468.449	10942.64
468.654	10584.24
468.859	10563.76
469.064	10502.33
469.269	10082.49
469.474	9992.38
469.679	10381.49
469.885	9988.28
470.09	10127.55
470.295	10059.96
470.5	9879.74
470.705	9939.13
470.91	9621.7
471.115	9408.71
471.32	9785.54
471.525	9443.53
471.73	9441.48
471.935	9406.66
472.139	9050.32
472.344	9165
472.549	9173.19
472.754	9048.27
472.959	8935.63
473.164	8638.67
473.369	8761.55
473.574	8859.85
473.778	8835.28
473.983	8587.47
474.188	8503.51
474.393	8179.93
474.598	8280.28
474.802	8102.11
475.007	8134.87
475.212	8089.82
475.417	8073.43
475.621	7805.15
475.826	7825.63
476.031	7868.64
476.235	7719.14
476.44	7796.96
476.645	7581.92
476.849	7612.64
477.054	7284.97
477.259	7377.12
477.463	7399.65
477.668	7102.7
477.872	7244.01
478.077	7026.92
478.282	6926.57
478.486	6861.04
478.691	6844.65
478.895	6889.71
479.1	6807.79
479.304	6805.74
479.509	6867.18
479.713	6791.41
479.918	6660.34
480.122	6484.21
480.326	6590.7
480.531	6373.62
480.735	6447.35
480.94	6516.98
481.144	6662.38
481.348	6361.33
481.553	6451.44
481.757	6088.95
481.961	6332.66
482.166	6385.91
482.37	6310.13
482.574	6359.28
482.778	6435.06
482.983	6437.11
483.187	6281.46
483.391	6492.4
483.595	6252.79
483.8	6213.88
484.004	6357.24
484.208	6342.9
484.412	6355.19
484.616	6242.55
484.821	6146.3
485.025	6199.54
485.229	6310.13
485.433	6379.76
485.637	6295.8
485.841	6211.83
486.045	6168.82
486.249	6412.53
486.453	6377.72
486.657	6072.57
486.861	6170.87
487.065	6191.35
487.269	6230.26
487.473	5966.07
487.677	6287.61
487.881	6447.35
488.085	6328.56
488.289	6316.28
488.493	6228.21
488.697	6400.24
488.901	6363.38
489.105	6281.46
489.309	6297.85
489.512	6463.73
489.716	6400.24
489.92	6443.25
490.124	6437.11
490.328	6363.38
490.531	6349.04
490.735	6430.96
490.939	6648.05
491.143	6455.54
491.346	6482.16
491.55	6533.36
491.754	6521.07
491.958	6623.47
492.161	6615.28
492.365	6725.87
492.569	6713.58
492.772	6611.18
492.976	6605.04
493.18	6779.12
493.383	6877.42
493.587	6664.43
493.79	6910.19
493.994	6768.88
494.197	6916.33
494.401	6983.91
494.605	7012.59
494.808	7078.12
495.012	6940.91
495.215	7162.09
495.419	7381.22
495.622	7125.22
495.825	7540.96
496.029	7229.67
496.232	7547.11
496.436	7389.41
496.639	7760.09
496.843	7450.85
497.046	7745.76
497.249	7571.68
497.453	7712.99
497.656	7825.63
497.859	7860.45
498.063	7975.13
498.266	8224.98
498.469	8245.46
498.673	8175.83
498.876	8358.1
499.079	8157.4
499.282	8478.93
499.485	8579.28
499.689	8698.06
499.892	8878.29
500.095	8763.6
500.298	9007.31
500.501	8743.12
500.705	9081.03
500.908	9400.52
501.111	9402.57
501.314	9447.62
501.517	9789.63
501.72	9801.92
501.923	9629.89
502.126	9914.56
502.329	10047.68
502.532	10254.52
502.735	10160.31
502.938	10326.2
503.141	10473.65
503.344	10473.65
503.547	10696.88
503.75	10799.28
503.953	10801.33
504.156	10965.17
504.359	11118.76
504.562	10778.8
504.765	11634.85
504.968	11530.41
505.17	11471.01
505.373	11661.48
505.576	11733.15
505.779	11923.62
505.982	11890.85
506.185	12355.74
506.387	12492.95
506.59	12320.92
506.793	12750.99
506.996	12548.25
507.198	13025.42
507.401	12843.15
507.604	12970.13
507.807	13406.34
508.009	13578.37
508.212	13357.19
508.415	13897.86
508.617	14043.26
508.82	13695.11
509.022	13912.19
509.225	14250.11
509.428	14274.68
509.63	14678.13
509.833	14485.62
510.035	14999.66
510.238	14897.27
510.44	15249.52
510.643	15138.93
510.845	15323.24
511.048	15181.93
511.25	15786.08
511.453	15609.96
511.655	16449.63
511.858	16083.04
512.06	16302.17
512.262	16234.59
512.465	16257.12
512.667	16527.45
512.87	17084.5
513.072	16947.28
513.274	17244.24
513.477	17559.63
513.679	17713.22
513.881	17823.81
514.084	18184.26
514.286	18004.03
514.488	18210.88
514.69	18567.23
514.893	18692.15
515.095	18901.04
515.297	19017.78
515.499	19001.4
515.701	19058.74
515.904	19693.61
516.106	19630.12
516.308	20097.06
516.51	20238.37
516.712	20580.38
516.914	20482.08
517.116	20965.4
517.318	20776.98
517.52	21352.46
517.722	21266.45
517.925	21510.16
518.127	21886.98
518.329	21866.5
518.531	21960.71
518.733	22525.95
518.935	22786.04
519.136	23042.04
519.338	23121.91
519.54	23218.16
519.742	23390.19
519.944	23713.77
520.146	24000.49
520.348	24215.52
520.55	24569.82
520.752	24653.79
520.954	25130.97
521.155	24788.96
521.357	25262.04
521.559	25472.98
521.761	25831.37
521.963	25669.58
522.164	26359.75
522.366	26343.36
522.568	26535.87
522.77	27043.77
522.971	27070.39
523.173	27113.4
523.375	27512.75
523.576	27826.09
523.778	27914.16
523.98	27826.09
524.181	28546.98
524.383	28614.56
524.584	29091.74
524.786	28778.4
524.988	28878.75
525.189	29345.69
525.391	29699.98
525.592	29896.59
525.794	30203.78
525.995	30230.41
526.197	30052.23
526.398	30607.23
526.6	30562.18
526.801	30855.04
527.003	31055.74
527.204	30848.89
527.406	31723.38
527.607	31627.12
527.808	31684.47
528.01	31389.56
528.211	31645.55
528.412	32569.19
528.614	32616.29
528.815	32497.51
529.016	32796.51
529.218	32464.74
529.419	32857.95
529.62	32896.86
529.822	33109.85
530.023	33142.62
530.224	33232.73
530.425	33275.74
530.626	33333.08
530.828	33359.7
531.029	34150.22
531.23	33677.14
531.431	33933.14
531.632	34133.84
531.833	34199.37
532.035	34559.81
532.236	34461.51
532.437	34621.25
532.638	34150.22
532.839	34441.03
533.04	34608.97
533.241	34117.45
533.442	35157.82
533.643	34795.33
533.844	34811.71
534.045	35315.51
534.246	34651.97
534.447	34969.41
534.648	35227.45
534.849	35202.88
535.05	35100.48
535.251	35534.65
535.451	34944.83
535.652	35465.02
535.853	34944.83
536.054	35268.41
536.255	35520.31
536.456	35444.54
536.657	35946.29
536.857	35374.91
537.058	35436.34
537.259	35862.32
537.46	35827.51
537.66	36005.68
537.861	36036.4
538.062	35591.99
538.263	35723.06
538.463	35753.78
538.664	35880.75
538.865	35876.66
539.065	35553.08
539.266	35510.07
539.466	35944.24
539.667	35585.85
539.868	35833.65
540.068	35575.61
540.269	35501.88
540.469	35919.67
540.67	35706.68
540.87	35553.08
541.071	35297.08
541.271	35911.47
541.472	35379
541.672	35878.71
541.873	35632.95
542.073	35233.6
542.274	36020.02
542.474	35821.36
542.675	35764.02
542.875	36149.04
543.075	35700.53
543.276	35186.49
543.476	36173.61
543.676	35751.73
543.877	35727.16
544.077	36020.02
544.277	35954.48
544.478	35671.86
544.678	35970.86
544.878	35571.51
545.078	35610.42
545.279	35759.92
545.479	35751.73
545.679	35964.72
545.879	36132.65
546.079	36085.55
546.28	35847.99
546.48	35548.98
546.68	36020.02
546.88	35641.14
547.08	35866.42
547.28	35878.71
547.48	35739.44
547.68	35723.06
547.88	35323.71
548.081	35964.72
548.281	35401.53
548.481	35559.22
548.681	35591.99
548.881	35766.07
549.081	35563.32
549.28	35661.62
549.48	36126.51
549.68	35628.85
549.88	35868.47
550.08	35374.91
550.28	35909.43
550.48	35702.58
550.68	36024.11
550.88	35397.43
551.08	35817.27
551.279	35680.05
551.479	35653.43
551.679	35872.56
551.879	35438.39
552.079	35692.34
552.278	35526.46
552.478	35428.15
552.678	35233.6
552.878	35462.97
553.077	35477.3
553.277	35243.84
553.477	35829.55
553.676	35587.89
553.876	35499.83
554.076	35077.95
554.275	35364.67
554.475	35161.92
554.674	35108.67
554.874	35143.49
555.074	34830.15
555.273	35096.38
555.473	35059.52
555.672	34727.75
555.872	35014.46
556.071	34828.1
556.271	35368.76
556.47	34813.76
556.67	34668.36
556.869	34660.16
557.068	35149.63
557.268	34547.53
557.467	34426.7
557.667	34611.01
557.866	34285.39
558.065	34068.3
558.265	34178.89
558.464	33967.95
558.663	34559.81
558.863	34084.69
559.062	34217.8
559.261	33589.08
559.461	34053.97
559.66	33333.08
559.859	33752.91
560.058	33472.34
560.258	33693.52
560.457	33177.44
560.656	33501.01
560.855	33009.5
561.054	33371.99
561.253	32782.18
561.453	32929.63
561.652	33175.39
561.851	32997.21
562.05	32524.13
562.249	32298.86
562.448	32376.68
562.647	32143.21
562.846	32339.82
563.045	32302.95
563.244	31991.66
563.443	32593.76
563.642	31481.72
563.841	31776.62
564.04	31758.19
564.239	31938.41
564.438	31219.58
564.637	31295.35
564.836	31414.13
565.035	30789.5
565.234	31164.28
565.432	30795.65
565.631	30680.96
565.83	30887.81
566.029	30564.23
566.228	30273.42
566.427	30359.43
566.625	30123.91
566.824	30125.96
567.023	30066.57
567.222	29353.88
567.42	30035.85
567.619	29575.06
567.818	29601.68
568.016	29372.31
568.215	29714.32
568.414	29509.52
568.612	29362.07
568.811	29093.79
569.01	29118.36
569.208	28835.74
569.407	28602.27
569.605	28495.78
569.804	28569.51
570.002	28041.13
570.201	28209.06
570.4	27848.62
570.598	27957.16
570.797	27987.88
570.995	27633.58
571.193	27484.08
571.392	27791.28
571.59	27113.4
571.789	27330.48
571.987	27238.33
572.186	26902.46
572.384	26863.55
572.582	26656.7
572.781	27080.63
572.979	26259.4
573.177	26515.39
573.376	26476.48
573.574	26437.57
573.772	26517.44
573.971	26132.42
574.169	25833.42
574.367	25882.57
574.565	26120.13
574.763	25786.32
574.962	25573.33
575.16	25450.45
575.358	25434.07
575.556	25065.43
575.754	25591.76
575.952	25143.25
576.151	25173.97
576.349	24909.79
576.547	24885.21
576.745	24805.34
576.943	24704.99
577.141	24592.35
577.339	24778.72
577.537	24487.9
577.735	24571.87
577.933	24201.19
578.131	24240.1
578.329	24037.35
578.527	23836.65
578.725	24121.32
578.923	23955.43
579.121	24059.88
579.319	23388.14
579.516	23803.88
579.714	23662.57
579.912	23814.12
580.11	23306.23
580.308	23404.53
580.506	23431.15
580.704	22745.08
580.901	23115.76
581.099	23132.15
581.297	22986.74
581.495	22917.11
581.692	22591.48
581.89	22820.86
582.088	22786.04
582.285	22482.94
582.483	22806.52
582.681	22763.51
582.878	22077.44
583.076	22177.79
583.274	22118.4
583.471	21725.19
583.669	21901.32
583.866	21950.47
584.064	22059.01
584.262	21555.21
584.459	21839.88
584.657	21602.32
584.854	21596.17
585.052	21444.62
585.249	21479.44
585.447	21762.06
585.644	21037.08
585.841	21448.72
586.039	21329.94
586.236	21151.76
586.434	21098.52
586.631	20856.86
586.828	21047.32
587.026	20752.41
587.223	20809.75
587.42	20604.95
587.618	20635.67
587.815	20178.98
588.012	20328.48
588.21	20299.81
588.407	20498.46
588.604	20271.14
588.801	19970.08
588.999	20197.41
589.196	19951.65
589.393	20095.01
589.59	19693.61
589.787	19877.93
589.984	19746.86
590.182	19703.85
590.379	19716.14
590.576	19636.27
590.773	19691.56
590.97	19173.42
591.167	19638.31
591.364	19193.9
591.561	19222.58
591.758	18962.48
591.955	19093.55
592.152	19257.39
592.349	18788.41
592.546	19109.94
592.743	19185.71
592.94	19124.27
593.137	19134.51
593.334	18757.69
593.531	18696.25
593.727	18536.51
593.924	18663.48
594.121	18464.83
594.318	18632.76
594.515	18098.24
594.712	18532.41
594.908	18354.24
595.105	18403.39
595.302	18190.4
595.499	17870.92
595.696	18106.43
595.892	17631.3
596.089	17891.4
596.286	18108.48
596.482	17877.06
596.679	17809.48
596.876	17846.34
597.072	17465.42
597.269	17489.99
597.466	17526.86
597.662	17352.78
597.859	17522.76
598.055	17418.32
598.252	17332.3
598.448	17234
598.645	17410.12
598.841	16932.95
599.038	17154.13
599.234	17078.35
599.431	16953.43
599.627	16791.64
599.824	16830.55
600.02	16654.42
600.217	16799.83
600.413	16799.83
600.609	16822.36
600.806	16332.89
601.002	16404.57
601.198	16488.54
601.395	16281.69
601.591	16343.13
601.787	16160.86
601.984	16427.1
602.18	16318.56
602.376	16312.41
602.572	16095.33
602.769	16121.95
602.965	15853.67
603.161	15900.77
603.357	16101.47
603.553	15951.97
603.75	15544.42
603.946	15691.88
604.142	15972.45
604.338	15624.29
604.534	15519.85
604.73	15679.59
604.926	15192.17
605.122	15421.55
605.318	15339.63
605.514	15216.75
605.71	15138.93
605.906	15403.11
606.102	15147.12
606.298	15317.1
606.494	15067.25
606.69	15308.91
606.886	15171.69
607.082	14956.66
607.278	15003.76
607.474	14620.79
607.67	14989.42
607.866	14686.33
608.062	15052.91
608.257	14626.93
608.453	14567.54
608.649	14805.11
608.845	14551.16
609.041	14559.35
609.236	14422.14
609.432	14454.9
609.628	14700.66
609.824	14237.82
610.019	14174.33
610.215	14274.68
610.411	14434.43
610.606	14155.9
610.802	14454.9
610.998	14239.87
611.193	14293.12
611.389	13938.82
611.584	13846.66
611.78	14080.13
611.976	14155.9
612.171	14184.57
612.367	14014.59
612.562	13912.19
612.758	13856.9
612.953	13666.44
613.149	13985.92
613.344	13723.78
613.539	13838.47
613.735	13697.16
613.93	13697.16
614.126	13740.16
614.321	13643.91
614.517	13799.55
614.712	13568.13
614.907	13631.62
615.103	13652.1
615.298	13480.07
615.493	13535.37
615.688	13262.99
615.884	13592.71
616.079	13162.64
616.274	13312.14
616.47	13211.79
616.665	13275.27
616.86	13023.37
617.055	13248.65
617.25	13217.93
617.445	13379.72
617.641	12871.82
617.836	13203.6
618.031	12886.16
618.226	12904.59
618.421	13072.53
618.616	13037.71
618.811	12765.33
619.006	12939.41
619.201	12611.73
619.396	12660.88
619.591	12535.96
619.786	12828.82
619.981	12390.55
620.176	12736.66
620.371	12304.54
620.566	12411.03
620.761	12370.07
620.956	12374.17
621.151	11966.62
621.346	12335.26
621.541	11972.77
621.735	12038.3
621.93	11884.7
622.125	12132.51
622.32	11911.33
622.515	11980.96
622.709	11782.31
622.904	11759.78
623.099	11600.04
623.294	11573.41
623.488	11526.31
623.683	11614.37
623.878	11354.28
624.072	11364.52
624.267	11253.93
624.462	11382.95
624.656	11071.66
624.851	11030.7
625.046	11182.25
625.24	10875.06
625.435	10655.92
625.629	11122.86
625.824	10909.87
626.018	10842.29
626.213	10733.75
626.407	10786.99
626.602	10619.06
626.796	10569.91
626.991	10569.91
627.185	10461.37
627.38	10309.82
627.574	10391.73
627.768	10219.71
627.963	10299.58
628.157	10195.13
628.352	10045.63
628.546	9789.63
628.74	9851.07
628.935	9912.51
629.129	10023.1
629.323	9701.57
629.517	9627.84
629.712	9742.53
629.906	9578.69
630.1	9556.16
630.294	9377.99
630.489	9355.46
630.683	9433.29
630.877	9382.09
631.071	9248.97
631.265	9287.88
631.459	9236.68
631.653	9330.89
631.848	9103.56
632.042	9318.6
632.236	9115.85
632.43	8972.49
632.624	9031.88
632.818	8857.81
633.012	9068.75
633.206	8829.13
633.4	8777.94
633.594	8792.27
633.788	8726.74
633.982	8663.25
634.176	8892.62
634.369	8478.93
634.563	8356.05
634.757	8368.34
634.951	8343.77
635.145	8235.22
635.339	8454.36
635.533	8308.95
635.726	8442.07
635.92	7948.51
636.114	8224.98
636.308	7893.21
636.501	8098.01
636.695	8044.76
636.889	7913.69
637.083	7934.17
637.276	7848.16
637.47	7835.87
637.664	7610.59
637.857	7786.72
638.051	7915.74
638.244	7733.47
638.438	7721.18
638.632	7581.92
638.825	7516.39
639.019	7643.36
639.212	7287.01
639.406	7389.41
639.599	7420.13
639.793	7342.31
639.986	7207.14
640.18	7293.16
640.373	7358.69
640.567	7213.29
640.76	7110.89
640.954	6981.87
641.147	7096.55
641.34	7233.77
641.534	7174.38
641.727	7053.55
641.92	7067.88
642.114	6820.08
642.307	6883.56
642.5	6670.58
642.694	6623.47
642.887	6738.16
643.08	6799.6
643.273	6533.36
643.467	6689.01
643.66	6426.87
643.853	6484.21
644.046	6508.79
644.239	6572.27
644.432	6400.24
644.626	6277.37
644.819	6590.7
645.012	6430.96
645.205	6473.97
645.398	6394.1
645.591	6287.61
645.784	6275.32
645.977	6127.86
646.17	6242.55
646.363	6197.49
646.556	6123.77
646.749	6086.9
646.942	6086.9
647.135	6064.38
647.328	6023.42
647.521	5855.48
647.714	5679.36
647.907	5951.74
648.099	5761.28
648.292	5863.68
648.485	5804.28
648.678	5699.84
648.871	5744.89
649.064	5673.21
649.256	5697.79
649.449	5585.15
649.642	5601.54
649.835	5388.55
650.027	5525.76
650.22	5595.39
650.413	5538.05
650.605	5476.61
650.798	5460.23
650.991	5292.29
651.183	5427.46
651.376	5355.78
651.568	5495.04
651.761	5376.26
651.954	5320.96
652.146	5220.61
652.339	5179.65
652.531	5226.76
652.724	5390.6
652.916	5124.36
653.109	5165.32
653.301	5239.05
653.494	5161.22
653.686	5034.25
653.879	5269.76
654.071	5116.17
654.263	5069.06
654.456	4921.61
654.648	4940.04
654.84	4886.79
655.033	4823.31
655.225	4901.13
655.417	4839.69
655.61	4935.95
655.802	4966.67
655.994	5054.73
656.186	4860.17
656.379	4817.16
656.571	4743.44
656.763	4942.09
656.955	4761.87
657.148	4722.96
657.34	4702.48
657.532	4616.46
657.724	4559.12
657.916	4712.72
658.108	4763.92
658.3	4575.5
658.492	4573.46
658.684	4473.11
658.876	4522.26
659.068	4520.21
659.26	4274.45
659.452	4630.8
659.644	4524.3
659.836	4391.19
660.028	4487.44
660.22	4507.92
660.412	4469.01
660.604	4550.93
660.796	4395.28
660.988	4413.71
661.18	4548.88
661.372	4305.17
661.563	4311.32
661.755	4272.4
661.947	4368.66
662.139	4309.27
662.331	4309.27
662.522	4313.36
662.714	4352.27
662.906	4358.42
663.097	4313.36
663.289	4260.12
663.481	4303.12
663.673	4139.29
663.864	4124.95
664.056	4184.34
664.247	4014.36
664.439	4352.27
664.631	4284.69
664.822	4280.6
665.014	4165.91
665.205	4124.95
665.397	4092.18
665.588	4225.3
665.78	4206.87
665.971	4124.95
666.163	4110.61
666.354	3997.98
666.546	4077.85
666.737	4129.05
666.929	3977.5
667.12	4010.26
667.311	4086.04
667.503	4034.84
667.694	4135.19
667.885	4202.77
668.077	4135.19
668.268	4051.22
668.459	4190.49
668.651	4137.24
668.842	3936.54
669.033	4024.6
669.224	4090.13
669.416	4190.49
669.607	3987.74
669.798	4127
669.989	4237.59
670.18	4040.98
670.371	3940.63
670.563	3971.35
670.754	4174.1
670.945	4020.5
671.136	4163.86
671.327	4159.77
671.518	4272.4
671.709	4247.83
671.9	4116.76
672.091	4167.96
672.282	4149.53
672.473	4129.05
672.664	4116.76
672.855	4098.33
673.046	4147.48
673.237	4172.05
673.428	4245.78
673.619	4296.98
673.809	4151.57
674	4368.66
674.191	4301.08
674.382	4225.3
674.573	4159.77
674.764	4243.73
674.954	4280.6
675.145	4337.94
675.336	4262.16
675.527	4423.95
675.717	4407.57
675.908	4260.12
676.099	4311.32
676.289	4335.89
676.48	4387.09
676.671	4301.08
676.861	4264.21
677.052	4516.11
677.243	4509.97
677.433	4501.78
677.624	4657.42
677.814	4479.25
678.005	4544.78
678.195	4538.64
678.386	4524.3
678.576	4591.89
678.767	4585.74
678.957	4659.47
679.148	4854.03
679.338	4673.81
679.529	4743.44
679.719	4780.3
679.909	4860.17
680.1	4794.64
680.29	4847.88
680.481	4890.89
680.671	4874.51
680.861	4843.79
681.052	4897.03
681.242	4821.26
681.432	5058.82
681.622	4919.56
681.813	4942.09
682.003	5015.82
682.193	5026.06
682.383	5128.46
682.573	4919.56
682.764	5001.48
682.954	5101.83
683.144	5150.98
683.334	5114.12
683.524	5075.21
683.714	5212.42
683.904	5300.48
684.094	5294.34
684.284	5265.67
684.474	5204.23
684.664	5337.35
684.854	5333.25
685.044	5148.93
685.234	5404.93
685.424	5353.73
685.614	5390.6
685.804	5216.52
685.994	5200.13
686.184	5234.95
686.374	5280
686.564	5124.36
686.753	5314.82
686.943	5148.93
687.133	5165.32
687.323	5026.06
687.513	5320.96
687.702	5189.89
687.892	5206.28
688.082	5093.64
688.272	5230.85
688.461	5044.49
688.651	5103.88
688.841	5087.5
689.03	4868.36
689.22	5077.26
689.41	5114.12
689.599	4944.14
689.789	4962.57
689.979	4921.61
690.168	5122.31
690.358	4915.47
690.547	4860.17
690.737	4880.65
690.926	4886.79
691.116	4765.96
691.305	4892.94
691.495	4851.98
691.684	4778.25
691.874	4557.07
692.063	4796.68
692.252	4739.34
692.442	4737.29
692.631	4653.33
692.82	4759.82
693.01	4544.78
693.199	4806.92
693.388	4505.87
693.578	4524.3
693.767	4469.01
693.956	4487.44
694.146	4409.62
694.335	4534.54
694.524	4501.78
694.713	4505.87
694.902	4493.58
695.092	4466.96
695.281	4477.2
695.47	4419.86
695.659	4536.59
695.848	4432.15
696.037	4473.11
696.226	4565.26
696.415	4319.51
696.604	4415.76
696.793	4305.17
696.982	4475.15
697.171	4507.92
697.36	4448.53
697.549	4442.39
697.738	4426
697.927	4231.44
698.116	4337.94
698.305	4440.34
698.494	4370.71
698.683	4462.87
698.872	4505.87
699.061	4393.23
699.25	4419.86
699.438	4462.87
699.627	4352.27
699.816	4391.19
700.005	4448.53
700.193	4354.32
700.382	4391.19
700.571	4419.86
700.76	4421.91
700.948	4319.51
701.137	4370.71
701.326	4311.32
701.514	4501.78
701.703	4573.46
701.892	4403.47
702.08	4462.87
702.269	4628.75
702.457	4559.12
702.646	4542.74
702.834	4520.21
703.023	4364.56
703.212	4528.4
703.4	4630.8
703.589	4528.4
703.777	4497.68
703.965	4464.91
704.154	4614.41
704.342	4487.44
704.531	4612.37
704.719	4706.57
704.907	4567.31
705.096	4772.11
705.284	4673.81
705.472	4688.14
705.661	4735.25
705.849	4763.92
706.037	4565.26
706.226	4641.04
706.414	4712.72
706.602	4704.53
706.79	4788.49
706.979	4725.01
707.167	4860.17
707.355	4821.26
707.543	4909.32
707.731	4825.36
707.919	5058.82
708.107	4792.59
708.296	4755.72
708.484	4813.07
708.672	4989.19
708.86	4917.51
709.048	5021.96
709.236	4870.41
709.424	4894.99
709.612	5103.88
709.8	5021.96
709.988	4841.74
710.176	5124.36
710.364	5083.4
710.551	5130.5
710.739	4993.29
710.927	5116.17
711.115	5142.79
711.303	5257.48
711.491	5159.17
711.679	5302.53
711.866	5136.65
712.054	5460.23
712.242	5224.71
712.43	5224.71
712.617	5237
712.805	5427.46
712.993	5282.05
713.181	5351.68
713.368	5347.59
713.556	5351.68
713.744	5259.53
713.931	5652.74
714.119	5515.52
714.306	5499.14
714.494	5523.71
714.682	5603.58
714.869	5558.53
715.057	5419.27
715.244	5548.29
715.432	5771.52
715.619	5536
715.807	5742.85
715.994	5558.53
716.182	5632.26
716.369	5880.06
716.556	5890.3
716.744	5687.55
716.931	5814.52
717.119	5837.05
717.306	5851.39
717.493	5849.34
717.681	5861.63
717.868	5976.31
718.055	5937.4
718.242	6082.81
718.43	5996.79
718.617	6029.56
718.804	5894.4
718.991	6029.56
719.179	6146.3
719.366	6115.58
719.553	6031.61
719.74	6152.44
719.927	6131.96
720.114	6246.65
720.301	6209.78
720.488	6240.5
720.676	6086.9
720.863	6285.56
721.05	6248.69
721.237	6240.5
721.424	6170.87
721.611	6392.05
721.798	6213.88
721.985	6402.29
722.172	6236.41
722.358	6349.04
722.545	6492.4
722.732	6340.85
722.919	6531.31
723.106	6469.87
723.293	6422.77
723.48	6584.56
723.667	6478.07
723.853	6445.3
724.04	6680.82
724.227	6455.54
724.414	6605.04
724.6	6605.04
724.787	6578.42
724.974	6641.9
725.161	6607.09
725.347	6578.42
725.534	6611.18
725.72	6586.61
725.907	6842.6
726.094	6574.32
726.28	6701.3
726.467	6600.94
726.653	6695.15
726.84	6717.68
727.027	6955.24
727.213	6572.27
727.4	6899.95
727.586	6754.54
727.773	6768.88
727.959	6910.19
728.145	6848.75
728.332	6865.13
728.518	6789.36
728.705	6809.84
728.891	6983.91
729.077	7082.22
729.264	7020.78
729.45	6799.6
729.636	7145.7
729.823	6797.55
730.009	7145.7
730.195	7082.22
730.382	7078.12
730.568	6983.91
730.754	6965.48
730.94	7039.21
731.126	7139.56
731.313	7026.92
731.499	7022.83
731.685	7074.03
731.871	7047.4
732.057	7035.11
732.243	7209.19
732.429	7106.79
732.615	7186.66
732.801	7157.99
732.987	7246.05
733.173	7205.1
733.359	7348.45
733.545	7086.31
733.731	7074.03
733.917	7061.74
734.103	7280.87
734.289	7053.55
734.475	7262.44
734.661	7334.12
734.847	7117.03
735.033	7334.12
735.219	7297.25
735.404	7186.66
735.59	7174.38
735.776	7205.1
735.962	7174.38
736.148	7309.54
736.333	7190.76
736.519	7094.51
736.705	7373.03
736.89	7182.57
737.076	7258.34
737.262	7344.36
737.447	7338.21
737.633	7205.1
737.819	7280.87
738.004	7205.1
738.19	7213.29
738.375	7311.59
738.561	7239.91
738.747	7094.51
738.932	7248.1
739.118	7395.56
739.303	7268.58
739.489	7217.38
739.674	7184.62
739.859	7076.07
740.045	7254.25
740.23	7110.89
740.416	7008.49
740.601	6908.14
740.786	6842.6
740.972	6930.67
741.157	7065.83
741.342	7071.98
741.528	7067.88
741.713	6938.86
741.898	6904.04
742.084	7026.92
742.269	6893.8
742.454	6934.76
742.639	6985.96
742.824	6693.1
743.01	6830.32
743.195	6758.64
743.38	6844.65
743.565	6674.67
743.75	6801.65
743.935	6641.9
744.12	6725.87
744.305	6490.35
744.49	6658.29
744.675	6488.31
744.86	6596.85
745.045	6664.43
745.23	6590.7
745.415	6488.31
745.6	6490.35
745.785	6492.4
745.97	6512.88
746.155	6506.74
746.34	6256.89
746.525	6293.75
746.71	6109.43
746.895	6134.01
747.079	6152.44
747.264	6160.63
747.449	6119.67
747.634	6179.06
747.819	6115.58
748.003	5923.07
748.188	5896.44
748.373	5851.39
748.557	5966.07
748.742	5880.06
748.927	5921.02
749.111	5816.57
749.296	5701.89
749.481	5777.66
749.665	5460.23
749.85	5617.92
750.034	5710.08
750.219	5603.58
750.404	5474.56
750.588	5417.22
750.773	5499.14
750.957	5415.17
751.141	5355.78
751.326	5275.91
751.51	5171.46
751.695	5171.46
751.879	5271.81
752.064	5214.47
752.248	5181.7
752.432	5234.95
752.617	4985.1
752.801	5060.87
752.985	4970.76
753.17	4823.31
753.354	5054.73
753.538	4847.88
753.722	4770.06
753.907	4536.59
754.091	4688.14
754.275	4653.33
754.459	4706.57
754.643	4598.03
754.828	4583.7
755.012	4765.96
755.196	4524.3
755.38	4628.75
755.564	4491.54
755.748	4475.15
755.932	4530.45
756.116	4202.77
756.3	4372.75
756.484	4423.95
756.668	4247.83
756.852	4170.01
757.036	4233.49
757.22	4141.33
757.404	4143.38
757.588	3967.26
757.772	4294.93
757.956	4143.38
758.14	4219.16
758.323	3977.5
758.507	4141.33
758.691	3903.77
758.875	3811.61
759.059	3827.99
759.242	3713.31
759.426	3877.15
759.61	3830.04
759.794	3655.97
759.977	3827.99
760.161	3813.66
760.345	3830.04
760.528	3811.61
760.712	3684.64
760.895	3641.63
761.079	3598.62
761.263	3627.29
761.446	3576.09
761.63	3543.33
761.813	3592.48
761.997	3502.37
762.18	3479.84
762.364	3316
762.547	3557.66
762.731	3324.19
762.914	3383.59
763.098	3299.62
763.281	3426.59
763.464	3260.71
763.648	3316
763.831	3399.97
764.015	3311.91
764.198	3279.14
764.381	3223.84
764.564	3311.91
764.748	3197.22
764.931	3297.57
765.114	3215.65
765.297	3203.36
765.481	3029.29
765.664	3064.1
765.847	3195.17
766.03	3172.64
766.213	3158.31
766.397	3182.88
766.58	3021.1
766.763	2976.04
766.946	3084.58
767.129	2976.04
767.312	2875.69
767.495	2976.04
767.678	2961.7
767.861	2840.87
768.044	3004.71
768.227	2998.57
768.41	2869.55
768.593	2847.02
768.776	3037.48
768.959	2873.64
769.142	2828.59
769.324	2775.34
769.507	2691.37
769.69	2822.44
769.873	2718
770.056	2787.63
770.239	2664.75
770.421	2834.73
770.604	2822.44
770.787	2720.04
770.97	2668.84
771.152	2621.74
771.335	2601.26
771.518	2498.86
771.7	2593.07
771.883	2396.46
772.066	2470.19
772.248	2482.48
772.431	2619.69
772.613	2525.49
772.796	2443.57
772.978	2410.8
773.161	2502.96
773.343	2482.48
773.526	2259.25
773.708	2330.93
773.891	2314.55
774.073	2367.79
774.256	2371.89
774.438	2400.56
774.621	2257.2
774.803	2355.51
774.985	2240.82
775.168	2218.29
775.35	2281.78
775.532	2126.13
775.715	2226.48
775.897	2279.73
776.079	2105.65
776.261	2066.74
776.444	2005.3
776.626	2025.78
776.808	2085.17
776.99	1956.15
777.173	2001.21
777.355	1921.34
777.537	1968.44
777.719	1995.06
777.901	1937.72
778.083	1900.86
778.265	1868.09
778.447	1952.06
778.629	1734.97
778.811	2011.45
778.993	1872.18
779.175	1880.38
779.357	1839.42
779.539	1798.46
779.721	1823.03
779.903	1753.4
780.085	1843.51
780.267	1780.03
780.449	1857.85
780.631	1814.84
780.812	1745.21
780.994	1757.5
781.176	1663.29
781.358	1644.86
781.54	1597.76
781.721	1618.24
781.903	1548.61
782.085	1538.37
782.267	1610.04
782.448	1605.95
782.63	1544.51
782.812	1659.2
782.993	1562.94
783.175	1519.93
783.357	1519.93
783.538	1569.09
783.72	1487.17
783.901	1368.38
784.083	1446.21
784.264	1472.83
784.446	1368.38
784.627	1368.38
784.809	1341.76
784.99	1331.52
785.172	1397.06
785.353	1395.01
785.535	1253.7
785.716	1343.81
785.897	1231.17
786.079	1257.79
786.26	1233.22
786.441	1306.95
786.623	1206.59
786.804	1241.41
786.985	1204.55
787.167	1163.59
787.348	1169.73
787.529	1354.05
787.71	1161.54
787.891	1200.45
788.073	1175.88
788.254	1085.76
788.435	1220.93
788.616	1147.2
788.797	1118.53
788.978	1120.58
789.159	1130.82
789.34	1009.99
789.522	1036.61
789.703	1077.57
789.884	1196.36
790.065	1085.76
790.246	1114.44
790.427	1132.87
790.607	1063.24
790.788	1087.81
790.969	1009.99
791.15	1016.13
791.331	1069.38
791.512	991.56
791.693	1069.38
791.874	966.98
792.054	987.46
792.235	1012.04
792.416	995.65
792.597	901.45
792.778	1053
792.958	954.69
793.139	936.26
793.32	868.68
793.5	934.22
793.681	911.69
793.862	895.3
794.042	919.88
794.223	885.06
794.404	885.06
794.584	831.82
794.765	848.2
794.945	946.5
795.126	872.78
795.306	807.24
795.487	885.06
795.667	893.26
795.848	807.24
796.028	770.38
796.209	825.67
796.389	829.77
796.57	885.06
796.75	819.53
796.93	772.43
797.111	799.05
797.291	729.42
797.471	743.75
797.652	731.47
797.832	833.86
798.012	809.29
798.192	715.08
798.373	723.27
798.553	749.9
798.733	774.47
798.913	700.75
799.093	788.81
799.274	772.43
799.454	733.51
799.634	739.66
799.814	741.71
799.994	692.55
800.174	774.47
800.354	784.71
800.534	713.03
800.714	753.99
800.894	690.51
801.074	545.1
801.254	616.78
801.434	764.23
801.614	620.88
801.794	659.79
801.974	1308.99
802.154	670.03
802.334	657.74
802.514	624.97
802.693	618.83
802.873	622.92
803.053	643.4
803.233	645.45
803.413	663.88
803.592	667.98
803.772	581.96
803.952	618.83
804.131	528.72
804.311	561.48
804.491	641.36
804.67	573.77
804.85	528.72
805.03	586.06
805.209	577.87
805.389	624.97
805.568	665.93
805.748	524.62
805.928	561.48
806.107	549.2
806.287	498
806.466	575.82
806.646	579.92
806.825	532.81
807.004	569.68
807.184	575.82
807.363	608.59
807.543	551.24
807.722	569.68
807.901	502.09
808.081	600.4
808.26	504.14
808.439	471.37
808.619	549.2
808.798	483.66
808.977	586.06
809.156	516.43
809.336	534.86
809.515	530.77
809.694	479.57
809.873	551.24
810.052	430.41
810.231	502.09
810.411	442.7
810.59	495.95
810.769	440.65
810.948	459.09
811.127	442.7
811.306	493.9
811.485	444.75
811.664	434.51
811.843	411.98
812.022	463.18
812.201	438.61
812.38	495.95
812.559	403.79
812.737	471.37
812.916	414.03
813.095	348.5
813.274	495.95
813.453	459.09
813.632	495.95
813.811	416.08
813.989	387.41
814.168	504.14
814.347	426.32
814.526	440.65
814.704	526.67
814.883	481.61
815.062	430.41
815.24	414.03
815.419	422.22
815.598	352.59
815.776	344.4
815.955	479.57
816.133	405.84
816.312	405.84
816.49	414.03
816.669	397.65
816.847	411.98
817.026	450.89
817.204	371.02
817.383	422.22
817.561	393.55
817.74	411.98
817.918	438.61
818.097	354.64
818.275	371.02
818.453	364.88
818.632	336.21
818.81	344.4
818.988	371.02
819.167	385.36
819.345	350.54
819.523	379.22
819.701	397.65
819.879	395.6
820.058	411.98
820.236	254.29
820.414	387.41
820.592	317.78
820.77	356.69
820.948	323.92
821.127	334.16
821.305	317.78
821.483	338.26
821.661	379.22
821.839	362.83
822.017	301.39
822.195	321.87
822.373	391.5
822.551	274.77
822.729	364.88
822.907	297.3
823.085	258.39
823.262	315.73
823.44	366.93
823.618	301.39
823.796	258.39
823.974	375.12
824.152	311.63
824.329	323.92
824.507	358.74
824.685	250.19
824.863	280.91
825.04	266.58
825.218	293.2
825.396	280.91
825.574	307.54
825.751	293.2
825.929	299.34
826.107	272.72
826.284	373.07
826.462	307.54
826.639	254.29
826.817	297.3
826.994	291.15
827.172	239.95
827.349	366.93
827.527	264.53
827.704	334.16
827.882	328.02
828.059	270.67
828.237	205.14
828.414	282.96
828.591	182.61
828.769	223.57
828.946	223.57
829.124	272.72
829.301	323.92
829.478	242
829.655	217.43
829.833	233.81
830.01	201.04
830.187	237.91
830.364	174.42
830.542	213.33
830.719	291.15
830.896	280.91
831.073	313.68
831.25	258.39
831.427	317.78
831.604	151.89
831.782	237.91
831.959	188.75
832.136	182.61
832.313	287.06
832.49	258.39
832.667	264.53
832.844	53.59
833.021	280.91
833.198	196.95
833.374	168.27
833.551	190.8
833.728	248.15
833.905	246.1
834.082	231.76
834.259	221.52
834.436	250.19
834.612	262.48
834.789	268.63
834.966	168.27
835.143	160.08
835.319	90.45
835.496	254.29
835.673	225.62
835.85	215.38
836.026	215.38
836.203	213.33
836.38	176.47
836.556	151.89
836.733	74.07
836.909	229.71
837.086	223.57
837.262	139.6
837.439	133.46
837.616	143.7
837.792	192.85
837.968	155.99
838.145	112.98
838.321	231.76
838.498	211.28
838.674	211.28
838.851	172.37
839.027	184.66
839.203	209.23
839.38	291.15
839.556	237.91
839.732	141.65
839.909	174.42
840.085	176.47
840.261	135.51
840.437	160.08
840.614	115.03
840.79	233.81
840.966	158.03
841.142	172.37
841.318	125.27
841.494	198.99
841.671	162.13
841.847	170.32
842.023	135.51
842.199	166.23
842.375	160.08
842.551	108.88
842.727	100.69
842.903	186.71
843.079	133.46
843.255	180.56
843.431	125.27
843.607	155.99
843.783	8.53
843.959	10.58
844.134	94.55
844.31	221.52
844.486	139.6
844.662	133.46
844.838	84.31
845.013	135.51
845.189	121.17
845.365	55.64
845.541	133.46
845.716	168.27
845.892	172.37
846.068	100.69
846.244	59.73
846.419	55.64
846.595	69.97
846.77	78.16
846.946	145.75
847.122	112.98
847.297	78.16
847.473	164.18
847.648	172.37
847.824	98.64
847.999	69.97
848.175	155.99
848.35	160.08
848.526	147.8
848.701	115.03
848.876	127.32
849.052	151.89
849.227	76.12
849.403	141.65
849.578	63.83
849.753	123.22
849.929	98.64
850.104	35.16
850.279	98.64
850.454	61.78
850.63	110.93
850.805	94.55
850.98	55.64
851.155	39.25
851.33	137.56
851.505	29.01
851.681	145.75
851.856	164.18
852.031	153.94
852.206	57.68
852.381	90.45
852.556	65.88
852.731	96.6
852.906	135.51
853.081	78.16
853.256	90.45
853.431	106.84
853.606	92.5
853.781	78.16
853.956	41.3
854.131	82.26
854.305	49.49
854.48	45.4
854.655	35.16
854.83	57.68
855.005	57.68
855.18	57.68
855.354	125.27
855.529	37.2
855.704	110.93
855.879	100.69
856.053	29.01
856.228	100.69
856.403	-44.71
856.577	115.03
856.752	61.78
856.926	53.59
857.101	47.44
857.276	37.2
857.45	92.5
857.625	10.58
857.799	29.01
857.974	16.73
858.148	18.77
858.323	86.36
858.497	61.78
858.672	37.2
858.846	72.02
859.02	98.64
859.195	51.54
859.369	90.45
859.543	39.25
859.718	20.82
859.892	86.36
860.066	90.45
860.241	-1.71
860.415	35.16
860.589	145.75
860.763	82.26
860.938	-65.19
861.112	59.73
861.286	102.74
861.46	94.55
861.634	43.35
861.808	151.89
861.982	-26.28
862.157	8.53
862.331	12.63
862.505	-3.75
862.679	61.78
862.853	98.64
863.027	4.44
863.201	102.74
863.375	35.16
863.549	37.2
863.722	16.73
863.896	96.6
864.07	-18.09
864.244	37.2
864.418	8.53
864.592	29.01
864.766	72.02
864.939	55.64
865.113	-28.33
865.287	33.11
865.461	4.44
865.634	86.36
865.808	98.64
865.982	-20.14
866.156	45.4
866.329	-22.19
866.503	33.11
866.676	45.4
866.85	12.63
867.024	45.4
867.197	69.97
867.371	110.93
867.544	61.78
867.718	-32.43
867.891	0.34
868.065	-1.71
868.238	-3.75
868.412	8.53
868.585	29.01
868.759	37.2
868.932	67.92
869.105	86.36
869.279	74.07
869.452	-7.85
869.625	41.3
869.799	-20.14
869.972	-24.23
870.145	47.44
870.319	63.83
870.492	47.44
870.665	-30.38
870.838	24.92
871.011	-13.99
871.185	24.92
871.358	-3.75
871.531	67.92
871.704	-16.04
871.877	-3.75
872.05	29.01
872.223	-1.71
872.396	43.35
872.569	29.01
872.742	33.11
872.915	78.16
873.088	-16.04
873.261	-11.95
873.434	29.01
873.607	41.3
873.78	14.68
873.953	-44.71
874.126	8.53
874.299	57.68
874.471	8.53
874.644	-26.28
874.817	29.01
874.99	119.12
875.163	108.88
875.335	51.54
875.508	-7.85
875.681	31.06
875.853	8.53
876.026	29.01
876.199	86.36
876.371	35.16
876.544	106.84
876.717	43.35
876.889	61.78
877.062	18.77
877.234	2.39
877.407	10.58
877.579	-24.23
877.752	69.97
877.924	88.4
878.097	78.16
878.269	33.11
878.442	69.97
878.614	2.39
878.786	-46.76
878.959	12.63
879.131	59.73
879.303	-46.76
879.476	0.34
879.648	69.97
879.82	82.26
879.993	26.96
880.165	-52.91
880.337	29.01
880.509	84.31
880.681	-11.95
880.854	-38.57
881.026	53.59
881.198	147.8
881.37	72.02
881.542	35.16
881.714	-32.43
881.886	78.16
882.058	-42.67
882.23	61.78
882.402	10.58
882.574	26.96
882.746	18.77
882.918	53.59
883.09	24.92
883.262	-48.81
883.434	12.63
883.606	-28.33
883.778	74.07
883.95	29.01
884.122	-69.29
884.293	65.88
884.465	67.92
884.637	12.63
884.809	-46.76
884.98	51.54
885.152	63.83
885.324	69.97
885.496	43.35
885.667	-26.28
885.839	-3.75
886.011	98.64
886.182	-13.99
886.354	31.06
886.525	41.3
886.697	69.97
886.869	-40.62
887.04	-20.14
887.212	14.68
887.383	35.16
887.555	-22.19
887.726	-63.15
887.897	26.96
888.069	-20.14
888.24	12.63
888.412	-32.43
888.583	49.49
888.754	-7.85
888.926	12.63
889.097	29.01
889.268	-57
889.44	63.83
889.611	-42.67
889.782	37.2
889.953	20.82
890.125	57.68
890.296	-44.71
890.467	2.39
890.638	-20.14
890.809	24.92
890.98	-44.71
891.151	35.16
891.323	12.63
891.494	33.11
891.665	-28.33
891.836	-11.95
892.007	-34.47
892.178	22.87
892.349	65.88
892.52	-22.19
892.691	100.69
892.862	33.11
893.032	-28.33
893.203	-13.99
893.374	2.39
893.545	57.68
893.716	-22.19
893.887	45.4
894.057	18.77
894.228	18.77
894.399	-3.75
894.57	35.16
894.74	59.73
894.911	96.6
895.082	-3.75
895.253	74.07
895.423	43.35
895.594	-69.29
895.764	53.59
895.935	14.68
896.106	37.2
896.276	24.92
896.447	-28.33
896.617	-13.99
896.788	-108.2
896.958	18.77
897.129	53.59
897.299	26.96
897.47	57.68
897.64	59.73
897.81	-7.85
897.981	59.73
898.151	16.73
898.322	-9.9
898.492	49.49
898.662	-13.99
898.832	51.54
899.003	-38.57
899.173	-24.23
899.343	-26.28
899.513	-57
