Data from USB4F104151__38__11-30-19-014.txt Node

Date: Fri Mar 14 11:30:19 EDT 2025
User: louis
Spectrometer: USB4F10415
Trigger mode: 4
Integration Time (sec): 5.000000E-2
Scans to average: 1
Electric dark correction enabled: true
Nonlinearity correction enabled: false
Boxcar width: 0
XAxis mode: Wavelengths
Number of Pixels in Spectrum: 3648
>>>>>Begin Spectral Data<<<<<
178.204	-164.35
178.424	-164.35
178.644	-164.35
178.864	-162.3
179.084	-170.49
179.304	17.92
179.524	-70.14
179.744	42.5
179.964	71.17
180.184	32.26
180.404	5.63
180.624	-2.56
180.844	34.3
181.064	-53.76
181.283	5.63
181.503	-51.71
181.723	-31.23
181.943	-72.19
182.163	46.59
182.383	62.98
182.602	71.17
182.822	81.41
183.042	9.73
183.262	-47.62
183.482	9.73
183.701	38.4
183.921	-20.99
184.141	-4.61
184.361	99.84
184.58	-6.66
184.8	46.59
185.02	46.59
185.239	34.3
185.459	1.54
185.679	134.65
185.898	9.73
186.118	9.73
186.338	11.78
186.557	50.69
186.777	-10.75
186.997	-8.7
187.216	32.26
187.436	83.45
187.655	79.36
187.875	95.74
188.095	22.02
188.314	13.82
188.534	65.02
188.753	34.3
188.973	-16.9
189.192	116.22
189.412	54.78
189.631	103.93
189.851	-8.7
190.07	99.84
190.29	-68.09
190.509	46.59
190.729	58.88
190.948	42.5
191.168	169.47
191.387	30.21
191.607	62.98
191.826	24.06
192.045	-6.66
192.265	26.11
192.484	28.16
192.704	-6.66
192.923	-16.9
193.142	36.35
193.362	38.4
193.581	105.98
193.8	-0.51
194.02	32.26
194.239	42.5
194.458	87.55
194.678	34.3
194.897	17.92
195.116	9.73
195.335	50.69
195.555	-2.56
195.774	26.11
195.993	62.98
196.212	40.45
196.432	91.65
196.651	9.73
196.87	7.68
197.089	93.69
197.308	30.21
197.528	62.98
197.747	-23.04
197.966	22.02
198.185	105.98
198.404	32.26
198.623	58.88
198.842	130.56
199.062	50.69
199.281	65.02
199.5	17.92
199.719	17.92
199.938	110.08
200.157	54.78
200.376	42.5
200.595	73.21
200.814	108.03
201.033	15.87
201.252	75.26
201.471	26.11
201.69	67.07
201.909	-2.56
202.128	-0.51
202.347	58.88
202.566	17.92
202.785	32.26
203.004	-25.09
203.223	101.89
203.442	71.17
203.661	-18.94
203.879	26.11
204.098	62.98
204.317	-27.14
204.536	95.74
204.755	36.35
204.974	83.45
205.193	-6.66
205.411	95.74
205.63	15.87
205.849	75.26
206.068	26.11
206.287	1.54
206.505	73.21
206.724	9.73
206.943	1.54
207.162	40.45
207.381	93.69
207.599	9.73
207.818	34.3
208.037	24.06
208.255	56.83
208.474	32.26
208.693	34.3
208.911	-6.66
209.13	1.54
209.349	40.45
209.567	32.26
209.786	95.74
210.005	9.73
210.223	13.82
210.442	17.92
210.661	77.31
210.879	24.06
211.098	-6.66
211.316	34.3
211.535	81.41
211.753	-0.51
211.972	-16.9
212.191	-4.61
212.409	11.78
212.628	42.5
212.846	42.5
213.065	-14.85
213.283	30.21
213.502	91.65
213.72	-0.51
213.938	67.07
214.157	71.17
214.375	65.02
214.594	46.59
214.812	83.45
215.031	36.35
215.249	40.45
215.467	42.5
215.686	118.27
215.904	54.78
216.122	-10.75
216.341	-6.66
216.559	-0.51
216.778	93.69
216.996	67.07
217.214	-31.23
217.432	13.82
217.651	34.3
217.869	-29.18
218.087	58.88
218.306	38.4
218.524	46.59
218.742	26.11
218.96	40.45
219.179	17.92
219.397	13.82
219.615	132.61
219.833	97.79
220.051	26.11
220.27	103.93
220.488	34.3
220.706	62.98
220.924	17.92
221.142	-6.66
221.36	48.64
221.578	65.02
221.796	22.02
222.015	42.5
222.233	1.54
222.451	81.41
222.669	1.54
222.887	-4.61
223.105	-0.51
223.323	54.78
223.541	19.97
223.759	110.08
223.977	50.69
224.195	95.74
224.413	110.08
224.631	46.59
224.849	36.35
225.067	101.89
225.285	-14.85
225.503	42.5
225.721	-125.44
225.939	58.88
226.157	32.26
226.375	67.07
226.592	26.11
226.81	-70.14
227.028	73.21
227.246	130.56
227.464	-14.85
227.682	34.3
227.9	108.03
228.117	30.21
228.335	50.69
228.553	34.3
228.771	58.88
228.989	105.98
229.206	46.59
229.424	-4.61
229.642	-47.62
229.86	56.83
230.077	132.61
230.295	32.26
230.513	-4.61
230.731	65.02
230.948	83.45
231.166	34.3
231.384	34.3
231.601	1.54
231.819	67.07
232.037	65.02
232.254	1.54
232.472	36.35
232.689	30.21
232.907	67.07
233.125	36.35
233.342	34.3
233.56	9.73
233.777	34.3
233.995	30.21
234.213	105.98
234.43	-16.9
234.648	26.11
234.865	-2.56
235.083	24.06
235.3	75.26
235.518	19.97
235.735	95.74
235.953	34.3
236.17	-31.23
236.388	60.93
236.605	58.88
236.822	91.65
237.04	26.11
237.257	48.64
237.475	-6.66
237.692	58.88
237.909	99.84
238.127	40.45
238.344	81.41
238.562	99.84
238.779	-2.56
238.996	38.4
239.214	34.3
239.431	87.55
239.648	67.07
239.865	62.98
240.083	79.36
240.3	42.5
240.517	-0.51
240.735	24.06
240.952	34.3
241.169	52.74
241.386	34.3
241.603	38.4
241.821	19.97
242.038	75.26
242.255	83.45
242.472	5.63
242.689	73.21
242.907	46.59
243.124	28.16
243.341	-39.42
243.558	-8.7
243.775	34.3
243.992	-72.19
244.209	83.45
244.426	75.26
244.643	71.17
244.86	58.88
245.078	65.02
245.295	89.6
245.512	67.07
245.729	7.68
245.946	58.88
246.163	32.26
246.38	44.54
246.597	69.12
246.814	40.45
247.031	15.87
247.248	34.3
247.464	38.4
247.681	32.26
247.898	28.16
248.115	50.69
248.332	-6.66
248.549	50.69
248.766	83.45
248.983	75.26
249.2	67.07
249.417	5.63
249.633	54.78
249.85	-6.66
250.067	-2.56
250.284	-8.7
250.501	118.27
250.717	75.26
250.934	-14.85
251.151	26.11
251.368	5.63
251.585	89.6
251.801	69.12
252.018	-27.14
252.235	105.98
252.451	-12.8
252.668	17.92
252.885	116.22
253.102	83.45
253.318	44.54
253.535	17.92
253.752	42.5
253.968	1.54
254.185	38.4
254.401	-66.05
254.618	58.88
254.835	26.11
255.051	58.88
255.268	46.59
255.484	99.84
255.701	17.92
255.917	11.78
256.134	-6.66
256.351	69.12
256.567	1.54
256.784	91.65
257	26.11
257.217	5.63
257.433	-25.09
257.65	-47.62
257.866	75.26
258.082	-47.62
258.299	26.11
258.515	40.45
258.732	-43.52
258.948	65.02
259.165	130.56
259.381	1.54
259.597	56.83
259.814	77.31
260.03	71.17
260.246	11.78
260.463	81.41
260.679	87.55
260.895	7.68
261.112	32.26
261.328	-4.61
261.544	89.6
261.761	165.37
261.977	36.35
262.193	-14.85
262.409	32.26
262.626	50.69
262.842	101.89
263.058	54.78
263.274	1.54
263.49	24.06
263.707	62.98
263.923	91.65
264.139	46.59
264.355	79.36
264.571	108.03
264.787	81.41
265.004	-29.18
265.22	50.69
265.436	-78.33
265.652	-18.94
265.868	38.4
266.084	28.16
266.3	48.64
266.516	-31.23
266.732	85.5
266.948	1.54
267.164	26.11
267.38	42.5
267.596	50.69
267.812	95.74
268.028	32.26
268.244	58.88
268.46	-8.7
268.676	19.97
268.892	83.45
269.108	26.11
269.324	22.02
269.54	-66.05
269.756	75.26
269.972	34.3
270.188	15.87
270.403	9.73
270.619	122.37
270.835	24.06
271.051	32.26
271.267	36.35
271.483	-2.56
271.698	50.69
271.914	38.4
272.13	65.02
272.346	75.26
272.562	9.73
272.777	56.83
272.993	46.59
273.209	-14.85
273.425	89.6
273.64	-6.66
273.856	54.78
274.072	44.54
274.287	32.26
274.503	62.98
274.719	5.63
274.934	24.06
275.15	30.21
275.366	1.54
275.581	1.54
275.797	69.12
276.012	-16.9
276.228	-2.56
276.444	79.36
276.659	79.36
276.875	-0.51
277.09	30.21
277.306	15.87
277.521	-14.85
277.737	103.93
277.952	9.73
278.168	46.59
278.383	38.4
278.599	34.3
278.814	120.32
279.03	24.06
279.245	91.65
279.461	24.06
279.676	67.07
279.892	-6.66
280.107	13.82
280.322	9.73
280.538	9.73
280.753	26.11
280.969	52.74
281.184	75.26
281.399	95.74
281.615	13.82
281.83	56.83
282.045	58.88
282.26	22.02
282.476	118.27
282.691	89.6
282.906	71.17
283.122	-18.94
283.337	40.45
283.552	40.45
283.767	89.6
283.983	62.98
284.198	17.92
284.413	42.5
284.628	34.3
284.843	26.11
285.058	65.02
285.274	-55.81
285.489	83.45
285.704	-12.8
285.919	73.21
286.134	28.16
286.349	38.4
286.564	-16.9
286.779	71.17
286.995	44.54
287.21	-27.14
287.425	-29.18
287.64	-0.51
287.855	-16.9
288.07	-14.85
288.285	155.13
288.5	46.59
288.715	85.5
288.93	-27.14
289.145	17.92
289.36	91.65
289.575	42.5
289.79	13.82
290.004	-16.9
290.219	114.17
290.434	9.73
290.649	1.54
290.864	-16.9
291.079	19.97
291.294	30.21
291.509	75.26
291.724	77.31
291.938	-64
292.153	58.88
292.368	-8.7
292.583	-0.51
292.798	50.69
293.012	42.5
293.227	60.93
293.442	83.45
293.657	110.08
293.871	44.54
294.086	52.74
294.301	56.83
294.516	62.98
294.73	87.55
294.945	36.35
295.16	13.82
295.374	116.22
295.589	58.88
295.804	50.69
296.018	38.4
296.233	79.36
296.447	62.98
296.662	-59.9
296.877	30.21
297.091	22.02
297.306	50.69
297.52	-23.04
297.735	40.45
297.949	54.78
298.164	1.54
298.378	62.98
298.593	-18.94
298.807	73.21
299.022	-23.04
299.236	-12.8
299.451	-35.33
299.665	34.3
299.88	40.45
300.094	-6.66
300.309	-4.61
300.523	50.69
300.737	1.54
300.952	67.07
301.166	24.06
301.381	48.64
301.595	1.54
301.809	-35.33
302.024	42.5
302.238	32.26
302.452	48.64
302.667	81.41
302.881	114.17
303.095	69.12
303.309	5.63
303.524	60.93
303.738	32.26
303.952	-16.9
304.166	79.36
304.381	73.21
304.595	50.69
304.809	17.92
305.023	-31.23
305.237	52.74
305.452	79.36
305.666	-6.66
305.88	71.17
306.094	32.26
306.308	75.26
306.522	112.13
306.736	62.98
306.95	77.31
307.164	1.54
307.379	-39.42
307.593	48.64
307.807	26.11
308.021	58.88
308.235	3.58
308.449	3.58
308.663	58.88
308.877	91.65
309.091	9.73
309.305	40.45
309.519	62.98
309.733	75.26
309.947	-4.61
310.161	-4.61
310.374	75.26
310.588	71.17
310.802	15.87
311.016	48.64
311.23	99.84
311.444	5.63
311.658	52.74
311.872	26.11
312.085	11.78
312.299	161.28
312.513	34.3
312.727	17.92
312.941	50.69
313.154	-14.85
313.368	73.21
313.582	28.16
313.796	42.5
314.009	1.54
314.223	91.65
314.437	67.07
314.651	67.07
314.864	17.92
315.078	7.68
315.292	26.11
315.505	58.88
315.719	54.78
315.933	9.73
316.146	-23.04
316.36	24.06
316.573	69.12
316.787	-6.66
317.001	40.45
317.214	34.3
317.428	34.3
317.641	-27.14
317.855	50.69
318.068	-2.56
318.282	22.02
318.495	89.6
318.709	5.63
318.922	36.35
319.136	89.6
319.349	26.11
319.563	26.11
319.776	-29.18
319.99	15.87
320.203	73.21
320.417	9.73
320.63	34.3
320.843	75.26
321.057	79.36
321.27	73.21
321.483	52.74
321.697	122.37
321.91	9.73
322.124	26.11
322.337	50.69
322.55	-51.71
322.763	50.69
322.977	58.88
323.19	38.4
323.403	56.83
323.617	15.87
323.83	58.88
324.043	9.73
324.256	42.5
324.469	36.35
324.683	17.92
324.896	101.89
325.109	116.22
325.322	22.02
325.535	-2.56
325.748	62.98
325.962	42.5
326.175	-55.81
326.388	17.92
326.601	62.98
326.814	1.54
327.027	-23.04
327.24	44.54
327.453	-33.28
327.666	75.26
327.879	105.98
328.092	-6.66
328.305	50.69
328.518	38.4
328.731	42.5
328.944	52.74
329.157	62.98
329.37	15.87
329.583	62.98
329.796	179.71
330.009	-39.42
330.222	81.41
330.435	87.55
330.648	91.65
330.861	22.02
331.073	58.88
331.286	17.92
331.499	38.4
331.712	-45.57
331.925	42.5
332.138	75.26
332.35	112.13
332.563	-6.66
332.776	99.84
332.989	13.82
333.202	75.26
333.414	-10.75
333.627	-6.66
333.84	-47.62
334.053	46.59
334.265	1.54
334.478	26.11
334.691	75.26
334.903	11.78
335.116	-57.86
335.329	17.92
335.541	-16.9
335.754	67.07
335.966	-6.66
336.179	83.45
336.392	13.82
336.604	48.64
336.817	79.36
337.029	17.92
337.242	73.21
337.454	97.79
337.667	32.26
337.88	136.7
338.092	-35.33
338.305	50.69
338.517	-72.19
338.729	-2.56
338.942	108.03
339.154	50.69
339.367	1.54
339.579	91.65
339.792	26.11
340.004	73.21
340.217	-2.56
340.429	38.4
340.641	-23.04
340.854	-2.56
341.066	42.5
341.278	93.69
341.491	99.84
341.703	19.97
341.915	42.5
342.128	54.78
342.34	17.92
342.552	-18.94
342.764	13.82
342.977	34.3
343.189	50.69
343.401	110.08
343.613	30.21
343.826	-39.42
344.038	-6.66
344.25	9.73
344.462	-10.75
344.674	52.74
344.886	30.21
345.099	36.35
345.311	89.6
345.523	9.73
345.735	-55.81
345.947	69.12
346.159	46.59
346.371	-27.14
346.583	52.74
346.795	165.37
347.007	30.21
347.219	50.69
347.431	9.73
347.643	34.3
347.855	38.4
348.067	71.17
348.279	-14.85
348.491	3.58
348.703	71.17
348.915	67.07
349.127	38.4
349.339	13.82
349.551	93.69
349.763	73.21
349.975	46.59
350.187	116.22
350.399	105.98
350.61	34.3
350.822	56.83
351.034	116.22
351.246	-6.66
351.458	9.73
351.669	73.21
351.881	99.84
352.093	87.55
352.305	50.69
352.517	48.64
352.728	30.21
352.94	52.74
353.152	24.06
353.363	89.6
353.575	87.55
353.787	146.94
353.999	32.26
354.21	108.03
354.422	81.41
354.633	9.73
354.845	56.83
355.057	58.88
355.268	71.17
355.48	112.13
355.692	11.78
355.903	-23.04
356.115	30.21
356.326	7.68
356.538	30.21
356.749	75.26
356.961	136.7
357.172	22.02
357.384	-68.09
357.595	97.79
357.807	1.54
358.018	28.16
358.23	26.11
358.441	124.41
358.653	67.07
358.864	42.5
359.075	46.59
359.287	-14.85
359.498	26.11
359.709	13.82
359.921	67.07
360.132	30.21
360.344	91.65
360.555	-0.51
360.766	13.82
360.977	42.5
361.189	75.26
361.4	50.69
361.611	112.13
361.823	65.02
362.034	-47.62
362.245	-23.04
362.456	19.97
362.667	89.6
362.879	-18.94
363.09	58.88
363.301	65.02
363.512	13.82
363.723	7.68
363.935	50.69
364.146	83.45
364.357	-88.57
364.568	22.02
364.779	42.5
364.99	22.02
365.201	15.87
365.412	75.26
365.623	-10.75
365.834	13.82
366.045	75.26
366.256	91.65
366.467	89.6
366.678	58.88
366.889	46.59
367.1	-16.9
367.311	91.65
367.522	32.26
367.733	50.69
367.944	124.41
368.155	-6.66
368.366	17.92
368.577	50.69
368.788	79.36
368.999	-2.56
369.209	73.21
369.42	108.03
369.631	91.65
369.842	79.36
370.053	60.93
370.264	38.4
370.474	30.21
370.685	36.35
370.896	89.6
371.107	58.88
371.317	93.69
371.528	1.54
371.739	91.65
371.95	19.97
372.16	46.59
372.371	73.21
372.582	-2.56
372.792	54.78
373.003	38.4
373.214	13.82
373.424	112.13
373.635	13.82
373.846	65.02
374.056	26.11
374.267	38.4
374.477	46.59
374.688	22.02
374.898	19.97
375.109	50.69
375.319	116.22
375.53	91.65
375.74	89.6
375.951	81.41
376.161	73.21
376.372	36.35
376.582	15.87
376.793	71.17
377.003	-43.52
377.214	15.87
377.424	19.97
377.635	54.78
377.845	13.82
378.055	56.83
378.266	1.54
378.476	-6.66
378.686	89.6
378.897	79.36
379.107	-10.75
379.317	99.84
379.528	71.17
379.738	-2.56
379.948	-18.94
380.158	73.21
380.369	58.88
380.579	132.61
380.789	42.5
380.999	34.3
381.21	22.02
381.42	58.88
381.63	19.97
381.84	67.07
382.05	-72.19
382.261	30.21
382.471	-57.86
382.681	46.59
382.891	132.61
383.101	-27.14
383.311	58.88
383.521	17.92
383.731	26.11
383.941	114.17
384.151	17.92
384.361	7.68
384.571	40.45
384.781	103.93
384.991	99.84
385.201	108.03
385.411	62.98
385.621	105.98
385.831	52.74
386.041	46.59
386.251	42.5
386.461	103.93
386.671	75.26
386.881	34.3
387.091	71.17
387.301	54.78
387.511	5.63
387.72	65.02
387.93	73.21
388.14	9.73
388.35	-2.56
388.56	34.3
388.769	58.88
388.979	7.68
389.189	79.36
389.399	15.87
389.609	91.65
389.818	34.3
390.028	7.68
390.238	24.06
390.447	62.98
390.657	77.31
390.867	13.82
391.076	-0.51
391.286	30.21
391.496	30.21
391.705	89.6
391.915	67.07
392.125	95.74
392.334	-39.42
392.544	50.69
392.753	30.21
392.963	93.69
393.172	103.93
393.382	163.33
393.591	99.84
393.801	71.17
394.01	122.37
394.22	89.6
394.429	89.6
394.639	65.02
394.848	32.26
395.058	95.74
395.267	83.45
395.477	144.89
395.686	122.37
395.895	116.22
396.105	140.8
396.314	116.22
396.524	89.6
396.733	108.03
396.942	122.37
397.152	34.3
397.361	83.45
397.57	-35.33
397.78	34.3
397.989	130.56
398.198	116.22
398.407	17.92
398.617	71.17
398.826	81.41
399.035	42.5
399.244	122.37
399.453	91.65
399.663	173.57
399.872	79.36
400.081	46.59
400.29	65.02
400.499	73.21
400.708	155.13
400.917	11.78
401.127	163.33
401.336	58.88
401.545	105.98
401.754	89.6
401.963	97.79
402.172	50.69
402.381	1.54
402.59	40.45
402.799	161.28
403.008	105.98
403.217	116.22
403.426	163.33
403.635	28.16
403.844	108.03
404.053	148.99
404.262	105.98
404.471	95.74
404.68	89.6
404.888	87.55
405.097	97.79
405.306	122.37
405.515	83.45
405.724	110.08
405.933	163.33
406.142	157.18
406.35	171.52
406.559	200.19
406.768	130.56
406.977	192
407.185	118.27
407.394	228.86
407.603	163.33
407.812	169.47
408.02	185.85
408.229	196.09
408.438	239.1
408.646	122.37
408.855	157.18
409.064	157.18
409.272	95.74
409.481	306.68
409.69	235
409.898	108.03
410.107	224.76
410.315	259.58
410.524	171.52
410.733	300.54
410.941	198.14
411.15	292.35
411.358	292.35
411.567	333.31
411.775	341.5
411.984	335.35
412.192	288.25
412.401	288.25
412.609	386.55
412.818	409.08
413.026	357.88
413.234	310.78
413.443	310.78
413.651	415.23
413.86	335.35
414.068	386.55
414.276	425.47
414.485	396.79
414.693	484.86
414.901	470.52
415.11	554.49
415.318	470.52
415.526	515.58
415.734	517.62
415.943	607.73
416.151	464.38
416.359	529.91
416.567	562.68
416.776	615.93
416.984	665.08
417.192	722.42
417.4	706.04
417.608	634.36
417.817	759.28
418.025	693.75
418.233	916.98
418.441	796.15
418.649	869.87
418.857	849.4
419.065	982.51
419.273	812.53
419.481	949.75
419.689	964.08
419.897	984.56
420.105	949.75
420.313	1021.42
420.521	1123.82
420.729	1195.5
420.937	1127.92
421.145	1299.95
421.353	1222.13
421.561	1359.34
421.769	1381.87
421.977	1398.25
422.185	1336.81
422.393	1535.46
422.601	1613.29
422.809	1615.34
423.017	1582.57
423.224	1656.29
423.432	1660.39
423.64	1670.63
423.848	1818.08
424.056	1811.94
424.263	1998.31
424.471	1897.96
424.679	1965.54
424.887	2094.56
425.094	2156
425.302	2153.95
425.51	2270.69
425.718	2209.25
425.925	2272.73
426.133	2407.9
426.341	2432.47
426.548	2614.74
426.756	2708.95
426.964	2616.79
427.171	2868.69
427.379	2938.32
427.586	2954.71
427.794	3102.16
428.001	3229.13
428.209	3317.2
428.417	3380.68
428.624	3603.91
428.832	3491.27
429.039	3438.03
429.247	3362.25
429.454	3786.18
429.662	4062.66
429.869	3722.7
430.076	4115.91
430.284	3900.87
430.491	4214.21
430.699	4406.72
430.906	4447.68
431.114	4388.29
431.321	4595.13
431.528	4611.51
431.736	4916.66
431.943	5135.79
432.15	5027.25
432.358	4967.86
432.565	5426.61
432.772	5211.57
432.979	5600.68
433.187	5750.18
433.394	5785
433.601	6174.11
433.808	6092.2
434.016	6235.55
434.223	6434.21
434.43	6751.64
434.637	6782.36
434.844	7052.69
435.052	7185.81
435.259	7191.95
435.466	7353.74
435.673	7296.4
435.88	7636.36
436.087	8033.67
436.294	7896.46
436.501	7710.09
436.708	7921.03
436.915	8312.19
437.122	8832.38
437.329	8623.48
437.537	8871.29
437.743	8932.73
437.95	9151.86
438.157	9411.95
438.364	9637.23
438.571	9586.03
438.778	9561.45
438.985	10638.69
439.192	10188.13
439.399	10591.58
439.606	10407.27
439.813	10718.56
440.02	11517.26
440.227	11369.81
440.433	11148.63
440.64	11781.45
440.847	11586.9
441.054	11734.35
441.261	12868.92
441.467	12414.27
441.674	12733.76
441.881	13221.17
442.088	13196.6
442.294	13161.78
442.501	13616.43
442.708	13423.92
442.914	14157.1
443.121	14820.64
443.328	14193.96
443.534	15328.53
443.741	14865.69
443.948	14755.1
444.154	15973.64
444.361	16088.33
444.568	15959.31
444.774	16026.89
444.981	16270.6
445.187	16813.31
445.394	17421.56
445.6	16987.39
445.807	18683.11
446.013	17855.73
446.22	18283.75
446.426	18963.68
446.633	19305.69
446.839	19592.41
447.046	18910.43
447.252	19885.26
447.459	19850.45
447.665	19623.12
447.871	20651.2
448.078	21353.66
448.284	20298.95
448.491	21120.19
448.697	21906.61
448.903	22160.56
449.11	22330.54
449.316	22060.21
449.522	22576.3
449.728	22914.21
449.935	22987.94
450.141	22977.7
450.347	23628.95
450.553	22971.55
450.76	23340.19
450.966	24042.64
451.172	23594.14
451.378	24216.72
451.584	23843.99
451.791	24190.09
451.997	24421.52
452.203	24659.08
452.409	24427.66
452.615	24339.6
452.821	23401.63
453.027	23291.04
453.233	24616.07
453.44	23528.6
453.646	23850.13
453.852	23880.85
454.058	24517.77
454.264	23499.93
454.47	24186
454.676	23114.91
454.882	24218.77
455.088	21986.48
455.294	22490.28
455.5	22754.47
455.705	23180.45
455.911	21873.84
456.117	21363.9
456.323	21353.66
456.529	20174.03
456.735	20925.63
456.941	20407.5
457.147	20065.49
457.352	19528.92
457.558	19248.35
457.764	19559.64
457.97	18949.34
458.176	18625.76
458.381	18412.78
458.587	17646.83
458.793	17460.47
458.999	16585.99
459.204	17747.19
459.41	17476.85
459.616	16299.27
459.821	16241.93
460.027	16282.89
460.233	15797.52
460.438	15334.68
460.644	15070.49
460.85	14404.9
461.055	14083.37
461.261	14200.1
461.466	13202.74
461.672	12559.68
461.878	13653.3
462.083	12864.83
462.289	12385.6
462.494	12244.29
462.7	11912.52
462.905	11498.83
463.111	12096.84
463.316	12158.28
463.522	11615.57
463.727	11572.56
463.932	11603.28
464.138	11554.13
464.343	11584.85
464.549	11197.78
464.754	11545.94
464.959	11470.16
465.165	11634
465.37	10909.02
465.575	10562.91
465.781	11253.08
465.986	11269.46
466.191	10589.53
466.397	10444.13
466.602	10071.4
466.807	10366.31
467.012	10538.34
467.218	10427.74
467.423	10132.84
467.628	10409.31
467.833	10507.62
468.038	10421.6
468.244	10093.93
468.449	10464.61
468.654	10089.83
468.859	9864.55
469.064	10085.73
469.269	9700.72
469.474	9831.79
469.679	10167.65
469.885	9514.35
470.09	9829.74
470.295	9491.82
470.5	9180.53
470.705	9450.86
470.91	9332.08
471.115	9151.86
471.32	9225.59
471.525	9342.32
471.73	9053.56
471.935	8955.26
472.139	8594.81
472.344	8887.67
472.549	8568.19
472.754	8578.43
472.959	8496.51
473.164	8162.69
473.369	8107.4
473.574	8353.15
473.778	8265.09
473.983	8158.6
474.188	8338.82
474.393	7685.51
474.598	7966.09
474.802	7775.63
475.007	7710.09
475.212	7662.99
475.417	7341.46
475.621	7470.48
475.826	7509.39
476.031	7243.15
476.235	7228.82
476.44	7480.72
476.645	7150.99
476.849	7267.73
477.054	6962.58
477.259	6895
477.463	6978.97
477.668	6938.01
477.872	6788.5
478.077	6696.35
478.282	6581.66
478.486	6487.45
478.691	6485.41
478.895	6307.23
479.1	6487.45
479.304	6514.08
479.509	6448.54
479.713	6354.34
479.918	6323.62
480.122	6348.19
480.326	6413.73
480.531	6276.51
480.735	6245.79
480.94	6247.84
481.144	6387.1
481.348	6006.18
481.553	6235.55
481.757	6022.56
481.961	5957.03
482.166	5952.93
482.37	5975.46
482.574	5930.41
482.778	6102.43
482.983	6075.81
483.187	5909.93
483.391	6002.08
483.595	6010.28
483.8	5916.07
484.004	5989.8
484.208	5989.8
484.412	6090.15
484.616	6067.62
484.821	6180.26
485.025	5662.12
485.229	6020.52
485.433	5881.25
485.637	5985.7
485.841	5963.17
486.045	6104.48
486.249	6051.24
486.453	5887.4
486.657	5963.17
486.861	5809.58
487.065	5817.77
487.269	6100.39
487.473	5809.58
487.677	5809.58
487.881	6188.45
488.085	5817.77
488.289	6004.13
488.493	6071.72
488.697	6167.97
488.901	6030.76
489.105	5938.6
489.309	5979.56
489.512	6063.52
489.716	6051.24
489.92	6196.64
490.124	5965.22
490.328	6004.13
490.531	5983.65
490.735	6299.04
490.939	6147.49
491.143	5965.22
491.346	6010.28
491.55	6276.51
491.754	6084
491.958	6239.65
492.161	6262.18
492.365	6313.38
492.569	6208.93
492.772	6247.84
492.976	6342.05
493.18	6366.62
493.383	6288.8
493.587	6432.16
493.79	6497.69
493.994	6331.81
494.197	6471.07
494.401	6522.27
494.605	6657.43
494.808	6878.62
495.012	6845.85
495.215	6704.54
495.419	6872.47
495.622	6839.7
495.825	6798.74
496.029	6993.3
496.232	7126.42
496.436	7128.47
496.639	7200.15
496.843	7251.35
497.046	7320.98
497.249	7366.03
497.453	7466.38
497.656	7345.55
497.859	7710.09
498.063	7691.66
498.266	7570.83
498.469	7710.09
498.673	7828.87
498.876	8015.24
499.079	7937.41
499.282	7863.69
499.485	8074.63
499.689	8197.51
499.892	8283.52
500.095	8088.96
500.298	8510.85
500.501	8430.98
500.705	8592.76
500.908	8795.51
501.111	8754.55
501.314	8705.4
501.517	9057.65
501.72	8969.59
501.923	9014.65
502.126	9239.92
502.329	9657.71
502.532	9475.44
502.735	9643.37
502.938	9780.59
503.141	9878.89
503.344	9987.43
503.547	10278.24
503.75	10177.89
503.953	10237.28
504.156	10386.79
504.359	10390.88
504.562	10442.08
504.765	10540.38
504.968	10591.58
505.17	10751.32
505.373	10849.63
505.576	11261.27
505.779	11212.12
505.982	11208.02
506.185	11568.46
506.387	11527.5
506.59	11578.7
506.793	11896.14
506.996	11855.18
507.198	12111.18
507.401	12164.42
507.604	12303.68
507.807	12465.47
508.009	12662.08
508.212	12670.27
508.415	12938.55
508.617	12907.84
508.82	12991.8
509.022	12999.99
509.225	13458.74
509.428	13491.51
509.63	13458.74
509.833	13679.92
510.035	13833.52
510.238	13972.78
510.44	14099.75
510.643	14376.23
510.845	14288.17
511.048	14460.2
511.25	14595.36
511.453	14654.75
511.655	15017.24
511.858	15004.96
512.06	15133.98
512.262	15213.85
512.465	15197.46
512.667	15422.74
512.87	15670.54
513.072	15664.4
513.274	15848.72
513.477	16164.11
513.679	15955.21
513.881	16309.51
514.084	16694.53
514.286	16672
514.488	16592.13
514.69	17091.84
514.893	17052.92
515.095	17024.25
515.297	17411.32
515.499	17396.98
515.701	17810.67
515.904	17816.82
516.106	18066.67
516.308	18271.47
516.51	18380.01
516.712	18621.67
516.914	18627.81
517.116	18646.24
517.318	18951.39
517.52	19123.42
517.722	19320.03
517.925	19442.9
518.127	19819.73
518.329	19842.26
518.531	19606.74
518.733	20063.44
518.935	20440.26
519.136	20290.76
519.338	20645.06
519.54	20911.3
519.742	21060.8
519.944	21023.94
520.146	21517.5
520.348	21576.89
520.55	21683.38
520.752	21841.07
520.954	21918.9
521.155	21982.38
521.357	22434.99
521.559	22658.21
521.761	22762.66
521.963	23108.77
522.164	23243.93
522.366	23137.44
522.568	23475.35
522.77	23870.61
522.971	24280.21
523.173	23839.89
523.375	24181.9
523.576	23997.59
523.778	24302.73
523.98	24683.66
524.181	24712.33
524.383	24947.84
524.584	25191.55
524.786	25302.14
524.988	25140.35
525.189	25543.8
525.391	25695.35
525.592	26219.63
525.794	25930.87
525.995	26350.7
526.197	25916.53
526.398	26395.76
526.6	26590.31
526.801	26684.52
527.003	26881.13
527.204	26950.76
527.406	27169.89
527.607	27427.93
527.808	27368.54
528.01	27114.59
528.211	27546.72
528.412	27956.31
528.614	28032.08
528.815	27802.71
529.016	28300.37
529.218	28025.94
529.419	28173.39
529.62	28197.97
529.822	28349.52
530.023	28560.46
530.224	28890.18
530.425	28425.29
530.626	28245.07
530.828	28695.63
531.029	29396.03
531.23	29017.16
531.431	28576.84
531.632	29396.03
531.833	29426.75
532.035	29289.54
532.236	29428.8
532.437	29406.27
532.638	29359.17
532.839	29766.71
533.04	29566.01
533.241	29494.33
533.442	30039.09
533.643	29830.2
533.844	29883.45
534.045	29588.54
534.246	29510.72
534.447	29764.67
534.648	29871.16
534.849	29748.28
535.05	29643.84
535.251	29905.98
535.451	29897.78
535.652	29811.77
535.853	29787.19
536.054	30340.15
536.255	30471.22
536.456	29781.05
536.657	30608.43
536.857	30092.34
537.058	29795.39
537.259	30577.71
537.46	30264.37
537.66	29803.58
537.861	30166.07
538.062	30200.88
538.263	29963.32
538.463	30217.27
538.664	29965.37
538.865	30372.91
539.065	30293.04
539.266	29822.01
539.466	30309.43
539.667	29731.9
539.868	30448.69
540.068	30098.48
540.269	30403.63
540.469	30377.01
540.67	30235.7
540.87	30272.56
541.071	30190.64
541.271	30399.54
541.472	30444.59
541.672	30096.44
541.873	30127.16
542.073	30149.68
542.274	30579.76
542.474	30372.91
542.675	30116.92
542.875	30102.58
543.075	30254.13
543.276	29946.94
543.476	30692.4
543.676	29879.35
543.877	30325.81
544.077	30129.2
544.277	30108.72
544.478	30508.08
544.678	30313.52
544.878	30338.1
545.078	30489.65
545.279	30123.06
545.479	30035
545.679	30164.02
545.879	30475.31
546.079	30415.92
546.28	30141.49
546.48	29989.94
546.68	30282.8
546.88	30164.02
547.08	30368.82
547.28	30178.36
547.48	29914.17
547.68	30127.16
547.88	30018.61
548.081	30325.81
548.281	30233.65
548.481	29770.81
548.681	30395.44
548.881	30217.27
549.081	30067.77
549.28	30041.14
549.48	30161.97
549.68	30336.05
549.88	30608.43
550.08	30409.78
550.28	30063.67
550.48	30194.74
550.68	30127.16
550.88	29860.92
551.08	30030.9
551.279	30207.03
551.479	30073.91
551.679	29959.22
551.879	29748.28
552.079	30078.01
552.278	30071.86
552.478	29899.83
552.678	30157.88
552.878	29969.46
553.077	30166.07
553.277	29621.31
553.477	30204.98
553.676	29783.1
553.876	30073.91
554.076	29652.03
554.275	29838.39
554.475	29250.63
554.674	29832.25
554.874	29547.58
555.074	29725.75
555.273	29744.19
555.473	29629.5
555.672	29303.87
555.872	29668.41
556.071	29525.05
556.271	29756.47
556.47	29715.51
556.67	29090.88
556.869	29371.46
557.068	29242.43
557.268	28931.14
557.467	29094.98
557.667	28904.52
557.866	29070.4
558.065	28832.84
558.265	28808.26
558.464	28918.85
558.663	29088.84
558.863	28843.08
559.062	29043.78
559.261	28626
559.461	28638.28
559.66	28615.76
559.859	28619.85
560.058	28247.12
560.258	28388.43
560.457	28015.7
560.656	28286.03
560.855	27933.78
561.054	28300.37
561.253	27874.39
561.453	27825.24
561.652	28210.26
561.851	27958.36
562.05	27630.68
562.249	27737.18
562.448	27608.15
562.647	27763.8
562.846	27249.76
563.045	27659.35
563.244	27210.85
563.443	27612.25
563.642	26778.73
563.841	26784.87
564.04	26956.9
564.239	27108.45
564.438	26834.02
564.637	26670.19
564.836	26766.44
565.035	26438.76
565.234	26612.84
565.432	26291.31
565.631	26240.11
565.83	26479.72
566.029	25998.45
566.228	26373.23
566.427	25867.38
566.625	25599.1
566.824	25777.27
567.023	25713.78
567.222	25289.85
567.42	25896.05
567.619	25535.61
567.818	25492.6
568.016	25633.91
568.215	25386.11
568.414	25365.63
568.612	25326.72
568.811	24892.55
569.01	25021.57
569.208	24808.58
569.407	25142.4
569.605	24603.78
569.804	24571.02
570.002	24468.62
570.201	25138.3
570.4	24200.33
570.598	24165.52
570.797	24038.55
570.995	24104.08
571.193	23665.81
571.392	24030.35
571.59	23880.85
571.789	23897.24
571.987	23719.06
572.186	23674.01
572.384	23372.96
572.582	23463.07
572.781	23415.96
572.979	23047.33
573.177	23237.79
573.376	23356.57
573.574	22957.22
573.772	23170.21
573.971	22951.07
574.169	22551.72
574.367	22596.78
574.565	22813.86
574.763	22414.51
574.962	22310.06
575.16	22379.69
575.358	22471.85
575.556	22117.55
575.754	22588.58
575.952	21746.87
576.151	22099.12
576.349	21931.19
576.547	21802.16
576.745	21955.76
576.943	21796.02
577.141	22103.21
577.339	21943.47
577.537	21228.73
577.735	21660.85
577.933	21365.95
578.131	21716.15
578.329	21331.13
578.527	21105.85
578.725	21324.99
578.923	21357.75
579.121	21150.91
579.319	21132.48
579.516	21052.61
579.714	20976.83
579.912	20939.97
580.11	20724.93
580.308	20518.09
580.506	20665.54
580.704	20393.16
580.901	20561.09
581.099	20663.49
581.297	20618.44
581.495	20284.62
581.692	20313.29
581.89	20206.8
582.088	20243.66
582.285	20102.35
582.483	19989.71
582.681	19758.29
582.878	19924.18
583.076	19719.38
583.274	19819.73
583.471	19549.4
583.669	19655.89
583.866	19455.19
584.064	19588.31
584.262	19412.18
584.459	19610.84
584.657	18980.06
584.854	19205.34
585.052	18937.06
585.249	19156.19
585.447	19137.76
585.644	18789.6
585.841	19094.75
586.039	19016.93
586.236	18781.41
586.434	18857.18
586.631	18705.63
586.828	18580.71
587.026	18693.35
587.223	18531.56
587.42	18408.68
587.618	18506.98
587.815	18552.04
588.012	18099.44
588.21	18267.37
588.407	18578.66
588.604	18164.97
588.801	18126.06
588.999	18115.82
589.196	17999.09
589.393	18044.14
589.59	18121.96
589.787	17874.16
589.984	18124.01
590.182	17433.85
590.379	17732.85
590.576	17442.04
590.773	17755.38
590.97	17652.98
591.167	17427.7
591.364	17327.35
591.561	17573.11
591.758	17272.06
591.955	17415.41
592.152	17267.96
592.349	17067.26
592.546	17001.72
592.743	16979.2
592.94	16907.52
593.137	17089.79
593.334	17063.16
593.531	16772.35
593.727	16991.48
593.924	16770.3
594.121	16702.72
594.318	16712.96
594.515	16565.51
594.712	16803.07
594.908	16440.58
595.105	16540.93
595.302	16178.44
595.499	16375.05
595.696	16428.29
595.892	16035.08
596.089	16289.03
596.286	16274.7
596.482	15904.01
596.679	15963.4
596.876	15955.21
597.072	15914.25
597.269	15885.58
597.466	16030.99
597.662	15809.81
597.859	15772.94
598.055	15791.38
598.252	15736.08
598.448	15523.09
598.645	15674.64
598.841	15492.37
599.038	15557.91
599.234	15555.86
599.431	15217.94
599.627	15463.7
599.824	15473.94
600.02	15275.29
600.217	15365.4
600.413	15244.57
600.609	15095.07
600.806	14873.89
601.002	15004.96
601.198	15070.49
601.395	14636.32
601.591	14740.77
601.787	14591.27
601.984	14615.84
602.18	14802.21
602.376	14609.7
602.572	14503.2
602.769	14751.01
602.965	14378.28
603.161	14626.08
603.357	14353.7
603.553	14325.03
603.75	14204.2
603.946	14097.7
604.142	14261.54
604.338	14181.67
604.534	14208.3
604.73	14175.53
604.926	14007.59
605.122	13798.7
605.318	13886.76
605.514	14005.55
605.71	13983.02
605.906	13927.72
606.102	13645.1
606.298	13753.65
606.494	13647.15
606.69	13649.2
606.886	13665.58
607.082	13436.21
607.278	13796.65
607.474	13444.4
607.67	13538.61
607.866	13043
608.062	13456.69
608.257	13204.79
608.453	13411.64
608.649	13266.23
608.845	13049.14
609.041	13174.07
609.236	13241.65
609.432	13053.24
609.628	13071.67
609.824	12983.61
610.019	13192.5
610.215	13014.33
610.411	12991.8
610.606	13059.38
610.802	12975.42
610.998	12815.68
611.193	13004.09
611.389	12870.97
611.584	12690.75
611.78	12567.87
611.976	12811.58
612.171	12657.98
612.367	12647.74
612.562	12696.89
612.758	12344.64
612.953	12463.43
613.149	12596.54
613.344	12494.15
613.539	12846.4
613.735	12565.82
613.93	12606.78
614.126	12395.84
614.321	12592.45
614.517	12467.52
614.712	12373.32
614.907	12361.03
615.103	12483.91
615.298	12387.65
615.493	12107.08
615.688	12193.09
615.884	12401.99
616.079	11920.71
616.274	12473.67
616.47	11935.05
616.665	12236.1
616.86	12053.83
617.055	12211.53
617.25	11904.33
617.445	12057.93
617.641	11447.63
617.836	12021.06
618.031	11840.84
618.226	11994.44
618.421	11846.99
618.616	11863.37
618.811	11701.58
619.006	11892.04
619.201	11617.61
619.396	11629.9
619.591	11484.5
619.786	11722.06
619.981	11382.1
620.176	11482.45
620.371	11349.33
620.566	11445.59
620.761	11187.54
620.956	11054.42
621.151	11013.46
621.346	11285.84
621.541	11076.95
621.735	11244.88
621.93	11038.04
622.125	11072.86
622.32	10892.63
622.515	10689.88
622.709	10683.74
622.904	10804.57
623.099	10700.12
623.294	10558.81
623.488	10544.48
623.683	10558.81
623.878	10603.87
624.072	10372.45
624.267	10288.48
624.462	10345.83
624.656	10313.06
624.851	10181.99
625.046	10274.15
625.24	10046.82
625.435	9758.06
625.629	9991.53
625.824	9887.08
626.018	9786.73
626.213	9684.33
626.407	9743.72
626.602	9602.41
626.796	9889.13
626.991	9473.39
627.185	9608.56
627.38	9540.97
627.574	9450.86
627.768	9379.18
627.963	9323.89
628.157	9287.03
628.352	9207.16
628.546	8942.97
628.74	9235.83
628.935	8992.12
629.129	9012.6
629.323	9016.69
629.517	8859
629.712	9106.81
629.906	8906.1
630.1	8902.01
630.294	8594.81
630.489	8670.59
630.683	8930.68
630.877	8598.91
631.071	8680.83
631.265	8445.31
631.459	8533.37
631.653	8424.83
631.848	8363.39
632.042	8390.02
632.236	8347.01
632.43	8435.07
632.624	8379.78
632.818	8402.3
633.012	8101.25
633.206	8097.16
633.4	7955.85
633.594	7865.74
633.788	8324.48
633.982	8052.1
634.176	7990.66
634.369	7828.87
634.563	7767.43
634.757	7785.87
634.951	7732.62
635.145	7640.46
635.339	7505.29
635.533	7595.4
635.726	7757.19
635.92	7531.92
636.114	7593.36
636.308	7542.16
636.501	7359.89
636.695	7380.37
636.889	7409.04
637.083	7298.45
637.276	7216.53
637.47	7277.97
637.664	7087.51
637.857	7064.98
638.051	7081.36
638.244	7210.39
638.438	6921.62
638.632	6968.73
638.825	7054.74
639.019	6981.01
639.212	6768.02
639.406	6837.66
639.599	6763.93
639.793	6890.9
639.986	6739.35
640.18	6616.48
640.373	6591.9
640.567	6624.67
640.76	6514.08
640.954	6583.71
641.147	6583.71
641.34	6571.42
641.534	6636.95
641.727	6602.14
641.92	6352.29
642.114	6217.12
642.307	6391.2
642.5	6358.43
642.694	6243.74
642.887	6088.1
643.08	6423.97
643.273	6000.04
643.467	6055.33
643.66	6071.72
643.853	6014.37
644.046	5995.94
644.239	5940.65
644.432	5973.41
644.626	5871.01
644.819	6006.18
645.012	5928.36
645.205	5907.88
645.398	6022.56
645.591	5739.94
645.784	5836.2
645.977	5668.27
646.17	5750.18
646.363	5602.73
646.556	5580.2
646.749	5684.65
646.942	5631.4
647.135	5586.35
647.328	5438.89
647.521	5471.66
647.714	5465.52
647.907	5387.69
648.099	5551.53
648.292	5498.28
648.485	5416.37
648.678	5365.17
648.871	5408.17
649.064	5258.67
649.256	5277.1
649.449	5289.39
649.642	5207.47
649.835	5166.51
650.027	5137.84
650.22	5035.44
650.413	5162.42
650.605	5154.23
650.798	5072.31
650.991	5088.69
651.183	4994.48
651.376	4885.94
651.568	4928.95
651.761	4871.61
651.954	4916.66
652.146	4818.36
652.339	5021.11
652.531	4855.22
652.724	4826.55
652.916	4832.69
653.109	4687.29
653.301	4591.03
653.494	4781.5
653.686	4810.17
653.879	4859.32
654.071	4603.32
654.263	4691.38
654.456	4605.37
654.648	4701.62
654.84	4457.92
655.033	4527.55
655.225	4636.09
655.417	4521.4
655.61	4595.13
655.802	4416.96
655.994	4621.75
656.186	4359.61
656.379	4408.76
656.571	4447.68
656.763	4212.16
656.955	4378.05
657.148	4351.42
657.34	4263.36
657.532	4416.96
657.724	4242.88
657.916	4218.3
658.108	4404.67
658.3	4369.85
658.492	4242.88
658.684	4152.77
658.876	4208.06
659.068	4072.9
659.26	4128.19
659.452	4038.08
659.644	4124.1
659.836	4177.34
660.028	4203.97
660.22	4101.57
660.412	4011.46
660.604	4054.47
660.796	3941.83
660.988	4085.19
661.18	3984.84
661.372	3982.79
661.563	4001.22
661.755	3896.77
661.947	3884.48
662.139	3851.72
662.331	3950.02
662.522	3970.5
662.714	3931.59
662.906	3874.24
663.097	3833.29
663.289	3732.94
663.481	3767.75
663.673	3882.44
663.864	3839.43
664.056	3712.46
664.247	3825.09
664.439	3786.18
664.631	3726.79
664.822	3732.94
665.014	3728.84
665.205	3802.57
665.397	3669.45
665.588	3757.51
665.78	3724.74
665.971	3659.21
666.163	3638.73
666.354	3653.06
666.546	3737.03
666.737	3769.8
666.929	3700.17
667.12	3648.97
667.311	3593.67
667.503	3544.52
667.694	3622.34
667.885	3565
668.077	3679.69
668.268	3605.96
668.459	3554.76
668.651	3626.44
668.842	3628.49
669.033	3519.95
669.224	3503.56
669.416	3612.1
669.607	3579.34
669.798	3640.78
669.989	3579.34
670.18	3624.39
670.371	3560.91
670.563	3495.37
670.754	3675.59
670.945	3530.19
671.136	3653.06
671.327	3573.19
671.518	3489.23
671.709	3573.19
671.9	3593.67
672.091	3499.47
672.282	3638.73
672.473	3507.66
672.664	3540.43
672.855	3505.61
673.046	3622.34
673.237	3655.11
673.428	3552.71
673.619	3675.59
673.809	3597.77
674	3595.72
674.191	3585.48
674.382	3610.06
674.573	3653.06
674.764	3585.48
674.954	3696.07
675.145	3464.65
675.336	3534.28
675.527	3519.95
675.717	3745.22
675.908	3595.72
676.099	3691.98
676.289	3696.07
676.48	3554.76
676.671	3679.69
676.861	3632.58
677.052	3732.94
677.243	3753.41
677.433	3687.88
677.624	3667.4
677.814	3630.54
678.005	3796.42
678.195	3806.66
678.386	3773.89
678.576	3655.11
678.767	3784.13
678.957	3767.75
679.148	3808.71
679.338	3804.61
679.529	3694.02
679.719	3780.04
679.909	3868.1
680.1	3876.29
680.29	3810.76
680.481	3972.55
680.671	3892.68
680.861	3966.4
681.052	3917.25
681.242	3947.97
681.432	4007.36
681.622	3878.34
681.813	4046.27
682.003	4027.84
682.193	3927.49
682.383	4062.66
682.573	3919.3
682.764	3917.25
682.954	3925.44
683.144	4150.72
683.334	4005.31
683.524	4048.32
683.714	4060.61
683.904	4064.71
684.094	3986.88
684.284	3915.2
684.474	4089.28
684.664	4070.85
684.854	3988.93
685.044	4134.34
685.234	3999.17
685.424	3995.08
685.614	4007.36
685.804	3974.6
685.994	4076.99
686.184	4052.42
686.374	3921.35
686.564	4064.71
686.753	3919.3
686.943	3933.64
687.133	3818.95
687.323	3947.97
687.513	3925.44
687.702	4056.51
687.892	3857.86
688.082	3810.76
688.272	3886.53
688.461	3825.09
688.651	3909.06
688.841	3732.94
689.03	3888.58
689.22	3765.7
689.41	3638.73
689.599	3716.55
689.789	3702.22
689.979	3696.07
690.168	3821
690.358	3550.67
690.547	3567.05
690.737	3540.43
690.926	3546.57
691.116	3472.84
691.305	3560.91
691.495	3548.62
691.684	3442.12
691.874	3499.47
692.063	3321.29
692.252	3405.26
692.442	3481.03
692.631	3284.43
692.82	3290.57
693.01	3153.36
693.199	3392.97
693.388	3225.04
693.578	3231.18
693.767	3122.64
693.956	3245.52
694.146	3155.41
694.335	3159.5
694.524	3192.27
694.713	3128.78
694.902	3161.55
695.092	3120.59
695.281	3163.6
695.47	3087.82
695.659	3003.86
695.848	3093.97
696.037	3139.02
696.226	3040.72
696.415	2964.95
696.604	3104.21
696.793	3075.54
696.982	3014.1
697.171	3171.79
697.36	3036.63
697.549	3010
697.738	2991.57
697.927	3005.91
698.116	2923.99
698.305	2868.69
698.494	2964.95
698.683	2870.74
698.872	2964.95
699.061	2883.03
699.25	2852.31
699.438	2844.12
699.627	2938.32
699.816	3001.81
700.005	2850.26
700.193	2831.83
700.382	2946.52
700.571	2917.84
700.76	2835.92
700.948	2942.42
701.137	2987.47
701.326	2842.07
701.514	2872.79
701.703	2889.17
701.892	2766.29
702.08	2995.67
702.269	2891.22
702.457	2983.38
702.646	2889.17
702.834	2891.22
703.023	2917.84
703.212	2934.23
703.4	2969.04
703.589	2926.04
703.777	2899.41
703.965	2946.52
704.154	2958.8
704.342	2919.89
704.531	2979.28
704.719	2819.54
704.907	3071.44
705.096	2923.99
705.284	2864.6
705.472	3024.34
705.661	2979.28
705.849	2995.67
706.037	2979.28
706.226	3007.95
706.414	3040.72
706.602	2956.75
706.79	3028.43
706.979	3018.19
707.167	2923.99
707.355	2944.47
707.543	2991.57
707.731	3020.24
707.919	3177.94
708.107	3145.17
708.296	3225.04
708.484	3118.54
708.672	3261.9
708.86	3141.07
709.048	3071.44
709.236	3204.56
709.424	3237.33
709.612	3276.24
709.8	3151.31
709.988	3229.13
710.176	3220.94
710.364	3141.07
710.551	3253.71
710.739	3241.42
710.927	3319.25
711.115	3292.62
711.303	3261.9
711.491	3409.36
711.679	3200.46
711.866	3317.2
712.054	3347.92
712.242	3376.59
712.43	3462.6
712.617	3343.82
712.805	3495.37
712.993	3415.5
713.181	3489.23
713.368	3524.04
713.556	3376.59
713.744	3343.82
713.931	3618.25
714.119	3360.2
714.306	3417.55
714.494	3536.33
714.682	3485.13
714.869	3562.95
715.057	3737.03
715.244	3509.71
715.432	3544.52
715.619	3587.53
715.807	3677.64
715.994	3644.87
716.182	3573.19
716.369	3726.79
716.556	3702.22
716.744	3614.15
716.931	3741.13
717.119	3896.77
717.306	3720.65
717.493	3712.46
717.681	3884.48
717.868	3874.24
718.055	3892.68
718.242	4017.6
718.43	3941.83
718.617	3915.2
718.804	3993.03
718.991	4097.47
719.179	3935.68
719.366	3978.69
719.553	3925.44
719.74	4054.47
719.927	3966.4
720.114	3974.6
720.301	4130.24
720.488	4105.67
720.676	3990.98
720.863	4314.56
721.05	4138.43
721.237	4140.48
721.424	4208.06
721.611	4232.64
721.798	4195.78
721.985	4160.96
722.172	4113.86
722.358	4228.54
722.545	4310.46
722.732	4300.22
722.919	4410.81
723.106	4306.37
723.293	4349.37
723.48	4441.53
723.667	4228.54
723.853	4396.48
724.04	4545.98
724.227	4423.1
724.414	4437.44
724.6	4421.05
724.787	4423.1
724.974	4431.29
725.161	4412.86
725.347	4402.62
725.534	4521.4
725.72	4670.9
725.907	4494.78
726.094	4488.64
726.28	4658.62
726.467	4597.18
726.653	4621.75
726.84	4586.94
727.027	4687.29
727.213	4556.22
727.4	4701.62
727.586	4588.99
727.773	4586.94
727.959	4615.61
728.145	4765.11
728.332	4713.91
728.518	4732.34
728.705	4963.76
728.891	4654.52
729.077	4765.11
729.264	4664.76
729.45	4842.93
729.636	4851.13
729.823	4771.26
730.009	4773.3
730.195	4832.69
730.382	4824.5
730.568	4851.13
730.754	4758.97
730.94	4769.21
731.126	5035.44
731.313	4933.04
731.499	4877.75
731.685	4959.67
731.871	4916.66
732.057	5084.59
732.243	5006.77
732.429	4890.04
732.615	4937.14
732.801	4998.58
732.987	5064.11
733.173	4967.86
733.359	5055.92
733.545	5006.77
733.731	5031.35
733.917	5113.27
734.103	5070.26
734.289	4998.58
734.475	5037.49
734.661	5010.87
734.847	5107.12
735.033	5135.79
735.219	5031.35
735.404	5076.4
735.59	5119.41
735.776	5010.87
735.962	5195.18
736.148	5127.6
736.333	5109.17
736.519	5143.99
736.705	5252.53
736.89	4883.89
737.076	5092.79
737.262	4953.52
737.447	5100.98
737.633	5105.07
737.819	5170.61
738.004	5105.07
738.19	4961.72
738.375	5088.69
738.561	5049.78
738.747	5043.64
738.932	5195.18
739.118	5115.31
739.303	4965.81
739.489	5021.11
739.674	4965.81
739.859	5062.07
740.045	5060.02
740.23	5105.07
740.416	4947.38
740.601	4998.58
740.786	5119.41
740.972	5127.6
741.157	4906.42
741.342	4959.67
741.528	4844.98
741.713	4941.24
741.898	4941.24
742.084	5094.83
742.269	4984.24
742.454	4840.89
742.639	5031.35
742.824	4896.18
743.01	4933.04
743.195	5088.69
743.38	4873.65
743.565	4877.75
743.75	4783.54
743.935	4810.17
744.12	4883.89
744.305	4693.43
744.49	4752.82
744.675	4775.35
744.86	4738.49
745.045	4736.44
745.23	4693.43
745.415	4642.23
745.6	4783.54
745.785	4593.08
745.97	4652.47
746.155	4660.66
746.34	4595.13
746.525	4439.48
746.71	4574.65
746.895	4392.38
747.079	4447.68
747.264	4478.4
747.449	4605.37
747.634	4416.96
747.819	4466.11
748.003	4341.18
748.188	4431.29
748.373	4244.93
748.557	4269.5
748.742	4128.19
748.927	4218.3
749.111	4283.84
749.296	4064.71
749.481	4261.31
749.665	4017.6
749.85	3990.98
750.034	4107.71
750.219	4056.51
750.404	4027.84
750.588	3872.2
750.773	4017.6
750.957	3904.96
751.141	3941.83
751.326	3859.91
751.51	3925.44
751.695	3804.61
751.879	3939.78
752.064	3814.85
752.248	3864.01
752.432	3745.22
752.617	3667.4
752.801	3786.18
752.985	3675.59
753.17	3700.17
753.354	3700.17
753.538	3696.07
753.722	3505.61
753.907	3491.27
754.091	3481.03
754.275	3440.08
754.459	3438.03
754.643	3341.77
754.828	3458.51
755.012	3397.07
755.196	3345.87
755.38	3286.48
755.564	3325.39
755.748	3216.85
755.932	3347.92
756.116	3163.6
756.3	3249.61
756.484	3237.33
756.668	3196.37
756.852	3083.73
757.036	3130.83
757.22	3128.78
757.404	3196.37
757.588	3098.06
757.772	3026.39
757.956	2975.19
758.14	2971.09
758.323	2973.14
758.507	2995.67
758.691	2923.99
758.875	2897.36
759.059	2948.56
759.242	2815.45
759.426	2901.46
759.61	2782.68
759.794	2899.41
759.977	2825.68
760.161	2856.4
760.345	2801.11
760.528	2794.97
760.712	2704.85
760.895	2790.87
761.079	2696.66
761.263	2602.46
761.446	2680.28
761.63	2694.61
761.813	2733.53
761.997	2649.56
762.18	2608.6
762.364	2651.61
762.547	2506.2
762.731	2549.21
762.914	2526.68
763.098	2348.51
763.281	2561.5
763.464	2465.24
763.648	2440.67
763.831	2368.99
764.015	2383.32
764.198	2397.66
764.381	2407.9
764.564	2442.71
764.748	2352.6
764.931	2387.42
765.114	2348.51
765.297	2366.94
765.481	2348.51
765.664	2360.8
765.847	2289.12
766.03	2254.3
766.213	2303.45
766.397	2282.97
766.58	2268.64
766.763	2379.23
766.946	2205.15
767.129	2332.12
767.312	2248.16
767.495	2274.78
767.678	2170.33
767.861	2282.97
768.044	2137.57
768.227	2131.42
768.41	2123.23
768.593	2090.46
768.776	2196.96
768.959	2123.23
769.142	2160.1
769.324	2137.57
769.507	2084.32
769.69	2100.7
769.873	2115.04
770.056	2049.5
770.239	2035.17
770.421	2059.74
770.604	1986.02
770.787	2065.89
770.97	2080.22
771.152	1992.16
771.335	1992.16
771.518	1877.48
771.7	1998.31
771.883	1842.66
772.066	1947.11
772.248	1857
772.431	1940.96
772.613	1875.43
772.796	1924.58
772.978	1826.28
773.161	1924.58
773.343	1760.74
773.526	1783.27
773.708	1697.25
773.891	1750.5
774.073	1644.01
774.256	1666.53
774.438	1826.28
774.621	1697.25
774.803	1656.29
774.985	1598.95
775.168	1676.77
775.35	1562.09
775.532	1721.83
775.715	1566.18
775.897	1580.52
776.079	1641.96
776.261	1566.18
776.444	1617.38
776.626	1541.61
776.808	1598.95
776.99	1531.37
777.173	1596.9
777.355	1533.42
777.537	1521.13
777.719	1582.57
777.901	1420.78
778.083	1459.69
778.265	1336.81
778.447	1412.59
778.629	1498.6
778.811	1410.54
778.993	1349.1
779.175	1375.72
779.357	1441.26
779.539	1330.67
779.721	1398.25
779.903	1345
780.085	1326.57
780.267	1291.76
780.449	1312.24
780.631	1308.14
780.812	1383.91
780.994	1256.94
781.176	1295.85
781.358	1252.84
781.54	1304.04
781.721	1244.65
781.903	1142.25
782.085	1181.17
782.267	1295.85
782.448	1127.92
782.63	1119.73
782.812	1203.69
782.993	1177.07
783.175	1156.59
783.357	1136.11
783.538	1099.25
783.72	1029.62
783.901	1113.58
784.083	1195.5
784.264	1031.66
784.446	1086.96
784.627	1123.82
784.809	925.17
784.99	1019.38
785.172	980.47
785.353	1023.47
785.535	937.46
785.716	1031.66
785.897	990.7
786.079	892.4
786.26	996.85
786.441	941.55
786.623	898.55
786.804	939.51
786.985	904.69
787.167	1000.94
787.348	955.89
787.529	894.45
787.71	982.51
787.891	892.4
788.073	900.59
788.254	855.54
788.435	957.94
788.616	867.83
788.797	816.63
788.978	888.31
789.159	869.87
789.34	853.49
789.522	861.68
789.703	806.39
789.884	773.62
790.065	949.75
790.246	888.31
790.427	779.76
790.607	816.63
790.788	900.59
790.969	804.34
791.15	814.58
791.331	747
791.512	787.96
791.693	806.39
791.874	693.75
792.054	804.34
792.235	818.68
792.416	714.23
792.597	652.79
792.778	706.04
792.958	751.09
793.139	679.41
793.32	714.23
793.5	697.85
793.681	718.33
793.862	687.61
794.042	648.69
794.223	605.69
794.404	714.23
794.584	622.07
794.765	738.8
794.945	712.18
795.126	732.66
795.306	646.65
795.487	683.51
795.667	550.39
795.848	703.99
796.028	636.41
796.209	624.12
796.389	761.33
796.57	605.69
796.75	521.72
796.93	701.94
797.111	513.53
797.291	624.12
797.471	677.37
797.652	599.54
797.832	521.72
798.012	673.27
798.192	519.67
798.373	470.52
798.553	624.12
798.733	591.35
798.913	499.19
799.093	488.95
799.274	558.58
799.454	495.1
799.634	572.92
799.814	579.06
799.994	622.07
800.174	615.93
800.354	521.72
800.534	529.91
800.714	529.91
800.894	509.43
801.074	511.48
801.254	519.67
801.434	562.68
801.614	484.86
801.794	534.01
801.974	1365.48
802.154	552.44
802.334	534.01
802.514	468.47
802.693	507.38
802.873	491
803.053	517.62
803.233	521.72
803.413	509.43
803.592	488.95
803.772	439.8
803.952	501.24
804.131	474.62
804.311	505.34
804.491	491
804.67	472.57
804.85	452.09
805.03	484.86
805.209	450.04
805.389	445.95
805.568	464.38
805.748	441.85
805.928	404.99
806.107	554.49
806.287	390.65
806.466	425.47
806.646	392.7
806.825	472.57
807.004	427.51
807.184	392.7
807.363	419.32
807.543	419.32
807.722	378.36
807.901	357.88
808.081	433.66
808.26	359.93
808.439	450.04
808.619	329.21
808.798	390.65
808.977	316.92
809.156	476.66
809.336	404.99
809.515	394.75
809.694	314.88
809.873	310.78
810.052	382.46
810.231	300.54
810.411	357.88
810.59	361.98
810.769	407.03
810.948	409.08
811.127	288.25
811.306	349.69
811.485	370.17
811.664	382.46
811.843	398.84
812.022	361.98
812.201	341.5
812.38	464.38
812.559	296.44
812.737	304.64
812.916	370.17
813.095	341.5
813.274	351.74
813.453	384.51
813.632	427.51
813.811	286.2
813.989	327.16
814.168	386.55
814.347	310.78
814.526	255.48
814.704	421.37
814.883	312.83
815.062	300.54
815.24	392.7
815.419	267.77
815.598	310.78
815.776	263.68
815.955	370.17
816.133	206.33
816.312	396.79
816.49	329.21
816.669	296.44
816.847	253.44
817.026	302.59
817.204	257.53
817.383	275.96
817.561	251.39
817.74	378.36
817.918	325.12
818.097	302.59
818.275	288.25
818.453	273.92
818.632	247.29
818.81	308.73
818.988	222.72
819.167	220.67
819.345	286.2
819.523	214.52
819.701	220.67
819.879	286.2
820.058	251.39
820.236	300.54
820.414	273.92
820.592	296.44
820.77	232.96
820.948	265.72
821.127	169.47
821.305	251.39
821.483	292.35
821.661	263.68
821.839	247.29
822.017	222.72
822.195	235
822.373	312.83
822.551	255.48
822.729	308.73
822.907	138.75
823.085	216.57
823.262	253.44
823.44	251.39
823.618	247.29
823.796	243.2
823.974	239.1
824.152	179.71
824.329	253.44
824.507	196.09
824.685	214.52
824.863	226.81
825.04	171.52
825.218	288.25
825.396	189.95
825.574	255.48
825.751	196.09
825.929	212.48
826.107	194.05
826.284	230.91
826.462	267.77
826.639	173.57
826.817	120.32
826.994	255.48
827.172	253.44
827.349	226.81
827.527	189.95
827.704	185.85
827.882	237.05
828.059	239.1
828.237	189.95
828.414	232.96
828.591	210.43
828.769	126.46
828.946	239.1
829.124	196.09
829.301	206.33
829.478	206.33
829.655	173.57
829.833	214.52
830.01	204.28
830.187	136.7
830.364	302.59
830.542	200.19
830.719	239.1
830.896	122.37
831.073	239.1
831.25	204.28
831.427	192
831.604	173.57
831.782	116.22
831.959	163.33
832.136	130.56
832.313	206.33
832.49	165.37
832.667	146.94
832.844	140.8
833.021	280.06
833.198	210.43
833.374	120.32
833.551	196.09
833.728	142.85
833.905	235
834.082	189.95
834.259	177.66
834.436	120.32
834.612	116.22
834.789	220.67
834.966	97.79
835.143	118.27
835.319	138.75
835.496	142.85
835.673	122.37
835.85	187.9
836.026	165.37
836.203	198.14
836.38	138.75
836.556	132.61
836.733	116.22
836.909	169.47
837.086	116.22
837.262	136.7
837.439	151.04
837.616	99.84
837.792	44.54
837.968	251.39
838.145	54.78
838.321	148.99
838.498	140.8
838.674	136.7
838.851	130.56
839.027	85.5
839.203	142.85
839.38	148.99
839.556	138.75
839.732	144.89
839.909	214.52
840.085	198.14
840.261	81.41
840.437	83.45
840.614	62.98
840.79	163.33
840.966	161.28
841.142	130.56
841.318	171.52
841.494	148.99
841.671	194.05
841.847	128.51
842.023	108.03
842.199	144.89
842.375	155.13
842.551	124.41
842.727	67.07
842.903	171.52
843.079	99.84
843.255	173.57
843.431	112.13
843.607	128.51
843.783	95.74
843.959	99.84
844.134	140.8
844.31	126.46
844.486	165.37
844.662	101.89
844.838	114.17
845.013	126.46
845.189	50.69
845.365	79.36
845.541	101.89
845.716	50.69
845.892	79.36
846.068	81.41
846.244	75.26
846.419	114.17
846.595	93.69
846.77	103.93
846.946	105.98
847.122	17.92
847.297	173.57
847.473	148.99
847.648	71.17
847.824	108.03
847.999	15.87
848.175	112.13
848.35	73.21
848.526	181.76
848.701	108.03
848.876	130.56
849.052	146.94
849.227	83.45
849.403	114.17
849.578	67.07
849.753	75.26
849.929	124.41
850.104	48.64
850.279	77.31
850.454	103.93
850.63	75.26
850.805	110.08
850.98	120.32
851.155	138.75
851.33	124.41
851.505	58.88
851.681	99.84
851.856	44.54
852.031	71.17
852.206	99.84
852.381	26.11
852.556	83.45
852.731	89.6
852.906	169.47
853.081	97.79
853.256	87.55
853.431	75.26
853.606	116.22
853.781	40.45
853.956	40.45
854.131	34.3
854.305	40.45
854.48	99.84
854.655	17.92
854.83	56.83
855.005	38.4
855.18	81.41
855.354	81.41
855.529	73.21
855.704	24.06
855.879	62.98
856.053	50.69
856.228	112.13
856.403	7.68
856.577	95.74
856.752	99.84
856.926	153.09
857.101	48.64
857.276	105.98
857.45	58.88
857.625	58.88
857.799	40.45
857.974	73.21
858.148	54.78
858.323	34.3
858.497	67.07
858.672	-8.7
858.846	3.58
859.02	101.89
859.195	26.11
859.369	56.83
859.543	34.3
859.718	34.3
859.892	24.06
860.066	101.89
860.241	-27.14
860.415	108.03
860.589	42.5
860.763	75.26
860.938	30.21
861.112	46.59
861.286	52.74
861.46	83.45
861.634	3.58
861.808	120.32
861.982	58.88
862.157	9.73
862.331	50.69
862.505	17.92
862.679	46.59
862.853	22.02
863.027	62.98
863.201	148.99
863.375	7.68
863.549	48.64
863.722	40.45
863.896	42.5
864.07	7.68
864.244	32.26
864.418	65.02
864.592	-4.61
864.766	42.5
864.939	-25.09
865.113	50.69
865.287	83.45
865.461	-0.51
865.634	60.93
865.808	56.83
865.982	-64
866.156	46.59
866.329	13.82
866.503	83.45
866.676	120.32
866.85	-4.61
867.024	50.69
867.197	34.3
867.371	54.78
867.544	9.73
867.718	15.87
867.891	89.6
868.065	36.35
868.238	101.89
868.412	99.84
868.585	24.06
868.759	-8.7
868.932	83.45
869.105	-51.71
869.279	19.97
869.452	5.63
869.625	1.54
869.799	38.4
869.972	32.26
870.145	69.12
870.319	17.92
870.492	52.74
870.665	65.02
870.838	-25.09
871.011	-49.66
871.185	65.02
871.358	71.17
871.531	116.22
871.704	26.11
871.877	56.83
872.05	34.3
872.223	40.45
872.396	71.17
872.569	15.87
872.742	73.21
872.915	-35.33
873.088	110.08
873.261	3.58
873.434	30.21
873.607	-31.23
873.78	-47.62
873.953	-16.9
874.126	-0.51
874.299	99.84
874.471	26.11
874.644	-51.71
874.817	13.82
874.99	48.64
875.163	40.45
875.335	13.82
875.508	-6.66
875.681	95.74
875.853	22.02
876.026	-0.51
876.199	24.06
876.371	67.07
876.544	46.59
876.717	56.83
876.889	17.92
877.062	-10.75
877.234	-2.56
877.407	-31.23
877.579	58.88
877.752	-16.9
877.924	42.5
878.097	91.65
878.269	7.68
878.442	30.21
878.614	65.02
878.786	32.26
878.959	5.63
879.131	5.63
879.303	24.06
879.476	30.21
879.648	83.45
879.82	24.06
879.993	40.45
880.165	69.12
880.337	-25.09
880.509	-49.66
880.681	-43.52
880.854	-47.62
881.026	38.4
881.198	71.17
881.37	40.45
881.542	54.78
881.714	46.59
881.886	15.87
882.058	-31.23
882.23	3.58
882.402	-23.04
882.574	36.35
882.746	24.06
882.918	44.54
883.09	40.45
883.262	-23.04
883.434	-6.66
883.606	48.64
883.778	75.26
883.95	103.93
884.122	73.21
884.293	81.41
884.465	38.4
884.637	7.68
884.809	9.73
884.98	30.21
885.152	56.83
885.324	36.35
885.496	15.87
885.667	-29.18
885.839	-25.09
886.011	30.21
886.182	50.69
886.354	26.11
886.525	58.88
886.697	-12.8
886.869	9.73
887.04	-10.75
887.212	79.36
887.383	95.74
887.555	58.88
887.726	38.4
887.897	-6.66
888.069	13.82
888.24	73.21
888.412	26.11
888.583	13.82
888.754	-41.47
888.926	1.54
889.097	-39.42
889.268	34.3
889.44	56.83
889.611	-23.04
889.782	-12.8
889.953	-0.51
890.125	-41.47
890.296	-14.85
890.467	-84.48
890.638	-55.81
890.809	36.35
890.98	40.45
891.151	87.55
891.323	71.17
891.494	56.83
891.665	-4.61
891.836	-47.62
892.007	-55.81
892.178	7.68
892.349	26.11
892.52	-16.9
892.691	17.92
892.862	-6.66
893.032	-57.86
893.203	-88.57
893.374	13.82
893.545	73.21
893.716	-57.86
893.887	67.07
894.057	-23.04
894.228	22.02
894.399	1.54
894.57	56.83
894.74	-25.09
894.911	9.73
895.082	1.54
895.253	-16.9
895.423	-10.75
895.594	67.07
895.764	62.98
895.935	42.5
896.106	50.69
896.276	30.21
896.447	42.5
896.617	-14.85
896.788	-8.7
896.958	-49.66
897.129	-10.75
897.299	38.4
897.47	116.22
897.64	-2.56
897.81	-8.7
897.981	36.35
898.151	-39.42
898.322	73.21
898.492	60.93
898.662	7.68
898.832	-14.85
899.003	36.35
899.173	42.5
899.343	-20.99
899.513	-45.57
