Data from USB4F104151__72__11-31-35-655.txt Node

Date: Fri Mar 14 11:31:35 EDT 2025
User: louis
Spectrometer: USB4F10415
Trigger mode: 4
Integration Time (sec): 5.000000E-2
Scans to average: 1
Electric dark correction enabled: true
Nonlinearity correction enabled: false
Boxcar width: 0
XAxis mode: Wavelengths
Number of Pixels in Spectrum: 3648
>>>>>Begin Spectral Data<<<<<
178.204	-97.45
178.424	-97.45
178.644	-97.45
178.864	-220.33
179.084	-179.37
179.304	-19.63
179.524	-17.58
179.744	7
179.964	68.44
180.184	-44.2
180.404	-1.19
180.624	27.48
180.844	-38.06
181.064	9.05
181.283	-29.87
181.503	2.9
181.723	35.67
181.943	-146.6
182.163	47.96
182.383	-58.54
182.602	107.35
182.822	25.43
183.042	33.62
183.262	35.67
183.482	-25.77
183.701	-40.11
183.921	-1.19
184.141	19.29
184.361	-48.3
184.58	15.19
184.8	41.81
185.02	45.91
185.239	17.24
185.459	25.43
185.679	41.81
185.898	-70.83
186.118	84.82
186.338	66.39
186.557	11.09
186.777	-29.87
186.997	-81.07
187.216	0.85
187.436	113.49
187.655	2.9
187.875	86.87
188.095	7
188.314	-3.24
188.534	56.15
188.753	-5.29
188.973	68.44
189.192	21.33
189.412	133.97
189.631	27.48
189.851	2.9
190.07	2.9
190.29	-23.72
190.509	-38.06
190.729	76.63
190.948	27.48
191.168	146.26
191.387	9.05
191.607	-13.48
191.826	-15.53
192.045	-7.34
192.265	-1.19
192.484	35.67
192.704	78.68
192.923	-56.49
193.142	58.2
193.362	78.68
193.581	52.05
193.8	-83.11
194.02	29.52
194.239	19.29
194.458	43.86
194.678	11.09
194.897	33.62
195.116	-64.68
195.335	-15.53
195.555	-15.53
195.774	11.09
195.993	-5.29
196.212	64.34
196.432	27.48
196.651	41.81
196.87	11.09
197.089	45.91
197.308	117.59
197.528	27.48
197.747	11.09
197.966	-13.48
198.185	70.48
198.404	-128.17
198.623	37.72
198.842	33.62
199.062	70.48
199.281	146.26
199.5	-27.82
199.719	60.24
199.938	7
200.157	66.39
200.376	52.05
200.595	35.67
200.814	-54.44
201.033	-13.48
201.252	66.39
201.471	68.44
201.69	-23.72
201.909	45.91
202.128	11.09
202.347	64.34
202.566	7
202.785	0.85
203.004	-50.35
203.223	88.92
203.442	25.43
203.661	-9.39
203.879	54.1
204.098	52.05
204.317	-29.87
204.536	101.2
204.755	56.15
204.974	60.24
205.193	45.91
205.411	74.58
205.63	35.67
205.849	-11.43
206.068	33.62
206.287	58.2
206.505	-9.39
206.724	21.33
206.943	80.72
207.162	29.52
207.381	70.48
207.599	33.62
207.818	-11.43
208.037	39.76
208.255	-46.25
208.474	27.48
208.693	-29.87
208.911	-33.96
209.13	-19.63
209.349	7
209.567	74.58
209.786	41.81
210.005	76.63
210.223	33.62
210.442	-7.34
210.661	29.52
210.879	-46.25
211.098	-29.87
211.316	37.72
211.535	101.2
211.753	103.25
211.972	21.33
212.191	-3.24
212.409	-46.25
212.628	-42.15
212.846	2.9
213.065	93.01
213.283	66.39
213.502	35.67
213.72	31.57
213.938	50
214.157	-9.39
214.375	27.48
214.594	-7.34
214.812	93.01
215.031	-52.39
215.249	-9.39
215.467	76.63
215.686	-1.19
215.904	68.44
216.122	43.86
216.341	-29.87
216.559	13.14
216.778	84.82
216.996	50
217.214	-21.67
217.432	-5.29
217.651	-38.06
217.869	-17.58
218.087	17.24
218.306	58.2
218.524	31.57
218.742	-27.82
218.96	39.76
219.179	7
219.397	-1.19
219.615	109.4
219.833	70.48
220.051	27.48
220.27	70.48
220.488	84.82
220.706	2.9
220.924	31.57
221.142	-7.34
221.36	80.72
221.578	101.2
221.796	21.33
222.015	11.09
222.233	23.38
222.451	66.39
222.669	35.67
222.887	33.62
223.105	-23.72
223.323	19.29
223.541	11.09
223.759	97.11
223.977	68.44
224.195	101.2
224.413	43.86
224.631	78.68
224.849	19.29
225.067	113.49
225.285	-54.44
225.503	-29.87
225.721	35.67
225.939	21.33
226.157	21.33
226.375	109.4
226.592	33.62
226.81	33.62
227.028	35.67
227.246	47.96
227.464	27.48
227.682	-21.67
227.9	-29.87
228.117	15.19
228.335	-38.06
228.553	-62.63
228.771	62.29
228.989	15.19
229.206	82.77
229.424	13.14
229.642	-21.67
229.86	9.05
230.077	11.09
230.295	7
230.513	27.48
230.731	-17.58
230.948	60.24
231.166	58.2
231.384	29.52
231.601	15.19
231.819	39.76
232.037	43.86
232.254	23.38
232.472	-70.83
232.689	-23.72
232.907	4.95
233.125	-29.87
233.342	27.48
233.56	-38.06
233.777	-15.53
233.995	-5.29
234.213	-21.67
234.43	-1.19
234.648	35.67
234.865	15.19
235.083	45.91
235.3	70.48
235.518	7
235.735	154.45
235.953	86.87
236.17	17.24
236.388	-23.72
236.605	2.9
236.822	62.29
237.04	133.97
237.257	7
237.475	15.19
237.692	31.57
237.909	15.19
238.127	-9.39
238.344	-7.34
238.562	41.81
238.779	-109.74
238.996	-17.58
239.214	2.9
239.431	43.86
239.648	68.44
239.865	-15.53
240.083	11.09
240.3	7
240.517	-33.96
240.735	27.48
240.952	78.68
241.169	-50.35
241.386	-9.39
241.603	82.77
241.821	7
242.038	50
242.255	72.53
242.472	23.38
242.689	29.52
242.907	50
243.124	35.67
243.341	-11.43
243.558	-5.29
243.775	43.86
243.992	11.09
244.209	-19.63
244.426	41.81
244.643	35.67
244.86	-58.54
245.078	60.24
245.295	95.06
245.512	-3.24
245.729	4.95
245.946	93.01
246.163	39.76
246.38	-33.96
246.597	23.38
246.814	33.62
247.031	80.72
247.248	43.86
247.464	-7.34
247.681	0.85
247.898	43.86
248.115	-3.24
248.332	-72.87
248.549	117.59
248.766	82.77
248.983	27.48
249.2	31.57
249.417	35.67
249.633	-29.87
249.85	39.76
250.067	-11.43
250.284	13.14
250.501	54.1
250.717	13.14
250.934	-33.96
251.151	-5.29
251.368	7
251.585	11.09
251.801	19.29
252.018	4.95
252.235	58.2
252.451	27.48
252.668	-13.48
252.885	80.72
253.102	-15.53
253.318	37.72
253.535	68.44
253.752	-1.19
253.968	19.29
254.185	-56.49
254.401	31.57
254.618	13.14
254.835	50
255.051	90.96
255.268	105.3
255.484	-9.39
255.701	13.14
255.917	52.05
256.134	7
256.351	7
256.567	90.96
256.784	-11.43
257	15.19
257.217	27.48
257.433	60.24
257.65	41.81
257.866	109.4
258.082	-64.68
258.299	35.67
258.515	101.2
258.732	52.05
258.948	-11.43
259.165	54.1
259.381	-13.48
259.597	29.52
259.814	39.76
260.03	58.2
260.246	76.63
260.463	76.63
260.679	70.48
260.895	-29.87
261.112	54.1
261.328	25.43
261.544	56.15
261.761	19.29
261.977	-42.15
262.193	-21.67
262.409	37.72
262.626	105.3
262.842	88.92
263.058	-5.29
263.274	88.92
263.49	-7.34
263.707	95.06
263.923	74.58
264.139	-31.91
264.355	7
264.571	64.34
264.787	9.05
265.004	60.24
265.22	11.09
265.436	-15.53
265.652	-21.67
265.868	19.29
266.084	2.9
266.3	13.14
266.516	27.48
266.732	4.95
266.948	19.29
267.164	33.62
267.38	-9.39
267.596	43.86
267.812	88.92
268.028	-23.72
268.244	17.24
268.46	15.19
268.676	13.14
268.892	15.19
269.108	-54.44
269.324	2.9
269.54	2.9
269.756	13.14
269.972	-29.87
270.188	19.29
270.403	56.15
270.619	-15.53
270.835	-17.58
271.051	0.85
271.267	-72.87
271.483	11.09
271.698	39.76
271.914	4.95
272.13	78.68
272.346	-17.58
272.562	25.43
272.777	56.15
272.993	11.09
273.209	-36.01
273.425	72.53
273.64	-62.63
273.856	60.24
274.072	35.67
274.287	33.62
274.503	2.9
274.719	-23.72
274.934	33.62
275.15	-79.02
275.366	-21.67
275.581	-13.48
275.797	43.86
276.012	60.24
276.228	-54.44
276.444	0.85
276.659	58.2
276.875	35.67
277.09	-38.06
277.306	43.86
277.521	144.21
277.737	19.29
277.952	58.2
278.168	4.95
278.383	33.62
278.599	-1.19
278.814	50
279.03	21.33
279.245	88.92
279.461	9.05
279.676	97.11
279.892	-25.77
280.107	45.91
280.322	-3.24
280.538	-9.39
280.753	-5.29
280.969	78.68
281.184	2.9
281.399	90.96
281.615	58.2
281.83	-1.19
282.045	-33.96
282.26	-81.07
282.476	56.15
282.691	43.86
282.906	-31.91
283.122	17.24
283.337	64.34
283.552	88.92
283.767	-11.43
283.983	27.48
284.198	-42.15
284.413	17.24
284.628	-29.87
284.843	101.2
285.058	97.11
285.274	60.24
285.489	-74.92
285.704	39.76
285.919	2.9
286.134	37.72
286.349	-9.39
286.564	19.29
286.779	27.48
286.995	11.09
287.21	-87.21
287.425	64.34
287.64	-13.48
287.855	80.72
288.07	-23.72
288.285	-7.34
288.5	56.15
288.715	39.76
288.93	15.19
289.145	-46.25
289.36	-17.58
289.575	105.3
289.79	68.44
290.004	-15.53
290.219	84.82
290.434	-13.48
290.649	-50.35
290.864	-21.67
291.079	47.96
291.294	37.72
291.509	50
291.724	-79.02
291.938	-5.29
292.153	68.44
292.368	-25.77
292.583	78.68
292.798	52.05
293.012	2.9
293.227	58.2
293.442	17.24
293.657	47.96
293.871	-23.72
294.086	82.77
294.301	97.11
294.516	11.09
294.73	74.58
294.945	60.24
295.16	72.53
295.374	7
295.589	68.44
295.804	-23.72
296.018	-1.19
296.233	95.06
296.447	21.33
296.662	-3.24
296.877	29.52
297.091	31.57
297.306	9.05
297.52	-17.58
297.735	45.91
297.949	-21.67
298.164	33.62
298.378	-5.29
298.593	2.9
298.807	25.43
299.022	19.29
299.236	33.62
299.451	54.1
299.665	0.85
299.88	2.9
300.094	68.44
300.309	72.53
300.523	99.16
300.737	-13.48
300.952	7
301.166	29.52
301.381	35.67
301.595	47.96
301.809	47.96
302.024	-38.06
302.238	45.91
302.452	82.77
302.667	-74.92
302.881	27.48
303.095	64.34
303.309	58.2
303.524	35.67
303.738	-11.43
303.952	29.52
304.166	33.62
304.381	-27.82
304.595	107.35
304.809	-5.29
305.023	33.62
305.237	0.85
305.452	-13.48
305.666	-5.29
305.88	17.24
306.094	29.52
306.308	27.48
306.522	23.38
306.736	93.01
306.95	76.63
307.164	-23.72
307.379	-27.82
307.593	76.63
307.807	93.01
308.021	33.62
308.235	31.57
308.449	-1.19
308.663	-11.43
308.877	142.16
309.091	84.82
309.305	54.1
309.519	-17.58
309.733	-21.67
309.947	93.01
310.161	23.38
310.374	68.44
310.588	117.59
310.802	-29.87
311.016	39.76
311.23	-13.48
311.444	-50.35
311.658	15.19
311.872	47.96
312.085	60.24
312.299	58.2
312.513	105.3
312.727	35.67
312.941	-38.06
313.154	-25.77
313.368	17.24
313.582	29.52
313.796	23.38
314.009	-23.72
314.223	117.59
314.437	31.57
314.651	43.86
314.864	11.09
315.078	17.24
315.292	-1.19
315.505	23.38
315.719	90.96
315.933	9.05
316.146	-48.3
316.36	23.38
316.573	11.09
316.787	105.3
317.001	7
317.214	-42.15
317.428	9.05
317.641	-33.96
317.855	19.29
318.068	11.09
318.282	-9.39
318.495	41.81
318.709	27.48
318.922	35.67
319.136	72.53
319.349	33.62
319.563	0.85
319.776	70.48
319.99	-81.07
320.203	-31.91
320.417	-58.54
320.63	37.72
320.843	84.82
321.057	50
321.27	-27.82
321.483	43.86
321.697	86.87
321.91	-5.29
322.124	35.67
322.337	7
322.55	-5.29
322.763	45.91
322.977	-27.82
323.19	19.29
323.403	-15.53
323.617	113.49
323.83	56.15
324.043	88.92
324.256	25.43
324.469	78.68
324.683	54.1
324.896	0.85
325.109	90.96
325.322	-17.58
325.535	19.29
325.748	56.15
325.962	-25.77
326.175	72.53
326.388	101.2
326.601	35.67
326.814	-17.58
327.027	-48.3
327.24	80.72
327.453	-72.87
327.666	47.96
327.879	29.52
328.092	41.81
328.305	43.86
328.518	43.86
328.731	17.24
328.944	27.48
329.157	-7.34
329.37	-17.58
329.583	47.96
329.796	45.91
330.009	35.67
330.222	50
330.435	17.24
330.648	80.72
330.861	2.9
331.073	52.05
331.286	111.44
331.499	33.62
331.712	9.05
331.925	-38.06
332.138	-5.29
332.35	60.24
332.563	-62.63
332.776	70.48
332.989	-21.67
333.202	-17.58
333.414	31.57
333.627	35.67
333.84	27.48
334.053	9.05
334.265	17.24
334.478	-11.43
334.691	45.91
334.903	78.68
335.116	43.86
335.329	70.48
335.541	68.44
335.754	31.57
335.966	-48.3
336.179	0.85
336.392	-62.63
336.604	25.43
336.817	27.48
337.029	80.72
337.242	27.48
337.454	103.25
337.667	-29.87
337.88	27.48
338.092	50
338.305	11.09
338.517	-1.19
338.729	-15.53
338.942	70.48
339.154	25.43
339.367	15.19
339.579	43.86
339.792	-1.19
340.004	64.34
340.217	21.33
340.429	54.1
340.641	-5.29
340.854	15.19
341.066	11.09
341.278	99.16
341.491	9.05
341.703	29.52
341.915	2.9
342.128	19.29
342.34	47.96
342.552	15.19
342.764	19.29
342.977	41.81
343.189	13.14
343.401	29.52
343.613	25.43
343.826	2.9
344.038	-56.49
344.25	62.29
344.462	27.48
344.674	-1.19
344.886	-7.34
345.099	52.05
345.311	19.29
345.523	-23.72
345.735	-62.63
345.947	76.63
346.159	25.43
346.371	62.29
346.583	29.52
346.795	45.91
347.007	-19.63
347.219	-17.58
347.431	-13.48
347.643	15.19
347.855	-11.43
348.067	129.88
348.279	45.91
348.491	-25.77
348.703	-5.29
348.915	-1.19
349.127	-9.39
349.339	15.19
349.551	-19.63
349.763	43.86
349.975	41.81
350.187	70.48
350.399	56.15
350.61	2.9
350.822	15.19
351.034	23.38
351.246	39.76
351.458	17.24
351.669	60.24
351.881	9.05
352.093	70.48
352.305	72.53
352.517	78.68
352.728	78.68
352.94	-15.53
353.152	29.52
353.363	-38.06
353.575	9.05
353.787	52.05
353.999	52.05
354.21	62.29
354.422	43.86
354.633	27.48
354.845	39.76
355.057	2.9
355.268	43.86
355.48	23.38
355.692	7
355.903	-54.44
356.115	-17.58
356.326	-21.67
356.538	115.54
356.749	80.72
356.961	19.29
357.172	15.19
357.384	-42.15
357.595	86.87
357.807	-19.63
358.018	-29.87
358.23	35.67
358.441	52.05
358.653	41.81
358.864	0.85
359.075	-54.44
359.287	19.29
359.498	58.2
359.709	-29.87
359.921	15.19
360.132	9.05
360.344	56.15
360.555	70.48
360.766	47.96
360.977	15.19
361.189	84.82
361.4	-13.48
361.611	35.67
361.823	29.52
362.034	47.96
362.245	15.19
362.456	-7.34
362.667	15.19
362.879	-5.29
363.09	15.19
363.301	-29.87
363.512	-9.39
363.723	84.82
363.935	37.72
364.146	37.72
364.357	15.19
364.568	37.72
364.779	113.49
364.99	133.97
365.201	29.52
365.412	27.48
365.623	2.9
365.834	9.05
366.045	45.91
366.256	43.86
366.467	54.1
366.678	-29.87
366.889	19.29
367.1	60.24
367.311	39.76
367.522	2.9
367.733	-17.58
367.944	105.3
368.155	15.19
368.366	35.67
368.577	93.01
368.788	70.48
368.999	31.57
369.209	82.77
369.42	115.54
369.631	80.72
369.842	27.48
370.053	-9.39
370.264	-3.24
370.474	41.81
370.685	60.24
370.896	17.24
371.107	84.82
371.317	25.43
371.528	111.44
371.739	107.35
371.95	52.05
372.16	27.48
372.371	-70.83
372.582	25.43
372.792	127.83
373.003	33.62
373.214	-7.34
373.424	15.19
373.635	-19.63
373.846	-9.39
374.056	43.86
374.267	60.24
374.477	37.72
374.688	47.96
374.898	-7.34
375.109	2.9
375.319	19.29
375.53	86.87
375.74	0.85
375.951	54.1
376.161	31.57
376.372	23.38
376.582	-36.01
376.793	41.81
377.003	54.1
377.214	70.48
377.424	0.85
377.635	11.09
377.845	-46.25
378.055	111.44
378.266	9.05
378.476	115.54
378.686	17.24
378.897	25.43
379.107	43.86
379.317	45.91
379.528	-79.02
379.738	109.4
379.948	43.86
380.158	60.24
380.369	9.05
380.579	80.72
380.789	-5.29
380.999	86.87
381.21	-27.82
381.42	154.45
381.63	-27.82
381.84	160.59
382.05	76.63
382.261	76.63
382.471	74.58
382.681	15.19
382.891	27.48
383.101	37.72
383.311	23.38
383.521	74.58
383.731	35.67
383.941	90.96
384.151	-21.67
384.361	37.72
384.571	47.96
384.781	121.68
384.991	154.45
385.201	52.05
385.411	88.92
385.621	31.57
385.831	27.48
386.041	23.38
386.251	39.76
386.461	115.54
386.671	35.67
386.881	90.96
387.091	-9.39
387.301	43.86
387.511	60.24
387.72	27.48
387.93	72.53
388.14	-5.29
388.35	70.48
388.56	4.95
388.769	109.4
388.979	56.15
389.189	0.85
389.399	76.63
389.609	35.67
389.818	-46.25
390.028	9.05
390.238	27.48
390.447	4.95
390.657	93.01
390.867	19.29
391.076	23.38
391.286	88.92
391.496	9.05
391.705	9.05
391.915	39.76
392.125	76.63
392.334	39.76
392.544	19.29
392.753	50
392.963	68.44
393.172	21.33
393.382	56.15
393.591	43.86
393.801	0.85
394.01	86.87
394.22	68.44
394.429	11.09
394.639	72.53
394.848	101.2
395.058	99.16
395.267	82.77
395.477	70.48
395.686	74.58
395.895	70.48
396.105	131.92
396.314	41.81
396.524	52.05
396.733	80.72
396.942	140.12
397.152	84.82
397.361	74.58
397.57	52.05
397.78	109.4
397.989	66.39
398.198	121.68
398.407	17.24
398.617	93.01
398.826	50
399.035	117.59
399.244	105.3
399.453	-7.34
399.663	68.44
399.872	25.43
400.081	50
400.29	74.58
400.499	93.01
400.708	39.76
400.917	70.48
401.127	148.31
401.336	37.72
401.545	162.64
401.754	166.74
401.963	113.49
402.172	31.57
402.381	47.96
402.59	60.24
402.799	54.1
403.008	131.92
403.217	93.01
403.426	2.9
403.635	93.01
403.844	136.02
404.053	68.44
404.262	82.77
404.471	148.31
404.68	99.16
404.888	170.83
405.097	101.2
405.306	187.22
405.515	193.36
405.724	99.16
405.933	93.01
406.142	152.4
406.35	197.46
406.559	172.88
406.768	35.67
406.977	224.08
407.185	187.22
407.394	191.31
407.603	123.73
407.812	183.12
408.02	308.05
408.229	224.08
408.438	111.44
408.646	105.3
408.855	156.5
409.064	152.4
409.272	191.31
409.481	213.84
409.69	222.03
409.898	205.65
410.107	281.43
410.315	314.19
410.524	224.08
410.733	234.32
410.941	232.27
411.15	326.48
411.358	285.52
411.567	344.91
411.775	387.92
411.984	273.23
412.192	363.34
412.401	273.23
412.609	338.77
412.818	424.78
413.026	371.54
413.234	330.58
413.443	412.5
413.651	361.3
413.86	361.3
414.068	435.02
414.276	506.7
414.485	482.13
414.693	551.76
414.901	510.8
415.11	576.33
415.318	437.07
415.526	582.48
415.734	617.29
415.943	625.48
416.151	617.29
416.359	721.74
416.567	703.31
416.776	605
416.984	648.01
417.192	785.23
417.4	805.71
417.608	762.7
417.817	754.51
418.025	807.75
418.233	971.59
418.441	838.47
418.649	932.68
418.857	959.3
419.065	1084.23
419.273	1004.36
419.481	1082.18
419.689	1076.04
419.897	1143.62
420.105	1209.15
420.313	1221.44
420.521	1248.07
420.729	1272.64
420.937	1395.52
421.145	1309.51
421.353	1395.52
421.561	1504.06
421.769	1661.76
421.977	1588.03
422.185	1667.9
422.393	1672
422.601	1911.61
422.809	1809.21
423.017	1817.4
423.224	1872.7
423.432	2050.87
423.64	1975.1
423.848	2108.21
424.056	2016.05
424.263	2061.11
424.471	2108.21
424.679	2181.94
424.887	2386.74
425.094	2417.46
425.302	2368.31
425.51	2560.81
425.718	2689.84
425.925	2526
426.133	2749.23
426.341	2915.11
426.548	2976.55
426.756	2974.5
426.964	3099.43
427.171	3271.46
427.379	3365.67
427.586	3420.96
427.794	3504.93
428.001	3537.7
428.209	3781.4
428.417	3834.65
428.624	3957.53
428.832	3959.58
429.039	3838.75
429.247	3967.77
429.454	4383.51
429.662	4688.65
429.869	4317.97
430.076	4580.11
430.284	4653.84
430.491	4864.78
430.699	4946.7
430.906	4967.18
431.114	5040.9
431.321	5180.17
431.528	5444.35
431.736	5569.28
431.943	5778.17
432.15	5769.98
432.358	5954.3
432.565	6275.83
432.772	6116.09
432.979	6216.44
433.187	6632.18
433.394	6335.22
433.601	7011.05
433.808	7150.31
434.016	6857.45
434.223	7488.23
434.43	7770.85
434.637	7477.99
434.844	8125.15
435.052	8346.33
435.259	7951.07
435.466	8233.69
435.673	7985.88
435.88	8669.91
436.087	9145.03
436.294	8921.81
436.501	9097.93
436.708	9020.11
436.915	9507.52
437.122	9765.57
437.329	9872.06
437.537	10097.34
437.743	10238.65
437.95	10154.68
438.157	10885.81
438.364	11166.38
438.571	10980.01
438.778	11528.87
438.985	12120.73
439.192	11766.43
439.399	11928.22
439.606	11836.06
439.813	12556.95
440.02	13312.65
440.227	12989.07
440.433	12853.91
440.64	13310.6
440.847	13195.92
441.054	13453.96
441.261	14279.29
441.467	14269.05
441.674	14441.08
441.881	15018.61
442.088	15002.22
442.294	14908.02
442.501	15391.34
442.708	15864.42
442.914	16317.02
443.121	16814.68
443.328	16495.19
443.534	17496.65
443.741	17164.88
443.948	16755.29
444.154	18274.88
444.361	17816.13
444.568	18043.46
444.774	18235.97
444.981	18307.65
445.187	18723.38
445.394	19632.68
445.6	19589.67
445.807	21129.75
446.013	20214.3
446.22	20441.63
446.426	21582.35
446.633	22034.95
446.839	22442.49
447.046	21512.72
447.252	22469.12
447.459	22780.41
447.665	22456.83
447.871	23667.18
448.078	24728.03
448.284	23671.28
448.491	24048.1
448.697	24775.13
448.903	25389.52
449.11	25543.12
449.316	24791.52
449.522	25690.57
449.728	26169.8
449.935	26282.44
450.141	26245.57
450.347	26900.92
450.553	25848.27
450.76	26229.19
450.966	27294.13
451.172	27290.04
451.378	27670.96
451.584	27068.86
451.791	27996.59
451.997	27679.15
452.203	28330.41
452.409	27974.06
452.615	27998.63
452.821	26864.06
453.027	26902.97
453.233	28232.1
453.44	26958.27
453.646	27396.53
453.852	27394.48
454.058	27861.42
454.264	26755.52
454.47	27595.18
454.676	26524.1
454.882	27734.45
455.088	25323.99
455.294	25625.04
455.5	25956.81
455.705	26548.67
455.911	25143.77
456.117	24844.76
456.323	24443.36
456.529	23245.3
456.735	24224.23
456.941	23386.61
457.147	23030.26
457.352	22376.96
457.558	22088.2
457.764	21914.12
457.97	21649.93
458.176	21250.58
458.381	21187.09
458.587	20077.09
458.793	20062.76
458.999	19067.44
459.204	20603.42
459.41	20001.32
459.616	18446.91
459.821	18545.21
460.027	18629.18
460.233	18174.53
460.438	17408.59
460.644	17506.89
460.85	16829.01
461.055	16308.83
461.261	16280.16
461.466	15182.45
461.672	14469.75
461.878	15667.81
462.083	14658.17
462.289	14232.19
462.494	14037.63
462.7	13791.87
462.905	13165.2
463.111	13703.81
463.316	14013.06
463.522	13472.39
463.727	13533.83
463.932	13388.43
464.138	13251.21
464.343	13535.88
464.549	12774.03
464.754	13329.03
464.959	13429.38
465.165	13216.4
465.37	12493.46
465.575	12346.01
465.781	12794.51
465.986	12831.38
466.191	12311.19
466.397	12372.63
466.602	11580.07
466.807	11862.69
467.012	11881.12
467.218	11877.02
467.423	11725.47
467.628	11782.82
467.833	12259.99
468.038	11770.53
468.244	11573.92
468.449	12040.86
468.654	11436.71
468.859	11485.86
469.064	11405.99
469.269	11123.37
469.474	11127.47
469.679	11528.87
469.885	11152.04
470.09	11045.55
470.295	11012.78
470.5	10672.82
470.705	10859.18
470.91	10480.31
471.115	10318.52
471.32	10676.91
471.525	10650.29
471.73	10431.16
471.935	10064.57
472.139	9929.41
472.344	9980.61
472.549	9956.03
472.754	9857.73
472.959	9659.07
473.164	9192.14
473.369	9626.31
473.574	9853.63
473.778	9341.64
473.983	9562.82
474.188	9446.09
474.393	8991.44
474.598	9022.16
474.802	8780.5
475.007	8776.4
475.212	8932.05
475.417	8352.47
475.621	8682.19
475.826	8555.22
476.031	8649.43
476.235	8321.75
476.44	8389.33
476.645	8094.43
476.849	8065.75
477.054	8067.8
477.259	7908.06
477.463	8006.36
477.668	7742.18
477.872	8094.43
478.077	7629.54
478.282	7578.34
478.486	7795.42
478.691	7420.64
478.895	7553.76
479.1	7404.26
479.304	7385.83
479.509	7099.11
479.713	7293.67
479.918	7314.15
480.122	6976.23
480.326	7113.45
480.531	7322.34
480.735	6982.38
480.94	6912.75
481.144	7154.41
481.348	6912.75
481.553	6957.8
481.757	6841.07
481.961	6863.6
482.166	6935.28
482.37	6867.69
482.574	6949.61
482.778	6851.31
482.983	7029.48
483.187	6892.27
483.391	6890.22
483.595	6879.98
483.8	6875.88
484.004	7041.77
484.208	6963.95
484.412	6941.42
484.616	6798.06
484.821	6865.64
485.025	6738.67
485.229	6867.69
485.433	6800.11
485.637	6775.53
485.841	6736.62
486.045	6851.31
486.249	6849.26
486.453	6841.07
486.657	6875.88
486.861	6898.41
487.065	6587.12
487.269	6816.49
487.473	6689.52
487.677	6820.59
487.881	6994.67
488.085	6707.95
488.289	6978.28
488.493	6847.21
488.697	6877.93
488.901	6875.88
489.105	6843.12
489.309	7021.29
489.512	6939.37
489.716	7041.77
489.92	6939.37
490.124	6886.12
490.328	7035.63
490.531	7054.06
490.735	6898.41
490.939	7045.87
491.143	6984.43
491.346	6972.14
491.55	7109.35
491.754	7248.61
491.958	7099.11
492.161	7105.26
492.365	7189.22
492.569	7154.41
492.772	7281.38
492.976	7338.73
493.18	7269.09
493.383	7432.93
493.587	7473.89
493.79	7537.38
493.994	7475.94
494.197	7516.9
494.401	7541.47
494.605	7496.42
494.808	7641.82
495.012	7772.89
495.215	7666.4
495.419	8078.04
495.622	7598.82
495.825	8084.19
496.029	7903.96
496.232	8176.34
496.436	8114.91
496.639	8084.19
496.843	8219.35
497.046	8551.12
497.249	8266.46
497.453	8510.16
497.656	8610.51
497.859	8469.2
498.063	8772.3
498.266	8819.41
498.469	8839.89
498.673	8856.27
498.876	9183.95
499.079	9157.32
499.282	9282.25
499.485	9550.53
499.689	9308.87
499.892	9603.78
500.095	9697.99
500.298	9894.59
500.501	9673.41
500.705	10052.28
500.908	10177.21
501.111	10119.87
501.314	10164.92
501.517	10410.68
501.72	10506.93
501.923	10703.54
502.126	10904.24
502.329	11158.19
502.532	10918.57
502.735	11098.8
502.938	11412.14
503.141	11260.59
503.344	11696.8
503.547	11422.38
503.75	11690.66
503.953	11823.78
504.156	12094.11
504.359	12016.29
504.562	12309.15
504.765	12427.93
504.968	12622.48
505.17	12638.87
505.373	12640.92
505.576	13058.7
505.779	13150.86
505.982	13150.86
506.185	13380.23
506.387	13542.02
506.59	13425.29
506.793	14049.92
506.996	13773.44
507.198	14258.81
507.401	14287.48
507.604	14373.5
507.807	14717.56
508.009	14649.97
508.212	15030.9
508.415	14877.3
508.617	15213.17
508.82	15331.95
509.022	15233.64
509.225	15745.64
509.428	15610.47
509.63	16067.17
509.833	16085.6
510.035	16228.96
510.238	16417.37
510.44	16532.06
510.643	16906.84
510.845	16804.44
511.048	16976.47
511.25	17271.37
511.453	17398.35
511.655	17953.35
511.858	17912.39
512.06	17820.23
512.262	17979.97
512.465	18408
512.667	18510.39
512.87	18737.72
513.072	18745.91
513.274	19169.84
513.477	19524.14
513.679	19401.26
513.881	19864.1
514.084	19960.36
514.286	19817
514.488	20232.74
514.69	20853.27
514.893	20761.11
515.095	20865.56
515.297	21101.08
515.499	21094.93
515.701	21733.9
515.904	22022.66
516.106	21850.63
516.308	22282.75
516.51	22493.69
516.712	22868.47
516.914	23063.03
517.116	23415.28
517.318	23425.52
517.52	23763.43
517.722	23622.12
517.925	24039.91
518.127	24281.57
518.329	24580.57
518.531	24547.81
518.733	25088.47
518.935	25403.86
519.136	25438.67
519.338	25803.21
519.54	26089.93
519.742	26298.82
519.944	26327.49
520.146	27029.94
520.348	26763.71
520.55	27500.98
520.752	27216.31
520.954	27994.54
521.155	28025.26
521.357	28529.06
521.559	28649.89
521.761	28912.03
521.963	29010.33
522.164	29217.18
522.366	29544.85
522.568	29671.82
522.77	29976.97
522.971	30636.42
523.173	30208.39
523.375	30581.12
523.576	30984.57
523.778	31031.68
523.98	31601.01
524.181	31572.34
524.383	31756.66
524.584	32469.35
524.786	32649.57
524.988	32526.69
525.189	33065.31
525.391	33073.5
525.592	33362.26
525.794	33487.19
525.995	33468.76
526.197	33722.71
526.398	34064.72
526.6	34126.16
526.801	34357.58
527.003	34902.34
527.204	34883.91
527.406	35393.85
527.607	35244.35
527.808	36028.72
528.01	35498.3
528.211	35232.06
528.412	36389.16
528.614	36393.26
528.815	36577.58
529.016	36757.8
529.218	36442.41
529.419	36825.38
529.62	37044.51
529.822	37056.8
530.023	37206.3
530.224	37261.6
530.425	37548.31
530.626	37411.1
530.828	37402.91
531.029	38052.11
531.23	37753.11
531.431	37806.36
531.632	38508.81
531.833	38445.32
532.035	38381.84
532.236	38625.54
532.437	38457.61
532.638	38525.19
532.839	38791.43
533.04	39063.81
533.241	38727.94
533.442	39303.42
533.643	39182.59
533.844	39162.11
534.045	38834.44
534.246	39254.27
534.447	39375.1
534.648	39432.44
534.849	39753.97
535.05	39092.48
535.251	39194.88
535.451	39457.02
535.652	39723.26
535.853	39452.92
536.054	39749.88
536.255	39647.48
536.456	39170.3
536.657	40067.31
536.857	39827.7
537.058	39524.6
537.259	40030.45
537.46	39973.11
537.66	39966.96
537.861	39815.41
538.062	39915.76
538.263	40046.83
538.463	39463.16
538.664	39526.65
538.865	40093.94
539.065	40173.81
539.266	39907.57
539.466	40057.07
539.667	39649.53
539.868	40210.67
540.068	40349.93
540.269	39698.68
540.469	40210.67
540.67	40018.16
540.87	40022.26
541.071	39989.49
541.271	40481
541.472	40067.31
541.672	40046.83
541.873	40073.46
542.073	39481.59
542.274	40481
542.474	40061.17
542.675	39893.24
542.875	40405.23
543.075	40001.78
543.276	39616.76
543.476	40339.69
543.676	40020.21
543.877	40284.4
544.077	40216.82
544.277	39401.72
544.478	40022.26
544.678	40370.41
544.878	40102.13
545.078	40345.84
545.279	39590.14
545.479	40255.73
545.679	40079.6
545.879	40046.83
546.079	39862.52
546.28	40118.51
546.48	39401.72
546.68	40147.18
546.88	40374.51
547.08	40153.33
547.28	40292.59
547.48	39710.97
547.68	40319.21
547.88	39575.8
548.081	39985.4
548.281	39721.21
548.481	39874.8
548.681	40401.13
548.881	39819.51
549.081	39872.76
549.28	39919.86
549.48	40030.45
549.68	39782.65
549.88	40595.69
550.08	39762.17
550.28	40259.82
550.48	40046.83
550.68	40198.38
550.88	40149.23
551.08	39958.77
551.279	40014.07
551.479	39645.43
551.679	39883
551.879	39506.17
552.079	40134.9
552.278	39684.34
552.478	39657.72
552.678	39903.48
552.878	40026.35
553.077	39530.75
553.277	39543.03
553.477	40042.74
553.676	39434.49
553.876	39332.09
554.076	39520.51
554.275	39983.35
554.475	39276.8
554.674	39428.35
554.874	39581.95
555.074	39467.26
555.273	39336.19
555.473	39344.38
555.672	38934.79
555.872	39280.89
556.071	39440.64
556.271	39237.89
556.47	39127.3
556.67	38828.29
556.869	38873.35
557.068	38985.99
557.268	38654.22
557.467	38625.54
557.667	38539.53
557.866	38631.69
558.065	38269.2
558.265	38355.21
558.464	37855.51
558.663	38678.79
558.863	37910.8
559.062	38609.16
559.261	37421.34
559.461	38351.12
559.66	37335.32
559.859	37808.4
560.058	37404.95
560.258	37679.38
560.457	37001.5
560.656	37308.7
560.855	37169.44
561.054	37468.44
561.253	36688.17
561.453	37486.87
561.652	37196.06
561.851	37101.86
562.05	36727.08
562.249	36360.49
562.448	36745.51
562.647	36448.55
562.846	36405.55
563.045	36210.99
563.244	35641.65
563.443	36544.81
563.642	36157.74
563.841	35881.27
564.04	35565.88
564.239	36086.06
564.438	35301.69
564.637	35684.66
564.836	35455.29
565.035	34888
565.234	35144
565.432	34703.68
565.631	34656.58
565.83	34910.53
566.029	34605.38
566.228	34193.74
566.427	34160.97
566.625	33970.51
566.824	33749.33
567.023	34320.71
567.222	33274.2
567.42	33589.59
567.619	33261.91
567.818	33403.22
568.016	33061.21
568.215	33438.04
568.414	33163.61
568.612	33157.47
568.811	32706.91
569.01	32715.11
569.208	32141.67
569.407	32280.94
569.605	31994.22
569.804	32248.17
570.002	31926.64
570.201	31875.44
570.4	31578.48
570.598	31285.62
570.797	31111.55
570.995	31439.22
571.193	31048.06
571.392	31037.82
571.59	30466.44
571.789	31037.82
571.987	30869.89
572.186	30495.11
572.384	30617.99
572.582	30280.07
572.781	30149
572.979	29790.61
573.177	30552.45
573.376	30132.62
573.574	29585.81
573.772	29716.88
573.971	29532.56
574.169	29245.85
574.367	29376.92
574.565	29417.88
574.763	29039
574.962	29135.26
575.16	28135.85
575.358	28633.5
575.556	28506.53
575.754	28500.39
575.952	28109.22
576.151	28510.63
576.349	28123.56
576.547	28144.04
576.745	28082.6
576.943	27918.76
577.141	27636.14
577.339	28021.16
577.537	28037.55
577.735	27607.47
577.933	27322.8
578.131	27249.08
578.329	27201.97
578.527	26769.85
578.725	26999.23
578.923	27050.42
579.121	27015.61
579.319	26630.59
579.516	26679.74
579.714	26722.75
579.912	26501.57
580.11	26051.02
580.308	26323.4
580.506	26261.96
580.704	25827.79
580.901	26270.15
581.099	26149.32
581.297	25690.57
581.495	25700.81
581.692	25352.66
581.89	25352.66
582.088	25559.5
582.285	25510.35
582.483	25549.26
582.681	25178.58
582.878	24984.02
583.076	25174.49
583.274	25250.26
583.471	24592.86
583.669	24795.61
583.866	24455.65
584.064	24680.92
584.262	23951.85
584.459	24314.34
584.657	24560.09
584.854	24261.09
585.052	24082.92
585.249	24371.68
585.447	24383.97
585.644	23859.69
585.841	23941.61
586.039	23738.86
586.236	23540.21
586.434	23493.1
586.631	23413.23
586.828	23548.4
587.026	23413.23
587.223	23394.8
587.42	23087.61
587.618	23257.59
587.815	22956.54
588.012	22807.03
588.21	22854.14
588.407	22862.33
588.604	22731.26
588.801	22407.68
588.999	22651.39
589.196	22438.4
589.393	22489.6
589.59	22368.77
589.787	22135.3
589.984	22090.24
590.182	21840.39
590.379	21998.09
590.576	21654.03
590.773	21776.91
590.97	21752.33
591.167	21830.15
591.364	21369.36
591.561	21574.16
591.758	21336.59
591.955	21301.78
592.152	21400.08
592.349	20996.63
592.546	21133.84
592.743	21189.14
592.94	20883.99
593.137	21152.27
593.334	21158.42
593.531	20333.09
593.727	20970.01
593.924	20759.06
594.121	20640.28
594.318	20593.18
594.515	20101.67
594.712	20681.24
594.908	20382.24
595.105	20427.29
595.302	20038.18
595.499	20476.44
595.696	19982.88
595.892	19911.21
596.089	19849.77
596.286	20161.06
596.482	19632.68
596.679	20017.7
596.876	19821.09
597.072	19632.68
597.269	19495.47
597.466	19397.17
597.662	19608.11
597.859	19370.54
598.055	19438.12
598.252	19151.41
598.448	19307.05
598.645	19096.11
598.841	18985.52
599.038	19026.48
599.234	19042.87
599.431	18676.28
599.627	18793.01
599.824	18790.97
600.02	18614.84
600.217	18936.37
600.413	18643.51
600.609	18590.27
600.806	18338.37
601.002	18549.31
601.198	18547.26
601.395	18149.95
601.591	18059.84
601.787	17920.58
601.984	18053.7
602.18	18061.89
602.376	18035.27
602.572	17891.91
602.769	17603.14
602.965	17377.87
603.161	17904.2
603.357	17590.86
603.553	17719.88
603.75	17648.2
603.946	17367.63
604.142	17631.82
604.338	17519.18
604.534	17308.24
604.73	17222.22
604.926	17263.18
605.122	17123.92
605.318	17136.21
605.514	17005.14
605.71	17134.16
605.906	17078.86
606.102	16763.48
606.298	16968.27
606.494	16958.03
606.69	16663.13
606.886	16763.48
607.082	16581.21
607.278	16616.02
607.474	16415.32
607.67	16706.13
607.866	16372.32
608.062	16679.51
608.257	16296.54
608.453	16286.3
608.649	16253.53
608.845	16038.5
609.041	16231.01
609.236	16304.73
609.432	15909.47
609.628	16083.55
609.824	15901.28
610.019	15819.36
610.215	15798.88
610.411	15985.25
610.606	15567.46
610.802	15985.25
610.998	15897.19
611.193	15606.38
611.389	15583.85
611.584	15540.84
611.78	15524.46
611.976	15546.98
612.171	15653.48
612.367	15528.55
612.562	15368.81
612.758	15233.64
612.953	15055.47
613.149	15405.67
613.344	15104.62
613.539	15303.28
613.735	14946.93
613.93	15106.67
614.126	14803.57
614.321	15223.41
614.517	14879.35
614.712	14996.08
614.907	14844.53
615.103	15096.43
615.298	14594.68
615.493	14946.93
615.688	14645.88
615.884	15112.81
616.079	14408.31
616.274	14770.8
616.47	14695.03
616.665	14541.43
616.86	14551.67
617.055	14416.51
617.25	14336.63
617.445	14436.99
617.641	14238.33
617.836	14373.5
618.031	14084.73
618.226	14287.48
618.421	14054.01
618.616	14109.31
618.811	13894.27
619.006	14221.95
619.201	13929.09
619.396	13970.05
619.591	13728.39
619.786	13804.16
619.981	13544.07
620.176	13785.73
620.371	13537.93
620.566	13650.57
620.761	13437.58
620.956	13781.64
621.151	13224.59
621.346	13218.44
621.541	13283.98
621.735	13288.07
621.93	13013.65
622.125	13126.29
622.32	12616.34
622.515	12903.06
622.709	12833.43
622.904	12671.64
623.099	12714.64
623.294	12681.88
623.488	12501.65
623.683	12606.1
623.878	12524.18
624.072	12599.96
624.267	12530.33
624.462	12317.34
624.656	11803.3
624.851	12036.77
625.046	11999.9
625.24	11942.56
625.435	11889.31
625.629	11883.17
625.824	11942.56
626.018	11770.53
626.213	11655.84
626.407	11594.4
626.602	11367.08
626.796	11514.53
626.991	11571.88
627.185	11297.45
627.38	11356.84
627.574	11346.6
627.768	11100.84
627.963	11160.24
628.157	10984.11
628.352	11270.83
628.546	10848.94
628.74	11035.31
628.935	10652.34
629.129	10881.71
629.323	10560.18
629.517	10744.5
629.712	10566.32
629.906	10650.29
630.1	10267.32
630.294	10410.68
630.489	10273.46
630.683	10459.83
630.877	10158.78
631.071	10160.83
631.265	10070.72
631.459	10103.48
631.653	10046.14
631.848	9945.79
632.042	9790.14
632.236	9921.21
632.43	9845.44
632.624	10021.56
632.818	9530.05
633.012	9648.83
633.206	9566.92
633.4	9808.58
633.594	9505.48
633.788	9525.96
633.982	9489.09
634.176	9538.24
634.369	9257.67
634.563	9390.79
634.757	9145.03
634.951	9292.49
635.145	8954.57
635.339	9122.51
635.533	8940.24
635.726	9089.74
635.92	8944.33
636.114	8927.95
636.308	8760.02
636.501	8788.69
636.695	8579.79
636.889	8606.42
637.083	8653.52
637.276	8504.02
637.47	8499.92
637.664	8358.61
637.857	8557.27
638.051	8536.79
638.244	8522.45
638.438	8192.73
638.632	8223.45
638.825	8149.72
639.019	8094.43
639.212	8145.63
639.406	8129.24
639.599	7957.21
639.793	8035.03
639.986	7785.18
640.18	7922.4
640.373	7871.2
640.567	7695.07
640.76	7611.11
640.954	7729.89
641.147	7594.72
641.34	7449.32
641.534	7543.52
641.727	7533.28
641.92	7391.97
642.114	7310.05
642.307	7502.56
642.5	7410.4
642.694	7166.7
642.887	7070.44
643.08	7336.68
643.273	7240.42
643.467	7262.95
643.66	7308.01
643.853	7109.35
644.046	6904.56
644.239	7029.48
644.432	6933.23
644.626	6753.01
644.819	6716.14
645.012	6879.98
645.205	6808.3
645.398	6802.16
645.591	6583.02
645.784	6666.99
645.977	6630.13
646.17	6644.46
646.363	6654.7
646.556	6357.75
646.749	6554.35
646.942	6451.95
647.135	6451.95
647.328	6562.55
647.521	6415.09
647.714	6335.22
647.907	6058.74
648.099	6120.18
648.292	6068.98
648.485	6142.71
648.678	6066.94
648.871	6142.71
649.064	5968.63
649.256	6173.43
649.449	5860.09
649.642	5925.63
649.835	5944.06
650.027	5905.15
650.22	6017.79
650.413	5759.74
650.605	5962.49
650.798	5802.75
650.991	5833.47
651.183	5853.95
651.376	5714.69
651.568	5726.97
651.761	5622.53
651.954	5765.89
652.146	5853.95
652.339	5679.87
652.531	5554.94
652.724	5569.28
652.916	5384.96
653.109	5532.42
653.301	5540.61
653.494	5360.39
653.686	5432.07
653.879	5368.58
654.071	5456.64
654.263	5278.47
654.456	5323.52
654.648	5481.22
654.84	5171.97
655.033	5067.53
655.225	5251.85
655.417	5155.59
655.61	5317.38
655.802	5243.65
655.994	5280.52
656.186	5112.58
656.379	5047.05
656.571	5100.3
656.763	4930.31
656.955	4889.35
657.148	4963.08
657.34	4971.27
657.532	4989.71
657.724	4952.84
657.916	5020.42
658.108	5051.14
658.3	4903.69
658.492	4817.68
658.684	4705.04
658.876	4688.65
659.068	4739.85
659.26	4743.95
659.452	4786.96
659.644	4791.05
659.836	4684.56
660.028	4737.81
660.22	4586.26
660.412	4506.38
660.604	4543.25
660.796	4647.69
660.988	4610.83
661.18	4662.03
661.372	4590.35
661.563	4598.54
661.755	4580.11
661.947	4694.8
662.139	4533.01
662.331	4547.34
662.522	4438.8
662.714	4530.96
662.906	4481.81
663.097	4336.4
663.289	4418.32
663.481	4342.55
663.673	4395.79
663.864	4375.31
664.056	4248.34
664.247	4442.9
664.439	4203.29
664.631	4313.88
664.822	4236.05
665.014	4350.74
665.205	4315.92
665.397	4219.67
665.588	4197.14
665.78	4340.5
665.971	4377.36
666.163	4326.16
666.354	4385.55
666.546	4250.39
666.737	4213.53
666.929	4277.01
667.12	4147.99
667.311	4143.89
667.503	4135.7
667.694	4211.48
667.885	4274.96
668.077	4221.72
668.268	4074.26
668.459	4131.61
668.651	4203.29
668.842	4139.8
669.033	4141.85
669.224	4021.02
669.416	4164.37
669.607	4158.23
669.798	4092.69
669.989	4164.37
670.18	4147.99
670.371	4203.29
670.563	4016.92
670.754	4094.74
670.945	4059.93
671.136	4162.33
671.327	4035.35
671.518	4131.61
671.709	4096.79
671.9	4150.04
672.091	4248.34
672.282	4283.16
672.473	4119.32
672.664	4188.95
672.855	4262.68
673.046	4270.87
673.237	4328.21
673.428	4160.28
673.619	4229.91
673.809	4213.53
674	4252.44
674.191	4287.25
674.382	4158.23
674.573	4246.29
674.764	4203.29
674.954	4279.06
675.145	4258.58
675.336	4135.7
675.527	4217.62
675.717	4254.48
675.908	4369.17
676.099	4270.87
676.289	4307.73
676.48	4332.31
676.671	4459.28
676.861	4485.9
677.052	4360.98
677.243	4193.05
677.433	4397.84
677.624	4418.32
677.814	4317.97
678.005	4348.69
678.195	4571.92
678.386	4598.54
678.576	4557.58
678.767	4543.25
678.957	4516.62
679.148	4725.52
679.338	4559.63
679.529	4639.5
679.719	4533.01
679.909	4627.21
680.1	4492.05
680.29	4588.3
680.481	4504.34
680.671	4836.11
680.861	4610.83
681.052	4688.65
681.242	4684.56
681.432	4907.79
681.622	4645.65
681.813	4760.33
682.003	4836.11
682.193	4823.82
682.383	4909.83
682.573	4920.07
682.764	4717.33
682.954	4887.31
683.144	4950.79
683.334	4793.1
683.524	4864.78
683.714	5040.9
683.904	4932.36
684.094	4913.93
684.284	4807.44
684.474	5110.54
684.664	4889.35
684.854	4838.16
685.044	4975.37
685.234	4909.83
685.424	4985.61
685.614	5090.06
685.804	4936.46
685.994	4997.9
686.184	4958.99
686.374	4924.17
686.564	4748.04
686.753	4918.03
686.943	4834.06
687.133	4854.54
687.323	4768.52
687.513	5032.71
687.702	4743.95
687.892	4746
688.082	4690.7
688.272	4924.17
688.461	4770.57
688.651	4725.52
688.841	4784.91
689.03	4684.56
689.22	4686.61
689.41	4649.74
689.599	4522.77
689.789	4643.6
689.979	4596.5
690.168	4530.96
690.358	4535.06
690.547	4363.03
690.737	4424.47
690.926	4588.3
691.116	4303.64
691.305	4479.76
691.495	4365.07
691.684	4330.26
691.874	4354.83
692.063	4496.14
692.252	4375.31
692.442	4367.12
692.631	4125.46
692.82	4219.67
693.01	4246.29
693.199	4166.42
693.388	4082.46
693.578	4156.18
693.767	4143.89
693.956	4178.71
694.146	4123.41
694.335	4098.84
694.524	4133.65
694.713	4082.46
694.902	4102.93
695.092	4057.88
695.281	3992.34
695.47	3980.06
695.659	4098.84
695.848	4168.47
696.037	4057.88
696.226	4141.85
696.415	4109.08
696.604	4072.22
696.793	4070.17
696.982	4010.78
697.171	4078.36
697.36	4070.17
697.549	4096.79
697.738	3951.39
697.927	3877.66
698.116	4104.98
698.305	4012.82
698.494	4061.98
698.683	3978.01
698.872	4125.46
699.061	4090.65
699.25	4135.7
699.438	3943.19
699.627	4008.73
699.816	4121.37
700.005	3941.15
700.193	4199.19
700.382	4109.08
700.571	4033.3
700.76	4035.35
700.948	4205.33
701.137	4082.46
701.326	4227.86
701.514	4147.99
701.703	4176.66
701.892	4082.46
702.08	4225.81
702.269	4176.66
702.457	4141.85
702.646	4250.39
702.834	4209.43
703.023	4295.44
703.212	4317.97
703.4	4199.19
703.589	4170.52
703.777	4303.64
703.965	4207.38
704.154	4340.5
704.342	4209.43
704.531	4242.2
704.719	4309.78
704.907	4307.73
705.096	4135.7
705.284	4309.78
705.472	4293.4
705.661	4344.6
705.849	4381.46
706.037	4356.88
706.226	4352.79
706.414	4303.64
706.602	4385.55
706.79	4446.99
706.979	4363.03
707.167	4387.6
707.355	4360.98
707.543	4637.45
707.731	4586.26
707.919	4528.91
708.107	4481.81
708.296	4543.25
708.484	4395.79
708.672	4571.92
708.86	4590.35
709.048	4715.28
709.236	4496.14
709.424	4739.85
709.612	4567.82
709.8	4621.07
709.988	4629.26
710.176	4760.33
710.364	4762.38
710.551	4807.44
710.739	4721.42
710.927	4672.27
711.115	4649.74
711.303	4868.88
711.491	4684.56
711.679	4682.51
711.866	4782.86
712.054	4879.11
712.242	4844.3
712.43	4926.22
712.617	4850.44
712.805	4897.55
712.993	4997.9
713.181	4877.07
713.368	5004.04
713.556	5016.33
713.744	4975.37
713.931	4993.8
714.119	4983.56
714.306	5038.86
714.494	5020.42
714.682	5120.78
714.869	5001.99
715.057	5227.27
715.244	4922.12
715.432	5180.17
715.619	5063.43
715.807	5186.31
715.994	5264.13
716.182	5323.52
716.369	5196.55
716.556	5247.75
716.744	5077.77
716.931	5198.6
717.119	5329.67
717.306	5364.48
717.493	5313.28
717.681	5303.04
717.868	5442.31
718.055	5212.93
718.242	5376.77
718.43	5362.44
718.617	5507.84
718.804	5423.87
718.991	5341.96
719.179	5384.96
719.366	5505.79
719.553	5573.38
719.74	5483.27
719.927	5651.2
720.114	5348.1
720.301	5495.55
720.488	5446.4
720.676	5692.16
720.863	5485.31
721.05	5737.21
721.237	5722.88
721.424	5550.85
721.611	5569.28
721.798	5616.38
721.985	5604.1
722.172	5667.58
722.358	5653.25
722.545	5677.82
722.732	5659.39
722.919	5788.41
723.106	5651.2
723.293	5858.04
723.48	5663.49
723.667	5604.1
723.853	5880.57
724.04	5980.92
724.227	5851.9
724.414	5942.01
724.6	5864.19
724.787	5899
724.974	5917.44
725.161	5982.97
725.347	5671.68
725.534	5970.68
725.72	5733.12
725.907	5935.87
726.094	5890.81
726.28	5880.57
726.467	5851.9
726.653	5919.48
726.84	5937.91
727.027	5974.78
727.213	5796.6
727.4	6163.19
727.586	6071.03
727.773	5985.02
727.959	6019.83
728.145	5942.01
728.332	5985.02
728.518	6009.59
728.705	5997.31
728.891	6169.34
729.077	6128.38
729.264	6015.74
729.45	6146.81
729.636	6204.15
729.823	6048.51
730.009	6185.72
730.195	6286.07
730.382	6189.81
730.568	6134.52
730.754	6271.73
730.94	6111.99
731.126	6269.69
731.313	6195.96
731.499	6040.31
731.685	6314.74
731.871	6210.29
732.057	6349.56
732.243	6236.92
732.429	6136.57
732.615	6245.11
732.801	6118.14
732.987	6181.62
733.173	6261.49
733.359	6433.52
733.545	6161.14
733.731	6228.73
733.917	6159.1
734.103	6367.99
734.289	6445.81
734.475	6294.26
734.661	6339.32
734.847	6228.73
735.033	6470.39
735.219	6441.72
735.404	6185.72
735.59	6327.03
735.776	6359.8
735.962	6230.77
736.148	6390.52
736.333	6241.01
736.519	6306.55
736.705	6241.01
736.89	6202.1
737.076	6269.69
737.262	6286.07
737.447	6257.4
737.633	6099.7
737.819	6324.98
738.004	6312.69
738.19	6146.81
738.375	6265.59
738.561	6236.92
738.747	6212.34
738.932	6265.59
739.118	6228.73
739.303	6073.08
739.489	6193.91
739.674	6122.23
739.859	6105.85
740.045	6224.63
740.23	6001.4
740.416	6048.51
740.601	6068.98
740.786	6099.7
740.972	5937.91
741.157	6068.98
741.342	6007.55
741.528	6128.38
741.713	5882.62
741.898	5997.31
742.084	5901.05
742.269	6087.42
742.454	5901.05
742.639	6019.83
742.824	5952.25
743.01	5901.05
743.195	5847.8
743.38	5737.21
743.565	5827.32
743.75	5829.37
743.935	5712.64
744.12	5825.28
744.305	5743.36
744.49	5704.45
744.675	5556.99
744.86	5618.43
745.045	5763.84
745.23	5614.34
745.415	5499.65
745.6	5686.01
745.785	5434.11
745.97	5556.99
746.155	5348.1
746.34	5423.87
746.525	5272.32
746.71	5434.11
746.895	5327.62
747.079	5182.21
747.264	5284.61
747.449	5251.85
747.634	5327.62
747.819	5065.48
748.003	5131.02
748.188	5204.74
748.373	4983.56
748.557	5122.82
748.742	4954.89
748.927	5126.92
749.111	5030.66
749.296	4864.78
749.481	4805.39
749.665	4903.69
749.85	4793.1
750.034	4791.05
750.219	4889.35
750.404	4702.99
750.588	4881.16
750.773	4786.96
750.957	4590.35
751.141	4746
751.326	4547.34
751.51	4549.39
751.695	4619.02
751.879	4502.29
752.064	4537.1
752.248	4440.85
752.432	4377.36
752.617	4496.14
752.801	4307.73
752.985	4336.4
753.17	4184.85
753.354	4186.9
753.538	4258.58
753.722	4115.22
753.907	4162.33
754.091	4100.89
754.275	4037.4
754.459	4066.07
754.643	4010.78
754.828	4014.87
755.012	3810.08
755.196	3832.6
755.38	4025.11
755.564	3906.33
755.748	3789.6
755.932	3883.8
756.116	3732.25
756.3	3765.02
756.484	3566.37
756.668	3580.7
756.852	3672.86
757.036	3556.13
757.22	3599.13
757.404	3554.08
757.588	3521.31
757.772	3617.57
757.956	3509.02
758.14	3449.63
758.323	3476.26
758.507	3638.05
758.691	3367.71
758.875	3490.59
759.059	3449.63
759.242	3341.09
759.426	3253.03
759.61	3369.76
759.794	3230.5
759.977	3351.33
760.161	3502.88
760.345	3152.68
760.528	3320.61
760.712	3154.73
760.895	3146.53
761.079	3177.25
761.263	3070.76
761.446	3132.2
761.63	3007.27
761.813	2935.59
761.997	3095.33
762.18	3025.7
762.364	2951.98
762.547	2990.89
762.731	2954.02
762.914	3033.9
763.098	2822.95
763.281	2822.95
763.464	2954.02
763.648	2818.86
763.831	2843.43
764.015	2798.38
764.198	2769.71
764.381	2779.95
764.564	2845.48
764.748	2872.11
764.931	2738.99
765.114	2781.99
765.297	2734.89
765.481	2755.37
765.664	2632.49
765.847	2612.01
766.03	2763.56
766.213	2618.16
766.397	2548.53
766.58	2630.45
766.763	2581.29
766.946	2575.15
767.129	2526
767.312	2564.91
767.495	2435.89
767.678	2583.34
767.861	2558.77
768.044	2499.38
768.227	2444.08
768.41	2423.6
768.593	2362.16
768.776	2554.67
768.959	2448.18
769.142	2511.66
769.324	2394.93
769.507	2497.33
769.69	2401.07
769.873	2321.2
770.056	2384.69
770.239	2388.78
770.421	2394.93
770.604	2321.2
770.787	2386.74
770.97	2261.81
771.152	2304.82
771.335	2349.87
771.518	2200.37
771.7	2249.52
771.883	2274.1
772.066	2181.94
772.248	2179.89
772.431	2247.48
772.613	2081.59
772.796	2036.53
772.978	2222.9
773.161	2112.31
773.343	2054.97
773.526	2009.91
773.708	2054.97
773.891	1968.95
774.073	1950.52
774.256	2104.12
774.438	2108.21
774.621	1882.94
774.803	1971
774.985	1950.52
775.168	1997.62
775.35	1911.61
775.532	1829.69
775.715	1848.12
775.897	1827.64
776.079	1805.11
776.261	1848.12
776.444	1727.29
776.626	1776.44
776.808	1745.72
776.99	1667.9
777.173	1776.44
777.355	1737.53
777.537	1772.35
777.719	1639.23
777.901	1706.81
778.083	1657.66
778.265	1620.8
778.447	1694.52
778.629	1719.1
778.811	1631.04
778.993	1565.5
779.175	1624.89
779.357	1755.96
779.539	1559.36
779.721	1602.36
779.903	1637.18
780.085	1495.87
780.267	1588.03
780.449	1493.82
780.631	1530.69
780.812	1585.98
780.994	1508.16
781.176	1354.56
781.358	1409.86
781.54	1395.52
781.721	1467.2
781.903	1354.56
782.085	1393.47
782.267	1381.18
782.448	1272.64
782.63	1346.37
782.812	1395.52
782.993	1375.04
783.175	1256.26
783.357	1248.07
783.538	1282.88
783.72	1243.97
783.901	1311.55
784.083	1213.25
784.264	1227.59
784.446	1215.3
784.627	1172.29
784.809	1246.02
784.99	1241.92
785.172	1141.57
785.353	1198.92
785.535	1172.29
785.716	1141.57
785.897	1076.04
786.079	1125.19
786.26	1166.15
786.441	1106.76
786.623	1149.76
786.804	1135.43
786.985	1084.23
787.167	1114.95
787.348	1059.65
787.529	1008.45
787.71	1094.47
787.891	1026.89
788.073	1057.61
788.254	992.07
788.435	1043.27
788.616	994.12
788.797	953.16
788.978	953.16
789.159	887.62
789.34	924.49
789.522	969.54
789.703	930.63
789.884	949.06
790.065	895.82
790.246	1053.51
790.427	985.93
790.607	920.39
790.788	1000.26
790.969	912.2
791.15	965.45
791.331	809.8
791.512	877.38
791.693	826.18
791.874	772.94
792.054	944.97
792.235	861
792.416	817.99
792.597	807.75
792.778	901.96
792.958	838.47
793.139	844.62
793.32	846.66
793.5	760.65
793.681	801.61
793.862	811.85
794.042	703.31
794.223	801.61
794.404	715.59
794.584	744.27
794.765	770.89
794.945	713.55
795.126	762.7
795.306	781.13
795.487	703.31
795.667	691.02
795.848	668.49
796.028	721.74
796.209	727.88
796.389	740.17
796.57	674.64
796.75	666.44
796.93	674.64
797.111	701.26
797.291	656.2
797.471	684.87
797.652	684.87
797.832	654.16
798.012	662.35
798.192	605
798.373	613.2
798.553	609.1
798.733	629.58
798.913	641.87
799.093	645.96
799.274	602.96
799.454	602.96
799.634	682.83
799.814	639.82
799.994	631.63
800.174	592.72
800.354	578.38
800.534	594.76
800.714	533.33
800.894	654.16
801.074	551.76
801.254	555.85
801.434	660.3
801.614	510.8
801.794	557.9
801.974	1362.75
802.154	557.9
802.334	582.48
802.514	496.46
802.693	564.04
802.873	539.47
803.053	553.8
803.233	615.24
803.413	480.08
803.592	543.57
803.772	566.09
803.952	418.64
804.131	529.23
804.311	562
804.491	486.22
804.67	441.17
804.85	471.89
805.03	619.34
805.209	559.95
805.389	482.13
805.568	527.18
805.748	521.04
805.928	504.65
806.107	527.18
806.287	531.28
806.466	471.89
806.646	549.71
806.825	478.03
807.004	484.17
807.184	437.07
807.363	465.74
807.543	445.26
807.722	490.32
807.901	408.4
808.081	478.03
808.26	361.3
808.439	412.5
808.619	412.5
808.798	338.77
808.977	463.69
809.156	473.93
809.336	406.35
809.515	428.88
809.694	412.5
809.873	416.59
810.052	518.99
810.231	498.51
810.411	400.21
810.59	463.69
810.769	379.73
810.948	420.69
811.127	379.73
811.306	383.82
811.485	365.39
811.664	475.98
811.843	410.45
812.022	387.92
812.201	387.92
812.38	455.5
812.559	486.22
812.737	447.31
812.916	338.77
813.095	289.62
813.274	349.01
813.453	367.44
813.632	346.96
813.811	416.59
813.989	371.54
814.168	404.3
814.347	342.86
814.526	346.96
814.704	379.73
814.883	449.36
815.062	346.96
815.24	416.59
815.419	373.58
815.598	400.21
815.776	336.72
815.955	322.38
816.133	281.43
816.312	289.62
816.49	295.76
816.669	349.01
816.847	322.38
817.026	330.58
817.204	291.66
817.383	351.06
817.561	269.14
817.74	396.11
817.918	371.54
818.097	277.33
818.275	349.01
818.453	334.67
818.632	342.86
818.81	320.34
818.988	322.38
819.167	404.3
819.345	260.95
819.523	271.19
819.701	287.57
819.879	334.67
820.058	377.68
820.236	326.48
820.414	318.29
820.592	340.82
820.77	301.9
820.948	244.56
821.127	273.23
821.305	359.25
821.483	246.61
821.661	306
821.839	244.56
822.017	297.81
822.195	246.61
822.373	281.43
822.551	279.38
822.729	291.66
822.907	258.9
823.085	306
823.262	240.47
823.44	215.89
823.618	236.37
823.796	244.56
823.974	236.37
824.152	256.85
824.329	250.71
824.507	269.14
824.685	260.95
824.863	265.04
825.04	291.66
825.218	166.74
825.396	211.79
825.574	201.55
825.751	191.31
825.929	279.38
826.107	160.59
826.284	211.79
826.462	224.08
826.639	131.92
826.817	310.1
826.994	197.46
827.172	244.56
827.349	248.66
827.527	217.94
827.704	252.75
827.882	238.42
828.059	244.56
828.237	222.03
828.414	258.9
828.591	131.92
828.769	242.51
828.946	209.75
829.124	289.62
829.301	189.27
829.478	240.47
829.655	183.12
829.833	207.7
830.01	140.12
830.187	215.89
830.364	222.03
830.542	183.12
830.719	246.61
830.896	183.12
831.073	170.83
831.25	164.69
831.427	281.43
831.604	105.3
831.782	166.74
831.959	174.93
832.136	185.17
832.313	242.51
832.49	148.31
832.667	187.22
832.844	189.27
833.021	240.47
833.198	170.83
833.374	158.55
833.551	191.31
833.728	156.5
833.905	277.33
834.082	105.3
834.259	127.83
834.436	181.07
834.612	117.59
834.789	191.31
834.966	224.08
835.143	211.79
835.319	199.51
835.496	133.97
835.673	158.55
835.85	205.65
836.026	127.83
836.203	117.59
836.38	136.02
836.556	117.59
836.733	99.16
836.909	226.13
837.086	158.55
837.262	125.78
837.439	115.54
837.616	86.87
837.792	121.68
837.968	215.89
838.145	158.55
838.321	150.36
838.498	148.31
838.674	150.36
838.851	185.17
839.027	105.3
839.203	154.45
839.38	150.36
839.556	111.44
839.732	252.75
839.909	191.31
840.085	150.36
840.261	97.11
840.437	158.55
840.614	160.59
840.79	207.7
840.966	154.45
841.142	117.59
841.318	11.09
841.494	195.41
841.671	125.78
841.847	164.69
842.023	37.72
842.199	119.64
842.375	181.07
842.551	60.24
842.727	27.48
842.903	179.03
843.079	58.2
843.255	146.26
843.431	146.26
843.607	117.59
843.783	27.48
843.959	125.78
844.134	80.72
844.31	207.7
844.486	52.05
844.662	27.48
844.838	70.48
845.013	138.07
845.189	129.88
845.365	158.55
845.541	174.93
845.716	113.49
845.892	148.31
846.068	50
846.244	121.68
846.419	95.06
846.595	129.88
846.77	97.11
846.946	111.44
847.122	68.44
847.297	76.63
847.473	170.83
847.648	125.78
847.824	117.59
847.999	66.39
848.175	107.35
848.35	99.16
848.526	76.63
848.701	82.77
848.876	117.59
849.052	168.79
849.227	45.91
849.403	82.77
849.578	93.01
849.753	150.36
849.929	76.63
850.104	43.86
850.279	80.72
850.454	27.48
850.63	68.44
850.805	107.35
850.98	138.07
851.155	119.64
851.33	142.16
851.505	0.85
851.681	148.31
851.856	58.2
852.031	125.78
852.206	62.29
852.381	68.44
852.556	68.44
852.731	64.34
852.906	66.39
853.081	129.88
853.256	84.82
853.431	97.11
853.606	80.72
853.781	37.72
853.956	-9.39
854.131	72.53
854.305	25.43
854.48	-11.43
854.655	0.85
854.83	60.24
855.005	47.96
855.18	25.43
855.354	109.4
855.529	84.82
855.704	27.48
855.879	97.11
856.053	13.14
856.228	119.64
856.403	52.05
856.577	29.52
856.752	66.39
856.926	84.82
857.101	74.58
857.276	23.38
857.45	115.54
857.625	54.1
857.799	125.78
857.974	0.85
858.148	7
858.323	111.44
858.497	33.62
858.672	9.05
858.846	-40.11
859.02	-44.2
859.195	-1.19
859.369	15.19
859.543	37.72
859.718	76.63
859.892	43.86
860.066	25.43
860.241	19.29
860.415	-19.63
860.589	43.86
860.763	68.44
860.938	9.05
861.112	9.05
861.286	19.29
861.46	68.44
861.634	78.68
861.808	25.43
861.982	2.9
862.157	-29.87
862.331	35.67
862.505	88.92
862.679	-36.01
862.853	19.29
863.027	7
863.201	64.34
863.375	-38.06
863.549	74.58
863.722	47.96
863.896	76.63
864.07	-54.44
864.244	17.24
864.418	97.11
864.592	144.21
864.766	19.29
864.939	80.72
865.113	21.33
865.287	41.81
865.461	19.29
865.634	117.59
865.808	-11.43
865.982	7
866.156	-13.48
866.329	25.43
866.503	72.53
866.676	140.12
866.85	66.39
867.024	21.33
867.197	138.07
867.371	60.24
867.544	52.05
867.718	-56.49
867.891	52.05
868.065	11.09
868.238	25.43
868.412	90.96
868.585	50
868.759	-15.53
868.932	-23.72
869.105	43.86
869.279	2.9
869.452	-29.87
869.625	15.19
869.799	17.24
869.972	-11.43
870.145	90.96
870.319	68.44
870.492	-25.77
870.665	-5.29
870.838	45.91
871.011	19.29
871.185	-48.3
871.358	35.67
871.531	95.06
871.704	-31.91
871.877	-7.34
872.05	56.15
872.223	27.48
872.396	39.76
872.569	72.53
872.742	-62.63
872.915	-1.19
873.088	2.9
873.261	2.9
873.434	-42.15
873.607	9.05
873.78	52.05
873.953	-13.48
874.126	-1.19
874.299	31.57
874.471	-44.2
874.644	23.38
874.817	27.48
874.99	84.82
875.163	47.96
875.335	-29.87
875.508	7
875.681	86.87
875.853	-46.25
876.026	19.29
876.199	84.82
876.371	39.76
876.544	2.9
876.717	-54.44
876.889	-40.11
877.062	52.05
877.234	0.85
877.407	0.85
877.579	33.62
877.752	7
877.924	70.48
878.097	50
878.269	-21.67
878.442	-9.39
878.614	-50.35
878.786	-5.29
878.959	11.09
879.131	13.14
879.303	-79.02
879.476	74.58
879.648	9.05
879.82	82.77
879.993	-42.15
880.165	31.57
880.337	-50.35
880.509	56.15
880.681	27.48
880.854	2.9
881.026	35.67
881.198	23.38
881.37	27.48
881.542	-21.67
881.714	-9.39
881.886	-23.72
882.058	-1.19
882.23	58.2
882.402	-29.87
882.574	29.52
882.746	15.19
882.918	93.01
883.09	2.9
883.262	-13.48
883.434	4.95
883.606	-42.15
883.778	15.19
883.95	47.96
884.122	-29.87
884.293	-9.39
884.465	-56.49
884.637	17.24
884.809	33.62
884.98	0.85
885.152	-7.34
885.324	88.92
885.496	11.09
885.667	15.19
885.839	31.57
886.011	66.39
886.182	-15.53
886.354	35.67
886.525	15.19
886.697	-36.01
886.869	-44.2
887.04	-54.44
887.212	31.57
887.383	84.82
887.555	-27.82
887.726	45.91
887.897	-23.72
888.069	11.09
888.24	7
888.412	-5.29
888.583	-29.87
888.754	2.9
888.926	-70.83
889.097	-60.59
889.268	-58.54
889.44	19.29
889.611	39.76
889.782	-31.91
889.953	-64.68
890.125	21.33
890.296	-17.58
890.467	-56.49
890.638	15.19
890.809	43.86
890.98	2.9
891.151	-13.48
891.323	56.15
891.494	-81.07
891.665	43.86
891.836	31.57
892.007	-19.63
892.178	9.05
892.349	-5.29
892.52	-5.29
892.691	-17.58
892.862	-3.24
893.032	-64.68
893.203	9.05
893.374	88.92
893.545	9.05
893.716	25.43
893.887	-9.39
894.057	2.9
894.228	-40.11
894.399	-7.34
894.57	43.86
894.74	11.09
894.911	13.14
895.082	17.24
895.253	2.9
895.423	2.9
895.594	35.67
895.764	-13.48
895.935	-33.96
896.106	66.39
896.276	-29.87
896.447	27.48
896.617	-91.31
896.788	-64.68
896.958	-83.11
897.129	-5.29
897.299	-29.87
897.47	68.44
897.64	27.48
897.81	17.24
897.981	11.09
898.151	7
898.322	101.2
898.492	7
898.662	41.81
898.832	-23.72
899.003	66.39
899.173	-54.44
899.343	-29.87
899.513	-46.25
