Data from USB4F104151__65__11-31-00-709.txt Node

Date: Fri Mar 14 11:31:00 EDT 2025
User: louis
Spectrometer: USB4F10415
Trigger mode: 4
Integration Time (sec): 5.000000E-2
Scans to average: 1
Electric dark correction enabled: true
Nonlinearity correction enabled: false
Boxcar width: 0
XAxis mode: Wavelengths
Number of Pixels in Spectrum: 3648
>>>>>Begin Spectral Data<<<<<
178.204	-153.43
178.424	-153.43
178.644	-153.43
178.864	-137.04
179.084	-102.23
179.304	-51.03
179.524	-22.36
179.744	22.7
179.964	67.75
180.184	-51.03
180.404	45.23
180.624	-8.02
180.844	-18.26
181.064	0.17
181.283	22.7
181.503	-28.5
181.723	20.65
181.943	6.31
182.163	106.67
182.383	2.22
182.602	22.7
182.822	55.47
183.042	12.46
183.262	6.31
183.482	-44.88
183.701	26.79
183.921	37.03
184.141	6.31
184.361	75.95
184.58	65.71
184.8	53.42
185.02	-34.64
185.239	133.29
185.459	6.31
185.679	14.51
185.898	-16.21
186.118	145.58
186.338	4.27
186.557	108.71
186.777	18.6
186.997	28.84
187.216	43.18
187.436	133.29
187.655	80.04
187.875	30.89
188.095	75.95
188.314	26.79
188.534	114.86
188.753	-26.45
188.973	28.84
189.192	53.42
189.412	14.51
189.631	8.36
189.851	-8.02
190.07	63.66
190.29	-75.6
190.509	39.08
190.729	12.46
190.948	55.47
191.168	166.06
191.387	34.99
191.607	2.22
191.826	61.61
192.045	-14.17
192.265	-1.88
192.484	-57.17
192.704	26.79
192.923	30.89
193.142	139.43
193.362	20.65
193.581	16.55
193.8	39.08
194.02	37.03
194.239	32.94
194.458	59.56
194.678	49.32
194.897	102.57
195.116	12.46
195.335	114.86
195.555	43.18
195.774	47.27
195.993	69.8
196.212	22.7
196.432	-22.36
196.651	37.03
196.87	47.27
197.089	104.62
197.308	73.9
197.528	112.81
197.747	14.51
197.966	22.7
198.185	96.43
198.404	-38.74
198.623	71.85
198.842	67.75
199.062	18.6
199.281	55.47
199.5	-75.6
199.719	0.17
199.938	61.61
200.157	37.03
200.376	45.23
200.595	67.75
200.814	22.7
201.033	43.18
201.252	96.43
201.471	28.84
201.69	121
201.909	100.52
202.128	37.03
202.347	49.32
202.566	20.65
202.785	45.23
203.004	59.56
203.223	86.19
203.442	110.76
203.661	-24.4
203.879	71.85
204.098	100.52
204.317	63.66
204.536	86.19
204.755	6.31
204.974	69.8
205.193	39.08
205.411	133.29
205.63	57.51
205.849	88.23
206.068	0.17
206.287	45.23
206.505	137.38
206.724	71.85
206.943	26.79
207.162	-5.97
207.381	-18.26
207.599	22.7
207.818	20.65
208.037	16.55
208.255	6.31
208.474	30.89
208.693	59.56
208.911	55.47
209.13	77.99
209.349	77.99
209.567	2.22
209.786	110.76
210.005	47.27
210.223	51.37
210.442	-55.12
210.661	39.08
210.879	10.41
211.098	45.23
211.316	14.51
211.535	84.14
211.753	67.75
211.972	-69.46
212.191	65.71
212.409	47.27
212.628	28.84
212.846	-18.26
213.065	55.47
213.283	108.71
213.502	-10.07
213.72	12.46
213.938	55.47
214.157	4.27
214.375	116.9
214.594	-3.93
214.812	82.09
215.031	139.43
215.249	26.79
215.467	26.79
215.686	41.13
215.904	41.13
216.122	-5.97
216.341	63.66
216.559	86.19
216.778	88.23
216.996	14.51
217.214	39.08
217.432	14.51
217.651	20.65
217.869	26.79
218.087	71.85
218.306	-63.32
218.524	131.24
218.742	24.75
218.96	67.75
219.179	26.79
219.397	110.76
219.615	186.54
219.833	104.62
220.051	16.55
220.27	65.71
220.488	51.37
220.706	26.79
220.924	10.41
221.142	59.56
221.36	10.41
221.578	24.75
221.796	-8.02
222.015	-10.07
222.233	55.47
222.451	67.75
222.669	104.62
222.887	110.76
223.105	34.99
223.323	47.27
223.541	-51.03
223.759	34.99
223.977	55.47
224.195	112.81
224.413	14.51
224.631	51.37
224.849	18.6
225.067	116.9
225.285	30.89
225.503	37.03
225.721	18.6
225.939	18.6
226.157	2.22
226.375	84.14
226.592	-1.88
226.81	63.66
227.028	53.42
227.246	65.71
227.464	82.09
227.682	51.37
227.9	55.47
228.117	-1.88
228.335	94.38
228.553	24.75
228.771	121
228.989	110.76
229.206	43.18
229.424	8.36
229.642	32.94
229.86	30.89
230.077	47.27
230.295	86.19
230.513	100.52
230.731	39.08
230.948	92.33
231.166	71.85
231.384	28.84
231.601	-3.93
231.819	37.03
232.037	77.99
232.254	39.08
232.472	57.51
232.689	28.84
232.907	37.03
233.125	32.94
233.342	41.13
233.56	-3.93
233.777	104.62
233.995	-1.88
234.213	59.56
234.43	53.42
234.648	-77.65
234.865	47.27
235.083	53.42
235.3	112.81
235.518	59.56
235.735	143.53
235.953	88.23
236.17	65.71
236.388	22.7
236.605	73.9
236.822	110.76
237.04	67.75
237.257	41.13
237.475	16.55
237.692	28.84
237.909	12.46
238.127	49.32
238.344	-3.93
238.562	34.99
238.779	14.51
238.996	2.22
239.214	-73.56
239.431	53.42
239.648	51.37
239.865	28.84
240.083	67.75
240.3	80.04
240.517	30.89
240.735	94.38
240.952	47.27
241.169	149.67
241.386	114.86
241.603	73.9
241.821	22.7
242.038	71.85
242.255	80.04
242.472	-71.51
242.689	110.76
242.907	67.75
243.124	-5.97
243.341	59.56
243.558	8.36
243.775	-75.6
243.992	-61.27
244.209	55.47
244.426	131.24
244.643	-8.02
244.86	2.22
245.078	65.71
245.295	34.99
245.512	2.22
245.729	-18.26
245.946	53.42
246.163	-3.93
246.38	14.51
246.597	61.61
246.814	20.65
247.031	59.56
247.248	57.51
247.464	-20.31
247.681	-1.88
247.898	77.99
248.115	118.95
248.332	71.85
248.549	22.7
248.766	135.34
248.983	12.46
249.2	90.28
249.417	100.52
249.633	-10.07
249.85	67.75
250.067	10.41
250.284	55.47
250.501	-34.64
250.717	127.14
250.934	30.89
251.151	80.04
251.368	96.43
251.585	82.09
251.801	63.66
252.018	47.27
252.235	18.6
252.451	39.08
252.668	49.32
252.885	63.66
253.102	-20.31
253.318	-22.36
253.535	32.94
253.752	0.17
253.968	71.85
254.185	-46.93
254.401	22.7
254.618	22.7
254.835	-14.17
255.051	88.23
255.268	75.95
255.484	61.61
255.701	-75.6
255.917	61.61
256.134	55.47
256.351	26.79
256.567	-46.93
256.784	55.47
257	6.31
257.217	86.19
257.433	37.03
257.65	65.71
257.866	49.32
258.082	14.51
258.299	-24.4
258.515	80.04
258.732	-26.45
258.948	86.19
259.165	55.47
259.381	26.79
259.597	104.62
259.814	51.37
260.03	26.79
260.246	-20.31
260.463	71.85
260.679	67.75
260.895	80.04
261.112	86.19
261.328	82.09
261.544	2.22
261.761	133.29
261.977	30.89
262.193	67.75
262.409	84.14
262.626	141.48
262.842	67.75
263.058	-18.26
263.274	88.23
263.49	100.52
263.707	82.09
263.923	-1.88
264.139	8.36
264.355	92.33
264.571	129.19
264.787	30.89
265.004	102.57
265.22	34.99
265.436	22.7
265.652	14.51
265.868	43.18
266.084	22.7
266.3	84.14
266.516	-34.64
266.732	28.84
266.948	30.89
267.164	53.42
267.38	55.47
267.596	45.23
267.812	129.19
268.028	-42.84
268.244	61.61
268.46	4.27
268.676	30.89
268.892	61.61
269.108	18.6
269.324	45.23
269.54	-5.97
269.756	22.7
269.972	-26.45
270.188	96.43
270.403	16.55
270.619	45.23
270.835	-3.93
271.051	18.6
271.267	-20.31
271.483	18.6
271.698	41.13
271.914	18.6
272.13	-18.26
272.346	63.66
272.562	39.08
272.777	51.37
272.993	-28.5
273.209	37.03
273.425	-38.74
273.64	-10.07
273.856	57.51
274.072	55.47
274.287	-5.97
274.503	96.43
274.719	6.31
274.934	-28.5
275.15	8.36
275.366	67.75
275.581	-22.36
275.797	2.22
276.012	30.89
276.228	14.51
276.444	30.89
276.659	82.09
276.875	12.46
277.09	65.71
277.306	-59.22
277.521	71.85
277.737	-22.36
277.952	47.27
278.168	-10.07
278.383	24.75
278.599	96.43
278.814	67.75
279.03	100.52
279.245	55.47
279.461	43.18
279.676	30.89
279.892	32.94
280.107	14.51
280.322	-26.45
280.538	47.27
280.753	-96.08
280.969	61.61
281.184	104.62
281.399	69.8
281.615	-18.26
281.83	26.79
282.045	30.89
282.26	10.41
282.476	61.61
282.691	96.43
282.906	94.38
283.122	41.13
283.337	-46.93
283.552	-12.12
283.767	-5.97
283.983	131.24
284.198	20.65
284.413	24.75
284.628	0.17
284.843	75.95
285.058	22.7
285.274	69.8
285.489	22.7
285.704	102.57
285.919	20.65
286.134	104.62
286.349	61.61
286.564	10.41
286.779	-12.12
286.995	47.27
287.21	-10.07
287.425	45.23
287.64	34.99
287.855	53.42
288.07	61.61
288.285	39.08
288.5	28.84
288.715	24.75
288.93	22.7
289.145	8.36
289.36	12.46
289.575	57.51
289.79	135.34
290.004	-22.36
290.219	73.9
290.434	-79.7
290.649	22.7
290.864	20.65
291.079	39.08
291.294	88.23
291.509	-34.64
291.724	49.32
291.938	20.65
292.153	37.03
292.368	-5.97
292.583	94.38
292.798	63.66
293.012	63.66
293.227	98.47
293.442	39.08
293.657	20.65
293.871	61.61
294.086	77.99
294.301	137.38
294.516	61.61
294.73	-30.55
294.945	55.47
295.16	30.89
295.374	135.34
295.589	110.76
295.804	34.99
296.018	84.14
296.233	59.56
296.447	63.66
296.662	-8.02
296.877	59.56
297.091	45.23
297.306	92.33
297.52	0.17
297.735	88.23
297.949	80.04
298.164	86.19
298.378	10.41
298.593	12.46
298.807	-10.07
299.022	14.51
299.236	53.42
299.451	2.22
299.665	43.18
299.88	37.03
300.094	51.37
300.309	84.14
300.523	118.95
300.737	-30.55
300.952	55.47
301.166	116.9
301.381	12.46
301.595	53.42
301.809	116.9
302.024	-34.64
302.238	22.7
302.452	102.57
302.667	8.36
302.881	57.51
303.095	51.37
303.309	61.61
303.524	28.84
303.738	22.7
303.952	-14.17
304.166	53.42
304.381	-10.07
304.595	67.75
304.809	43.18
305.023	90.28
305.237	-3.93
305.452	20.65
305.666	26.79
305.88	-22.36
306.094	80.04
306.308	55.47
306.522	45.23
306.736	133.29
306.95	102.57
307.164	47.27
307.379	127.14
307.593	125.1
307.807	26.79
308.021	-3.93
308.235	86.19
308.449	-38.74
308.663	30.89
308.877	47.27
309.091	96.43
309.305	28.84
309.519	51.37
309.733	2.22
309.947	-44.88
310.161	86.19
310.374	34.99
310.588	69.8
310.802	37.03
311.016	12.46
311.23	14.51
311.444	-12.12
311.658	92.33
311.872	104.62
312.085	69.8
312.299	88.23
312.513	65.71
312.727	67.75
312.941	53.42
313.154	-38.74
313.368	-22.36
313.582	-1.88
313.796	32.94
314.009	-20.31
314.223	86.19
314.437	59.56
314.651	82.09
314.864	2.22
315.078	55.47
315.292	77.99
315.505	28.84
315.719	32.94
315.933	41.13
316.146	-26.45
316.36	-5.97
316.573	121
316.787	14.51
317.001	10.41
317.214	59.56
317.428	-10.07
317.641	-5.97
317.855	45.23
318.068	26.79
318.282	96.43
318.495	94.38
318.709	67.75
318.922	61.61
319.136	110.76
319.349	61.61
319.563	176.3
319.776	55.47
319.99	28.84
320.203	121
320.417	63.66
320.63	22.7
320.843	170.15
321.057	-5.97
321.27	-8.02
321.483	6.31
321.697	30.89
321.91	57.51
322.124	71.85
322.337	61.61
322.55	45.23
322.763	45.23
322.977	32.94
323.19	20.65
323.403	45.23
323.617	12.46
323.83	63.66
324.043	-30.55
324.256	73.9
324.469	94.38
324.683	73.9
324.896	75.95
325.109	20.65
325.322	61.61
325.535	43.18
325.748	90.28
325.962	30.89
326.175	12.46
326.388	71.85
326.601	90.28
326.814	63.66
327.027	55.47
327.24	90.28
327.453	-1.88
327.666	4.27
327.879	37.03
328.092	16.55
328.305	69.8
328.518	-10.07
328.731	30.89
328.944	34.99
329.157	102.57
329.37	12.46
329.583	77.99
329.796	65.71
330.009	47.27
330.222	80.04
330.435	102.57
330.648	96.43
330.861	-5.97
331.073	22.7
331.286	65.71
331.499	59.56
331.712	75.95
331.925	77.99
332.138	2.22
332.35	75.95
332.563	-12.12
332.776	135.34
332.989	41.13
333.202	22.7
333.414	84.14
333.627	39.08
333.84	30.89
334.053	59.56
334.265	-14.17
334.478	32.94
334.691	43.18
334.903	63.66
335.116	59.56
335.329	106.67
335.541	45.23
335.754	61.61
335.966	-3.93
336.179	100.52
336.392	118.95
336.604	39.08
336.817	34.99
337.029	69.8
337.242	22.7
337.454	6.31
337.667	39.08
337.88	116.9
338.092	69.8
338.305	121
338.517	53.42
338.729	106.67
338.942	100.52
339.154	80.04
339.367	39.08
339.579	45.23
339.792	39.08
340.004	53.42
340.217	10.41
340.429	63.66
340.641	-20.31
340.854	-8.02
341.066	30.89
341.278	57.51
341.491	43.18
341.703	-1.88
341.915	-18.26
342.128	24.75
342.34	22.7
342.552	61.61
342.764	47.27
342.977	63.66
343.189	34.99
343.401	45.23
343.613	75.95
343.826	51.37
344.038	-3.93
344.25	24.75
344.462	14.51
344.674	14.51
344.886	-26.45
345.099	94.38
345.311	14.51
345.523	12.46
345.735	22.7
345.947	20.65
346.159	41.13
346.371	14.51
346.583	28.84
346.795	102.57
347.007	51.37
347.219	53.42
347.431	22.7
347.643	8.36
347.855	4.27
348.067	32.94
348.279	63.66
348.491	37.03
348.703	18.6
348.915	22.7
349.127	61.61
349.339	51.37
349.551	75.95
349.763	96.43
349.975	22.7
350.187	22.7
350.399	100.52
350.61	30.89
350.822	-1.88
351.034	112.81
351.246	47.27
351.458	77.99
351.669	12.46
351.881	24.75
352.093	112.81
352.305	67.75
352.517	4.27
352.728	14.51
352.94	98.47
353.152	108.71
353.363	39.08
353.575	45.23
353.787	71.85
353.999	96.43
354.21	84.14
354.422	10.41
354.633	90.28
354.845	71.85
355.057	161.96
355.268	51.37
355.48	37.03
355.692	0.17
355.903	51.37
356.115	-10.07
356.326	-3.93
356.538	194.73
356.749	100.52
356.961	118.95
357.172	28.84
357.384	104.62
357.595	139.43
357.807	-22.36
358.018	-44.88
358.23	20.65
358.441	63.66
358.653	90.28
358.864	28.84
359.075	53.42
359.287	71.85
359.498	80.04
359.709	51.37
359.921	14.51
360.132	22.7
360.344	-14.17
360.555	-30.55
360.766	57.51
360.977	20.65
361.189	88.23
361.4	-8.02
361.611	24.75
361.823	67.75
362.034	51.37
362.245	47.27
362.456	47.27
362.667	80.04
362.879	14.51
363.09	22.7
363.301	88.23
363.512	18.6
363.723	20.65
363.935	61.61
364.146	32.94
364.357	22.7
364.568	8.36
364.779	6.31
364.99	121
365.201	63.66
365.412	112.81
365.623	-18.26
365.834	12.46
366.045	2.22
366.256	86.19
366.467	20.65
366.678	32.94
366.889	100.52
367.1	34.99
367.311	84.14
367.522	34.99
367.733	51.37
367.944	30.89
368.155	53.42
368.366	77.99
368.577	71.85
368.788	114.86
368.999	63.66
369.209	37.03
369.42	145.58
369.631	170.15
369.842	96.43
370.053	55.47
370.264	69.8
370.474	30.89
370.685	49.32
370.896	100.52
371.107	53.42
371.317	61.61
371.528	86.19
371.739	55.47
371.95	73.9
372.16	129.19
372.371	-1.88
372.582	30.89
372.792	22.7
373.003	53.42
373.214	10.41
373.424	116.9
373.635	123.05
373.846	34.99
374.056	88.23
374.267	71.85
374.477	37.03
374.688	34.99
374.898	57.51
375.109	24.75
375.319	55.47
375.53	34.99
375.74	32.94
375.951	75.95
376.161	96.43
376.372	100.52
376.582	-5.97
376.793	127.14
377.003	86.19
377.214	73.9
377.424	55.47
377.635	49.32
377.845	34.99
378.055	121
378.266	-10.07
378.476	61.61
378.686	108.71
378.897	22.7
379.107	86.19
379.317	77.99
379.528	77.99
379.738	102.57
379.948	24.75
380.158	141.48
380.369	104.62
380.579	92.33
380.789	-36.69
380.999	137.38
381.21	88.23
381.42	82.09
381.63	34.99
381.84	80.04
382.05	82.09
382.261	86.19
382.471	47.27
382.681	-14.17
382.891	110.76
383.101	80.04
383.311	-14.17
383.521	34.99
383.731	104.62
383.941	47.27
384.151	47.27
384.361	14.51
384.571	67.75
384.781	86.19
384.991	143.53
385.201	137.38
385.411	55.47
385.621	-5.97
385.831	41.13
386.041	65.71
386.251	94.38
386.461	135.34
386.671	24.75
386.881	-1.88
387.091	69.8
387.301	6.31
387.511	47.27
387.72	45.23
387.93	96.43
388.14	-18.26
388.35	57.51
388.56	59.56
388.769	30.89
388.979	59.56
389.189	71.85
389.399	61.61
389.609	47.27
389.818	104.62
390.028	65.71
390.238	32.94
390.447	-67.41
390.657	39.08
390.867	96.43
391.076	43.18
391.286	45.23
391.496	-18.26
391.705	30.89
391.915	90.28
392.125	43.18
392.334	84.14
392.544	153.77
392.753	22.7
392.963	92.33
393.172	77.99
393.382	112.81
393.591	108.71
393.801	41.13
394.01	129.19
394.22	47.27
394.429	110.76
394.639	-22.36
394.848	88.23
395.058	45.23
395.267	34.99
395.477	121
395.686	94.38
395.895	123.05
396.105	141.48
396.314	96.43
396.524	20.65
396.733	129.19
396.942	129.19
397.152	96.43
397.361	123.05
397.57	75.95
397.78	133.29
397.989	80.04
398.198	159.91
398.407	86.19
398.617	151.72
398.826	80.04
399.035	123.05
399.244	133.29
399.453	137.38
399.663	129.19
399.872	116.9
400.081	75.95
400.29	153.77
400.499	57.51
400.708	182.44
400.917	63.66
401.127	121
401.336	45.23
401.545	164.01
401.754	147.62
401.963	108.71
402.172	104.62
402.381	110.76
402.59	73.9
402.799	65.71
403.008	104.62
403.217	141.48
403.426	209.06
403.635	84.14
403.844	61.61
404.053	67.75
404.262	71.85
404.471	178.34
404.68	141.48
404.888	153.77
405.097	77.99
405.306	153.77
405.515	106.67
405.724	86.19
405.933	178.34
406.142	133.29
406.35	227.5
406.559	80.04
406.768	198.82
406.977	153.77
407.185	157.86
407.394	116.9
407.603	174.25
407.812	137.38
408.02	176.3
408.229	196.78
408.438	141.48
408.646	225.45
408.855	211.11
409.064	190.63
409.272	151.72
409.481	290.98
409.69	229.54
409.898	221.35
410.107	247.97
410.315	301.22
410.524	215.21
410.733	333.99
410.941	264.36
411.15	262.31
411.358	309.41
411.567	309.41
411.775	325.8
411.984	344.23
412.192	362.66
412.401	362.66
412.609	389.28
412.818	381.09
413.026	428.2
413.234	295.08
413.443	362.66
413.651	344.23
413.86	438.44
414.068	563.36
414.276	506.02
414.485	553.12
414.693	536.74
414.901	614.56
415.11	522.4
415.318	581.79
415.526	579.75
415.734	589.99
415.943	688.29
416.151	710.82
416.359	612.51
416.567	708.77
416.776	698.53
416.984	762.02
417.192	854.17
417.4	764.06
417.608	696.48
417.817	755.87
418.025	925.85
418.233	946.33
418.441	858.27
418.649	841.89
418.857	960.67
419.065	995.48
419.273	989.34
419.481	907.42
419.689	1110.17
419.897	1169.56
420.105	1253.53
420.313	1122.46
420.521	1222.81
420.729	1388.69
420.937	1284.25
421.145	1380.5
421.353	1317.01
421.561	1452.18
421.769	1511.57
421.977	1599.63
422.185	1566.87
422.393	1665.17
422.601	1779.86
422.809	1816.72
423.017	1714.32
423.224	1837.2
423.432	1939.6
423.64	1917.07
423.848	2089.1
424.056	2082.95
424.263	2142.35
424.471	2238.6
424.679	2324.62
424.887	2353.29
425.094	2476.16
425.302	2367.62
425.51	2531.46
425.718	2693.25
425.925	2603.14
426.133	2627.71
426.341	2809.98
426.548	2939.01
426.756	2928.77
426.964	3078.27
427.171	3266.68
427.379	3371.13
427.586	3319.93
427.794	3657.84
428.001	3668.08
428.209	3799.15
428.417	3586.16
428.624	3993.71
428.832	4100.2
429.039	3981.42
429.247	3930.22
429.454	4368.49
429.662	4618.34
429.869	4370.54
430.076	4710.5
430.284	4649.06
430.491	4724.83
430.699	4952.16
430.906	5042.27
431.114	4974.69
431.321	5228.63
431.528	5195.87
431.736	5494.87
431.943	5789.78
432.15	5709.91
432.358	5845.07
432.565	6248.52
432.772	6062.16
432.979	6662.21
433.187	6682.69
433.394	6371.4
433.601	6948.93
433.808	6985.79
434.016	6987.84
434.223	7387.19
434.43	7647.29
434.637	7481.4
434.844	8101.94
435.052	8026.16
435.259	8194.09
435.466	8163.37
435.673	8081.46
435.88	8599.59
436.087	9009.19
436.294	9091.1
436.501	8988.71
436.708	9029.66
436.915	9308.19
437.122	9818.13
437.329	9586.71
437.537	10002.45
437.743	10252.3
437.95	10369.04
438.157	10698.76
438.364	10958.85
438.571	10985.48
438.778	10911.75
438.985	12161.01
439.192	11849.72
439.399	12060.66
439.606	11751.42
439.813	12509.16
440.02	13350.88
440.227	12769.26
440.433	12957.67
440.64	13096.93
440.847	13039.59
441.054	13479.9
441.261	14305.23
441.467	14104.53
441.674	14448.59
441.881	14991.3
442.088	15003.59
442.294	14909.38
442.501	15103.94
442.708	15513.53
442.914	16324.53
443.121	16932.78
443.328	16322.48
443.534	17477.54
443.741	16781.23
443.948	16627.63
444.154	17967
444.361	17905.56
444.568	18327.44
444.774	18007.96
444.981	18149.27
445.187	19087.24
445.394	19412.87
445.6	19359.62
445.807	21438.31
446.013	20395.89
446.22	20754.29
446.426	21544.8
446.633	21729.12
446.839	22402.9
447.046	21288.81
447.252	22507.35
447.459	22918.99
447.665	22372.18
447.871	23584.58
448.078	24643.38
448.284	23531.33
448.491	24274.74
448.697	24975.15
448.903	25198.38
449.11	25550.63
449.316	24782.64
449.522	25786.15
449.728	26267.42
449.935	26361.62
450.141	26230.55
450.347	27109.13
450.553	26279.71
450.76	26586.9
450.966	27105.04
451.172	27240.2
451.378	27553.54
451.584	27098.89
451.791	27557.64
451.997	27762.44
452.203	28301.05
452.409	28022.53
452.615	27647.75
452.821	26748.69
453.027	26574.61
453.233	27797.25
453.44	26715.92
453.646	26937.1
453.852	27191.05
454.058	27502.34
454.264	26806.03
454.47	27057.93
454.676	26578.71
454.882	27537.16
455.088	24801.07
455.294	25593.64
455.5	25745.19
455.705	26373.91
455.911	25225
456.117	24366.9
456.323	23955.26
456.529	22777.68
456.735	23895.87
456.941	23277.38
457.147	22658.9
457.352	22239.06
457.558	21862.24
457.764	22105.95
457.97	21444.45
458.176	20729.71
458.381	20932.46
458.587	20062.07
458.793	20096.89
458.999	18866.06
459.204	20178.81
459.41	19593.09
459.616	18507.66
459.821	18403.22
460.027	18296.72
460.233	17751.96
460.438	17180.58
460.644	17250.21
460.85	16555.95
461.055	16183.22
461.261	16418.74
461.466	15132.61
461.672	14503.89
461.878	15544.25
462.083	14565.32
462.289	14139.35
462.494	14094.29
462.7	13651.93
462.905	13068.26
463.111	13563.87
463.316	13371.36
463.522	13373.41
463.727	13385.69
463.932	13254.62
464.138	13299.68
464.343	13123.55
464.549	12922.85
464.754	13295.58
464.959	13309.92
465.165	13045.73
465.37	12466.16
465.575	12269.55
465.781	12802.02
465.986	12824.55
466.191	12445.68
466.397	12126.19
466.602	11386.88
466.807	11843.57
467.012	11941.88
467.218	11823.09
467.423	11806.71
467.628	11573.24
467.833	12357.61
468.038	12054.51
468.244	11687.93
468.449	12087.28
468.654	11532.28
468.859	11423.74
469.064	11464.7
469.269	11046.91
469.474	11069.44
469.679	11341.82
469.885	10872.84
470.09	10844.17
470.295	10881.03
470.5	10637.32
470.705	10788.87
470.91	10450.96
471.115	10557.45
471.32	10420.24
471.525	10661.9
471.73	10323.98
471.935	10223.63
472.139	9883.67
472.344	10047.51
472.549	9949.2
472.754	9746.45
472.959	9734.17
473.164	9654.3
473.369	9357.34
473.574	9506.84
473.778	9410.59
473.983	9369.63
474.188	9484.31
474.393	9084.96
474.598	8939.55
474.802	8966.18
475.007	8675.37
475.212	8851.49
475.417	8529.96
475.621	8640.55
475.826	8661.03
476.031	8489
476.235	8478.76
476.44	8388.65
476.645	8329.26
476.849	8159.28
477.054	7850.03
477.259	7886.9
477.463	7999.54
477.668	7845.94
477.872	7725.11
478.077	7653.43
478.282	7635
478.486	7473.21
478.691	7419.96
478.895	7374.91
479.1	7368.76
479.304	7391.29
479.509	7157.82
479.713	7477.3
479.918	7073.85
480.122	7215.16
480.326	7225.4
480.531	7118.91
480.735	7057.47
480.94	6918.21
481.144	7276.6
481.348	6879.3
481.553	7047.23
481.757	6731.84
481.961	7043.14
482.166	7067.71
482.37	6969.41
482.574	6744.13
482.778	6965.31
482.983	7123.01
483.187	6977.6
483.391	7012.42
483.595	7073.85
483.8	6705.22
484.004	6881.35
484.208	6991.94
484.412	6889.54
484.616	7039.04
484.821	6746.18
485.025	6797.38
485.229	6934.59
485.433	6811.71
485.637	6748.23
485.841	6821.95
486.045	6897.73
486.249	6907.97
486.453	6721.6
486.657	6936.64
486.861	6991.94
487.065	6729.8
487.269	6918.21
487.473	6838.34
487.677	6879.3
487.881	6938.69
488.085	6867.01
488.289	6948.93
488.493	6793.28
488.697	7008.32
488.901	7041.09
489.105	6887.49
489.309	7032.9
489.512	6961.22
489.716	6907.97
489.92	7120.96
490.124	6928.45
490.328	7270.46
490.531	7151.68
490.735	6957.12
490.939	7092.29
491.143	7075.9
491.346	6975.55
491.55	7235.64
491.754	7305.28
491.958	7233.6
492.161	7147.58
492.365	7297.08
492.569	7260.22
492.772	7399.48
492.976	7346.23
493.18	7532.6
493.383	7362.62
493.587	7475.26
493.79	7489.59
493.994	7290.94
494.197	7600.18
494.401	7616.57
494.605	7739.44
494.808	7690.29
495.012	7831.6
495.215	7809.08
495.419	8112.17
495.622	7946.29
495.825	8013.87
496.029	7983.15
496.232	8112.17
496.436	8007.73
496.639	8402.99
496.843	8333.36
497.046	8499.24
497.249	8423.47
497.453	8521.77
497.656	8701.99
497.859	8884.26
498.063	8620.07
498.266	8871.97
498.469	8892.45
498.673	8996.9
498.876	9181.21
499.079	9248.8
499.282	9265.18
499.485	9547.8
499.689	9467.93
499.892	9654.3
500.095	9693.21
500.298	9967.63
500.501	9719.83
500.705	10164.24
500.908	10164.24
501.111	10213.39
501.314	10283.02
501.517	10457.1
501.72	10752.01
501.923	10557.45
502.126	10805.25
502.329	10917.89
502.532	10995.71
502.735	11157.5
502.938	11304.96
503.141	11450.36
503.344	11393.02
503.547	11597.82
503.75	11788.28
503.953	12183.54
504.156	12023.8
504.359	12062.71
504.562	12140.53
504.765	12795.88
504.968	12580.84
505.17	12802.02
505.373	12685.29
505.576	13086.69
505.779	13035.49
505.982	13228
506.185	13373.41
506.387	13541.34
506.59	13606.88
506.793	13850.58
506.996	13783
507.198	14157.78
507.401	14077.91
507.604	14217.17
507.807	14424.01
508.009	14706.63
508.212	14809.03
508.415	14954.44
508.617	15128.52
508.82	15265.73
509.022	15009.73
509.225	15544.25
509.428	15663.04
509.63	15863.74
509.833	15847.35
510.035	16291.76
510.238	16025.53
510.44	16336.82
510.643	16426.93
510.845	16807.85
511.048	17029.03
511.25	16908.2
511.453	17031.08
511.655	17684.38
511.858	17784.73
512.06	17766.3
512.262	17844.12
512.465	17770.4
512.667	17995.67
512.87	18614.16
513.072	18581.39
513.274	18880.39
513.477	18952.07
513.679	19306.37
513.881	19152.77
514.084	19416.96
514.286	19648.38
514.488	19609.47
514.69	20352.88
514.893	20324.21
515.095	20510.58
515.297	20508.53
515.499	20733.81
515.701	21251.94
515.904	21307.24
516.106	21428.07
516.308	21780.32
516.51	21890.91
516.712	21978.97
516.914	22380.37
517.116	22908.75
517.318	22609.75
517.52	23043.92
517.722	22800.21
517.925	23353.16
518.127	23633.73
518.329	23754.56
518.531	23711.55
518.733	24434.49
518.935	24153.91
519.136	24231.74
519.338	24868.66
519.54	25016.11
519.742	25364.26
519.944	25454.37
520.146	25972.51
520.348	25956.13
520.55	26347.29
520.752	26337.05
520.954	26781.46
521.155	26926.86
521.357	27150.09
521.559	27473.67
521.761	27666.18
521.963	27995.9
522.164	28264.19
522.366	27946.75
522.568	28528.38
522.77	28667.64
522.971	29388.52
523.173	28925.68
523.375	29677.29
523.576	29476.58
523.778	29404.91
523.98	30099.17
524.181	30383.84
524.383	30174.94
524.584	31000.27
524.786	30981.84
524.988	30787.28
525.189	31547.08
525.391	31870.66
525.592	31749.83
525.794	32284.35
525.995	32614.07
526.197	32317.12
526.398	32605.88
526.6	32784.05
526.801	33197.74
527.003	33111.73
527.204	32945.84
527.406	33824.42
527.607	33644.2
527.808	33861.29
528.01	33320.62
528.211	34010.79
528.412	34633.37
528.614	34844.31
528.815	34479.77
529.016	34864.79
529.218	34547.36
529.419	35284.62
529.62	35235.47
529.822	34963.09
530.023	35227.28
530.224	35065.49
530.425	35397.26
530.626	35686.03
530.828	35258
531.029	36228.74
531.23	35724.94
531.431	35913.35
531.632	36128.39
531.833	36275.84
532.035	36298.37
532.236	36286.08
532.437	36757.11
532.638	36632.19
532.839	36671.1
533.04	36968.05
533.241	36611.71
533.442	37574.25
533.643	36923
533.844	37135.99
534.045	37191.28
534.246	37025.4
534.447	37197.43
534.648	37289.59
534.849	37559.92
535.05	37230.19
535.251	37604.97
535.451	37848.68
535.652	37867.11
535.853	37570.16
536.054	37385.84
536.255	37846.63
536.456	37439.09
536.657	38198.88
536.857	37697.13
537.058	37879.4
537.259	38258.27
537.46	37723.76
537.66	37570.16
537.861	37822.06
538.062	37568.11
538.263	37842.54
538.463	37946.98
538.664	37975.66
538.865	37989.99
539.065	37865.06
539.266	37676.65
539.466	38174.31
539.667	37613.16
539.868	37977.7
540.068	37969.51
540.269	37670.51
540.469	38362.72
540.67	38110.82
540.87	37879.4
541.071	37781.1
541.271	38458.98
541.472	38037.09
541.672	37903.98
541.873	37729.9
542.073	37756.52
542.274	38555.23
542.474	37883.5
542.675	37916.26
542.875	38217.32
543.075	37994.09
543.276	37586.54
543.476	38143.59
543.676	37936.74
543.877	38018.66
544.077	37596.78
544.277	37631.6
544.478	38178.4
544.678	38256.23
544.878	37611.12
545.078	38051.43
545.279	37789.29
545.479	37543.53
545.679	38192.74
545.879	38121.06
546.079	38231.65
546.28	37729.9
546.48	37402.22
546.68	38055.53
546.88	38141.54
547.08	38202.98
547.28	37289.59
547.48	37609.07
547.68	38184.55
547.88	37561.97
548.081	37901.93
548.281	37727.85
548.481	37729.9
548.681	38215.27
548.881	38198.88
549.081	37887.59
549.28	37527.15
549.48	38190.69
549.68	37965.42
549.88	38196.84
550.08	37707.37
550.28	37824.11
550.48	37973.61
550.68	38137.44
550.88	37895.78
551.08	37701.23
551.279	38143.59
551.479	37731.95
551.679	37830.25
551.879	37658.22
552.079	38145.64
552.278	37650.03
552.478	37693.04
552.678	37633.64
552.878	37930.6
553.077	37969.51
553.277	37363.31
553.477	38217.32
553.676	37979.75
553.876	37418.61
554.076	37465.71
554.275	37703.28
554.475	37043.83
554.674	37625.45
554.874	37502.57
555.074	37207.67
555.273	37578.35
555.473	37645.93
555.672	37078.64
555.872	37281.39
556.071	36912.76
556.271	37158.52
556.47	36949.62
556.67	36552.32
556.869	36791.93
557.068	36927.1
557.268	36359.81
557.467	36636.28
557.667	37119.6
557.866	36167.3
558.065	36433.53
558.265	36466.3
558.464	36060.8
558.663	36667
558.863	36204.16
559.062	36216.45
559.261	36126.34
559.461	36333.18
559.66	35700.36
559.859	35833.48
560.058	35497.61
560.258	35557
560.457	35446.41
560.656	35563.15
560.855	35227.28
561.054	35993.22
561.253	35049.11
561.453	35049.11
561.652	34965.14
561.851	35081.88
562.05	34688.67
562.249	34715.29
562.448	34821.78
562.647	34279.07
562.846	34481.82
563.045	34303.65
563.244	34262.69
563.443	34557.6
563.642	33877.67
563.841	33750.7
564.04	33603.24
564.239	34012.84
564.438	33566.38
564.637	33900.2
564.836	33932.96
565.035	33382.06
565.234	33844.9
565.432	33093.3
565.631	33087.15
565.83	32743.1
566.029	32761.53
566.228	32644.79
566.427	32843.45
566.625	32409.28
566.824	32270.01
567.023	32122.56
567.222	31876.8
567.42	32177.86
567.619	32255.68
567.818	31868.61
568.016	31493.83
568.215	31844.04
568.414	31649.48
568.612	31790.79
568.811	31442.63
569.01	31039.19
569.208	30623.45
569.407	31055.57
569.605	30432.99
569.804	30883.54
570.002	30588.63
570.201	30555.86
570.4	29646.57
570.598	30088.93
570.797	30011.1
570.995	30000.86
571.193	30004.96
571.392	30176.99
571.59	29611.75
571.789	29605.61
571.987	29245.16
572.186	29454.06
572.384	29212.4
572.582	29411.05
572.781	29148.91
572.979	28395.26
573.177	28690.16
573.376	28630.77
573.574	28180.22
573.772	28569.33
573.971	28122.88
574.169	27909.89
574.367	27842.31
574.565	28151.55
574.763	27686.66
574.962	27770.63
575.16	27455.24
575.358	27223.82
575.556	27131.66
575.754	27422.47
575.952	27109.13
576.151	27619.08
576.349	27000.59
576.547	27168.52
576.745	26941.2
576.943	26685.2
577.141	26822.42
577.339	26900.24
577.537	26674.96
577.735	26568.47
577.933	26509.08
578.131	26230.55
578.329	26029.85
578.527	25894.69
578.725	26005.28
578.923	26019.61
579.121	25814.82
579.319	25268.01
579.516	26091.29
579.714	25685.79
579.912	25575.2
580.11	25349.93
580.308	25274.15
580.506	25202.47
580.704	24901.42
580.901	24860.46
581.099	24948.53
581.297	24768.3
581.495	24680.24
581.692	24846.13
581.89	24532.79
582.088	24913.71
582.285	24844.08
582.483	24616.76
582.681	24604.47
582.878	24063.8
583.076	24080.19
583.274	24315.7
583.471	23859.01
583.669	23787.33
583.866	23918.4
584.064	24098.62
584.262	23852.86
584.459	23834.43
584.657	23527.24
584.854	23762.75
585.052	23121.74
585.249	23547.72
585.447	23557.96
585.644	23070.54
585.841	23002.96
586.039	23234.38
586.236	23125.83
586.434	22898.51
586.631	22699.86
586.828	22861.65
587.026	22728.53
587.223	22761.3
587.42	22388.57
587.618	22699.86
587.815	22353.75
588.012	22349.65
588.21	22452.05
588.407	22501.2
588.604	22015.83
588.801	21919.58
588.999	22105.95
589.196	21852
589.393	21792.61
589.59	21763.93
589.787	21737.31
589.984	21712.74
590.182	21217.13
590.379	21542.75
590.576	21622.62
590.773	21366.63
590.97	21460.84
591.167	21127.02
591.364	21112.68
591.561	21172.07
591.758	20825.96
591.955	20778.86
592.152	20961.13
592.349	20715.37
592.546	20862.83
592.743	20922.22
592.94	20510.58
593.137	20604.78
593.334	20676.46
593.531	20297.59
593.727	20762.48
593.924	20338.55
594.121	19914.62
594.318	20539.25
594.515	19752.83
594.712	20123.51
594.908	19957.63
595.105	20072.31
595.302	20037.5
595.499	20037.5
595.696	19744.64
595.892	19681.15
596.089	19797.88
596.286	19726.21
596.482	19656.57
596.679	19564.42
596.876	19533.7
597.072	19574.66
597.269	19421.06
597.466	18943.88
597.662	19017.61
597.859	19322.76
598.055	19099.53
598.252	18839.44
598.448	19013.51
598.645	19015.56
598.841	18700.17
599.038	18739.08
599.234	18825.1
599.431	18620.3
599.627	18366.35
599.824	18620.3
600.02	18319.25
600.217	18454.42
600.413	18507.66
600.609	18077.59
600.806	18079.64
601.002	18231.19
601.198	18306.96
601.395	17934.23
601.591	17946.52
601.787	17872.79
601.984	17811.35
602.18	17749.92
602.376	17690.52
602.572	17534.88
602.769	17770.4
602.965	17442.72
603.161	17428.38
603.357	17549.21
603.553	17508.26
603.75	17199.01
603.946	17352.61
604.142	17323.94
604.338	17117.09
604.534	17274.79
604.73	16998.31
604.926	16703.4
605.122	17125.29
605.318	16848.81
605.514	16801.71
605.71	17004.46
605.906	16781.23
606.102	16813.99
606.298	16703.4
606.494	16676.78
606.69	16869.29
606.886	16768.94
607.082	16224.18
607.278	16533.42
607.474	16125.88
607.67	16457.65
607.866	15904.7
608.062	16379.82
608.257	16316.34
608.453	16127.92
608.649	16117.68
608.845	16183.22
609.041	15951.8
609.236	15826.87
609.432	15931.32
609.628	15867.83
609.824	15843.26
610.019	15613.88
610.215	15867.83
610.411	15718.33
610.606	15847.35
610.802	15636.41
610.998	15620.03
611.193	15589.31
611.389	15734.71
611.584	15398.85
611.78	15357.89
611.976	15439.81
612.171	15398.85
612.367	15316.93
612.562	15235.01
612.758	15093.7
612.953	15151.04
613.149	15282.11
613.344	14964.68
613.539	15288.26
613.735	15103.94
613.93	15046.6
614.126	14929.86
614.321	15120.32
614.517	15069.12
614.712	14970.82
614.907	14733.26
615.103	14989.25
615.298	14909.38
615.493	15202.24
615.688	14733.26
615.884	14886.86
616.079	14571.47
616.274	14559.18
616.47	14749.64
616.665	14626.76
616.86	14507.98
617.055	14729.16
617.25	14559.18
617.445	14761.93
617.641	14352.34
617.836	14659.53
618.031	14125.01
618.226	14358.48
618.421	14284.75
618.616	14227.41
618.811	13971.41
619.006	14102.48
619.201	14045.14
619.396	13690.84
619.591	13750.23
619.786	13725.66
619.981	13457.37
620.176	13901.78
620.371	13578.2
620.566	13557.72
620.761	13610.97
620.956	13670.36
621.151	13228
621.346	13496.28
621.541	12906.47
621.735	13518.81
621.93	13113.31
622.125	13060.07
622.32	13017.06
622.515	12965.86
622.709	12961.76
622.904	12933.09
623.099	12888.04
623.294	12634.09
623.488	12613.61
623.683	12609.51
623.878	12472.3
624.072	12505.07
624.267	12343.28
624.462	12271.6
624.656	12429.29
624.851	12310.51
625.046	11935.73
625.24	12138.48
625.435	12031.99
625.629	11986.93
625.824	11935.73
626.018	11945.97
626.213	11716.6
626.407	11583.48
626.602	11640.83
626.796	11718.65
626.991	11548.67
627.185	11526.14
627.38	11259.9
627.574	11425.79
627.768	11182.08
627.963	11239.42
628.157	11079.68
628.352	11161.6
628.546	10790.92
628.74	11096.07
628.935	10876.93
629.129	10850.31
629.323	10754.05
629.517	10594.31
629.712	10598.41
629.906	10641.42
630.1	10602.5
630.294	10524.68
630.489	10295.31
630.683	10620.94
630.877	10237.97
631.071	10291.21
631.265	10246.16
631.459	10356.75
631.653	10096.66
631.848	10225.68
632.042	10035.22
632.236	9967.63
632.43	9785.37
632.624	9996.31
632.818	9955.35
633.012	9756.69
633.206	9758.74
633.4	9836.56
633.594	9738.26
633.788	9576.47
633.982	9525.27
634.176	9517.08
634.369	9250.85
634.563	9310.24
634.757	9330.72
634.951	9363.48
635.145	9379.87
635.339	9244.7
635.533	9115.68
635.726	9177.12
635.92	8591.4
636.114	8955.94
636.308	8896.55
636.501	8798.24
636.695	8751.14
636.889	8777.76
637.083	8820.77
637.276	8779.81
637.47	8542.25
637.664	8472.62
637.857	8605.74
638.051	8521.77
638.244	8433.71
638.438	8384.55
638.632	8337.45
638.825	8132.65
639.019	8433.71
639.212	8124.46
639.406	8411.18
639.599	8173.61
639.793	8255.53
639.986	8149.04
640.18	8036.4
640.373	8122.41
640.567	7811.12
640.76	7884.85
640.954	7960.63
641.147	7880.75
641.34	7694.39
641.534	7782.45
641.727	7678.01
641.92	7731.25
642.114	7534.65
642.307	7608.37
642.5	7759.92
642.694	7471.16
642.887	7510.07
643.08	7499.83
643.273	7391.29
643.467	7415.87
643.66	7245.88
643.853	7227.45
644.046	7215.16
644.239	7256.12
644.432	7020.61
644.626	7252.03
644.819	7135.29
645.012	7016.51
645.205	7077.95
645.398	7059.52
645.591	6914.11
645.784	6797.38
645.977	6707.27
646.17	6709.32
646.363	6852.67
646.556	6809.67
646.749	6758.47
646.942	6598.73
647.135	6594.63
647.328	6785.09
647.521	6496.33
647.714	6428.74
647.907	6434.89
648.099	6404.17
648.292	6565.96
648.485	6430.79
648.678	6275.15
648.871	6285.39
649.064	6342.73
649.256	6314.06
649.449	6240.33
649.642	6336.59
649.835	6096.97
650.027	6043.73
650.22	6244.43
650.413	6166.6
650.605	6127.69
650.798	5933.14
650.991	6056.01
651.183	6058.06
651.376	5908.56
651.568	5834.83
651.761	5836.88
651.954	5892.18
652.146	5660.76
652.339	5908.56
652.531	5699.67
652.724	5720.15
652.916	5763.15
653.109	5525.59
653.301	5679.19
653.494	5707.86
653.686	5718.1
653.879	5810.26
654.071	5458.01
654.263	5236.83
654.456	5453.91
654.648	5439.58
654.84	5451.86
655.033	5322.84
655.225	5458.01
655.417	5398.62
655.61	5404.76
655.802	5437.53
655.994	5433.43
656.186	5199.96
656.379	5302.36
656.571	5105.76
656.763	5384.28
656.955	5130.33
657.148	5169.24
657.34	5156.96
657.532	5097.56
657.724	5023.84
657.916	5085.28
658.108	5093.47
658.3	5046.37
658.492	5042.27
658.684	4835.42
658.876	4872.29
659.068	4962.4
659.26	4821.09
659.452	4825.19
659.644	4886.62
659.836	4862.05
660.028	4841.57
660.22	4649.06
660.412	4829.28
660.604	4741.22
660.796	4735.07
660.988	4939.87
661.18	4708.45
661.372	4712.55
661.563	4722.79
661.755	4634.72
661.947	4724.83
662.139	4739.17
662.331	4651.11
662.522	4511.85
662.714	4489.32
662.906	4700.26
663.097	4495.46
663.289	4620.39
663.481	4487.27
663.673	4716.64
663.864	4405.35
664.056	4470.89
664.247	4534.37
664.439	4487.27
664.631	4526.18
664.822	4632.68
665.014	4444.26
665.205	4313.19
665.397	4378.73
665.588	4442.21
665.78	4487.27
665.971	4466.79
666.163	4372.58
666.354	4431.98
666.546	4495.46
666.737	4229.23
666.929	4364.39
667.12	4321.38
667.311	4370.54
667.503	4321.38
667.694	4405.35
667.885	4261.99
668.077	4286.57
668.268	4180.07
668.459	4276.33
668.651	4374.63
668.842	4137.07
669.033	4161.64
669.224	4147.31
669.416	4216.94
669.607	4348.01
669.798	4243.56
669.989	4233.32
670.18	4106.35
670.371	4290.67
670.563	4239.47
670.754	4159.6
670.945	4126.83
671.136	4266.09
671.327	4018.29
671.518	4126.83
671.709	4173.93
671.9	4190.31
672.091	4296.81
672.282	4145.26
672.473	4055.15
672.664	4196.46
672.855	4106.35
673.046	4223.08
673.237	4178.03
673.428	4135.02
673.619	4305
673.809	4108.4
674	4196.46
674.191	4354.15
674.382	4173.93
674.573	4141.16
674.764	4190.31
674.954	4305
675.145	4229.23
675.336	4192.36
675.527	4280.43
675.717	4221.03
675.908	4249.71
676.099	4290.67
676.289	4194.41
676.48	4272.23
676.671	4309.1
676.861	4376.68
677.052	4393.06
677.243	4423.78
677.433	4343.91
677.624	4370.54
677.814	4337.77
678.005	4302.95
678.195	4511.85
678.386	4429.93
678.576	4362.34
678.767	4470.89
678.957	4495.46
679.148	4583.52
679.338	4481.13
679.529	4552.81
679.719	4401.26
679.909	4520.04
680.1	4690.02
680.29	4436.07
680.481	4626.53
680.671	4626.53
680.861	4456.55
681.052	4794.47
681.242	4624.48
681.432	4778.08
681.622	4661.35
681.813	4778.08
682.003	4632.68
682.193	4792.42
682.383	4771.94
682.573	4819.04
682.764	4606.05
682.954	4778.08
683.144	4706.4
683.334	4714.59
683.524	4753.51
683.714	4874.34
683.904	4653.16
684.094	4829.28
684.284	4780.13
684.474	4819.04
684.664	4870.24
684.854	4782.18
685.044	4800.61
685.234	4694.12
685.424	4730.98
685.614	4751.46
685.804	4769.89
685.994	4706.4
686.184	4749.41
686.374	4704.35
686.564	4755.55
686.753	4753.51
686.943	4649.06
687.133	4749.41
687.323	4618.34
687.513	4608.1
687.702	4640.87
687.892	4786.27
688.082	4565.09
688.272	4591.72
688.461	4534.37
688.651	4599.91
688.841	4546.66
689.03	4431.98
689.22	4468.84
689.41	4477.03
689.599	4434.02
689.789	4434.02
689.979	4552.81
690.168	4485.22
690.358	4380.78
690.547	4444.26
690.737	4288.62
690.926	4249.71
691.116	4124.78
691.305	4237.42
691.495	4298.86
691.684	4231.27
691.874	4327.53
692.063	4061.29
692.252	4077.68
692.442	4012.14
692.631	3971.18
692.82	4100.2
693.01	4014.19
693.199	3979.37
693.388	3956.85
693.578	4042.86
693.767	4126.83
693.956	4044.91
694.146	3772.53
694.335	3815.54
694.524	3971.18
694.713	3815.54
694.902	3993.71
695.092	3876.98
695.281	3698.8
695.47	3870.83
695.659	3821.68
695.848	3799.15
696.037	3721.33
696.226	3729.52
696.415	3750
696.604	3848.3
696.793	3698.8
696.982	3799.15
697.171	3725.43
697.36	3735.67
697.549	3754.1
697.738	3752.05
697.927	3696.75
698.116	3719.28
698.305	3702.9
698.494	3706.99
698.683	3686.51
698.872	3772.53
699.061	3680.37
699.25	3696.75
699.438	3795.06
699.627	3504.25
699.816	3706.99
700.005	3676.27
700.193	3768.43
700.382	3711.09
700.571	3672.18
700.76	3661.94
700.948	3747.95
701.137	3770.48
701.326	3719.28
701.514	3577.97
701.703	3905.65
701.892	3758.19
702.08	3876.98
702.269	3739.76
702.457	3649.65
702.646	3786.86
702.834	3795.06
703.023	3692.66
703.212	3762.29
703.4	3856.5
703.589	3762.29
703.777	3778.67
703.965	3805.3
704.154	3719.28
704.342	3782.77
704.531	3778.67
704.719	3840.11
704.907	3776.63
705.096	3788.91
705.284	3797.1
705.472	3838.06
705.661	3813.49
705.849	3979.37
706.037	3856.5
706.226	3858.54
706.414	4001.9
706.602	3821.68
706.79	3952.75
706.979	3987.57
707.167	3938.41
707.355	4065.39
707.543	4012.14
707.731	4028.53
707.919	4016.24
708.107	3946.61
708.296	3907.7
708.484	3938.41
708.672	4085.87
708.86	4040.81
709.048	4071.53
709.236	3989.61
709.424	4196.46
709.612	4163.69
709.8	4122.73
709.988	4083.82
710.176	4245.61
710.364	4218.99
710.551	4167.79
710.739	4186.22
710.927	4261.99
711.115	4261.99
711.303	4315.24
711.491	4257.9
711.679	4196.46
711.866	4261.99
712.054	4249.71
712.242	4089.96
712.43	4319.34
712.617	4393.06
712.805	4325.48
712.993	4307.05
713.181	4358.25
713.368	4454.5
713.556	4454.5
713.744	4380.78
713.931	4561
714.119	4550.76
714.306	4554.85
714.494	4604
714.682	4579.43
714.869	4395.11
715.057	4513.89
715.244	4534.37
715.432	4616.29
715.619	4698.21
715.807	4773.99
715.994	4700.26
716.182	4520.04
716.369	4669.54
716.556	4618.34
716.744	4651.11
716.931	4808.8
717.119	4935.78
717.306	4900.96
717.493	4814.95
717.681	4735.07
717.868	4819.04
718.055	4847.71
718.242	4892.77
718.43	5122.14
718.617	4943.97
718.804	4946.02
718.991	4972.64
719.179	4972.64
719.366	5066.85
719.553	5007.45
719.74	5054.56
719.927	5056.61
720.114	5232.73
720.301	5093.47
720.488	5165.15
720.676	5197.92
720.863	5083.23
721.05	5359.7
721.237	5333.08
721.424	5378.14
721.611	5261.4
721.798	5208.16
721.985	5013.6
722.172	5326.94
722.358	5355.61
722.545	5343.32
722.732	5224.54
722.919	5498.97
723.106	5300.31
723.293	5339.23
723.48	5433.43
723.667	5331.03
723.853	5441.62
724.04	5462.1
724.227	5351.51
724.414	5453.91
724.6	5488.73
724.787	5671
724.974	5466.2
725.161	5544.02
725.347	5519.45
725.534	5724.24
725.72	5546.07
725.907	5566.55
726.094	5730.39
726.28	5640.28
726.467	5644.37
726.653	5699.67
726.84	5638.23
727.027	5746.77
727.213	5646.42
727.4	5740.63
727.586	5640.28
727.773	5673.04
727.959	5699.67
728.145	5707.86
728.332	5677.14
728.518	5744.72
728.705	5863.51
728.891	5855.31
729.077	5806.16
729.264	5785.68
729.45	5797.97
729.636	6162.51
729.823	5732.44
730.009	5814.35
730.195	5939.28
730.382	6105.17
730.568	6064.21
730.754	5881.94
730.94	6033.49
731.126	5875.79
731.313	6088.78
731.499	6058.06
731.685	6123.6
731.871	6080.59
732.057	6088.78
732.243	6144.08
732.429	5949.52
732.615	6068.3
732.801	6156.36
732.987	5984.34
733.173	6201.42
733.359	6010.96
733.545	6101.07
733.731	6053.97
733.917	6144.08
734.103	6070.35
734.289	6051.92
734.475	6103.12
734.661	6174.8
734.847	6297.67
735.033	6103.12
735.219	6178.89
735.404	6019.15
735.59	6133.84
735.776	6146.12
735.962	6139.98
736.148	6248.52
736.333	6123.6
736.519	6178.89
736.705	6189.13
736.89	6068.3
737.076	6156.36
737.262	6170.7
737.447	6033.49
737.633	6002.77
737.819	6068.3
738.004	6125.65
738.19	6195.28
738.375	6160.46
738.561	6314.06
738.747	5922.9
738.932	6156.36
739.118	6096.97
739.303	6056.01
739.489	6158.41
739.674	6035.53
739.859	6078.54
740.045	6017.1
740.23	5994.58
740.416	5875.79
740.601	6033.49
740.786	6043.73
740.972	5787.73
741.157	5869.65
741.342	6000.72
741.528	6107.21
741.713	5965.9
741.898	5894.22
742.084	5906.51
742.269	5978.19
742.454	5978.19
742.639	6027.34
742.824	5671
743.01	5800.02
743.195	5959.76
743.38	5738.58
743.565	5765.2
743.75	5828.69
743.935	5605.46
744.12	5867.6
744.305	5574.74
744.49	5617.75
744.675	5453.91
744.86	5582.93
745.045	5453.91
745.23	5589.08
745.415	5390.42
745.6	5648.47
745.785	5523.54
745.97	5498.97
746.155	5349.47
746.34	5533.78
746.525	5527.64
746.71	5468.25
746.895	5261.4
747.079	5296.22
747.264	5156.96
747.449	5253.21
747.634	5144.67
747.819	5204.06
748.003	5154.91
748.188	5089.37
748.373	5091.42
748.557	5134.43
748.742	4960.35
748.927	5007.45
749.111	4984.93
749.296	4898.91
749.481	5050.46
749.665	4835.42
749.85	4804.71
750.034	4819.04
750.219	4737.12
750.404	4706.4
750.588	4681.83
750.773	4649.06
750.957	4831.33
751.141	4495.46
751.326	4636.77
751.51	4503.65
751.695	4356.2
751.879	4581.48
752.064	4454.5
752.248	4565.09
752.432	4399.21
752.617	4468.84
752.801	4202.6
752.985	4337.77
753.17	4391.02
753.354	4364.39
753.538	4108.4
753.722	4198.51
753.907	4104.3
754.091	4163.69
754.275	4098.16
754.459	4053.1
754.643	4065.39
754.828	4042.86
755.012	3942.51
755.196	3897.46
755.38	3999.85
755.564	3924.08
755.748	3889.26
755.932	3752.05
756.116	3840.11
756.3	3774.58
756.484	3692.66
756.668	3725.43
756.852	3616.88
757.036	3778.67
757.22	3485.81
757.404	3735.67
757.588	3610.74
757.772	3537.01
757.956	3594.36
758.14	3455.09
758.323	3463.29
758.507	3602.55
758.691	3266.68
758.875	3459.19
759.059	3330.17
759.242	3272.82
759.426	3334.26
759.61	3223.67
759.794	3336.31
759.977	3336.31
760.161	3225.72
760.345	3250.3
760.528	3242.11
760.712	3123.32
760.895	3225.72
761.079	3278.97
761.263	3070.08
761.446	3049.6
761.63	3102.84
761.813	3172.47
761.997	3063.93
762.18	3051.64
762.364	3002.49
762.547	3065.98
762.731	2965.63
762.914	2848.9
763.098	2873.47
763.281	2881.66
763.464	2934.91
763.648	2939.01
763.831	2834.56
764.015	2994.3
764.198	2971.77
764.381	2838.66
764.564	2826.37
764.748	2734.21
764.931	2840.7
765.114	2787.46
765.297	2887.81
765.481	2752.64
765.664	2590.85
765.847	2711.68
766.03	2789.5
766.213	2689.15
766.397	2723.97
766.58	2617.47
766.763	2666.63
766.946	2601.09
767.129	2570.37
767.312	2553.99
767.495	2652.29
767.678	2455.69
767.861	2637.95
768.044	2537.6
768.227	2537.6
768.41	2484.36
768.593	2588.8
768.776	2461.83
768.959	2377.86
769.142	2570.37
769.324	2549.89
769.507	2427.01
769.69	2316.42
769.873	2445.45
770.056	2414.73
770.239	2381.96
770.421	2431.11
770.604	2441.35
770.787	2302.09
770.97	2312.33
771.152	2193.55
771.335	2275.46
771.518	2324.62
771.7	2281.61
771.883	2240.65
772.066	2300.04
772.248	2240.65
772.431	2269.32
772.613	2111.63
772.796	2115.72
772.978	2248.84
773.161	2254.98
773.343	2103.43
773.526	2144.39
773.708	2085
773.891	2013.32
774.073	2060.43
774.256	2085
774.438	2111.63
774.621	2037.9
774.803	2015.37
774.985	1964.17
775.168	2023.56
775.35	1972.36
775.532	1839.25
775.715	1869.97
775.897	1935.5
776.079	1923.21
776.261	1861.77
776.444	1863.82
776.626	1833.1
776.808	1759.38
776.99	1872.01
777.173	1783.95
777.355	1890.45
777.537	1683.6
777.719	1747.09
777.901	1687.7
778.083	1693.84
778.265	1685.65
778.447	1767.57
778.629	1677.46
778.811	1681.55
778.993	1681.55
779.175	1650.83
779.357	1626.26
779.539	1544.34
779.721	1702.03
779.903	1530
780.085	1505.43
780.267	1570.96
780.449	1577.11
780.631	1521.81
780.812	1581.2
780.994	1511.57
781.176	1454.23
781.358	1480.85
781.54	1497.24
781.721	1403.03
781.903	1497.24
782.085	1417.37
782.267	1396.89
782.448	1439.89
782.63	1388.69
782.812	1407.13
782.993	1292.44
783.175	1296.53
783.357	1362.07
783.538	1296.53
783.72	1329.3
783.901	1294.49
784.083	1284.25
784.264	1343.64
784.446	1243.29
784.627	1282.2
784.809	1233.05
784.99	1226.9
785.172	1228.95
785.353	1194.14
785.535	1216.66
785.716	1124.51
785.897	1116.31
786.079	1138.84
786.26	1245.34
786.441	1116.31
786.623	1192.09
786.804	1110.17
786.985	1214.62
787.167	1144.99
787.348	1101.98
787.529	1069.21
787.71	1134.75
787.891	1136.79
788.073	1052.83
788.254	1083.55
788.435	1079.45
788.616	1075.35
788.797	1026.2
788.978	997.53
789.159	823.45
789.34	1056.92
789.522	1112.22
789.703	995.48
789.884	981.15
790.065	983.2
790.246	964.76
790.427	841.89
790.607	1026.2
790.788	1022.11
790.969	864.41
791.15	1009.82
791.331	940.19
791.512	848.03
791.693	903.32
791.874	860.32
792.054	944.28
792.235	891.04
792.416	864.41
792.597	872.61
792.778	813.21
792.958	817.31
793.139	870.56
793.32	772.25
793.5	868.51
793.681	817.31
793.862	825.5
794.042	733.34
794.223	755.87
794.404	845.98
794.584	706.72
794.765	784.54
794.945	776.35
795.126	850.08
795.306	845.98
795.487	673.95
795.667	817.31
795.848	712.86
796.028	626.85
796.209	751.78
796.389	692.38
796.57	741.54
796.75	686.24
796.93	721.06
797.111	682.14
797.291	667.81
797.471	747.68
797.652	704.67
797.832	645.28
798.012	682.14
798.192	725.15
798.373	688.29
798.553	788.64
798.733	620.71
798.913	676
799.093	589.99
799.274	702.62
799.454	716.96
799.634	706.72
799.814	577.7
799.994	653.47
800.174	620.71
800.354	719.01
800.534	596.13
800.714	651.42
800.894	620.71
801.074	657.57
801.254	657.57
801.434	620.71
801.614	592.03
801.794	604.32
801.974	1341.59
802.154	651.42
802.334	630.95
802.514	563.36
802.693	546.98
802.873	606.37
803.053	583.84
803.233	538.79
803.413	571.55
803.592	534.69
803.772	569.51
803.952	557.22
804.131	485.54
804.311	563.36
804.491	540.83
804.67	567.46
804.85	469.16
805.03	514.21
805.209	577.7
805.389	577.7
805.568	442.53
805.748	546.98
805.928	506.02
806.107	471.2
806.287	508.07
806.466	487.59
806.646	467.11
806.825	477.35
807.004	479.4
807.184	489.64
807.363	551.07
807.543	460.96
807.722	456.87
807.901	473.25
808.081	546.98
808.26	426.15
808.439	460.96
808.619	493.73
808.798	510.11
808.977	481.44
809.156	571.55
809.336	432.29
809.515	479.4
809.694	456.87
809.873	483.49
810.052	438.44
810.231	542.88
810.411	491.68
810.59	467.11
810.769	448.68
810.948	428.2
811.127	333.99
811.306	471.2
811.485	448.68
811.664	487.59
811.843	411.81
812.022	424.1
812.201	344.23
812.38	420
812.559	379.04
812.737	348.33
812.916	350.37
813.095	374.95
813.274	454.82
813.453	463.01
813.632	399.52
813.811	333.99
813.989	383.14
814.168	350.37
814.347	407.72
814.526	301.22
814.704	481.44
814.883	479.4
815.062	321.7
815.24	391.33
815.419	352.42
815.598	366.76
815.776	315.56
815.955	383.14
816.133	307.37
816.312	389.28
816.49	440.48
816.669	313.51
816.847	391.33
817.026	424.1
817.204	374.95
817.383	360.61
817.561	362.66
817.74	397.48
817.918	346.28
818.097	362.66
818.275	243.88
818.453	315.56
818.632	342.18
818.81	303.27
818.988	274.6
819.167	278.69
819.345	266.41
819.523	358.57
819.701	286.89
819.879	389.28
820.058	377
820.236	346.28
820.414	358.57
820.592	235.69
820.77	266.41
820.948	383.14
821.127	250.02
821.305	227.5
821.483	305.32
821.661	333.99
821.839	301.22
822.017	264.36
822.195	311.46
822.373	288.93
822.551	309.41
822.729	385.19
822.907	315.56
823.085	305.32
823.262	247.97
823.44	153.77
823.618	340.13
823.796	317.61
823.974	280.74
824.152	239.78
824.329	280.74
824.507	276.65
824.685	311.46
824.863	270.5
825.04	211.11
825.218	280.74
825.396	250.02
825.574	268.45
825.751	243.88
825.929	374.95
826.107	290.98
826.284	204.97
826.462	196.78
826.639	309.41
826.817	280.74
826.994	223.4
827.172	270.5
827.349	268.45
827.527	309.41
827.704	231.59
827.882	247.97
828.059	286.89
828.237	219.3
828.414	254.12
828.591	159.91
828.769	192.68
828.946	258.21
829.124	282.79
829.301	270.5
829.478	333.99
829.655	235.69
829.833	213.16
830.01	125.1
830.187	293.03
830.364	276.65
830.542	284.84
830.719	200.87
830.896	213.16
831.073	243.88
831.25	211.11
831.427	235.69
831.604	227.5
831.782	123.05
831.959	170.15
832.136	202.92
832.313	231.59
832.49	196.78
832.667	159.91
832.844	114.86
833.021	202.92
833.198	209.06
833.374	143.53
833.551	266.41
833.728	225.45
833.905	211.11
834.082	190.63
834.259	209.06
834.436	178.34
834.612	96.43
834.789	194.73
834.966	188.58
835.143	180.39
835.319	221.35
835.496	243.88
835.673	180.39
835.85	184.49
836.026	217.26
836.203	151.72
836.38	182.44
836.556	178.34
836.733	161.96
836.909	231.59
837.086	137.38
837.262	84.14
837.439	184.49
837.616	104.62
837.792	153.77
837.968	213.16
838.145	141.48
838.321	116.9
838.498	135.34
838.674	186.54
838.851	145.58
839.027	71.85
839.203	161.96
839.38	176.3
839.556	92.33
839.732	227.5
839.909	118.95
840.085	247.97
840.261	161.96
840.437	209.06
840.614	170.15
840.79	168.1
840.966	186.54
841.142	116.9
841.318	104.62
841.494	102.57
841.671	153.77
841.847	104.62
842.023	153.77
842.199	141.48
842.375	192.68
842.551	59.56
842.727	30.89
842.903	215.21
843.079	88.23
843.255	202.92
843.431	129.19
843.607	143.53
843.783	96.43
843.959	106.67
844.134	51.37
844.31	209.06
844.486	121
844.662	96.43
844.838	96.43
845.013	168.1
845.189	178.34
845.365	121
845.541	75.95
845.716	157.86
845.892	112.81
846.068	77.99
846.244	102.57
846.419	204.97
846.595	123.05
846.77	137.38
846.946	141.48
847.122	161.96
847.297	53.42
847.473	157.86
847.648	26.79
847.824	133.29
847.999	67.75
848.175	108.71
848.35	159.91
848.526	143.53
848.701	135.34
848.876	174.25
849.052	125.1
849.227	84.14
849.403	59.56
849.578	121
849.753	67.75
849.929	121
850.104	96.43
850.279	82.09
850.454	67.75
850.63	125.1
850.805	110.76
850.98	96.43
851.155	118.95
851.33	139.43
851.505	112.81
851.681	151.72
851.856	61.61
852.031	135.34
852.206	121
852.381	121
852.556	22.7
852.731	98.47
852.906	63.66
853.081	98.47
853.256	135.34
853.431	88.23
853.606	39.08
853.781	39.08
853.956	55.47
854.131	112.81
854.305	118.95
854.48	51.37
854.655	145.58
854.83	45.23
855.005	131.24
855.18	71.85
855.354	149.67
855.529	69.8
855.704	0.17
855.879	161.96
856.053	34.99
856.228	108.71
856.403	86.19
856.577	65.71
856.752	8.36
856.926	30.89
857.101	104.62
857.276	2.22
857.45	125.1
857.625	37.03
857.799	168.1
857.974	30.89
858.148	69.8
858.323	121
858.497	57.51
858.672	49.32
858.846	80.04
859.02	137.38
859.195	69.8
859.369	6.31
859.543	84.14
859.718	127.14
859.892	-44.88
860.066	80.04
860.241	61.61
860.415	47.27
860.589	30.89
860.763	43.18
860.938	57.51
861.112	65.71
861.286	39.08
861.46	14.51
861.634	125.1
861.808	133.29
861.982	6.31
862.157	43.18
862.331	82.09
862.505	63.66
862.679	-30.55
862.853	39.08
863.027	71.85
863.201	125.1
863.375	88.23
863.549	20.65
863.722	57.51
863.896	100.52
864.07	63.66
864.244	61.61
864.418	59.56
864.592	43.18
864.766	34.99
864.939	30.89
865.113	112.81
865.287	80.04
865.461	24.75
865.634	80.04
865.808	61.61
865.982	41.13
866.156	22.7
866.329	47.27
866.503	22.7
866.676	137.38
866.85	30.89
867.024	49.32
867.197	53.42
867.371	116.9
867.544	12.46
867.718	63.66
867.891	43.18
868.065	63.66
868.238	-10.07
868.412	98.47
868.585	45.23
868.759	55.47
868.932	43.18
869.105	-10.07
869.279	10.41
869.452	37.03
869.625	88.23
869.799	47.27
869.972	0.17
870.145	45.23
870.319	34.99
870.492	102.57
870.665	30.89
870.838	-14.17
871.011	2.22
871.185	43.18
871.358	-26.45
871.531	153.77
871.704	69.8
871.877	53.42
872.05	63.66
872.223	47.27
872.396	-22.36
872.569	53.42
872.742	65.71
872.915	30.89
873.088	39.08
873.261	67.75
873.434	151.72
873.607	-14.17
873.78	53.42
873.953	-94.04
874.126	49.32
874.299	125.1
874.471	30.89
874.644	88.23
874.817	28.84
874.99	125.1
875.163	14.51
875.335	49.32
875.508	-42.84
875.681	37.03
875.853	39.08
876.026	88.23
876.199	41.13
876.371	155.82
876.544	102.57
876.717	34.99
876.889	-18.26
877.062	69.8
877.234	-8.02
877.407	96.43
877.579	43.18
877.752	-5.97
877.924	77.99
878.097	96.43
878.269	55.47
878.442	86.19
878.614	86.19
878.786	121
878.959	30.89
879.131	84.14
879.303	14.51
879.476	69.8
879.648	65.71
879.82	51.37
879.993	96.43
880.165	-42.84
880.337	14.51
880.509	-10.07
880.681	41.13
880.854	-14.17
881.026	69.8
881.198	102.57
881.37	14.51
881.542	10.41
881.714	61.61
881.886	55.47
882.058	61.61
882.23	2.22
882.402	-3.93
882.574	-51.03
882.746	34.99
882.918	84.14
883.09	8.36
883.262	-16.21
883.434	34.99
883.606	71.85
883.778	-14.17
883.95	84.14
884.122	6.31
884.293	77.99
884.465	69.8
884.637	16.55
884.809	-44.88
884.98	6.31
885.152	14.51
885.324	100.52
885.496	6.31
885.667	28.84
885.839	55.47
886.011	47.27
886.182	55.47
886.354	26.79
886.525	47.27
886.697	67.75
886.869	-63.32
887.04	30.89
887.212	69.8
887.383	178.34
887.555	67.75
887.726	26.79
887.897	-5.97
888.069	6.31
888.24	112.81
888.412	-44.88
888.583	12.46
888.754	96.43
888.926	-12.12
889.097	-34.64
889.268	0.17
889.44	-48.98
889.611	4.27
889.782	-28.5
889.953	-102.23
890.125	39.08
890.296	-22.36
890.467	-10.07
890.638	94.38
890.809	153.77
890.98	-20.31
891.151	22.7
891.323	37.03
891.494	45.23
891.665	53.42
891.836	32.94
892.007	63.66
892.178	143.53
892.349	-18.26
892.52	39.08
892.691	41.13
892.862	-32.6
893.032	-18.26
893.203	-12.12
893.374	37.03
893.545	22.7
893.716	28.84
893.887	55.47
894.057	63.66
894.228	39.08
894.399	37.03
894.57	53.42
894.74	26.79
894.911	69.8
895.082	2.22
895.253	28.84
895.423	22.7
895.594	90.28
895.764	84.14
895.935	47.27
896.106	-1.88
896.276	-1.88
896.447	49.32
896.617	-1.88
896.788	-18.26
896.958	-36.69
897.129	67.75
897.299	39.08
897.47	34.99
897.64	41.13
897.81	65.71
897.981	22.7
898.151	53.42
898.322	75.95
898.492	59.56
898.662	0.17
898.832	-1.88
899.003	-12.12
899.173	90.28
899.343	-12.12
899.513	-100.18
