Data from USB4F104151__105__11-35-14-796.txt Node

Date: Fri Mar 14 11:35:14 EDT 2025
User: louis
Spectrometer: USB4F10415
Trigger mode: 4
Integration Time (sec): 2.000000E-2
Scans to average: 1
Electric dark correction enabled: true
Nonlinearity correction enabled: false
Boxcar width: 0
XAxis mode: Wavelengths
Number of Pixels in Spectrum: 3648
>>>>>Begin Spectral Data<<<<<
178.204	-74.24
178.424	-74.24
178.644	-74.24
178.864	-123.39
179.084	-72.19
179.304	-37.38
179.524	-23.04
179.744	-23.04
179.964	-12.8
180.184	-16.9
180.404	5.63
180.624	95.74
180.844	32.26
181.064	17.92
181.283	28.16
181.503	-4.61
181.723	-61.95
181.943	-33.28
182.163	28.16
182.383	38.4
182.602	3.58
182.822	-16.9
183.042	3.58
183.262	-2.56
183.482	24.06
183.701	-10.75
183.921	7.68
184.141	-66.05
184.361	24.06
184.58	-2.56
184.8	-64
185.02	-70.14
185.239	-8.7
185.459	32.26
185.679	65.02
185.898	-59.9
186.118	19.97
186.338	1.54
186.557	-20.99
186.777	-74.24
186.997	52.74
187.216	-23.04
187.436	62.98
187.655	-8.7
187.875	28.16
188.095	19.97
188.314	89.6
188.534	7.68
188.753	17.92
188.973	-10.75
189.192	44.54
189.412	50.69
189.631	19.97
189.851	-31.23
190.07	22.02
190.29	38.4
190.509	-23.04
190.729	-14.85
190.948	-43.52
191.168	114.17
191.387	40.45
191.607	54.78
191.826	32.26
192.045	24.06
192.265	26.11
192.484	-0.51
192.704	3.58
192.923	-66.05
193.142	62.98
193.362	-2.56
193.581	17.92
193.8	-35.33
194.02	-18.94
194.239	1.54
194.458	19.97
194.678	11.78
194.897	13.82
195.116	-33.28
195.335	17.92
195.555	9.73
195.774	-57.86
195.993	-4.61
196.212	30.21
196.432	40.45
196.651	34.3
196.87	-27.14
197.089	-29.18
197.308	-0.51
197.528	73.21
197.747	-33.28
197.966	5.63
198.185	24.06
198.404	9.73
198.623	30.21
198.842	26.11
199.062	40.45
199.281	3.58
199.5	34.3
199.719	32.26
199.938	54.78
200.157	15.87
200.376	26.11
200.595	65.02
200.814	11.78
201.033	-49.66
201.252	32.26
201.471	110.08
201.69	54.78
201.909	34.3
202.128	79.36
202.347	-45.57
202.566	-41.47
202.785	-27.14
203.004	17.92
203.223	69.12
203.442	48.64
203.661	-2.56
203.879	13.82
204.098	22.02
204.317	54.78
204.536	3.58
204.755	42.5
204.974	50.69
205.193	-27.14
205.411	38.4
205.63	28.16
205.849	-10.75
206.068	7.68
206.287	34.3
206.505	52.74
206.724	83.45
206.943	-10.75
207.162	7.68
207.381	-23.04
207.599	-18.94
207.818	48.64
208.037	-68.09
208.255	-51.71
208.474	5.63
208.693	1.54
208.911	36.35
209.13	56.83
209.349	120.32
209.567	26.11
209.786	15.87
210.005	36.35
210.223	-31.23
210.442	-39.42
210.661	48.64
210.879	-0.51
211.098	40.45
211.316	83.45
211.535	22.02
211.753	11.78
211.972	-41.47
212.191	-0.51
212.409	11.78
212.628	19.97
212.846	-8.7
213.065	-18.94
213.283	36.35
213.502	15.87
213.72	9.73
213.938	-41.47
214.157	3.58
214.375	56.83
214.594	97.79
214.812	62.98
215.031	69.12
215.249	19.97
215.467	-39.42
215.686	32.26
215.904	-27.14
216.122	3.58
216.341	13.82
216.559	62.98
216.778	-20.99
216.996	-8.7
217.214	-20.99
217.432	-4.61
217.651	5.63
217.869	-33.28
218.087	-12.8
218.306	-16.9
218.524	3.58
218.742	-16.9
218.96	-53.76
219.179	24.06
219.397	32.26
219.615	32.26
219.833	60.93
220.051	-43.52
220.27	26.11
220.488	38.4
220.706	22.02
220.924	48.64
221.142	-43.52
221.36	-6.66
221.578	19.97
221.796	-61.95
222.015	42.5
222.233	-8.7
222.451	62.98
222.669	-18.94
222.887	7.68
223.105	-8.7
223.323	-31.23
223.541	-39.42
223.759	38.4
223.977	-70.14
224.195	36.35
224.413	81.41
224.631	42.5
224.849	-45.57
225.067	-33.28
225.285	-8.7
225.503	24.06
225.721	-39.42
225.939	-0.51
226.157	26.11
226.375	36.35
226.592	30.21
226.81	-66.05
227.028	50.69
227.246	-20.99
227.464	-27.14
227.682	89.6
227.9	28.16
228.117	22.02
228.335	-4.61
228.553	19.97
228.771	32.26
228.989	19.97
229.206	89.6
229.424	46.59
229.642	11.78
229.86	19.97
230.077	-4.61
230.295	-16.9
230.513	-68.09
230.731	-29.18
230.948	26.11
231.166	-33.28
231.384	5.63
231.601	-6.66
231.819	19.97
232.037	-18.94
232.254	-12.8
232.472	46.59
232.689	60.93
232.907	5.63
233.125	-25.09
233.342	54.78
233.56	15.87
233.777	52.74
233.995	-27.14
234.213	-14.85
234.43	32.26
234.648	-119.29
234.865	15.87
235.083	36.35
235.3	9.73
235.518	38.4
235.735	-12.8
235.953	19.97
236.17	-49.66
236.388	77.31
236.605	77.31
236.822	17.92
237.04	60.93
237.257	-31.23
237.475	-35.33
237.692	5.63
237.909	56.83
238.127	34.3
238.344	7.68
238.562	-2.56
238.779	-41.47
238.996	44.54
239.214	56.83
239.431	-25.09
239.648	-98.81
239.865	34.3
240.083	87.55
240.3	-31.23
240.517	-57.86
240.735	40.45
240.952	-18.94
241.169	-33.28
241.386	69.12
241.603	44.54
241.821	7.68
242.038	38.4
242.255	-82.43
242.472	5.63
242.689	67.07
242.907	22.02
243.124	-43.52
243.341	13.82
243.558	-74.24
243.775	19.97
243.992	22.02
244.209	24.06
244.426	-18.94
244.643	11.78
244.86	-2.56
245.078	54.78
245.295	24.06
245.512	17.92
245.729	3.58
245.946	85.5
246.163	40.45
246.38	30.21
246.597	48.64
246.814	42.5
247.031	36.35
247.248	89.6
247.464	-80.38
247.681	11.78
247.898	-33.28
248.115	71.17
248.332	28.16
248.549	3.58
248.766	-35.33
248.983	52.74
249.2	-16.9
249.417	36.35
249.633	56.83
249.85	56.83
250.067	-45.57
250.284	26.11
250.501	-16.9
250.717	50.69
250.934	-33.28
251.151	42.5
251.368	-35.33
251.585	5.63
251.801	48.64
252.018	44.54
252.235	24.06
252.451	30.21
252.668	26.11
252.885	77.31
253.102	-74.24
253.318	11.78
253.535	44.54
253.752	5.63
253.968	32.26
254.185	15.87
254.401	30.21
254.618	40.45
254.835	3.58
255.051	58.88
255.268	42.5
255.484	48.64
255.701	46.59
255.917	32.26
256.134	-59.9
256.351	-25.09
256.567	99.84
256.784	-12.8
257	-43.52
257.217	52.74
257.433	13.82
257.65	-14.85
257.866	19.97
258.082	40.45
258.299	-35.33
258.515	-10.75
258.732	22.02
258.948	-74.24
259.165	-0.51
259.381	48.64
259.597	69.12
259.814	30.21
260.03	22.02
260.246	-0.51
260.463	11.78
260.679	48.64
260.895	38.4
261.112	75.26
261.328	7.68
261.544	-2.56
261.761	46.59
261.977	99.84
262.193	-8.7
262.409	65.02
262.626	42.5
262.842	62.98
263.058	-64
263.274	65.02
263.49	79.36
263.707	34.3
263.923	5.63
264.139	3.58
264.355	-53.76
264.571	-35.33
264.787	-35.33
265.004	-23.04
265.22	-8.7
265.436	-90.62
265.652	91.65
265.868	-4.61
266.084	40.45
266.3	24.06
266.516	-59.9
266.732	56.83
266.948	-33.28
267.164	-20.99
267.38	56.83
267.596	38.4
267.812	1.54
268.028	42.5
268.244	22.02
268.46	54.78
268.676	13.82
268.892	38.4
269.108	-16.9
269.324	46.59
269.54	54.78
269.756	-8.7
269.972	-29.18
270.188	7.68
270.403	67.07
270.619	7.68
270.835	-2.56
271.051	22.02
271.267	-59.9
271.483	-74.24
271.698	36.35
271.914	-27.14
272.13	-8.7
272.346	46.59
272.562	11.78
272.777	5.63
272.993	30.21
273.209	48.64
273.425	40.45
273.64	5.63
273.856	13.82
274.072	7.68
274.287	13.82
274.503	67.07
274.719	67.07
274.934	1.54
275.15	-18.94
275.366	-8.7
275.581	9.73
275.797	-8.7
276.012	28.16
276.228	3.58
276.444	11.78
276.659	-6.66
276.875	-25.09
277.09	-20.99
277.306	-27.14
277.521	13.82
277.737	-31.23
277.952	5.63
278.168	3.58
278.383	-6.66
278.599	-23.04
278.814	-18.94
279.03	22.02
279.245	95.74
279.461	-12.8
279.676	34.3
279.892	-57.86
280.107	-4.61
280.322	-25.09
280.538	60.93
280.753	-8.7
280.969	-10.75
281.184	32.26
281.399	-14.85
281.615	24.06
281.83	-27.14
282.045	-10.75
282.26	-51.71
282.476	-12.8
282.691	30.21
282.906	60.93
283.122	5.63
283.337	48.64
283.552	73.21
283.767	11.78
283.983	-8.7
284.198	-66.05
284.413	-23.04
284.628	-18.94
284.843	36.35
285.058	67.07
285.274	3.58
285.489	-4.61
285.704	5.63
285.919	-29.18
286.134	65.02
286.349	13.82
286.564	46.59
286.779	28.16
286.995	-29.18
287.21	-35.33
287.425	32.26
287.64	-27.14
287.855	24.06
288.07	-12.8
288.285	65.02
288.5	48.64
288.715	56.83
288.93	3.58
289.145	65.02
289.36	34.3
289.575	87.55
289.79	22.02
290.004	-45.57
290.219	19.97
290.434	65.02
290.649	5.63
290.864	-23.04
291.079	-29.18
291.294	15.87
291.509	-47.62
291.724	89.6
291.938	-0.51
292.153	-29.18
292.368	-43.52
292.583	3.58
292.798	-35.33
293.012	-41.47
293.227	3.58
293.442	-20.99
293.657	-12.8
293.871	79.36
294.086	44.54
294.301	93.69
294.516	85.5
294.73	46.59
294.945	-4.61
295.16	56.83
295.374	15.87
295.589	30.21
295.804	24.06
296.018	7.68
296.233	-12.8
296.447	28.16
296.662	-33.28
296.877	30.21
297.091	-20.99
297.306	36.35
297.52	22.02
297.735	-6.66
297.949	3.58
298.164	19.97
298.378	-68.09
298.593	-41.47
298.807	-68.09
299.022	15.87
299.236	-2.56
299.451	62.98
299.665	-20.99
299.88	-10.75
300.094	26.11
300.309	34.3
300.523	-0.51
300.737	56.83
300.952	-43.52
301.166	38.4
301.381	44.54
301.595	15.87
301.809	30.21
302.024	9.73
302.238	28.16
302.452	77.31
302.667	30.21
302.881	46.59
303.095	91.65
303.309	7.68
303.524	-41.47
303.738	42.5
303.952	-76.29
304.166	122.37
304.381	-20.99
304.595	34.3
304.809	-35.33
305.023	48.64
305.237	-4.61
305.452	19.97
305.666	-35.33
305.88	36.35
306.094	5.63
306.308	103.93
306.522	73.21
306.736	-10.75
306.95	13.82
307.164	24.06
307.379	30.21
307.593	46.59
307.807	-4.61
308.021	46.59
308.235	-20.99
308.449	5.63
308.663	24.06
308.877	-4.61
309.091	17.92
309.305	-0.51
309.519	32.26
309.733	83.45
309.947	-12.8
310.161	52.74
310.374	24.06
310.588	38.4
310.802	46.59
311.016	19.97
311.23	52.74
311.444	34.3
311.658	46.59
311.872	15.87
312.085	32.26
312.299	28.16
312.513	46.59
312.727	-61.95
312.941	28.16
313.154	19.97
313.368	5.63
313.582	65.02
313.796	22.02
314.009	-20.99
314.223	-18.94
314.437	56.83
314.651	-16.9
314.864	1.54
315.078	-8.7
315.292	-47.62
315.505	11.78
315.719	26.11
315.933	44.54
316.146	28.16
316.36	22.02
316.573	-10.75
316.787	-51.71
317.001	110.08
317.214	-31.23
317.428	60.93
317.641	60.93
317.855	62.98
318.068	-0.51
318.282	-90.62
318.495	11.78
318.709	7.68
318.922	1.54
319.136	54.78
319.349	56.83
319.563	73.21
319.776	32.26
319.99	40.45
320.203	-23.04
320.417	7.68
320.63	-2.56
320.843	5.63
321.057	9.73
321.27	-39.42
321.483	38.4
321.697	105.98
321.91	22.02
322.124	79.36
322.337	24.06
322.55	56.83
322.763	24.06
322.977	7.68
323.19	-8.7
323.403	52.74
323.617	9.73
323.83	5.63
324.043	85.5
324.256	42.5
324.469	9.73
324.683	52.74
324.896	-33.28
325.109	17.92
325.322	30.21
325.535	87.55
325.748	-4.61
325.962	65.02
326.175	-37.38
326.388	-25.09
326.601	-49.66
326.814	-20.99
327.027	83.45
327.24	7.68
327.453	-20.99
327.666	17.92
327.879	54.78
328.092	93.69
328.305	26.11
328.518	-0.51
328.731	-18.94
328.944	-8.7
329.157	32.26
329.37	15.87
329.583	-10.75
329.796	5.63
330.009	-10.75
330.222	30.21
330.435	5.63
330.648	-12.8
330.861	-2.56
331.073	-39.42
331.286	-2.56
331.499	46.59
331.712	5.63
331.925	67.07
332.138	-18.94
332.35	85.5
332.563	-14.85
332.776	32.26
332.989	50.69
333.202	34.3
333.414	-51.71
333.627	-29.18
333.84	48.64
334.053	15.87
334.265	15.87
334.478	5.63
334.691	73.21
334.903	5.63
335.116	30.21
335.329	-45.57
335.541	15.87
335.754	28.16
335.966	-16.9
336.179	-27.14
336.392	-53.76
336.604	28.16
336.817	7.68
337.029	62.98
337.242	-10.75
337.454	28.16
337.667	-45.57
337.88	52.74
338.092	7.68
338.305	7.68
338.517	-43.52
338.729	81.41
338.942	87.55
339.154	22.02
339.367	19.97
339.579	7.68
339.792	-8.7
340.004	-10.75
340.217	48.64
340.429	-41.47
340.641	-64
340.854	56.83
341.066	-45.57
341.278	-10.75
341.491	69.12
341.703	50.69
341.915	17.92
342.128	19.97
342.34	24.06
342.552	15.87
342.764	71.17
342.977	17.92
343.189	-84.48
343.401	24.06
343.613	-2.56
343.826	30.21
344.038	1.54
344.25	24.06
344.462	-10.75
344.674	42.5
344.886	24.06
345.099	36.35
345.311	-10.75
345.523	38.4
345.735	-29.18
345.947	52.74
346.159	118.27
346.371	13.82
346.583	15.87
346.795	24.06
347.007	-25.09
347.219	-18.94
347.431	17.92
347.643	56.83
347.855	9.73
348.067	38.4
348.279	-10.75
348.491	58.88
348.703	-45.57
348.915	44.54
349.127	5.63
349.339	-16.9
349.551	32.26
349.763	-51.71
349.975	28.16
350.187	13.82
350.399	-29.18
350.61	60.93
350.822	-29.18
351.034	71.17
351.246	-16.9
351.458	56.83
351.669	-12.8
351.881	28.16
352.093	-14.85
352.305	24.06
352.517	42.5
352.728	69.12
352.94	-8.7
353.152	11.78
353.363	-64
353.575	32.26
353.787	40.45
353.999	44.54
354.21	46.59
354.422	-25.09
354.633	50.69
354.845	15.87
355.057	36.35
355.268	3.58
355.48	-29.18
355.692	32.26
355.903	-25.09
356.115	28.16
356.326	15.87
356.538	56.83
356.749	24.06
356.961	-25.09
357.172	-20.99
357.384	24.06
357.595	44.54
357.807	-0.51
358.018	77.31
358.23	15.87
358.441	56.83
358.653	-12.8
358.864	-2.56
359.075	65.02
359.287	75.26
359.498	-10.75
359.709	24.06
359.921	-0.51
360.132	73.21
360.344	60.93
360.555	-29.18
360.766	7.68
360.977	38.4
361.189	7.68
361.4	-0.51
361.611	91.65
361.823	44.54
362.034	50.69
362.245	77.31
362.456	30.21
362.667	22.02
362.879	-10.75
363.09	50.69
363.301	7.68
363.512	34.3
363.723	-45.57
363.935	52.74
364.146	-14.85
364.357	-18.94
364.568	24.06
364.779	-45.57
364.99	30.21
365.201	-16.9
365.412	-6.66
365.623	32.26
365.834	-35.33
366.045	81.41
366.256	-4.61
366.467	-4.61
366.678	36.35
366.889	67.07
367.1	58.88
367.311	7.68
367.522	65.02
367.733	28.16
367.944	97.79
368.155	-82.43
368.366	26.11
368.577	56.83
368.788	85.5
368.999	15.87
369.209	34.3
369.42	42.5
369.631	60.93
369.842	-33.28
370.053	38.4
370.264	-6.66
370.474	40.45
370.685	62.98
370.896	50.69
371.107	32.26
371.317	52.74
371.528	67.07
371.739	24.06
371.95	15.87
372.16	32.26
372.371	-49.66
372.582	34.3
372.792	38.4
373.003	36.35
373.214	89.6
373.424	48.64
373.635	46.59
373.846	28.16
374.056	9.73
374.267	46.59
374.477	-25.09
374.688	50.69
374.898	19.97
375.109	7.68
375.319	28.16
375.53	38.4
375.74	48.64
375.951	65.02
376.161	-2.56
376.372	110.08
376.582	30.21
376.793	36.35
377.003	-25.09
377.214	-6.66
377.424	7.68
377.635	65.02
377.845	32.26
378.055	-18.94
378.266	73.21
378.476	40.45
378.686	54.78
378.897	83.45
379.107	-18.94
379.317	17.92
379.528	81.41
379.738	34.3
379.948	-41.47
380.158	93.69
380.369	-2.56
380.579	-12.8
380.789	44.54
380.999	22.02
381.21	28.16
381.42	69.12
381.63	40.45
381.84	13.82
382.05	71.17
382.261	9.73
382.471	40.45
382.681	-20.99
382.891	24.06
383.101	-35.33
383.311	42.5
383.521	-29.18
383.731	56.83
383.941	-10.75
384.151	-25.09
384.361	40.45
384.571	-33.28
384.781	17.92
384.991	108.03
385.201	56.83
385.411	52.74
385.621	40.45
385.831	44.54
386.041	32.26
386.251	34.3
386.461	65.02
386.671	71.17
386.881	52.74
387.091	26.11
387.301	52.74
387.511	42.5
387.72	7.68
387.93	81.41
388.14	13.82
388.35	-68.09
388.56	32.26
388.769	15.87
388.979	38.4
389.189	32.26
389.399	-25.09
389.609	91.65
389.818	81.41
390.028	101.89
390.238	46.59
390.447	67.07
390.657	52.74
390.867	89.6
391.076	36.35
391.286	-16.9
391.496	34.3
391.705	22.02
391.915	81.41
392.125	-12.8
392.334	87.55
392.544	-6.66
392.753	22.02
392.963	36.35
393.172	15.87
393.382	65.02
393.591	15.87
393.801	-23.04
394.01	46.59
394.22	15.87
394.429	48.64
394.639	73.21
394.848	87.55
395.058	9.73
395.267	79.36
395.477	73.21
395.686	36.35
395.895	89.6
396.105	69.12
396.314	69.12
396.524	-2.56
396.733	36.35
396.942	48.64
397.152	-18.94
397.361	85.5
397.57	112.13
397.78	-41.47
397.989	101.89
398.198	62.98
398.407	7.68
398.617	73.21
398.826	89.6
399.035	114.17
399.244	81.41
399.453	128.51
399.663	140.8
399.872	99.84
400.081	62.98
400.29	153.09
400.499	73.21
400.708	85.5
400.917	19.97
401.127	89.6
401.336	40.45
401.545	161.28
401.754	32.26
401.963	112.13
402.172	71.17
402.381	132.61
402.59	71.17
402.799	159.23
403.008	73.21
403.217	114.17
403.426	126.46
403.635	108.03
403.844	97.79
404.053	130.56
404.262	126.46
404.471	196.09
404.68	194.05
404.888	52.74
405.097	67.07
405.306	79.36
405.515	130.56
405.724	128.51
405.933	62.98
406.142	103.93
406.35	128.51
406.559	62.98
406.768	208.38
406.977	151.04
407.185	132.61
407.394	105.98
407.603	185.85
407.812	144.89
408.02	200.19
408.229	230.91
408.438	157.18
408.646	204.28
408.855	138.75
409.064	235
409.272	245.24
409.481	269.82
409.69	200.19
409.898	243.2
410.107	263.68
410.315	304.64
410.524	218.62
410.733	278.01
410.941	235
411.15	280.06
411.358	335.35
411.567	308.73
411.775	298.49
411.984	382.46
412.192	296.44
412.401	286.2
412.609	488.95
412.818	437.75
413.026	472.57
413.234	466.42
413.443	431.61
413.651	458.23
413.86	519.67
414.068	470.52
414.276	583.16
414.485	538.1
414.693	581.11
414.901	548.34
415.11	609.78
415.318	572.92
415.526	597.49
415.734	568.82
415.943	691.7
416.151	706.04
416.359	691.7
416.567	685.56
416.776	761.33
416.984	777.72
417.192	802.29
417.4	867.83
417.608	851.44
417.817	910.83
418.025	953.84
418.233	1005.04
418.441	1037.81
418.649	957.94
418.857	1097.2
419.065	1064.43
419.273	1111.54
419.481	1097.2
419.689	1191.41
419.897	1265.13
420.105	1318.38
420.313	1324.52
420.521	1326.57
420.729	1504.75
420.937	1451.5
421.145	1582.57
421.353	1607.14
421.561	1594.86
421.769	1701.35
421.977	1697.25
422.185	1730.02
422.393	1842.66
422.601	2004.45
422.809	1879.52
423.017	2010.59
423.224	2078.18
423.432	2108.9
423.64	2115.04
423.848	2385.37
424.056	2301.4
424.263	2522.59
424.471	2489.82
424.679	2520.54
424.887	2749.91
425.094	2629.08
425.302	2715.09
425.51	2801.11
425.718	2985.43
425.925	2960.85
426.133	3098.06
426.341	3171.79
426.548	3378.64
426.756	3476.94
426.964	3556.81
427.171	3573.19
427.379	3751.37
427.586	3618.25
427.794	3982.79
428.001	4003.27
428.209	4324.8
428.417	4138.43
428.624	4517.31
428.832	4545.98
429.039	4443.58
429.247	4574.65
429.454	5006.77
429.662	5289.39
429.869	4931
430.076	5111.22
430.284	5062.07
430.491	5336.49
430.699	5756.33
430.906	5557.68
431.114	5694.89
431.321	5916.07
431.528	6174.11
431.736	6378.91
431.943	6655.39
432.15	6383.01
432.358	6499.74
432.565	6815.13
432.772	7032.21
432.979	7251.35
433.187	7538.06
433.394	7529.87
433.601	8134.02
433.808	7998.85
434.016	8074.63
434.223	8119.68
434.43	8811.9
434.637	8695.16
434.844	9287.03
435.052	9332.08
435.259	9211.25
435.466	9350.51
435.673	9493.87
435.88	9735.53
436.087	10319.2
436.294	10278.24
436.501	10073.45
436.708	10237.28
436.915	10640.73
437.122	11197.78
437.329	11230.55
437.537	11414.87
437.743	11820.36
437.95	11746.64
438.157	12508.48
438.364	12692.8
438.571	12830.01
438.778	12858.68
438.985	13757.74
439.192	13315.38
439.399	13767.98
439.606	13595.95
439.813	14126.38
440.02	15021.34
440.227	14847.26
440.433	14849.31
440.64	15056.15
440.847	14980.38
441.054	15480.08
441.261	16612.61
441.467	16207.11
441.674	16604.42
441.881	17317.11
442.088	17102.08
442.294	16973.05
442.501	17390.84
442.708	17749.23
442.914	18590.95
443.121	19268.83
443.328	18754.79
443.534	20251.85
443.741	19322.07
443.948	19258.59
444.154	20546.76
444.361	20763.84
444.568	20753.6
444.774	20815.04
444.981	20837.57
445.187	21349.56
445.394	22398.12
445.6	22080.69
445.807	24636.55
446.013	23477.4
446.22	23717.01
446.426	24579.21
446.633	24835.21
446.839	25533.56
447.046	24738.95
447.252	26141.81
447.459	26125.43
447.665	25818.23
447.871	27470.94
448.078	28148.82
448.284	27173.99
448.491	27659.35
448.697	28890.18
448.903	29375.55
449.11	29600.83
449.316	28544.08
449.522	29199.43
449.728	30178.36
449.935	30512.17
450.141	30368.82
450.347	31134.76
450.553	29709.37
450.76	30434.35
450.966	31169.57
451.172	31069.22
451.378	31646.75
451.584	31343.65
451.791	32058.39
451.997	31745.05
452.203	32318.48
452.409	32277.52
452.615	32338.96
452.821	31231.01
453.027	30778.41
453.233	32353.3
453.44	31237.16
453.646	31425.57
453.852	31710.24
454.058	31554.59
454.264	30776.36
454.47	31622.17
454.676	30587.95
454.882	32287.76
455.088	29043.78
455.294	29512.77
455.5	29920.31
455.705	30225.46
455.911	28904.52
456.117	28681.29
456.323	27927.64
456.529	26639.47
456.735	27769.94
456.941	27126.88
457.147	26635.37
457.352	25508.99
457.558	25621.63
457.764	25543.8
457.97	24927.36
458.176	24292.49
458.381	24710.28
458.587	23180.45
458.793	23194.78
458.999	22127.79
459.204	23592.09
459.41	22973.6
459.616	21226.68
459.821	21486.78
460.027	21611.7
460.233	21132.48
460.438	19967.18
460.644	20278.47
460.85	19367.13
461.055	18992.35
461.261	18769.12
461.466	17476.85
461.672	16700.67
461.878	18210.03
462.083	17011.96
462.289	16653.57
462.494	16616.71
462.7	15619.35
462.905	15088.92
463.111	15996.17
463.316	15936.78
463.522	15635.73
463.727	15426.84
463.932	15453.46
464.138	15697.17
464.343	15381.78
464.549	14912.8
464.754	15478.04
464.959	15400.21
465.165	15236.38
465.37	14695.71
465.575	14259.49
465.781	14808.35
465.986	14554.4
466.191	14214.44
466.397	13970.73
466.602	13385.01
466.807	13897
467.012	14015.79
467.218	13759.79
467.423	13595.95
467.628	13757.74
467.833	14095.66
468.038	13743.41
468.244	13210.93
468.449	14105.9
468.654	13571.38
468.859	13475.12
469.064	13270.33
469.269	12772.67
469.474	12856.64
469.679	13282.61
469.885	12610.88
470.09	13012.28
470.295	12811.58
470.5	12485.95
470.705	12721.47
470.91	12404.03
471.115	12016.97
471.32	12447.04
471.525	12320.07
471.73	12082.5
471.935	12041.54
472.139	11654.48
472.344	11867.47
472.549	11425.11
472.754	11627.85
472.959	11195.73
473.164	11111.77
473.369	10812.76
473.574	11271.51
473.778	11033.94
473.983	10880.35
474.188	10896.73
474.393	10483.04
474.598	10904.92
474.802	10403.17
475.007	10503.52
475.212	10292.58
475.417	10077.54
475.621	10075.49
475.826	9985.38
476.031	9827.69
476.235	9661.8
476.44	9874.79
476.645	9688.43
476.849	9588.08
477.054	9479.54
477.259	9291.12
477.463	9366.9
477.668	9233.78
477.872	9309.55
478.077	9063.8
478.282	8752.51
478.486	8795.51
478.691	8637.82
478.895	8656.25
479.1	8658.3
479.304	8799.61
479.509	8482.17
479.713	8686.97
479.918	8338.82
480.122	8293.76
480.326	8555.9
480.531	8289.67
480.735	8265.09
480.94	8109.44
481.144	8670.59
481.348	8070.53
481.553	8007.05
481.757	7974.28
481.961	8209.79
482.166	8050.05
482.37	8314.24
482.574	8000.9
482.778	7992.71
482.983	8125.83
483.187	8142.21
483.391	8240.51
483.595	8052.1
483.8	7943.56
484.004	8232.32
484.208	8230.27
484.412	7998.85
484.616	8234.37
484.821	8271.23
485.025	7708.04
485.229	8187.27
485.433	8060.29
485.637	8123.78
485.841	8207.75
486.045	8019.33
486.249	7978.37
486.453	8007.05
486.657	8033.67
486.861	8162.69
487.065	7906.7
487.269	7904.65
487.473	7853.45
487.677	8228.23
487.881	8115.59
488.085	8060.29
488.289	8027.53
488.493	8031.62
488.697	8076.68
488.901	8240.51
489.105	8328.58
489.309	8021.38
489.512	8183.17
489.716	8066.44
489.92	8101.25
490.124	8170.88
490.328	8385.92
490.531	8215.94
490.735	8084.87
490.939	8392.06
491.143	8076.68
491.346	8420.74
491.55	8369.54
491.754	8320.39
491.958	8385.92
492.161	8211.84
492.365	8600.96
492.569	8412.54
492.772	8496.51
492.976	8560
493.18	8504.7
493.383	8777.08
493.587	8781.18
493.79	8871.29
493.994	8865.14
494.197	8797.56
494.401	8791.42
494.605	8990.07
494.808	9162.1
495.012	9092.47
495.215	9149.81
495.419	9442.67
495.622	9235.83
495.825	9239.92
496.029	9452.91
496.232	9493.87
496.436	9559.41
496.639	9805.16
496.843	9612.65
497.046	9796.97
497.249	9964.9
497.453	9997.67
497.656	10227.04
497.859	10065.25
498.063	10503.52
498.266	10599.77
498.469	10497.38
498.673	10569.05
498.876	10792.28
499.079	10665.31
499.282	10829.15
499.485	11136.34
499.689	11062.62
499.892	11177.3
500.095	11408.72
500.298	11648.33
500.501	11423.06
500.705	11722.06
500.908	11943.24
501.111	11883.85
501.314	12078.41
501.517	12236.1
501.72	12371.27
501.923	12520.77
502.126	12692.8
502.329	12979.51
502.532	13047.1
502.735	13036.86
502.938	13434.16
503.141	13477.17
503.344	13389.11
503.547	13536.56
503.75	13776.17
503.953	13960.49
504.156	13956.4
504.359	14103.85
504.562	14185.77
504.765	14556.45
504.968	14669.09
505.17	14718.24
505.373	14851.36
505.576	15328.53
505.779	15154.46
505.982	15236.38
506.185	15582.48
506.387	15617.3
506.59	16014.6
506.793	16205.06
506.996	16010.51
507.198	16450.82
507.401	16452.87
507.604	16547.08
507.807	16876.8
508.009	16866.56
508.212	17155.32
508.415	17429.75
508.617	17710.32
508.82	17356.02
509.022	17710.32
509.225	17765.62
509.428	18216.17
509.63	18515.17
509.833	18261.23
510.035	18595.04
510.238	18783.46
510.44	19309.79
510.643	19565.78
510.845	19418.33
511.048	19283.16
511.25	19537.11
511.453	19784.91
511.655	20382.92
511.858	19936.46
512.06	20583.62
512.262	20460.74
512.465	20745.41
512.667	20827.33
512.87	21355.71
513.072	21347.51
513.274	21636.28
513.477	21705.91
513.679	21873.84
513.881	22506.66
514.084	22445.23
514.286	22418.6
514.488	22613.16
514.69	23235.74
514.893	22973.6
515.095	23258.27
515.297	23286.94
515.499	23434.39
515.701	23714.97
515.904	23973.01
516.106	24208.53
516.308	24622.22
516.51	24581.26
516.712	24607.88
516.914	25224.32
517.116	25283.71
517.318	25562.23
517.52	25408.64
517.722	25924.72
517.925	25928.82
518.127	26098.8
518.329	26346.61
518.531	26178.67
518.733	26922.09
518.935	26983.52
519.136	27014.24
519.338	27333.73
519.54	27151.46
519.742	27491.42
519.944	27815
520.146	28101.72
520.348	28539.98
520.55	28400.72
520.752	28712.01
520.954	29090.88
521.155	28724.3
521.357	29363.26
521.559	29426.75
521.761	30028.85
521.963	29701.18
522.164	29570.11
522.366	29936.7
522.568	30694.44
522.77	30585.9
522.971	30932.01
523.173	30966.82
523.375	30975.02
523.576	30991.4
523.778	30991.4
523.98	31476.77
524.181	31525.92
524.383	31753.24
524.584	32261.14
524.786	32330.77
524.988	31829.02
525.189	32683.02
525.391	32531.47
525.592	32951.31
525.794	32566.29
525.995	32586.77
526.197	32883.72
526.398	33145.86
526.6	32977.93
526.801	33324.04
527.003	33035.27
527.204	33514.5
527.406	33469.44
527.607	33801.21
527.808	34151.41
528.01	33510.4
528.211	33545.22
528.412	34608.11
528.614	34266.1
528.815	34147.32
529.016	35003.37
529.218	34233.33
529.419	34169.85
529.62	34415.6
529.822	34571.25
530.023	34817
530.224	34669.55
530.425	34681.84
530.626	34321.4
530.828	34395.12
531.029	35312.61
531.23	34939.88
531.431	34730.99
531.632	34778.09
531.833	35494.88
532.035	34896.88
532.236	35027.95
532.437	35046.38
532.638	35206.12
532.839	35191.78
533.04	35320.81
533.241	34870.25
533.442	35716.06
533.643	35138.54
533.844	35056.62
534.045	35259.37
534.246	34819.05
534.447	35326.95
534.648	35027.95
534.849	35116.01
535.05	35122.15
535.251	35443.68
535.451	35372
535.652	35474.4
535.853	35355.62
536.054	35662.82
536.255	35679.2
536.456	34933.74
536.657	35775.45
536.857	35242.98
537.058	35075.05
537.259	35541.99
537.46	35378.15
537.66	35222.5
537.861	35394.53
538.062	35351.52
538.263	35775.45
538.463	35326.95
538.664	35130.34
538.865	35546.08
539.065	35447.78
539.266	35152.87
539.466	35546.08
539.667	35343.33
539.868	35779.55
540.068	35519.46
540.269	35578.85
540.469	35019.75
540.67	35003.37
540.87	35029.99
541.071	35177.45
541.271	35673.06
541.472	35251.17
541.672	35363.81
541.873	35197.93
542.073	34487.28
542.274	35460.07
542.474	34683.89
542.675	34958.31
542.875	35607.52
543.075	35025.9
543.276	35083.24
543.476	35216.36
543.676	35103.72
543.877	35138.54
544.077	35298.28
544.277	35070.95
544.478	35056.62
544.678	35582.95
544.878	35296.23
545.078	35116.01
545.279	34696.17
545.479	35005.42
545.679	35091.43
545.879	34997.23
546.079	34839.53
546.28	34790.38
546.48	34700.27
546.68	35146.73
546.88	34737.13
547.08	35156.97
547.28	34855.92
547.48	34266.1
547.68	35206.12
547.88	34610.16
548.081	34923.5
548.281	35070.95
548.481	34601.97
548.681	34868.2
548.881	35003.37
549.081	34608.11
549.28	34391.03
549.48	34978.79
549.68	34640.88
549.88	35513.31
550.08	34477.04
550.28	34870.25
550.48	34849.77
550.68	34712.56
550.88	34694.13
551.08	34812.91
551.279	34948.07
551.479	34612.21
551.679	34567.15
551.879	34612.21
552.079	34745.33
552.278	34569.2
552.478	34677.74
552.678	34794.48
552.878	34884.59
553.077	34769.9
553.277	33940.47
553.477	35034.09
553.676	34618.35
553.876	34841.58
554.076	34370.55
554.275	34614.26
554.475	34216.95
554.674	34571.25
554.874	34749.42
555.074	34243.57
555.273	34558.96
555.473	34716.65
555.672	34243.57
555.872	34343.92
556.071	34223.09
556.271	34137.08
556.47	34098.17
556.67	33993.72
556.869	34108.41
557.068	34294.77
557.268	33678.33
557.467	34026.49
557.667	34034.68
557.866	33852.41
558.065	33967.1
558.265	33989.63
558.464	33516.54
558.663	33989.63
558.863	33244.16
559.062	34190.33
559.261	33207.3
559.461	33774.59
559.66	33221.64
559.859	33721.34
560.058	33149.96
560.258	33577.98
560.457	33213.45
560.656	33485.83
560.855	32881.67
561.054	33197.06
561.253	32846.86
561.453	33020.94
561.652	32971.78
561.851	33080.33
562.05	33047.56
562.249	32443.41
562.448	33137.67
562.647	32502.8
562.846	32902.15
563.045	32965.64
563.244	32308.24
563.443	33147.91
563.642	32214.04
563.841	32508.94
564.04	32295.96
564.239	32951.31
564.438	32191.51
564.637	32429.07
564.836	32644.11
565.035	32242.71
565.234	32525.33
565.432	32027.67
565.631	32068.63
565.83	31829.02
566.029	31857.69
566.228	31487.01
566.427	32046.1
566.625	31714.33
566.824	31194.15
567.023	31908.89
567.222	31245.35
567.42	31480.86
567.619	31310.88
567.818	31667.23
568.016	31214.63
568.215	31826.97
568.414	31114.28
568.612	31845.4
568.811	30889
569.01	31110.18
569.208	31058.98
569.407	31290.4
569.605	30602.29
569.804	30784.55
570.002	30401.58
570.201	30981.16
570.4	30915.62
570.598	30585.9
570.797	30280.75
570.995	30753.83
571.193	30098.48
571.392	30428.21
571.59	30225.46
571.789	30045.24
571.987	30174.26
572.186	30219.31
572.384	30114.87
572.582	30141.49
572.781	30213.17
572.979	29426.75
573.177	30075.96
573.376	29760.57
573.574	29908.02
573.772	29768.76
573.971	29488.19
574.169	29332.54
574.367	29541.44
574.565	29738.04
574.763	29414.46
574.962	29236.29
575.16	28824.65
575.358	29279.3
575.556	28845.13
575.754	29197.38
575.952	28873.8
576.151	29000.77
576.349	28894.28
576.547	28849.22
576.745	28724.3
576.943	28548.17
577.141	28474.45
577.339	28515.4
577.537	28245.07
577.735	28140.63
577.933	28138.58
578.131	28388.43
578.329	28249.17
578.527	28077.14
578.725	28095.57
578.923	28277.84
579.121	27724.89
579.319	27849.82
579.516	27604.06
579.714	27747.42
579.912	27831.38
580.11	27479.13
580.308	27483.23
580.506	27550.81
580.704	26895.46
580.901	27159.65
581.099	27300.96
581.297	26993.76
581.495	27122.79
581.692	27335.77
581.89	27008.1
582.088	26872.93
582.285	26602.6
582.483	26963.04
582.681	26719.34
582.878	26600.55
583.076	26340.46
583.274	26735.72
583.471	26516.59
583.669	26100.85
583.866	26537.07
584.064	26625.13
584.262	25992.31
584.459	26508.4
584.657	26178.67
584.854	26500.2
585.052	25769.08
585.249	25994.36
585.447	26016.88
585.644	25740.41
585.841	26033.27
586.039	26207.34
586.236	25453.69
586.434	25130.11
586.631	25515.13
586.828	25535.61
587.026	25425.02
587.223	25246.85
587.42	25146.5
587.618	25068.67
587.815	25232.51
588.012	24962.18
588.21	24816.77
588.407	24972.42
588.604	24657.03
588.801	24497.29
588.999	25044.1
589.196	24495.24
589.393	24749.19
589.59	24474.76
589.787	24396.94
589.984	24345.74
590.182	24323.21
590.379	24394.89
590.576	24110.22
590.773	24089.74
590.97	23944.34
591.167	24276.11
591.364	23688.34
591.561	23737.49
591.758	23780.5
591.955	23649.43
592.152	23706.77
592.349	23268.51
592.546	23532.7
592.743	23583.9
592.94	23112.86
593.137	23424.15
593.334	23233.69
593.531	23256.22
593.727	22994.08
593.924	23008.42
594.121	22828.2
594.318	22916.26
594.515	22742.18
594.712	22903.97
594.908	22678.69
595.105	22557.86
595.302	22754.47
595.499	22619.3
595.696	22551.72
595.892	22422.7
596.089	22629.54
596.286	22547.62
596.482	22240.43
596.679	22258.86
596.876	21963.95
597.072	22201.52
597.269	21970.1
597.466	22015.15
597.662	21753.01
597.859	21933.23
598.055	21476.54
598.252	21490.87
598.448	21679.29
598.645	21546.17
598.841	21300.41
599.038	21191.87
599.234	21570.74
599.431	20833.47
599.627	21177.53
599.824	21445.82
600.02	21167.29
600.217	20931.78
600.413	20722.88
600.609	20954.3
600.806	20587.72
601.002	20876.48
601.198	20444.36
601.395	20702.4
601.591	20706.5
601.787	20518.09
601.984	20362.44
602.18	20653.25
602.376	20260.04
602.572	20528.33
602.769	19991.76
602.965	20002
603.161	20323.53
603.357	20018.38
603.553	20067.53
603.75	19840.21
603.946	20096.21
604.142	19920.08
604.338	19850.45
604.534	19895.5
604.73	19295.45
604.926	19547.35
605.122	19444.95
605.318	19385.56
605.514	19219.67
605.71	19215.58
605.906	19117.28
606.102	19162.33
606.298	19465.43
606.494	19311.83
606.69	19008.73
606.886	19121.37
607.082	18760.93
607.278	19137.76
607.474	18642.15
607.67	19100.89
607.866	18722.02
608.062	19035.36
608.257	18824.42
608.453	18511.08
608.649	18734.31
608.845	18705.63
609.041	19016.93
609.236	18549.99
609.432	18586.85
609.628	18615.52
609.824	18564.32
610.019	18478.31
610.215	18457.83
610.411	18603.24
610.606	18380.01
610.802	18429.16
610.998	18283.75
611.193	18232.55
611.389	18353.38
611.584	18328.81
611.78	18046.19
611.976	18126.06
612.171	18038
612.367	18240.75
612.562	18238.7
612.758	17755.38
612.953	17847.54
613.149	17906.93
613.344	17663.22
613.539	18164.97
613.735	17784.05
613.93	17657.07
614.126	17753.33
614.321	17521.91
614.517	17798.38
614.712	17640.69
614.907	17679.6
615.103	17652.98
615.298	17251.58
615.493	17466.61
615.688	17245.43
615.884	17501.43
616.079	17292.54
616.274	17538.29
616.47	17138.94
616.665	17478.9
616.86	16989.44
617.055	17151.23
617.25	17292.54
617.445	17366.26
617.641	17009.92
617.836	17143.03
618.031	16821.5
618.226	16807.17
618.421	16657.67
618.616	16934.14
618.811	16362.76
619.006	16608.51
619.201	16323.85
619.396	16753.92
619.591	16385.29
619.786	16354.57
619.981	16155.91
620.176	16428.29
620.371	16157.96
620.566	16131.34
620.761	16360.71
620.956	16215.3
621.151	15645.97
621.346	16160.01
621.541	15955.21
621.735	16006.41
621.93	15377.69
622.125	15789.33
622.32	15402.26
622.515	15639.83
622.709	15637.78
622.904	15277.33
623.099	15166.74
623.294	15369.49
623.488	14867.74
623.683	15088.92
623.878	14886.17
624.072	14843.17
624.267	14873.89
624.462	14869.79
624.656	14533.92
624.851	14679.33
625.046	14619.94
625.24	14497.06
625.435	14429.48
625.629	14253.35
625.824	14075.18
626.018	14073.13
626.213	13831.47
626.407	14226.73
626.602	13970.73
626.796	13659.44
626.991	13802.8
627.185	13589.81
627.38	13534.51
627.574	13503.79
627.768	13450.55
627.963	13284.66
628.157	13311.28
628.352	13325.62
628.546	13389.11
628.74	13186.36
628.935	13260.09
629.129	13040.95
629.323	12805.44
629.517	12860.73
629.712	12721.47
629.906	12920.12
630.1	12528.96
630.294	12571.97
630.489	12535.1
630.683	12416.32
630.877	12145.99
631.071	12234.05
631.265	12203.33
631.459	12275.01
631.653	12121.42
631.848	12338.5
632.042	12004.68
632.236	11881.8
632.43	11855.18
632.624	11865.42
632.818	11648.33
633.012	11828.56
633.206	11486.54
633.4	11785.55
633.594	11484.5
633.788	11541.84
633.982	11478.35
634.176	11302.23
634.369	11244.88
634.563	11134.29
634.757	10986.84
634.951	11130.2
635.145	11285.84
635.339	11193.69
635.533	10753.37
635.726	11038.04
635.92	10714.46
636.114	10741.08
636.308	10757.47
636.501	10638.69
636.695	10483.04
636.889	10493.28
637.083	10526.05
637.276	10333.54
637.47	10218.85
637.664	10265.96
637.857	10431.84
638.051	10222.95
638.244	10198.37
638.438	9979.24
638.632	10038.63
638.825	10136.93
639.019	9936.23
639.212	9899.37
639.406	10001.77
639.599	9907.56
639.793	9903.46
639.986	9465.2
640.18	9770.35
640.373	9674.09
640.567	9508.21
640.76	9612.65
640.954	9457.01
641.147	9452.91
641.34	9358.71
641.534	9282.93
641.727	9303.41
641.92	9196.92
642.114	9166.2
642.307	8994.17
642.5	9143.67
642.694	9088.37
642.887	8844.67
643.08	9205.11
643.273	8875.38
643.467	8957.3
643.66	8635.77
643.853	8920.44
644.046	8676.73
644.239	8643.96
644.432	8607.1
644.626	8498.56
644.819	8531.33
645.012	8295.81
645.205	8625.53
645.398	8418.69
645.591	8457.6
645.784	8170.88
645.977	8213.89
646.17	8140.16
646.363	7986.57
646.556	8189.32
646.749	8123.78
646.942	8107.4
647.135	7935.37
647.328	8228.23
647.521	7943.56
647.714	7875.98
647.907	7892.36
648.099	7703.95
648.292	7910.79
648.485	7650.7
648.678	7593.36
648.871	7581.07
649.064	7689.61
649.256	7556.49
649.449	7409.04
649.642	7527.82
649.835	7437.71
650.027	7245.2
650.22	7353.74
650.413	7343.5
650.605	7253.39
650.798	7222.67
650.991	7251.35
651.183	7198.1
651.376	7056.79
651.568	7069.08
651.761	7028.12
651.954	6946.2
652.146	6940.05
652.339	7013.78
652.531	6931.86
652.724	6890.9
652.916	6610.33
653.109	6839.7
653.301	6636.95
653.494	6761.88
653.686	6753.69
653.879	6821.27
654.071	6671.77
654.263	6675.87
654.456	6421.92
654.648	6563.23
654.84	6325.66
655.033	6534.56
655.225	6356.38
655.417	6548.89
655.61	6292.9
655.802	6292.9
655.994	6268.32
656.186	6137.25
656.379	6321.57
656.571	6340
656.763	6143.39
656.955	6170.02
657.148	6118.82
657.34	6131.11
657.532	6145.44
657.724	5842.34
657.916	6030.76
658.108	5940.65
658.3	5866.92
658.492	5991.84
658.684	5885.35
658.876	5842.34
659.068	5848.49
659.26	5762.47
659.452	5797.29
659.644	5635.5
659.836	5684.65
660.028	5576.11
660.22	5516.72
660.412	5610.92
660.604	5506.48
660.796	5631.4
660.988	5461.42
661.18	5338.54
661.372	5326.25
661.563	5580.2
661.755	5336.49
661.947	5402.03
662.139	5361.07
662.331	5223.86
662.522	5287.34
662.714	5178.8
662.906	5201.33
663.097	5133.75
663.289	5252.53
663.481	5119.41
663.673	5127.6
663.864	4996.53
664.056	5064.11
664.247	5035.44
664.439	4892.09
664.631	5021.11
664.822	4824.5
665.014	4978.1
665.205	4914.61
665.397	4953.52
665.588	4812.21
665.78	4865.46
665.971	4998.58
666.163	5027.25
666.354	4859.32
666.546	4783.54
666.737	4683.19
666.929	4769.21
667.12	4617.66
667.311	4660.66
667.503	4660.66
667.694	4640.19
667.885	4556.22
668.077	4584.89
668.268	4550.07
668.459	4468.16
668.651	4410.81
668.842	4494.78
669.033	4537.79
669.224	4464.06
669.416	4580.79
669.607	4390.33
669.798	4398.52
669.989	4400.57
670.18	4572.6
670.371	4312.51
670.563	4443.58
670.754	4279.74
670.945	4160.96
671.136	4193.73
671.327	4304.32
671.518	4373.95
671.709	4122.05
671.9	4308.41
672.091	4175.3
672.282	4232.64
672.473	4255.17
672.664	4167.1
672.855	4083.14
673.046	4218.3
673.237	4138.43
673.428	4115.91
673.619	4064.71
673.809	4124.1
674	4124.1
674.191	4208.06
674.382	3990.98
674.573	4046.27
674.764	4011.46
674.954	3935.68
675.145	3804.61
675.336	3968.45
675.527	3870.15
675.717	3988.93
675.908	3771.85
676.099	3816.9
676.289	3980.74
676.48	3894.72
676.671	3898.82
676.861	3939.78
677.052	3947.97
677.243	3886.53
677.433	3782.09
677.624	3864.01
677.814	3788.23
678.005	3884.48
678.195	3775.94
678.386	3605.96
678.576	3669.45
678.767	3812.81
678.957	3579.34
679.148	3702.22
679.338	3794.37
679.529	3859.91
679.719	3780.04
679.909	3878.34
680.1	3708.36
680.29	3696.07
680.481	3618.25
680.671	3792.33
680.861	3599.82
681.052	3622.34
681.242	3622.34
681.432	3857.86
681.622	3681.74
681.813	3653.06
682.003	3532.23
682.193	3673.54
682.383	3694.02
682.573	3681.74
682.764	3384.78
682.954	3646.92
683.144	3458.51
683.334	3513.8
683.524	3628.49
683.714	3691.98
683.904	3501.51
684.094	3497.42
684.284	3464.65
684.474	3538.38
684.664	3448.27
684.854	3440.08
685.044	3470.8
685.234	3386.83
685.424	3560.91
685.614	3395.02
685.804	3349.96
685.994	3503.56
686.184	3519.95
686.374	3323.34
686.564	3405.26
686.753	3415.5
686.943	3399.12
687.133	3339.73
687.323	3317.2
687.513	3329.49
687.702	3435.98
687.892	3233.23
688.082	3268.05
688.272	3315.15
688.461	3249.61
688.651	3292.62
688.841	3194.32
689.03	3143.12
689.22	3130.83
689.41	3100.11
689.599	3239.37
689.789	3204.56
689.979	3093.97
690.168	3022.29
690.358	3106.26
690.547	3071.44
690.737	3153.36
690.926	3003.86
691.116	3063.25
691.305	3065.3
691.495	2989.52
691.684	2944.47
691.874	2981.33
692.063	2989.52
692.252	2946.52
692.442	2840.02
692.631	2878.93
692.82	2985.43
693.01	2825.68
693.199	2936.28
693.388	2749.91
693.578	2837.97
693.767	2911.7
693.956	2725.33
694.146	2696.66
694.335	2733.53
694.524	2665.94
694.713	2762.2
694.902	2534.87
695.092	2731.48
695.281	2549.21
695.47	2737.62
695.659	2624.98
695.848	2661.85
696.037	2569.69
696.226	2598.36
696.415	2598.36
696.604	2616.79
696.793	2573.78
696.982	2616.79
697.171	2579.93
697.36	2559.45
697.549	2463.19
697.738	2516.44
697.927	2581.98
698.116	2471.39
698.305	2584.02
698.494	2424.28
698.683	2383.32
698.872	2323.93
699.061	2442.71
699.25	2416.09
699.438	2323.93
699.627	2485.72
699.816	2438.62
700.005	2389.47
700.193	2285.02
700.382	2397.66
700.571	2356.7
700.76	2436.57
700.948	2399.71
701.137	2475.48
701.326	2471.39
701.514	2444.76
701.703	2330.08
701.892	2350.56
702.08	2452.95
702.269	2346.46
702.457	2340.32
702.646	2373.08
702.834	2244.06
703.023	2440.67
703.212	2440.67
703.4	2321.88
703.589	2274.78
703.777	2325.98
703.965	2325.98
704.154	2387.42
704.342	2342.36
704.531	2315.74
704.719	2219.49
704.907	2409.95
705.096	2332.12
705.284	2350.56
705.472	2272.73
705.661	2264.54
705.849	2422.24
706.037	2317.79
706.226	2174.43
706.414	2264.54
706.602	2340.32
706.79	2325.98
706.979	2373.08
707.167	2303.45
707.355	2164.19
707.543	2323.93
707.731	2338.27
707.919	2250.21
708.107	2330.08
708.296	2278.88
708.484	2301.4
708.672	2203.1
708.86	2270.69
709.048	2297.31
709.236	2303.45
709.424	2362.84
709.612	2282.97
709.8	2151.9
709.988	2282.97
710.176	2356.7
710.364	2379.23
710.551	2385.37
710.739	2180.57
710.927	2348.51
711.115	2207.2
711.303	2309.6
711.491	2203.1
711.679	2328.03
711.866	2115.04
712.054	2325.98
712.242	2264.54
712.43	2323.93
712.617	2321.88
712.805	2344.41
712.993	2178.53
713.181	2231.77
713.368	2332.12
713.556	2205.15
713.744	2364.89
713.931	2323.93
714.119	2205.15
714.306	2303.45
714.494	2268.64
714.682	2266.59
714.869	2305.5
715.057	2282.97
715.244	2289.12
715.432	2252.25
715.619	2303.45
715.807	2225.63
715.994	2379.23
716.182	2403.8
716.369	2395.61
716.556	2405.85
716.744	2280.93
716.931	2276.83
717.119	2330.08
717.306	2295.26
717.493	2401.76
717.681	2366.94
717.868	2317.79
718.055	2307.55
718.242	2293.21
718.43	2305.5
718.617	2391.52
718.804	2289.12
718.991	2348.51
719.179	2305.5
719.366	2477.53
719.553	2409.95
719.74	2389.47
719.927	2309.6
720.114	2414.04
720.301	2407.9
720.488	2358.75
720.676	2383.32
720.863	2317.79
721.05	2450.91
721.237	2405.85
721.424	2409.95
721.611	2442.71
721.798	2346.46
721.985	2452.95
722.172	2391.52
722.358	2364.89
722.545	2485.72
722.732	2397.66
722.919	2225.63
723.106	2358.75
723.293	2455
723.48	2407.9
723.667	2436.57
723.853	2264.54
724.04	2448.86
724.227	2412
724.414	2338.27
724.6	2311.64
724.787	2485.72
724.974	2442.71
725.161	2520.54
725.347	2358.75
725.534	2450.91
725.72	2551.26
725.907	2459.1
726.094	2555.35
726.28	2315.74
726.467	2416.09
726.653	2450.91
726.84	2532.83
727.027	2551.26
727.213	2358.75
727.4	2438.62
727.586	2479.58
727.773	2530.78
727.959	2547.16
728.145	2561.5
728.332	2424.28
728.518	2463.19
728.705	2555.35
728.891	2491.87
729.077	2448.86
729.264	2510.3
729.45	2543.07
729.636	2592.22
729.823	2442.71
730.009	2442.71
730.195	2442.71
730.382	2502.11
730.568	2475.48
730.754	2448.86
730.94	2407.9
731.126	2450.91
731.313	2581.98
731.499	2416.09
731.685	2463.19
731.871	2561.5
732.057	2405.85
732.243	2469.34
732.429	2561.5
732.615	2467.29
732.801	2502.11
732.987	2493.91
733.173	2567.64
733.359	2538.97
733.545	2463.19
733.731	2401.76
733.917	2520.54
734.103	2440.67
734.289	2530.78
734.475	2504.15
734.661	2592.22
734.847	2522.59
735.033	2428.38
735.219	2434.52
735.404	2452.95
735.59	2395.61
735.776	2418.14
735.962	2495.96
736.148	2534.87
736.333	2516.44
736.519	2485.72
736.705	2563.54
736.89	2657.75
737.076	2512.35
737.262	2303.45
737.447	2639.32
737.633	2448.86
737.819	2348.51
738.004	2440.67
738.19	2416.09
738.375	2475.48
738.561	2512.35
738.747	2405.85
738.932	2483.67
739.118	2418.14
739.303	2375.13
739.489	2518.49
739.674	2414.04
739.859	2379.23
740.045	2348.51
740.23	2489.82
740.416	2457.05
740.601	2606.55
740.786	2438.62
740.972	2379.23
741.157	2399.71
741.342	2358.75
741.528	2360.8
741.713	2313.69
741.898	2270.69
742.084	2375.13
742.269	2399.71
742.454	2280.93
742.639	2381.28
742.824	2274.78
743.01	2254.3
743.195	2203.1
743.38	2356.7
743.565	2231.77
743.75	2248.16
743.935	2254.3
744.12	2375.13
744.305	2215.39
744.49	2242.01
744.675	2129.38
744.86	2219.49
745.045	2239.97
745.23	2207.2
745.415	1986.02
745.6	2268.64
745.785	2166.24
745.97	2098.66
746.155	2084.32
746.34	2227.68
746.525	2061.79
746.71	2127.33
746.895	2121.18
747.079	2006.5
747.264	2117.09
747.449	2223.58
747.634	2076.13
747.819	2076.13
748.003	1955.3
748.188	2039.26
748.373	2014.69
748.557	2004.45
748.742	2012.64
748.927	1953.25
749.111	1955.3
749.296	1961.44
749.481	1943.01
749.665	1990.11
749.85	1893.86
750.034	1973.73
750.219	1973.73
750.404	2008.55
750.588	1857
750.773	1875.43
750.957	1789.41
751.141	1865.19
751.326	1840.61
751.51	1789.41
751.695	1871.33
751.879	1687.01
752.064	1781.22
752.248	1695.21
752.432	1801.7
752.617	1795.56
752.801	1738.21
752.985	1684.97
753.17	1676.77
753.354	1736.17
753.538	1695.21
753.722	1674.73
753.907	1637.86
754.091	1607.14
754.275	1717.73
754.459	1562.09
754.643	1514.98
754.828	1678.82
755.012	1521.13
755.196	1662.44
755.38	1498.6
755.564	1613.29
755.748	1512.94
755.932	1596.9
756.116	1590.76
756.3	1494.51
756.484	1437.16
756.668	1494.51
756.852	1512.94
757.036	1457.64
757.22	1447.4
757.404	1437.16
757.588	1367.53
757.772	1373.68
757.956	1531.37
758.14	1314.28
758.323	1367.53
758.507	1404.39
758.691	1422.83
758.875	1320.43
759.059	1392.11
759.242	1326.57
759.426	1371.63
759.61	1226.22
759.794	1314.28
759.977	1379.82
760.161	1342.96
760.345	1250.8
760.528	1383.91
760.712	1332.72
760.895	1252.84
761.079	1244.65
761.263	1205.74
761.446	1295.85
761.63	1113.58
761.813	1240.56
761.997	1283.56
762.18	1148.4
762.364	1150.45
762.547	1097.2
762.731	1154.54
762.914	1234.41
763.098	1224.17
763.281	1224.17
763.464	1175.02
763.648	1089.01
763.831	1207.79
764.015	1168.88
764.198	1189.36
764.381	1093.1
764.564	1193.45
764.748	1140.21
764.931	1142.25
765.114	1136.11
765.297	1152.49
765.481	1166.83
765.664	1029.62
765.847	1095.15
766.03	1086.96
766.213	1156.59
766.397	1082.86
766.58	1089.01
766.763	1175.02
766.946	1015.28
767.129	1121.77
767.312	1027.57
767.495	1025.52
767.678	957.94
767.861	933.36
768.044	986.61
768.227	1037.81
768.41	1029.62
768.593	1089.01
768.776	980.47
768.959	1039.86
769.142	1039.86
769.324	1019.38
769.507	974.32
769.69	933.36
769.873	937.46
770.056	900.59
770.239	976.37
770.421	929.27
770.604	996.85
770.787	980.47
770.97	925.17
771.152	933.36
771.335	962.03
771.518	941.55
771.7	970.23
771.883	964.08
772.066	916.98
772.248	861.68
772.431	1007.09
772.613	966.13
772.796	923.12
772.978	873.97
773.161	822.77
773.343	839.16
773.526	900.59
773.708	845.3
773.891	802.29
774.073	869.87
774.256	871.92
774.438	863.73
774.621	767.48
774.803	929.27
774.985	876.02
775.168	851.44
775.35	923.12
775.532	808.44
775.715	787.96
775.897	792.05
776.079	779.76
776.261	781.81
776.444	796.15
776.626	763.38
776.808	773.62
776.99	744.95
777.173	724.47
777.355	693.75
777.537	718.33
777.719	601.59
777.901	617.97
778.083	785.91
778.265	742.9
778.447	728.56
778.629	708.09
778.811	656.89
778.993	687.61
779.175	652.79
779.357	658.93
779.539	650.74
779.721	798.2
779.903	720.37
780.085	667.13
780.267	630.26
780.449	605.69
780.631	638.45
780.812	609.78
780.994	589.3
781.176	540.15
781.358	671.22
781.54	572.92
781.721	620.02
781.903	595.45
782.085	554.49
782.267	632.31
782.448	572.92
782.63	519.67
782.812	523.77
782.993	642.55
783.175	482.81
783.357	472.57
783.538	615.93
783.72	548.34
783.901	544.25
784.083	568.82
784.264	501.24
784.446	519.67
784.627	513.53
784.809	527.86
784.99	488.95
785.172	554.49
785.353	536.06
785.535	505.34
785.716	454.14
785.897	505.34
786.079	439.8
786.26	527.86
786.441	495.1
786.623	587.26
786.804	519.67
786.985	511.48
787.167	503.29
787.348	470.52
787.529	437.75
787.71	441.85
787.891	421.37
788.073	499.19
788.254	413.18
788.435	462.33
788.616	376.31
788.797	439.8
788.978	454.14
789.159	400.89
789.34	388.6
789.522	398.84
789.703	392.7
789.884	460.28
790.065	431.61
790.246	409.08
790.427	384.51
790.607	462.33
790.788	355.83
790.969	345.59
791.15	349.69
791.331	384.51
791.512	380.41
791.693	345.59
791.874	382.46
792.054	382.46
792.235	343.55
792.416	323.07
792.597	368.12
792.778	374.27
792.958	327.16
793.139	357.88
793.32	351.74
793.5	302.59
793.681	357.88
793.862	341.5
794.042	361.98
794.223	261.63
794.404	308.73
794.584	318.97
794.765	321.02
794.945	261.63
795.126	318.97
795.306	323.07
795.487	333.31
795.667	269.82
795.848	304.64
796.028	402.94
796.209	343.55
796.389	347.64
796.57	278.01
796.75	318.97
796.93	294.4
797.111	298.49
797.291	302.59
797.471	288.25
797.652	251.39
797.832	323.07
798.012	321.02
798.192	316.92
798.373	314.88
798.553	259.58
798.733	284.16
798.913	267.77
799.093	173.57
799.274	275.96
799.454	224.76
799.634	294.4
799.814	278.01
799.994	204.28
800.174	241.15
800.354	267.77
800.534	226.81
800.714	331.26
800.894	310.78
801.074	235
801.254	298.49
801.434	259.58
801.614	253.44
801.794	247.29
801.974	658.93
802.154	204.28
802.334	327.16
802.514	230.91
802.693	253.44
802.873	245.24
803.053	235
803.233	200.19
803.413	351.74
803.592	286.2
803.772	206.33
803.952	204.28
804.131	235
804.311	241.15
804.491	232.96
804.67	192
804.85	228.86
805.03	173.57
805.209	267.77
805.389	253.44
805.568	294.4
805.748	253.44
805.928	296.44
806.107	243.2
806.287	228.86
806.466	208.38
806.646	210.43
806.825	185.85
807.004	226.81
807.184	116.22
807.363	179.71
807.543	194.05
807.722	212.48
807.901	241.15
808.081	187.9
808.26	187.9
808.439	153.09
808.619	185.85
808.798	167.42
808.977	212.48
809.156	269.82
809.336	210.43
809.515	216.57
809.694	232.96
809.873	232.96
810.052	138.75
810.231	161.28
810.411	105.98
810.59	210.43
810.769	146.94
810.948	210.43
811.127	181.76
811.306	142.85
811.485	183.81
811.664	159.23
811.843	222.72
812.022	230.91
812.201	136.7
812.38	173.57
812.559	161.28
812.737	228.86
812.916	169.47
813.095	220.67
813.274	202.24
813.453	142.85
813.632	97.79
813.811	169.47
813.989	167.42
814.168	132.61
814.347	105.98
814.526	116.22
814.704	202.24
814.883	183.81
815.062	171.52
815.24	192
815.419	161.28
815.598	175.61
815.776	151.04
815.955	126.46
816.133	112.13
816.312	200.19
816.49	114.17
816.669	128.51
816.847	118.27
817.026	99.84
817.204	187.9
817.383	95.74
817.561	148.99
817.74	105.98
817.918	132.61
818.097	134.65
818.275	140.8
818.453	142.85
818.632	79.36
818.81	169.47
818.988	146.94
819.167	173.57
819.345	95.74
819.523	136.7
819.701	97.79
819.879	105.98
820.058	118.27
820.236	189.95
820.414	208.38
820.592	89.6
820.77	130.56
820.948	46.59
821.127	75.26
821.305	67.07
821.483	77.31
821.661	83.45
821.839	146.94
822.017	140.8
822.195	46.59
822.373	122.37
822.551	126.46
822.729	85.5
822.907	108.03
823.085	112.13
823.262	108.03
823.44	71.17
823.618	81.41
823.796	40.45
823.974	44.54
824.152	56.83
824.329	67.07
824.507	159.23
824.685	65.02
824.863	87.55
825.04	122.37
825.218	58.88
825.396	97.79
825.574	130.56
825.751	128.51
825.929	110.08
826.107	11.78
826.284	181.76
826.462	67.07
826.639	73.21
826.817	99.84
826.994	140.8
827.172	56.83
827.349	95.74
827.527	67.07
827.704	183.81
827.882	50.69
828.059	112.13
828.237	71.17
828.414	118.27
828.591	62.98
828.769	97.79
828.946	89.6
829.124	30.21
829.301	26.11
829.478	58.88
829.655	71.17
829.833	54.78
830.01	93.69
830.187	114.17
830.364	56.83
830.542	73.21
830.719	48.64
830.896	73.21
831.073	93.69
831.25	73.21
831.427	118.27
831.604	54.78
831.782	65.02
831.959	110.08
832.136	136.7
832.313	97.79
832.49	54.78
832.667	30.21
832.844	62.98
833.021	62.98
833.198	105.98
833.374	87.55
833.551	97.79
833.728	93.69
833.905	146.94
834.082	32.26
834.259	48.64
834.436	91.65
834.612	34.3
834.789	110.08
834.966	97.79
835.143	48.64
835.319	24.06
835.496	32.26
835.673	58.88
835.85	40.45
836.026	99.84
836.203	130.56
836.38	71.17
836.556	58.88
836.733	46.59
836.909	77.31
837.086	89.6
837.262	62.98
837.439	48.64
837.616	50.69
837.792	15.87
837.968	75.26
838.145	114.17
838.321	126.46
838.498	97.79
838.674	110.08
838.851	19.97
839.027	7.68
839.203	15.87
839.38	38.4
839.556	-4.61
839.732	5.63
839.909	118.27
840.085	24.06
840.261	11.78
840.437	97.79
840.614	65.02
840.79	38.4
840.966	44.54
841.142	54.78
841.318	40.45
841.494	97.79
841.671	32.26
841.847	24.06
842.023	32.26
842.199	38.4
842.375	36.35
842.551	15.87
842.727	79.36
842.903	79.36
843.079	56.83
843.255	77.31
843.431	91.65
843.607	28.16
843.783	30.21
843.959	77.31
844.134	26.11
844.31	79.36
844.486	1.54
844.662	71.17
844.838	52.74
845.013	56.83
845.189	73.21
845.365	13.82
845.541	69.12
845.716	48.64
845.892	105.98
846.068	56.83
846.244	32.26
846.419	24.06
846.595	15.87
846.77	58.88
846.946	79.36
847.122	71.17
847.297	-41.47
847.473	62.98
847.648	15.87
847.824	46.59
847.999	99.84
848.175	30.21
848.35	-49.66
848.526	40.45
848.701	5.63
848.876	81.41
849.052	58.88
849.227	73.21
849.403	28.16
849.578	67.07
849.753	36.35
849.929	32.26
850.104	15.87
850.279	32.26
850.454	1.54
850.63	65.02
850.805	-16.9
850.98	-4.61
851.155	3.58
851.33	19.97
851.505	50.69
851.681	30.21
851.856	42.5
852.031	28.16
852.206	22.02
852.381	28.16
852.556	15.87
852.731	60.93
852.906	50.69
853.081	-2.56
853.256	73.21
853.431	62.98
853.606	-74.24
853.781	1.54
853.956	91.65
854.131	77.31
854.305	69.12
854.48	48.64
854.655	52.74
854.83	-18.94
855.005	30.21
855.18	24.06
855.354	-84.48
855.529	85.5
855.704	19.97
855.879	11.78
856.053	9.73
856.228	22.02
856.403	5.63
856.577	95.74
856.752	60.93
856.926	52.74
857.101	30.21
857.276	71.17
857.45	28.16
857.625	-0.51
857.799	-8.7
857.974	22.02
858.148	-29.18
858.323	22.02
858.497	-0.51
858.672	-18.94
858.846	-74.24
859.02	40.45
859.195	28.16
859.369	-35.33
859.543	-0.51
859.718	15.87
859.892	-18.94
860.066	40.45
860.241	28.16
860.415	-8.7
860.589	15.87
860.763	81.41
860.938	-57.86
861.112	-25.09
861.286	42.5
861.46	79.36
861.634	-6.66
861.808	19.97
861.982	5.63
862.157	-4.61
862.331	40.45
862.505	69.12
862.679	15.87
862.853	93.69
863.027	-35.33
863.201	48.64
863.375	-4.61
863.549	7.68
863.722	-64
863.896	24.06
864.07	7.68
864.244	42.5
864.418	9.73
864.592	22.02
864.766	24.06
864.939	-27.14
865.113	-35.33
865.287	1.54
865.461	52.74
865.634	5.63
865.808	69.12
865.982	24.06
866.156	46.59
866.329	-70.14
866.503	-25.09
866.676	-33.28
866.85	-27.14
867.024	-53.76
867.197	-25.09
867.371	73.21
867.544	-16.9
867.718	24.06
867.891	5.63
868.065	-23.04
868.238	-16.9
868.412	-45.57
868.585	-92.67
868.759	44.54
868.932	5.63
869.105	13.82
869.279	13.82
869.452	-8.7
869.625	-0.51
869.799	-6.66
869.972	-64
870.145	-0.51
870.319	52.74
870.492	7.68
870.665	-10.75
870.838	48.64
871.011	-43.52
871.185	13.82
871.358	-25.09
871.531	-16.9
871.704	-14.85
871.877	-27.14
872.05	-20.99
872.223	-29.18
872.396	3.58
872.569	40.45
872.742	-12.8
872.915	3.58
873.088	-51.71
873.261	-10.75
873.434	81.41
873.607	15.87
873.78	-41.47
873.953	32.26
874.126	-23.04
874.299	44.54
874.471	-2.56
874.644	46.59
874.817	1.54
874.99	-6.66
875.163	-16.9
875.335	60.93
875.508	7.68
875.681	34.3
875.853	-0.51
876.026	-55.81
876.199	24.06
876.371	-49.66
876.544	60.93
876.717	19.97
876.889	-23.04
877.062	-29.18
877.234	30.21
877.407	-41.47
877.579	9.73
877.752	-27.14
877.924	34.3
878.097	34.3
878.269	-49.66
878.442	3.58
878.614	58.88
878.786	-12.8
878.959	19.97
879.131	19.97
879.303	-6.66
879.476	-35.33
879.648	5.63
879.82	-27.14
879.993	-20.99
880.165	34.3
880.337	-20.99
880.509	60.93
880.681	1.54
880.854	30.21
881.026	-14.85
881.198	19.97
881.37	-66.05
881.542	15.87
881.714	-18.94
881.886	-14.85
882.058	-16.9
882.23	-47.62
882.402	-76.29
882.574	13.82
882.746	-43.52
882.918	-10.75
883.09	-86.53
883.262	13.82
883.434	17.92
883.606	22.02
883.778	-12.8
883.95	-33.28
884.122	26.11
884.293	13.82
884.465	13.82
884.637	15.87
884.809	-37.38
884.98	-51.71
885.152	-10.75
885.324	-4.61
885.496	-31.23
885.667	62.98
885.839	15.87
886.011	73.21
886.182	-20.99
886.354	38.4
886.525	-29.18
886.697	7.68
886.869	-10.75
887.04	40.45
887.212	60.93
887.383	99.84
887.555	54.78
887.726	-25.09
887.897	52.74
888.069	83.45
888.24	40.45
888.412	9.73
888.583	32.26
888.754	15.87
888.926	-12.8
889.097	-20.99
889.268	-10.75
889.44	-57.86
889.611	-53.76
889.782	-27.14
889.953	-6.66
890.125	48.64
890.296	-39.42
890.467	-25.09
890.638	7.68
890.809	42.5
890.98	-66.05
891.151	30.21
891.323	-0.51
891.494	-8.7
891.665	-59.9
891.836	-39.42
892.007	-66.05
892.178	-53.76
892.349	28.16
892.52	-16.9
892.691	7.68
892.862	-25.09
893.032	-10.75
893.203	-2.56
893.374	-12.8
893.545	42.5
893.716	-29.18
893.887	34.3
894.057	-2.56
894.228	-6.66
894.399	-47.62
894.57	28.16
894.74	-6.66
894.911	36.35
895.082	-27.14
895.253	67.07
895.423	-14.85
895.594	-27.14
895.764	19.97
895.935	24.06
896.106	-51.71
896.276	-2.56
896.447	-2.56
896.617	54.78
896.788	-23.04
896.958	7.68
897.129	-37.38
897.299	-37.38
897.47	32.26
897.64	-27.14
897.81	-4.61
897.981	-6.66
898.151	-8.7
898.322	7.68
898.492	62.98
898.662	-0.51
898.832	-10.75
899.003	40.45
899.173	-37.38
899.343	-35.33
899.513	-18.94
