Data from USB4F104151__57__11-30-44-910.txt Node

Date: Fri Mar 14 11:30:44 EDT 2025
User: louis
Spectrometer: USB4F10415
Trigger mode: 4
Integration Time (sec): 5.000000E-2
Scans to average: 1
Electric dark correction enabled: true
Nonlinearity correction enabled: false
Boxcar width: 0
XAxis mode: Wavelengths
Number of Pixels in Spectrum: 3648
>>>>>Begin Spectral Data<<<<<
178.204	-117.42
178.424	-117.42
178.644	-117.42
178.864	-180.9
179.084	-168.62
179.304	-27.31
179.524	-45.74
179.744	-45.74
179.964	-53.93
180.184	7.51
180.404	42.32
180.624	-23.21
180.844	23.89
181.064	-2.73
181.283	-35.5
181.503	34.13
181.723	126.29
181.943	-129.7
182.163	36.18
182.383	-25.26
182.602	44.37
182.822	5.46
183.042	60.76
183.262	60.76
183.482	89.43
183.701	13.65
183.921	-29.35
184.141	-33.45
184.361	42.32
184.58	60.76
184.8	1.37
185.02	-111.27
185.239	36.18
185.459	5.46
185.679	54.61
185.898	-80.55
186.118	81.24
186.338	46.42
186.557	-21.16
186.777	42.32
186.997	38.23
187.216	13.65
187.436	77.14
187.655	-21.16
187.875	83.28
188.095	-0.68
188.314	71
188.534	60.76
188.753	36.18
188.973	3.41
189.192	48.47
189.412	36.18
189.631	-0.68
189.851	48.47
190.07	27.99
190.29	44.37
190.509	-23.21
190.729	17.75
190.948	87.38
191.168	253.27
191.387	60.76
191.607	-15.02
191.826	66.9
192.045	11.61
192.265	34.13
192.484	54.61
192.704	36.18
192.923	-58.03
193.142	79.19
193.362	-31.4
193.581	42.32
193.8	15.7
194.02	77.14
194.239	-66.22
194.458	30.04
194.678	13.65
194.897	9.56
195.116	-45.74
195.335	38.23
195.555	44.37
195.774	11.61
195.993	140.63
196.212	44.37
196.432	93.52
196.651	-51.88
196.87	-17.07
197.089	109.91
197.308	32.08
197.528	68.95
197.747	-6.83
197.966	36.18
198.185	109.91
198.404	34.13
198.623	-37.55
198.842	95.57
199.062	97.62
199.281	36.18
199.5	3.41
199.719	50.52
199.938	-23.21
200.157	50.52
200.376	30.04
200.595	11.61
200.814	23.89
201.033	-4.78
201.252	50.52
201.471	21.84
201.69	17.75
201.909	42.32
202.128	15.7
202.347	-43.69
202.566	68.95
202.785	17.75
203.004	3.41
203.223	124.24
203.442	13.65
203.661	52.56
203.879	23.89
204.098	83.28
204.317	11.61
204.536	101.72
204.755	7.51
204.974	48.47
205.193	-25.26
205.411	142.68
205.63	32.08
205.849	-31.4
206.068	66.9
206.287	71
206.505	9.56
206.724	-0.68
206.943	13.65
207.162	-8.87
207.381	3.41
207.599	-37.55
207.818	99.67
208.037	3.41
208.255	3.41
208.474	-70.31
208.693	42.32
208.911	62.8
209.13	42.32
209.349	52.56
209.567	32.08
209.786	48.47
210.005	60.76
210.223	-0.68
210.442	-21.16
210.661	23.89
210.879	1.37
211.098	-2.73
211.316	-0.68
211.535	77.14
211.753	36.18
211.972	46.42
212.191	60.76
212.409	27.99
212.628	99.67
212.846	27.99
213.065	17.75
213.283	89.43
213.502	-4.78
213.72	1.37
213.938	32.08
214.157	-25.26
214.375	58.71
214.594	17.75
214.812	19.8
215.031	66.9
215.249	-6.83
215.467	-25.26
215.686	40.28
215.904	56.66
216.122	9.56
216.341	50.52
216.559	105.81
216.778	118.1
216.996	36.18
217.214	17.75
217.432	44.37
217.651	32.08
217.869	7.51
218.087	77.14
218.306	13.65
218.524	-19.11
218.742	48.47
218.96	77.14
219.179	58.71
219.397	81.24
219.615	25.94
219.833	58.71
220.051	-15.02
220.27	91.48
220.488	25.94
220.706	-39.59
220.924	15.7
221.142	40.28
221.36	-23.21
221.578	60.76
221.796	36.18
222.015	3.41
222.233	-12.97
222.451	71
222.669	-70.31
222.887	107.86
223.105	-4.78
223.323	-29.35
223.541	38.23
223.759	42.32
223.977	77.14
224.195	118.1
224.413	107.86
224.631	79.19
224.849	-12.97
225.067	173.39
225.285	11.61
225.503	36.18
225.721	38.23
225.939	-31.4
226.157	19.8
226.375	85.33
226.592	58.71
226.81	9.56
227.028	56.66
227.246	73.04
227.464	9.56
227.682	19.8
227.9	46.42
228.117	-62.12
228.335	-8.87
228.553	54.61
228.771	-4.78
228.989	89.43
229.206	27.99
229.424	-74.41
229.642	19.8
229.86	-45.74
230.077	68.95
230.295	-47.79
230.513	50.52
230.731	32.08
230.948	11.61
231.166	75.09
231.384	52.56
231.601	-15.02
231.819	52.56
232.037	-4.78
232.254	7.51
232.472	1.37
232.689	42.32
232.907	44.37
233.125	-19.11
233.342	34.13
233.56	-72.36
233.777	-68.27
233.995	-4.78
234.213	114
234.43	34.13
234.648	66.9
234.865	42.32
235.083	73.04
235.3	-25.26
235.518	66.9
235.735	107.86
235.953	32.08
236.17	9.56
236.388	91.48
236.605	-23.21
236.822	93.52
237.04	48.47
237.257	17.75
237.475	-2.73
237.692	-10.92
237.909	36.18
238.127	-8.87
238.344	-10.92
238.562	17.75
238.779	9.56
238.996	9.56
239.214	25.94
239.431	107.86
239.648	13.65
239.865	77.14
240.083	-10.92
240.3	-19.11
240.517	15.7
240.735	-17.07
240.952	77.14
241.169	36.18
241.386	23.89
241.603	11.61
241.821	27.99
242.038	93.52
242.255	52.56
242.472	23.89
242.689	60.76
242.907	71
243.124	23.89
243.341	85.33
243.558	-29.35
243.775	-29.35
243.992	-53.93
244.209	95.57
244.426	-29.35
244.643	-31.4
244.86	-12.97
245.078	50.52
245.295	44.37
245.512	-0.68
245.729	-39.59
245.946	60.76
246.163	11.61
246.38	52.56
246.597	-21.16
246.814	52.56
247.031	-33.45
247.248	3.41
247.464	-17.07
247.681	15.7
247.898	44.37
248.115	50.52
248.332	-12.97
248.549	30.04
248.766	154.96
248.983	75.09
249.2	40.28
249.417	21.84
249.633	1.37
249.85	25.94
250.067	97.62
250.284	34.13
250.501	52.56
250.717	38.23
250.934	-4.78
251.151	-4.78
251.368	58.71
251.585	32.08
251.801	-12.97
252.018	-2.73
252.235	62.8
252.451	-25.26
252.668	19.8
252.885	25.94
253.102	60.76
253.318	-21.16
253.535	77.14
253.752	9.56
253.968	-8.87
254.185	-0.68
254.401	44.37
254.618	73.04
254.835	32.08
255.051	-2.73
255.268	30.04
255.484	62.8
255.701	11.61
255.917	54.61
256.134	-33.45
256.351	-15.02
256.567	5.46
256.784	64.85
257	1.37
257.217	-27.31
257.433	40.28
257.65	-19.11
257.866	11.61
258.082	66.9
258.299	-80.55
258.515	36.18
258.732	-4.78
258.948	-53.93
259.165	52.56
259.381	-25.26
259.597	60.76
259.814	32.08
260.03	19.8
260.246	23.89
260.463	36.18
260.679	87.38
260.895	-17.07
261.112	66.9
261.328	44.37
261.544	58.71
261.761	44.37
261.977	-45.74
262.193	9.56
262.409	21.84
262.626	15.7
262.842	13.65
263.058	42.32
263.274	27.99
263.49	91.48
263.707	3.41
263.923	81.24
264.139	40.28
264.355	52.56
264.571	44.37
264.787	50.52
265.004	81.24
265.22	-49.83
265.436	-0.68
265.652	-47.79
265.868	58.71
266.084	-12.97
266.3	87.38
266.516	-47.79
266.732	40.28
266.948	-49.83
267.164	23.89
267.38	62.8
267.596	7.51
267.812	17.75
268.028	15.7
268.244	-31.4
268.46	17.75
268.676	3.41
268.892	87.38
269.108	122.2
269.324	11.61
269.54	-19.11
269.756	32.08
269.972	-29.35
270.188	15.7
270.403	15.7
270.619	75.09
270.835	7.51
271.051	44.37
271.267	7.51
271.483	-2.73
271.698	-17.07
271.914	68.95
272.13	66.9
272.346	3.41
272.562	32.08
272.777	17.75
272.993	128.34
273.209	13.65
273.425	83.28
273.64	85.33
273.856	-12.97
274.072	68.95
274.287	-74.41
274.503	19.8
274.719	-37.55
274.934	44.37
275.15	40.28
275.366	-27.31
275.581	-88.75
275.797	23.89
276.012	66.9
276.228	-25.26
276.444	-37.55
276.659	40.28
276.875	-2.73
277.09	68.95
277.306	36.18
277.521	46.42
277.737	34.13
277.952	60.76
278.168	58.71
278.383	-4.78
278.599	60.76
278.814	34.13
279.03	60.76
279.245	93.52
279.461	40.28
279.676	36.18
279.892	-15.02
280.107	3.41
280.322	-21.16
280.538	83.28
280.753	7.51
280.969	19.8
281.184	3.41
281.399	56.66
281.615	-51.88
281.83	36.18
282.045	27.99
282.26	-4.78
282.476	71
282.691	48.47
282.906	46.42
283.122	-21.16
283.337	5.46
283.552	36.18
283.767	32.08
283.983	77.14
284.198	27.99
284.413	56.66
284.628	32.08
284.843	48.47
285.058	60.76
285.274	52.56
285.489	-33.45
285.704	75.09
285.919	-12.97
286.134	11.61
286.349	9.56
286.564	-12.97
286.779	122.2
286.995	44.37
287.21	52.56
287.425	-0.68
287.64	-12.97
287.855	58.71
288.07	48.47
288.285	89.43
288.5	91.48
288.715	56.66
288.93	-25.26
289.145	13.65
289.36	52.56
289.575	1.37
289.79	81.24
290.004	32.08
290.219	87.38
290.434	60.76
290.649	-15.02
290.864	-15.02
291.079	40.28
291.294	77.14
291.509	87.38
291.724	-2.73
291.938	60.76
292.153	68.95
292.368	-45.74
292.583	-53.93
292.798	23.89
293.012	48.47
293.227	27.99
293.442	32.08
293.657	122.2
293.871	68.95
294.086	25.94
294.301	109.91
294.516	40.28
294.73	25.94
294.945	-4.78
295.16	34.13
295.374	97.62
295.589	52.56
295.804	7.51
296.018	27.99
296.233	87.38
296.447	-17.07
296.662	77.14
296.877	126.29
297.091	60.76
297.306	13.65
297.52	42.32
297.735	7.51
297.949	3.41
298.164	66.9
298.378	77.14
298.593	-21.16
298.807	19.8
299.022	-27.31
299.236	75.09
299.451	3.41
299.665	-74.41
299.88	27.99
300.094	50.52
300.309	11.61
300.523	150.87
300.737	-15.02
300.952	9.56
301.166	66.9
301.381	58.71
301.595	46.42
301.809	64.85
302.024	32.08
302.238	11.61
302.452	52.56
302.667	64.85
302.881	85.33
303.095	99.67
303.309	7.51
303.524	42.32
303.738	11.61
303.952	17.75
304.166	36.18
304.381	-53.93
304.595	95.57
304.809	-21.16
305.023	36.18
305.237	64.85
305.452	40.28
305.666	118.1
305.88	77.14
306.094	60.76
306.308	77.14
306.522	44.37
306.736	77.14
306.95	109.91
307.164	-2.73
307.379	-0.68
307.593	114
307.807	81.24
308.021	11.61
308.235	75.09
308.449	25.94
308.663	25.94
308.877	122.2
309.091	-4.78
309.305	97.62
309.519	-17.07
309.733	52.56
309.947	34.13
310.161	-12.97
310.374	101.72
310.588	54.61
310.802	-15.02
311.016	68.95
311.23	36.18
311.444	-17.07
311.658	68.95
311.872	5.46
312.085	85.33
312.299	79.19
312.513	122.2
312.727	-2.73
312.941	36.18
313.154	25.94
313.368	44.37
313.582	-19.11
313.796	11.61
314.009	23.89
314.223	36.18
314.437	75.09
314.651	44.37
314.864	-4.78
315.078	32.08
315.292	-37.55
315.505	-45.74
315.719	-62.12
315.933	-4.78
316.146	93.52
316.36	19.8
316.573	75.09
316.787	93.52
317.001	75.09
317.214	-39.59
317.428	46.42
317.641	32.08
317.855	5.46
318.068	-15.02
318.282	7.51
318.495	27.99
318.709	36.18
318.922	-12.97
319.136	89.43
319.349	27.99
319.563	-96.94
319.776	42.32
319.99	7.51
320.203	87.38
320.417	32.08
320.63	11.61
320.843	77.14
321.057	75.09
321.27	42.32
321.483	-17.07
321.697	97.62
321.91	5.46
322.124	52.56
322.337	-6.83
322.55	25.94
322.763	-45.74
322.977	23.89
323.19	-15.02
323.403	60.76
323.617	93.52
323.83	77.14
324.043	46.42
324.256	11.61
324.469	11.61
324.683	44.37
324.896	93.52
325.109	32.08
325.322	-4.78
325.535	58.71
325.748	34.13
325.962	101.72
326.175	-53.93
326.388	40.28
326.601	-25.26
326.814	-37.55
327.027	71
327.24	97.62
327.453	-17.07
327.666	3.41
327.879	44.37
328.092	97.62
328.305	73.04
328.518	36.18
328.731	36.18
328.944	32.08
329.157	11.61
329.37	38.23
329.583	66.9
329.796	50.52
330.009	-27.31
330.222	77.14
330.435	54.61
330.648	17.75
330.861	17.75
331.073	19.8
331.286	36.18
331.499	11.61
331.712	-4.78
331.925	-8.87
332.138	11.61
332.35	99.67
332.563	77.14
332.776	85.33
332.989	44.37
333.202	58.71
333.414	126.29
333.627	11.61
333.84	-10.92
334.053	-2.73
334.265	3.41
334.478	-23.21
334.691	23.89
334.903	56.66
335.116	-12.97
335.329	27.99
335.541	25.94
335.754	79.19
335.966	-12.97
336.179	-45.74
336.392	27.99
336.604	40.28
336.817	-21.16
337.029	52.56
337.242	3.41
337.454	81.24
337.667	50.52
337.88	81.24
338.092	32.08
338.305	52.56
338.517	25.94
338.729	1.37
338.942	66.9
339.154	-45.74
339.367	-27.31
339.579	62.8
339.792	5.46
340.004	83.28
340.217	34.13
340.429	89.43
340.641	68.95
340.854	36.18
341.066	44.37
341.278	38.23
341.491	73.04
341.703	32.08
341.915	13.65
342.128	73.04
342.34	66.9
342.552	48.47
342.764	91.48
342.977	-35.5
343.189	130.39
343.401	58.71
343.613	-55.98
343.826	25.94
344.038	36.18
344.25	60.76
344.462	36.18
344.674	30.04
344.886	11.61
345.099	50.52
345.311	3.41
345.523	56.66
345.735	25.94
345.947	150.87
346.159	34.13
346.371	3.41
346.583	-29.35
346.795	114
347.007	42.32
347.219	85.33
347.431	-21.16
347.643	150.87
347.855	68.95
348.067	124.24
348.279	7.51
348.491	77.14
348.703	89.43
348.915	60.76
349.127	68.95
349.339	36.18
349.551	11.61
349.763	122.2
349.975	-25.26
350.187	36.18
350.399	30.04
350.61	-58.03
350.822	5.46
351.034	60.76
351.246	25.94
351.458	128.34
351.669	3.41
351.881	36.18
352.093	66.9
352.305	21.84
352.517	7.51
352.728	68.95
352.94	25.94
353.152	66.9
353.363	11.61
353.575	73.04
353.787	54.61
353.999	32.08
354.21	212.31
354.422	36.18
354.633	32.08
354.845	19.8
355.057	-17.07
355.268	75.09
355.48	52.56
355.692	-8.87
355.903	56.66
356.115	11.61
356.326	-2.73
356.538	64.85
356.749	3.41
356.961	58.71
357.172	75.09
357.384	11.61
357.595	157.01
357.807	-47.79
358.018	-23.21
358.23	32.08
358.441	107.86
358.653	52.56
358.864	-17.07
359.075	68.95
359.287	148.82
359.498	27.99
359.709	50.52
359.921	5.46
360.132	40.28
360.344	93.52
360.555	21.84
360.766	48.47
360.977	11.61
361.189	32.08
361.4	54.61
361.611	25.94
361.823	122.2
362.034	42.32
362.245	11.61
362.456	25.94
362.667	58.71
362.879	-4.78
363.09	38.23
363.301	42.32
363.512	44.37
363.723	23.89
363.935	27.99
364.146	-4.78
364.357	32.08
364.568	77.14
364.779	-58.03
364.99	66.9
365.201	-15.02
365.412	-12.97
365.623	-45.74
365.834	27.99
366.045	60.76
366.256	183.63
366.467	36.18
366.678	15.7
366.889	60.76
367.1	17.75
367.311	-10.92
367.522	68.95
367.733	81.24
367.944	85.33
368.155	77.14
368.366	124.24
368.577	91.48
368.788	118.1
368.999	-12.97
369.209	99.67
369.42	118.1
369.631	118.1
369.842	5.46
370.053	42.32
370.264	44.37
370.474	-58.03
370.685	77.14
370.896	50.52
371.107	56.66
371.317	36.18
371.528	58.71
371.739	134.48
371.95	109.91
372.16	64.85
372.371	68.95
372.582	77.14
372.792	60.76
373.003	1.37
373.214	25.94
373.424	157.01
373.635	25.94
373.846	64.85
374.056	103.76
374.267	85.33
374.477	50.52
374.688	34.13
374.898	-15.02
375.109	62.8
375.319	44.37
375.53	52.56
375.74	95.57
375.951	42.32
376.161	68.95
376.372	109.91
376.582	25.94
376.793	-58.03
377.003	-6.83
377.214	34.13
377.424	109.91
377.635	-17.07
377.845	77.14
378.055	81.24
378.266	71
378.476	150.87
378.686	75.09
378.897	15.7
379.107	105.81
379.317	101.72
379.528	7.51
379.738	138.58
379.948	136.53
380.158	1.37
380.369	81.24
380.579	58.71
380.789	91.48
380.999	77.14
381.21	126.29
381.42	68.95
381.63	48.47
381.84	85.33
382.05	64.85
382.261	30.04
382.471	66.9
382.681	36.18
382.891	134.48
383.101	30.04
383.311	99.67
383.521	-8.87
383.731	81.24
383.941	152.91
384.151	-10.92
384.361	83.28
384.571	62.8
384.781	11.61
384.991	99.67
385.201	200.02
385.411	83.28
385.621	105.81
385.831	87.38
386.041	17.75
386.251	116.05
386.461	114
386.671	32.08
386.881	109.91
387.091	-37.55
387.301	118.1
387.511	81.24
387.72	85.33
387.93	91.48
388.14	52.56
388.35	-37.55
388.56	75.09
388.769	89.43
388.979	52.56
389.189	-25.26
389.399	36.18
389.609	99.67
389.818	38.23
390.028	58.71
390.238	85.33
390.447	-12.97
390.657	107.86
390.867	-29.35
391.076	-12.97
391.286	58.71
391.496	91.48
391.705	44.37
391.915	208.21
392.125	140.63
392.334	122.2
392.544	128.34
392.753	101.72
392.963	73.04
393.172	107.86
393.382	105.81
393.591	75.09
393.801	40.28
394.01	161.11
394.22	77.14
394.429	27.99
394.639	23.89
394.848	99.67
395.058	128.34
395.267	34.13
395.477	101.72
395.686	85.33
395.895	157.01
396.105	154.96
396.314	165.2
396.524	85.33
396.733	99.67
396.942	165.2
397.152	132.44
397.361	142.68
397.57	95.57
397.78	85.33
397.989	124.24
398.198	177.49
398.407	114
398.617	148.82
398.826	13.65
399.035	77.14
399.244	85.33
399.453	83.28
399.663	107.86
399.872	208.21
400.081	134.48
400.29	120.15
400.499	68.95
400.708	183.63
400.917	157.01
401.127	126.29
401.336	89.43
401.545	197.97
401.754	142.68
401.963	111.96
402.172	81.24
402.381	140.63
402.59	11.61
402.799	83.28
403.008	148.82
403.217	101.72
403.426	148.82
403.635	99.67
403.844	111.96
404.053	140.63
404.262	111.96
404.471	200.02
404.68	134.48
404.888	124.24
405.097	91.48
405.306	167.25
405.515	138.58
405.724	150.87
405.933	138.58
406.142	167.25
406.35	224.59
406.559	169.3
406.768	138.58
406.977	249.17
407.185	269.65
407.394	195.92
407.603	230.74
407.812	191.83
408.02	197.97
408.229	277.84
408.438	253.27
408.646	263.51
408.855	206.16
409.064	273.75
409.272	249.17
409.481	281.94
409.69	347.47
409.898	322.9
410.107	372.05
410.315	365.9
410.524	372.05
410.733	359.76
410.941	384.34
411.15	335.18
411.358	490.83
411.567	367.95
411.775	443.73
411.984	394.58
412.192	468.3
412.401	437.58
412.609	527.69
412.818	587.08
413.026	550.22
413.234	544.08
413.443	542.03
413.651	597.32
413.86	617.8
414.068	693.58
414.276	720.2
414.485	656.72
414.693	757.07
414.901	765.26
415.11	730.44
415.318	773.45
415.526	765.26
415.734	812.36
415.943	861.51
416.151	941.38
416.359	945.48
416.567	894.28
416.776	953.67
416.984	984.39
417.192	1025.35
417.4	1051.97
417.608	994.63
417.817	1133.89
418.025	1203.52
418.233	1224
418.441	1172.8
418.649	1273.15
418.857	1297.73
419.065	1426.75
419.273	1326.4
419.481	1404.22
419.689	1486.14
419.897	1609.02
420.105	1576.25
420.313	1563.97
420.521	1697.08
420.729	1817.91
420.937	1776.95
421.145	1881.4
421.353	1963.32
421.561	2008.37
421.769	2092.34
421.977	2102.58
422.185	2254.13
422.393	2346.29
422.601	2506.03
422.809	2440.5
423.017	2444.59
423.224	2460.98
423.432	2690.35
423.64	2555.18
423.848	2972.97
424.056	2923.82
424.263	3040.55
424.471	2968.87
424.679	3210.53
424.887	3249.44
425.094	3370.27
425.302	3466.53
425.51	3632.41
425.718	3671.33
425.925	3771.68
426.133	3829.02
426.341	3960.09
426.548	4248.85
426.756	4273.43
426.964	4226.32
427.171	4441.36
427.379	4541.71
427.586	4662.54
427.794	4836.62
428.001	5203.21
428.209	5266.69
428.417	5223.69
428.624	5557.5
428.832	5584.13
429.039	5561.6
429.247	5428.48
429.454	6006.01
429.662	6477.04
429.869	5983.48
430.076	6419.7
430.284	6417.65
430.491	6604.02
430.699	7027.95
430.906	6909.16
431.114	7058.67
431.321	7372
431.528	7451.88
431.736	7963.87
431.943	8293.59
432.15	8094.94
432.358	8039.64
432.565	8469.72
432.772	8346.84
432.979	8938.7
433.187	9135.31
433.394	9186.51
433.601	9884.86
433.808	9761.98
434.016	9772.22
434.223	10271.93
434.43	10757.3
434.637	10515.64
434.844	11414.7
435.052	11365.54
435.259	11324.58
435.466	11558.05
435.673	11840.67
435.88	12049.57
436.087	12715.16
436.294	12645.52
436.501	12430.49
436.708	12876.94
436.915	13155.47
437.122	13554.82
437.329	13716.61
437.537	14005.38
437.743	14546.04
437.95	14443.64
438.157	14957.68
438.364	15826.02
438.571	15246.44
438.778	15645.8
438.985	17095.76
439.192	16237.66
439.399	16841.81
439.606	16655.45
439.813	17482.83
440.02	18463.8
440.227	18484.28
440.433	18240.57
440.64	18668.6
440.847	18568.25
441.054	18895.92
441.261	20245.54
441.467	20302.88
441.674	20341.79
441.881	21134.35
442.088	20798.49
442.294	20741.14
442.501	21308.43
442.708	21847.05
442.914	22871.03
443.121	23915.5
443.328	23139.32
443.534	24366.05
443.741	24011.75
443.948	23735.28
444.154	25289.68
444.361	25404.37
444.568	25162.71
444.774	25261.01
444.981	25773
445.187	26409.92
445.394	27704.24
445.6	26993.59
445.807	29768.59
446.013	28441.51
446.22	29172.63
446.426	30153.61
446.633	30495.62
446.839	31402.87
447.046	30182.28
447.252	31796.08
447.459	32039.79
447.665	32043.88
447.871	33370.97
448.078	34493.26
448.284	33057.63
448.491	34038.61
448.697	35205.95
448.903	35558.2
449.11	36008.75
449.316	35380.03
449.522	36016.94
449.728	36703.01
449.935	36885.28
450.141	36942.63
450.347	37632.79
450.553	36655.91
450.76	37135.13
450.966	38232.85
451.172	37841.68
451.378	38914.82
451.584	37833.49
451.791	39359.23
451.997	38947.59
452.203	39344.89
452.409	39482.11
452.615	39283.45
452.821	37962.51
453.027	37278.49
453.233	39547.64
453.44	37774.1
453.646	38138.64
453.852	38378.25
454.058	38791.94
454.264	37600.02
454.47	38644.49
454.676	37837.59
454.882	38953.73
455.088	35365.69
455.294	36076.33
455.5	36707.11
455.705	37024.54
455.911	35812.15
456.117	34622.28
456.323	34220.88
456.529	32269.16
456.735	33819.47
456.941	32889.7
457.147	32308.07
457.352	31171.45
457.558	30890.88
457.764	31335.29
457.97	30575.49
458.176	30012.3
458.381	29750.16
458.587	28490.66
458.793	28081.06
458.999	27063.22
459.204	28674.98
459.41	28038.06
459.616	26078.15
459.821	26035.14
460.027	25975.75
460.233	25306.07
460.438	24142.82
460.644	24441.82
460.85	23317.49
461.055	22920.18
461.261	22799.35
461.466	21124.11
461.672	20882.45
461.878	22191.11
462.083	20456.48
462.289	20200.48
462.494	20126.75
462.7	19121.2
462.905	18629.69
463.111	19178.54
463.316	19555.37
463.522	18703.42
463.727	19096.63
463.932	19024.95
464.138	18543.67
464.343	18707.51
464.549	18099.27
464.754	18928.69
464.959	18451.52
465.165	18453.56
465.37	17699.91
465.575	17075.28
465.781	17808.45
465.986	18148.42
466.191	17357.9
466.397	17091.66
466.602	16041.06
466.807	17214.54
467.012	16921.68
467.218	16776.28
467.423	16491.61
467.628	16616.54
467.833	17329.23
468.038	16661.59
468.244	16155.74
468.449	16868.44
468.654	16356.44
468.859	16131.17
469.064	16157.79
469.269	15518.82
469.474	15742.05
469.679	15985.76
469.885	15393.9
470.09	15637.61
470.295	15447.15
470.5	15203.44
470.705	15041.65
470.91	14842.99
471.115	14826.61
471.32	14810.23
471.525	14662.77
471.73	14683.25
471.935	14623.86
472.139	13882.5
472.344	14077.05
472.549	13948.03
472.754	13812.87
472.959	13634.69
473.164	13208.72
473.369	13218.96
473.574	13771.91
473.778	13431.94
473.983	13221
474.188	13270.15
474.393	12840.08
474.598	12700.82
474.802	12586.13
475.007	12414.1
475.212	12520.6
475.417	12129.44
475.621	12074.14
475.826	12119.2
476.031	11824.29
476.235	11541.67
476.44	11941.02
476.645	11728.03
476.849	11615.4
477.054	11353.26
477.259	11363.5
477.463	11306.15
477.668	10976.43
477.872	11402.41
478.077	10914.99
478.282	10591.41
478.486	10529.97
478.691	10525.88
478.895	10433.72
479.1	10548.4
479.304	10509.49
479.509	10439.86
479.713	10380.47
479.918	10167.48
480.122	9893.05
480.326	10142.91
480.531	10165.43
480.735	9766.08
480.94	9874.62
481.144	10239.16
481.348	9751.74
481.553	9985.21
481.757	9542.85
481.961	9845.95
482.166	10003.64
482.37	9678.02
482.574	9651.39
482.778	9546.95
482.983	9790.66
483.187	9784.51
483.391	9792.7
483.595	9804.99
483.8	9612.48
484.004	9774.27
484.208	9704.64
484.412	9641.15
484.616	9665.73
484.821	9571.52
485.025	9678.02
485.229	9735.36
485.433	9589.95
485.637	9620.67
485.841	9569.48
486.045	9635.01
486.249	9653.44
486.453	9733.31
486.657	9680.07
486.861	9684.16
487.065	9526.47
487.269	9692.35
487.473	9440.45
487.677	9620.67
487.881	9698.5
488.085	9491.65
488.289	9925.82
488.493	9499.84
488.697	9831.62
488.901	9675.97
489.105	9573.57
489.309	9702.59
489.512	9790.66
489.716	9829.57
489.92	9692.35
490.124	9661.63
490.328	10009.79
490.531	9868.48
490.735	9870.53
490.939	9940.16
491.143	9692.35
491.346	9837.76
491.55	9917.63
491.754	10013.88
491.958	10271.93
492.161	10097.85
492.365	10259.64
492.569	10165.43
492.772	10136.76
492.976	10126.52
493.18	10403
493.383	10589.36
493.587	10433.72
493.79	10476.73
493.994	10570.93
494.197	10632.37
494.401	10900.65
494.605	10642.61
494.808	10898.61
495.012	11142.32
495.215	11035.82
495.419	11154.6
495.622	11037.87
495.825	11291.82
496.029	11195.56
496.232	11404.46
496.436	11572.39
496.639	11764.9
496.843	11467.94
497.046	11732.13
497.249	12037.28
497.453	12235.93
497.656	12262.55
497.859	12213.4
498.063	12217.5
498.266	12448.92
498.469	12758.16
498.673	12639.38
498.876	12872.85
499.079	12993.68
499.282	12913.81
499.485	13376.65
499.689	13548.68
499.892	13638.79
500.095	13743.24
500.298	13968.51
500.501	13962.37
500.705	14214.27
500.908	14562.42
501.111	14613.62
501.314	14685.3
501.517	14935.15
501.72	15172.72
501.923	14855.28
502.126	15496.3
502.329	15670.37
502.532	15705.19
502.735	15916.13
502.938	16467.03
503.141	16190.56
503.344	16487.51
503.547	16716.89
503.75	16649.3
503.953	17015.89
504.156	17179.73
504.359	17210.45
504.562	17574.99
504.765	18097.22
504.968	18129.98
505.17	18246.72
505.373	18488.38
505.576	18668.6
505.779	18863.16
505.982	18893.88
506.185	19702.82
506.387	19389.49
506.59	19715.11
506.793	19934.25
506.996	19903.53
507.198	20565.02
507.401	20556.83
507.604	20847.64
507.807	21111.83
508.009	21265.42
508.212	21359.63
508.415	21828.62
508.617	22012.93
508.82	22164.48
509.022	22178.82
509.225	22834.17
509.428	22834.17
509.63	23360.5
509.833	23305.2
510.035	24187.88
510.238	24032.23
510.44	24220.64
510.643	24697.82
510.845	24923.1
511.048	25091.03
511.25	25430.99
511.453	25447.38
511.655	26518.46
511.858	26059.72
512.06	26590.14
512.262	27007.93
512.465	26831.8
512.667	27788.21
512.87	27945.9
513.072	28457.89
513.274	28621.73
513.477	28867.48
513.679	29195.16
513.881	29739.92
514.084	30235.53
514.286	29770.64
514.488	30333.83
514.69	30991.23
514.893	31595.38
515.095	31628.15
515.297	32211.82
515.499	32150.38
515.701	33006.43
515.904	33004.38
516.106	33561.43
516.308	34005.84
516.51	34171.72
516.712	34509.64
516.914	35040.06
517.116	35851.06
517.318	35676.98
517.52	35775.28
517.722	36723.49
517.925	37296.92
518.127	37778.2
518.329	38064.91
518.531	38099.73
518.733	38779.65
518.935	39232.25
519.136	39506.68
519.338	39971.57
519.54	40628.97
519.742	41054.95
519.944	40702.7
520.146	42361.55
520.348	42017.49
520.55	42646.22
520.752	43043.52
520.954	43864.76
521.155	43692.73
521.357	44536.49
521.559	45044.39
521.761	45806.23
521.963	46037.65
522.164	46312.08
522.366	46543.5
522.568	47213.19
522.77	47190.66
522.971	48304.76
523.173	48087.67
523.375	48857.71
523.576	48915.05
523.778	49607.26
523.98	49992.28
524.181	50426.45
524.383	50528.85
524.584	51425.86
524.786	51477.06
524.988	51479.11
525.189	52163.13
525.391	53125.67
525.592	53555.75
525.794	53449.25
525.995	53916.19
526.197	54178.33
526.398	54643.22
526.6	54518.29
526.801	54948.37
527.003	55638.53
527.204	56171
527.406	56488.44
527.607	56330.75
527.808	57045.49
528.01	56308.22
528.211	57692.64
528.412	58444.25
528.614	58048.99
528.815	58235.36
529.016	58917.33
529.218	58503.64
529.419	58888.66
529.62	59208.14
529.822	59097.55
530.023	59535.82
530.224	59699.65
530.425	59701.7
530.626	59824.58
530.828	60045.76
531.029	61182.38
531.23	60207.55
531.431	60805.56
531.632	61389.23
531.833	61821.35
532.035	61254.06
532.236	61258.16
532.437	61987.24
532.638	61665.7
532.839	62200.22
533.04	62044.58
533.241	61804.97
533.442	62706.07
533.643	62396.83
533.844	62472.6
534.045	62722.46
534.246	62255.52
534.447	62855.57
534.648	62763.42
534.849	63054.23
535.05	62886.29
535.251	63185.3
535.451	62984.6
535.652	63443.34
535.853	63181.2
536.054	63521.16
536.255	63713.67
536.456	63336.85
536.657	64127.36
536.857	63455.63
537.058	63719.82
537.259	63918.47
537.46	63721.86
537.66	63656.33
537.861	63693.19
538.062	63580.56
538.263	63963.53
538.463	63639.95
538.664	63783.3
538.865	64127.36
539.065	64127.36
539.266	63809.93
539.466	64127.36
539.667	63889.8
539.868	64127.36
540.068	63910.28
540.269	63953.29
540.469	64127.36
540.67	64020.87
540.87	64127.36
541.071	63713.67
541.271	64127.36
541.472	63971.72
541.672	63986.05
541.873	63811.98
542.073	63623.56
542.274	64127.36
542.474	64016.77
542.675	63906.18
542.875	64127.36
543.075	64127.36
543.276	64039.3
543.476	64127.36
543.676	63789.45
543.877	64127.36
544.077	64092.55
544.277	64127.36
544.478	64127.36
544.678	64127.36
544.878	64127.36
545.078	64098.69
545.279	64127.36
545.479	64127.36
545.679	64127.36
545.879	64127.36
546.079	64127.36
546.28	64086.4
546.48	63881.61
546.68	64127.36
546.88	64127.36
547.08	64127.36
547.28	64016.77
547.48	63672.71
547.68	64127.36
547.88	63897.99
548.081	64127.36
548.281	63893.89
548.481	64057.73
548.681	64127.36
548.881	64127.36
549.081	63975.81
549.28	64127.36
549.48	64127.36
549.68	64127.36
549.88	64127.36
550.08	63824.26
550.28	64127.36
550.48	64041.35
550.68	64127.36
550.88	64108.93
551.08	64127.36
551.279	64127.36
551.479	63943.05
551.679	63893.89
551.879	63838.6
552.079	63996.29
552.278	63988.1
552.478	63904.13
552.678	63762.82
552.878	64127.36
553.077	64006.53
553.277	63320.46
553.477	64110.98
553.676	63666.57
553.876	63476.11
554.076	63674.76
554.275	63328.65
554.475	62714.26
554.674	63650.19
554.874	63652.23
555.074	63340.94
555.273	63846.79
555.473	63496.59
555.672	63132.05
555.872	62888.34
556.071	63326.61
556.271	63467.92
556.47	62583.19
556.67	62349.73
556.869	62534.04
557.068	62626.2
557.268	62534.04
557.467	62374.3
557.667	62370.21
557.866	62333.34
558.065	62126.5
558.265	61819.3
558.464	62063.01
558.663	61960.61
558.863	61292.97
559.062	62271.9
559.261	61067.7
559.461	61651.37
559.66	60699.06
559.859	61282.73
560.058	60780.98
560.258	61133.23
560.457	60617.14
560.656	60592.57
560.855	60240.32
561.054	60101.06
561.253	59613.64
561.453	60477.88
561.652	59976.13
561.851	59945.41
562.05	59404.75
562.249	59105.74
562.448	59472.33
562.647	59380.17
562.846	58692.05
563.045	58282.46
563.244	58694.1
563.443	58819.03
563.642	58126.81
563.841	58257.88
564.04	57987.55
564.239	57995.74
564.438	57156.08
564.637	57471.46
564.836	57014.77
565.035	56816.11
565.234	56728.05
565.432	56480.25
565.631	56496.63
565.83	56293.88
566.029	56017.41
566.228	55751.17
566.427	55403.02
566.625	54974.99
566.824	54735.38
567.023	55507.46
567.222	54346.26
567.42	54940.18
567.619	54153.75
567.818	54104.6
568.016	53932.57
568.215	54680.08
568.414	53916.19
568.612	53504.55
568.811	52855.34
569.01	53269.03
569.208	52294.2
569.407	53099.05
569.605	51941.95
569.804	52795.95
570.002	52081.21
570.201	51722.82
570.4	51386.95
570.598	51130.95
570.797	50709.07
570.995	50973.26
571.193	50295.38
571.392	50848.33
571.59	50053.72
571.789	50420.31
571.987	49797.73
572.186	49349.22
572.384	49261.16
572.582	48915.05
572.781	49166.95
572.979	48353.91
573.177	48378.48
573.376	48927.34
573.574	48147.06
573.772	48300.66
573.971	47676.03
574.169	47469.18
574.367	46826.12
574.565	47174.28
574.763	46793.36
574.962	46621.33
575.16	46129.81
575.358	46576.27
575.556	45632.16
575.754	46785.16
575.952	45658.78
576.151	46295.7
576.349	45349.54
576.547	45542.05
576.745	44999.33
576.943	44950.18
577.141	45079.21
577.339	45142.69
577.537	44327.6
577.735	44014.26
577.933	44171.96
578.131	43754.17
578.329	43528.89
578.527	43438.78
578.725	43510.46
578.923	43551.42
579.121	42980.04
579.319	42812.1
579.516	43123.4
579.714	42965.7
579.912	42361.55
580.11	42037.97
580.308	42074.84
580.506	41937.62
580.704	41366.24
580.901	41464.54
581.099	41433.82
581.297	41366.24
581.495	41521.88
581.692	41364.19
581.89	40661.74
582.088	41210.59
582.285	40506.09
582.483	40395.5
582.681	40551.15
582.878	39926.52
583.076	39346.94
583.274	40442.6
583.471	39426.81
583.669	39443.2
583.866	39377.66
584.064	39559.93
584.262	39238.4
584.459	39064.32
584.657	39011.07
584.854	39308.03
585.052	38200.08
585.249	38558.47
585.447	38355.72
585.644	37696.28
585.841	38535.95
586.039	38128.4
586.236	37583.64
586.434	37620.5
586.631	36954.91
586.828	37305.12
587.026	37202.72
587.223	37096.22
587.42	37094.18
587.618	37139.23
587.815	36676.39
588.012	36477.74
588.21	36201.26
588.407	36381.48
588.604	36025.14
588.801	36172.59
588.999	36205.36
589.196	35836.72
589.393	35869.49
589.59	35341.11
589.787	35208
589.984	35042.11
590.182	34913.09
590.379	35251
590.576	34804.55
590.773	35105.6
590.97	34736.96
591.167	34708.29
591.364	34128.72
591.561	34530.12
591.758	33766.23
591.955	34212.68
592.152	34405.19
592.349	33614.68
592.546	33938.26
592.743	33766.23
592.94	33395.54
593.137	33170.27
593.334	33469.27
593.531	33192.79
593.727	33565.53
593.924	33149.79
594.121	32488.29
594.318	33045.34
594.515	32383.85
594.712	32568.16
594.908	32342.89
595.105	32535.4
595.302	32004.97
595.499	32181.1
595.696	31884.14
595.892	31712.11
596.089	32045.93
596.286	31867.76
596.482	31554.42
596.679	31236.98
596.876	31583.09
597.072	31470.45
597.269	31116.15
597.466	30620.55
597.662	30626.69
597.859	30817.15
598.055	30913.41
598.252	30309.25
598.448	30905.21
598.645	30495.62
598.841	30112.65
599.038	30479.24
599.234	30270.34
599.431	30266.25
599.627	29735.82
599.824	29881.23
600.02	29668.24
600.217	29643.66
600.413	29574.03
600.609	29176.73
600.806	29309.85
601.002	29461.4
601.198	28603.3
601.395	28836.77
601.591	28806.05
601.787	28832.67
601.984	28572.58
602.18	28711.84
602.376	28558.24
602.572	28535.71
602.769	28472.23
602.965	28382.12
603.161	28324.77
603.357	27837.36
603.553	27882.41
603.75	27866.03
603.946	27714.48
604.142	27683.76
604.338	27460.53
604.534	27751.34
604.73	27231.16
604.926	27284.4
605.122	27444.15
605.318	26663.87
605.514	26581.95
605.71	26684.35
605.906	26766.27
606.102	26635.2
606.298	26825.66
606.494	26428.35
606.69	26450.88
606.886	26512.32
607.082	25928.65
607.278	26125.25
607.474	25725.9
607.67	26004.42
607.866	25568.21
608.062	25822.16
608.257	25859.02
608.453	25656.27
608.649	25621.45
608.845	25324.5
609.041	25588.69
609.236	25465.81
609.432	25144.28
609.628	25285.59
609.824	25152.47
610.019	24572.89
610.215	24794.07
610.411	24863.71
610.606	24943.58
610.802	24706.01
610.998	24493.02
611.193	24499.17
611.389	24339.43
611.584	24437.73
611.78	24054.76
611.976	24054.76
612.171	24382.43
612.367	24128.49
612.562	23884.78
612.758	23802.86
612.953	23665.64
613.149	24065
613.344	23639.02
613.539	23882.73
613.735	23868.39
613.93	23686.12
614.126	23231.47
614.321	23753.71
614.517	23366.64
614.712	23329.78
614.907	23262.19
615.103	23311.35
615.298	22881.27
615.493	23311.35
615.688	22639.61
615.884	23188.47
616.079	22735.87
616.274	22649.85
616.47	22901.75
616.665	22809.59
616.86	22256.64
617.055	22481.92
617.25	22426.62
617.445	22379.52
617.641	21967.88
617.836	22492.16
618.031	21830.66
618.226	22203.39
618.421	21754.89
618.616	22068.23
618.811	21619.72
619.006	21908.49
619.201	21498.89
619.396	21818.38
619.591	20952.09
619.786	21365.78
619.981	21099.54
620.176	21386.25
620.371	20659.23
620.566	20997.14
620.761	20515.87
620.956	20825.11
621.151	20522.01
621.346	20618.27
621.541	20270.11
621.735	20380.7
621.93	20192.29
622.125	20405.28
622.32	19964.96
622.515	20124.71
622.709	19801.13
622.904	19958.82
623.099	19620.91
623.294	19772.46
623.488	19348.53
623.683	19297.33
623.878	18830.39
624.072	19237.94
624.267	18861.11
624.462	19072.05
624.656	18517.05
624.851	18785.33
625.046	18517.05
625.24	18359.36
625.435	18152.51
625.629	18263.1
625.824	18203.71
626.018	18031.68
626.213	17914.95
626.407	17953.86
626.602	17568.84
626.796	17951.81
626.991	17749.06
627.185	17480.78
627.38	17425.48
627.574	17501.26
627.768	17218.64
627.963	17169.49
628.157	17062.99
628.352	17097.81
628.546	16682.07
628.74	16913.49
628.935	16616.54
629.129	16557.14
629.323	16378.97
629.517	16452.7
629.712	16424.03
629.906	16381.02
630.1	16002.15
630.294	16258.14
630.489	16071.78
630.683	15864.93
630.877	15608.94
631.071	15760.48
631.265	15641.7
631.459	15631.46
631.653	15383.66
631.848	15457.39
632.042	15469.67
632.236	15432.81
632.43	14982.26
632.624	15305.84
632.818	15053.94
633.012	14957.68
633.206	14814.32
633.4	14881.91
633.594	14752.88
633.788	14621.81
633.982	14529.66
634.176	14660.73
634.369	14402.68
634.563	14460.02
634.757	14193.79
634.951	14060.67
635.145	14126.21
635.339	13925.5
635.533	13892.74
635.726	13956.22
635.92	13673.6
636.114	13663.36
636.308	13704.32
636.501	13384.84
636.695	13513.86
636.889	13386.89
637.083	13098.13
637.276	13200.52
637.47	12917.9
637.664	12840.08
637.857	13044.88
638.051	12852.37
638.244	12743.83
638.438	12934.29
638.632	12786.83
638.825	12637.33
639.019	12379.29
639.212	12373.14
639.406	12223.64
639.599	12029.09
639.793	12414.1
639.986	12055.71
640.18	11920.54
640.373	11947.17
640.567	11941.02
640.76	11832.48
640.954	11615.4
641.147	11424.93
641.34	11349.16
641.534	11635.88
641.727	11584.68
641.92	11392.17
642.114	11265.19
642.307	10982.57
642.5	11105.45
642.694	10904.75
642.887	10941.61
643.08	10982.57
643.273	10849.46
643.467	10560.69
643.66	10708.15
643.853	10601.65
644.046	10462.39
644.239	10650.8
644.432	10431.67
644.626	10323.13
644.819	10292.41
645.012	10292.41
645.205	10302.65
645.398	10351.8
645.591	10290.36
645.784	10069.18
645.977	9927.87
646.17	9843.9
646.363	9815.23
646.556	9546.95
646.749	9622.72
646.942	9753.79
647.135	9577.67
647.328	9585.86
647.521	9516.23
647.714	9514.18
647.907	9450.69
648.099	9217.22
648.292	9397.45
648.485	9350.34
648.678	9106.63
648.871	9096.39
649.064	8979.66
649.256	9018.57
649.449	9014.48
649.642	8932.56
649.835	8918.22
650.027	8850.64
650.22	8850.64
650.413	8715.47
650.605	8711.38
650.798	8572.11
650.991	8565.97
651.183	8572.11
651.376	8482
651.568	8416.47
651.761	8387.8
651.954	8441.04
652.146	8228.06
652.339	8342.74
652.531	8269.02
652.724	8129.75
652.916	8168.66
653.109	8043.74
653.301	8180.95
653.494	8113.37
653.686	7888.09
653.879	8152.28
654.071	7861.47
654.263	8047.83
654.456	7972.06
654.648	7912.67
654.84	7709.92
655.033	7781.6
655.225	7666.91
655.417	7640.29
655.61	7685.34
655.802	7711.97
655.994	7640.29
656.186	7490.79
656.379	7572.71
656.571	7259.37
656.763	7544.03
656.955	7279.85
657.148	7351.53
657.34	7335.14
657.532	7226.6
657.724	7351.53
657.916	7259.37
658.108	7130.34
658.3	7107.82
658.492	7103.72
658.684	6952.17
658.876	6982.89
659.068	6923.5
659.26	6913.26
659.452	7032.04
659.644	6804.72
659.836	6862.06
660.028	6796.53
660.22	6630.64
660.412	6786.29
660.604	6606.06
660.796	6651.12
660.988	6696.18
661.18	6495.47
661.372	6565.11
661.563	6663.41
661.755	6642.93
661.947	6585.58
662.139	6622.45
662.331	6401.27
662.522	6532.34
662.714	6507.76
662.906	6374.64
663.097	6434.04
663.289	6229.24
663.481	6495.47
663.673	6180.09
663.864	6182.13
664.056	6366.45
664.247	6270.2
664.439	6030.59
664.631	6259.96
664.822	6307.06
665.014	6198.52
665.205	6169.85
665.397	6102.26
665.588	5987.58
665.78	6184.18
665.971	5963
666.163	6094.07
666.354	6065.4
666.546	5864.7
666.737	5977.34
666.929	5981.43
667.12	6049.02
667.311	5856.51
667.503	5817.6
667.694	5913.85
667.885	5825.79
668.077	5825.79
668.268	5770.49
668.459	5819.64
668.651	5774.59
668.842	5819.64
669.033	5707.01
669.224	5862.65
669.416	5786.88
669.607	5717.25
669.798	5707.01
669.989	5801.21
670.18	5709.05
670.371	5893.37
670.563	5698.81
670.754	5895.42
670.945	5532.93
671.136	5801.21
671.327	5629.18
671.518	5637.38
671.709	5655.81
671.9	5696.77
672.091	5696.77
672.282	5655.81
672.473	5776.64
672.664	5592.32
672.855	5670.14
673.046	5790.97
673.237	5606.66
673.428	5686.53
673.619	5631.23
673.809	5614.85
674	5743.87
674.191	5586.18
674.382	5539.07
674.573	5680.38
674.764	5555.46
674.954	5664
675.145	5627.14
675.336	5657.85
675.527	5600.51
675.717	5750.01
675.908	5532.93
676.099	5520.64
676.289	5676.29
676.48	5750.01
676.671	5645.57
676.861	5805.31
677.052	5680.38
677.243	5606.66
677.433	5688.57
677.624	5778.69
677.814	5741.82
678.005	5668.09
678.195	5840.12
678.386	5694.72
678.576	5590.27
678.767	5752.06
678.957	5754.11
679.148	5819.64
679.338	5829.88
679.529	5797.12
679.719	5760.25
679.909	5752.06
680.1	5866.75
680.29	5883.13
680.481	5833.98
680.671	5850.36
680.861	5917.95
681.052	5915.9
681.242	5784.83
681.432	5948.67
681.622	5979.39
681.813	5956.86
682.003	5981.43
682.193	5883.13
682.383	6102.26
682.573	6012.15
682.764	6065.4
682.954	6022.39
683.144	6108.41
683.334	6071.54
683.524	6022.39
683.714	6112.5
683.904	5989.63
684.094	6130.94
684.284	5999.87
684.474	6132.98
684.664	6112.5
684.854	6098.17
685.044	6106.36
685.234	6046.97
685.424	6065.4
685.614	5825.79
685.804	6022.39
685.994	6055.16
686.184	6083.83
686.374	6014.2
686.564	6020.35
686.753	6132.98
686.943	5907.71
687.133	5930.23
687.323	5952.76
687.513	5893.37
687.702	5905.66
687.892	5934.33
688.082	5948.67
688.272	5913.85
688.461	5868.8
688.651	5809.4
688.841	5774.59
689.03	5778.69
689.22	5860.6
689.41	5784.83
689.599	5709.05
689.789	5909.76
689.979	5721.34
690.168	5786.88
690.358	5678.33
690.547	5596.42
690.737	5618.94
690.926	5793.02
691.116	5639.42
691.305	5627.14
691.495	5702.91
691.684	5471.49
691.874	5604.61
692.063	5532.93
692.252	5534.98
692.442	5661.95
692.631	5391.62
692.82	5629.18
693.01	5399.81
693.199	5469.44
693.388	5549.31
693.578	5565.7
693.767	5500.16
693.956	5489.92
694.146	5467.39
694.335	5360.9
694.524	5348.61
694.713	5520.64
694.902	5352.71
695.092	5539.07
695.281	5512.45
695.47	5485.83
695.659	5469.44
695.848	5479.68
696.037	5432.58
696.226	5489.92
696.415	5557.5
696.604	5528.83
696.793	5498.11
696.982	5545.22
697.171	5678.33
697.36	5616.9
697.549	5440.77
697.738	5532.93
697.927	5485.83
698.116	5586.18
698.305	5688.57
698.494	5653.76
698.683	5588.22
698.872	5707.01
699.061	5618.94
699.25	5524.74
699.438	5598.46
699.627	5741.82
699.816	5821.69
700.005	5596.42
700.193	5696.77
700.382	5639.42
700.571	5739.77
700.76	5889.28
700.948	5917.95
701.137	5891.32
701.326	5956.86
701.514	5608.7
701.703	5672.19
701.892	5809.4
702.08	5870.84
702.269	5958.91
702.457	5668.09
702.646	5856.51
702.834	5811.45
703.023	6010.11
703.212	5803.26
703.4	5852.41
703.589	5842.17
703.777	6061.3
703.965	5784.83
704.154	6100.22
704.342	6008.06
704.531	5952.76
704.719	6051.06
704.907	6139.13
705.096	6036.73
705.284	5975.29
705.472	6018.3
705.661	5995.77
705.849	6128.89
706.037	6112.5
706.226	6184.18
706.414	6092.02
706.602	6135.03
706.79	6305.01
706.979	6081.78
707.167	6061.3
707.355	6178.04
707.543	6073.59
707.731	6272.25
707.919	6368.5
708.107	6147.32
708.296	6171.9
708.484	6128.89
708.672	6300.92
708.86	6300.92
709.048	6286.58
709.236	6073.59
709.424	6268.15
709.612	6120.7
709.8	6298.87
709.988	6352.12
710.176	6231.29
710.364	6214.9
710.551	6325.49
710.739	6214.9
710.927	6315.25
711.115	6323.44
711.303	6358.26
711.491	6251.77
711.679	6186.23
711.866	6339.83
712.054	6286.58
712.242	6147.32
712.43	6382.84
712.617	6421.75
712.805	6339.83
712.993	6425.84
713.181	6460.66
713.368	6573.3
713.556	6489.33
713.744	6413.56
713.931	6665.46
714.119	6386.93
714.306	6474.99
714.494	6481.14
714.682	6534.39
714.869	6442.23
715.057	6661.36
715.244	6429.94
715.432	6556.91
715.619	6499.57
715.807	6563.06
715.994	6624.5
716.182	6599.92
716.369	6434.04
716.556	6683.89
716.744	6540.53
716.931	6599.92
717.119	6632.69
717.306	6673.65
717.493	6626.54
717.681	6716.65
717.868	6604.02
718.055	6601.97
718.242	6737.13
718.43	6565.11
718.617	6636.78
718.804	6722.8
718.991	6657.26
719.179	6788.33
719.366	6466.8
719.553	6819.05
719.74	6710.51
719.927	6700.27
720.114	6579.44
720.301	6552.82
720.488	6636.78
720.676	6671.6
720.863	6610.16
721.05	6761.71
721.237	6718.7
721.424	6784.24
721.611	6669.55
721.798	6855.92
721.985	6622.45
722.172	6556.91
722.358	6681.84
722.545	6591.73
722.732	6524.15
722.919	6712.56
723.106	6554.87
723.293	6796.53
723.48	6821.1
723.667	6550.77
723.853	6556.91
724.04	6735.09
724.227	6825.2
724.414	6900.97
724.6	6761.71
724.787	6720.75
724.974	6784.24
725.161	6671.6
725.347	6599.92
725.534	6857.96
725.72	6685.94
725.907	6624.5
726.094	6667.5
726.28	6491.38
726.467	6591.73
726.653	6563.06
726.84	6683.89
727.027	6683.89
727.213	6733.04
727.4	6702.32
727.586	6690.03
727.773	6765.81
727.959	6665.46
728.145	6810.86
728.332	6558.96
728.518	6767.85
728.705	6810.86
728.891	6638.83
729.077	6675.7
729.264	6489.33
729.45	6704.37
729.636	6745.33
729.823	6649.07
730.009	6628.59
730.195	6673.65
730.382	6653.17
730.568	6692.08
730.754	6638.83
730.94	6481.14
731.126	6554.87
731.313	6741.23
731.499	6567.15
731.685	6753.52
731.871	6483.19
732.057	6626.54
732.243	6534.39
732.429	6503.67
732.615	6589.68
732.801	6464.75
732.987	6395.12
733.173	6565.11
733.359	6515.95
733.545	6378.74
733.731	6470.9
733.917	6505.71
734.103	6589.68
734.289	6769.9
734.475	6458.61
734.661	6540.53
734.847	6554.87
735.033	6434.04
735.219	6466.8
735.404	6356.21
735.59	6544.63
735.776	6118.65
735.962	6487.28
736.148	6495.47
736.333	6558.96
736.519	6345.97
736.705	6515.95
736.89	6337.78
737.076	6423.8
737.262	6255.86
737.447	6405.36
737.633	6302.97
737.819	6532.34
738.004	6233.33
738.19	6323.44
738.375	6126.84
738.561	6350.07
738.747	6268.15
738.932	6233.33
739.118	6262.01
739.303	6323.44
739.489	6266.1
739.674	6032.63
739.859	5956.86
740.045	6137.08
740.23	6012.15
740.416	6128.89
740.601	6030.59
740.786	6085.88
740.972	5917.95
741.157	5926.14
741.342	5872.89
741.528	5963
741.713	5926.14
741.898	6022.39
742.084	6012.15
742.269	5868.8
742.454	5733.63
742.639	5991.67
742.824	5799.16
743.01	5975.29
743.195	5807.36
743.38	5688.57
743.565	5840.12
743.75	5790.97
743.935	5637.38
744.12	5655.81
744.305	5713.15
744.49	5743.87
744.675	5512.45
744.86	5491.97
745.045	5520.64
745.23	5571.84
745.415	5516.55
745.6	5500.16
745.785	5313.8
745.97	5430.53
746.155	5385.48
746.34	5410.05
746.525	5203.21
746.71	5440.77
746.895	5190.92
747.079	5070.09
747.264	5170.44
747.449	5258.5
747.634	5131.53
747.819	5117.19
748.003	4832.52
748.188	4947.21
748.373	4875.53
748.557	5061.9
748.742	4957.45
748.927	4861.2
749.111	4934.92
749.296	4769.04
749.481	4752.65
749.665	4816.14
749.85	4592.91
750.034	4836.62
750.219	4611.34
750.404	4564.24
750.588	4476.18
750.773	4510.99
750.957	4554
751.141	4441.36
751.326	4326.68
751.51	4402.45
751.695	4312.34
751.879	4402.45
752.064	4427.03
752.248	4298
752.432	4271.38
752.617	4310.29
752.801	4162.84
752.985	4211.99
753.17	4166.93
753.354	4101.4
753.538	4037.91
753.722	4074.78
753.907	4044.06
754.091	3951.9
754.275	4029.72
754.459	3894.55
754.643	3894.55
754.828	3933.47
755.012	3915.03
755.196	3677.47
755.38	3837.21
755.564	3679.52
755.748	3607.84
755.932	3849.5
756.116	3726.62
756.3	3652.89
756.484	3593.5
756.668	3638.56
756.852	3394.85
757.036	3478.82
757.22	3351.84
757.404	3542.3
757.588	3360.03
757.772	3507.49
757.956	3427.62
758.14	3378.47
758.323	3310.88
758.507	3423.52
758.691	3288.36
758.875	3294.5
759.059	3325.22
759.242	3276.07
759.426	3132.71
759.61	3190.05
759.794	3198.24
759.977	3241.25
760.161	3198.24
760.345	3171.62
760.528	3099.94
760.712	3034.41
760.895	3007.78
761.079	2950.44
761.263	2911.53
761.446	3001.64
761.63	3030.31
761.813	2940.2
761.997	2829.61
762.18	2917.67
762.364	2946.34
762.547	2876.71
762.731	2925.86
762.914	2764.08
763.098	2874.67
763.281	2786.6
763.464	2759.98
763.648	2745.64
763.831	2796.84
764.015	2723.12
764.198	2819.37
764.381	2714.92
764.564	2805.03
764.748	2639.15
764.931	2747.69
765.114	2698.54
765.297	2653.48
765.481	2757.93
765.664	2643.24
765.847	2778.41
766.03	2573.61
766.213	2546.99
766.397	2612.53
766.58	2450.74
766.763	2624.81
766.946	2444.59
767.129	2395.44
767.312	2403.63
767.495	2477.36
767.678	2411.82
767.861	2479.41
768.044	2479.41
768.227	2295.09
768.41	2360.63
768.593	2420.02
768.776	2450.74
768.959	2354.48
769.142	2366.77
769.324	2305.33
769.507	2428.21
769.69	2209.08
769.873	2221.36
770.056	2329.91
770.239	2297.14
770.421	2239.8
770.604	2180.4
770.787	2258.23
770.97	2278.71
771.152	2010.42
771.335	2237.75
771.518	2106.68
771.7	2166.07
771.883	2170.16
772.066	2114.87
772.248	2055.48
772.431	2123.06
772.613	2174.26
772.796	2159.92
772.978	2055.48
773.161	2172.21
773.343	2018.61
773.526	2057.53
773.708	1926.46
773.891	1875.26
774.073	2028.85
774.256	1948.98
774.438	1926.46
774.621	1912.12
774.803	1959.22
774.985	1807.67
775.168	1914.17
775.35	1895.74
775.532	1957.18
775.715	1834.3
775.897	1828.15
776.079	1779
776.261	1908.02
776.444	1826.11
776.626	1727.8
776.808	1826.11
776.99	1807.67
777.173	1686.84
777.355	1748.28
777.537	1680.7
777.719	1770.81
777.901	1582.4
778.083	1559.87
778.265	1559.87
778.447	1617.21
778.629	1609.02
778.811	1637.69
778.993	1635.64
779.175	1590.59
779.357	1586.49
779.539	1436.99
779.721	1535.29
779.903	1477.95
780.085	1527.1
780.267	1420.61
780.449	1469.76
780.631	1451.33
780.812	1496.38
780.994	1449.28
781.176	1488.19
781.358	1426.75
781.54	1310.02
781.721	1420.61
781.903	1389.89
782.085	1369.41
782.267	1365.31
782.448	1342.78
782.63	1355.07
782.812	1273.15
782.993	1314.11
783.175	1326.4
783.357	1224
783.538	1387.84
783.72	1199.43
783.901	1156.42
784.083	1277.25
784.264	1256.77
784.446	1146.18
784.627	1133.89
784.809	1125.7
784.99	1170.76
785.172	1201.47
785.353	1129.8
785.535	1156.42
785.716	1058.12
785.897	1133.89
786.079	1088.84
786.26	1187.14
786.441	1047.88
786.623	1068.36
786.804	1035.59
786.985	1027.4
787.167	1099.08
787.348	1043.78
787.529	1162.56
787.71	1049.93
787.891	933.19
788.073	947.53
788.254	976.2
788.435	1099.08
788.616	998.73
788.797	929.1
788.978	1019.21
789.159	925
789.34	918.86
789.522	884.04
789.703	847.18
789.884	939.33
790.065	929.1
790.246	986.44
790.427	865.61
790.607	951.62
790.788	818.5
790.969	822.6
791.15	826.7
791.331	845.13
791.512	765.26
791.693	781.64
791.874	818.5
792.054	820.55
792.235	877.9
792.416	798.03
792.597	789.83
792.778	843.08
792.958	884.04
793.139	853.32
793.32	818.5
793.5	722.25
793.681	869.7
793.862	795.98
794.042	714.06
794.223	787.79
794.404	781.64
794.584	699.72
794.765	716.11
794.945	755.02
795.126	785.74
795.306	838.98
795.487	705.87
795.667	703.82
795.848	724.3
796.028	726.35
796.209	687.43
796.389	785.74
796.57	740.68
796.75	683.34
796.93	718.15
797.111	648.52
797.291	650.57
797.471	740.68
797.652	623.95
797.832	693.58
798.012	738.63
798.192	578.89
798.373	642.38
798.553	615.76
798.733	654.67
798.913	607.56
799.093	681.29
799.274	693.58
799.454	552.27
799.634	699.72
799.814	679.24
799.994	656.72
800.174	679.24
800.354	638.28
800.534	564.56
800.714	595.28
800.894	572.75
801.074	568.65
801.254	517.45
801.434	585.04
801.614	617.8
801.794	564.56
801.974	1383.74
802.154	572.75
802.334	554.32
802.514	525.65
802.693	550.22
802.873	519.5
803.053	597.32
803.233	640.33
803.413	572.75
803.592	519.5
803.772	484.69
803.952	599.37
804.131	486.73
804.311	525.65
804.491	529.74
804.67	519.5
804.85	539.98
805.03	576.84
805.209	509.26
805.389	519.5
805.568	494.93
805.748	566.6
805.928	535.89
806.107	546.12
806.287	513.36
806.466	523.6
806.646	490.83
806.825	453.97
807.004	427.34
807.184	367.95
807.363	496.97
807.543	453.97
807.722	408.91
807.901	490.83
808.081	347.47
808.26	460.11
808.439	406.86
808.619	466.25
808.798	413.01
808.977	494.93
809.156	523.6
809.336	472.4
809.515	337.23
809.694	361.81
809.873	443.73
810.052	386.38
810.231	451.92
810.411	429.39
810.59	451.92
810.769	484.69
810.948	359.76
811.127	329.04
811.306	372.05
811.485	380.24
811.664	406.86
811.843	374.1
812.022	435.53
812.201	345.42
812.38	435.53
812.559	396.62
812.737	394.58
812.916	294.22
813.095	253.27
813.274	410.96
813.453	363.86
813.632	388.43
813.811	449.87
813.989	230.74
814.168	372.05
814.347	357.71
814.526	302.42
814.704	370
814.883	392.53
815.062	357.71
815.24	310.61
815.419	398.67
815.598	339.28
815.776	337.23
815.955	337.23
816.133	306.51
816.312	343.38
816.49	337.23
816.669	292.18
816.847	406.86
817.026	339.28
817.204	357.71
817.383	232.79
817.561	347.47
817.74	410.96
817.918	351.57
818.097	384.34
818.275	224.59
818.453	388.43
818.632	281.94
818.81	302.42
818.988	273.75
819.167	326.99
819.345	322.9
819.523	279.89
819.701	318.8
819.879	320.85
820.058	228.69
820.236	300.37
820.414	329.04
820.592	216.4
820.77	226.64
820.948	306.51
821.127	288.08
821.305	259.41
821.483	210.26
821.661	267.6
821.839	279.89
822.017	343.38
822.195	286.03
822.373	255.31
822.551	271.7
822.729	273.75
822.907	298.32
823.085	310.61
823.262	167.25
823.44	234.83
823.618	265.55
823.796	234.83
823.974	304.46
824.152	230.74
824.329	224.59
824.507	240.98
824.685	240.98
824.863	202.07
825.04	243.03
825.218	329.04
825.396	240.98
825.574	263.51
825.751	243.03
825.929	216.4
826.107	189.78
826.284	183.63
826.462	245.07
826.639	230.74
826.817	232.79
826.994	247.12
827.172	245.07
827.349	243.03
827.527	228.69
827.704	224.59
827.882	150.87
828.059	261.46
828.237	318.8
828.414	296.27
828.591	152.91
828.769	216.4
828.946	189.78
829.124	288.08
829.301	208.21
829.478	187.73
829.655	204.11
829.833	210.26
830.01	150.87
830.187	202.07
830.364	134.48
830.542	165.2
830.719	318.8
830.896	189.78
831.073	159.06
831.25	251.22
831.427	122.2
831.604	146.77
831.782	187.73
831.959	212.31
832.136	197.97
832.313	148.82
832.49	208.21
832.667	212.31
832.844	150.87
833.021	261.46
833.198	173.39
833.374	140.63
833.551	163.15
833.728	144.72
833.905	154.96
834.082	191.83
834.259	163.15
834.436	240.98
834.612	163.15
834.789	222.55
834.966	154.96
835.143	208.21
835.319	169.3
835.496	183.63
835.673	107.86
835.85	224.59
836.026	142.68
836.203	173.39
836.38	165.2
836.556	169.3
836.733	159.06
836.909	224.59
837.086	163.15
837.262	75.09
837.439	126.29
837.616	91.48
837.792	128.34
837.968	202.07
838.145	124.24
838.321	97.62
838.498	179.54
838.674	68.95
838.851	73.04
839.027	93.52
839.203	77.14
839.38	132.44
839.556	89.43
839.732	150.87
839.909	118.1
840.085	114
840.261	93.52
840.437	50.52
840.614	87.38
840.79	159.06
840.966	146.77
841.142	167.25
841.318	101.72
841.494	52.56
841.671	175.44
841.847	144.72
842.023	109.91
842.199	122.2
842.375	60.76
842.551	124.24
842.727	48.47
842.903	159.06
843.079	56.66
843.255	120.15
843.431	114
843.607	169.3
843.783	54.61
843.959	136.53
844.134	85.33
844.31	54.61
844.486	152.91
844.662	79.19
844.838	60.76
845.013	109.91
845.189	154.96
845.365	152.91
845.541	85.33
845.716	124.24
845.892	99.67
846.068	109.91
846.244	73.04
846.419	89.43
846.595	111.96
846.77	-0.68
846.946	200.02
847.122	34.13
847.297	77.14
847.473	130.39
847.648	27.99
847.824	68.95
847.999	11.61
848.175	73.04
848.35	150.87
848.526	107.86
848.701	150.87
848.876	73.04
849.052	56.66
849.227	81.24
849.403	109.91
849.578	109.91
849.753	118.1
849.929	85.33
850.104	32.08
850.279	50.52
850.454	50.52
850.63	161.11
850.805	95.57
850.98	118.1
851.155	87.38
851.33	111.96
851.505	52.56
851.681	116.05
851.856	83.28
852.031	120.15
852.206	32.08
852.381	120.15
852.556	97.62
852.731	85.33
852.906	66.9
853.081	114
853.256	5.46
853.431	75.09
853.606	56.66
853.781	81.24
853.956	27.99
854.131	25.94
854.305	52.56
854.48	85.33
854.655	36.18
854.83	-35.5
855.005	-4.78
855.18	52.56
855.354	95.57
855.529	56.66
855.704	60.76
855.879	89.43
856.053	9.56
856.228	68.95
856.403	7.51
856.577	97.62
856.752	-15.02
856.926	36.18
857.101	75.09
857.276	-2.73
857.45	77.14
857.625	60.76
857.799	42.32
857.974	-15.02
858.148	44.37
858.323	52.56
858.497	21.84
858.672	21.84
858.846	60.76
859.02	48.47
859.195	32.08
859.369	60.76
859.543	93.52
859.718	73.04
859.892	114
860.066	17.75
860.241	15.7
860.415	85.33
860.589	42.32
860.763	30.04
860.938	-6.83
861.112	38.23
861.286	44.37
861.46	101.72
861.634	77.14
861.808	99.67
861.982	-0.68
862.157	27.99
862.331	7.51
862.505	40.28
862.679	36.18
862.853	9.56
863.027	-39.59
863.201	19.8
863.375	27.99
863.549	-39.59
863.722	-0.68
863.896	36.18
864.07	-37.55
864.244	52.56
864.418	99.67
864.592	64.85
864.766	107.86
864.939	46.42
865.113	30.04
865.287	83.28
865.461	60.76
865.634	52.56
865.808	46.42
865.982	30.04
866.156	21.84
866.329	64.85
866.503	64.85
866.676	32.08
866.85	3.41
867.024	-19.11
867.197	44.37
867.371	17.75
867.544	-10.92
867.718	-31.4
867.891	3.41
868.065	36.18
868.238	-15.02
868.412	79.19
868.585	38.23
868.759	-2.73
868.932	9.56
869.105	-37.55
869.279	30.04
869.452	17.75
869.625	11.61
869.799	-6.83
869.972	71
870.145	11.61
870.319	107.86
870.492	34.13
870.665	3.41
870.838	-45.74
871.011	-55.98
871.185	56.66
871.358	-12.97
871.531	-15.02
871.704	7.51
871.877	-6.83
872.05	56.66
872.223	36.18
872.396	85.33
872.569	73.04
872.742	-53.93
872.915	46.42
873.088	36.18
873.261	17.75
873.434	15.7
873.607	21.84
873.78	48.47
873.953	3.41
874.126	-2.73
874.299	114
874.471	-4.78
874.644	66.9
874.817	13.65
874.99	17.75
875.163	27.99
875.335	15.7
875.508	27.99
875.681	-12.97
875.853	36.18
876.026	15.7
876.199	34.13
876.371	15.7
876.544	50.52
876.717	11.61
876.889	87.38
877.062	-0.68
877.234	-66.22
877.407	11.61
877.579	36.18
877.752	34.13
877.924	68.95
878.097	-60.07
878.269	-12.97
878.442	-0.68
878.614	32.08
878.786	77.14
878.959	11.61
879.131	27.99
879.303	-12.97
879.476	19.8
879.648	44.37
879.82	-4.78
879.993	-29.35
880.165	-23.21
880.337	-12.97
880.509	7.51
880.681	-4.78
880.854	-55.98
881.026	50.52
881.198	99.67
881.37	-64.17
881.542	27.99
881.714	27.99
881.886	56.66
882.058	-23.21
882.23	-6.83
882.402	83.28
882.574	42.32
882.746	13.65
882.918	62.8
883.09	27.99
883.262	75.09
883.434	1.37
883.606	21.84
883.778	25.94
883.95	99.67
884.122	42.32
884.293	-39.59
884.465	81.24
884.637	15.7
884.809	1.37
884.98	-2.73
885.152	34.13
885.324	124.24
885.496	52.56
885.667	-70.31
885.839	-47.79
886.011	105.81
886.182	-31.4
886.354	27.99
886.525	15.7
886.697	62.8
886.869	42.32
887.04	19.8
887.212	32.08
887.383	40.28
887.555	-10.92
887.726	-62.12
887.897	27.99
888.069	73.04
888.24	66.9
888.412	-49.83
888.583	32.08
888.754	11.61
888.926	-49.83
889.097	-15.02
889.268	-70.31
889.44	15.7
889.611	-47.79
889.782	-53.93
889.953	-25.26
890.125	36.18
890.296	-17.07
890.467	-15.02
890.638	-41.64
890.809	-12.97
890.98	-74.41
891.151	-12.97
891.323	85.33
891.494	-17.07
891.665	-45.74
891.836	30.04
892.007	-29.35
892.178	27.99
892.349	-4.78
892.52	36.18
892.691	-6.83
892.862	25.94
893.032	-41.64
893.203	-6.83
893.374	-21.16
893.545	17.75
893.716	19.8
893.887	32.08
894.057	-94.89
894.228	-19.11
894.399	-53.93
894.57	15.7
894.74	15.7
894.911	34.13
895.082	44.37
895.253	-12.97
895.423	46.42
895.594	-21.16
895.764	-27.31
895.935	-33.45
896.106	11.61
896.276	-41.64
896.447	-70.31
896.617	17.75
896.788	-29.35
896.958	-33.45
897.129	58.71
897.299	3.41
897.47	75.09
897.64	-17.07
897.81	-21.16
897.981	36.18
898.151	-41.64
898.322	-70.31
898.492	68.95
898.662	-12.97
898.832	-8.87
899.003	11.61
899.173	56.66
899.343	27.99
899.513	-53.93
