Data from USB4F104151__40__11-30-20-113.txt Node

Date: Fri Mar 14 11:30:20 EDT 2025
User: louis
Spectrometer: USB4F10415
Trigger mode: 4
Integration Time (sec): 5.000000E-2
Scans to average: 1
Electric dark correction enabled: true
Nonlinearity correction enabled: false
Boxcar width: 0
XAxis mode: Wavelengths
Number of Pixels in Spectrum: 3648
>>>>>Begin Spectral Data<<<<<
178.204	-148.14
178.424	-148.14
178.644	-148.14
178.864	-156.33
179.084	-127.66
179.304	-17.07
179.524	9.56
179.744	-12.97
179.964	-27.31
180.184	21.85
180.404	9.56
180.624	34.13
180.844	27.99
181.064	-15.02
181.283	19.8
181.503	-90.79
181.723	40.28
181.943	-92.84
182.163	36.18
182.383	19.8
182.602	81.24
182.822	60.76
183.042	81.24
183.262	-60.07
183.482	-74.41
183.701	-23.21
183.921	15.7
184.141	-53.93
184.361	95.57
184.58	15.7
184.8	-8.87
185.02	3.41
185.239	68.95
185.459	3.41
185.679	27.99
185.898	-74.41
186.118	27.99
186.338	-29.35
186.557	85.33
186.777	-4.78
186.997	-4.78
187.216	-33.45
187.436	66.9
187.655	75.09
187.875	93.52
188.095	21.85
188.314	134.48
188.534	107.86
188.753	-23.21
188.973	66.9
189.192	118.1
189.412	77.14
189.631	46.42
189.851	38.23
190.07	52.56
190.29	3.41
190.509	34.13
190.729	32.08
190.948	11.61
191.168	130.39
191.387	40.28
191.607	27.99
191.826	40.28
192.045	38.23
192.265	-15.02
192.484	17.75
192.704	-8.87
192.923	-4.78
193.142	99.67
193.362	56.66
193.581	7.51
193.8	81.24
194.02	60.76
194.239	7.51
194.458	58.71
194.678	13.65
194.897	-12.97
195.116	-0.68
195.335	62.8
195.555	11.61
195.774	9.56
195.993	11.61
196.212	1.37
196.432	36.18
196.651	9.56
196.87	25.94
197.089	71
197.308	60.76
197.528	9.56
197.747	-6.83
197.966	46.42
198.185	19.8
198.404	-8.87
198.623	60.76
198.842	56.66
199.062	50.52
199.281	87.38
199.5	-15.02
199.719	77.14
199.938	-35.5
200.157	60.76
200.376	27.99
200.595	13.65
200.814	-27.31
201.033	-29.35
201.252	-35.5
201.471	-8.87
201.69	32.08
201.909	11.61
202.128	11.61
202.347	60.76
202.566	-37.55
202.785	-37.55
203.004	52.56
203.223	36.18
203.442	60.76
203.661	19.8
203.879	-23.21
204.098	9.56
204.317	46.42
204.536	-19.11
204.755	27.99
204.974	36.18
205.193	85.33
205.411	58.71
205.63	15.7
205.849	27.99
206.068	-6.83
206.287	44.37
206.505	36.18
206.724	101.72
206.943	17.75
207.162	-25.26
207.381	36.18
207.599	77.14
207.818	36.18
208.037	-41.64
208.255	-33.45
208.474	38.23
208.693	23.89
208.911	-39.59
209.13	38.23
209.349	68.95
209.567	60.76
209.786	42.32
210.005	124.24
210.223	-12.97
210.442	-47.79
210.661	50.52
210.879	7.51
211.098	25.94
211.316	71
211.535	11.61
211.753	-37.55
211.972	85.33
212.191	44.37
212.409	44.37
212.628	15.7
212.846	-4.78
213.065	60.76
213.283	118.1
213.502	-33.45
213.72	-33.45
213.938	25.94
214.157	60.76
214.375	-12.97
214.594	-25.26
214.812	42.32
215.031	75.09
215.249	25.94
215.467	34.13
215.686	-25.26
215.904	75.09
216.122	-25.26
216.341	89.43
216.559	36.18
216.778	1.37
216.996	-4.78
217.214	19.8
217.432	66.9
217.651	46.42
217.869	-64.17
218.087	11.61
218.306	34.13
218.524	83.28
218.742	-17.07
218.96	-4.78
219.179	52.56
219.397	60.76
219.615	44.37
219.833	19.8
220.051	-45.74
220.27	64.85
220.488	75.09
220.706	-23.21
220.924	27.99
221.142	-39.59
221.36	97.62
221.578	15.7
221.796	30.04
222.015	1.37
222.233	23.89
222.451	93.52
222.669	-76.46
222.887	-29.35
223.105	-15.02
223.323	11.61
223.541	-35.5
223.759	17.75
223.977	27.99
224.195	58.71
224.413	9.56
224.631	32.08
224.849	15.7
225.067	81.24
225.285	-35.5
225.503	-8.87
225.721	40.28
225.939	3.41
226.157	-29.35
226.375	189.78
226.592	7.51
226.81	5.46
227.028	36.18
227.246	42.32
227.464	-33.45
227.682	99.67
227.9	5.46
228.117	1.37
228.335	27.99
228.553	23.89
228.771	-0.68
228.989	-8.87
229.206	19.8
229.424	21.85
229.642	15.7
229.86	-80.55
230.077	13.65
230.295	-45.74
230.513	38.23
230.731	17.75
230.948	75.09
231.166	99.67
231.384	56.66
231.601	5.46
231.819	68.95
232.037	48.47
232.254	-49.83
232.472	-4.78
232.689	-12.97
232.907	42.32
233.125	68.95
233.342	-4.78
233.56	11.61
233.777	48.47
233.995	-17.07
234.213	81.24
234.43	27.99
234.648	-66.22
234.865	27.99
235.083	32.08
235.3	9.56
235.518	-21.16
235.735	23.89
235.953	81.24
236.17	30.04
236.388	-4.78
236.605	46.42
236.822	58.71
237.04	50.52
237.257	-12.97
237.475	-25.26
237.692	50.52
237.909	71
238.127	-29.35
238.344	93.52
238.562	-66.22
238.779	-47.79
238.996	17.75
239.214	30.04
239.431	27.99
239.648	-4.78
239.865	-23.21
240.083	19.8
240.3	60.76
240.517	-17.07
240.735	-8.87
240.952	89.43
241.169	19.8
241.386	15.7
241.603	15.7
241.821	-35.5
242.038	157.01
242.255	25.94
242.472	-68.27
242.689	64.85
242.907	27.99
243.124	11.61
243.341	3.41
243.558	7.51
243.775	-27.31
243.992	-25.26
244.209	27.99
244.426	58.71
244.643	-6.83
244.86	-4.78
245.078	3.41
245.295	-25.26
245.512	5.46
245.729	52.56
245.946	38.23
246.163	5.46
246.38	-15.02
246.597	1.37
246.814	44.37
247.031	50.52
247.248	42.32
247.464	27.99
247.681	32.08
247.898	62.8
248.115	56.66
248.332	-23.21
248.549	116.05
248.766	60.76
248.983	36.18
249.2	3.41
249.417	-6.83
249.633	-0.68
249.85	36.18
250.067	-6.83
250.284	44.37
250.501	-103.08
250.717	122.2
250.934	-17.07
251.151	15.7
251.368	-12.97
251.585	-12.97
251.801	-8.87
252.018	-45.74
252.235	56.66
252.451	-25.26
252.668	46.42
252.885	95.57
253.102	48.47
253.318	60.76
253.535	32.08
253.752	9.56
253.968	-47.79
254.185	-45.74
254.401	11.61
254.618	9.56
254.835	-2.73
255.051	52.56
255.268	-4.78
255.484	15.7
255.701	40.28
255.917	21.85
256.134	5.46
256.351	23.89
256.567	-31.4
256.784	-21.16
257	15.7
257.217	42.32
257.433	32.08
257.65	3.41
257.866	-23.21
258.082	34.13
258.299	5.46
258.515	7.51
258.732	-8.87
258.948	-4.78
259.165	-41.64
259.381	-25.26
259.597	17.75
259.814	-64.17
260.03	11.61
260.246	-41.64
260.463	89.43
260.679	114
260.895	66.9
261.112	-12.97
261.328	44.37
261.544	17.75
261.761	87.38
261.977	9.56
262.193	-37.55
262.409	1.37
262.626	36.18
262.842	44.37
263.058	-19.11
263.274	46.42
263.49	-8.87
263.707	27.99
263.923	64.85
264.139	-37.55
264.355	46.42
264.571	89.43
264.787	7.51
265.004	91.48
265.22	1.37
265.436	-12.97
265.652	36.18
265.868	42.32
266.084	52.56
266.3	68.95
266.516	-45.74
266.732	-78.51
266.948	11.61
267.164	19.8
267.38	-12.97
267.596	-23.21
267.812	66.9
268.028	-35.5
268.244	40.28
268.46	40.28
268.676	-21.16
268.892	36.18
269.108	7.51
269.324	40.28
269.54	23.89
269.756	42.32
269.972	-92.84
270.188	50.52
270.403	-66.22
270.619	27.99
270.835	44.37
271.051	-12.97
271.267	-33.45
271.483	3.41
271.698	44.37
271.914	25.94
272.13	13.65
272.346	30.04
272.562	23.89
272.777	9.56
272.993	-2.73
273.209	42.32
273.425	40.28
273.64	-64.17
273.856	-29.35
274.072	27.99
274.287	-21.16
274.503	77.14
274.719	79.19
274.934	60.76
275.15	3.41
275.366	-12.97
275.581	36.18
275.797	15.7
276.012	34.13
276.228	36.18
276.444	3.41
276.659	32.08
276.875	3.41
277.09	40.28
277.306	-31.4
277.521	5.46
277.737	77.14
277.952	9.56
278.168	3.41
278.383	36.18
278.599	-21.16
278.814	7.51
279.03	36.18
279.245	36.18
279.461	25.94
279.676	44.37
279.892	17.75
280.107	-6.83
280.322	-60.07
280.538	5.46
280.753	-21.16
280.969	19.8
281.184	15.7
281.399	132.44
281.615	56.66
281.83	81.24
282.045	-6.83
282.26	60.76
282.476	93.52
282.691	83.28
282.906	15.7
283.122	-23.21
283.337	-12.97
283.552	11.61
283.767	46.42
283.983	-4.78
284.198	27.99
284.413	-8.87
284.628	-74.41
284.843	-6.83
285.058	81.24
285.274	19.8
285.489	-12.97
285.704	19.8
285.919	9.56
286.134	27.99
286.349	-12.97
286.564	103.76
286.779	25.94
286.995	34.13
287.21	-35.5
287.425	-12.97
287.64	-15.02
287.855	25.94
288.07	7.51
288.285	32.08
288.5	52.56
288.715	17.75
288.93	124.24
289.145	-21.16
289.36	60.76
289.575	134.48
289.79	19.8
290.004	-2.73
290.219	48.47
290.434	-12.97
290.649	-64.17
290.864	-4.78
291.079	32.08
291.294	-21.16
291.509	52.56
291.724	66.9
291.938	50.52
292.153	7.51
292.368	-51.88
292.583	71
292.798	60.76
293.012	19.8
293.227	21.85
293.442	60.76
293.657	11.61
293.871	40.28
294.086	-23.21
294.301	-4.78
294.516	60.76
294.73	-62.12
294.945	11.61
295.16	15.7
295.374	66.9
295.589	126.29
295.804	11.61
296.018	11.61
296.233	52.56
296.447	-4.78
296.662	42.32
296.877	85.33
297.091	81.24
297.306	56.66
297.52	19.8
297.735	7.51
297.949	-17.07
298.164	-4.78
298.378	15.7
298.593	-8.87
298.807	48.47
299.022	-29.35
299.236	34.13
299.451	-25.26
299.665	9.56
299.88	46.42
300.094	-0.68
300.309	-58.03
300.523	-4.78
300.737	-31.4
300.952	48.47
301.166	-23.21
301.381	38.23
301.595	-39.59
301.809	15.7
302.024	64.85
302.238	48.47
302.452	87.38
302.667	3.41
302.881	50.52
303.095	15.7
303.309	21.85
303.524	40.28
303.738	48.47
303.952	11.61
304.166	122.2
304.381	-121.51
304.595	66.9
304.809	-33.45
305.023	52.56
305.237	-4.78
305.452	50.52
305.666	5.46
305.88	48.47
306.094	109.91
306.308	32.08
306.522	101.72
306.736	44.37
306.95	-25.26
307.164	42.32
307.379	44.37
307.593	105.81
307.807	3.41
308.021	91.48
308.235	66.9
308.449	-15.02
308.663	11.61
308.877	79.19
309.091	19.8
309.305	44.37
309.519	-21.16
309.733	77.14
309.947	-6.83
310.161	58.71
310.374	-4.78
310.588	60.76
310.802	-23.21
311.016	52.56
311.23	-4.78
311.444	44.37
311.658	50.52
311.872	85.33
312.085	52.56
312.299	-10.92
312.513	101.72
312.727	19.8
312.941	-62.12
313.154	89.43
313.368	17.75
313.582	-8.87
313.796	44.37
314.009	-41.64
314.223	66.9
314.437	17.75
314.651	40.28
314.864	52.56
315.078	-12.97
315.292	-33.45
315.505	11.61
315.719	-0.68
315.933	-27.31
316.146	32.08
316.36	-8.87
316.573	83.28
316.787	-15.02
317.001	3.41
317.214	-21.16
317.428	50.52
317.641	-37.55
317.855	-21.16
318.068	-31.4
318.282	38.23
318.495	44.37
318.709	85.33
318.922	34.13
319.136	71
319.349	64.85
319.563	19.8
319.776	-0.68
319.99	-66.22
320.203	66.9
320.417	-0.68
320.63	13.65
320.843	77.14
321.057	-33.45
321.27	-4.78
321.483	81.24
321.697	19.8
321.91	44.37
322.124	93.52
322.337	93.52
322.55	-31.4
322.763	52.56
322.977	7.51
323.19	-53.93
323.403	-21.16
323.617	-29.35
323.83	-17.07
324.043	66.9
324.256	50.52
324.469	-4.78
324.683	77.14
324.896	-29.35
325.109	77.14
325.322	40.28
325.535	83.28
325.748	64.85
325.962	-29.35
326.175	19.8
326.388	81.24
326.601	73.04
326.814	-15.02
327.027	-15.02
327.24	144.72
327.453	-62.12
327.666	15.7
327.879	97.62
328.092	58.71
328.305	9.56
328.518	62.8
328.731	40.28
328.944	-72.36
329.157	27.99
329.37	-78.51
329.583	56.66
329.796	23.89
330.009	-27.31
330.222	25.94
330.435	60.76
330.648	-55.98
330.861	9.56
331.073	64.85
331.286	32.08
331.499	23.89
331.712	21.85
331.925	58.71
332.138	58.71
332.35	60.76
332.563	11.61
332.776	-12.97
332.989	11.61
333.202	9.56
333.414	15.7
333.627	11.61
333.84	-4.78
334.053	27.99
334.265	-60.07
334.478	23.89
334.691	-33.45
334.903	101.72
335.116	71
335.329	-31.4
335.541	-0.68
335.754	48.47
335.966	-25.26
336.179	-33.45
336.392	9.56
336.604	-4.78
336.817	19.8
337.029	9.56
337.242	1.37
337.454	7.51
337.667	66.9
337.88	19.8
338.092	62.8
338.305	52.56
338.517	44.37
338.729	17.75
338.942	52.56
339.154	-27.31
339.367	-10.92
339.579	101.72
339.792	95.57
340.004	60.76
340.217	60.76
340.429	9.56
340.641	54.61
340.854	58.71
341.066	19.8
341.278	44.37
341.491	42.32
341.703	-21.16
341.915	5.46
342.128	-51.88
342.34	5.46
342.552	-53.93
342.764	27.99
342.977	101.72
343.189	44.37
343.401	25.94
343.613	30.04
343.826	32.08
344.038	19.8
344.25	7.51
344.462	71
344.674	42.32
344.886	44.37
345.099	19.8
345.311	34.13
345.523	-43.69
345.735	-64.17
345.947	44.37
346.159	-31.4
346.371	-4.78
346.583	50.52
346.795	97.62
347.007	-21.16
347.219	11.61
347.431	68.95
347.643	44.37
347.855	34.13
348.067	77.14
348.279	52.56
348.491	5.46
348.703	101.72
348.915	42.32
349.127	-0.68
349.339	44.37
349.551	38.23
349.763	42.32
349.975	27.99
350.187	81.24
350.399	-4.78
350.61	-10.92
350.822	-21.16
351.034	91.48
351.246	15.7
351.458	58.71
351.669	42.32
351.881	101.72
352.093	44.37
352.305	58.71
352.517	36.18
352.728	-23.21
352.94	27.99
353.152	27.99
353.363	27.99
353.575	75.09
353.787	97.62
353.999	1.37
354.21	5.46
354.422	-41.64
354.633	50.52
354.845	-10.92
355.057	-12.97
355.268	97.62
355.48	77.14
355.692	30.04
355.903	15.7
356.115	-39.59
356.326	-17.07
356.538	56.66
356.749	-25.26
356.961	75.09
357.172	11.61
357.384	-41.64
357.595	77.14
357.807	50.52
358.018	34.13
358.23	-21.16
358.441	52.56
358.653	68.95
358.864	36.18
359.075	81.24
359.287	5.46
359.498	-23.21
359.709	42.32
359.921	66.9
360.132	15.7
360.344	32.08
360.555	15.7
360.766	19.8
360.977	-10.92
361.189	60.76
361.4	17.75
361.611	44.37
361.823	1.37
362.034	15.7
362.245	-25.26
362.456	60.76
362.667	81.24
362.879	30.04
363.09	52.56
363.301	56.66
363.512	23.89
363.723	-23.21
363.935	-15.02
364.146	60.76
364.357	30.04
364.568	48.47
364.779	-15.02
364.99	27.99
365.201	-37.55
365.412	32.08
365.623	27.99
365.834	-8.87
366.045	30.04
366.256	75.09
366.467	52.56
366.678	42.32
366.889	52.56
367.1	107.86
367.311	40.28
367.522	3.41
367.733	83.28
367.944	52.56
368.155	-12.97
368.366	42.32
368.577	54.61
368.788	62.8
368.999	-29.35
369.209	-6.83
369.42	44.37
369.631	154.96
369.842	36.18
370.053	93.52
370.264	101.72
370.474	23.89
370.685	-33.45
370.896	46.42
371.107	21.85
371.317	36.18
371.528	30.04
371.739	50.52
371.95	1.37
372.16	58.71
372.371	-23.21
372.582	44.37
372.792	44.37
373.003	32.08
373.214	46.42
373.424	81.24
373.635	17.75
373.846	23.89
374.056	19.8
374.267	52.56
374.477	60.76
374.688	19.8
374.898	19.8
375.109	99.67
375.319	27.99
375.53	118.1
375.74	60.76
375.951	44.37
376.161	40.28
376.372	64.85
376.582	36.18
376.793	27.99
377.003	13.65
377.214	109.91
377.424	46.42
377.635	25.94
377.845	23.89
378.055	109.91
378.266	-10.92
378.476	9.56
378.686	-4.78
378.897	30.04
379.107	-4.78
379.317	-15.02
379.528	38.23
379.738	64.85
379.948	30.04
380.158	64.85
380.369	19.8
380.579	68.95
380.789	9.56
380.999	93.52
381.21	-0.68
381.42	157.01
381.63	50.52
381.84	58.71
382.05	3.41
382.261	68.95
382.471	118.1
382.681	75.09
382.891	118.1
383.101	71
383.311	-66.22
383.521	42.32
383.731	23.89
383.941	34.13
384.151	17.75
384.361	-41.64
384.571	83.28
384.781	36.18
384.991	107.86
385.201	85.33
385.411	68.95
385.621	68.95
385.831	23.89
386.041	50.52
386.251	11.61
386.461	122.2
386.671	19.8
386.881	11.61
387.091	-8.87
387.301	68.95
387.511	81.24
387.72	52.56
387.93	118.1
388.14	77.14
388.35	54.61
388.56	107.86
388.769	73.04
388.979	52.56
389.189	-19.11
389.399	-8.87
389.609	79.19
389.818	52.56
390.028	52.56
390.238	81.24
390.447	27.99
390.657	93.52
390.867	17.75
391.076	36.18
391.286	30.04
391.496	83.28
391.705	5.46
391.915	25.94
392.125	118.1
392.334	32.08
392.544	126.29
392.753	9.56
392.963	91.48
393.172	134.48
393.382	3.41
393.591	54.61
393.801	23.89
394.01	85.33
394.22	77.14
394.429	60.76
394.639	40.28
394.848	89.43
395.058	52.56
395.267	64.85
395.477	36.18
395.686	66.9
395.895	138.58
396.105	75.09
396.314	101.72
396.524	83.28
396.733	17.75
396.942	58.71
397.152	97.62
397.361	71
397.57	-6.83
397.78	44.37
397.989	64.85
398.198	89.43
398.407	60.76
398.617	68.95
398.826	46.42
399.035	27.99
399.244	95.57
399.453	83.28
399.663	81.24
399.872	89.43
400.081	27.99
400.29	114
400.499	109.91
400.708	66.9
400.917	40.28
401.127	48.47
401.336	77.14
401.545	144.72
401.754	142.68
401.963	89.43
402.172	118.1
402.381	142.68
402.59	109.91
402.799	62.8
403.008	159.06
403.217	107.86
403.426	107.86
403.635	81.24
403.844	134.48
404.053	85.33
404.262	95.57
404.471	134.48
404.68	36.18
404.888	116.05
405.097	163.15
405.306	89.43
405.515	103.76
405.724	68.95
405.933	107.86
406.142	152.92
406.35	165.2
406.559	191.83
406.768	85.33
406.977	206.16
407.185	126.29
407.394	81.24
407.603	146.77
407.812	140.63
408.02	148.82
408.229	157.01
408.438	191.83
408.646	134.48
408.855	101.72
409.064	204.11
409.272	212.31
409.481	173.39
409.69	189.78
409.898	81.24
410.107	224.59
410.315	204.11
410.524	216.4
410.733	261.46
410.941	232.79
411.15	273.75
411.358	197.97
411.567	355.66
411.775	175.44
411.984	220.5
412.192	257.36
412.401	222.55
412.609	349.52
412.818	400.72
413.026	382.29
413.234	308.56
413.443	351.57
413.651	331.09
413.86	310.61
414.068	410.96
414.276	451.92
414.485	380.24
414.693	460.11
414.901	501.07
415.11	501.07
415.318	462.16
415.526	429.39
415.734	513.36
415.943	476.49
416.151	601.42
416.359	507.21
416.567	568.65
416.776	648.52
416.984	617.8
417.192	609.61
417.4	664.91
417.608	638.28
417.817	634.19
418.025	740.68
418.233	847.18
418.441	750.92
418.649	841.03
418.857	855.37
419.065	955.72
419.273	904.52
419.481	892.23
419.689	998.73
419.897	945.48
420.105	976.2
420.313	1068.36
420.521	1027.4
420.729	1105.22
420.937	1195.33
421.145	1219.91
421.353	1244.48
421.561	1346.88
421.769	1340.74
421.977	1338.69
422.185	1369.41
422.393	1457.47
422.601	1482.05
422.809	1473.85
423.017	1527.1
423.224	1633.6
423.432	1641.79
423.64	1631.55
423.848	1940.79
424.056	1801.53
424.263	1914.17
424.471	1848.63
424.679	1953.08
424.887	1948.98
425.094	2227.51
425.302	2153.78
425.51	2139.44
425.718	2352.43
425.925	2317.62
426.133	2321.71
426.341	2493.74
426.548	2585.9
426.756	2706.73
426.964	2665.77
427.171	2934.06
427.379	2895.15
427.586	2936.1
427.794	3079.46
428.001	3206.44
428.209	3312.93
428.417	3140.9
428.624	3386.66
428.832	3556.64
429.039	3501.34
429.247	3409.19
429.454	3894.55
429.662	3964.18
429.869	3771.68
430.076	4119.83
430.284	3931.42
430.491	4140.31
430.699	4341.01
430.906	4310.29
431.114	4324.63
431.321	4519.18
431.528	4607.25
431.736	4803.85
431.943	5197.06
432.15	5100.81
432.358	5082.38
432.565	5311.75
432.772	5295.36
432.979	5547.26
433.187	5627.14
433.394	5739.77
433.601	6180.09
433.808	6044.92
434.016	6110.46
434.223	6474.99
434.43	6860.01
434.637	6456.56
434.844	7130.34
435.052	7144.68
435.259	6913.26
435.466	7273.7
435.673	7073
435.88	7531.75
436.087	7990.49
436.294	7972.06
436.501	7884
436.708	7787.74
436.915	8355.03
437.122	8658.13
437.329	8457.43
437.537	8660.18
437.743	8967.37
437.95	8946.89
438.157	9297.1
438.364	9813.18
438.571	9637.06
438.778	9684.16
438.985	10579.12
439.192	10091.71
439.399	10501.3
439.606	10239.16
439.813	10945.71
440.02	11420.84
440.227	11349.16
440.433	11349.16
440.64	11730.08
440.847	11521.19
441.054	11750.56
441.261	12602.52
441.467	12477.59
441.674	12559.51
441.881	12975.25
442.088	13057.17
442.294	13085.84
442.501	13569.16
442.708	13538.44
442.914	14054.53
443.121	14865.52
443.328	14492.79
443.534	15311.98
443.741	15066.22
443.948	14851.19
444.154	15668.33
444.361	16104.54
444.568	15758.44
444.774	15901.79
444.981	15920.23
445.187	16417.88
445.394	17222.73
445.6	17040.47
445.807	18715.7
446.013	17792.07
446.22	18097.22
446.426	18705.46
446.633	19010.61
446.839	19565.61
447.046	18914.36
447.252	19907.62
447.459	19909.67
447.665	19594.28
447.871	20700.19
448.078	21404.69
448.284	20524.06
448.491	21054.48
448.697	21732.36
448.903	22354.94
449.11	21992.45
449.316	21830.66
449.522	22252.55
449.728	22651.9
449.935	22965.24
450.141	23186.42
450.347	23596.01
450.553	23161.84
450.76	23092.21
450.966	23612.4
451.172	23354.35
451.378	24421.34
451.584	23735.28
451.791	24361.95
451.997	24257.51
452.203	24669.15
452.409	24267.75
452.615	24384.48
452.821	23546.86
453.027	23071.73
453.233	24548.32
453.44	23159.8
453.646	23884.78
453.852	23833.58
454.058	24177.64
454.264	23495.66
454.47	23884.78
454.676	23374.83
454.882	24175.59
455.088	21916.68
455.294	22135.81
455.5	22940.66
455.705	22942.71
455.911	22035.46
456.117	21591.05
456.323	21179.41
456.529	19899.43
456.735	20775.96
456.941	20501.53
457.147	20233.25
457.352	19291.18
457.558	19082.29
457.764	19227.7
457.97	19074.1
458.176	18517.05
458.381	18375.74
458.587	17640.52
458.793	17570.89
458.999	16610.39
459.204	17747.01
459.41	17286.22
459.616	16204.89
459.821	16161.89
460.027	15944.8
460.233	15891.55
460.438	15185.01
460.644	15139.95
460.85	14486.65
461.055	14158.97
461.261	14011.52
461.466	13075.6
461.672	12668.05
461.878	13628.55
462.083	12625.04
462.289	12567.7
462.494	12317.85
462.7	11693.22
462.905	11343.02
463.111	11969.69
463.316	11795.62
463.522	11766.95
463.727	11676.84
463.932	11699.36
464.138	11381.93
464.343	11496.61
464.549	11250.86
464.754	11537.57
464.959	11459.75
465.165	11265.19
465.37	10880.18
465.575	10427.57
465.781	10945.71
465.986	11138.22
466.191	10591.41
466.397	10620.08
466.602	10104
466.807	10443.96
467.012	10267.83
467.218	10198.2
467.423	10065.08
467.628	10144.95
467.833	10482.87
468.038	10257.59
468.244	9903.29
468.449	10536.12
468.654	10112.19
468.859	9966.78
469.064	9829.57
469.269	9514.18
469.474	9577.67
469.679	9809.09
469.885	9526.47
470.09	9592
470.295	9819.33
470.5	9256.14
470.705	9393.35
470.91	9346.25
471.115	9082.06
471.32	9274.57
471.525	9075.91
471.73	9088.2
471.935	9024.72
472.139	8682.7
472.344	8629.46
472.549	8598.74
472.754	8580.31
472.959	8326.36
473.164	8082.65
473.369	8174.81
473.574	8475.86
473.778	8314.07
473.983	8258.78
474.188	8266.97
474.393	7914.72
474.598	7857.37
474.802	7683.3
475.007	7695.58
475.212	7754.98
475.417	7400.68
475.621	7359.72
475.826	7458.02
476.031	7400.68
476.235	6976.75
476.44	7214.31
476.645	7038.19
476.849	7193.83
477.054	6962.41
477.259	6980.84
477.463	6868.2
477.668	6880.49
477.872	6823.15
478.077	6683.89
478.282	6556.91
478.486	6481.14
478.691	6497.52
478.895	6462.71
479.1	6556.91
479.304	6507.76
479.509	6219
479.713	6259.96
479.918	6249.72
480.122	6204.66
480.326	6016.25
480.531	6171.9
480.735	5958.91
480.94	6245.62
481.144	6362.36
481.348	6001.91
481.553	6169.85
481.757	5897.47
481.961	6063.35
482.166	6237.43
482.37	5991.67
482.574	5850.36
482.778	5836.03
482.983	6096.12
483.187	5987.58
483.391	6182.14
483.595	5971.19
483.8	5971.19
484.004	6022.39
484.208	6077.69
484.412	6049.02
484.616	6153.46
484.821	5893.37
485.025	5782.78
485.229	5950.71
485.433	5891.32
485.637	5866.75
485.841	5846.27
486.045	5862.65
486.249	6028.54
486.453	5776.64
486.657	6008.06
486.861	5965.05
487.065	5719.29
487.269	5881.08
487.473	5623.04
487.677	6026.49
487.881	6108.41
488.085	5940.47
488.289	5985.53
488.493	5938.43
488.697	6012.15
488.901	6073.59
489.105	5973.24
489.309	5960.95
489.512	5885.18
489.716	6122.74
489.92	6147.32
490.124	5942.52
490.328	6102.26
490.531	6089.98
490.735	6063.35
490.939	6171.9
491.143	5879.04
491.346	6130.94
491.55	6227.19
491.754	6151.42
491.958	6216.95
492.161	6253.81
492.365	6194.42
492.569	6280.44
492.772	6288.63
492.976	6302.97
493.18	6417.65
493.383	6319.35
493.587	6345.97
493.79	6614.26
493.994	6466.8
494.197	6567.15
494.401	6481.14
494.605	6581.49
494.808	6649.07
495.012	6737.13
495.215	6716.65
495.419	6874.35
495.622	6874.35
495.825	6829.29
496.029	6843.63
496.232	6980.84
496.436	7044.33
496.639	7228.65
496.843	7040.23
497.046	7285.99
497.249	7382.24
497.453	7388.39
497.656	7400.68
497.859	7515.36
498.063	7539.94
498.266	7687.39
498.469	7593.19
498.673	7675.1
498.876	7740.64
499.079	7886.05
499.282	7949.53
499.485	8299.73
499.689	8107.23
499.892	8248.54
500.095	8226.01
500.298	8406.23
500.501	8430.8
500.705	8527.06
500.908	8684.75
501.111	8801.49
501.314	9077.96
501.517	9077.96
501.72	9094.35
501.923	9094.35
502.126	9397.45
502.329	9534.66
502.532	9411.78
502.735	9430.21
502.938	9972.93
503.141	9749.7
503.344	9905.34
503.547	10097.85
503.75	9907.39
503.953	10218.68
504.156	10169.53
504.359	10470.58
504.562	10503.35
504.765	10740.91
504.968	10775.73
505.17	10790.06
505.373	10882.22
505.576	11254.95
505.779	11160.75
505.982	11113.64
506.185	11469.99
506.387	11635.88
506.59	11513
506.793	12041.37
506.996	11828.38
507.198	12280.99
507.401	12133.53
507.604	12270.75
507.807	12420.25
508.009	12692.63
508.212	12686.48
508.415	12776.59
508.617	12782.74
508.82	13005.97
509.022	12743.83
509.225	13212.81
509.428	13231.24
509.63	13370.51
509.833	13323.4
510.035	13913.22
510.238	13679.75
510.44	13956.22
510.643	14486.65
510.845	14281.85
511.048	14380.15
511.25	14466.17
511.453	14486.65
511.655	14961.78
511.858	15043.7
512.06	14920.82
512.262	15299.69
512.465	15195.25
512.667	15504.49
512.87	15658.09
513.072	15434.86
513.274	15817.83
513.477	16059.49
513.679	16000.1
513.881	16317.53
514.084	16596.06
514.286	16561.24
514.488	16581.72
514.69	16872.53
514.893	17171.54
515.095	17167.44
515.297	17423.44
515.499	17525.83
515.701	17734.73
515.904	17820.74
516.106	18054.21
516.308	18279.49
516.51	18166.85
516.712	18519.1
516.914	18791.48
517.116	18881.59
517.318	19266.61
517.52	19135.54
517.722	19233.84
517.925	19493.93
518.127	19762.22
518.329	19946.53
518.531	19913.77
518.733	20180
518.935	20241.44
519.136	20431.9
519.338	20925.46
519.54	20843.54
519.742	21099.54
519.944	21238.8
520.146	21343.25
520.348	21613.58
520.55	21814.28
520.752	21597.2
520.954	22311.94
521.155	22217.73
521.357	22227.97
521.559	22764.54
521.761	22742.01
521.963	23000.05
522.164	23151.6
522.366	23286.77
522.568	23585.77
522.77	23696.36
522.971	23958.5
523.173	23995.37
523.375	23921.64
523.576	24335.33
523.778	24222.69
523.98	24546.27
524.181	24802.27
524.383	24900.57
524.584	25117.65
524.786	25506.77
524.988	25250.77
525.189	25639.89
525.391	25654.22
525.592	26358.72
525.794	25873.35
525.995	25945.03
526.197	26368.96
526.398	26295.24
526.6	26571.71
526.801	26399.68
527.003	26889.15
527.204	26991.55
527.406	27171.77
527.607	27249.59
527.808	27366.32
528.01	27009.98
528.211	27509.68
528.412	27945.9
528.614	27857.84
528.815	27898.8
529.016	28382.12
529.218	28058.54
529.419	28017.58
529.62	28447.65
529.822	28193.7
530.023	28332.97
530.224	28341.16
530.425	28550.05
530.626	28316.58
530.828	28687.26
531.029	29389.72
531.23	28660.64
531.431	28760.99
531.632	28922.78
531.833	29113.24
532.035	29127.58
532.236	29223.83
532.437	29408.15
532.638	29014.94
532.839	29518.74
533.04	29670.29
533.241	29268.89
533.442	29674.38
533.643	29752.21
533.844	29877.13
534.045	29791.12
534.246	29172.63
534.447	30110.6
534.648	29719.44
534.849	29666.19
535.05	29324.18
535.251	30018.44
535.451	29625.23
535.652	29719.44
535.853	29766.54
536.054	30190.47
536.255	30591.87
536.456	29752.21
536.657	30585.73
536.857	30208.9
537.058	29635.47
537.259	29844.37
537.46	30227.34
537.66	29836.17
537.861	29989.77
538.062	30047.11
538.263	30172.04
538.463	30147.47
538.664	30276.49
538.865	30393.22
539.065	30141.32
539.266	30063.5
539.466	30237.58
539.667	29770.64
539.868	30251.91
540.068	30213
540.269	30073.74
540.469	30518.15
540.67	30002.06
540.87	30202.76
541.071	30090.12
541.271	30524.29
541.472	30372.74
541.672	30137.23
541.873	29741.97
542.073	29827.98
542.274	30491.52
542.474	30239.62
542.675	30067.59
542.875	30624.64
543.075	30022.54
543.276	29623.19
543.476	30213
543.676	30346.12
543.877	30358.41
544.077	30329.73
544.277	30270.34
544.478	30159.75
544.678	30210.95
544.878	30290.82
545.078	30032.78
545.279	30141.32
545.479	29868.94
545.679	30004.11
545.879	30098.31
546.079	30110.6
546.28	29997.96
546.48	29719.44
546.68	30811.01
546.88	30303.11
547.08	30086.03
547.28	29973.39
547.48	30114.7
547.68	30086.03
547.88	30104.46
548.081	30040.97
548.281	29631.38
548.481	29942.67
548.681	30245.77
548.881	30165.9
549.081	30245.77
549.28	29877.13
549.48	30309.25
549.68	29983.63
549.88	30534.53
550.08	29868.94
550.28	30190.47
550.48	30024.59
550.68	29744.02
550.88	29682.58
551.08	30206.86
551.279	30169.99
551.479	29938.57
551.679	30219.14
551.879	29952.91
552.079	29938.57
552.278	29801.36
552.478	29920.14
552.678	30100.36
552.878	30225.29
553.077	30034.83
553.277	29447.06
553.477	30002.06
553.676	29668.24
553.876	29578.13
554.076	29522.83
554.275	29473.68
554.475	29432.72
554.674	29438.87
554.874	29326.23
555.074	29502.36
555.273	29711.25
555.473	29680.53
555.672	29338.52
555.872	29647.76
556.071	29780.88
556.271	29848.46
556.47	29469.59
556.67	29092.76
556.869	28885.92
557.068	29150.1
557.268	28955.55
557.467	28873.63
557.667	29272.98
557.866	29137.82
558.065	29229.98
558.265	28548
558.464	28171.18
558.663	29189.02
558.863	28316.58
559.062	28699.55
559.261	28337.06
559.461	28826.53
559.66	28142.5
559.859	28296.1
560.058	28212.13
560.258	28162.98
560.457	27767.73
560.656	28482.47
560.855	28107.69
561.054	28111.78
561.253	27949.99
561.453	28062.63
561.652	27777.97
561.851	28122.02
562.05	27530.16
562.249	27483.06
562.448	27597.74
562.647	27689.9
562.846	27472.82
563.045	27139
563.244	27577.26
563.443	27466.67
563.642	27036.6
563.841	27173.81
564.04	26907.58
564.239	27425.71
564.438	26979.26
564.637	26735.55
564.836	26680.25
565.035	26328
565.234	26661.82
565.432	26211.27
565.631	26598.34
565.83	26661.82
566.029	26198.98
566.228	26436.55
566.427	25760.72
566.625	25813.96
566.824	25639.89
567.023	26123.21
567.222	25295.83
567.42	25664.46
567.619	25306.07
567.818	25312.21
568.016	25398.23
568.215	25430.99
568.414	25093.08
568.612	25125.85
568.811	25052.12
569.01	25052.12
569.208	24484.83
569.407	24613.85
569.605	24679.39
569.804	24708.06
570.002	24083.43
570.201	24644.57
570.4	24204.26
570.598	24042.47
570.797	24265.7
570.995	24247.27
571.193	23901.16
571.392	23917.54
571.59	23702.51
571.789	23673.84
571.987	23915.5
572.186	23798.76
572.384	23350.26
572.582	23419.89
572.781	23518.19
572.979	23036.92
573.177	23235.57
573.376	23329.78
573.574	22955
573.772	22952.95
573.971	22768.63
574.169	22586.36
574.367	22543.36
574.565	22793.21
574.763	22447.1
574.962	22752.25
575.16	22363.14
575.358	22426.62
575.556	22193.15
575.754	22262.79
575.952	22045.7
576.151	22144
576.349	21689.35
576.547	21763.08
576.745	21808.14
576.943	21765.13
577.141	21421.07
577.339	21906.44
577.537	21548.04
577.735	21314.58
577.933	21378.06
578.131	21201.94
578.329	21392.4
578.527	21120.02
578.725	21019.67
578.923	21132.31
579.121	20945.94
579.319	20546.59
579.516	20997.14
579.714	20737.05
579.912	20583.45
580.11	20569.12
580.308	20732.95
580.506	20814.87
580.704	20104.23
580.901	20526.11
581.099	20597.79
581.297	20184.1
581.495	20241.44
581.692	20165.67
581.89	20096.03
582.088	20153.38
582.285	19825.7
582.483	20075.56
582.681	19858.47
582.878	19876.9
583.076	19520.56
583.274	19964.96
583.471	19641.39
583.669	19473.45
583.866	19545.13
584.064	19518.51
584.262	19233.84
584.459	19387.44
584.657	19457.07
584.854	19375.15
585.052	19047.47
585.249	19004.47
585.447	19020.85
585.644	18891.83
585.841	18998.32
586.039	19135.54
586.236	18875.45
586.434	18873.4
586.631	18512.95
586.828	18641.98
587.026	18623.55
587.223	18619.45
587.42	18650.17
587.618	18584.63
587.815	18070.59
588.012	18256.96
588.21	17921.09
588.407	18246.72
588.604	18330.69
588.801	18064.45
588.999	18003.01
589.196	18191.42
589.393	17814.6
589.59	18015.3
589.787	17830.98
589.984	17591.37
590.182	17439.82
590.379	17681.48
590.576	17673.29
590.773	17704.01
590.97	17062.99
591.167	17552.46
591.364	17230.93
591.561	17574.99
591.758	17273.93
591.955	17130.58
592.152	17380.43
592.349	17210.45
592.546	17251.41
592.743	17054.8
592.94	16913.49
593.137	16776.28
593.334	16852.05
593.531	16585.82
593.727	16725.08
593.924	16866.39
594.121	16761.94
594.318	16688.21
594.515	16333.92
594.712	16665.69
594.908	16520.28
595.105	16542.81
595.302	16338.01
595.499	16297.05
595.696	16424.03
595.892	16063.58
596.089	16114.78
596.286	16352.35
596.482	16256.09
596.679	15969.38
596.876	16026.72
597.072	15856.74
597.269	16039.01
597.466	15596.65
597.662	15707.24
597.859	15651.94
598.055	15729.77
598.252	15678.57
598.448	15639.65
598.645	15457.39
598.841	15406.19
599.038	15420.52
599.234	15461.48
599.431	15350.89
599.627	15316.08
599.824	15047.79
600.02	15101.04
600.217	15219.82
600.413	15105.13
600.609	15008.88
600.806	14978.16
601.002	15246.44
601.198	14894.19
601.395	14851.19
601.591	14595.19
601.787	14818.42
601.984	14605.43
602.18	14847.09
602.376	14470.26
602.572	14599.29
602.769	14462.07
602.965	14408.83
603.161	14355.58
603.357	14220.41
603.553	14216.32
603.75	14597.24
603.946	14081.15
604.142	14355.58
604.338	14126.21
604.534	14173.31
604.73	13954.18
604.926	14224.51
605.122	13905.03
605.318	13706.37
605.514	13849.73
605.71	13563.01
605.906	13755.52
606.102	13810.82
606.298	13710.47
606.494	13876.35
606.69	13511.82
606.886	13493.38
607.082	13304.97
607.278	13497.48
607.474	13307.02
607.67	13503.62
607.866	13200.52
608.062	13612.17
608.257	13335.69
608.453	13247.63
608.649	13419.66
608.845	12940.43
609.041	13200.52
609.236	13110.41
609.432	13118.61
609.628	13198.48
609.824	12883.09
610.019	13030.54
610.215	12782.74
610.411	12979.34
610.606	12795.03
610.802	12799.12
610.998	12881.04
611.193	12962.96
611.389	12752.02
611.584	12768.4
611.78	12631.19
611.976	12799.12
612.171	12532.89
612.367	12717.2
612.562	12455.06
612.758	12522.65
612.953	12487.83
613.149	12528.79
613.344	12455.06
613.539	12803.22
613.735	12389.53
613.93	12434.58
614.126	12197.02
614.321	12426.39
614.517	12647.57
614.712	12483.73
614.907	12336.28
615.103	12242.07
615.298	12143.77
615.493	12381.34
615.688	12231.83
615.884	12516.5
616.079	12227.74
616.274	12082.33
616.47	12158.11
616.665	11926.69
616.86	11775.14
617.055	11875.49
617.25	11719.84
617.445	12147.87
617.641	11752.61
617.836	11736.23
618.031	11791.52
618.226	11717.79
618.421	11725.99
618.616	11959.45
618.811	11676.84
619.006	11883.68
619.201	11623.59
619.396	11410.6
619.591	11486.37
619.786	11537.57
619.981	11422.89
620.176	11660.45
620.371	11175.08
620.566	11297.96
620.761	11127.98
620.956	11324.58
621.151	11203.75
621.346	11123.88
621.541	10917.04
621.735	11023.53
621.93	11017.39
622.125	10636.47
622.32	10790.06
622.515	10691.76
622.709	10749.11
622.904	10822.83
623.099	10714.29
623.294	10646.71
623.488	10476.73
623.683	10480.82
623.878	10421.43
624.072	10497.21
624.267	10335.42
624.462	10161.34
624.656	10196.15
624.851	10147
625.046	10009.79
625.24	10038.46
625.435	9999.55
625.629	10081.47
625.824	9866.43
626.018	9995.45
626.213	9684.16
626.407	9823.42
626.602	9682.11
626.796	9624.77
626.991	9569.48
627.185	9510.08
627.38	9493.7
627.574	9383.11
627.768	9227.46
627.963	9284.81
628.157	9127.11
628.352	9231.56
628.546	9030.86
628.74	9303.24
628.935	9206.98
629.129	9053.39
629.323	8899.79
629.517	8985.8
629.712	8748.24
629.906	8838.35
630.1	8860.88
630.294	8752.34
630.489	8674.51
630.683	8756.43
630.877	8549.59
631.071	8584.4
631.265	8625.36
631.459	8449.24
631.653	8309.97
631.848	8285.4
632.042	8584.4
632.236	8369.37
632.43	8303.83
632.624	8266.97
632.818	8170.71
633.012	8078.55
633.206	8013.02
633.4	7982.3
633.594	7988.44
633.788	8152.28
633.982	7986.4
634.176	7775.45
634.369	7843.04
634.563	7900.38
634.757	7623.91
634.951	7531.75
635.145	7632.1
635.339	7578.85
635.533	7628
635.726	7619.81
635.92	7316.71
636.114	7656.67
636.308	7404.77
636.501	7496.93
636.695	7355.62
636.889	7378.15
637.083	7251.17
637.276	7191.78
637.47	7052.52
637.664	7122.15
637.857	7116.01
638.051	6997.23
638.244	7011.56
638.438	7060.71
638.632	6991.08
638.825	6892.78
639.019	6939.88
639.212	6841.58
639.406	6808.81
639.599	6765.81
639.793	6802.67
639.986	6673.65
640.18	6655.22
640.373	6610.16
640.567	6722.8
640.76	6610.16
640.954	6427.89
641.147	6419.7
641.34	6374.64
641.534	6440.18
641.727	6407.41
641.92	6405.36
642.114	6448.37
642.307	6266.1
642.5	6294.77
642.694	6112.5
642.887	6114.55
643.08	6227.19
643.273	6128.89
643.467	6202.61
643.66	5940.47
643.853	5995.77
644.046	5946.62
644.239	6051.06
644.432	5913.85
644.626	5893.37
644.819	5799.16
645.012	5915.9
645.205	5885.18
645.398	5811.45
645.591	5756.16
645.784	5741.82
645.977	5612.8
646.17	5661.95
646.363	5747.97
646.556	5666.05
646.749	5643.52
646.942	5401.86
647.135	5760.25
647.328	5577.98
647.521	5453.06
647.714	5606.66
647.907	5557.5
648.099	5608.7
648.292	5373.19
648.485	5307.65
648.678	5264.65
648.871	5295.36
649.064	5326.08
649.256	5248.26
649.449	5254.41
649.642	5156.1
649.835	5203.21
650.027	5192.97
650.22	5149.96
650.413	5164.29
650.605	5213.45
650.798	5031.18
650.991	5086.47
651.183	5176.58
651.376	4986.12
651.568	5111.05
651.761	4924.68
651.954	4955.4
652.146	4846.86
652.339	4951.31
652.531	4959.5
652.724	4742.41
652.916	4609.3
653.109	4674.83
653.301	4683.02
653.494	4771.08
653.686	4594.96
653.879	4656.4
654.071	4705.55
654.263	4611.34
654.456	4558.1
654.648	4717.84
654.84	4545.81
655.033	4613.39
655.225	4433.17
655.417	4549.9
655.61	4482.32
655.802	4539.66
655.994	4361.49
656.186	4545.81
656.379	4433.17
656.571	4416.79
656.763	4320.53
656.955	4318.48
657.148	4433.17
657.34	4336.92
657.532	4189.46
657.724	4351.25
657.916	4255
658.108	4154.65
658.3	4293.91
658.492	4173.08
658.684	4052.25
658.876	4136.21
659.068	4109.59
659.26	4105.49
659.452	4068.63
659.644	4211.99
659.836	4119.83
660.028	4156.69
660.22	4140.31
660.412	4001.05
660.604	3943.71
660.796	3802.4
660.988	3968.28
661.18	3984.66
661.372	3810.59
661.563	4111.64
661.755	3935.51
661.947	3966.23
662.139	3833.11
662.331	3880.22
662.522	3824.92
662.714	3865.88
662.906	3890.46
663.097	3763.48
663.289	3757.34
663.481	3833.11
663.673	3947.8
663.864	3697.95
664.056	3714.33
664.247	3874.07
664.439	3673.37
664.631	3736.86
664.822	3722.52
665.014	3890.46
665.205	3654.94
665.397	3640.61
665.588	3734.81
665.78	3759.39
665.971	3747.1
666.163	3818.78
666.354	3517.73
666.546	3581.21
666.737	3538.21
666.929	3712.28
667.12	3648.8
667.311	3564.83
667.503	3478.82
667.694	3599.65
667.885	3683.61
668.077	3570.97
668.268	3517.73
668.459	3583.26
668.651	3700
668.842	3501.34
669.033	3495.2
669.224	3464.48
669.416	3718.43
669.607	3425.57
669.798	3534.11
669.989	3613.98
670.18	3640.61
670.371	3456.29
670.563	3597.6
670.754	3515.68
670.945	3607.84
671.136	3634.46
671.327	3464.48
671.518	3607.84
671.709	3448.1
671.9	3515.68
672.091	3636.51
672.282	3564.83
672.473	3620.13
672.664	3491.1
672.855	3716.38
673.046	3628.32
673.237	3583.26
673.428	3589.41
673.619	3534.11
673.809	3661.09
674	3671.33
674.191	3519.78
674.382	3570.97
674.573	3566.88
674.764	3573.02
674.954	3630.37
675.145	3568.93
675.336	3597.6
675.527	3593.5
675.717	3566.88
675.908	3509.54
676.099	3626.27
676.289	3677.47
676.48	3663.13
676.671	3730.72
676.861	3720.48
677.052	3728.67
677.243	3736.86
677.433	3667.23
677.624	3751.2
677.814	3636.51
678.005	3616.03
678.195	3839.26
678.386	3917.08
678.576	3726.62
678.767	3667.23
678.957	3894.55
679.148	3833.11
679.338	3738.91
679.529	3857.69
679.719	3833.11
679.909	3910.94
680.1	3859.74
680.29	3960.09
680.481	3915.03
680.671	3935.51
680.861	3992.86
681.052	4105.49
681.242	3835.16
681.432	3958.04
681.622	3894.55
681.813	3951.9
682.003	3882.27
682.193	3976.47
682.383	3824.92
682.573	4054.3
682.764	3968.28
682.954	4031.77
683.144	3947.8
683.334	3902.75
683.524	3908.89
683.714	4101.4
683.904	3851.55
684.094	4015.38
684.284	4017.43
684.474	4193.56
684.664	3966.23
684.854	4168.98
685.044	3992.86
685.234	4039.96
685.424	3886.36
685.614	3984.66
685.804	4054.3
685.994	4050.2
686.184	3996.95
686.374	3925.27
686.564	4011.29
686.753	4023.58
686.943	3896.6
687.133	3917.08
687.323	4033.82
687.513	3923.23
687.702	3878.17
687.892	3738.91
688.082	3906.84
688.272	3912.99
688.461	3890.46
688.651	3835.16
688.841	3771.68
689.03	3652.89
689.22	3656.99
689.41	3812.64
689.599	3659.04
689.789	3783.96
689.979	3659.04
690.168	3624.22
690.358	3677.47
690.547	3640.61
690.737	3540.26
690.926	3550.5
691.116	3400.99
691.305	3437.86
691.495	3452.19
691.684	3507.49
691.874	3530.02
692.063	3501.34
692.252	3460.38
692.442	3390.75
692.631	3370.27
692.82	3226.92
693.01	3312.93
693.199	3249.44
693.388	3235.11
693.578	3226.92
693.767	3288.36
693.956	3181.86
694.146	3175.72
694.335	3089.7
694.524	3046.69
694.713	2915.62
694.902	3018.02
695.092	2981.16
695.281	3120.42
695.47	3013.93
695.659	3054.89
695.848	2942.25
696.037	3038.5
696.226	3018.02
696.415	3030.31
696.604	3040.55
696.793	2934.06
696.982	3058.98
697.171	2899.24
697.36	2956.58
697.549	3005.74
697.738	2817.32
697.927	3114.28
698.116	2757.93
698.305	2870.57
698.494	2874.67
698.683	2909.48
698.872	2925.86
699.061	3020.07
699.25	2956.58
699.438	2952.49
699.627	2860.33
699.816	2979.11
700.005	2745.64
700.193	2934.06
700.382	2921.77
700.571	2862.38
700.76	2837.8
700.948	2782.51
701.137	2915.62
701.326	2882.86
701.514	2845.99
701.703	2745.64
701.892	2837.8
702.08	2907.43
702.269	2874.67
702.457	2866.47
702.646	3056.93
702.834	2886.95
703.023	2854.19
703.212	2901.29
703.4	2962.73
703.589	2800.94
703.777	2817.32
703.965	2950.44
704.154	2940.2
704.342	2878.76
704.531	3054.89
704.719	2864.43
704.907	2884.91
705.096	2919.72
705.284	2870.57
705.472	2987.3
705.661	3132.71
705.849	3044.65
706.037	2999.59
706.226	3046.69
706.414	3058.98
706.602	2968.87
706.79	3171.62
706.979	2852.14
707.167	2997.54
707.355	3005.74
707.543	3138.85
707.731	3108.13
707.919	2999.59
708.107	3026.22
708.296	3071.27
708.484	3032.36
708.672	3138.85
708.86	3106.09
709.048	3071.27
709.236	3011.88
709.424	3138.85
709.612	3290.4
709.8	3159.33
709.988	3206.44
710.176	3128.61
710.364	3329.31
710.551	3132.71
710.739	3181.86
710.927	3237.16
711.115	3200.29
711.303	3255.59
711.491	3224.87
711.679	3220.77
711.866	3224.87
712.054	3302.69
712.242	3380.51
712.43	3425.57
712.617	3380.51
712.805	3441.95
712.993	3351.84
713.181	3302.69
713.368	3505.44
713.556	3439.9
713.744	3353.89
713.931	3546.4
714.119	3527.97
714.306	3591.45
714.494	3587.36
714.682	3491.1
714.869	3425.57
715.057	3599.65
715.244	3618.08
715.432	3591.45
715.619	3581.21
715.807	3632.41
715.994	3599.65
716.182	3656.99
716.369	3689.76
716.556	3693.85
716.744	3693.85
716.931	3831.07
717.119	3878.17
717.306	3769.63
717.493	3712.28
717.681	3851.55
717.868	3788.06
718.055	3765.53
718.242	3816.73
718.43	3919.13
718.617	3960.09
718.804	3925.27
718.991	3890.46
719.179	3992.86
719.366	4039.96
719.553	3982.62
719.74	3999
719.927	4123.93
720.114	3960.09
720.301	4087.06
720.488	4009.24
720.676	4025.62
720.863	4025.62
721.05	4091.16
721.237	4242.71
721.424	4101.4
721.611	4246.8
721.798	4293.91
721.985	4171.03
722.172	4132.12
722.358	4107.54
722.545	4156.69
722.732	4183.32
722.919	4326.68
723.106	4367.63
723.293	4314.39
723.48	4406.55
723.667	4295.96
723.853	4414.74
724.04	4369.68
724.227	4398.35
724.414	4365.59
724.6	4367.63
724.787	4590.86
724.974	4480.27
725.161	4392.21
725.347	4457.75
725.534	4449.55
725.72	4484.37
725.907	4461.84
726.094	4531.47
726.28	4410.64
726.467	4490.51
726.653	4586.77
726.84	4517.14
727.027	4793.61
727.213	4418.83
727.4	4674.83
727.586	4545.81
727.773	4691.21
727.959	4676.88
728.145	4734.22
728.332	4830.48
728.518	4726.03
728.705	4736.27
728.891	4707.6
729.077	4773.13
729.264	4683.02
729.45	4730.13
729.636	4779.28
729.823	4656.4
730.009	4992.27
730.195	4848.91
730.382	4744.46
730.568	4836.62
730.754	5016.84
730.94	4853
731.126	4969.74
731.313	4984.07
731.499	4844.81
731.685	4848.91
731.871	5025.03
732.057	4975.88
732.243	4896.01
732.429	5076.23
732.615	4969.74
732.801	5039.37
732.987	4984.07
733.173	4943.11
733.359	4877.58
733.545	4787.47
733.731	4992.27
733.917	4969.74
734.103	4982.03
734.289	5147.91
734.475	5065.99
734.661	5068.04
734.847	5070.09
735.033	5086.47
735.219	5131.53
735.404	5152.01
735.59	5084.42
735.776	5123.34
735.962	5186.82
736.148	5029.13
736.333	5025.03
736.519	5246.21
736.705	5094.66
736.89	5070.09
737.076	5031.18
737.262	4992.27
737.447	5113.1
737.633	4928.78
737.819	5152.01
738.004	5031.18
738.19	5090.57
738.375	4885.77
738.561	5162.25
738.747	5078.28
738.932	5053.7
739.118	5068.04
739.303	5162.25
739.489	5047.56
739.674	5045.51
739.859	5104.9
740.045	4916.49
740.23	4967.69
740.416	4939.02
740.601	5049.61
740.786	4906.25
740.972	4930.83
741.157	5070.09
741.342	5006.6
741.528	4881.67
741.713	4959.5
741.898	4973.83
742.084	4840.72
742.269	4967.69
742.454	4893.96
742.639	4973.83
742.824	4818.19
743.01	4840.72
743.195	4947.21
743.38	4898.06
743.565	4816.14
743.75	4873.48
743.935	4756.75
744.12	4869.39
744.305	4723.98
744.49	4699.41
744.675	4787.47
744.86	4609.3
745.045	4599.06
745.23	4764.94
745.415	4609.3
745.6	4572.43
745.785	4597.01
745.97	4873.48
746.155	4410.64
746.34	4578.58
746.525	4433.17
746.71	4539.66
746.895	4369.68
747.079	4416.79
747.264	4429.07
747.449	4472.08
747.634	4402.45
747.819	4328.72
748.003	4390.16
748.188	4160.79
748.373	4248.85
748.557	4097.3
748.742	4105.49
748.927	4168.98
749.111	4189.46
749.296	4156.69
749.481	4099.35
749.665	4056.34
749.85	4091.16
750.034	4128.02
750.219	4089.11
750.404	4035.86
750.588	4007.19
750.773	3796.25
750.957	3923.23
751.141	3847.45
751.326	3818.78
751.51	3837.21
751.695	3804.44
751.879	3734.81
752.064	3908.89
752.248	3646.75
752.432	3767.58
752.617	3640.61
752.801	3689.76
752.985	3552.54
753.17	3609.89
753.354	3568.93
753.538	3444
753.722	3616.03
753.907	3468.58
754.091	3329.31
754.275	3439.9
754.459	3425.57
754.643	3337.51
754.828	3337.51
755.012	3345.7
755.196	3261.73
755.38	3368.23
755.564	3269.92
755.748	3190.05
755.932	3319.07
756.116	3251.49
756.3	3128.61
756.484	3165.48
756.668	3210.53
756.852	3108.13
757.036	3130.66
757.22	3050.79
757.404	3071.27
757.588	3151.14
757.772	3034.41
757.956	2915.62
758.14	2944.3
758.323	2886.95
758.507	2948.39
758.691	2776.36
758.875	2893.1
759.059	2848.04
759.242	2911.53
759.426	2800.94
759.61	2862.38
759.794	2796.84
759.977	2778.41
760.161	2919.72
760.345	2757.93
760.528	2800.94
760.712	2530.61
760.895	2555.18
761.079	2630.96
761.263	2633.01
761.446	2606.38
761.63	2610.48
761.813	2456.88
761.997	2516.27
762.18	2555.18
762.364	2479.41
762.547	2358.58
762.731	2604.33
762.914	2520.37
763.098	2493.74
763.281	2481.46
763.464	2305.33
763.648	2448.69
763.831	2387.25
764.015	2362.67
764.198	2354.48
764.381	2534.7
764.564	2469.17
764.748	2436.4
764.931	2444.59
765.114	2280.75
765.297	2428.21
765.481	2329.91
765.664	2272.56
765.847	2272.56
766.03	2297.14
766.213	2319.67
766.397	2311.47
766.58	2219.32
766.763	2266.42
766.946	2102.58
767.129	2219.32
767.312	2149.68
767.495	2252.08
767.678	2084.15
767.861	2239.8
768.044	2123.06
768.227	2125.11
768.41	2204.98
768.593	2102.58
768.776	2149.68
768.959	2084.15
769.142	2100.53
769.324	2004.28
769.507	2200.88
769.69	2032.95
769.873	1934.65
770.056	2035
770.239	1969.46
770.421	2088.25
770.604	2008.37
770.787	1979.7
770.97	2041.14
771.152	1957.18
771.335	1879.35
771.518	1961.27
771.7	1910.07
771.883	2022.71
772.066	1934.65
772.248	1813.82
772.431	1914.17
772.613	1811.77
772.796	1879.35
772.978	1883.45
773.161	1891.64
773.343	1772.86
773.526	1764.67
773.708	1662.27
773.891	1666.36
774.073	1717.56
774.256	1795.39
774.438	1733.95
774.621	1762.62
774.803	1762.62
774.985	1643.84
775.168	1750.33
775.35	1566.01
775.532	1635.64
775.715	1723.71
775.897	1666.36
776.079	1547.58
776.261	1533.25
776.444	1584.45
776.626	1623.36
776.808	1412.42
776.99	1549.63
777.173	1647.93
777.355	1465.66
777.537	1506.62
777.719	1473.85
777.901	1365.31
778.083	1428.8
778.265	1445.18
778.447	1457.47
778.629	1455.42
778.811	1461.57
778.993	1350.98
779.175	1498.43
779.357	1459.52
779.539	1445.18
779.721	1324.35
779.903	1379.65
780.085	1264.96
780.267	1273.15
780.449	1338.69
780.631	1363.26
780.812	1310.02
780.994	1252.67
781.176	1289.54
781.358	1254.72
781.54	1322.31
781.721	1203.52
781.903	1240.39
782.085	1166.66
782.267	1187.14
782.448	1119.56
782.63	1097.03
782.812	1150.28
782.993	1068.36
783.175	1101.12
783.357	1137.99
783.538	1080.64
783.72	1101.12
783.901	1066.31
784.083	1064.26
784.264	1137.99
784.446	1064.26
784.627	1084.74
784.809	986.44
784.99	965.96
785.172	1064.26
785.353	1015.11
785.535	916.81
785.716	1006.92
785.897	910.66
786.079	816.46
786.26	929.1
786.441	1008.97
786.623	902.47
786.804	925
786.985	945.48
787.167	920.9
787.348	986.44
787.529	988.49
787.71	931.14
787.891	951.62
788.073	879.94
788.254	779.59
788.435	914.76
788.616	871.75
788.797	720.2
788.978	886.09
789.159	818.5
789.34	918.86
789.522	781.64
789.703	841.03
789.884	822.6
790.065	785.74
790.246	863.56
790.427	752.97
790.607	752.97
790.788	851.27
790.969	740.68
791.15	722.25
791.331	736.59
791.512	761.16
791.693	681.29
791.874	824.65
792.054	779.59
792.235	761.16
792.416	630.09
792.597	669
792.778	738.63
792.958	693.58
793.139	658.76
793.32	720.2
793.5	669
793.681	666.96
793.862	662.86
794.042	658.76
794.223	601.42
794.404	691.53
794.584	615.76
794.765	564.56
794.945	650.57
795.126	591.18
795.306	666.96
795.487	648.52
795.667	597.32
795.848	634.19
796.028	638.28
796.209	640.33
796.389	642.38
796.57	650.57
796.75	521.55
796.93	638.28
797.111	517.45
797.291	539.98
797.471	515.41
797.652	576.84
797.832	599.37
798.012	546.12
798.192	544.08
798.373	576.84
798.553	544.08
798.733	632.14
798.913	472.4
799.093	511.31
799.274	499.02
799.454	539.98
799.634	539.98
799.814	552.27
799.994	552.27
800.174	591.18
800.354	482.64
800.534	378.19
800.714	621.9
800.894	499.02
801.074	380.24
801.254	486.73
801.434	503.12
801.614	486.73
801.794	509.26
801.974	1246.53
802.154	486.73
802.334	546.12
802.514	529.74
802.693	470.35
802.873	511.31
803.053	511.31
803.233	437.58
803.413	496.97
803.592	472.4
803.772	421.2
803.952	433.49
804.131	492.88
804.311	574.8
804.491	539.98
804.67	419.15
804.85	437.58
805.03	484.69
805.209	425.29
805.389	443.73
805.568	453.97
805.748	419.15
805.928	355.66
806.107	355.66
806.287	396.62
806.466	437.58
806.646	431.44
806.825	468.3
807.004	398.67
807.184	435.53
807.363	384.34
807.543	402.77
807.722	404.82
807.901	441.68
808.081	509.26
808.26	374.1
808.439	347.47
808.619	419.15
808.798	357.71
808.977	339.28
809.156	474.45
809.336	429.39
809.515	462.16
809.694	347.47
809.873	353.62
810.052	449.87
810.231	419.15
810.411	384.34
810.59	314.7
810.769	431.44
810.948	404.82
811.127	353.62
811.306	355.66
811.485	265.55
811.664	435.53
811.843	413.01
812.022	355.66
812.201	326.99
812.38	345.42
812.559	265.55
812.737	367.95
812.916	257.36
813.095	380.24
813.274	386.38
813.453	329.04
813.632	367.95
813.811	232.79
813.989	281.94
814.168	263.51
814.347	189.78
814.526	343.38
814.704	392.53
814.883	404.82
815.062	290.13
815.24	388.43
815.419	339.28
815.598	302.42
815.776	191.83
815.955	292.18
816.133	249.17
816.312	283.99
816.49	208.21
816.669	331.09
816.847	322.9
817.026	318.8
817.204	288.08
817.383	326.99
817.561	304.46
817.74	359.76
817.918	388.43
818.097	269.65
818.275	277.84
818.453	232.79
818.632	226.64
818.81	310.61
818.988	263.51
819.167	279.89
819.345	279.89
819.523	249.17
819.701	277.84
819.879	294.22
820.058	253.27
820.236	187.73
820.414	257.36
820.592	232.79
820.77	206.16
820.948	195.92
821.127	224.59
821.305	185.68
821.483	228.69
821.661	267.6
821.839	222.55
822.017	179.54
822.195	175.44
822.373	238.93
822.551	240.98
822.729	251.22
822.907	216.4
823.085	288.08
823.262	302.42
823.44	222.55
823.618	167.25
823.796	218.45
823.974	183.63
824.152	230.74
824.329	224.59
824.507	236.88
824.685	240.98
824.863	204.11
825.04	232.79
825.218	283.99
825.396	216.4
825.574	150.87
825.751	220.5
825.929	222.55
826.107	189.78
826.284	195.92
826.462	249.17
826.639	157.01
826.817	187.73
826.994	220.5
827.172	228.69
827.349	234.83
827.527	177.49
827.704	216.4
827.882	181.59
828.059	202.07
828.237	159.06
828.414	204.11
828.591	122.2
828.769	126.29
828.946	134.48
829.124	173.39
829.301	226.64
829.478	79.19
829.655	216.4
829.833	101.72
830.01	150.87
830.187	136.53
830.364	142.68
830.542	154.96
830.719	200.02
830.896	167.25
831.073	208.21
831.25	171.35
831.427	177.49
831.604	189.78
831.782	52.56
831.959	124.24
832.136	142.68
832.313	132.44
832.49	77.14
832.667	185.68
832.844	142.68
833.021	173.39
833.198	134.48
833.374	126.29
833.551	118.1
833.728	206.16
833.905	224.59
834.082	101.72
834.259	132.44
834.436	189.78
834.612	97.62
834.789	175.44
834.966	126.29
835.143	173.39
835.319	161.11
835.496	89.43
835.673	148.82
835.85	255.31
836.026	179.54
836.203	255.31
836.38	91.48
836.556	122.2
836.733	83.28
836.909	183.63
837.086	101.72
837.262	85.33
837.439	52.56
837.616	224.59
837.792	126.29
837.968	173.39
838.145	66.9
838.321	130.39
838.498	126.29
838.674	146.77
838.851	177.49
839.027	46.42
839.203	64.85
839.38	126.29
839.556	132.44
839.732	154.96
839.909	77.14
840.085	77.14
840.261	154.96
840.437	105.81
840.614	134.48
840.79	167.25
840.966	89.43
841.142	68.95
841.318	101.72
841.494	105.81
841.671	140.63
841.847	120.15
842.023	150.87
842.199	23.89
842.375	159.06
842.551	93.52
842.727	27.99
842.903	132.44
843.079	81.24
843.255	179.54
843.431	154.96
843.607	85.33
843.783	-31.4
843.959	163.15
844.134	101.72
844.31	116.05
844.486	19.8
844.662	83.28
844.838	134.48
845.013	89.43
845.189	107.86
845.365	44.37
845.541	68.95
845.716	122.2
845.892	109.91
846.068	79.19
846.244	101.72
846.419	124.24
846.595	107.86
846.77	75.09
846.946	126.29
847.122	40.28
847.297	73.04
847.473	97.62
847.648	146.77
847.824	56.66
847.999	-12.97
848.175	68.95
848.35	58.71
848.526	93.52
848.701	85.33
848.876	89.43
849.052	89.43
849.227	48.47
849.403	19.8
849.578	73.04
849.753	93.52
849.929	77.14
850.104	-29.35
850.279	109.91
850.454	85.33
850.63	105.81
850.805	81.24
850.98	60.76
851.155	17.75
851.33	105.81
851.505	89.43
851.681	142.68
851.856	40.28
852.031	58.71
852.206	38.23
852.381	66.9
852.556	50.52
852.731	77.14
852.906	91.48
853.081	101.72
853.256	48.47
853.431	48.47
853.606	107.86
853.781	52.56
853.956	77.14
854.131	66.9
854.305	25.94
854.48	52.56
854.655	-15.02
854.83	1.37
855.005	60.76
855.18	116.05
855.354	-27.31
855.529	134.48
855.704	60.76
855.879	40.28
856.053	30.04
856.228	60.76
856.403	23.89
856.577	48.47
856.752	21.85
856.926	46.42
857.101	101.72
857.276	-29.35
857.45	50.52
857.625	42.32
857.799	15.7
857.974	-0.68
858.148	23.89
858.323	60.76
858.497	68.95
858.672	48.47
858.846	23.89
859.02	85.33
859.195	3.41
859.369	30.04
859.543	30.04
859.718	48.47
859.892	38.23
860.066	89.43
860.241	60.76
860.415	27.99
860.589	3.41
860.763	36.18
860.938	-4.78
861.112	30.04
861.286	52.56
861.46	85.33
861.634	11.61
861.808	36.18
861.982	50.52
862.157	71
862.331	-17.07
862.505	44.37
862.679	77.14
862.853	56.66
863.027	27.99
863.201	118.1
863.375	50.52
863.549	17.75
863.722	40.28
863.896	75.09
864.07	64.85
864.244	68.95
864.418	50.52
864.592	-17.07
864.766	25.94
864.939	-4.78
865.113	27.99
865.287	83.28
865.461	-39.59
865.634	77.14
865.808	-35.5
865.982	42.32
866.156	27.99
866.329	40.28
866.503	97.62
866.676	-17.07
866.85	114
867.024	1.37
867.197	9.56
867.371	-31.4
867.544	75.09
867.718	-53.93
867.891	19.8
868.065	-4.78
868.238	85.33
868.412	122.2
868.585	23.89
868.759	-8.87
868.932	25.94
869.105	-31.4
869.279	46.42
869.452	7.51
869.625	66.9
869.799	17.75
869.972	11.61
870.145	56.66
870.319	64.85
870.492	-62.12
870.665	3.41
870.838	-25.26
871.011	-25.26
871.185	50.52
871.358	-12.97
871.531	60.76
871.704	79.19
871.877	66.9
872.05	44.37
872.223	3.41
872.396	-0.68
872.569	48.47
872.742	21.85
872.915	-23.21
873.088	-49.83
873.261	-4.78
873.434	15.7
873.607	32.08
873.78	50.52
873.953	-53.93
874.126	48.47
874.299	1.37
874.471	73.04
874.644	52.56
874.817	-15.02
874.99	85.33
875.163	-88.75
875.335	46.42
875.508	97.62
875.681	-2.73
875.853	-41.64
876.026	-15.02
876.199	54.61
876.371	97.62
876.544	-64.17
876.717	-12.97
876.889	15.7
877.062	-2.73
877.234	-39.59
877.407	-49.83
877.579	-33.45
877.752	1.37
877.924	-19.11
878.097	40.28
878.269	107.86
878.442	9.56
878.614	56.66
878.786	-27.31
878.959	-0.68
879.131	-2.73
879.303	-41.64
879.476	-4.78
879.648	19.8
879.82	3.41
879.993	-21.16
880.165	42.32
880.337	-4.78
880.509	19.8
880.681	52.56
880.854	3.41
881.026	11.61
881.198	58.71
881.37	-15.02
881.542	-37.55
881.714	-27.31
881.886	62.8
882.058	30.04
882.23	56.66
882.402	17.75
882.574	50.52
882.746	36.18
882.918	36.18
883.09	-10.92
883.262	7.51
883.434	54.61
883.606	-6.83
883.778	7.51
883.95	95.57
884.122	25.94
884.293	-0.68
884.465	75.09
884.637	58.71
884.809	11.61
884.98	-6.83
885.152	-8.87
885.324	-6.83
885.496	1.37
885.667	-41.64
885.839	-78.51
886.011	62.8
886.182	44.37
886.354	56.66
886.525	1.37
886.697	58.71
886.869	-66.22
887.04	-23.21
887.212	56.66
887.383	75.09
887.555	-35.5
887.726	13.65
887.897	-8.87
888.069	-86.7
888.24	-0.68
888.412	27.99
888.583	66.9
888.754	-10.92
888.926	-31.4
889.097	11.61
889.268	-49.83
889.44	101.72
889.611	17.75
889.782	7.51
889.953	44.37
890.125	66.9
890.296	-39.59
890.467	27.99
890.638	-29.35
890.809	-4.78
890.98	-25.26
891.151	107.86
891.323	109.91
891.494	-53.93
891.665	34.13
891.836	50.52
892.007	-84.65
892.178	-64.17
892.349	38.23
892.52	-0.68
892.691	15.7
892.862	-21.16
893.032	-12.97
893.203	58.71
893.374	27.99
893.545	120.15
893.716	-0.68
893.887	42.32
894.057	-29.35
894.228	52.56
894.399	-43.69
894.57	42.32
894.74	-4.78
894.911	32.08
895.082	42.32
895.253	-21.16
895.423	-47.79
895.594	25.94
895.764	32.08
895.935	-4.78
896.106	27.99
896.276	-58.03
896.447	-12.97
896.617	-29.35
896.788	-47.79
896.958	-15.02
897.129	-33.45
897.299	-45.74
897.47	73.04
897.64	36.18
897.81	3.41
897.981	15.7
898.151	-70.31
898.322	1.37
898.492	36.18
898.662	-12.97
898.832	-43.69
899.003	19.8
899.173	32.08
899.343	66.9
899.513	-70.31
