Data from USB4F104151__107__11-35-18-076.txt Node

Date: Fri Mar 14 11:35:18 EDT 2025
User: louis
Spectrometer: USB4F10415
Trigger mode: 4
Integration Time (sec): 2.000000E-2
Scans to average: 1
Electric dark correction enabled: true
Nonlinearity correction enabled: false
Boxcar width: 0
XAxis mode: Wavelengths
Number of Pixels in Spectrum: 3648
>>>>>Begin Spectral Data<<<<<
178.204	-78.51
178.424	-78.51
178.644	-78.51
178.864	-51.88
179.084	-47.79
179.304	-12.97
179.524	-19.11
179.744	1.37
179.964	-15.02
180.184	81.24
180.404	-33.45
180.624	17.75
180.844	64.85
181.064	-37.55
181.283	-27.31
181.503	-0.68
181.723	-19.11
181.943	-64.17
182.163	62.8
182.383	-23.21
182.602	17.75
182.822	-12.97
183.042	-4.78
183.262	17.75
183.482	-29.35
183.701	48.47
183.921	13.65
184.141	5.46
184.361	81.24
184.58	-25.26
184.8	81.24
185.02	9.56
185.239	111.96
185.459	13.65
185.679	1.37
185.898	-15.02
186.118	-2.73
186.338	1.37
186.557	42.32
186.777	-58.03
186.997	30.04
187.216	13.65
187.436	77.14
187.655	48.47
187.875	21.85
188.095	60.76
188.314	-8.87
188.534	13.65
188.753	11.61
188.973	52.56
189.192	56.66
189.412	-17.07
189.631	17.75
189.851	79.19
190.07	103.76
190.29	25.94
190.509	30.04
190.729	-41.64
190.948	32.08
191.168	42.32
191.387	126.29
191.607	7.51
191.826	-8.87
192.045	11.61
192.265	30.04
192.484	-47.79
192.704	11.61
192.923	-6.83
193.142	46.42
193.362	17.75
193.581	23.89
193.8	-2.73
194.02	5.46
194.239	30.04
194.458	38.23
194.678	-39.59
194.897	-27.31
195.116	66.9
195.335	97.62
195.555	9.56
195.774	50.52
195.993	58.71
196.212	40.28
196.432	-23.21
196.651	5.46
196.87	15.7
197.089	62.8
197.308	48.47
197.528	-17.07
197.747	-45.74
197.966	-19.11
198.185	66.9
198.404	50.52
198.623	56.66
198.842	99.67
199.062	21.85
199.281	50.52
199.5	-6.83
199.719	25.94
199.938	38.23
200.157	13.65
200.376	30.04
200.595	56.66
200.814	38.23
201.033	-15.02
201.252	64.85
201.471	32.08
201.69	83.28
201.909	46.42
202.128	-0.68
202.347	15.7
202.566	-31.4
202.785	60.76
203.004	15.7
203.223	42.32
203.442	17.75
203.661	9.56
203.879	56.66
204.098	99.67
204.317	34.13
204.536	46.42
204.755	42.32
204.974	62.8
205.193	13.65
205.411	64.85
205.63	3.41
205.849	5.46
206.068	-37.55
206.287	7.51
206.505	25.94
206.724	9.56
206.943	-41.64
207.162	38.23
207.381	36.18
207.599	7.51
207.818	-31.4
208.037	36.18
208.255	46.42
208.474	66.9
208.693	-31.4
208.911	-15.02
209.13	25.94
209.349	107.86
209.567	-2.73
209.786	34.13
210.005	9.56
210.223	64.85
210.442	-15.02
210.661	54.61
210.879	48.47
211.098	-10.92
211.316	36.18
211.535	-25.26
211.753	15.7
211.972	5.46
212.191	-6.83
212.409	40.28
212.628	79.19
212.846	38.23
213.065	73.04
213.283	-15.02
213.502	-23.21
213.72	99.67
213.938	50.52
214.157	-23.21
214.375	11.61
214.594	36.18
214.812	-64.17
215.031	23.89
215.249	9.56
215.467	13.65
215.686	23.89
215.904	148.82
216.122	25.94
216.341	5.46
216.559	-8.87
216.778	5.46
216.996	25.94
217.214	42.32
217.432	11.61
217.651	5.46
217.869	-19.11
218.087	-31.4
218.306	17.75
218.524	7.51
218.742	-76.46
218.96	25.94
219.179	25.94
219.397	62.8
219.615	17.75
219.833	44.37
220.051	1.37
220.27	38.23
220.488	13.65
220.706	-6.83
220.924	-15.02
221.142	-49.83
221.36	38.23
221.578	13.65
221.796	-15.02
222.015	50.52
222.233	30.04
222.451	-12.97
222.669	15.7
222.887	-41.64
223.105	-55.98
223.323	15.7
223.541	36.18
223.759	27.99
223.977	1.37
224.195	40.28
224.413	79.19
224.631	-2.73
224.849	42.32
225.067	91.48
225.285	-35.5
225.503	-21.16
225.721	46.42
225.939	66.9
226.157	-0.68
226.375	50.52
226.592	-2.73
226.81	85.33
227.028	17.75
227.246	42.32
227.464	44.37
227.682	44.37
227.9	-6.83
228.117	9.56
228.335	17.75
228.553	-21.16
228.771	17.75
228.989	-15.02
229.206	38.23
229.424	27.99
229.642	-2.73
229.86	-47.79
230.077	-39.59
230.295	-90.79
230.513	17.75
230.731	-33.45
230.948	17.75
231.166	5.46
231.384	34.13
231.601	-45.74
231.819	66.9
232.037	-45.74
232.254	-60.07
232.472	30.04
232.689	40.28
232.907	-0.68
233.125	-0.68
233.342	-10.92
233.56	34.13
233.777	83.28
233.995	27.99
234.213	7.51
234.43	81.24
234.648	99.67
234.865	66.9
235.083	21.85
235.3	7.51
235.518	62.8
235.735	40.28
235.953	38.23
236.17	3.41
236.388	50.52
236.605	15.7
236.822	50.52
237.04	-23.21
237.257	126.29
237.475	17.75
237.692	13.65
237.909	83.28
238.127	-35.5
238.344	-39.59
238.562	58.71
238.779	62.8
238.996	21.85
239.214	-0.68
239.431	79.19
239.648	1.37
239.865	-29.35
240.083	25.94
240.3	27.99
240.517	21.85
240.735	-62.12
240.952	116.05
241.169	73.04
241.386	-31.4
241.603	1.37
241.821	-15.02
242.038	85.33
242.255	66.9
242.472	23.89
242.689	73.04
242.907	-10.92
243.124	21.85
243.341	23.89
243.558	-62.12
243.775	-17.07
243.992	-19.11
244.209	-21.16
244.426	9.56
244.643	60.76
244.86	-21.16
245.078	-0.68
245.295	-47.79
245.512	50.52
245.729	19.8
245.946	44.37
246.163	25.94
246.38	17.75
246.597	58.71
246.814	36.18
247.031	30.04
247.248	81.24
247.464	-6.83
247.681	-8.87
247.898	40.28
248.115	54.61
248.332	-62.12
248.549	21.85
248.766	130.39
248.983	-21.16
249.2	11.61
249.417	17.75
249.633	-23.21
249.85	-72.36
250.067	9.56
250.284	17.75
250.501	40.28
250.717	85.33
250.934	36.18
251.151	-17.07
251.368	91.48
251.585	75.09
251.801	-0.68
252.018	34.13
252.235	15.7
252.451	3.41
252.668	-72.36
252.885	25.94
253.102	142.68
253.318	40.28
253.535	-2.73
253.752	-4.78
253.968	-25.26
254.185	32.08
254.401	-0.68
254.618	-29.35
254.835	34.13
255.051	58.71
255.268	46.42
255.484	50.52
255.701	79.19
255.917	81.24
256.134	-64.17
256.351	71
256.567	7.51
256.784	19.8
257	-21.16
257.217	97.62
257.433	40.28
257.65	9.56
257.866	21.85
258.082	13.65
258.299	-82.6
258.515	85.33
258.732	15.7
258.948	-17.07
259.165	9.56
259.381	-23.21
259.597	21.85
259.814	-21.16
260.03	50.52
260.246	-45.74
260.463	-0.68
260.679	75.09
260.895	83.28
261.112	9.56
261.328	-10.92
261.544	-27.31
261.761	38.23
261.977	5.46
262.193	-41.64
262.409	25.94
262.626	-15.02
262.842	30.04
263.058	13.65
263.274	75.09
263.49	-15.02
263.707	54.61
263.923	62.8
264.139	34.13
264.355	9.56
264.571	32.08
264.787	-23.21
265.004	46.42
265.22	62.8
265.436	1.37
265.652	5.46
265.868	-2.73
266.084	30.04
266.3	7.51
266.516	-49.83
266.732	56.66
266.948	-0.68
267.164	-0.68
267.38	-8.87
267.596	1.37
267.812	52.56
268.028	32.08
268.244	46.42
268.46	-6.83
268.676	15.7
268.892	1.37
269.108	23.89
269.324	15.7
269.54	1.37
269.756	130.39
269.972	-15.02
270.188	17.75
270.403	-19.11
270.619	-10.92
270.835	97.62
271.051	19.8
271.267	-2.73
271.483	30.04
271.698	-41.64
271.914	17.75
272.13	34.13
272.346	21.85
272.562	25.94
272.777	-0.68
272.993	-51.88
273.209	-6.83
273.425	-6.83
273.64	7.51
273.856	40.28
274.072	32.08
274.287	-15.02
274.503	7.51
274.719	13.65
274.934	40.28
275.15	17.75
275.366	66.9
275.581	-15.02
275.797	87.38
276.012	46.42
276.228	13.65
276.444	32.08
276.659	89.43
276.875	-6.83
277.09	25.94
277.306	-6.83
277.521	66.9
277.737	-23.21
277.952	-23.21
278.168	9.56
278.383	-0.68
278.599	42.32
278.814	71
279.03	-29.35
279.245	21.85
279.461	13.65
279.676	-4.78
279.892	48.47
280.107	23.89
280.322	64.85
280.538	30.04
280.753	1.37
280.969	30.04
281.184	-31.4
281.399	105.81
281.615	50.52
281.83	13.65
282.045	-31.4
282.26	71
282.476	75.09
282.691	11.61
282.906	34.13
283.122	89.43
283.337	-31.4
283.552	-15.02
283.767	-17.07
283.983	77.14
284.198	46.42
284.413	13.65
284.628	-88.75
284.843	58.71
285.058	-23.21
285.274	-0.68
285.489	-0.68
285.704	-2.73
285.919	15.7
286.134	5.46
286.349	-27.31
286.564	36.18
286.779	36.18
286.995	56.66
287.21	-17.07
287.425	1.37
287.64	7.51
287.855	48.47
288.07	40.28
288.285	27.99
288.5	75.09
288.715	23.89
288.93	32.08
289.145	25.94
289.36	13.65
289.575	54.61
289.79	58.71
290.004	71
290.219	25.94
290.434	30.04
290.649	32.08
290.864	-0.68
291.079	7.51
291.294	103.76
291.509	-8.87
291.724	46.42
291.938	-64.17
292.153	15.7
292.368	42.32
292.583	40.28
292.798	40.28
293.012	36.18
293.227	-2.73
293.442	-15.02
293.657	-2.73
293.871	30.04
294.086	-0.68
294.301	34.13
294.516	32.08
294.73	54.61
294.945	23.89
295.16	-2.73
295.374	17.75
295.589	5.46
295.804	68.95
296.018	56.66
296.233	83.28
296.447	-62.12
296.662	30.04
296.877	40.28
297.091	40.28
297.306	38.23
297.52	11.61
297.735	9.56
297.949	50.52
298.164	32.08
298.378	-4.78
298.593	-33.45
298.807	42.32
299.022	-37.55
299.236	23.89
299.451	-37.55
299.665	34.13
299.88	38.23
300.094	23.89
300.309	32.08
300.523	77.14
300.737	42.32
300.952	-27.31
301.166	-2.73
301.381	56.66
301.595	71
301.809	34.13
302.024	15.7
302.238	-10.92
302.452	50.52
302.667	3.41
302.881	17.75
303.095	23.89
303.309	68.95
303.524	-51.88
303.738	30.04
303.952	58.71
304.166	40.28
304.381	42.32
304.595	42.32
304.809	42.32
305.023	30.04
305.237	19.8
305.452	38.23
305.666	73.04
305.88	-41.64
306.094	27.99
306.308	-47.79
306.522	34.13
306.736	34.13
306.95	30.04
307.164	17.75
307.379	54.61
307.593	34.13
307.807	17.75
308.021	7.51
308.235	34.13
308.449	7.51
308.663	19.8
308.877	73.04
309.091	44.37
309.305	46.42
309.519	54.61
309.733	27.99
309.947	-0.68
310.161	17.75
310.374	11.61
310.588	107.86
310.802	11.61
311.016	62.8
311.23	58.71
311.444	42.32
311.658	77.14
311.872	-25.26
312.085	56.66
312.299	107.86
312.513	73.04
312.727	79.19
312.941	5.46
313.154	75.09
313.368	62.8
313.582	34.13
313.796	58.71
314.009	30.04
314.223	-23.21
314.437	79.19
314.651	9.56
314.864	38.23
315.078	73.04
315.292	83.28
315.505	-35.5
315.719	32.08
315.933	66.9
316.146	27.99
316.36	23.89
316.573	68.95
316.787	-23.21
317.001	42.32
317.214	-19.11
317.428	150.87
317.641	30.04
317.855	46.42
318.068	46.42
318.282	46.42
318.495	17.75
318.709	91.48
318.922	3.41
319.136	73.04
319.349	54.61
319.563	15.7
319.776	30.04
319.99	1.37
320.203	34.13
320.417	-23.21
320.63	9.56
320.843	83.28
321.057	1.37
321.27	-2.73
321.483	1.37
321.697	-19.11
321.91	99.67
322.124	34.13
322.337	40.28
322.55	44.37
322.763	-2.73
322.977	13.65
323.19	19.8
323.403	15.7
323.617	62.8
323.83	32.08
324.043	-12.97
324.256	62.8
324.469	-23.21
324.683	85.33
324.896	-0.68
325.109	23.89
325.322	17.75
325.535	-15.02
325.748	5.46
325.962	73.04
326.175	38.23
326.388	66.9
326.601	58.71
326.814	25.94
327.027	62.8
327.24	118.1
327.453	-47.79
327.666	50.52
327.879	83.28
328.092	118.1
328.305	7.51
328.518	54.61
328.731	23.89
328.944	44.37
329.157	48.47
329.37	120.15
329.583	30.04
329.796	68.95
330.009	42.32
330.222	7.51
330.435	54.61
330.648	30.04
330.861	83.28
331.073	1.37
331.286	-6.83
331.499	40.28
331.712	1.37
331.925	-70.31
332.138	11.61
332.35	81.24
332.563	44.37
332.776	21.85
332.989	-10.92
333.202	-6.83
333.414	58.71
333.627	34.13
333.84	62.8
334.053	-2.73
334.265	-6.83
334.478	73.04
334.691	-4.78
334.903	9.56
335.116	-31.4
335.329	-6.83
335.541	111.96
335.754	81.24
335.966	50.52
336.179	91.48
336.392	25.94
336.604	58.71
336.817	34.13
337.029	101.72
337.242	34.13
337.454	5.46
337.667	-55.98
337.88	62.8
338.092	42.32
338.305	66.9
338.517	34.13
338.729	128.34
338.942	7.51
339.154	-35.5
339.367	-6.83
339.579	-66.22
339.792	13.65
340.004	42.32
340.217	101.72
340.429	40.28
340.641	34.13
340.854	7.51
341.066	-55.98
341.278	-25.26
341.491	52.56
341.703	-58.03
341.915	19.8
342.128	60.76
342.34	-27.31
342.552	44.37
342.764	25.94
342.977	7.51
343.189	77.14
343.401	9.56
343.613	-15.02
343.826	7.51
344.038	-0.68
344.25	15.7
344.462	21.85
344.674	9.56
344.886	-6.83
345.099	77.14
345.311	42.32
345.523	77.14
345.735	3.41
345.947	44.37
346.159	15.7
346.371	23.89
346.583	40.28
346.795	-2.73
347.007	13.65
347.219	116.05
347.431	-23.21
347.643	89.43
347.855	38.23
348.067	83.28
348.279	50.52
348.491	75.09
348.703	52.56
348.915	58.71
349.127	15.7
349.339	64.85
349.551	64.85
349.763	-0.68
349.975	64.85
350.187	21.85
350.399	48.47
350.61	34.13
350.822	95.57
351.034	3.41
351.246	71
351.458	157.01
351.669	-33.45
351.881	44.37
352.093	40.28
352.305	19.8
352.517	15.7
352.728	95.57
352.94	50.52
353.152	58.71
353.363	-8.87
353.575	21.85
353.787	50.52
353.999	25.94
354.21	58.71
354.422	64.85
354.633	17.75
354.845	103.76
355.057	81.24
355.268	30.04
355.48	60.76
355.692	42.32
355.903	91.48
356.115	25.94
356.326	15.7
356.538	56.66
356.749	58.71
356.961	58.71
357.172	42.32
357.384	85.33
357.595	95.57
357.807	1.37
358.018	-53.93
358.23	105.81
358.441	-29.35
358.653	107.86
358.864	56.66
359.075	48.47
359.287	52.56
359.498	-39.59
359.709	23.89
359.921	79.19
360.132	73.04
360.344	30.04
360.555	-64.17
360.766	64.85
360.977	1.37
361.189	25.94
361.4	48.47
361.611	27.99
361.823	58.71
362.034	83.28
362.245	13.65
362.456	66.9
362.667	62.8
362.879	-25.26
363.09	81.24
363.301	46.42
363.512	-6.83
363.723	36.18
363.935	64.85
364.146	60.76
364.357	9.56
364.568	38.23
364.779	-17.07
364.99	34.13
365.201	50.52
365.412	36.18
365.623	1.37
365.834	97.62
366.045	42.32
366.256	48.47
366.467	-10.92
366.678	13.65
366.889	27.99
367.1	97.62
367.311	44.37
367.522	34.13
367.733	15.7
367.944	17.75
368.155	-10.92
368.366	111.96
368.577	75.09
368.788	11.61
368.999	25.94
369.209	64.85
369.42	54.61
369.631	50.52
369.842	46.42
370.053	9.56
370.264	58.71
370.474	54.61
370.685	19.8
370.896	46.42
371.107	91.48
371.317	66.9
371.528	-2.73
371.739	83.28
371.95	-35.5
372.16	3.41
372.371	50.52
372.582	77.14
372.792	17.75
373.003	91.48
373.214	5.46
373.424	42.32
373.635	83.28
373.846	77.14
374.056	42.32
374.267	-88.75
374.477	73.04
374.688	13.65
374.898	30.04
375.109	62.8
375.319	56.66
375.53	58.71
375.74	9.56
375.951	-2.73
376.161	23.89
376.372	95.57
376.582	-15.02
376.793	3.41
377.003	114
377.214	50.52
377.424	58.71
377.635	23.89
377.845	7.51
378.055	-6.83
378.266	9.56
378.476	36.18
378.686	21.85
378.897	50.52
379.107	17.75
379.317	13.65
379.528	23.89
379.738	-17.07
379.948	-12.97
380.158	89.43
380.369	17.75
380.579	48.47
380.789	3.41
380.999	75.09
381.21	48.47
381.42	77.14
381.63	-29.35
381.84	62.8
382.05	44.37
382.261	83.28
382.471	48.47
382.681	25.94
382.891	17.75
383.101	9.56
383.311	9.56
383.521	107.86
383.731	54.61
383.941	17.75
384.151	83.28
384.361	71
384.571	17.75
384.781	128.34
384.991	89.43
385.201	89.43
385.411	64.85
385.621	-37.55
385.831	48.47
386.041	46.42
386.251	62.8
386.461	42.32
386.671	81.24
386.881	83.28
387.091	25.94
387.301	64.85
387.511	73.04
387.72	34.13
387.93	68.95
388.14	13.65
388.35	-10.92
388.56	-39.59
388.769	50.52
388.979	48.47
389.189	15.7
389.399	52.56
389.609	107.86
389.818	36.18
390.028	64.85
390.238	11.61
390.447	17.75
390.657	-2.73
390.867	27.99
391.076	-78.51
391.286	83.28
391.496	25.94
391.705	79.19
391.915	109.91
392.125	9.56
392.334	75.09
392.544	71
392.753	79.19
392.963	40.28
393.172	32.08
393.382	15.7
393.591	83.28
393.801	79.19
394.01	73.04
394.22	97.62
394.429	50.52
394.639	-8.87
394.848	54.61
395.058	58.71
395.267	46.42
395.477	75.09
395.686	81.24
395.895	83.28
396.105	103.76
396.314	87.38
396.524	79.19
396.733	79.19
396.942	114
397.152	97.62
397.361	66.9
397.57	50.52
397.78	60.76
397.989	54.61
398.198	130.39
398.407	54.61
398.617	101.72
398.826	75.09
399.035	105.81
399.244	56.66
399.453	38.23
399.663	142.68
399.872	120.15
400.081	-2.73
400.29	89.43
400.499	93.52
400.708	165.2
400.917	97.62
401.127	159.06
401.336	71
401.545	107.86
401.754	122.2
401.963	81.24
402.172	91.48
402.381	122.2
402.59	122.2
402.799	34.13
403.008	107.86
403.217	83.28
403.426	3.41
403.635	93.52
403.844	134.48
404.053	118.1
404.262	103.76
404.471	154.96
404.68	58.71
404.888	161.11
405.097	93.52
405.306	148.82
405.515	165.2
405.724	152.91
405.933	130.39
406.142	136.53
406.35	179.54
406.559	191.83
406.768	128.34
406.977	132.44
407.185	197.97
407.394	200.02
407.603	124.24
407.812	195.92
408.02	230.74
408.229	122.2
408.438	206.16
408.646	124.24
408.855	236.88
409.064	271.7
409.272	240.98
409.481	187.73
409.69	228.69
409.898	214.35
410.107	265.55
410.315	283.98
410.524	341.33
410.733	265.55
410.941	318.8
411.15	324.94
411.358	376.14
411.567	310.61
411.775	365.9
411.984	331.09
412.192	406.86
412.401	370
412.609	408.91
412.818	435.53
413.026	386.38
413.234	404.82
413.443	376.14
413.651	494.93
413.86	468.3
414.068	492.88
414.276	490.83
414.485	525.65
414.693	484.69
414.901	574.8
415.11	566.6
415.318	646.48
415.526	654.67
415.734	666.96
415.943	685.39
416.151	759.11
416.359	730.44
416.567	812.36
416.776	738.63
416.984	793.93
417.192	826.7
417.4	871.75
417.608	836.94
417.817	894.28
418.025	945.48
418.233	1123.65
418.441	968.01
418.649	1031.49
418.857	1181
419.065	1242.43
419.273	1058.12
419.481	1187.14
419.689	1236.29
419.897	1328.45
420.105	1226.05
420.313	1357.12
420.521	1514.81
420.729	1381.7
420.937	1416.51
421.145	1545.53
421.353	1477.95
421.561	1664.32
421.769	1721.66
421.977	1895.74
422.185	1738.04
422.393	1912.12
422.601	2047.29
422.809	1959.22
423.017	2002.23
423.224	2127.16
423.432	2104.63
423.64	2170.16
423.848	2415.92
424.056	2245.94
424.263	2473.26
424.471	2434.35
424.679	2565.42
424.887	2680.11
425.094	2821.42
425.302	2802.99
425.51	2833.71
425.718	2921.77
425.925	2884.91
426.133	3163.43
426.341	3284.26
426.548	3450.14
426.756	3454.24
426.964	3489.06
427.171	3620.13
427.379	3781.92
427.586	3882.27
427.794	4011.29
428.001	4031.77
428.209	4310.29
428.417	4224.28
428.624	4609.3
428.832	4633.87
429.039	4437.27
429.247	4687.12
429.454	4871.44
429.662	5338.37
429.869	5104.9
430.076	5287.17
430.284	5049.61
430.491	5350.66
430.699	5750.01
430.906	5645.57
431.114	5836.03
431.321	5983.48
431.528	6010.11
431.736	6419.7
431.943	6665.46
432.15	6477.04
432.358	6739.18
432.565	7036.14
432.772	6862.06
432.979	7347.43
433.187	7507.17
433.394	7212.26
433.601	8146.14
433.808	7949.53
434.016	7935.2
434.223	8355.03
434.43	8766.67
434.637	8469.72
434.844	9141.45
435.052	9284.81
435.259	9491.65
435.466	9542.85
435.673	9280.71
435.88	9864.38
436.087	10443.96
436.294	10652.85
436.501	10144.95
436.708	10400.95
436.915	10697.91
437.122	11082.92
437.329	11181.23
437.537	11627.68
437.743	11725.99
437.95	11742.37
438.157	12317.85
438.364	12690.58
438.571	12547.22
438.778	12729.49
438.985	13917.31
439.192	13198.48
439.399	13722.76
439.606	13444.23
439.813	14169.21
440.02	15012.98
440.227	14677.11
440.433	14627.96
440.64	15400.04
440.847	15062.13
441.054	15602.79
441.261	16553.05
441.467	16317.53
441.674	16639.06
441.881	17323.08
442.088	17232.97
442.294	17239.12
442.501	17488.97
442.708	17894.47
442.914	18512.95
443.121	19545.13
443.328	18897.97
443.534	20255.78
443.741	19907.62
443.948	19473.45
444.154	20935.7
444.361	20859.93
444.568	20966.42
444.774	20878.36
444.981	21160.98
445.187	21552.14
445.394	22400
445.6	22461.44
445.807	24441.82
446.013	23677.93
446.22	24085.48
446.426	24812.51
446.633	25121.75
446.839	25947.08
447.046	24734.68
447.252	26313.67
447.459	26235.84
447.665	26086.34
447.871	27308.98
448.078	28421.03
448.284	27005.88
448.491	27886.51
448.697	28953.5
448.903	29363.09
449.11	29375.38
449.316	29068.19
449.522	29555.6
449.728	30213
449.935	30587.78
450.141	30057.35
450.347	31484.79
450.553	30462.85
450.76	30512
450.966	31468.41
451.172	31548.28
451.378	32201.58
451.584	31378.29
451.791	32396.14
451.997	31949.68
452.203	32584.55
452.409	32564.07
452.615	32326.5
452.821	31011.71
453.027	31282.04
453.233	32496.49
453.44	31048.57
453.646	31492.98
453.852	31941.49
454.058	32037.74
454.264	31046.52
454.47	31882.09
454.676	30765.95
454.882	32105.32
455.088	29488.02
455.294	29584.27
455.5	29825.93
455.705	30499.72
455.911	29301.65
456.117	28668.83
456.323	28625.82
456.529	26700.73
456.735	28005.29
456.941	27075.51
457.147	26667.97
457.352	25654.22
457.558	25746.38
457.764	25895.88
457.97	25277.4
458.176	24669.15
458.381	24665.05
458.587	23649.26
458.793	23620.59
458.999	22158.34
459.204	23686.12
459.41	23022.58
459.616	21580.81
459.821	21398.54
460.027	21513.23
460.233	21240.85
460.438	20134.95
460.644	20636.7
460.85	19309.61
461.055	19158.06
461.261	19074.1
461.466	17474.63
461.672	17052.75
461.878	18363.45
462.083	17118.29
462.289	16751.7
462.494	16512.09
462.7	15805.54
462.905	15361.13
463.111	16079.97
463.316	15723.62
463.522	15740.01
463.727	15555.69
463.932	15561.83
464.138	15510.63
464.343	15428.71
464.549	15158.38
464.754	15524.97
464.959	15594.6
465.165	15410.28
465.37	14894.19
465.575	14650.49
465.781	14685.3
465.986	14840.95
466.191	14410.87
466.397	14378.11
466.602	13661.32
466.807	14251.13
467.012	14023.81
467.218	13841.54
467.423	13806.72
467.628	13581.45
467.833	14390.39
468.038	13900.93
468.244	13550.73
468.449	13939.84
468.654	13614.21
468.859	13415.56
469.064	13358.22
469.269	12813.46
469.474	12889.23
469.679	13302.92
469.885	12698.77
470.09	12983.44
470.295	12811.41
470.5	12698.77
470.705	12799.12
470.91	12420.25
471.115	12268.7
471.32	12553.37
471.525	12401.82
471.73	11824.29
471.935	12012.7
472.139	11613.35
472.344	11713.7
472.549	11850.91
472.754	11584.68
472.959	11453.61
473.164	11218.09
473.369	11037.87
473.574	11175.08
473.778	11209.9
473.983	11060.4
474.188	11232.43
474.393	10679.47
474.598	10585.27
474.802	10669.23
475.007	10329.27
475.212	10437.81
475.417	10095.8
475.621	9989.31
475.826	10181.82
476.031	9786.56
476.235	9817.28
476.44	9817.28
476.645	9682.11
476.849	9684.16
477.054	9397.45
477.259	9315.53
477.463	9374.92
477.668	9256.14
477.872	9383.11
478.077	9047.24
478.282	8760.53
478.486	8811.73
478.691	8903.89
478.895	8733.9
479.1	8934.6
479.304	8768.72
479.509	8602.83
479.713	8705.23
479.918	8318.17
480.122	8352.98
480.326	8541.4
480.531	8549.59
480.735	8504.53
480.94	8357.08
481.144	8529.11
481.348	8236.25
481.553	8316.12
481.757	8281.3
481.961	8299.73
482.166	8242.39
482.37	8246.49
482.574	8228.06
482.778	8197.34
482.983	8217.82
483.187	8023.26
483.391	8287.45
483.595	8088.79
483.8	8068.31
484.004	8203.48
484.208	8187.1
484.412	8002.78
484.616	8029.4
484.821	8183
485.025	7988.44
485.229	8180.95
485.433	8013.02
485.637	8131.8
485.841	8107.23
486.045	8201.43
486.249	8119.51
486.453	8006.88
486.657	8094.94
486.861	8019.16
487.065	7939.29
487.269	8176.86
487.473	7861.47
487.677	8099.03
487.881	8232.15
488.085	8107.23
488.289	8357.08
488.493	7967.96
488.697	8357.08
488.901	7914.72
489.105	8133.85
489.309	8166.62
489.512	8156.38
489.716	8473.81
489.92	8193.24
490.124	8074.46
490.328	8400.09
490.531	8144.09
490.735	8238.3
490.939	8266.97
491.143	8172.76
491.346	8479.96
491.55	8516.82
491.754	8545.49
491.958	8641.75
492.161	8414.42
492.365	8733.9
492.569	8459.48
492.772	8588.5
492.976	8615.12
493.18	8639.7
493.383	8768.72
493.587	8821.97
493.79	8729.81
493.994	8719.57
494.197	8807.63
494.401	8983.76
494.605	8932.56
494.808	9104.59
495.012	9155.79
495.215	9200.84
495.419	9452.74
495.622	9286.86
495.825	9321.67
496.029	9331.91
496.232	9663.68
496.436	9530.56
496.639	9784.51
496.843	9731.26
497.046	9940.16
497.249	10167.48
497.453	9983.16
497.656	10259.64
497.859	10208.44
498.063	10278.07
498.266	10499.25
498.469	10548.4
498.673	10624.18
498.876	10812.59
499.079	10912.94
499.282	10730.67
499.485	11191.47
499.689	11271.34
499.892	11254.95
500.095	11615.4
500.298	11556
500.501	11422.89
500.705	11846.82
500.908	12004.51
501.111	12190.88
501.314	11918.5
501.517	12272.79
501.72	12596.37
501.923	12459.16
502.126	12579.99
502.329	12985.49
502.532	13044.88
502.735	13005.97
502.938	13579.4
503.141	13384.84
503.344	13481.1
503.547	13573.25
503.75	13743.24
503.953	14072.96
504.156	14167.17
504.359	14199.93
504.562	14374.01
504.765	14621.81
504.968	14810.23
505.17	14965.87
505.373	14935.15
505.576	15354.99
505.779	15365.23
505.982	15619.17
506.185	15608.94
506.387	15776.87
506.59	16110.69
506.793	16264.29
506.996	16376.92
507.198	16651.35
507.401	16710.74
507.604	16991.31
507.807	17046.61
508.009	17046.61
508.212	17275.98
508.415	17579.08
508.617	17671.24
508.82	18033.73
509.022	17798.21
509.225	18263.1
509.428	18175.04
509.63	18332.73
509.833	18572.35
510.035	19072.05
510.238	18543.67
510.44	19438.64
510.643	19115.06
510.845	19440.68
511.048	19403.82
511.25	19719.21
511.453	20186.15
511.655	20349.98
511.858	20231.2
512.06	20667.42
512.262	20689.95
512.465	20595.74
512.667	21111.83
512.87	21353.49
513.072	21251.09
513.274	21558.28
513.477	21552.14
513.679	22152.2
513.881	22162.44
514.084	22486.01
514.286	22828.02
514.488	22475.77
514.69	23186.42
514.893	23423.98
515.095	23454.7
515.297	23401.46
515.499	23575.53
515.701	24151.01
515.904	24292.32
516.106	24249.32
516.308	24687.58
516.51	24716.25
516.712	24615.9
516.914	25205.72
517.116	25412.56
517.318	25643.98
517.52	25478.1
517.722	25938.89
517.925	25988.04
518.127	26409.92
518.329	26332.1
518.531	26285
518.733	27087.8
518.935	26753.98
519.136	27050.94
519.338	27605.94
519.54	27689.9
519.742	27990.95
519.944	28003.24
520.146	28578.72
520.348	28337.06
520.55	28568.48
520.752	28867.48
520.954	28857.24
521.155	29135.77
521.357	29451.16
521.559	29655.95
521.761	30487.43
521.963	29823.89
522.164	30313.35
522.366	30112.65
522.568	30378.89
522.77	30747.52
522.971	30929.79
523.173	30792.58
523.375	31148.92
523.576	31200.12
523.778	31318.9
523.98	31765.36
524.181	31759.22
524.383	31697.78
524.584	32107.37
524.786	32244.59
524.988	32271.21
525.189	32353.13
525.391	32772.96
525.592	32648.04
525.794	33049.44
525.995	33076.06
526.197	33340.25
526.398	32885.6
526.6	32977.76
526.801	33594.2
527.003	33459.03
527.204	33874.77
527.406	33798.99
527.607	33534.81
527.808	34212.68
528.01	33725.27
528.211	33893.2
528.412	34394.95
528.614	34155.34
528.815	34288.46
529.016	34792.26
529.218	34437.96
529.419	34433.86
529.62	34861.89
529.822	34888.51
530.023	34775.87
530.224	34530.12
530.425	34657.09
530.626	34741.06
530.828	34687.81
531.029	35488.57
531.23	34902.85
531.431	34984.77
531.632	35236.67
531.833	35384.12
532.035	35406.65
532.236	34974.53
532.437	35244.86
532.638	35091.26
532.839	35337.02
533.04	35500.86
533.241	35367.74
533.442	36045.62
533.643	35597.11
533.844	35525.43
534.045	35777.33
534.246	35136.32
534.447	35556.15
534.648	35439.42
534.849	35373.88
535.05	35320.63
535.251	35257.15
535.451	35435.32
535.652	35955.5
535.853	35289.91
536.054	35545.91
536.255	35664.69
536.456	34952
536.657	36305.71
536.857	35367.74
537.058	35269.44
537.259	35949.36
537.46	35846.96
537.66	35308.35
537.861	35527.48
538.062	35525.43
538.263	35691.32
538.463	35750.71
538.664	35744.56
538.865	35687.22
539.065	35556.15
539.266	35279.67
539.466	35474.23
539.667	35410.74
539.868	35904.31
540.068	35500.86
540.269	35431.22
540.469	35648.31
540.67	35429.18
540.87	35328.83
541.071	35314.49
541.271	35414.84
541.472	35824.43
541.672	35369.79
541.873	35453.75
542.073	34685.76
542.274	35646.26
542.474	35154.75
542.675	35269.44
542.875	35523.38
543.075	35404.6
543.276	35199.8
543.476	35863.35
543.676	35187.52
543.877	35818.29
544.077	35443.51
544.277	35218.24
544.478	35296.06
544.678	34954.05
544.878	35353.4
545.078	35261.24
545.279	35050.3
545.479	34822.98
545.679	35357.5
545.879	35216.19
546.079	35361.59
546.28	35142.46
546.48	34978.62
546.68	35392.31
546.88	35203.9
547.08	35226.43
547.28	35058.49
547.48	35023.68
547.68	35044.16
547.88	34974.53
548.081	34970.43
548.281	34876.23
548.481	34904.9
548.681	34937.66
548.881	34884.42
549.081	35148.6
549.28	34896.7
549.48	35128.13
549.68	35218.24
549.88	35451.7
550.08	34829.12
550.28	35042.11
550.48	34816.83
550.68	34960.19
550.88	34835.27
551.08	34495.3
551.279	35023.68
551.479	34642.76
551.679	34810.69
551.879	34943.81
552.079	35078.97
552.278	34681.67
552.478	34577.22
552.678	34444.1
552.878	35185.47
553.077	34503.49
553.277	34294.6
553.477	34847.55
553.676	34356.04
553.876	34786.11
554.076	34601.8
554.275	34327.37
554.475	33983.31
554.674	34349.9
554.874	34665.28
555.074	34427.72
555.273	34554.69
555.473	34857.79
555.672	34562.89
555.872	34134.86
556.071	34313.03
556.271	34239.31
556.47	34212.68
556.67	34171.72
556.869	34141
557.068	34204.49
557.268	33907.54
557.467	34018.13
557.667	34016.08
557.866	34128.72
558.065	34069.33
558.265	33770.32
558.464	33796.95
558.663	34151.24
558.863	33338.2
559.062	34030.41
559.261	33543
559.461	34028.37
559.66	33475.41
559.859	33835.86
560.058	33381.21
560.258	33602.39
560.457	33481.56
560.656	33569.62
560.855	33123.16
561.054	33549.14
561.253	33297.24
561.453	33162.08
561.652	33213.27
561.851	33651.54
562.05	32944.99
562.249	32922.46
562.448	33321.82
562.647	33143.64
562.846	33338.2
563.045	32645.99
563.244	32525.16
563.443	33082.2
563.642	32709.47
563.841	32856.93
564.04	32592.74
564.239	32551.78
564.438	32340.84
564.637	32457.57
564.836	32416.61
565.035	32074.6
565.234	32496.49
565.432	32183.15
565.631	32013.16
565.83	32256.87
566.029	32365.42
566.228	31939.44
566.427	31898.48
566.625	31699.83
566.824	31521.65
567.023	31916.91
567.222	31398.77
567.42	31939.44
567.619	31718.26
567.818	31626.1
568.016	31277.94
568.215	31744.88
568.414	31628.15
568.612	31806.32
568.811	31148.92
569.01	31382.39
569.208	30907.26
569.407	31224.7
569.605	30907.26
569.804	31470.45
570.002	30600.07
570.201	30976.89
570.4	30618.5
570.598	30608.26
570.797	30589.83
570.995	30718.85
571.193	30509.96
571.392	30573.44
571.59	30227.34
571.789	30192.52
571.987	30237.58
572.186	30428.04
572.384	30229.38
572.582	30393.22
572.781	30303.11
572.979	29870.99
573.177	29850.51
573.376	29969.29
573.574	29647.76
573.772	29690.77
573.971	29719.44
574.169	30063.5
574.367	29539.22
574.565	29545.36
574.763	29574.03
574.962	29455.25
575.16	29006.75
575.358	29526.93
575.556	29154.2
575.754	29561.75
575.952	28760.99
576.151	29066.14
576.349	28756.89
576.547	28695.46
576.745	29115.29
576.943	28875.68
577.141	28433.32
577.339	29025.18
577.537	28902.3
577.735	28347.3
577.933	28408.74
578.131	28330.92
578.329	28251.05
578.527	28089.26
578.725	28236.71
578.923	28109.74
579.121	27913.13
579.319	27771.82
579.516	27902.89
579.714	27868.08
579.912	27706.29
580.11	27898.8
580.308	27831.21
580.506	27669.42
580.704	27134.9
580.901	27526.07
581.099	27497.39
581.297	27216.82
581.495	27210.68
581.692	27038.65
581.89	26915.77
582.088	27368.37
582.285	27007.93
582.483	26960.83
582.681	26801.08
582.878	26540.99
583.076	26692.54
583.274	26803.13
583.471	26579.9
583.669	26325.96
583.866	26381.25
584.064	26717.12
584.262	26051.53
584.459	26215.37
584.657	26256.32
584.854	26493.89
585.052	26155.97
585.249	25940.94
585.447	25881.55
585.644	25746.38
585.841	26098.63
586.039	25805.77
586.236	25600.97
586.434	25570.26
586.631	25547.73
586.828	25600.97
587.026	25357.27
587.223	25263.06
587.42	25129.94
587.618	25175
587.815	25148.37
588.012	25007.06
588.21	24824.79
588.407	25291.73
588.604	24798.17
588.801	24734.68
588.999	25011.16
589.196	24452.06
589.393	24529.89
589.59	24476.64
589.787	24828.89
589.984	24396.77
590.182	24288.23
590.379	24386.53
590.576	24394.72
590.773	24163.3
590.97	24261.6
591.167	24216.55
591.364	24134.63
591.561	24122.34
591.758	23878.63
591.955	23841.77
592.152	24108.01
592.349	23686.12
592.546	23393.26
592.743	23577.58
592.94	23167.99
593.137	23337.97
593.334	23387.12
593.531	23161.84
593.727	23323.63
593.924	23270.39
594.121	22877.18
594.318	23012.34
594.515	22782.97
594.712	22957.05
594.908	22625.28
595.105	23028.73
595.302	22717.43
595.499	22662.14
595.696	22551.55
595.892	22094.85
596.089	22922.23
596.286	22559.74
596.482	22270.98
596.679	22125.57
596.876	22492.16
597.072	22060.04
597.269	21994.5
597.466	22012.93
597.662	21888.01
597.859	22008.84
598.055	21939.21
598.252	21605.39
598.448	21720.07
598.645	21775.37
598.841	21466.13
599.038	21521.42
599.234	21736.46
599.431	21285.9
599.627	21263.38
599.824	21423.12
600.02	21314.58
600.217	21230.61
600.413	20915.22
600.609	21232.66
600.806	20661.27
601.002	21136.4
601.198	20794.39
601.395	20581.4
601.591	20798.49
601.787	20630.55
601.984	20362.27
602.18	20728.86
602.376	20175.91
602.572	20390.94
602.769	20677.66
602.965	20108.32
603.161	20229.15
603.357	20245.54
603.553	19946.53
603.75	19983.4
603.946	20026.4
604.142	20089.89
604.338	19721.26
604.534	19930.15
604.73	19588.14
604.926	19833.89
605.122	19684.39
605.318	19307.57
605.514	19336.24
605.71	19385.39
605.906	19217.46
606.102	19268.66
606.298	19444.78
606.494	19262.51
606.69	19383.34
606.886	19403.82
607.082	19123.25
607.278	19160.11
607.474	18914.36
607.67	18996.28
607.866	18705.46
608.062	19168.3
608.257	18779.19
608.453	18875.45
608.649	18967.6
608.845	18568.25
609.041	18783.29
609.236	18674.74
609.432	18672.7
609.628	18762.81
609.824	18414.65
610.019	18334.78
610.215	18633.78
610.411	18582.59
610.606	18424.89
610.802	18103.36
610.998	18383.93
611.193	18474.04
611.389	18066.5
611.584	18041.92
611.78	18111.55
611.976	18211.9
612.171	18312.25
612.367	18007.11
612.562	18152.51
612.758	17865.8
612.953	17622.09
613.149	17996.87
613.344	17833.03
613.539	18033.73
613.735	17943.62
613.93	17695.82
614.126	17736.77
614.321	18021.44
614.517	17738.82
614.712	17861.7
614.907	17931.33
615.103	17773.64
615.298	17677.38
615.493	17599.56
615.688	17241.17
615.884	17720.39
616.079	17468.49
616.274	17265.74
616.47	17290.32
616.665	17390.67
616.86	17114.19
617.055	17224.78
617.25	17114.19
617.445	17476.68
617.641	16856.15
617.836	17245.26
618.031	16688.21
618.226	16954.45
618.421	16897.11
618.616	16829.52
618.811	16899.16
619.006	17073.23
619.201	16628.82
619.396	16735.32
619.591	16413.79
619.786	16917.59
619.981	16295
620.176	16618.58
620.371	16176.22
620.566	16378.97
620.761	16188.51
620.956	16358.49
621.151	15881.31
621.346	16225.37
621.541	15938.66
621.735	16014.43
621.93	15594.6
622.125	15559.78
622.32	15486.06
622.515	15684.71
622.709	15604.84
622.904	15412.33
623.099	15430.76
623.294	15322.22
623.488	14959.73
623.683	15142
623.878	14879.86
624.072	14951.54
624.267	14814.32
624.462	14771.32
624.656	14668.92
624.851	14636.15
625.046	14615.67
625.24	14425.21
625.435	14298.24
625.629	14124.16
625.824	14247.04
626.018	14294.14
626.213	13925.5
626.407	13982.85
626.602	14009.47
626.796	13982.85
626.991	14040.19
627.185	13669.51
627.38	13644.93
627.574	13644.93
627.768	13448.33
627.963	13651.08
628.157	13370.51
628.352	13479.05
628.546	12995.73
628.74	13239.44
628.935	12981.39
629.129	12944.53
629.323	12913.81
629.517	12936.34
629.712	12971.15
629.906	12625.04
630.1	12330.14
630.294	12813.46
630.489	12623
630.683	12571.8
630.877	12258.46
631.071	12428.44
631.265	12571.8
631.459	12215.45
631.653	12125.34
631.848	12162.2
632.042	12133.53
632.236	12082.33
632.43	11924.64
632.624	11904.16
632.818	11820.19
633.012	11547.81
633.206	11596.96
633.4	11703.46
633.594	11447.46
633.788	11500.71
633.982	11357.35
634.176	11551.91
634.369	11426.98
634.563	11203.75
634.757	11203.75
634.951	11289.77
635.145	11062.44
635.339	11457.7
635.533	10923.18
635.726	10958
635.92	10785.97
636.114	10732.72
636.308	10669.23
636.501	10663.09
636.695	10798.26
636.889	10638.51
637.083	10611.89
637.276	10650.8
637.47	10400.95
637.664	10464.44
637.857	10364.09
638.051	10433.72
638.244	10153.15
638.438	10036.41
638.632	10054.84
638.825	9929.92
639.019	9979.07
639.212	9878.72
639.406	10032.32
639.599	9817.28
639.793	9813.18
639.986	9624.77
640.18	9665.73
640.373	9575.62
640.567	9520.32
640.76	9350.34
640.954	9628.87
641.147	9551.04
641.34	9383.11
641.534	9471.17
641.727	9254.09
641.92	9102.54
642.114	8981.71
642.307	9358.53
642.5	9127.11
642.694	8801.49
642.887	8973.52
643.08	9024.72
643.273	8819.92
643.467	8830.16
643.66	8627.41
643.853	8926.41
644.046	8633.55
644.239	8701.14
644.432	8512.72
644.626	8635.6
644.819	8740.05
645.012	8469.72
645.205	8475.86
645.398	8463.57
645.591	8471.76
645.784	8346.84
645.977	8183
646.17	8236.25
646.363	8238.3
646.556	8174.81
646.749	8049.88
646.942	8131.8
647.135	8010.97
647.328	7836.89
647.521	7970.01
647.714	7869.66
647.907	7859.42
648.099	8033.5
648.292	7814.37
648.485	7791.84
648.678	7718.11
648.871	7744.74
649.064	7576.8
649.256	7726.3
649.449	7523.55
649.642	7605.47
649.835	7451.88
650.027	7509.22
650.22	7468.26
650.413	7353.57
650.605	7304.42
650.798	7212.26
650.991	7316.71
651.183	7156.97
651.376	6964.46
651.568	7154.92
651.761	7128.3
651.954	7148.78
652.146	6991.08
652.339	7011.56
652.531	7046.38
652.724	6843.63
652.916	6833.39
653.109	6825.2
653.301	6730.99
653.494	6630.64
653.686	6810.86
653.879	6690.03
654.071	6634.74
654.263	6636.78
654.456	6741.23
654.648	6644.98
654.84	6335.73
655.033	6362.36
655.225	6524.15
655.417	6288.63
655.61	6374.64
655.802	6440.18
655.994	6378.74
656.186	6341.88
656.379	6309.11
656.571	6302.97
656.763	5952.76
656.955	6155.51
657.148	6137.08
657.34	6147.32
657.532	6120.7
657.724	5993.72
657.916	5944.57
658.108	5942.52
658.3	5907.71
658.492	6030.59
658.684	5956.86
658.876	5915.9
659.068	5846.27
659.26	5797.12
659.452	5790.97
659.644	5831.93
659.836	5653.76
660.028	5561.6
660.22	5457.15
660.412	5602.56
660.604	5643.52
660.796	5661.95
660.988	5426.43
661.18	5457.15
661.372	5522.69
661.563	5610.75
661.755	5444.87
661.947	5408
662.139	5395.72
662.331	5348.61
662.522	5287.17
662.714	5340.42
662.906	5205.25
663.097	5260.55
663.289	5172.49
663.481	5221.64
663.673	5141.77
663.864	5012.74
664.056	4990.22
664.247	5092.62
664.439	4977.93
664.631	5111.05
664.822	4908.3
665.014	4865.29
665.205	4828.43
665.397	4904.2
665.588	5014.79
665.78	4785.42
665.971	4810
666.163	4840.72
666.354	4760.84
666.546	4797.71
666.737	4769.04
666.929	4814.09
667.12	4758.8
667.311	4781.32
667.503	4746.51
667.694	4597.01
667.885	4590.86
668.077	4611.34
668.268	4537.62
668.459	4521.23
668.651	4523.28
668.842	4465.94
669.033	4445.46
669.224	4336.92
669.416	4588.82
669.607	4633.87
669.798	4406.55
669.989	4461.84
670.18	4459.79
670.371	4416.79
670.563	4347.15
670.754	4377.87
670.945	4394.26
671.136	4207.89
671.327	4343.06
671.518	4199.7
671.709	4336.92
671.9	4386.07
672.091	4140.31
672.282	4142.36
672.473	4160.79
672.664	4234.52
672.855	4201.75
673.046	4031.77
673.237	4160.79
673.428	4158.74
673.619	4076.82
673.809	3945.75
674	4062.49
674.191	4160.79
674.382	4013.34
674.573	4013.34
674.764	3982.62
674.954	4013.34
675.145	3999
675.336	3943.71
675.527	3999
675.717	3943.71
675.908	3888.41
676.099	3865.88
676.289	4025.62
676.48	3994.9
676.671	3943.71
676.861	3941.66
677.052	3941.66
677.243	3757.34
677.433	3847.45
677.624	3777.82
677.814	3892.51
678.005	3865.88
678.195	3769.63
678.386	3771.68
678.576	3792.16
678.767	3794.2
678.957	3779.87
679.148	3925.27
679.338	3822.88
679.529	3761.44
679.719	3747.1
679.909	3687.71
680.1	3796.25
680.29	3706.14
680.481	3628.32
680.671	3618.08
680.861	3566.88
681.052	3634.46
681.242	3683.61
681.432	3697.95
681.622	3710.24
681.813	3677.47
682.003	3609.89
682.193	3659.04
682.383	3769.63
682.573	3712.28
682.764	3607.84
682.954	3648.8
683.144	3607.84
683.334	3480.86
683.524	3546.4
683.714	3521.82
683.904	3585.31
684.094	3462.43
684.284	3470.62
684.474	3759.39
684.664	3466.53
684.854	3564.83
685.044	3362.08
685.234	3407.14
685.424	3362.08
685.614	3429.66
685.804	3562.78
685.994	3353.89
686.184	3368.23
686.374	3400.99
686.564	3419.43
686.753	3175.72
686.943	3308.83
687.133	3435.81
687.323	3288.36
687.513	3249.44
687.702	3314.98
687.892	3325.22
688.082	3259.68
688.272	3284.26
688.461	3145
688.651	3202.34
688.841	3116.33
689.03	3255.59
689.22	3183.91
689.41	3116.33
689.599	3122.47
689.789	3226.92
689.979	2950.44
690.168	3065.13
690.358	3069.22
690.547	2966.82
690.737	3097.89
690.926	3007.78
691.116	2954.54
691.305	2954.54
691.495	2932.01
691.684	2866.47
691.874	2891.05
692.063	2897.19
692.252	2895.15
692.442	2950.44
692.631	2848.04
692.82	2858.28
693.01	2811.18
693.199	2821.42
693.388	2653.48
693.578	2852.14
693.767	2729.26
693.956	2716.97
694.146	2749.74
694.335	2647.34
694.524	2745.64
694.713	2727.21
694.902	2782.51
695.092	2643.24
695.281	2647.34
695.47	2645.29
695.659	2520.37
695.848	2583.85
696.037	2594.09
696.226	2594.09
696.415	2524.46
696.604	2487.6
696.793	2538.8
696.982	2657.58
697.171	2546.99
697.36	2506.03
697.549	2569.52
697.738	2503.98
697.927	2499.89
698.116	2444.59
698.305	2587.95
698.494	2553.13
698.683	2368.82
698.872	2407.73
699.061	2436.4
699.25	2336.05
699.438	2512.18
699.627	2321.71
699.816	2393.39
700.005	2434.35
700.193	2409.78
700.382	2440.5
700.571	2379.06
700.76	2319.67
700.948	2413.87
701.137	2411.82
701.326	2430.26
701.514	2377.01
701.703	2364.72
701.892	2432.3
702.08	2387.25
702.269	2417.97
702.457	2331.95
702.646	2252.08
702.834	2338.1
703.023	2397.49
703.212	2397.49
703.4	2307.38
703.589	2229.56
703.777	2311.47
703.965	2297.14
704.154	2293.04
704.342	2245.94
704.531	2309.43
704.719	2190.64
704.907	2204.98
705.096	2241.84
705.284	2346.29
705.472	2321.71
705.661	2368.82
705.849	2313.52
706.037	2303.28
706.226	2129.2
706.414	2225.46
706.602	2188.6
706.79	2262.32
706.979	2235.7
707.167	2348.34
707.355	2231.6
707.543	2336.05
707.731	2307.38
707.919	2293.04
708.107	2227.51
708.296	2227.51
708.484	2161.97
708.672	2239.8
708.86	2256.18
709.048	2250.03
709.236	2272.56
709.424	2186.55
709.612	2284.85
709.8	2362.67
709.988	2180.4
710.176	2381.1
710.364	2090.29
710.551	2155.83
710.739	2196.79
710.927	2219.32
711.115	2327.86
711.303	2276.66
711.491	2331.95
711.679	2227.51
711.866	2262.32
712.054	2303.28
712.242	2258.23
712.43	2346.29
712.617	2225.46
712.805	2276.66
712.993	2325.81
713.181	2231.6
713.368	2209.08
713.556	2319.67
713.744	2295.09
713.931	2264.37
714.119	2288.95
714.306	2245.94
714.494	2209.08
714.682	2307.38
714.869	2319.67
715.057	2360.63
715.244	2317.62
715.432	2319.67
715.619	2270.51
715.807	2331.95
715.994	2395.44
716.182	2299.19
716.369	2153.78
716.556	2348.34
716.744	2325.81
716.931	2417.97
717.119	2385.2
717.306	2315.57
717.493	2327.86
717.681	2247.99
717.868	2321.71
718.055	2340.15
718.242	2479.41
718.43	2352.43
718.617	2311.47
718.804	2411.82
718.991	2346.29
719.179	2397.49
719.366	2297.14
719.553	2219.32
719.74	2280.75
719.927	2319.67
720.114	2237.75
720.301	2471.22
720.488	2409.78
720.676	2297.14
720.863	2405.68
721.05	2217.27
721.237	2305.33
721.424	2260.27
721.611	2387.25
721.798	2356.53
721.985	2372.91
722.172	2348.34
722.358	2311.47
722.545	2254.13
722.732	2354.48
722.919	2499.89
723.106	2503.98
723.293	2395.44
723.48	2397.49
723.667	2405.68
723.853	2391.34
724.04	2346.29
724.227	2387.25
724.414	2331.95
724.6	2334
724.787	2415.92
724.974	2336.05
725.161	2479.41
725.347	2327.86
725.534	2393.39
725.72	2499.89
725.907	2409.78
726.094	2389.3
726.28	2348.34
726.467	2481.46
726.653	2424.11
726.84	2360.63
727.027	2465.07
727.213	2325.81
727.4	2463.02
727.586	2417.97
727.773	2350.39
727.959	2501.94
728.145	2424.11
728.332	2506.03
728.518	2383.15
728.705	2297.14
728.891	2362.67
729.077	2465.07
729.264	2413.87
729.45	2510.13
729.636	2475.31
729.823	2460.98
730.009	2479.41
730.195	2442.54
730.382	2483.5
730.568	2487.6
730.754	2495.79
730.94	2553.13
731.126	2534.7
731.313	2434.35
731.499	2491.7
731.685	2465.07
731.871	2475.31
732.057	2491.7
732.243	2467.12
732.429	2522.41
732.615	2377.01
732.801	2506.03
732.987	2413.87
733.173	2485.55
733.359	2403.63
733.545	2358.58
733.731	2514.22
733.917	2481.46
734.103	2460.98
734.289	2360.63
734.475	2465.07
734.661	2544.94
734.847	2393.39
735.033	2417.97
735.219	2391.34
735.404	2444.59
735.59	2368.82
735.776	2438.45
735.962	2346.29
736.148	2432.3
736.333	2536.75
736.519	2491.7
736.705	2479.41
736.89	2460.98
737.076	2458.93
737.262	2440.5
737.447	2354.48
737.633	2438.45
737.819	2325.81
738.004	2409.78
738.19	2479.41
738.375	2393.39
738.561	2432.3
738.747	2452.78
738.932	2417.97
739.118	2485.55
739.303	2336.05
739.489	2338.1
739.674	2460.98
739.859	2348.34
740.045	2360.63
740.23	2450.74
740.416	2307.38
740.601	2446.64
740.786	2293.04
740.972	2327.86
741.157	2352.43
741.342	2266.42
741.528	2280.75
741.713	2467.12
741.898	2307.38
742.084	2313.52
742.269	2303.28
742.454	2297.14
742.639	2284.85
742.824	2307.38
743.01	2192.69
743.195	2237.75
743.38	2274.61
743.565	2334
743.75	2299.19
743.935	2082.1
744.12	2307.38
744.305	2172.21
744.49	2235.7
744.675	2243.89
744.86	2172.21
745.045	2129.2
745.23	2241.84
745.415	2125.11
745.6	2188.6
745.785	2108.73
745.97	2055.48
746.155	2088.25
746.34	2094.39
746.525	2065.72
746.71	2073.91
746.895	2082.1
747.079	1983.8
747.264	2071.86
747.449	2041.14
747.634	2012.47
747.819	2080.05
748.003	2067.77
748.188	1959.22
748.373	1899.83
748.557	1991.99
748.742	1889.59
748.927	1944.89
749.111	1953.08
749.296	1860.92
749.481	1940.79
749.665	1860.92
749.85	1867.06
750.034	1967.42
750.219	1826.11
750.404	1809.72
750.588	1793.34
750.773	1877.3
750.957	1817.91
751.141	1854.78
751.326	1738.04
751.51	1842.49
751.695	1670.46
751.879	1799.48
752.064	1852.73
752.248	1766.71
752.432	1793.34
752.617	1695.04
752.801	1768.76
752.985	1744.19
753.17	1660.22
753.354	1670.46
753.538	1621.31
753.722	1701.18
753.907	1647.93
754.091	1621.31
754.275	1609.02
754.459	1590.59
754.643	1586.49
754.828	1596.73
755.012	1559.87
755.196	1492.29
755.38	1514.81
755.564	1604.92
755.748	1516.86
755.932	1480
756.116	1523.01
756.3	1553.73
756.484	1434.94
756.668	1574.21
756.852	1314.11
757.036	1398.08
757.22	1465.66
757.404	1373.5
757.588	1371.46
757.772	1416.51
757.956	1353.02
758.14	1441.09
758.323	1301.83
758.507	1475.9
758.691	1449.28
758.875	1277.25
759.059	1365.31
759.242	1310.02
759.426	1414.46
759.61	1361.22
759.794	1262.91
759.977	1303.87
760.161	1316.16
760.345	1316.16
760.528	1271.11
760.712	1264.96
760.895	1301.83
761.079	1254.72
761.263	1236.29
761.446	1172.8
761.63	1340.74
761.813	1146.18
761.997	1160.52
762.18	1209.67
762.364	1127.75
762.547	1090.88
762.731	1238.34
762.914	1211.71
763.098	1176.9
763.281	1137.99
763.464	1174.85
763.648	1152.32
763.831	1224
764.015	1082.69
764.198	1142.08
764.381	1144.13
764.564	1101.12
764.748	1183.04
764.931	1146.18
765.114	1084.74
765.297	1127.75
765.481	1033.54
765.664	1078.6
765.847	1041.73
766.03	1049.93
766.213	1070.4
766.397	1142.08
766.58	1088.84
766.763	1144.13
766.946	1070.4
767.129	968.01
767.312	1029.45
767.495	1043.78
767.678	1029.45
767.861	953.67
768.044	976.2
768.227	1049.93
768.41	1049.93
768.593	1049.93
768.776	970.05
768.959	990.53
769.142	988.49
769.324	982.34
769.507	935.24
769.69	1033.54
769.873	1033.54
770.056	1000.77
770.239	933.19
770.421	1058.12
770.604	1006.92
770.787	937.29
770.97	841.03
771.152	912.71
771.335	820.55
771.518	847.18
771.7	972.1
771.883	875.85
772.066	871.75
772.248	933.19
772.431	933.19
772.613	910.66
772.796	916.81
772.978	912.71
773.161	894.28
773.343	851.27
773.526	795.98
773.708	851.27
773.891	918.86
774.073	918.86
774.256	822.6
774.438	869.7
774.621	816.46
774.803	802.12
774.985	775.5
775.168	855.37
775.35	787.79
775.532	791.88
775.715	865.61
775.897	783.69
776.079	808.27
776.261	826.7
776.444	802.12
776.626	836.94
776.808	789.83
776.99	732.49
777.173	744.78
777.355	730.44
777.537	681.29
777.719	712.01
777.901	644.43
778.083	742.73
778.265	626
778.447	755.02
778.629	738.63
778.811	673.1
778.993	677.19
779.175	781.64
779.357	654.67
779.539	656.72
779.721	638.28
779.903	644.43
780.085	671.05
780.267	687.43
780.449	630.09
780.631	654.67
780.812	615.76
780.994	652.62
781.176	599.37
781.358	533.84
781.54	595.28
781.721	556.36
781.903	636.24
782.085	568.65
782.267	523.6
782.448	554.32
782.63	578.89
782.812	636.24
782.993	558.41
783.175	509.26
783.357	605.52
783.538	585.04
783.72	582.99
783.901	535.89
784.083	587.08
784.264	554.32
784.446	492.88
784.627	423.25
784.809	517.45
784.99	527.69
785.172	466.25
785.353	484.69
785.535	484.69
785.716	585.04
785.897	556.36
786.079	501.07
786.26	509.26
786.441	533.84
786.623	406.86
786.804	431.44
786.985	550.22
787.167	472.4
787.348	458.06
787.529	402.77
787.71	431.44
787.891	488.78
788.073	423.25
788.254	410.96
788.435	392.53
788.616	408.91
788.797	404.82
788.978	408.91
789.159	343.38
789.34	406.86
789.522	365.9
789.703	380.24
789.884	492.88
790.065	413.01
790.246	382.29
790.427	390.48
790.607	462.16
790.788	439.63
790.969	329.04
791.15	378.19
791.331	322.9
791.512	435.53
791.693	320.85
791.874	353.62
792.054	396.62
792.235	388.43
792.416	341.33
792.597	417.1
792.778	372.05
792.958	339.28
793.139	392.53
793.32	398.67
793.5	261.46
793.681	390.48
793.862	386.38
794.042	337.23
794.223	337.23
794.404	339.28
794.584	306.51
794.765	357.71
794.945	300.37
795.126	372.05
795.306	394.58
795.487	304.46
795.667	314.7
795.848	267.6
796.028	279.89
796.209	306.51
796.389	312.66
796.57	355.66
796.75	343.38
796.93	341.33
797.111	277.84
797.291	388.43
797.471	329.04
797.652	312.66
797.832	308.56
798.012	308.56
798.192	353.62
798.373	316.75
798.553	312.66
798.733	341.33
798.913	247.12
799.093	253.27
799.274	240.98
799.454	245.07
799.634	300.37
799.814	349.52
799.994	271.7
800.174	281.94
800.354	320.85
800.534	286.03
800.714	326.99
800.894	290.13
801.074	230.74
801.254	247.12
801.434	286.03
801.614	265.55
801.794	206.16
801.974	683.34
802.154	263.51
802.334	292.18
802.514	234.83
802.693	161.11
802.873	249.17
803.053	234.83
803.233	304.46
803.413	318.8
803.592	195.92
803.772	281.94
803.952	265.55
804.131	251.22
804.311	275.79
804.491	253.27
804.67	220.5
804.85	189.78
805.03	257.36
805.209	259.41
805.389	230.74
805.568	212.31
805.748	236.88
805.928	271.7
806.107	220.5
806.287	318.8
806.466	173.39
806.646	136.53
806.825	238.93
807.004	120.15
807.184	238.93
807.363	169.3
807.543	140.63
807.722	181.59
807.901	216.4
808.081	161.11
808.26	257.36
808.439	167.25
808.619	212.31
808.798	218.45
808.977	144.72
809.156	281.94
809.336	157.01
809.515	283.98
809.694	154.96
809.873	140.63
810.052	191.83
810.231	181.59
810.411	183.63
810.59	255.31
810.769	247.12
810.948	212.31
811.127	171.35
811.306	214.35
811.485	120.15
811.664	169.3
811.843	240.98
812.022	159.06
812.201	206.16
812.38	181.59
812.559	152.91
812.737	169.3
812.916	144.72
813.095	204.11
813.274	247.12
813.453	171.35
813.632	187.73
813.811	183.63
813.989	197.97
814.168	124.24
814.347	93.52
814.526	161.11
814.704	157.01
814.883	75.09
815.062	165.2
815.24	134.48
815.419	204.11
815.598	173.39
815.776	159.06
815.955	140.63
816.133	56.66
816.312	142.68
816.49	146.77
816.669	179.54
816.847	157.01
817.026	126.29
817.204	128.34
817.383	193.87
817.561	46.42
817.74	181.59
817.918	197.97
818.097	175.44
818.275	132.44
818.453	187.73
818.632	107.86
818.81	103.76
818.988	62.8
819.167	87.38
819.345	144.72
819.523	157.01
819.701	138.58
819.879	189.78
820.058	140.63
820.236	132.44
820.414	122.2
820.592	91.48
820.77	103.76
820.948	142.68
821.127	87.38
821.305	142.68
821.483	144.72
821.661	146.77
821.839	68.95
822.017	152.91
822.195	169.3
822.373	132.44
822.551	105.81
822.729	247.12
822.907	73.04
823.085	148.82
823.262	157.01
823.44	138.58
823.618	62.8
823.796	85.33
823.974	75.09
824.152	71
824.329	91.48
824.507	56.66
824.685	128.34
824.863	91.48
825.04	97.62
825.218	116.05
825.396	124.24
825.574	136.53
825.751	25.94
825.929	124.24
826.107	73.04
826.284	165.2
826.462	136.53
826.639	68.95
826.817	87.38
826.994	99.67
827.172	105.81
827.349	64.85
827.527	111.96
827.704	132.44
827.882	124.24
828.059	116.05
828.237	34.13
828.414	146.77
828.591	87.38
828.769	38.23
828.946	79.19
829.124	109.91
829.301	140.63
829.478	46.42
829.655	30.04
829.833	116.05
830.01	109.91
830.187	87.38
830.364	58.71
830.542	79.19
830.719	93.52
830.896	157.01
831.073	23.89
831.25	120.15
831.427	105.81
831.604	163.15
831.782	60.76
831.959	21.85
832.136	75.09
832.313	140.63
832.49	50.52
832.667	165.2
832.844	34.13
833.021	197.97
833.198	132.44
833.374	89.43
833.551	181.59
833.728	87.38
833.905	109.91
834.082	85.33
834.259	132.44
834.436	79.19
834.612	130.39
834.789	56.66
834.966	25.94
835.143	36.18
835.319	93.52
835.496	120.15
835.673	146.77
835.85	116.05
836.026	85.33
836.203	105.81
836.38	118.1
836.556	66.9
836.733	-35.5
836.909	99.67
837.086	7.51
837.262	46.42
837.439	32.08
837.616	36.18
837.792	58.71
837.968	91.48
838.145	52.56
838.321	58.71
838.498	114
838.674	54.61
838.851	32.08
839.027	83.28
839.203	73.04
839.38	52.56
839.556	-6.83
839.732	73.04
839.909	73.04
840.085	99.67
840.261	15.7
840.437	130.39
840.614	1.37
840.79	81.24
840.966	111.96
841.142	75.09
841.318	42.32
841.494	-6.83
841.671	79.19
841.847	68.95
842.023	50.52
842.199	21.85
842.375	-6.83
842.551	21.85
842.727	-15.02
842.903	85.33
843.079	38.23
843.255	120.15
843.431	25.94
843.607	79.19
843.783	91.48
843.959	17.75
844.134	3.41
844.31	89.43
844.486	25.94
844.662	3.41
844.838	-15.02
845.013	83.28
845.189	32.08
845.365	58.71
845.541	64.85
845.716	-4.78
845.892	64.85
846.068	81.24
846.244	75.09
846.419	-0.68
846.595	1.37
846.77	46.42
846.946	58.71
847.122	-4.78
847.297	64.85
847.473	73.04
847.648	85.33
847.824	54.61
847.999	54.61
848.175	71
848.35	-37.55
848.526	79.19
848.701	58.71
848.876	-45.74
849.052	38.23
849.227	109.91
849.403	50.52
849.578	34.13
849.753	46.42
849.929	91.48
850.104	-21.16
850.279	7.51
850.454	17.75
850.63	-23.21
850.805	130.39
850.98	17.75
851.155	-27.31
851.33	56.66
851.505	54.61
851.681	83.28
851.856	99.67
852.031	87.38
852.206	-39.59
852.381	52.56
852.556	-39.59
852.731	5.46
852.906	64.85
853.081	56.66
853.256	21.85
853.431	99.67
853.606	-10.92
853.781	-0.68
853.956	32.08
854.131	60.76
854.305	23.89
854.48	-43.69
854.655	-39.59
854.83	-10.92
855.005	36.18
855.18	44.37
855.354	-31.4
855.529	-94.89
855.704	50.52
855.879	62.8
856.053	50.52
856.228	-17.07
856.403	-15.02
856.577	56.66
856.752	-15.02
856.926	62.8
857.101	44.37
857.276	54.61
857.45	-6.83
857.625	15.7
857.799	11.61
857.974	105.81
858.148	54.61
858.323	87.38
858.497	13.65
858.672	27.99
858.846	19.8
859.02	46.42
859.195	-4.78
859.369	73.04
859.543	42.32
859.718	46.42
859.892	58.71
860.066	91.48
860.241	66.9
860.415	13.65
860.589	46.42
860.763	38.23
860.938	7.51
861.112	9.56
861.286	7.51
861.46	-10.92
861.634	91.48
861.808	40.28
861.982	34.13
862.157	30.04
862.331	13.65
862.505	19.8
862.679	-25.26
862.853	32.08
863.027	15.7
863.201	89.43
863.375	-6.83
863.549	101.72
863.722	25.94
863.896	11.61
864.07	7.51
864.244	25.94
864.418	13.65
864.592	38.23
864.766	79.19
864.939	-12.97
865.113	21.85
865.287	50.52
865.461	5.46
865.634	62.8
865.808	-35.5
865.982	71
866.156	-25.26
866.329	-2.73
866.503	-8.87
866.676	-27.31
866.85	44.37
867.024	46.42
867.197	-6.83
867.371	1.37
867.544	7.51
867.718	17.75
867.891	38.23
868.065	27.99
868.238	7.51
868.412	38.23
868.585	91.48
868.759	-31.4
868.932	89.43
869.105	-37.55
869.279	38.23
869.452	15.7
869.625	114
869.799	-33.45
869.972	13.65
870.145	46.42
870.319	-0.68
870.492	42.32
870.665	21.85
870.838	9.56
871.011	-23.21
871.185	-49.83
871.358	-43.69
871.531	21.85
871.704	1.37
871.877	73.04
872.05	-4.78
872.223	-15.02
872.396	25.94
872.569	17.75
872.742	50.52
872.915	34.13
873.088	-15.02
873.261	-25.26
873.434	-19.11
873.607	-4.78
873.78	11.61
873.953	34.13
874.126	25.94
874.299	32.08
874.471	11.61
874.644	-6.83
874.817	9.56
874.99	40.28
875.163	-21.16
875.335	17.75
875.508	-15.02
875.681	25.94
875.853	-27.31
876.026	-17.07
876.199	5.46
876.371	-12.97
876.544	21.85
876.717	56.66
876.889	-43.69
877.062	9.56
877.234	21.85
877.407	68.95
877.579	25.94
877.752	1.37
877.924	-55.98
878.097	-25.26
878.269	-27.31
878.442	-25.26
878.614	23.89
878.786	-31.4
878.959	32.08
879.131	1.37
879.303	-6.83
879.476	48.47
879.648	-6.83
879.82	-6.83
879.993	-41.64
880.165	34.13
880.337	5.46
880.509	11.61
880.681	15.7
880.854	-23.21
881.026	1.37
881.198	89.43
881.37	-6.83
881.542	-12.97
881.714	-25.26
881.886	-49.83
882.058	30.04
882.23	42.32
882.402	54.61
882.574	9.56
882.746	17.75
882.918	36.18
883.09	-4.78
883.262	-27.31
883.434	-39.59
883.606	75.09
883.778	13.65
883.95	71
884.122	-15.02
884.293	5.46
884.465	34.13
884.637	23.89
884.809	-88.75
884.98	-10.92
885.152	-17.07
885.324	-31.4
885.496	81.24
885.667	11.61
885.839	9.56
886.011	-39.59
886.182	9.56
886.354	-68.27
886.525	99.67
886.697	-27.31
886.869	17.75
887.04	9.56
887.212	27.99
887.383	46.42
887.555	85.33
887.726	-12.97
887.897	3.41
888.069	27.99
888.24	50.52
888.412	13.65
888.583	54.61
888.754	1.37
888.926	50.52
889.097	-62.12
889.268	34.13
889.44	-41.64
889.611	1.37
889.782	-88.75
889.953	-27.31
890.125	56.66
890.296	-49.83
890.467	3.41
890.638	32.08
890.809	23.89
890.98	-8.87
891.151	56.66
891.323	-31.4
891.494	3.41
891.665	1.37
891.836	-6.83
892.007	-6.83
892.178	-55.98
892.349	25.94
892.52	48.47
892.691	34.13
892.862	-2.73
893.032	-35.5
893.203	34.13
893.374	-0.68
893.545	9.56
893.716	21.85
893.887	-29.35
894.057	-15.02
894.228	-21.16
894.399	-8.87
894.57	7.51
894.74	17.75
894.911	58.71
895.082	5.46
895.253	-6.83
895.423	68.95
895.594	52.56
895.764	25.94
895.935	64.85
896.106	-31.4
896.276	-51.88
896.447	9.56
896.617	21.85
896.788	54.61
896.958	46.42
897.129	-8.87
897.299	-51.88
897.47	52.56
897.64	46.42
897.81	-10.92
897.981	-0.68
898.151	5.46
898.322	-39.59
898.492	-55.98
898.662	-60.07
898.832	-33.45
899.003	7.51
899.173	-51.88
899.343	-8.87
899.513	1.37
