Data from USB4F104151__1__11-29-28-318.txt Node

Date: Fri Mar 14 11:29:28 EDT 2025
User: louis
Spectrometer: USB4F10415
Trigger mode: 4
Integration Time (sec): 5.000000E-2
Scans to average: 1
Electric dark correction enabled: true
Nonlinearity correction enabled: false
Boxcar width: 0
XAxis mode: Wavelengths
Number of Pixels in Spectrum: 3648
>>>>>Begin Spectral Data<<<<<
178.204	-90.96
178.424	-90.96
178.644	-90.96
178.864	-129.88
179.084	-109.4
179.304	42.15
179.524	-39.76
179.744	-35.67
179.964	17.58
180.184	19.63
180.404	-4.95
180.624	-33.62
180.844	38.06
181.064	13.48
181.283	33.96
181.503	9.39
181.723	-60.24
181.943	48.3
182.163	54.44
182.383	-60.24
182.602	44.2
182.822	111.78
183.042	93.35
183.262	93.35
183.482	13.48
183.701	21.67
183.921	29.87
184.141	13.48
184.361	103.59
184.58	-19.29
184.8	54.44
185.02	5.29
185.239	66.73
185.459	-11.09
185.679	27.82
185.898	-2.9
186.118	111.78
186.338	60.59
186.557	38.06
186.777	21.67
186.997	103.59
187.216	66.73
187.436	113.83
187.655	17.58
187.875	44.2
188.095	3.24
188.314	101.55
188.534	99.5
188.753	60.59
188.973	142.5
189.192	115.88
189.412	54.44
189.631	-0.85
189.851	79.02
190.07	124.07
190.29	-21.33
190.509	33.96
190.729	72.87
190.948	95.4
191.168	124.07
191.387	70.83
191.607	50.35
191.826	-37.72
192.045	50.35
192.265	95.4
192.484	99.5
192.704	-19.29
192.923	-4.95
193.142	103.59
193.362	111.78
193.581	136.36
193.8	95.4
194.02	91.31
194.239	85.16
194.458	-23.38
194.678	-2.9
194.897	74.92
195.116	38.06
195.335	95.4
195.555	21.67
195.774	19.63
195.993	107.69
196.212	25.77
196.432	46.25
196.651	46.25
196.87	13.48
197.089	171.18
197.308	79.02
197.528	76.97
197.747	-11.09
197.966	91.31
198.185	109.74
198.404	68.78
198.623	60.59
198.842	99.5
199.062	91.31
199.281	70.83
199.5	66.73
199.719	97.45
199.938	50.35
200.157	52.39
200.376	19.63
200.595	64.68
200.814	68.78
201.033	17.58
201.252	87.21
201.471	40.11
201.69	101.55
201.909	46.25
202.128	-19.29
202.347	107.69
202.566	46.25
202.785	-19.29
203.004	48.3
203.223	66.73
203.442	13.48
203.661	17.58
203.879	33.96
204.098	33.96
204.317	19.63
204.536	140.46
204.755	48.3
204.974	111.78
205.193	99.5
205.411	111.78
205.63	93.35
205.849	87.21
206.068	83.11
206.287	31.91
206.505	50.35
206.724	9.39
206.943	44.2
207.162	56.49
207.381	87.21
207.599	101.55
207.818	66.73
208.037	31.91
208.255	13.48
208.474	58.54
208.693	-2.9
208.911	19.63
209.13	66.73
209.349	83.11
209.567	66.73
209.786	101.55
210.005	81.07
210.223	50.35
210.442	3.24
210.661	105.64
210.879	76.97
211.098	60.59
211.316	33.96
211.535	87.21
211.753	27.82
211.972	48.3
212.191	93.35
212.409	36.01
212.628	50.35
212.846	54.44
213.065	119.98
213.283	68.78
213.502	91.31
213.72	54.44
213.938	29.87
214.157	68.78
214.375	113.83
214.594	25.77
214.812	87.21
215.031	-43.86
215.249	27.82
215.467	91.31
215.686	27.82
215.904	85.16
216.122	-4.95
216.341	81.07
216.559	50.35
216.778	87.21
216.996	29.87
217.214	27.82
217.432	54.44
217.651	-37.72
217.869	38.06
218.087	-27.48
218.306	91.31
218.524	87.21
218.742	74.92
218.96	42.15
219.179	46.25
219.397	68.78
219.615	128.17
219.833	13.48
220.051	70.83
220.27	76.97
220.488	-11.09
220.706	95.4
220.924	85.16
221.142	29.87
221.36	27.82
221.578	13.48
221.796	105.64
222.015	72.87
222.233	124.07
222.451	150.7
222.669	19.63
222.887	126.12
223.105	13.48
223.323	31.91
223.541	83.11
223.759	79.02
223.977	62.63
224.195	81.07
224.413	95.4
224.631	29.87
224.849	79.02
225.067	76.97
225.285	85.16
225.503	23.72
225.721	-125.78
225.939	60.59
226.157	38.06
226.375	124.07
226.592	93.35
226.81	54.44
227.028	74.92
227.246	130.22
227.464	31.91
227.682	152.74
227.9	79.02
228.117	91.31
228.335	38.06
228.553	117.93
228.771	60.59
228.989	87.21
229.206	62.63
229.424	21.67
229.642	17.58
229.86	-27.48
230.077	87.21
230.295	181.42
230.513	52.39
230.731	79.02
230.948	111.78
231.166	74.92
231.384	-7
231.601	70.83
231.819	68.78
232.037	-15.19
232.254	21.67
232.472	13.48
232.689	-13.14
232.907	91.31
233.125	-27.48
233.342	109.74
233.56	11.43
233.777	107.69
233.995	103.59
234.213	87.21
234.43	27.82
234.648	44.2
234.865	70.83
235.083	23.72
235.3	27.82
235.518	11.43
235.735	68.78
235.953	107.69
236.17	85.16
236.388	70.83
236.605	101.55
236.822	119.98
237.04	144.55
237.257	58.54
237.475	25.77
237.692	62.63
237.909	42.15
238.127	58.54
238.344	119.98
238.562	87.21
238.779	52.39
238.996	81.07
239.214	107.69
239.431	99.5
239.648	68.78
239.865	91.31
240.083	93.35
240.3	29.87
240.517	-56.15
240.735	50.35
240.952	99.5
241.169	101.55
241.386	62.63
241.603	-19.29
241.821	87.21
242.038	111.78
242.255	64.68
242.472	27.82
242.689	87.21
242.907	66.73
243.124	150.7
243.341	60.59
243.558	38.06
243.775	60.59
243.992	-7
244.209	-19.29
244.426	93.35
244.643	42.15
244.86	38.06
245.078	-19.29
245.295	148.65
245.512	9.39
245.729	-2.9
245.946	111.78
246.163	5.29
246.38	36.01
246.597	44.2
246.814	113.83
247.031	130.22
247.248	103.59
247.464	99.5
247.681	56.49
247.898	23.72
248.115	87.21
248.332	105.64
248.549	42.15
248.766	128.17
248.983	136.36
249.2	-27.48
249.417	142.5
249.633	27.82
249.85	70.83
250.067	99.5
250.284	70.83
250.501	29.87
250.717	119.98
250.934	-11.09
251.151	21.67
251.368	9.39
251.585	66.73
251.801	50.35
252.018	85.16
252.235	54.44
252.451	21.67
252.668	40.11
252.885	9.39
253.102	97.45
253.318	64.68
253.535	72.87
253.752	17.58
253.968	-2.9
254.185	5.29
254.401	101.55
254.618	5.29
254.835	21.67
255.051	107.69
255.268	95.4
255.484	89.26
255.701	-9.05
255.917	17.58
256.134	5.29
256.351	64.68
256.567	36.01
256.784	-23.38
257	-31.57
257.217	191.66
257.433	46.25
257.65	165.03
257.866	101.55
258.082	-39.76
258.299	36.01
258.515	-2.9
258.732	1.19
258.948	-68.44
259.165	52.39
259.381	50.35
259.597	103.59
259.814	1.19
260.03	38.06
260.246	44.2
260.463	42.15
260.679	29.87
260.895	58.54
261.112	66.73
261.328	165.03
261.544	29.87
261.761	91.31
261.977	-9.05
262.193	-15.19
262.409	27.82
262.626	21.67
262.842	117.93
263.058	58.54
263.274	31.91
263.49	83.11
263.707	42.15
263.923	91.31
264.139	25.77
264.355	87.21
264.571	97.45
264.787	56.49
265.004	99.5
265.22	66.73
265.436	-17.24
265.652	40.11
265.868	83.11
266.084	11.43
266.3	9.39
266.516	-4.95
266.732	-23.38
266.948	79.02
267.164	58.54
267.38	1.19
267.596	115.88
267.812	87.21
268.028	23.72
268.244	46.25
268.46	29.87
268.676	95.4
268.892	72.87
269.108	70.83
269.324	17.58
269.54	11.43
269.756	76.97
269.972	29.87
270.188	79.02
270.403	52.39
270.619	70.83
270.835	-13.14
271.051	-13.14
271.267	101.55
271.483	66.73
271.698	54.44
271.914	7.34
272.13	62.63
272.346	111.78
272.562	29.87
272.777	62.63
272.993	-23.38
273.209	76.97
273.425	93.35
273.64	44.2
273.856	54.44
274.072	-2.9
274.287	-2.9
274.503	156.84
274.719	93.35
274.934	17.58
275.15	50.35
275.366	44.2
275.581	-29.52
275.797	21.67
276.012	85.16
276.228	50.35
276.444	136.36
276.659	42.15
276.875	103.59
277.09	25.77
277.306	29.87
277.521	91.31
277.737	48.3
277.952	29.87
278.168	79.02
278.383	-7
278.599	42.15
278.814	-31.57
279.03	5.29
279.245	76.97
279.461	74.92
279.676	83.11
279.892	54.44
280.107	38.06
280.322	21.67
280.538	111.78
280.753	101.55
280.969	64.68
281.184	50.35
281.399	99.5
281.615	52.39
281.83	74.92
282.045	-76.63
282.26	68.78
282.476	85.16
282.691	52.39
282.906	136.36
283.122	56.49
283.337	62.63
283.552	119.98
283.767	48.3
283.983	52.39
284.198	25.77
284.413	87.21
284.628	13.48
284.843	21.67
285.058	50.35
285.274	-25.43
285.489	76.97
285.704	36.01
285.919	-43.86
286.134	-11.09
286.349	25.77
286.564	36.01
286.779	87.21
286.995	58.54
287.21	25.77
287.425	68.78
287.64	48.3
287.855	42.15
288.07	76.97
288.285	93.35
288.5	-19.29
288.715	136.36
288.93	50.35
289.145	33.96
289.36	119.98
289.575	122.02
289.79	101.55
290.004	42.15
290.219	62.63
290.434	38.06
290.649	-27.48
290.864	-47.96
291.079	19.63
291.294	70.83
291.509	107.69
291.724	13.48
291.938	38.06
292.153	52.39
292.368	46.25
292.583	74.92
292.798	-7
293.012	87.21
293.227	68.78
293.442	52.39
293.657	9.39
293.871	17.58
294.086	38.06
294.301	105.64
294.516	103.59
294.73	54.44
294.945	-2.9
295.16	13.48
295.374	76.97
295.589	68.78
295.804	-37.72
296.018	13.48
296.233	62.63
296.447	9.39
296.662	40.11
296.877	91.31
297.091	122.02
297.306	52.39
297.52	23.72
297.735	87.21
297.949	79.02
298.164	33.96
298.378	128.17
298.593	62.63
298.807	83.11
299.022	50.35
299.236	62.63
299.451	119.98
299.665	-11.09
299.88	81.07
300.094	87.21
300.309	89.26
300.523	60.59
300.737	134.31
300.952	95.4
301.166	83.11
301.381	52.39
301.595	70.83
301.809	103.59
302.024	99.5
302.238	1.19
302.452	68.78
302.667	111.78
302.881	54.44
303.095	72.87
303.309	62.63
303.524	33.96
303.738	-19.29
303.952	79.02
304.166	165.03
304.381	38.06
304.595	13.48
304.809	50.35
305.023	31.91
305.237	93.35
305.452	9.39
305.666	117.93
305.88	19.63
306.094	158.89
306.308	36.01
306.522	210.09
306.736	38.06
306.95	36.01
307.164	54.44
307.379	3.24
307.593	101.55
307.807	25.77
308.021	9.39
308.235	85.16
308.449	56.49
308.663	79.02
308.877	79.02
309.091	44.2
309.305	136.36
309.519	56.49
309.733	79.02
309.947	36.01
310.161	50.35
310.374	128.17
310.588	97.45
310.802	62.63
311.016	31.91
311.23	3.24
311.444	46.25
311.658	111.78
311.872	152.74
312.085	136.36
312.299	91.31
312.513	68.78
312.727	15.53
312.941	21.67
313.154	81.07
313.368	44.2
313.582	48.3
313.796	85.16
314.009	-17.24
314.223	160.94
314.437	81.07
314.651	148.65
314.864	109.74
315.078	74.92
315.292	70.83
315.505	99.5
315.719	29.87
315.933	27.82
316.146	95.4
316.36	33.96
316.573	74.92
316.787	128.17
317.001	132.26
317.214	11.43
317.428	54.44
317.641	21.67
317.855	-19.29
318.068	46.25
318.282	56.49
318.495	126.12
318.709	5.29
318.922	83.11
319.136	156.84
319.349	134.31
319.563	54.44
319.776	17.58
319.99	46.25
320.203	103.59
320.417	113.83
320.63	5.29
320.843	169.13
321.057	115.88
321.27	44.2
321.483	58.54
321.697	99.5
321.91	54.44
322.124	38.06
322.337	52.39
322.55	38.06
322.763	101.55
322.977	62.63
323.19	48.3
323.403	25.77
323.617	144.55
323.83	109.74
324.043	111.78
324.256	109.74
324.469	40.11
324.683	42.15
324.896	111.78
325.109	17.58
325.322	93.35
325.535	-4.95
325.748	144.55
325.962	5.29
326.175	38.06
326.388	66.73
326.601	5.29
326.814	52.39
327.027	66.73
327.24	54.44
327.453	5.29
327.666	70.83
327.879	91.31
328.092	95.4
328.305	54.44
328.518	64.68
328.731	29.87
328.944	74.92
329.157	111.78
329.37	-11.09
329.583	83.11
329.796	175.27
330.009	79.02
330.222	76.97
330.435	-2.9
330.648	-11.09
330.861	27.82
331.073	95.4
331.286	70.83
331.499	9.39
331.712	48.3
331.925	56.49
332.138	74.92
332.35	95.4
332.563	93.35
332.776	95.4
332.989	70.83
333.202	17.58
333.414	46.25
333.627	54.44
333.84	167.08
334.053	9.39
334.265	83.11
334.478	60.59
334.691	46.25
334.903	99.5
335.116	33.96
335.329	87.21
335.541	46.25
335.754	111.78
335.966	68.78
336.179	5.29
336.392	29.87
336.604	167.08
336.817	52.39
337.029	44.2
337.242	79.02
337.454	42.15
337.667	5.29
337.88	160.94
338.092	66.73
338.305	140.46
338.517	50.35
338.729	134.31
338.942	107.69
339.154	11.43
339.367	11.43
339.579	64.68
339.792	109.74
340.004	54.44
340.217	76.97
340.429	81.07
340.641	11.43
340.854	44.2
341.066	11.43
341.278	66.73
341.491	175.27
341.703	76.97
341.915	70.83
342.128	15.53
342.34	21.67
342.552	-2.9
342.764	60.59
342.977	134.31
343.189	42.15
343.401	167.08
343.613	91.31
343.826	48.3
344.038	19.63
344.25	111.78
344.462	99.5
344.674	74.92
344.886	36.01
345.099	-23.38
345.311	62.63
345.523	85.16
345.735	31.91
345.947	54.44
346.159	87.21
346.371	60.59
346.583	52.39
346.795	158.89
347.007	29.87
347.219	58.54
347.431	66.73
347.643	5.29
347.855	54.44
348.067	95.4
348.279	13.48
348.491	-13.14
348.703	44.2
348.915	-9.05
349.127	52.39
349.339	19.63
349.551	38.06
349.763	111.78
349.975	62.63
350.187	31.91
350.399	13.48
350.61	144.55
350.822	52.39
351.034	124.07
351.246	142.5
351.458	103.59
351.669	27.82
351.881	91.31
352.093	101.55
352.305	169.13
352.517	60.59
352.728	70.83
352.94	5.29
353.152	130.22
353.363	54.44
353.575	62.63
353.787	76.97
353.999	83.11
354.21	201.9
354.422	54.44
354.633	-15.19
354.845	103.59
355.057	11.43
355.268	40.11
355.48	70.83
355.692	17.58
355.903	119.98
356.115	29.87
356.326	36.01
356.538	91.31
356.749	60.59
356.961	87.21
357.172	52.39
357.384	44.2
357.595	165.03
357.807	87.21
358.018	111.78
358.23	21.67
358.441	95.4
358.653	54.44
358.864	62.63
359.075	17.58
359.287	117.93
359.498	79.02
359.709	54.44
359.921	117.93
360.132	119.98
360.344	87.21
360.555	38.06
360.766	87.21
360.977	17.58
361.189	95.4
361.4	54.44
361.611	119.98
361.823	99.5
362.034	64.68
362.245	-88.92
362.456	109.74
362.667	52.39
362.879	27.82
363.09	9.39
363.301	85.16
363.512	101.55
363.723	1.19
363.935	44.2
364.146	152.74
364.357	3.24
364.568	144.55
364.779	38.06
364.99	109.74
365.201	13.48
365.412	5.29
365.623	-15.19
365.834	44.2
366.045	52.39
366.256	117.93
366.467	50.35
366.678	15.53
366.889	38.06
367.1	119.98
367.311	1.19
367.522	-7
367.733	169.13
367.944	79.02
368.155	62.63
368.366	154.79
368.577	62.63
368.788	140.46
368.999	95.4
369.209	93.35
369.42	79.02
369.631	142.5
369.842	54.44
370.053	17.58
370.264	144.55
370.474	111.78
370.685	38.06
370.896	58.54
371.107	70.83
371.317	97.45
371.528	113.83
371.739	62.63
371.95	152.74
372.16	60.59
372.371	11.43
372.582	-43.86
372.792	66.73
373.003	21.67
373.214	126.12
373.424	95.4
373.635	70.83
373.846	107.69
374.056	33.96
374.267	48.3
374.477	107.69
374.688	42.15
374.898	66.73
375.109	62.63
375.319	38.06
375.53	177.32
375.74	87.21
375.951	33.96
376.161	85.16
376.372	91.31
376.582	-4.95
376.793	58.54
377.003	25.77
377.214	60.59
377.424	87.21
377.635	62.63
377.845	21.67
378.055	173.22
378.266	62.63
378.476	31.91
378.686	70.83
378.897	76.97
379.107	140.46
379.317	85.16
379.528	46.25
379.738	111.78
379.948	66.73
380.158	111.78
380.369	79.02
380.579	29.87
380.789	115.88
380.999	99.5
381.21	103.59
381.42	87.21
381.63	83.11
381.84	68.78
382.05	115.88
382.261	144.55
382.471	60.59
382.681	79.02
382.891	68.78
383.101	91.31
383.311	101.55
383.521	42.15
383.731	38.06
383.941	70.83
384.151	89.26
384.361	46.25
384.571	132.26
384.781	76.97
384.991	46.25
385.201	42.15
385.411	99.5
385.621	101.55
385.831	42.15
386.041	199.85
386.251	3.24
386.461	93.35
386.671	109.74
386.881	101.55
387.091	36.01
387.301	144.55
387.511	103.59
387.72	152.74
387.93	107.69
388.14	70.83
388.35	103.59
388.56	115.88
388.769	44.2
388.979	54.44
389.189	23.72
389.399	115.88
389.609	122.02
389.818	138.41
390.028	11.43
390.238	128.17
390.447	13.48
390.657	136.36
390.867	52.39
391.076	50.35
391.286	48.3
391.496	103.59
391.705	40.11
391.915	60.59
392.125	117.93
392.334	101.55
392.544	93.35
392.753	95.4
392.963	54.44
393.172	140.46
393.382	54.44
393.591	144.55
393.801	72.87
394.01	142.5
394.22	165.03
394.429	62.63
394.639	70.83
394.848	158.89
395.058	42.15
395.267	95.4
395.477	144.55
395.686	150.7
395.895	109.74
396.105	208.04
396.314	93.35
396.524	111.78
396.733	109.74
396.942	105.64
397.152	117.93
397.361	167.08
397.57	76.97
397.78	74.92
397.989	101.55
398.198	208.04
398.407	109.74
398.617	58.54
398.826	158.89
399.035	87.21
399.244	175.27
399.453	218.28
399.663	144.55
399.872	124.07
400.081	117.93
400.29	115.88
400.499	173.22
400.708	103.59
400.917	99.5
401.127	85.16
401.336	29.87
401.545	199.85
401.754	158.89
401.963	144.55
402.172	99.5
402.381	79.02
402.59	136.36
402.799	175.27
403.008	136.36
403.217	126.12
403.426	119.98
403.635	99.5
403.844	144.55
404.053	156.84
404.262	136.36
404.471	193.7
404.68	97.45
404.888	138.41
405.097	150.7
405.306	224.42
405.515	167.08
405.724	140.46
405.933	193.7
406.142	216.23
406.35	144.55
406.559	177.32
406.768	136.36
406.977	238.76
407.185	169.13
407.394	218.28
407.603	240.81
407.812	191.66
408.02	298.15
408.229	292.01
408.438	193.7
408.646	281.77
408.855	232.62
409.064	267.43
409.272	240.81
409.481	251.05
409.69	222.38
409.898	267.43
410.107	308.39
410.315	232.62
410.524	259.24
410.733	257.19
410.941	339.11
411.15	371.88
411.358	363.69
411.567	421.03
411.775	337.06
411.984	431.27
412.192	449.7
412.401	437.41
412.609	513.19
412.818	464.04
413.026	496.8
413.234	519.33
413.443	515.23
413.651	498.85
413.86	496.8
414.068	642.21
414.276	625.83
414.485	574.63
414.693	609.44
414.901	699.55
415.11	636.06
415.318	668.83
415.526	662.69
415.734	726.18
415.943	685.22
416.151	763.04
416.359	830.62
416.567	781.47
416.776	832.67
416.984	887.97
417.192	912.54
417.4	914.59
417.608	857.25
417.817	873.63
418.025	1084.57
418.233	1074.33
418.441	1021.08
418.649	1078.43
418.857	1170.58
419.065	1193.11
419.273	1131.67
419.481	1287.32
419.689	1307.8
419.897	1410.2
420.105	1410.2
420.313	1440.92
420.521	1541.27
420.729	1561.75
420.937	1451.16
421.145	1594.51
421.353	1643.67
421.561	1698.96
421.769	1770.64
421.977	1881.23
422.185	2014.35
422.393	1864.85
422.601	2106.51
422.809	2114.7
423.017	2110.6
423.224	2237.58
423.432	2290.82
423.64	2292.87
423.848	2487.43
424.056	2430.09
424.263	2716.8
424.471	2577.54
424.679	2739.33
424.887	2804.86
425.094	2966.65
425.302	2888.83
425.51	3028.09
425.718	3179.64
425.925	3179.64
426.133	3253.37
426.341	3413.11
426.548	3556.47
426.756	3591.28
426.964	3503.22
427.171	3794.03
427.379	3982.45
427.586	4047.98
427.794	4021.36
428.001	4281.45
428.209	4508.77
428.417	4465.77
428.624	4805.73
428.832	4818.02
429.039	4746.34
429.247	4723.81
429.454	5205.08
429.662	5557.33
429.869	5198.94
430.076	5540.95
430.284	5377.11
430.491	5762.13
430.699	5848.15
430.906	6050.89
431.114	6116.43
431.321	6392.91
431.528	6466.63
431.736	6704.2
431.943	6999.1
432.15	6818.88
432.358	7124.03
432.565	7255.1
432.772	7216.19
432.979	7605.3
433.187	7828.53
433.394	8023.09
433.601	8199.21
433.808	8393.77
434.016	8422.44
434.223	8604.71
434.43	9219.1
434.637	9040.93
434.844	9700.37
435.052	9913.36
435.259	9810.96
435.466	9804.82
435.673	9694.23
435.88	10398.73
436.087	11037.7
436.294	11027.46
436.501	10667.02
436.708	11047.94
436.915	11256.83
437.122	11701.24
437.329	11660.28
437.537	12200.94
437.743	12409.84
437.95	12329.97
438.157	13063.14
438.364	13263.84
438.571	13446.11
438.778	13523.93
438.985	14509.01
439.192	14021.59
439.399	14345.17
439.606	14068.69
439.813	14658.51
440.02	15819.71
440.227	15619
440.433	15381.44
440.64	15944.63
440.847	15875
441.054	16300.98
441.261	17427.36
441.467	17214.37
441.674	17685.4
441.881	18328.47
442.088	17896.35
442.294	18029.46
442.501	18600.85
442.708	18756.49
442.914	19610.5
443.121	20282.23
443.328	19669.89
443.534	21281.64
443.741	20597.62
443.948	20409.2
444.154	21918.56
444.361	21746.53
444.568	21965.66
444.774	21965.66
444.981	22098.78
445.187	22778.7
445.394	23984.96
445.6	23393.09
445.807	25436.97
446.013	24652.59
446.22	24980.27
446.426	26209.05
446.633	26352.41
446.839	27218.7
447.046	25795.36
447.252	27386.63
447.459	27497.22
447.665	27177.74
447.871	28525.3
448.078	29887.2
448.284	28609.27
448.491	29086.45
448.697	30233.31
448.903	30939.86
449.11	30812.88
449.316	29979.36
449.522	30638.81
449.728	31918.79
449.935	31820.49
450.141	32039.62
450.347	32496.31
450.553	31892.16
450.76	32033.47
450.966	33268.4
451.172	32375.48
451.378	33630.89
451.584	32797.37
451.791	33596.07
451.997	33235.63
452.203	34007.72
452.409	33974.95
452.615	33594.03
452.821	32457.4
453.027	32017.09
453.233	33829.54
453.44	32676.54
453.646	32778.93
453.852	32934.58
454.058	33266.35
454.264	31976.13
454.47	33090.23
454.676	32103.1
454.882	33133.23
455.088	30196.45
455.294	30757.59
455.5	31195.85
455.705	31613.64
455.911	30339.8
456.117	29412.07
456.323	28977.9
456.529	27372.3
456.735	28797.68
456.941	27960.06
457.147	27327.24
457.352	26663.7
457.558	26333.98
457.764	26288.92
457.97	26125.08
458.176	25281.32
458.381	25148.2
458.587	23946.05
458.793	23829.31
458.999	22790.99
459.204	24421.17
459.41	23724.86
459.616	22033.24
459.821	21994.33
460.027	21947.23
460.233	21570.4
460.438	20783.98
460.644	20767.6
460.85	19755.9
461.055	19344.26
461.261	19440.51
461.466	17953.69
461.672	17341.35
461.878	18535.31
462.083	17443.74
462.289	17187.75
462.494	16761.77
462.7	16171.96
462.905	16016.31
463.111	16286.64
463.316	16462.77
463.522	16053.17
463.727	15975.35
463.932	16012.21
464.138	15709.11
464.343	15909.82
464.549	15371.2
464.754	15797.18
464.959	15692.73
465.165	15518.65
465.37	15188.93
465.575	14656.46
465.781	15133.64
465.986	15225.79
466.191	14830.54
466.397	14320.59
466.602	13898.71
466.807	14353.36
467.012	14328.78
467.218	13951.96
467.423	13800.41
467.628	14009.3
467.833	14648.27
468.038	14062.55
468.244	13829.08
468.449	14162.9
468.654	13847.51
468.859	13689.82
469.064	13607.9
469.269	13009.89
469.474	13245.41
469.679	13655
469.885	12919.78
470.09	13208.55
470.295	13130.72
470.5	12803.05
470.705	12891.11
470.91	12555.24
471.115	12504.04
471.32	12512.24
471.525	12624.87
471.73	12495.85
471.935	12329.97
472.139	11772.92
472.344	12022.77
472.549	11822.07
472.754	11715.58
472.959	11490.3
473.164	11230.21
473.369	11092.99
473.574	11439.1
473.778	11416.57
473.983	11107.33
474.188	11269.12
474.393	10769.41
474.598	10890.24
474.802	10552.33
475.007	10587.15
475.212	10513.42
475.417	10288.14
475.621	10175.5
475.826	10335.24
476.031	9804.82
476.235	9802.77
476.44	9899.03
476.645	9716.76
476.849	9856.02
477.054	9790.49
477.259	9548.82
477.463	9530.39
477.668	9376.8
477.872	9352.22
478.077	9159.71
478.282	9186.33
478.486	9118.75
478.691	8721.45
478.895	8926.24
479.1	8817.7
479.304	8889.38
479.509	8586.28
479.713	8623.14
479.918	8596.52
480.122	8361
480.326	8576.04
480.531	8573.99
480.735	8465.45
480.94	8412.2
481.144	8770.6
481.348	8148.01
481.553	8487.98
481.757	8041.52
481.961	8256.56
482.166	8389.67
482.37	8348.72
482.574	8234.03
482.778	8205.36
482.983	8072.24
483.187	7998.51
483.391	8137.77
483.595	8076.34
483.8	8111.15
484.004	8311.85
484.208	8293.42
484.412	8041.52
484.616	8213.55
484.821	8229.93
485.025	8197.17
485.229	8363.05
485.433	8035.38
485.637	7955.51
485.841	8133.68
486.045	8184.88
486.249	8119.34
486.453	8066.1
486.657	8039.47
486.861	8442.92
487.065	7689.27
487.269	8252.46
487.473	8016.94
487.677	8186.93
487.881	8231.98
488.085	8150.06
488.289	8135.73
488.493	8170.54
488.697	8217.65
488.901	8229.93
489.105	8031.28
489.309	8170.54
489.512	8287.28
489.716	8246.32
489.92	8356.91
490.124	8252.46
490.328	8440.87
490.531	8211.5
490.735	8686.63
490.939	8389.67
491.143	8250.41
491.346	8322.09
491.55	8590.38
491.754	8553.51
491.958	8516.65
492.161	8551.46
492.365	8598.57
492.569	8494.12
492.772	8621.1
492.976	8633.38
493.18	8817.7
493.383	8885.28
493.587	8875.04
493.79	9092.13
493.994	8868.9
494.197	9016.35
494.401	9079.84
494.605	8784.93
494.808	9540.63
495.012	9333.79
495.215	9401.37
495.419	9483.29
495.622	9217.05
495.825	9540.63
496.029	9427.99
496.232	9946.13
496.436	9608.22
496.639	10009.62
496.843	9925.65
497.046	10036.24
497.249	10163.22
497.453	10165.26
497.656	10404.88
497.859	10091.54
498.063	10152.98
498.266	10656.78
498.469	10642.44
498.673	10820.61
498.876	10585.1
499.079	10996.74
499.282	11187.2
499.485	11316.22
499.689	11375.61
499.892	11555.83
500.095	11736.06
500.298	11727.86
500.501	11793.4
500.705	11936.76
500.908	12078.07
501.111	12299.25
501.314	12260.34
501.517	12620.78
501.72	12725.22
501.923	12436.46
502.126	12874.73
502.329	13247.46
502.532	13042.66
502.735	13341.66
502.938	13585.37
503.141	13511.64
503.344	13767.64
503.547	13777.88
503.75	13816.79
503.953	14214.1
504.156	14308.3
504.359	14398.41
504.562	14361.55
504.765	14896.07
504.968	14898.12
505.17	15010.76
505.373	15156.16
505.576	15410.11
505.779	15676.35
505.982	15731.64
506.185	15668.16
506.387	16139.19
506.59	16106.42
506.793	16430
506.996	16626.6
507.198	17034.15
507.401	16747.44
507.604	17232.8
507.807	17294.24
508.009	17453.98
508.212	17681.31
508.415	17718.17
508.617	17931.16
508.82	17968.02
509.022	18189.21
509.225	18529.17
509.428	18746.25
509.63	19022.73
509.833	18813.84
510.035	19303.3
510.238	19053.45
510.44	19553.15
510.643	19923.83
510.845	19991.42
511.048	19960.7
511.25	20050.81
511.453	20181.88
511.655	20857.71
511.858	20644.72
512.06	20796.27
512.262	21355.36
512.465	21216.1
512.667	21709.66
512.87	21783.39
513.072	21885.79
513.274	22276.95
513.477	22434.64
513.679	22782.8
513.881	22846.29
514.084	22965.07
514.286	23194.44
514.488	22981.45
514.69	24257.34
514.893	23917.37
515.095	23849.79
515.297	24230.71
515.499	24263.48
515.701	24763.18
515.904	25164.59
516.106	25203.5
516.308	25479.97
516.51	25934.62
516.712	25625.38
516.914	26022.69
517.116	26592.02
517.318	26510.1
517.52	26489.62
517.722	26759.95
517.925	27263.75
518.127	27720.45
518.329	27785.99
518.531	27566.85
518.733	28572.41
518.935	28672.76
519.136	28390.14
519.338	29006.58
519.54	28881.65
519.742	29315.82
519.944	29749.99
520.146	29864.67
520.348	29917.92
520.55	30462.68
520.752	30706.39
520.954	30917.33
521.155	30511.83
521.357	31236.81
521.559	31519.43
521.761	31752.9
521.963	32012.99
522.164	32070.34
522.366	32385.72
522.568	32676.54
522.77	32766.65
522.971	33745.58
523.173	32953.01
523.375	33573.55
523.576	33786.54
523.778	34177.7
523.98	34425.5
524.181	34398.88
524.383	34353.82
524.584	34833.05
524.786	35150.48
524.988	35021.46
525.189	35764.87
525.391	35721.87
525.592	35793.54
525.794	36057.73
525.995	36330.11
526.197	36201.09
526.398	36833.91
526.6	36450.94
526.801	37128.82
527.003	36981.37
527.204	37139.06
527.406	37993.06
527.607	37421.68
527.808	38234.72
528.01	37575.28
528.211	37581.42
528.412	38947.42
528.614	38388.32
528.815	38527.58
529.016	39103.06
529.218	38290.02
529.419	38732.38
529.62	38926.94
529.822	39111.25
530.023	39164.5
530.224	39463.5
530.425	39213.65
530.626	39189.08
530.828	39240.28
531.029	39971.4
531.23	39735.88
531.431	39729.74
531.632	39629.39
531.833	40208.97
532.035	40505.92
532.236	40301.12
532.437	40272.45
532.638	40241.73
532.839	40647.23
533.04	40827.45
533.241	40247.88
533.442	41165.37
533.643	40565.31
533.844	40731.2
534.045	41048.63
534.246	40280.64
534.447	41364.02
534.648	40780.35
534.849	41128.5
535.05	41077.3
535.251	41298.48
535.451	41013.82
535.652	41269.81
535.853	41325.11
536.054	41425.46
536.255	41708.08
536.456	41130.55
536.657	41814.57
536.857	41185.85
537.058	41069.11
537.259	41652.78
537.46	41327.16
537.66	41263.67
537.861	41200.18
538.062	41527.86
538.263	41669.17
538.463	41515.57
538.664	41265.72
538.865	41595.44
539.065	41486.9
539.266	41292.34
539.466	41941.55
539.667	40823.36
539.868	41955.88
540.068	41216.57
540.269	41335.35
540.469	41667.12
540.67	41263.67
540.87	41108.02
541.071	41187.89
541.271	41574.96
541.472	41568.82
541.672	41261.62
541.873	41454.13
542.073	40708.67
542.274	41617.97
542.474	41386.55
542.675	41243.19
542.875	41718.32
543.075	41194.04
543.276	40944.19
543.476	41691.69
543.676	41482.8
543.877	41454.13
544.077	41435.7
544.277	41323.06
544.478	41220.66
544.678	41273.91
544.878	41112.12
545.078	41312.82
545.279	41155.13
545.479	41210.42
545.679	41376.31
545.879	41110.07
546.079	41011.77
546.28	41177.65
546.48	40817.21
546.68	41355.83
546.88	41263.67
547.08	40892.99
547.28	41132.6
547.48	40733.25
547.68	41151.03
547.88	41255.48
548.081	41398.83
548.281	41288.24
548.481	40669.76
548.681	41562.67
548.881	41146.93
549.081	40985.15
549.28	40755.77
549.48	41226.81
549.68	40935.99
549.88	41130.55
550.08	41134.65
550.28	41273.91
550.48	40983.1
550.68	40954.43
550.88	41148.98
551.08	41132.6
551.279	41218.61
551.479	40827.45
551.679	41163.32
551.879	41013.82
552.079	41302.58
552.278	41011.77
552.478	40733.25
552.678	40819.26
552.878	40815.16
553.077	40677.95
553.277	40125
553.477	41374.26
553.676	40614.46
553.876	40774.2
554.076	40557.12
554.275	40708.67
554.475	40094.28
554.674	40528.45
554.874	40737.34
555.074	40340.04
555.273	40806.97
555.473	40604.22
555.672	40229.44
555.872	39971.4
556.071	40450.63
556.271	40458.82
556.47	40174.15
556.67	39928.39
556.869	39598.67
557.068	40249.92
557.268	39860.81
557.467	39973.45
557.667	39885.39
557.866	39969.35
558.065	39371.35
558.265	39322.19
558.464	39318.1
558.663	39510.61
558.863	39328.34
559.062	39475.79
559.261	38730.33
559.461	39950.92
559.66	38685.28
559.859	38896.22
560.058	38722.14
560.258	38826.59
560.457	38793.82
560.656	38935.13
560.855	38373.99
561.054	38593.12
561.253	37950.06
561.453	38324.83
561.652	38257.25
561.851	38484.58
562.05	38220.39
562.249	38001.25
562.448	37861.99
562.647	38095.46
562.846	37868.14
563.045	37720.68
563.244	37180.02
563.443	37767.79
563.642	36784.76
563.841	37823.08
564.04	37087.86
564.239	37145.2
564.438	36901.5
564.637	36717.18
564.836	36831.86
565.035	36846.2
565.234	36584.06
565.432	36289.15
565.631	36485.76
565.83	36436.61
566.029	36340.35
566.228	35951.24
566.427	35930.76
566.625	35678.86
566.824	35455.63
567.023	35662.47
567.222	35113.62
567.42	35463.82
567.619	35084.95
567.818	34751.13
568.016	34677.4
568.215	35037.84
568.414	35177.11
568.612	34964.12
568.811	34511.52
569.01	34527.9
569.208	33856.17
569.407	34220.7
569.605	33637.03
569.804	34243.23
570.002	34056.87
570.201	33790.63
570.4	33632.94
570.598	33491.63
570.797	33016.5
570.995	33194.67
571.193	33012.4
571.392	33368.75
571.59	32926.39
571.789	32762.55
571.987	32688.82
572.186	33041.07
572.384	32510.65
572.582	32553.66
572.781	32537.27
572.979	31742.66
573.177	32211.65
573.376	32127.68
573.574	31730.37
573.772	32277.18
573.971	31693.51
574.169	31503.05
574.367	31279.82
574.565	31466.19
574.763	31224.53
574.962	31105.74
575.16	30882.52
575.358	31279.82
575.556	30878.42
575.754	31220.43
575.952	30546.65
576.151	31048.4
576.349	30417.63
576.547	30339.8
576.745	30505.69
576.943	30640.86
577.141	30216.93
577.339	30092
577.537	29885.15
577.735	29895.39
577.933	29764.32
578.131	29942.5
578.329	29477.61
578.527	29541.1
578.725	29227.76
578.923	29809.38
579.121	29543.14
579.319	29020.91
579.516	29369.07
579.714	28914.42
579.912	28990.19
580.11	28693.24
580.308	28777.2
580.506	28947.18
580.704	28183.29
580.901	28338.94
581.099	28687.09
581.297	28046.08
581.495	28316.41
581.692	28287.74
581.89	28158.72
582.088	28177.15
582.285	27759.36
582.483	28056.32
582.681	28181.24
582.878	27370.25
583.076	27654.92
583.274	27425.54
583.471	27503.37
583.669	27474.7
583.866	27153.16
584.064	27411.21
584.262	26868.5
584.459	27204.36
584.657	26921.74
584.854	27134.73
585.052	26596.12
585.249	26768.15
585.447	26622.74
585.644	26508.05
585.841	26735.38
586.039	26471.19
586.236	26303.26
586.434	26213.15
586.631	26331.93
586.828	26172.19
587.026	25926.43
587.223	25944.86
587.42	25883.42
587.618	25807.65
587.815	25836.32
588.012	25617.19
588.21	25518.89
588.407	25684.77
588.604	25133.87
588.801	25455.4
588.999	25350.95
589.196	25533.22
589.393	25264.94
589.59	24988.46
589.787	24937.26
589.984	24965.93
590.182	24810.29
590.379	24974.13
590.576	24929.07
590.773	24464.18
590.97	24517.43
591.167	24400.69
591.364	24130.36
591.561	24517.43
591.758	24120.12
591.955	24118.07
592.152	24087.36
592.349	23860.03
592.546	23726.91
592.743	24058.68
592.94	23688
593.137	23563.08
593.334	23661.38
593.531	23270.22
593.727	23520.07
593.924	23429.96
594.121	23446.34
594.318	23438.15
594.515	22901.58
594.712	23257.93
594.908	23194.44
595.105	23184.2
595.302	22686.54
595.499	22960.97
595.696	22649.68
595.892	22627.15
596.089	22881.1
596.286	22649.68
596.482	22432.6
596.679	22448.98
596.876	22485.84
597.072	22117.21
597.269	22606.67
597.466	22121.31
597.662	22170.46
597.859	22313.81
598.055	22393.68
598.252	21597.03
598.448	21875.55
598.645	21472.1
598.841	21414.76
599.038	21459.81
599.234	21623.65
599.431	21279.59
599.627	21381.99
599.824	21345.12
600.02	21255.01
600.217	21144.42
600.413	21353.32
600.609	20966.25
600.806	20786.03
601.002	20888.43
601.198	20804.46
601.395	20917.1
601.591	20865.9
601.787	20704.11
601.984	20738.93
602.18	20927.34
602.376	20607.86
602.572	20405.11
602.769	20351.86
602.965	20188.02
603.161	20341.62
603.357	20251.51
603.553	20286.33
603.75	20048.76
603.946	19919.74
604.142	20231.03
604.338	19712.89
604.534	19886.97
604.73	19749.76
604.926	19725.18
605.122	19673.98
605.318	19428.23
605.514	19571.58
605.71	19327.88
605.906	19377.03
606.102	19379.07
606.298	19438.47
606.494	19219.33
606.69	19254.15
606.886	19098.5
607.082	18879.37
607.278	19348.36
607.474	18740.11
607.67	19020.68
607.866	18600.85
608.062	18971.53
608.257	18934.67
608.453	18422.67
608.649	18738.06
608.845	18422.67
609.041	18451.35
609.236	18498.45
609.432	18629.52
609.628	18453.39
609.824	18305.94
610.019	18125.72
610.215	18365.33
610.411	18197.4
610.606	18086.81
610.802	18264.98
610.998	17998.74
611.193	18275.22
611.389	17906.59
611.584	18109.33
611.78	17941.4
611.976	17707.93
612.171	18068.37
612.367	17970.07
612.562	17800.09
612.758	17324.96
612.953	17353.63
613.149	17912.73
613.344	17527.71
613.539	17580.96
613.735	17425.31
613.93	17628.06
614.126	17241
614.321	17564.57
614.517	17466.27
614.712	17382.31
614.907	17318.82
615.103	17351.59
615.298	17204.13
615.493	17181.6
615.688	16946.09
615.884	17503.14
616.079	17208.23
616.274	17269.67
616.47	16800.68
616.665	17144.74
616.86	16966.57
617.055	16714.67
617.25	16886.7
617.445	17134.5
617.641	16815.02
617.836	16726.96
618.031	16550.83
618.226	16638.89
618.421	16786.35
618.616	16894.89
618.811	16399.28
619.006	16618.41
619.201	16124.85
619.396	16122.8
619.591	15897.53
619.786	16397.23
619.981	16071.61
620.176	16153.52
620.371	15875
620.566	15784.89
620.761	15885.24
620.956	15938.49
621.151	15784.89
621.346	15885.24
621.541	15385.54
621.735	15410.11
621.93	15180.74
622.125	15223.75
622.32	15051.72
622.515	15141.83
622.709	15016.9
622.904	15008.71
623.099	14760.91
623.294	14840.78
623.488	14676.94
623.683	14726.09
623.878	14549.96
624.072	14513.1
624.267	14588.88
624.462	14554.06
624.656	14287.82
624.851	14310.35
625.046	14255.06
625.24	14085.08
625.435	14054.36
625.629	13923.29
625.824	13521.88
626.018	13999.06
626.213	13548.51
626.407	13661.15
626.602	13462.49
626.796	13659.1
626.991	13724.63
627.185	13525.98
627.38	13349.85
627.574	13196.26
627.768	13044.71
627.963	13249.5
628.157	13091.81
628.352	13216.74
628.546	12504.04
628.74	12620.78
628.935	12823.53
629.129	13011.94
629.323	12405.74
629.517	12499.95
629.712	12485.61
629.906	12516.33
630.1	12436.46
630.294	12313.58
630.489	12153.84
630.683	12239.86
630.877	12100.59
631.071	11924.47
631.265	12153.84
631.459	11922.42
631.653	11672.57
631.848	11858.93
632.042	11572.22
632.236	11625.47
632.43	11547.64
632.624	11746.3
632.818	11475.96
633.012	11262.97
633.206	11277.31
633.4	11348.99
633.594	11152.38
633.788	11271.17
633.982	11142.14
634.176	11205.63
634.369	10935.3
634.563	11105.28
634.757	10654.73
634.951	10800.13
635.145	10992.64
635.339	10957.83
635.533	10587.15
635.726	10601.48
635.92	10660.87
636.114	10423.31
636.308	10396.68
636.501	10372.11
636.695	10404.88
636.889	10286.09
637.083	10179.6
637.276	10296.33
637.47	10122.26
637.664	10036.24
637.857	10021.91
638.051	9974.8
638.244	9901.08
638.438	9925.65
638.632	9749.53
638.825	9671.7
639.019	9690.13
639.212	9501.72
639.406	9577.5
639.599	9487.39
639.793	9538.59
639.986	9389.08
640.18	9655.32
640.373	9405.47
640.567	9217.05
640.76	9255.97
640.954	9032.74
641.147	9368.6
641.34	8948.77
641.534	9006.11
641.727	9065.5
641.92	8932.39
642.114	8920.1
642.307	9006.11
642.5	8723.49
642.694	8623.14
642.887	8664.1
643.08	8715.3
643.273	8508.46
643.467	8555.56
643.66	8592.42
643.853	8762.4
644.046	8649.77
644.239	8567.85
644.432	8365.1
644.626	8432.68
644.819	8330.28
645.012	8295.47
645.205	8397.87
645.398	8274.99
645.591	8107.05
645.784	8121.39
645.977	8090.67
646.17	8156.21
646.363	7926.83
646.556	7795.76
646.749	7783.48
646.942	7922.74
647.135	7791.67
647.328	7683.13
647.521	7728.18
647.714	7711.8
647.907	7844.91
648.099	7687.22
648.292	7566.39
648.485	7461.94
648.678	7685.17
648.871	7332.92
649.064	7375.93
649.256	7449.66
649.449	7349.31
649.642	7212.09
649.835	7222.33
650.027	7195.71
650.22	7253.05
650.413	7152.7
650.605	7263.29
650.798	6997.06
650.991	7146.56
651.183	6958.14
651.376	6982.72
651.568	7042.11
651.761	6941.76
651.954	6956.1
652.146	6784.07
652.339	6863.94
652.531	6730.82
652.724	6700.1
652.916	6632.52
653.109	6655.05
653.301	6419.53
653.494	6571.08
653.686	6687.81
653.879	6681.67
654.071	6573.13
654.263	6628.42
654.456	6569.03
654.648	6597.7
654.84	6327.37
655.033	6423.62
655.225	6366.28
655.417	6286.41
655.61	6376.52
655.802	6272.07
655.994	6278.22
656.186	6241.36
656.379	6112.33
656.571	6253.64
656.763	5995.6
656.955	5868.63
657.148	6079.57
657.34	6149.2
657.532	5936.21
657.724	6028.37
657.916	6020.17
658.108	5805.14
658.3	5825.62
658.492	5825.62
658.684	5895.25
658.876	5846.1
659.068	5764.18
659.26	5723.22
659.452	5764.18
659.644	5604.44
659.836	5618.77
660.028	5708.88
660.22	5588.05
660.412	5680.21
660.604	5540.95
660.796	5581.91
660.988	5573.72
661.18	5442.65
661.372	5547.09
661.563	5538.9
661.755	5325.91
661.947	5540.95
662.139	5483.61
662.331	5309.53
662.522	5352.54
662.714	5567.57
662.906	5370.97
663.097	5336.15
663.289	5393.5
663.481	5293.15
663.673	5338.2
663.864	5084.25
664.056	5246.04
664.247	5225.56
664.439	5207.13
664.631	5123.16
664.822	5192.8
665.014	5215.32
665.205	5149.79
665.397	5051.49
665.588	5190.75
665.78	5110.88
665.971	5043.29
666.163	5000.29
666.354	5049.44
666.546	5067.87
666.737	4920.42
666.929	4904.03
667.12	5084.25
667.311	5063.77
667.503	4861.02
667.694	4846.69
667.885	4863.07
668.077	4828.26
668.268	4918.37
668.459	4740.19
668.651	4891.74
668.842	4910.18
669.033	4893.79
669.224	4797.54
669.416	4912.22
669.607	4836.45
669.798	4775.01
669.989	4848.74
670.18	4863.07
670.371	4813.92
670.563	4715.62
670.754	4899.94
670.945	4727.91
671.136	4985.95
671.327	4691.04
671.518	4914.27
671.709	4869.22
671.9	4934.75
672.091	4682.85
672.282	4908.13
672.473	4818.02
672.664	4738.15
672.855	4732
673.046	4836.45
673.237	4813.92
673.428	4863.07
673.619	4906.08
673.809	4938.85
674	4818.02
674.191	4854.88
674.382	4893.79
674.573	4689
674.764	4779.11
674.954	4942.94
675.145	4699.23
675.336	4805.73
675.527	4750.43
675.717	4795.49
675.908	4969.57
676.099	4756.58
676.289	4793.44
676.48	4736.1
676.671	4768.87
676.861	4822.11
677.052	4830.3
677.243	4883.55
677.433	4904.03
677.624	4969.57
677.814	4947.04
678.005	5014.62
678.195	4861.02
678.386	4969.57
678.576	4891.74
678.767	4910.18
678.957	5039.2
679.148	5049.44
679.338	5000.29
679.529	5125.21
679.719	5086.3
679.909	5272.67
680.1	4953.18
680.29	5102.68
680.481	5033.05
680.671	5127.26
680.861	5102.68
681.052	5012.57
681.242	4975.71
681.432	5157.98
681.622	5112.92
681.813	5248.09
682.003	5090.4
682.193	5043.29
682.383	5051.49
682.573	5344.35
682.764	5108.83
682.954	5215.32
683.144	5258.33
683.334	5207.13
683.524	5282.91
683.714	5305.43
683.904	5102.68
684.094	5262.43
684.284	5368.92
684.474	5223.51
684.664	5297.24
684.854	5289.05
685.044	5112.92
685.234	5256.28
685.424	5117.02
685.614	5100.64
685.804	5393.5
685.994	5162.08
686.184	5385.3
686.374	5254.23
686.564	5297.24
686.753	5147.74
686.943	5188.7
687.133	5084.25
687.323	5217.37
687.513	5069.92
687.702	5100.64
687.892	5084.25
688.082	5094.49
688.272	4988
688.461	5049.44
688.651	5092.44
688.841	4834.4
689.03	4949.09
689.22	4881.5
689.41	4904.03
689.599	4791.39
689.789	4772.96
689.979	4760.67
690.168	4807.78
690.358	4811.87
690.547	4813.92
690.737	4641.89
690.926	4600.93
691.116	4607.08
691.305	4648.04
691.495	4568.16
691.684	4502.63
691.874	4586.6
692.063	4576.36
692.252	4609.12
692.442	4486.25
692.631	4471.91
692.82	4523.11
693.01	4224.11
693.199	4447.33
693.388	4256.87
693.578	4330.6
693.767	4207.72
693.956	4174.95
694.146	4162.67
694.335	4127.85
694.524	4158.57
694.713	4271.21
694.902	4189.29
695.092	4093.04
695.281	4140.14
695.47	4189.29
695.659	4185.19
695.848	4019.31
696.037	4078.7
696.226	4021.36
696.415	4050.03
696.604	4084.84
696.793	4002.93
696.982	3904.62
697.171	4060.27
697.36	4000.88
697.549	3882.1
697.738	3939.44
697.927	3966.06
698.116	3990.64
698.305	3984.49
698.494	4043.88
698.683	3953.77
698.872	4019.31
699.061	3908.72
699.25	3906.67
699.438	3974.25
699.627	3937.39
699.816	4117.61
700.005	3961.97
700.193	3972.21
700.382	3998.83
700.571	3937.39
700.76	3900.53
700.948	4050.03
701.137	4011.12
701.326	4013.17
701.514	3818.61
701.703	3972.21
701.892	3976.3
702.08	3972.21
702.269	4009.07
702.457	3818.61
702.646	3943.53
702.834	3896.43
703.023	3863.66
703.212	4015.21
703.4	3912.81
703.589	3900.53
703.777	3976.3
703.965	3902.58
704.154	3925.1
704.342	3847.28
704.531	4047.98
704.719	3894.38
704.907	3968.11
705.096	4011.12
705.284	4056.17
705.472	3970.16
705.661	4025.45
705.849	4117.61
706.037	4109.42
706.226	3984.49
706.414	4134
706.602	4207.72
706.79	4121.71
706.979	3923.05
707.167	4056.17
707.355	4121.71
707.543	4078.7
707.731	4230.25
707.919	4240.49
708.107	4107.37
708.296	4148.33
708.484	4099.18
708.672	4240.49
708.86	4121.71
709.048	4332.65
709.236	4246.63
709.424	4209.77
709.612	4205.67
709.8	4154.48
709.988	4277.35
710.176	4346.98
710.364	4244.59
710.551	4443.24
710.739	4287.59
710.927	4277.35
711.115	4291.69
711.303	4213.87
711.491	4414.57
711.679	4340.84
711.866	4420.71
712.054	4557.93
712.242	4387.94
712.43	4449.38
712.617	4482.15
712.805	4574.31
712.993	4596.84
713.181	4330.6
713.368	4635.75
713.556	4600.93
713.744	4473.96
713.931	4809.83
714.119	4707.43
714.306	4568.16
714.494	4621.41
714.682	4738.15
714.869	4635.75
715.057	4854.88
715.244	4826.21
715.432	4830.3
715.619	4787.3
715.807	4869.22
715.994	4856.93
716.182	4861.02
716.369	4836.45
716.556	5047.39
716.744	4893.79
716.931	4824.16
717.119	4936.8
717.306	5051.49
717.493	4809.83
717.681	4926.56
717.868	5051.49
718.055	5104.73
718.242	5129.31
718.43	5063.77
718.617	5055.58
718.804	5289.05
718.991	5254.23
719.179	5297.24
719.366	5248.09
719.553	5313.63
719.74	5153.88
719.927	5248.09
720.114	5325.91
720.301	5350.49
720.488	5280.86
720.676	5149.79
720.863	5444.7
721.05	5346.39
721.237	5305.43
721.424	5364.82
721.611	5485.65
721.798	5330.01
721.985	5502.04
722.172	5411.93
722.358	5426.26
722.545	5696.6
722.732	5598.29
722.919	5592.15
723.106	5538.9
723.293	5616.72
723.48	5739.6
723.667	5747.79
723.853	5559.38
724.04	5735.51
724.227	5729.36
724.414	5758.03
724.6	5735.51
724.787	5786.71
724.974	5712.98
725.161	5928.02
725.347	5741.65
725.534	5817.43
725.72	5862.48
725.907	5780.56
726.094	5952.59
726.28	5950.54
726.467	5977.17
726.653	5880.91
726.84	5874.77
727.027	6052.94
727.213	5743.7
727.4	5985.36
727.586	6007.89
727.773	6073.42
727.959	6050.89
728.145	6204.49
728.332	6069.33
728.518	6257.74
728.705	6173.77
728.891	6038.61
729.077	6155.34
729.264	6136.91
729.45	6216.78
729.636	6218.83
729.823	6188.11
730.009	6181.96
730.195	6270.03
730.382	6282.31
730.568	6270.03
730.754	6329.42
730.94	6294.6
731.126	6493.26
731.313	6399.05
731.499	6239.31
731.685	6435.91
731.871	6405.19
732.057	6468.68
732.243	6425.67
732.429	6440.01
732.615	6431.82
732.801	6569.03
732.987	6483.02
733.173	6470.73
733.359	6491.21
733.545	6466.63
733.731	6560.84
733.917	6763.59
734.103	6536.26
734.289	6663.24
734.475	6370.38
734.661	6687.81
734.847	6624.33
735.033	6589.51
735.219	6573.13
735.404	6515.78
735.59	6472.78
735.776	6558.79
735.962	6526.02
736.148	6673.48
736.333	6620.23
736.519	6521.93
736.705	6808.64
736.89	6747.2
737.076	6583.37
737.262	6468.68
737.447	6755.4
737.633	6374.47
737.819	6603.85
738.004	6562.89
738.19	6720.58
738.375	6362.19
738.561	6581.32
738.747	6456.39
738.932	6542.41
739.118	6665.28
739.303	6483.02
739.489	6497.35
739.674	6468.68
739.859	6526.02
740.045	6499.4
740.23	6620.23
740.416	6415.43
740.601	6667.33
740.786	6532.17
740.972	6585.41
741.157	6437.96
741.342	6282.31
741.528	6267.98
741.713	6302.79
741.898	6243.4
742.084	6222.92
742.269	6255.69
742.454	6433.86
742.639	6433.86
742.824	6165.58
743.01	6415.43
743.195	6376.52
743.38	6372.43
743.565	6218.83
743.75	6276.17
743.935	6005.84
744.12	6200.4
744.305	6034.51
744.49	6155.34
744.675	6036.56
744.86	6141
745.045	6065.23
745.23	5973.07
745.415	5905.49
745.6	5946.45
745.785	5782.61
745.97	5844.05
746.155	5837.91
746.34	5882.96
746.525	5887.06
746.71	5811.28
746.895	5704.79
747.079	5612.63
747.264	5639.25
747.449	5682.26
747.634	5620.82
747.819	5633.11
748.003	5512.28
748.188	5459.03
748.373	5526.61
748.557	5592.15
748.742	5268.57
748.927	5491.8
749.111	5289.05
749.296	5270.62
749.481	5211.23
749.665	5327.96
749.85	5207.13
750.034	5190.75
750.219	5295.19
750.404	5063.77
750.588	5084.25
750.773	5229.66
750.957	5080.16
751.141	5065.82
751.326	4840.54
751.51	5022.81
751.695	4920.42
751.879	4918.37
752.064	4846.69
752.248	4891.74
752.432	4656.23
752.617	4785.25
752.801	4693.09
752.985	4473.96
753.17	4615.27
753.354	4811.87
753.538	4680.8
753.722	4680.8
753.907	4521.06
754.091	4383.85
754.275	4445.29
754.459	4392.04
754.643	4371.56
754.828	4314.22
755.012	4260.97
755.196	4213.87
755.38	4146.28
755.564	4082.8
755.748	4242.54
755.932	4220.01
756.116	4203.63
756.3	4148.33
756.484	4101.23
756.668	4084.84
756.852	3910.77
757.036	4011.12
757.22	3943.53
757.404	3871.86
757.588	3830.9
757.772	3794.03
757.956	3878
758.14	3830.9
758.323	3738.74
758.507	3736.69
758.691	3812.46
758.875	3871.86
759.059	3822.7
759.242	3581.04
759.426	3708.02
759.61	3689.59
759.794	3521.65
759.977	3626.1
760.161	3535.99
760.345	3585.14
760.528	3548.28
760.712	3474.55
760.895	3421.3
761.079	3380.34
761.263	3204.22
761.446	3425.4
761.63	3372.15
761.813	3343.48
761.997	3290.23
762.18	3232.89
762.364	3230.84
762.547	3173.5
762.731	3261.56
762.914	3163.26
763.098	3189.88
763.281	3253.37
763.464	3191.93
763.648	3148.92
763.831	3110.01
764.015	3140.73
764.198	3103.87
764.381	3157.11
764.564	3073.15
764.748	3097.72
764.931	2966.65
765.114	3044.48
765.297	3040.38
765.481	2960.51
765.664	3011.71
765.847	2940.03
766.03	2915.45
766.213	3028.09
766.397	2884.73
766.58	2825.34
766.763	2880.64
766.946	2897.02
767.129	2786.43
767.312	2847.87
767.495	2831.49
767.678	2739.33
767.861	2716.8
768.044	2849.92
768.227	2694.27
768.41	2731.14
768.593	2872.45
768.776	2757.76
768.959	2704.51
769.142	2692.23
769.324	2581.64
769.507	2667.65
769.69	2583.68
769.873	2561.16
770.056	2540.68
770.239	2552.96
770.421	2475.14
770.604	2563.2
770.787	2391.17
770.97	2428.04
771.152	2473.09
771.335	2598.02
771.518	2372.74
771.7	2512
771.883	2434.18
772.066	2358.41
772.248	2339.97
772.431	2380.93
772.613	2385.03
772.796	2290.82
772.978	2385.03
773.161	2419.85
773.343	2262.15
773.526	2321.54
773.708	2311.3
773.891	2266.25
774.073	2163.85
774.256	2229.38
774.438	2299.02
774.621	2188.43
774.803	2069.64
774.985	2161.8
775.168	2176.14
775.35	2053.26
775.532	2126.99
775.715	2129.03
775.897	1987.72
776.079	2045.07
776.261	2110.6
776.444	1991.82
776.626	2026.64
776.808	1930.38
776.99	1926.29
777.173	2020.49
777.355	1987.72
777.537	1963.15
777.719	1944.72
777.901	1889.42
778.083	1823.89
778.265	1770.64
778.447	1926.29
778.629	1770.64
778.811	1772.69
778.993	1821.84
779.175	1758.35
779.357	1639.57
779.539	1729.68
779.721	1776.78
779.903	1832.08
780.085	1770.64
780.267	1592.47
780.449	1690.77
780.631	1719.44
780.812	1664.15
780.994	1580.18
781.176	1660.05
781.358	1635.47
781.54	1541.27
781.721	1569.94
781.903	1600.66
782.085	1567.89
782.267	1561.75
782.448	1426.58
782.63	1647.76
782.812	1580.18
782.993	1455.25
783.175	1420.44
783.357	1389.72
783.538	1432.72
783.72	1381.53
783.901	1340.57
784.083	1479.83
784.264	1442.96
784.446	1348.76
784.627	1406.1
784.809	1379.48
784.99	1451.16
785.172	1324.18
785.353	1428.63
785.535	1320.09
785.716	1291.41
785.897	1176.73
786.079	1381.53
786.26	1217.69
786.441	1293.46
786.623	1152.15
786.804	1141.91
786.985	1201.3
787.167	1215.64
787.348	1137.82
787.529	1234.07
787.71	1219.74
787.891	1062.04
788.073	1176.73
788.254	1127.58
788.435	1191.06
788.616	1135.77
788.797	1090.71
788.978	1117.34
789.159	1086.62
789.34	1027.23
789.522	1053.85
789.703	1057.95
789.884	1053.85
790.065	1121.43
790.246	1184.92
790.427	973.98
790.607	1053.85
790.788	1117.34
790.969	1070.23
791.15	992.41
791.331	994.46
791.512	1019.04
791.693	988.32
791.874	1000.6
792.054	1008.8
792.235	945.31
792.416	939.16
792.597	865.44
792.778	957.6
792.958	939.16
793.139	922.78
793.32	822.43
793.5	1000.6
793.681	902.3
793.862	904.35
794.042	869.53
794.223	842.91
794.404	898.2
794.584	857.25
794.765	824.48
794.945	787.61
795.126	947.36
795.306	896.16
795.487	763.04
795.667	865.44
795.848	887.97
796.028	844.96
796.209	863.39
796.389	820.38
796.57	799.9
796.75	808.09
796.93	763.04
797.111	726.18
797.291	748.7
797.471	812.19
797.652	644.26
797.832	713.89
798.012	799.9
798.192	750.75
798.373	765.09
798.553	754.85
798.733	717.98
798.913	701.6
799.093	679.07
799.274	709.79
799.454	742.56
799.634	707.74
799.814	750.75
799.994	689.31
800.174	730.27
800.354	707.74
800.534	726.18
800.714	681.12
800.894	662.69
801.074	631.97
801.254	668.83
801.434	767.13
801.614	740.51
801.794	715.94
801.974	1318.04
802.154	715.94
802.334	765.09
802.514	543.91
802.693	662.69
802.873	656.54
803.053	695.46
803.233	691.36
803.413	623.78
803.592	644.26
803.772	642.21
803.952	595.11
804.131	627.87
804.311	672.93
804.491	586.91
804.67	593.06
804.85	560.29
805.03	593.06
805.209	619.68
805.389	543.91
805.568	584.87
805.748	591.01
805.928	615.59
806.107	562.34
806.287	507.04
806.466	607.39
806.646	496.8
806.825	513.19
807.004	502.95
807.184	672.93
807.363	578.72
807.543	545.95
807.722	529.57
807.901	570.53
808.081	529.57
808.26	517.28
808.439	523.43
808.619	533.67
808.798	537.76
808.977	562.34
809.156	552.1
809.336	423.08
809.515	435.36
809.694	488.61
809.873	470.18
810.052	449.7
810.231	558.24
810.411	496.8
810.59	537.76
810.769	521.38
810.948	486.56
811.127	445.6
811.306	558.24
811.485	414.88
811.664	562.34
811.843	472.23
812.022	472.23
812.201	468.13
812.38	476.32
812.559	408.74
812.737	455.84
812.916	339.11
813.095	490.66
813.274	468.13
813.453	453.8
813.632	527.52
813.811	429.22
813.989	357.54
814.168	441.51
814.347	347.3
814.526	457.89
814.704	423.08
814.883	447.65
815.062	316.58
815.24	496.8
815.419	382.12
815.598	447.65
815.776	351.4
815.955	357.54
816.133	384.16
816.312	373.92
816.49	289.96
816.669	363.69
816.847	394.4
817.026	431.27
817.204	390.31
817.383	382.12
817.561	402.6
817.74	378.02
817.918	378.02
818.097	388.26
818.275	357.54
818.453	365.73
818.632	390.31
818.81	349.35
818.988	275.62
819.167	369.83
819.345	361.64
819.523	296.1
819.701	388.26
819.879	337.06
820.058	396.45
820.236	371.88
820.414	382.12
820.592	316.58
820.77	316.58
820.948	375.97
821.127	324.77
821.305	316.58
821.483	330.92
821.661	433.32
821.839	279.72
822.017	375.97
822.195	349.35
822.373	341.16
822.551	308.39
822.729	373.92
822.907	265.38
823.085	447.65
823.262	318.63
823.44	320.68
823.618	267.43
823.796	357.54
823.974	257.19
824.152	234.66
824.329	273.57
824.507	271.53
824.685	251.05
824.863	324.77
825.04	332.97
825.218	355.49
825.396	279.72
825.574	330.92
825.751	369.83
825.929	330.92
826.107	251.05
826.284	267.43
826.462	294.05
826.639	314.53
826.817	259.24
826.994	275.62
827.172	136.36
827.349	312.49
827.527	363.69
827.704	302.25
827.882	402.6
828.059	314.53
828.237	224.42
828.414	320.68
828.591	273.57
828.769	275.62
828.946	222.38
829.124	298.15
829.301	398.5
829.478	275.62
829.655	224.42
829.833	201.9
830.01	226.47
830.187	246.95
830.364	210.09
830.542	259.24
830.719	279.72
830.896	310.44
831.073	232.62
831.25	240.81
831.427	189.61
831.604	226.47
831.782	255.14
831.959	257.19
832.136	205.99
832.313	281.77
832.49	185.51
832.667	238.76
832.844	197.8
833.021	316.58
833.198	226.47
833.374	257.19
833.551	302.25
833.728	240.81
833.905	265.38
834.082	216.23
834.259	242.85
834.436	304.29
834.612	160.94
834.789	238.76
834.966	201.9
835.143	238.76
835.319	177.32
835.496	238.76
835.673	240.81
835.85	347.3
836.026	257.19
836.203	226.47
836.38	195.75
836.556	150.7
836.733	210.09
836.909	201.9
837.086	201.9
837.262	126.12
837.439	218.28
837.616	228.52
837.792	191.66
837.968	128.17
838.145	103.59
838.321	199.85
838.498	181.42
838.674	232.62
838.851	197.8
839.027	279.72
839.203	224.42
839.38	236.71
839.556	173.22
839.732	193.7
839.909	152.74
840.085	177.32
840.261	136.36
840.437	156.84
840.614	218.28
840.79	175.27
840.966	175.27
841.142	218.28
841.318	109.74
841.494	132.26
841.671	177.32
841.847	119.98
842.023	124.07
842.199	201.9
842.375	230.57
842.551	89.26
842.727	117.93
842.903	226.47
843.079	62.63
843.255	162.98
843.431	83.11
843.607	183.46
843.783	72.87
843.959	181.42
844.134	70.83
844.31	185.51
844.486	156.84
844.662	128.17
844.838	173.22
845.013	115.88
845.189	167.08
845.365	136.36
845.541	185.51
845.716	175.27
845.892	246.95
846.068	136.36
846.244	124.07
846.419	181.42
846.595	126.12
846.77	31.91
846.946	179.37
847.122	54.44
847.297	97.45
847.473	138.41
847.648	99.5
847.824	216.23
847.999	-2.9
848.175	128.17
848.35	126.12
848.526	175.27
848.701	144.55
848.876	187.56
849.052	177.32
849.227	76.97
849.403	158.89
849.578	99.5
849.753	150.7
849.929	156.84
850.104	62.63
850.279	58.54
850.454	89.26
850.63	152.74
850.805	66.73
850.98	152.74
851.155	99.5
851.33	140.46
851.505	68.78
851.681	109.74
851.856	105.64
852.031	132.26
852.206	128.17
852.381	103.59
852.556	89.26
852.731	197.8
852.906	119.98
853.081	132.26
853.256	199.85
853.431	152.74
853.606	113.83
853.781	97.45
853.956	70.83
854.131	142.5
854.305	119.98
854.48	103.59
854.655	74.92
854.83	54.44
855.005	128.17
855.18	152.74
855.354	50.35
855.529	113.83
855.704	97.45
855.879	126.12
856.053	68.78
856.228	11.43
856.403	48.3
856.577	93.35
856.752	101.55
856.926	38.06
857.101	128.17
857.276	93.35
857.45	87.21
857.625	83.11
857.799	165.03
857.974	60.59
858.148	46.25
858.323	85.16
858.497	76.97
858.672	132.26
858.846	48.3
859.02	175.27
859.195	21.67
859.369	132.26
859.543	87.21
859.718	40.11
859.892	15.53
860.066	115.88
860.241	167.08
860.415	70.83
860.589	13.48
860.763	89.26
860.938	126.12
861.112	111.78
861.286	87.21
861.46	89.26
861.634	158.89
861.808	58.54
861.982	107.69
862.157	89.26
862.331	54.44
862.505	7.34
862.679	46.25
862.853	52.39
863.027	79.02
863.201	136.36
863.375	103.59
863.549	87.21
863.722	126.12
863.896	146.6
864.07	81.07
864.244	70.83
864.418	128.17
864.592	48.3
864.766	83.11
864.939	91.31
865.113	60.59
865.287	167.08
865.461	134.31
865.634	165.03
865.808	70.83
865.982	83.11
866.156	132.26
866.329	5.29
866.503	21.67
866.676	50.35
866.85	124.07
867.024	56.49
867.197	122.02
867.371	99.5
867.544	52.39
867.718	38.06
867.891	99.5
868.065	3.24
868.238	107.69
868.412	97.45
868.585	113.83
868.759	29.87
868.932	50.35
869.105	21.67
869.279	162.98
869.452	56.49
869.625	95.4
869.799	87.21
869.972	72.87
870.145	48.3
870.319	50.35
870.492	70.83
870.665	54.44
870.838	79.02
871.011	-27.48
871.185	83.11
871.358	19.63
871.531	89.26
871.704	68.78
871.877	21.67
872.05	54.44
872.223	46.25
872.396	122.02
872.569	40.11
872.742	15.53
872.915	134.31
873.088	-15.19
873.261	-7
873.434	9.39
873.607	-0.85
873.78	74.92
873.953	60.59
874.126	136.36
874.299	85.16
874.471	52.39
874.644	62.63
874.817	54.44
874.99	99.5
875.163	46.25
875.335	27.82
875.508	113.83
875.681	9.39
875.853	60.59
876.026	103.59
876.199	74.92
876.371	79.02
876.544	52.39
876.717	29.87
876.889	52.39
877.062	1.19
877.234	44.2
877.407	44.2
877.579	11.43
877.752	85.16
877.924	87.21
878.097	54.44
878.269	62.63
878.442	60.59
878.614	46.25
878.786	95.4
878.959	83.11
879.131	97.45
879.303	-19.29
879.476	19.63
879.648	79.02
879.82	74.92
879.993	66.73
880.165	48.3
880.337	5.29
880.509	29.87
880.681	13.48
880.854	9.39
881.026	60.59
881.198	109.74
881.37	72.87
881.542	44.2
881.714	9.39
881.886	103.59
882.058	17.58
882.23	58.54
882.402	68.78
882.574	68.78
882.746	130.22
882.918	68.78
883.09	36.01
883.262	-2.9
883.434	36.01
883.606	79.02
883.778	29.87
883.95	62.63
884.122	79.02
884.293	68.78
884.465	54.44
884.637	74.92
884.809	-35.67
884.98	93.35
885.152	-2.9
885.324	27.82
885.496	9.39
885.667	29.87
885.839	13.48
886.011	58.54
886.182	13.48
886.354	-43.86
886.525	97.45
886.697	21.67
886.869	54.44
887.04	54.44
887.212	95.4
887.383	76.97
887.555	83.11
887.726	95.4
887.897	68.78
888.069	58.54
888.24	74.92
888.412	17.58
888.583	-23.38
888.754	74.92
888.926	-11.09
889.097	7.34
889.268	9.39
889.44	83.11
889.611	33.96
889.782	3.24
889.953	29.87
890.125	152.74
890.296	-33.62
890.467	29.87
890.638	87.21
890.809	70.83
890.98	58.54
891.151	27.82
891.323	83.11
891.494	23.72
891.665	62.63
891.836	52.39
892.007	-13.14
892.178	83.11
892.349	87.21
892.52	5.29
892.691	48.3
892.862	109.74
893.032	36.01
893.203	38.06
893.374	40.11
893.545	25.77
893.716	66.73
893.887	44.2
894.057	23.72
894.228	99.5
894.399	79.02
894.57	72.87
894.74	-19.29
894.911	5.29
895.082	66.73
895.253	-29.52
895.423	46.25
895.594	95.4
895.764	60.59
895.935	-45.91
896.106	23.72
896.276	52.39
896.447	74.92
896.617	-45.91
896.788	-19.29
896.958	46.25
897.129	-19.29
897.299	29.87
897.47	107.69
897.64	68.78
897.81	13.48
897.981	87.21
898.151	9.39
898.322	54.44
898.492	1.19
898.662	27.82
898.832	70.83
899.003	11.43
899.173	44.2
899.343	-82.77
899.513	25.77
