Data from USB4F104151__8__11-29-36-767.txt Node

Date: Fri Mar 14 11:29:36 EDT 2025
User: louis
Spectrometer: USB4F10415
Trigger mode: 4
Integration Time (sec): 5.000000E-2
Scans to average: 1
Electric dark correction enabled: true
Nonlinearity correction enabled: false
Boxcar width: 0
XAxis mode: Wavelengths
Number of Pixels in Spectrum: 3648
>>>>>Begin Spectral Data<<<<<
178.204	-178
178.424	-178
178.644	-178
178.864	-167.76
179.084	-151.38
179.304	57.51
179.524	0.17
179.744	6.31
179.964	-36.69
180.184	37.03
180.404	-69.46
180.624	69.8
180.844	-3.93
181.064	-110.42
181.283	-32.6
181.503	59.56
181.723	22.7
181.943	-53.08
182.163	69.8
182.383	30.89
182.602	4.27
182.822	82.09
183.042	-3.93
183.262	4.27
183.482	45.23
183.701	41.13
183.921	-8.02
184.141	4.27
184.361	49.32
184.58	-14.17
184.8	-18.26
185.02	-57.17
185.239	82.09
185.459	2.22
185.679	28.84
185.898	-145.24
186.118	37.03
186.338	18.6
186.557	67.75
186.777	57.51
186.997	-61.27
187.216	32.94
187.436	55.47
187.655	53.42
187.875	22.7
188.095	-57.17
188.314	45.23
188.534	39.08
188.753	51.37
188.973	53.42
189.192	43.18
189.412	67.75
189.631	8.36
189.851	39.08
190.07	53.42
190.29	24.75
190.509	28.84
190.729	34.99
190.948	45.23
191.168	118.95
191.387	45.23
191.607	12.46
191.826	26.79
192.045	-24.4
192.265	26.79
192.484	26.79
192.704	106.67
192.923	-5.97
193.142	94.38
193.362	39.08
193.581	69.8
193.8	12.46
194.02	94.38
194.239	20.65
194.458	28.84
194.678	55.47
194.897	39.08
195.116	49.32
195.335	51.37
195.555	59.56
195.774	2.22
195.993	86.19
196.212	53.42
196.432	75.95
196.651	-32.6
196.87	24.75
197.089	69.8
197.308	28.84
197.528	20.65
197.747	-36.69
197.966	26.79
198.185	28.84
198.404	43.18
198.623	32.94
198.842	108.71
199.062	84.14
199.281	86.19
199.5	18.6
199.719	53.42
199.938	84.14
200.157	61.61
200.376	12.46
200.595	77.99
200.814	69.8
201.033	37.03
201.252	82.09
201.471	14.51
201.69	61.61
201.909	63.66
202.128	20.65
202.347	-20.31
202.566	28.84
202.785	45.23
203.004	37.03
203.223	102.57
203.442	-24.4
203.661	8.36
203.879	18.6
204.098	69.8
204.317	37.03
204.536	61.61
204.755	69.8
204.974	57.51
205.193	20.65
205.411	65.71
205.63	59.56
205.849	-16.21
206.068	37.03
206.287	12.46
206.505	94.38
206.724	-59.22
206.943	34.99
207.162	26.79
207.381	51.37
207.599	69.8
207.818	53.42
208.037	-3.93
208.255	106.67
208.474	0.17
208.693	-20.31
208.911	51.37
209.13	84.14
209.349	32.94
209.567	69.8
209.786	102.57
210.005	-14.17
210.223	4.27
210.442	-46.93
210.661	49.32
210.879	-14.17
211.098	-3.93
211.316	37.03
211.535	125.1
211.753	32.94
211.972	90.28
212.191	20.65
212.409	34.99
212.628	10.41
212.846	65.71
213.065	59.56
213.283	161.96
213.502	-28.5
213.72	86.19
213.938	104.62
214.157	-71.51
214.375	45.23
214.594	20.65
214.812	61.61
215.031	14.51
215.249	-12.12
215.467	4.27
215.686	67.75
215.904	53.42
216.122	-40.79
216.341	73.9
216.559	24.75
216.778	77.99
216.996	39.08
217.214	-24.4
217.432	37.03
217.651	-63.32
217.869	-8.02
218.087	28.84
218.306	67.75
218.524	116.9
218.742	47.27
218.96	67.75
219.179	-18.26
219.397	41.13
219.615	123.05
219.833	49.32
220.051	32.94
220.27	125.1
220.488	22.7
220.706	14.51
220.924	53.42
221.142	-3.93
221.36	92.33
221.578	45.23
221.796	61.61
222.015	67.75
222.233	22.7
222.451	69.8
222.669	-3.93
222.887	90.28
223.105	127.14
223.323	-3.93
223.541	20.65
223.759	82.09
223.977	28.84
224.195	37.03
224.413	47.27
224.631	69.8
224.849	100.52
225.067	53.42
225.285	0.17
225.503	98.47
225.721	-12.12
225.939	26.79
226.157	26.79
226.375	129.19
226.592	10.41
226.81	57.51
227.028	71.85
227.246	59.56
227.464	20.65
227.682	80.04
227.9	37.03
228.117	65.71
228.335	45.23
228.553	32.94
228.771	16.55
228.989	77.99
229.206	12.46
229.424	20.65
229.642	26.79
229.86	45.23
230.077	51.37
230.295	30.89
230.513	82.09
230.731	-69.46
230.948	75.95
231.166	65.71
231.384	18.6
231.601	-12.12
231.819	84.14
232.037	-10.07
232.254	-22.36
232.472	34.99
232.689	69.8
232.907	71.85
233.125	-3.93
233.342	-12.12
233.56	49.32
233.777	32.94
233.995	4.27
234.213	2.22
234.43	47.27
234.648	-18.26
234.865	45.23
235.083	45.23
235.3	32.94
235.518	51.37
235.735	65.71
235.953	16.55
236.17	55.47
236.388	14.51
236.605	37.03
236.822	168.1
237.04	-48.98
237.257	18.6
237.475	65.71
237.692	75.95
237.909	20.65
238.127	10.41
238.344	59.56
238.562	41.13
238.779	12.46
238.996	2.22
239.214	12.46
239.431	16.55
239.648	18.6
239.865	28.84
240.083	12.46
240.3	-24.4
240.517	-89.94
240.735	-16.21
240.952	125.1
241.169	37.03
241.386	-3.93
241.603	-3.93
241.821	-8.02
242.038	98.47
242.255	61.61
242.472	6.31
242.689	12.46
242.907	22.7
243.124	20.65
243.341	12.46
243.558	47.27
243.775	0.17
243.992	26.79
244.209	75.95
244.426	45.23
244.643	-36.69
244.86	30.89
245.078	28.84
245.295	-10.07
245.512	12.46
245.729	-20.31
245.946	20.65
246.163	10.41
246.38	98.47
246.597	32.94
246.814	2.22
247.031	-28.5
247.248	24.75
247.464	65.71
247.681	45.23
247.898	6.31
248.115	59.56
248.332	-34.64
248.549	86.19
248.766	127.14
248.983	37.03
249.2	55.47
249.417	26.79
249.633	-30.55
249.85	102.57
250.067	12.46
250.284	102.57
250.501	65.71
250.717	12.46
250.934	-32.6
251.151	32.94
251.368	-8.02
251.585	26.79
251.801	94.38
252.018	10.41
252.235	26.79
252.451	-53.08
252.668	18.6
252.885	69.8
253.102	100.52
253.318	10.41
253.535	-8.02
253.752	34.99
253.968	65.71
254.185	45.23
254.401	34.99
254.618	28.84
254.835	12.46
255.051	61.61
255.268	53.42
255.484	18.6
255.701	4.27
255.917	-30.55
256.134	45.23
256.351	4.27
256.567	-5.97
256.784	43.18
257	-40.79
257.217	63.66
257.433	69.8
257.65	-24.4
257.866	73.9
258.082	-12.12
258.299	57.51
258.515	67.75
258.732	37.03
258.948	20.65
259.165	-28.5
259.381	-38.74
259.597	59.56
259.814	43.18
260.03	37.03
260.246	2.22
260.463	24.75
260.679	110.76
260.895	22.7
261.112	69.8
261.328	4.27
261.544	16.55
261.761	47.27
261.977	-20.31
262.193	45.23
262.409	94.38
262.626	16.55
262.842	0.17
263.058	-32.6
263.274	61.61
263.49	41.13
263.707	102.57
263.923	26.79
264.139	-12.12
264.355	-24.4
264.571	34.99
264.787	12.46
265.004	0.17
265.22	43.18
265.436	106.67
265.652	-5.97
265.868	26.79
266.084	-32.6
266.3	32.94
266.516	-5.97
266.732	73.9
266.948	-5.97
267.164	18.6
267.38	37.03
267.596	16.55
267.812	94.38
268.028	73.9
268.244	-18.26
268.46	37.03
268.676	-36.69
268.892	-10.07
269.108	106.67
269.324	28.84
269.54	45.23
269.756	49.32
269.972	28.84
270.188	71.85
270.403	-46.93
270.619	49.32
270.835	12.46
271.051	-3.93
271.267	28.84
271.483	-8.02
271.698	37.03
271.914	28.84
272.13	77.99
272.346	-53.08
272.562	77.99
272.777	20.65
272.993	-67.41
273.209	8.36
273.425	67.75
273.64	-48.98
273.856	73.9
274.072	12.46
274.287	14.51
274.503	73.9
274.719	-3.93
274.934	32.94
275.15	-36.69
275.366	51.37
275.581	20.65
275.797	45.23
276.012	6.31
276.228	-32.6
276.444	26.79
276.659	57.51
276.875	53.42
277.09	16.55
277.306	61.61
277.521	61.61
277.737	8.36
277.952	20.65
278.168	-40.79
278.383	34.99
278.599	26.79
278.814	45.23
279.03	22.7
279.245	45.23
279.461	10.41
279.676	37.03
279.892	-16.21
280.107	-57.17
280.322	18.6
280.538	49.32
280.753	43.18
280.969	28.84
281.184	45.23
281.399	53.42
281.615	8.36
281.83	73.9
282.045	-8.02
282.26	18.6
282.476	53.42
282.691	67.75
282.906	84.14
283.122	110.76
283.337	4.27
283.552	55.47
283.767	6.31
283.983	57.51
284.198	24.75
284.413	-5.97
284.628	-16.21
284.843	41.13
285.058	18.6
285.274	-83.8
285.489	34.99
285.704	12.46
285.919	-46.93
286.134	18.6
286.349	47.27
286.564	20.65
286.779	28.84
286.995	77.99
287.21	-38.74
287.425	12.46
287.64	24.75
287.855	39.08
288.07	-28.5
288.285	18.6
288.5	92.33
288.715	80.04
288.93	37.03
289.145	77.99
289.36	26.79
289.575	57.51
289.79	22.7
290.004	-32.6
290.219	49.32
290.434	86.19
290.649	28.84
290.864	-46.93
291.079	16.55
291.294	94.38
291.509	53.42
291.724	12.46
291.938	12.46
292.153	-28.5
292.368	45.23
292.583	53.42
292.798	12.46
293.012	69.8
293.227	28.84
293.442	-16.21
293.657	67.75
293.871	92.33
294.086	12.46
294.301	59.56
294.516	57.51
294.73	-36.69
294.945	0.17
295.16	10.41
295.374	108.71
295.589	47.27
295.804	16.55
296.018	8.36
296.233	75.95
296.447	63.66
296.662	22.7
296.877	-3.93
297.091	-34.64
297.306	45.23
297.52	43.18
297.735	45.23
297.949	6.31
298.164	114.86
298.378	26.79
298.593	20.65
298.807	69.8
299.022	57.51
299.236	88.23
299.451	77.99
299.665	55.47
299.88	-32.6
300.094	96.43
300.309	59.56
300.523	59.56
300.737	61.61
300.952	98.47
301.166	26.79
301.381	57.51
301.595	-38.74
301.809	30.89
302.024	4.27
302.238	24.75
302.452	10.41
302.667	39.08
302.881	92.33
303.095	39.08
303.309	-3.93
303.524	55.47
303.738	-5.97
303.952	-8.02
304.166	67.75
304.381	-42.84
304.595	159.91
304.809	49.32
305.023	77.99
305.237	61.61
305.452	43.18
305.666	106.67
305.88	49.32
306.094	-16.21
306.308	53.42
306.522	69.8
306.736	61.61
306.95	77.99
307.164	-40.79
307.379	59.56
307.593	4.27
307.807	37.03
308.021	45.23
308.235	65.71
308.449	-5.97
308.663	39.08
308.877	133.29
309.091	51.37
309.305	53.42
309.519	-51.03
309.733	86.19
309.947	-12.12
310.161	20.65
310.374	4.27
310.588	135.34
310.802	-3.93
311.016	14.51
311.23	125.1
311.444	63.66
311.658	63.66
311.872	37.03
312.085	61.61
312.299	86.19
312.513	102.57
312.727	49.32
312.941	73.9
313.154	30.89
313.368	143.53
313.582	26.79
313.796	100.52
314.009	67.75
314.223	22.7
314.437	-28.5
314.651	77.99
314.864	10.41
315.078	2.22
315.292	-28.5
315.505	0.17
315.719	28.84
315.933	20.65
316.146	67.75
316.36	2.22
316.573	49.32
316.787	61.61
317.001	41.13
317.214	22.7
317.428	69.8
317.641	53.42
317.855	43.18
318.068	77.99
318.282	-5.97
318.495	80.04
318.709	57.51
318.922	82.09
319.136	69.8
319.349	24.75
319.563	75.95
319.776	-3.93
319.99	-51.03
320.203	59.56
320.417	57.51
320.63	63.66
320.843	86.19
321.057	65.71
321.27	-24.4
321.483	86.19
321.697	86.19
321.91	28.84
322.124	53.42
322.337	-20.31
322.55	43.18
322.763	18.6
322.977	24.75
323.19	90.28
323.403	100.52
323.617	0.17
323.83	59.56
324.043	-32.6
324.256	61.61
324.469	2.22
324.683	37.03
324.896	59.56
325.109	20.65
325.322	-85.84
325.535	22.7
325.748	59.56
325.962	10.41
326.175	37.03
326.388	57.51
326.601	110.76
326.814	12.46
327.027	110.76
327.24	41.13
327.453	-5.97
327.666	131.24
327.879	69.8
328.092	34.99
328.305	30.89
328.518	34.99
328.731	2.22
328.944	45.23
329.157	18.6
329.37	-24.4
329.583	63.66
329.796	114.86
330.009	45.23
330.222	53.42
330.435	30.89
330.648	49.32
330.861	24.75
331.073	20.65
331.286	135.34
331.499	-14.17
331.712	-53.08
331.925	-12.12
332.138	-34.64
332.35	43.18
332.563	47.27
332.776	59.56
332.989	-40.79
333.202	37.03
333.414	41.13
333.627	-8.02
333.84	32.94
334.053	59.56
334.265	20.65
334.478	-20.31
334.691	67.75
334.903	37.03
335.116	51.37
335.329	45.23
335.541	80.04
335.754	57.51
335.966	4.27
336.179	-38.74
336.392	22.7
336.604	26.79
336.817	45.23
337.029	49.32
337.242	4.27
337.454	102.57
337.667	43.18
337.88	110.76
338.092	53.42
338.305	84.14
338.517	-12.12
338.729	24.75
338.942	37.03
339.154	43.18
339.367	51.37
339.579	55.47
339.792	86.19
340.004	102.57
340.217	49.32
340.429	28.84
340.641	2.22
340.854	12.46
341.066	43.18
341.278	116.9
341.491	90.28
341.703	77.99
341.915	14.51
342.128	61.61
342.34	112.81
342.552	16.55
342.764	41.13
342.977	37.03
343.189	108.71
343.401	8.36
343.613	6.31
343.826	65.71
344.038	-12.12
344.25	94.38
344.462	-3.93
344.674	34.99
344.886	24.75
345.099	90.28
345.311	41.13
345.523	6.31
345.735	-3.93
345.947	8.36
346.159	82.09
346.371	77.99
346.583	26.79
346.795	123.05
347.007	20.65
347.219	104.62
347.431	41.13
347.643	51.37
347.855	-5.97
348.067	172.2
348.279	26.79
348.491	28.84
348.703	84.14
348.915	20.65
349.127	10.41
349.339	45.23
349.551	6.31
349.763	8.36
349.975	-30.55
350.187	125.1
350.399	67.75
350.61	37.03
350.822	37.03
351.034	28.84
351.246	61.61
351.458	61.61
351.669	30.89
351.881	108.71
352.093	63.66
352.305	118.95
352.517	18.6
352.728	26.79
352.94	16.55
353.152	34.99
353.363	41.13
353.575	18.6
353.787	61.61
353.999	8.36
354.21	12.46
354.422	28.84
354.633	12.46
354.845	2.22
355.057	65.71
355.268	53.42
355.48	-12.12
355.692	28.84
355.903	-10.07
356.115	-1.88
356.326	41.13
356.538	20.65
356.749	102.57
356.961	63.66
357.172	45.23
357.384	53.42
357.595	96.43
357.807	10.41
358.018	-18.26
358.23	12.46
358.441	110.76
358.653	61.61
358.864	28.84
359.075	-14.17
359.287	32.94
359.498	43.18
359.709	-3.93
359.921	4.27
360.132	-85.84
360.344	67.75
360.555	-22.36
360.766	12.46
360.977	69.8
361.189	90.28
361.4	86.19
361.611	143.53
361.823	37.03
362.034	102.57
362.245	28.84
362.456	10.41
362.667	-61.27
362.879	-44.88
363.09	-36.69
363.301	16.55
363.512	77.99
363.723	43.18
363.935	20.65
364.146	67.75
364.357	86.19
364.568	77.99
364.779	22.7
364.99	92.33
365.201	4.27
365.412	98.47
365.623	-36.69
365.834	90.28
366.045	20.65
366.256	41.13
366.467	71.85
366.678	12.46
366.889	4.27
367.1	45.23
367.311	28.84
367.522	32.94
367.733	127.14
367.944	18.6
368.155	39.08
368.366	151.72
368.577	77.99
368.788	73.9
368.999	-24.4
369.209	82.09
369.42	75.95
369.631	116.9
369.842	94.38
370.053	51.37
370.264	77.99
370.474	2.22
370.685	55.47
370.896	65.71
371.107	43.18
371.317	69.8
371.528	2.22
371.739	131.24
371.95	41.13
372.16	102.57
372.371	57.51
372.582	63.66
372.792	20.65
373.003	80.04
373.214	26.79
373.424	94.38
373.635	90.28
373.846	82.09
374.056	51.37
374.267	-3.93
374.477	34.99
374.688	41.13
374.898	4.27
375.109	2.22
375.319	86.19
375.53	41.13
375.74	16.55
375.951	18.6
376.161	28.84
376.372	47.27
376.582	37.03
376.793	86.19
377.003	6.31
377.214	-8.02
377.424	61.61
377.635	75.95
377.845	2.22
378.055	151.72
378.266	2.22
378.476	-3.93
378.686	92.33
378.897	77.99
379.107	37.03
379.317	106.67
379.528	94.38
379.738	86.19
379.948	-12.12
380.158	-12.12
380.369	43.18
380.579	65.71
380.789	26.79
380.999	67.75
381.21	-3.93
381.42	112.81
381.63	86.19
381.84	22.7
382.05	12.46
382.261	90.28
382.471	45.23
382.681	73.9
382.891	55.47
383.101	59.56
383.311	22.7
383.521	-3.93
383.731	106.67
383.941	51.37
384.151	65.71
384.361	-14.17
384.571	88.23
384.781	49.32
384.991	141.48
385.201	133.29
385.411	59.56
385.621	22.7
385.831	96.43
386.041	34.99
386.251	20.65
386.461	61.61
386.671	16.55
386.881	127.14
387.091	12.46
387.301	102.57
387.511	84.14
387.72	28.84
387.93	49.32
388.14	28.84
388.35	94.38
388.56	77.99
388.769	69.8
388.979	-5.97
389.189	51.37
389.399	86.19
389.609	61.61
389.818	82.09
390.028	102.57
390.238	82.09
390.447	77.99
390.657	45.23
390.867	12.46
391.076	82.09
391.286	45.23
391.496	-5.97
391.705	57.51
391.915	92.33
392.125	100.52
392.334	90.28
392.544	135.34
392.753	90.28
392.963	84.14
393.172	114.86
393.382	73.9
393.591	164.01
393.801	82.09
394.01	110.76
394.22	80.04
394.429	86.19
394.639	61.61
394.848	26.79
395.058	123.05
395.267	94.38
395.477	86.19
395.686	104.62
395.895	184.49
396.105	137.38
396.314	45.23
396.524	26.79
396.733	98.47
396.942	45.23
397.152	151.72
397.361	147.62
397.57	65.71
397.78	98.47
397.989	102.57
398.198	133.29
398.407	57.51
398.617	69.8
398.826	143.53
399.035	51.37
399.244	129.19
399.453	100.52
399.663	114.86
399.872	110.76
400.081	37.03
400.29	57.51
400.499	71.85
400.708	221.35
400.917	104.62
401.127	116.9
401.336	86.19
401.545	141.48
401.754	157.86
401.963	143.53
402.172	159.91
402.381	53.42
402.59	106.67
402.799	59.56
403.008	114.86
403.217	114.86
403.426	53.42
403.635	73.9
403.844	80.04
404.053	161.96
404.262	176.3
404.471	145.58
404.68	229.54
404.888	125.1
405.097	137.38
405.306	131.24
405.515	114.86
405.724	159.91
405.933	125.1
406.142	166.06
406.35	190.63
406.559	204.97
406.768	184.49
406.977	209.06
407.185	190.63
407.394	172.2
407.603	166.06
407.812	235.69
408.02	274.6
408.229	264.36
408.438	237.74
408.646	233.64
408.855	213.16
409.064	293.03
409.272	192.68
409.481	262.31
409.69	204.97
409.898	221.35
410.107	266.41
410.315	364.71
410.524	321.7
410.733	315.56
410.941	327.85
411.15	315.56
411.358	364.71
411.567	352.42
411.775	411.81
411.984	307.37
412.192	389.28
412.401	428.2
412.609	411.81
412.818	463.01
413.026	409.76
413.234	460.96
413.443	520.35
413.651	446.63
413.86	460.96
414.068	571.55
414.276	438.44
414.485	567.46
414.693	561.31
414.901	643.23
415.11	569.51
415.318	616.61
415.526	649.38
415.734	727.2
415.943	649.38
416.151	807.07
416.359	802.97
416.567	747.68
416.776	821.41
416.984	899.23
417.192	905.37
417.4	774.3
417.608	839.84
417.817	944.28
418.025	1001.63
418.233	1122.46
418.441	1050.78
418.649	1036.44
418.857	1151.13
419.065	1183.9
419.273	1233.05
419.481	1208.47
419.689	1388.69
419.897	1460.37
420.105	1286.3
420.313	1403.03
420.521	1509.52
420.729	1548.44
420.937	1542.29
421.145	1513.62
421.353	1695.89
421.561	1783.95
421.769	1896.59
421.977	1804.43
422.185	1904.78
422.393	2007.18
422.601	2052.24
422.809	2111.63
423.017	2052.24
423.224	2125.96
423.432	2293.9
423.64	2308.23
423.848	2494.6
424.056	2396.29
424.263	2625.67
424.471	2656.39
424.679	2660.48
424.887	2678.91
425.094	2826.37
425.302	2771.07
425.51	2994.3
425.718	3074.17
425.925	3182.71
426.133	3160.19
426.341	3434.61
426.548	3518.58
426.756	3596.4
426.964	3756.15
427.171	3838.06
427.379	3909.74
427.586	3870.83
427.794	4190.31
428.001	4378.73
428.209	4499.56
428.417	4345.96
428.624	4771.94
428.832	4833.38
429.039	4616.29
429.247	4673.64
429.454	5075.04
429.662	5541.97
429.869	5165.15
430.076	5435.48
430.284	5312.6
430.491	5644.37
430.699	5976.14
430.906	5986.38
431.114	6027.34
431.321	6355.02
431.528	6334.54
431.736	6750.28
431.943	7063.61
432.15	6938.69
432.358	7131.2
432.565	7358.52
432.772	7307.32
432.979	7745.59
433.187	7809.08
433.394	7811.12
433.601	8306.73
433.808	8380.46
434.016	8249.39
434.223	8689.7
434.43	9381.92
434.637	9160.73
434.844	9539.61
435.052	9613.34
435.259	9703.45
435.466	9889.81
435.673	9738.26
435.88	10622.98
436.087	10917.89
436.294	10891.27
436.501	10645.51
436.708	10784.77
436.915	11403.26
437.122	11825.14
437.329	11751.42
437.537	11960.31
437.743	12306.41
437.95	12222.45
438.157	12781.54
438.364	13242.34
438.571	13160.42
438.778	13184.99
438.985	14657.48
439.192	14241.75
439.399	14536.65
439.606	13952.98
439.813	14993.35
440.02	15910.84
440.227	15667.13
440.433	15357.89
440.64	15863.74
440.847	15806.39
441.054	16011.19
441.261	17069.99
441.467	17119.14
441.674	17665.95
441.881	18313.11
442.088	18081.69
442.294	17983.38
442.501	18497.42
442.708	18827.15
442.914	19521.41
443.121	20338.55
443.328	19795.84
443.534	21006.19
443.741	20664.18
443.948	20352.88
444.154	21794.65
444.361	21948.25
444.568	21845.85
444.774	21696.35
444.981	22064.99
445.187	23011.15
445.394	23680.83
445.6	23424.84
445.807	25542.44
446.013	24602.42
446.22	25284.39
446.426	26124.06
446.633	26545.94
446.839	26986.25
447.046	25859.87
447.252	27297.55
447.459	27258.63
447.665	27410.18
447.871	28452.6
448.078	29572.84
448.284	28550.9
448.491	29306.6
448.697	30189.28
448.903	30633.69
449.11	30508.76
449.316	30068.45
449.522	30746.33
449.728	31733.45
449.935	31991.49
450.141	31497.93
450.347	32425.66
450.553	31391.44
450.76	31862.47
450.966	32861.88
451.172	32542.39
451.378	33187.5
451.584	32550.59
451.791	33138.35
451.997	33580.71
452.203	33562.28
452.409	33760.94
452.615	33308.33
452.821	32247.49
453.027	32024.26
453.233	33762.98
453.44	32372.41
453.646	32587.45
453.852	33031.86
454.058	33294
454.264	32118.46
454.47	32552.63
454.676	31717.06
454.882	33201.84
455.088	30267.1
455.294	30392.03
455.5	30944.98
455.705	31301.33
455.911	30101.22
456.117	29091.57
456.323	28901.11
456.529	27385.61
456.735	28831.47
456.941	27715.33
457.147	27389.7
457.352	26777.36
457.558	26349.34
457.764	26543.89
457.97	25947.93
458.176	25095.98
458.381	25225
458.587	23799.62
458.793	23881.53
458.999	22683.47
459.204	24518.45
459.41	23564.1
459.616	22167.38
459.821	22407
460.027	21852
460.233	21430.12
460.438	20293.49
460.644	20721.52
460.85	19738.49
461.055	19554.18
461.261	19435.39
461.466	18016.15
461.672	17569.69
461.878	18472.85
462.083	17303.46
462.289	17160.1
462.494	17006.5
462.7	16203.7
462.905	15706.04
463.111	15949.75
463.316	16195.51
463.522	16025.53
463.727	16041.91
463.932	16019.38
464.138	15830.97
464.343	15929.27
464.549	15243.2
464.754	15904.7
464.959	15773.63
465.165	15396.8
465.37	15085.51
465.575	14426.06
465.781	14907.34
465.986	15366.08
466.191	14735.31
466.397	14526.41
466.602	14008.28
466.807	14315.47
467.012	14172.11
467.218	14061.52
467.423	13754.33
467.628	13957.08
467.833	14458.83
468.038	13979.61
468.244	13852.63
468.449	14071.76
468.654	13979.61
468.859	13694.94
469.064	13668.31
469.269	13260.77
469.474	13105.12
469.679	13510.62
469.885	12967.91
470.09	13082.6
470.295	13084.64
470.5	12879.85
470.705	13131.75
470.91	12615.66
471.115	12451.82
471.32	12666.86
471.525	12677.1
471.73	12322.8
471.935	12142.58
472.139	11907.06
472.344	12017.65
472.549	11882.49
472.754	11712.5
472.959	11454.46
473.164	11517.95
473.369	11059.2
473.574	11380.73
473.778	11362.3
473.983	11280.38
474.188	11264
474.393	10553.35
474.598	10965
474.802	10588.17
475.007	10483.72
475.212	10475.53
475.417	10094.61
475.621	10199.06
475.826	10194.96
476.031	9979.92
476.235	9932.82
476.44	9760.79
476.645	9834.52
476.849	9795.61
477.054	9750.55
477.259	9486.36
477.463	9547.8
477.668	9089.06
477.872	9461.79
478.077	9185.31
478.282	8964.13
478.486	8900.64
478.691	9041.95
478.895	8712.23
479.1	8955.94
479.304	8867.88
479.509	8454.19
479.713	8806.44
479.918	8454.19
480.122	8376.36
480.326	8665.13
480.531	8460.33
480.735	8251.44
480.94	8204.33
481.144	8495.15
481.348	8372.27
481.553	8370.22
481.757	8175.66
481.961	8202.29
482.166	8327.21
482.37	8212.53
482.574	8101.94
482.778	8194.09
482.983	8210.48
483.187	8233.01
483.391	8421.42
483.595	8171.57
483.8	8204.33
484.004	8028.21
484.208	8433.71
484.412	8060.98
484.616	8196.14
484.821	8011.82
485.025	8003.63
485.229	8278.06
485.433	8130.61
485.637	8179.76
485.841	8101.94
486.045	8065.07
486.249	8101.94
486.453	8114.22
486.657	8054.83
486.861	8155.18
487.065	8015.92
487.269	8065.07
487.473	7950.39
487.677	8224.81
487.881	8384.55
488.085	8036.4
488.289	8183.85
488.493	8026.16
488.697	8216.62
488.901	8171.57
489.105	8267.82
489.309	8177.71
489.512	8056.88
489.716	8235.05
489.92	8298.54
490.124	8218.67
490.328	8503.34
490.531	8273.96
490.735	8392.75
490.939	8554.54
491.143	8267.82
491.346	8226.86
491.55	8523.82
491.754	8364.08
491.958	8456.23
492.161	8450.09
492.365	8448.04
492.569	8644.65
492.772	8587.3
492.976	8663.08
493.18	8728.61
493.383	8919.07
493.587	8753.19
493.79	9017.38
493.994	8876.07
494.197	8695.85
494.401	9037.86
494.605	9107.49
494.808	8974.37
495.012	9064.48
495.215	9410.59
495.419	9490.46
495.622	9244.7
495.825	9496.6
496.029	9459.74
496.232	9713.69
496.436	9429.02
496.639	9844.76
496.843	9807.89
497.046	10016.79
497.249	10065.94
497.453	10113.04
497.656	10416.14
497.859	10240.01
498.063	10498.06
498.266	10604.55
498.469	10719.24
498.673	10680.33
498.876	10801.16
499.079	10870.79
499.282	10883.08
499.485	11169.79
499.689	11239.42
499.892	11481.08
500.095	11319.29
500.298	11792.37
500.501	11528.19
500.705	11753.46
500.908	12052.47
501.111	12046.32
501.314	12152.82
501.517	12439.53
501.72	12623.85
501.923	12738.54
502.126	12955.62
502.329	13015.01
502.532	13146.08
502.735	13193.19
502.938	13547.48
503.141	13322.21
503.344	13520.86
503.547	13492.19
503.75	13864.92
503.953	14016.47
504.156	14108.63
504.359	14016.47
504.562	14516.17
504.765	14585.8
504.968	14821.32
505.17	15085.51
505.373	15030.21
505.576	15415.23
505.779	15280.07
505.982	15607.74
506.185	15753.15
506.387	15802.3
506.59	15996.85
506.793	16578.48
506.996	16252.85
507.198	16840.62
507.401	16521.13
507.604	16891.82
507.807	17246.12
508.009	17252.26
508.212	17512.35
508.415	17518.5
508.617	17973.14
508.82	17659.81
509.022	17772.44
509.225	18261.91
509.428	18319.25
509.63	18583.44
509.833	18837.39
510.035	19220.36
510.238	19087.24
510.44	19378.05
510.643	19754.88
510.845	19711.87
511.048	19488.64
511.25	19591.04
511.453	19875.71
511.655	20823.92
511.858	20324.21
512.06	20453.23
512.262	20864.88
512.465	21034.86
512.667	21170.02
512.87	21487.46
513.072	21557.09
513.274	21704.54
513.477	22175.58
513.679	22093.66
513.881	22554.45
514.084	22863.69
514.286	22804.3
514.488	23179.08
514.69	23584.58
514.893	23465.8
515.095	23500.61
515.297	24051.52
515.499	23967.55
515.701	24493.88
515.904	24733.49
516.106	24950.57
516.308	24964.91
516.51	25214.76
516.712	25247.53
516.914	25712.42
517.116	26156.83
517.318	26130.2
517.52	26171.16
517.722	26443.54
517.925	26693.4
518.127	26965.78
518.329	27260.68
518.531	27234.06
518.733	27649.8
518.935	27967.23
519.136	27905.79
519.338	28126.97
519.54	28487.42
519.742	28550.9
519.944	28935.92
520.146	29406.95
520.348	29542.12
520.55	29533.93
520.752	29880.03
520.954	30189.28
521.155	29927.14
521.357	30551.77
521.559	30926.55
521.761	31045.33
521.963	31008.47
522.164	31729.35
522.366	31745.73
522.568	31907.52
522.77	32280.25
522.971	32716.47
523.173	32294.59
523.375	32714.42
523.576	32839.35
523.778	33253.04
523.98	33447.6
524.181	33892.01
524.383	33693.35
524.584	34002.6
524.786	34250.4
524.988	34168.48
525.189	34938.52
525.391	34948.76
525.592	35176.08
525.794	35608.2
525.995	35702.41
526.197	35546.76
526.398	35679.88
526.6	36069
526.801	36222.59
527.003	36155.01
527.204	36132.48
527.406	36877.94
527.607	36978.29
527.808	36994.68
528.01	36759.16
528.211	37140.08
528.412	37762.67
528.614	37492.33
528.815	37834.35
529.016	37850.73
529.218	37832.3
529.419	37541.49
529.62	37895.78
529.822	38254.18
530.023	38102.63
530.224	38442.59
530.425	38223.46
530.626	38041.19
530.828	38131.3
531.029	38667.87
531.23	38796.89
531.431	38721.12
531.632	39464.53
531.833	39216.72
532.035	39224.92
532.236	39073.37
532.437	39403.09
532.638	39040.6
532.839	39644.75
533.04	39679.57
533.241	39173.72
533.442	39839.31
533.643	39372.37
533.844	39675.47
534.045	39827.02
534.246	39376.47
534.447	40138.31
534.648	39927.37
534.849	39712.33
535.05	39614.03
535.251	39812.68
535.451	39962.18
535.652	40334.92
535.853	39812.68
536.054	40150.6
536.255	40275.52
536.456	39753.29
536.657	40607.3
536.857	40162.89
537.058	40044.1
537.259	40089.16
537.46	39788.11
537.66	40093.25
537.861	40328.77
538.062	39812.68
538.263	40386.11
538.463	40111.69
538.664	39947.85
538.865	40351.3
539.065	40517.18
539.266	40191.56
539.466	40463.94
539.667	40146.5
539.868	40502.85
540.068	40250.95
540.269	40238.66
540.469	40703.55
540.67	39953.99
540.87	40064.58
541.071	40130.12
541.271	40283.72
541.472	40123.97
541.672	40023.62
541.873	40228.42
542.073	39667.28
542.274	40715.84
542.474	40629.82
542.675	39747.15
542.875	40580.67
543.075	40187.46
543.276	39587.41
543.476	40349.25
543.676	39892.55
543.877	40588.86
544.077	40205.89
544.277	40107.59
544.478	39677.52
544.678	40052.3
544.878	40361.54
545.078	40058.44
545.279	39925.32
545.479	39835.21
545.679	40142.41
545.879	40564.29
546.079	40242.76
546.28	39755.34
546.48	39519.82
546.68	39810.64
546.88	40490.56
547.08	40263.24
547.28	40132.17
547.48	39614.03
547.68	40121.93
547.88	39618.13
548.081	39968.33
548.281	39904.84
548.481	40187.46
548.681	39990.86
548.881	40109.64
549.081	39702.09
549.28	39816.78
549.48	40343.11
549.68	40302.15
549.88	40349.25
550.08	39638.61
550.28	40072.78
550.48	40121.93
550.68	39968.33
550.88	39765.58
551.08	39812.68
551.279	39822.92
551.479	39753.29
551.679	39876.17
551.879	39575.12
552.079	40054.34
552.278	39507.54
552.478	39734.86
552.678	40064.58
552.878	39657.04
553.077	39401.04
553.277	39722.57
553.477	39949.9
553.676	39491.15
553.876	39659.09
554.076	39568.97
554.275	39329.36
554.475	39048.79
554.674	39212.63
554.874	39411.28
555.074	39040.6
555.273	39466.58
555.473	39466.58
555.672	39175.76
555.872	39128.66
556.071	39384.66
556.271	39501.39
556.47	38800.99
556.67	38356.58
556.869	38854.23
557.068	38819.42
557.268	38401.63
557.467	38819.42
557.667	38735.45
557.866	38614.62
558.065	38469.22
558.265	38446.69
558.464	38297.19
558.663	38403.68
558.863	37850.73
559.062	38741.6
559.261	37459.57
559.461	38213.22
559.66	37500.53
559.859	37908.07
560.058	37670.51
560.258	37752.43
560.457	36927.1
560.656	37875.3
560.855	37019.25
561.054	37443.18
561.253	36953.72
561.453	37070.45
561.652	37346.93
561.851	37140.08
562.05	36685.43
562.249	36767.35
562.448	36843.13
562.647	36832.89
562.846	36669.05
563.045	36710.01
563.244	35976.84
563.443	36839.03
563.642	35821.19
563.841	36089.48
564.04	35923.59
564.239	36234.88
564.438	35798.66
564.637	36241.03
564.836	35982.98
565.035	35530.38
565.234	35798.66
565.432	35075.73
565.631	35247.76
565.83	35239.57
566.029	35372.69
566.228	35122.83
566.427	35217.04
566.625	34838.17
566.824	34295.46
567.023	35133.07
567.222	34205.34
567.42	34551.45
567.619	34141.86
567.818	33724.07
568.016	34023.08
568.215	34346.65
568.414	34045.6
568.612	34387.61
568.811	33896.1
569.01	33830.57
569.208	33306.29
569.407	33666.73
569.605	32896.69
569.804	33322.67
570.002	32964.28
570.201	33038
570.4	32462.52
570.598	32622.26
570.797	32341.69
570.995	32489.15
571.193	32392.89
571.392	32528.06
571.59	32335.55
571.789	32253.63
571.987	31801.03
572.186	32175.81
572.384	31727.3
572.582	31622.86
572.781	31790.79
572.979	31237.84
573.177	31438.54
573.376	31751.88
573.574	31196.88
573.772	31098.58
573.971	30881.49
574.169	30756.57
574.367	30533.34
574.565	30916.31
574.763	30736.09
574.962	30787.28
575.16	30387.93
575.358	30752.47
575.556	29888.23
575.754	30668.5
575.952	29861.6
576.151	30041.82
576.349	29738.72
576.547	29791.97
576.745	29798.12
576.943	29820.64
577.141	29865.7
577.339	29703.91
577.537	29345.51
577.735	29406.95
577.933	29193.97
578.131	29292.27
578.329	28921.59
578.527	29144.81
578.725	29105.9
578.923	29292.27
579.121	28471.03
579.319	28491.51
579.516	28882.67
579.714	28604.15
579.912	28282.62
580.11	28387.07
580.308	28198.65
580.506	28317.43
580.704	27633.41
580.901	27897.6
581.099	28178.17
581.297	27731.72
581.495	27893.51
581.692	27467.53
581.89	27416.33
582.088	27737.86
582.285	27137.8
582.483	27492.1
582.681	27172.62
582.878	27199.24
583.076	27193.1
583.274	26992.4
583.471	26760.98
583.669	26933.01
583.866	26744.59
584.064	26855.18
584.262	26382.1
584.459	26883.86
584.657	26488.6
584.854	26736.4
585.052	26162.97
585.249	26146.59
585.447	26291.99
585.644	26093.34
585.841	26400.54
586.039	26511.13
586.236	25900.83
586.434	25741.09
586.631	25927.46
586.828	25747.23
587.026	25567.01
587.223	25698.08
587.42	25394.98
587.618	25788.19
587.815	25210.67
588.012	25161.51
588.21	25214.76
588.407	25507.62
588.604	24749.87
588.801	24629.04
588.999	24969.01
589.196	24610.61
589.393	24596.28
589.59	24665.91
589.787	24897.33
589.984	24194.87
590.182	24211.26
590.379	24547.12
590.576	24131.39
590.773	24217.4
590.97	24102.71
591.167	24141.63
591.364	23519.04
591.561	24129.34
591.758	23594.82
591.955	23932.73
592.152	23922.49
592.349	23367.49
592.546	23572.29
592.743	23525.19
592.94	23338.82
593.137	23467.84
593.334	23482.18
593.531	22957.9
593.727	23258.95
593.924	23240.52
594.121	22898.51
594.318	23203.66
594.515	22789.97
594.712	22783.82
594.908	22759.25
595.105	22529.87
595.302	22533.97
595.499	22548.31
595.696	22583.12
595.892	22327.13
596.089	22509.4
596.286	22388.57
596.482	22439.76
596.679	22071.13
596.876	22173.53
597.072	22239.06
597.269	21819.23
597.466	21622.62
597.662	21653.34
597.859	21704.54
598.055	21759.84
598.252	21561.19
598.448	21667.68
598.645	21501.79
598.841	21034.86
599.038	21555.04
599.234	21456.74
599.431	21100.39
599.627	20989.8
599.824	21198.7
600.02	20848.49
600.217	20723.57
600.413	20774.77
600.609	20742
600.806	20787.05
601.002	20707.18
601.198	20432.75
601.395	20399.99
601.591	20473.71
601.787	20434.8
601.984	20234.1
602.18	20651.89
602.376	20371.32
602.572	20223.86
602.769	19978.11
602.965	20027.26
603.161	20002.68
603.357	19949.43
603.553	20037.5
603.75	19689.34
603.946	19849.08
604.142	19801.98
604.338	19844.99
604.534	19343.24
604.73	19312.52
604.926	19437.44
605.122	19695.49
605.318	19300.23
605.514	19021.7
605.71	19136.39
605.906	19197.83
606.102	18931.59
606.298	18884.49
606.494	18962.31
606.69	19103.62
606.886	19214.21
607.082	18583.44
607.278	18909.07
607.474	18663.31
607.67	18909.07
607.866	18241.43
608.062	18421.65
608.257	18335.63
608.453	18450.32
608.649	18440.08
608.845	18347.92
609.041	18255.76
609.236	18333.59
609.432	18540.43
609.628	18349.97
609.824	18319.25
610.019	18173.85
610.215	18151.32
610.411	17919.9
610.606	17985.43
610.802	18108.31
610.998	17876.89
611.193	17801.12
611.389	17729.44
611.584	17797.02
611.78	17637.28
611.976	17745.82
612.171	17749.92
612.367	17936.28
612.562	17624.99
612.758	17506.21
612.953	17209.25
613.149	17506.21
613.344	17438.62
613.539	17514.4
613.735	17639.33
613.93	17557.41
614.126	17364.9
614.321	17457.06
614.517	17430.43
614.712	17311.65
614.907	17199.01
615.103	17227.68
615.298	17119.14
615.493	17229.73
615.688	16992.17
615.884	17250.21
616.079	16854.95
616.274	16945.06
616.47	16961.45
616.665	16682.92
616.86	16539.57
617.055	16644.01
617.25	16734.12
617.445	17031.08
617.641	16576.43
617.836	16388.02
618.031	16451.5
618.226	16588.72
618.421	16277.43
618.616	16560.05
618.811	16277.43
619.006	16619.44
619.201	16019.38
619.396	16402.35
619.591	15706.04
619.786	16158.64
619.981	15781.82
620.176	16072.63
620.371	15697.85
620.566	15773.63
620.761	15525.82
620.956	15847.35
621.151	15527.87
621.346	15562.69
621.541	15108.04
621.735	15458.24
621.93	15296.45
622.125	15183.81
622.32	14903.24
622.515	15167.43
622.709	14778.31
622.904	15093.7
623.099	14940.1
623.294	15056.84
623.488	14702.54
623.683	14927.81
623.878	14362.58
624.072	14557.13
624.267	14573.52
624.462	14381.01
624.656	14211.03
624.851	14321.62
625.046	14075.86
625.24	14155.73
625.435	13815.77
625.629	13934.55
625.824	14057.43
626.018	13776.86
626.213	13590.49
626.407	13594.59
626.602	13461.47
626.796	13608.92
626.991	13232.1
627.185	13199.33
627.38	13211.62
627.574	13203.43
627.768	13033.44
627.963	13184.99
628.157	12769.26
628.352	12716.01
628.546	12480.49
628.74	12783.59
628.935	12449.77
629.129	12685.29
629.323	12464.11
629.517	12169.2
629.712	12443.63
629.906	12376.05
630.1	12062.71
630.294	12292.08
630.489	11888.63
630.683	11941.88
630.877	11931.64
631.071	11915.25
631.265	11915.25
631.459	11819
631.653	11681.78
631.848	11487.23
632.042	11614.2
632.236	11563
632.43	11575.29
632.624	11472.89
632.818	11399.16
633.012	11407.36
633.206	11180.03
633.4	11194.37
633.594	11298.81
633.788	11298.81
633.982	11071.49
634.176	11069.44
634.369	10967.04
634.563	10985.48
634.757	10809.35
634.951	10870.79
635.145	10737.67
635.339	10756.1
635.533	10674.18
635.726	10637.32
635.92	10305.55
636.114	10377.23
636.308	10547.21
636.501	10211.34
636.695	10266.64
636.889	10117.14
637.083	10221.58
637.276	10047.51
637.47	9981.97
637.664	10020.88
637.857	10024.98
638.051	9826.32
638.244	9834.52
638.438	9693.21
638.632	9717.78
638.825	9547.8
639.019	9693.21
639.212	9463.83
639.406	9445.4
639.599	9607.19
639.793	9578.52
639.986	9295.9
640.18	9343
640.373	9263.13
640.567	9232.41
640.76	9218.08
640.954	9046.05
641.147	8966.18
641.34	8933.41
641.534	9033.76
641.727	8794.15
641.92	8964.13
642.114	8730.66
642.307	8753.19
642.5	8769.57
642.694	8683.56
642.887	8654.89
643.08	8646.69
643.273	8544.3
643.467	8550.44
643.66	8407.08
643.853	8314.92
644.046	8519.72
644.239	8241.2
644.432	8212.53
644.626	8302.64
644.819	8153.13
645.012	8273.96
645.205	8087.6
645.398	8042.54
645.591	8013.87
645.784	8056.88
645.977	7915.57
646.17	7886.9
646.363	7925.81
646.556	7766.07
646.749	7790.64
646.942	7809.08
647.135	7772.21
647.328	7579.7
647.521	7690.29
647.714	7573.56
647.907	7508.02
648.099	7512.12
648.292	7411.77
648.485	7516.22
648.678	7403.58
648.871	7569.46
649.064	7442.49
649.256	7385.15
649.449	7260.22
649.642	7317.56
649.835	7028.8
650.027	7213.12
650.22	7196.73
650.413	7067.71
650.605	7168.06
650.798	7204.92
650.991	6867.01
651.183	6860.87
651.376	6639.69
651.568	6873.15
651.761	6899.78
651.954	6805.57
652.146	6821.95
652.339	6803.52
652.531	6807.62
652.724	6897.73
652.916	6629.45
653.109	6559.81
653.301	6721.6
653.494	6703.17
653.686	6463.56
653.879	6512.71
654.071	6529.1
654.263	6465.61
654.456	6479.94
654.648	6426.7
654.84	6365.26
655.033	6312.01
655.225	6504.52
655.417	6414.41
655.61	6207.56
655.802	6236.24
655.994	6226
656.186	6230.09
656.379	6053.97
656.571	6137.93
656.763	6053.97
656.955	5992.53
657.148	5951.57
657.34	6148.17
657.532	5967.95
657.724	5916.75
657.916	5851.22
658.108	5908.56
658.3	5859.41
658.492	5898.32
658.684	5675.09
658.876	5814.35
659.068	5757.01
659.26	5697.62
659.452	5685.33
659.644	5572.69
659.836	5554.26
660.028	5681.24
660.22	5505.11
660.412	5623.89
660.604	5640.28
660.796	5498.97
660.988	5595.22
661.18	5509.21
661.372	5451.86
661.563	5451.86
661.755	5345.37
661.947	5294.17
662.139	5277.79
662.331	5185.63
662.522	5390.42
662.714	5234.78
662.906	5238.87
663.097	5240.92
663.289	5310.55
663.481	5228.63
663.673	5277.79
663.864	5044.32
664.056	5091.42
664.247	5298.27
664.439	5283.93
664.631	5081.18
664.822	5111.9
665.014	5122.14
665.205	4976.73
665.397	5122.14
665.588	4997.21
665.78	4991.07
665.971	5052.51
666.163	4939.87
666.354	5005.41
666.546	5001.31
666.737	4980.83
666.929	4874.34
667.12	4927.58
667.311	4825.19
667.503	4923.49
667.694	4892.77
667.885	4874.34
668.077	4948.06
668.268	4806.75
668.459	4786.27
668.651	4835.42
668.842	4776.03
669.033	4907.1
669.224	4745.31
669.416	4718.69
669.607	4767.84
669.798	4833.38
669.989	4917.34
670.18	4771.94
670.371	4718.69
670.563	4694.12
670.754	4755.55
670.945	4653.16
671.136	4759.65
671.327	4825.19
671.518	4749.41
671.709	4673.64
671.9	4647.01
672.091	4849.76
672.282	4802.66
672.473	4816.99
672.664	4712.55
672.855	4681.83
673.046	4773.99
673.237	4829.28
673.428	4722.79
673.619	4841.57
673.809	4571.24
674	4771.94
674.191	4755.55
674.382	4669.54
674.573	4733.03
674.764	4687.97
674.954	4757.6
675.145	4816.99
675.336	4628.58
675.527	4851.81
675.717	4870.24
675.908	4757.6
676.099	4704.35
676.289	4812.9
676.48	4593.76
676.671	4730.98
676.861	4735.07
677.052	4780.13
677.243	4778.08
677.433	4769.89
677.624	4882.53
677.814	4773.99
678.005	4829.28
678.195	4913.25
678.386	4771.94
678.576	4716.64
678.767	4882.53
678.957	4837.47
679.148	4866.14
679.338	4749.41
679.529	4962.4
679.719	4980.83
679.909	4939.87
680.1	4798.56
680.29	4857.95
680.481	4890.72
680.671	4880.48
680.861	4890.72
681.052	5060.7
681.242	5005.41
681.432	5042.27
681.622	4878.43
681.813	5113.95
682.003	4997.21
682.193	4993.12
682.383	4984.93
682.573	5001.31
682.764	5116
682.954	5193.82
683.144	5087.33
683.334	5091.42
683.524	5042.27
683.714	5064.8
683.904	5146.72
684.094	5077.09
684.284	5001.31
684.474	5230.68
684.664	5152.86
684.854	5154.91
685.044	5070.94
685.234	4999.26
685.424	5212.25
685.614	5146.72
685.804	5034.08
685.994	4950.11
686.184	4974.69
686.374	5025.89
686.564	4878.43
686.753	5017.69
686.943	4771.94
687.133	4950.11
687.323	4995.17
687.513	4943.97
687.702	4862.05
687.892	4755.55
688.082	4946.02
688.272	4917.34
688.461	4769.89
688.651	4814.95
688.841	4591.72
689.03	4788.32
689.22	4790.37
689.41	4657.25
689.599	4724.83
689.789	4726.88
689.979	4696.16
690.168	4737.12
690.358	4587.62
690.547	4470.89
690.737	4540.52
690.926	4558.95
691.116	4343.91
691.305	4509.8
691.495	4366.44
691.684	4474.98
691.874	4399.21
692.063	4345.96
692.252	4223.08
692.442	4370.54
692.631	4206.7
692.82	4155.5
693.01	4264.04
693.199	4155.5
693.388	4124.78
693.578	4210.79
693.767	4378.73
693.956	4022.38
694.146	3942.51
694.335	4100.2
694.524	4067.44
694.713	3969.13
694.902	3958.89
695.092	4067.44
695.281	3860.59
695.47	3864.69
695.659	3817.58
695.848	3829.87
696.037	3940.46
696.226	3934.32
696.415	3807.34
696.604	3952.75
696.793	3911.79
696.982	3776.63
697.171	3911.79
697.36	3694.71
697.549	3735.67
697.738	3764.34
697.927	3821.68
698.116	3821.68
698.305	3780.72
698.494	3790.96
698.683	3723.38
698.872	3836.02
699.061	3625.08
699.25	3711.09
699.438	3727.47
699.627	3778.67
699.816	3649.65
700.005	3631.22
700.193	3696.75
700.382	3795.06
700.571	3616.88
700.76	3770.48
700.948	3823.73
701.137	3895.41
701.326	3885.17
701.514	3653.75
701.703	3750
701.892	3682.42
702.08	3770.48
702.269	3530.87
702.457	3577.97
702.646	3639.41
702.834	3733.62
703.023	3655.79
703.212	3778.67
703.4	3653.75
703.589	3694.71
703.777	3719.28
703.965	3614.84
704.154	3768.43
704.342	3674.23
704.531	3713.14
704.719	3666.03
704.907	3854.45
705.096	3825.78
705.284	3821.68
705.472	3850.35
705.661	3750
705.849	3907.7
706.037	3813.49
706.226	3821.68
706.414	3788.91
706.602	3715.19
706.79	3858.54
706.979	3723.38
707.167	3801.2
707.355	3784.82
707.543	3885.17
707.731	3887.22
707.919	3965.04
708.107	3881.07
708.296	3930.22
708.484	3948.65
708.672	3962.99
708.86	3999.85
709.048	3852.4
709.236	4008.05
709.424	4114.54
709.612	3981.42
709.8	3942.51
709.988	3977.33
710.176	4049
710.364	4092.01
710.551	3981.42
710.739	4071.53
710.927	4083.82
711.115	4163.69
711.303	4108.4
711.491	4128.88
711.679	4032.62
711.866	4120.68
712.054	4208.75
712.242	4073.58
712.43	4190.31
712.617	4190.31
712.805	4214.89
712.993	4178.03
713.181	4305
713.368	4388.97
713.556	4313.19
713.744	4237.42
713.931	4460.65
714.119	4411.5
714.306	4384.87
714.494	4380.78
714.682	4448.36
714.869	4302.95
715.057	4460.65
715.244	4409.45
715.432	4544.61
715.619	4409.45
715.807	4409.45
715.994	4661.35
716.182	4503.65
716.369	4591.72
716.556	4696.16
716.744	4540.52
716.931	4624.48
717.119	4720.74
717.306	4563.05
717.493	4743.27
717.681	4763.75
717.868	4677.73
718.055	4620.39
718.242	4862.05
718.43	4763.75
718.617	4878.43
718.804	4894.82
718.991	4911.2
719.179	4808.8
719.366	4886.62
719.553	4915.3
719.74	4968.54
719.927	4808.8
720.114	4866.14
720.301	4878.43
720.488	4864.1
720.676	4868.19
720.863	4986.97
721.05	5179.48
721.237	5097.56
721.424	5152.86
721.611	5085.28
721.798	5040.22
721.985	5093.47
722.172	5032.03
722.358	5138.52
722.545	5271.64
722.732	4982.88
722.919	5140.57
723.106	5107.8
723.293	5238.87
723.48	5171.29
723.667	5261.4
723.853	5230.68
724.04	5308.51
724.227	5312.6
724.414	5292.12
724.6	5240.92
724.787	5435.48
724.974	5345.37
725.161	5310.55
725.347	5277.79
725.534	5484.63
725.72	5412.95
725.907	5501.01
726.094	5556.31
726.28	5486.68
726.467	5488.73
726.653	5630.04
726.84	5509.21
727.027	5754.96
727.213	5443.67
727.4	5591.13
727.586	5625.94
727.773	5511.25
727.959	5599.32
728.145	5683.28
728.332	5488.73
728.518	5718.1
728.705	5843.03
728.891	5689.43
729.077	5607.51
729.264	5818.45
729.45	5853.27
729.636	5881.94
729.823	5752.91
730.009	5818.45
730.195	5828.69
730.382	5902.42
730.568	5834.83
730.754	5748.82
730.94	6017.1
731.126	5845.07
731.313	5984.34
731.499	6023.25
731.685	5955.66
731.871	5908.56
732.057	5791.83
732.243	5890.13
732.429	5894.22
732.615	6019.15
732.801	5972.05
732.987	5957.71
733.173	5918.8
733.359	6049.87
733.545	6047.82
733.731	5881.94
733.917	6035.53
734.103	6053.97
734.289	6017.1
734.475	5984.34
734.661	6172.75
734.847	6047.82
735.033	6013.01
735.219	6002.77
735.404	6062.16
735.59	6004.82
735.776	5939.28
735.962	6099.02
736.148	6074.45
736.333	6086.73
736.519	6045.77
736.705	6031.44
736.89	6127.69
737.076	6080.59
737.262	5902.42
737.447	6068.3
737.633	5824.59
737.819	6000.72
738.004	5967.95
738.19	5851.22
738.375	6131.79
738.561	6166.6
738.747	6072.4
738.932	5922.9
739.118	6393.93
739.303	6105.17
739.489	5959.76
739.674	6031.44
739.859	5980.24
740.045	6045.77
740.23	6039.63
740.416	5812.31
740.601	6115.41
740.786	5808.21
740.972	5853.27
741.157	5959.76
741.342	5943.38
741.528	6033.49
741.713	5853.27
741.898	5787.73
742.084	5797.97
742.269	5806.16
742.454	5787.73
742.639	5816.4
742.824	5679.19
743.01	5689.43
743.195	5883.98
743.38	5677.14
743.565	5664.85
743.75	5754.96
743.935	5797.97
744.12	5623.89
744.305	5671
744.49	5673.04
744.675	5494.87
744.86	5507.16
745.045	5580.89
745.23	5634.13
745.415	5630.04
745.6	5632.08
745.785	5296.22
745.97	5468.25
746.155	5257.31
746.34	5484.63
746.525	5304.41
746.71	5419.1
746.895	5263.45
747.079	5281.88
747.264	5202.01
747.449	5304.41
747.634	5236.83
747.819	5230.68
748.003	5148.76
748.188	4972.64
748.373	5152.86
748.557	5167.2
748.742	5083.23
748.927	4970.59
749.111	4804.71
749.296	4876.38
749.481	4991.07
749.665	4806.75
749.85	4831.33
750.034	4989.02
750.219	4745.31
750.404	4714.59
750.588	4743.27
750.773	4692.07
750.957	4690.02
751.141	4671.59
751.326	4561
751.51	4483.17
751.695	4667.49
751.879	4446.31
752.064	4505.7
752.248	4384.87
752.432	4517.99
752.617	4317.29
752.801	4196.46
752.985	4247.66
753.17	4229.23
753.354	4227.18
753.538	4247.66
753.722	4231.27
753.907	4296.81
754.091	4022.38
754.275	4010.09
754.459	3928.17
754.643	3868.78
754.828	3997.81
755.012	3881.07
755.196	3989.61
755.38	3862.64
755.564	3838.06
755.748	3790.96
755.932	3874.93
756.116	3766.39
756.3	3678.32
756.484	3815.54
756.668	3727.47
756.852	3512.44
757.036	3745.91
757.22	3549.3
757.404	3653.75
757.588	3475.57
757.772	3657.84
757.956	3500.15
758.14	3457.14
758.323	3426.42
758.507	3508.34
758.691	3338.36
758.875	3373.18
759.059	3506.29
759.242	3344.5
759.426	3254.39
759.61	3319.93
759.794	3254.39
759.977	3231.87
760.161	3412.09
760.345	3362.94
760.528	3326.07
760.712	3174.52
760.895	3158.14
761.079	3059.84
761.263	3117.18
761.446	3258.49
761.63	3156.09
761.813	3100.8
761.997	3010.68
762.18	3154.04
762.364	3037.31
762.547	2934.91
762.731	2926.72
762.914	3043.45
763.098	2797.7
763.281	2947.2
763.464	2867.33
763.648	2898.05
763.831	2910.33
764.015	2871.42
764.198	2859.14
764.381	2869.37
764.564	2805.89
764.748	2756.74
764.931	2830.46
765.114	2764.93
765.297	2744.45
765.481	2707.59
765.664	2744.45
765.847	2633.86
766.03	2678.91
766.213	2662.53
766.397	2699.39
766.58	2617.47
766.763	2715.78
766.946	2568.32
767.129	2707.59
767.312	2603.14
767.495	2570.37
767.678	2517.12
767.861	2510.98
768.044	2451.59
768.227	2453.64
768.41	2494.6
768.593	2504.84
768.776	2388.1
768.959	2437.25
769.142	2601.09
769.324	2367.62
769.507	2371.72
769.69	2379.91
769.873	2424.97
770.056	2396.29
770.239	2445.45
770.421	2347.14
770.604	2357.38
770.787	2242.7
770.97	2322.57
771.152	2228.36
771.335	2373.77
771.518	2287.75
771.7	2265.22
771.883	2349.19
772.066	2166.92
772.248	2136.2
772.431	2277.51
772.613	2158.73
772.796	2148.49
772.978	2125.96
773.161	2158.73
773.343	2097.29
773.526	2058.38
773.708	1996.94
773.891	1986.7
774.073	2093.19
774.256	2074.76
774.438	2031.76
774.621	1962.12
774.803	2060.43
774.985	1953.93
775.168	1937.55
775.35	1890.45
775.532	1998.99
775.715	1945.74
775.897	1933.45
776.079	1880.21
776.261	1867.92
776.444	1994.89
776.626	1833.1
776.808	1790.1
776.99	1652.88
777.173	1740.94
777.355	1759.38
777.537	1642.64
777.719	1706.13
777.901	1659.03
778.083	1673.36
778.265	1695.89
778.447	1722.51
778.629	1593.49
778.811	1650.83
778.993	1591.44
779.175	1665.17
779.357	1609.87
779.539	1532.05
779.721	1540.24
779.903	1583.25
780.085	1579.15
780.267	1613.97
780.449	1544.34
780.631	1560.72
780.812	1601.68
780.994	1429.65
781.176	1532.05
781.358	1491.09
781.54	1523.86
781.721	1443.99
781.903	1411.22
782.085	1349.78
782.267	1372.31
782.448	1347.73
782.63	1339.54
782.812	1405.08
782.993	1239.19
783.175	1433.75
783.357	1368.21
783.538	1345.69
783.72	1278.1
783.901	1265.82
784.083	1296.53
784.264	1228.95
784.446	1183.9
784.627	1233.05
784.809	1282.2
784.99	1222.81
785.172	1212.57
785.353	1233.05
785.535	1185.94
785.716	1116.31
785.897	1157.27
786.079	1163.42
786.26	1218.71
786.441	1179.8
786.623	1124.51
786.804	1104.03
786.985	1038.49
787.167	1110.17
787.348	1042.59
787.529	985.24
787.71	1007.77
787.891	1077.4
788.073	938.14
788.254	993.44
788.435	1003.68
788.616	1030.3
788.797	999.58
788.978	979.1
789.159	1036.44
789.34	987.29
789.522	942.24
789.703	985.24
789.884	950.43
790.065	929.95
790.246	1038.49
790.427	970.91
790.607	940.19
790.788	864.41
790.969	983.2
791.15	856.22
791.331	972.96
791.512	831.65
791.693	825.5
791.874	807.07
792.054	934.04
792.235	831.65
792.416	798.88
792.597	901.28
792.778	813.21
792.958	833.69
793.139	872.61
793.32	825.5
793.5	825.5
793.681	895.13
793.862	888.99
794.042	772.25
794.223	794.78
794.404	782.49
794.584	729.25
794.765	680.1
794.945	764.06
795.126	833.69
795.306	800.93
795.487	694.43
795.667	813.21
795.848	723.1
796.028	757.92
796.209	778.4
796.389	823.45
796.57	639.14
796.75	676
796.93	667.81
797.111	688.29
797.291	714.91
797.471	671.9
797.652	622.75
797.832	635.04
798.012	755.87
798.192	635.04
798.373	561.31
798.553	639.14
798.733	690.34
798.913	624.8
799.093	676
799.274	587.94
799.454	702.62
799.634	649.38
799.814	661.66
799.994	657.57
800.174	622.75
800.354	561.31
800.534	551.07
800.714	700.58
800.894	581.79
801.074	630.95
801.254	618.66
801.434	676
801.614	491.68
801.794	594.08
801.974	1259.67
802.154	555.17
802.334	616.61
802.514	518.31
802.693	583.84
802.873	610.47
803.053	532.64
803.233	606.37
803.413	579.75
803.592	508.07
803.772	499.88
803.952	626.85
804.131	487.59
804.311	600.23
804.491	632.99
804.67	569.51
804.85	542.88
805.03	518.31
805.209	540.83
805.389	520.35
805.568	493.73
805.748	413.86
805.928	397.48
806.107	551.07
806.287	544.93
806.466	473.25
806.646	493.73
806.825	530.59
807.004	544.93
807.184	512.16
807.363	549.03
807.543	446.63
807.722	467.11
807.901	508.07
808.081	508.07
808.26	340.13
808.439	444.58
808.619	454.82
808.798	473.25
808.977	377
809.156	448.68
809.336	415.91
809.515	426.15
809.694	411.81
809.873	395.43
810.052	430.24
810.231	526.5
810.411	395.43
810.59	401.57
810.769	420
810.948	479.4
811.127	428.2
811.306	463.01
811.485	413.86
811.664	473.25
811.843	352.42
812.022	395.43
812.201	389.28
812.38	469.16
812.559	389.28
812.737	401.57
812.916	420
813.095	409.76
813.274	436.39
813.453	477.35
813.632	405.67
813.811	274.6
813.989	344.23
814.168	336.04
814.347	290.98
814.526	409.76
814.704	413.86
814.883	483.49
815.062	360.61
815.24	454.82
815.419	428.2
815.598	370.85
815.776	379.04
815.955	329.89
816.133	348.33
816.312	401.57
816.49	358.57
816.669	348.33
816.847	379.04
817.026	379.04
817.204	331.94
817.383	340.13
817.561	301.22
817.74	309.41
817.918	401.57
818.097	325.8
818.275	356.52
818.453	413.86
818.632	280.74
818.81	319.65
818.988	315.56
819.167	358.57
819.345	333.99
819.523	290.98
819.701	354.47
819.879	348.33
820.058	233.64
820.236	368.81
820.414	348.33
820.592	315.56
820.77	370.85
820.948	276.65
821.127	329.89
821.305	309.41
821.483	280.74
821.661	348.33
821.839	293.03
822.017	213.16
822.195	239.78
822.373	290.98
822.551	286.89
822.729	313.51
822.907	262.31
823.085	362.66
823.262	258.21
823.44	215.21
823.618	256.17
823.796	233.64
823.974	239.78
824.152	233.64
824.329	211.11
824.507	299.17
824.685	256.17
824.863	215.21
825.04	225.45
825.218	266.41
825.396	223.4
825.574	221.35
825.751	327.85
825.929	299.17
826.107	307.37
826.284	176.3
826.462	274.6
826.639	299.17
826.817	211.11
826.994	250.02
827.172	241.83
827.349	256.17
827.527	186.54
827.704	274.6
827.882	184.49
828.059	247.97
828.237	233.64
828.414	266.41
828.591	229.54
828.769	188.58
828.946	245.93
829.124	221.35
829.301	225.45
829.478	200.87
829.655	258.21
829.833	274.6
830.01	168.1
830.187	207.02
830.364	204.97
830.542	237.74
830.719	276.65
830.896	137.38
831.073	233.64
831.25	315.56
831.427	252.07
831.604	209.06
831.782	143.53
831.959	215.21
832.136	209.06
832.313	168.1
832.49	184.49
832.667	151.72
832.844	180.39
833.021	196.78
833.198	233.64
833.374	207.02
833.551	133.29
833.728	209.06
833.905	215.21
834.082	53.42
834.259	204.97
834.436	151.72
834.612	225.45
834.789	245.93
834.966	151.72
835.143	100.52
835.319	125.1
835.496	250.02
835.673	184.49
835.85	159.91
836.026	176.3
836.203	217.26
836.38	159.91
836.556	135.34
836.733	92.33
836.909	223.4
837.086	166.06
837.262	174.25
837.439	168.1
837.616	188.58
837.792	188.58
837.968	153.77
838.145	102.57
838.321	182.44
838.498	164.01
838.674	188.58
838.851	192.68
839.027	227.5
839.203	168.1
839.38	225.45
839.556	202.92
839.732	192.68
839.909	155.82
840.085	217.26
840.261	155.82
840.437	151.72
840.614	174.25
840.79	151.72
840.966	86.19
841.142	159.91
841.318	170.15
841.494	135.34
841.671	204.97
841.847	61.61
842.023	135.34
842.199	94.38
842.375	86.19
842.551	116.9
842.727	88.23
842.903	147.62
843.079	139.43
843.255	184.49
843.431	125.1
843.607	188.58
843.783	53.42
843.959	61.61
844.134	153.77
844.31	151.72
844.486	159.91
844.662	157.86
844.838	82.09
845.013	213.16
845.189	225.45
845.365	137.38
845.541	143.53
845.716	159.91
845.892	88.23
846.068	71.85
846.244	75.95
846.419	135.34
846.595	2.22
846.77	135.34
846.946	112.81
847.122	41.13
847.297	57.51
847.473	104.62
847.648	37.03
847.824	61.61
847.999	61.61
848.175	37.03
848.35	114.86
848.526	110.76
848.701	28.84
848.876	157.86
849.052	147.62
849.227	92.33
849.403	63.66
849.578	135.34
849.753	135.34
849.929	149.67
850.104	100.52
850.279	137.38
850.454	45.23
850.63	139.43
850.805	82.09
850.98	92.33
851.155	67.75
851.33	57.51
851.505	43.18
851.681	77.99
851.856	94.38
852.031	151.72
852.206	98.47
852.381	28.84
852.556	77.99
852.731	53.42
852.906	108.71
853.081	45.23
853.256	188.58
853.431	94.38
853.606	61.61
853.781	28.84
853.956	4.27
854.131	151.72
854.305	84.14
854.48	-20.31
854.655	94.38
854.83	28.84
855.005	110.76
855.18	57.51
855.354	22.7
855.529	53.42
855.704	32.94
855.879	108.71
856.053	-18.26
856.228	57.51
856.403	53.42
856.577	32.94
856.752	-24.4
856.926	51.37
857.101	32.94
857.276	4.27
857.45	92.33
857.625	92.33
857.799	86.19
857.974	86.19
858.148	18.6
858.323	129.19
858.497	55.47
858.672	2.22
858.846	37.03
859.02	92.33
859.195	-18.26
859.369	10.41
859.543	63.66
859.718	22.7
859.892	92.33
860.066	108.71
860.241	82.09
860.415	41.13
860.589	106.67
860.763	51.37
860.938	6.31
861.112	77.99
861.286	61.61
861.46	43.18
861.634	37.03
861.808	67.75
861.982	53.42
862.157	61.61
862.331	-3.93
862.505	100.52
862.679	34.99
862.853	61.61
863.027	30.89
863.201	94.38
863.375	75.95
863.549	61.61
863.722	30.89
863.896	147.62
864.07	34.99
864.244	71.85
864.418	37.03
864.592	88.23
864.766	49.32
864.939	16.55
865.113	12.46
865.287	104.62
865.461	26.79
865.634	149.67
865.808	39.08
865.982	20.65
866.156	127.14
866.329	-10.07
866.503	94.38
866.676	151.72
866.85	67.75
867.024	104.62
867.197	-12.12
867.371	18.6
867.544	2.22
867.718	-1.88
867.891	45.23
868.065	18.6
868.238	10.41
868.412	94.38
868.585	-16.21
868.759	-44.88
868.932	18.6
869.105	28.84
869.279	123.05
869.452	41.13
869.625	82.09
869.799	34.99
869.972	-22.36
870.145	-57.17
870.319	69.8
870.492	4.27
870.665	-16.21
870.838	47.27
871.011	0.17
871.185	-14.17
871.358	18.6
871.531	92.33
871.704	28.84
871.877	12.46
872.05	8.36
872.223	32.94
872.396	41.13
872.569	86.19
872.742	4.27
872.915	32.94
873.088	49.32
873.261	45.23
873.434	69.8
873.607	118.95
873.78	28.84
873.953	-1.88
874.126	84.14
874.299	108.71
874.471	73.9
874.644	0.17
874.817	43.18
874.99	157.86
875.163	-24.4
875.335	41.13
875.508	18.6
875.681	51.37
875.853	-8.02
876.026	125.1
876.199	59.56
876.371	67.75
876.544	28.84
876.717	14.51
876.889	4.27
877.062	49.32
877.234	-34.64
877.407	14.51
877.579	45.23
877.752	34.99
877.924	69.8
878.097	-3.93
878.269	28.84
878.442	61.61
878.614	86.19
878.786	-77.65
878.959	45.23
879.131	2.22
879.303	0.17
879.476	10.41
879.648	-16.21
879.82	49.32
879.993	8.36
880.165	45.23
880.337	6.31
880.509	-5.97
880.681	-53.08
880.854	24.75
881.026	34.99
881.198	55.47
881.37	-28.5
881.542	24.75
881.714	4.27
881.886	18.6
882.058	-20.31
882.23	69.8
882.402	57.51
882.574	37.03
882.746	106.67
882.918	102.57
883.09	102.57
883.262	28.84
883.434	2.22
883.606	-12.12
883.778	-26.45
883.95	88.23
884.122	10.41
884.293	22.7
884.465	18.6
884.637	75.95
884.809	-28.5
884.98	73.9
885.152	61.61
885.324	26.79
885.496	-26.45
885.667	43.18
885.839	-85.84
886.011	20.65
886.182	80.04
886.354	0.17
886.525	32.94
886.697	4.27
886.869	-8.02
887.04	-36.69
887.212	41.13
887.383	102.57
887.555	49.32
887.726	37.03
887.897	-51.03
888.069	-8.02
888.24	43.18
888.412	59.56
888.583	-5.97
888.754	4.27
888.926	43.18
889.097	-8.02
889.268	20.65
889.44	-46.93
889.611	4.27
889.782	51.37
889.953	-55.12
890.125	4.27
890.296	28.84
890.467	-46.93
890.638	-34.64
890.809	12.46
890.98	41.13
891.151	-3.93
891.323	24.75
891.494	53.42
891.665	-5.97
891.836	28.84
892.007	20.65
892.178	41.13
892.349	10.41
892.52	32.94
892.691	-16.21
892.862	77.99
893.032	6.31
893.203	12.46
893.374	8.36
893.545	8.36
893.716	-14.17
893.887	45.23
894.057	2.22
894.228	-5.97
894.399	65.71
894.57	4.27
894.74	47.27
894.911	18.6
895.082	-3.93
895.253	-61.27
895.423	67.75
895.594	63.66
895.764	61.61
895.935	-73.56
896.106	32.94
896.276	-12.12
896.447	-44.88
896.617	-18.26
896.788	-48.98
896.958	51.37
897.129	0.17
897.299	-14.17
897.47	-53.08
897.64	24.75
897.81	45.23
897.981	45.23
898.151	-3.93
898.322	18.6
898.492	-12.12
898.662	8.36
898.832	-57.17
899.003	-16.21
899.173	24.75
899.343	63.66
899.513	-26.45
