Data from USB4F104151__50__11-30-31-762.txt Node

Date: Fri Mar 14 11:30:31 EDT 2025
User: louis
Spectrometer: USB4F10415
Trigger mode: 4
Integration Time (sec): 5.000000E-2
Scans to average: 1
Electric dark correction enabled: true
Nonlinearity correction enabled: false
Boxcar width: 0
XAxis mode: Wavelengths
Number of Pixels in Spectrum: 3648
>>>>>Begin Spectral Data<<<<<
178.204	-85.16
178.424	-85.16
178.644	-85.16
178.864	-103.59
179.084	-165.03
179.304	13.14
179.524	-7.34
179.744	45.91
179.964	17.24
180.184	-11.43
180.404	-21.67
180.624	-3.24
180.844	41.81
181.064	13.14
181.283	-23.72
181.503	-105.64
181.723	41.81
181.943	86.87
182.163	80.72
182.383	-19.63
182.602	62.29
182.822	78.68
183.042	-3.24
183.262	-11.43
183.482	-19.63
183.701	93.01
183.921	-29.87
184.141	17.24
184.361	35.67
184.58	76.63
184.8	31.57
185.02	37.72
185.239	84.82
185.459	29.52
185.679	58.2
185.898	2.9
186.118	43.86
186.338	50
186.557	43.86
186.777	11.09
186.997	43.86
187.216	74.58
187.436	45.91
187.655	29.52
187.875	45.91
188.095	21.33
188.314	41.81
188.534	103.25
188.753	-29.87
188.973	90.96
189.192	35.67
189.412	41.81
189.631	17.24
189.851	4.95
190.07	97.11
190.29	-11.43
190.509	29.52
190.729	60.24
190.948	68.44
191.168	142.16
191.387	39.76
191.607	41.81
191.826	41.81
192.045	29.52
192.265	29.52
192.484	66.39
192.704	52.05
192.923	-21.67
193.142	37.72
193.362	107.35
193.581	21.33
193.8	-81.07
194.02	123.73
194.239	21.33
194.458	50
194.678	-11.43
194.897	54.1
195.116	4.95
195.335	45.91
195.555	37.72
195.774	-31.91
195.993	35.67
196.212	27.48
196.432	41.81
196.651	29.52
196.87	72.53
197.089	129.88
197.308	109.4
197.528	47.96
197.747	-36.01
197.966	72.53
198.185	86.87
198.404	45.91
198.623	74.58
198.842	66.39
199.062	140.12
199.281	27.48
199.5	80.72
199.719	35.67
199.938	62.29
200.157	62.29
200.376	43.86
200.595	70.48
200.814	52.05
201.033	41.81
201.252	43.86
201.471	54.1
201.69	62.29
201.909	70.48
202.128	41.81
202.347	37.72
202.566	52.05
202.785	27.48
203.004	13.14
203.223	168.79
203.442	29.52
203.661	82.77
203.879	56.15
204.098	56.15
204.317	-29.87
204.536	58.2
204.755	39.76
204.974	70.48
205.193	93.01
205.411	117.59
205.63	19.29
205.849	25.43
206.068	37.72
206.287	15.19
206.505	-17.58
206.724	62.29
206.943	-3.24
207.162	-25.77
207.381	74.58
207.599	93.01
207.818	54.1
208.037	-46.25
208.255	-19.63
208.474	-46.25
208.693	37.72
208.911	35.67
209.13	33.62
209.349	93.01
209.567	62.29
209.786	-5.29
210.005	52.05
210.223	7
210.442	-5.29
210.661	54.1
210.879	41.81
211.098	-11.43
211.316	80.72
211.535	82.77
211.753	97.11
211.972	-3.24
212.191	62.29
212.409	27.48
212.628	-40.11
212.846	4.95
213.065	86.87
213.283	72.53
213.502	13.14
213.72	78.68
213.938	21.33
214.157	4.95
214.375	103.25
214.594	21.33
214.812	54.1
215.031	72.53
215.249	41.81
215.467	41.81
215.686	-5.29
215.904	90.96
216.122	21.33
216.341	50
216.559	131.92
216.778	13.14
216.996	64.34
217.214	129.88
217.432	21.33
217.651	21.33
217.869	58.2
218.087	60.24
218.306	39.76
218.524	99.16
218.742	-3.24
218.96	35.67
219.179	-21.67
219.397	-29.87
219.615	117.59
219.833	50
220.051	-38.06
220.27	93.01
220.488	13.14
220.706	-3.24
220.924	4.95
221.142	70.48
221.36	25.43
221.578	27.48
221.796	31.57
222.015	19.29
222.233	-23.72
222.451	66.39
222.669	-15.53
222.887	107.35
223.105	-1.19
223.323	37.72
223.541	13.14
223.759	41.81
223.977	4.95
224.195	97.11
224.413	70.48
224.631	52.05
224.849	-15.53
225.067	160.59
225.285	25.43
225.503	9.05
225.721	39.76
225.939	52.05
226.157	-23.72
226.375	133.97
226.592	60.24
226.81	78.68
227.028	66.39
227.246	78.68
227.464	-1.19
227.682	-31.91
227.9	7
228.117	62.29
228.335	74.58
228.553	82.77
228.771	27.48
228.989	70.48
229.206	43.86
229.424	-11.43
229.642	25.43
229.86	17.24
230.077	-5.29
230.295	64.34
230.513	21.33
230.731	47.96
230.948	142.16
231.166	74.58
231.384	-40.11
231.601	-7.34
231.819	123.73
232.037	-60.59
232.254	-23.72
232.472	127.83
232.689	-11.43
232.907	74.58
233.125	-21.67
233.342	76.63
233.56	-27.82
233.777	-27.82
233.995	25.43
234.213	70.48
234.43	95.06
234.648	19.29
234.865	50
235.083	45.91
235.3	0.85
235.518	27.48
235.735	37.72
235.953	-33.96
236.17	15.19
236.388	37.72
236.605	37.72
236.822	62.29
237.04	140.12
237.257	62.29
237.475	15.19
237.692	-5.29
237.909	103.25
238.127	27.48
238.344	50
238.562	27.48
238.779	-44.2
238.996	-5.29
239.214	25.43
239.431	82.77
239.648	-3.24
239.865	29.52
240.083	103.25
240.3	-9.39
240.517	19.29
240.735	70.48
240.952	115.54
241.169	123.73
241.386	-5.29
241.603	-27.82
241.821	-5.29
242.038	117.59
242.255	35.67
242.472	39.76
242.689	15.19
242.907	117.59
243.124	-60.59
243.341	-40.11
243.558	21.33
243.775	107.35
243.992	-21.67
244.209	9.05
244.426	117.59
244.643	7
244.86	25.43
245.078	33.62
245.295	13.14
245.512	70.48
245.729	45.91
245.946	29.52
246.163	35.67
246.38	68.44
246.597	62.29
246.814	23.38
247.031	37.72
247.248	0.85
247.464	21.33
247.681	64.34
247.898	103.25
248.115	172.88
248.332	13.14
248.549	76.63
248.766	50
248.983	41.81
249.2	56.15
249.417	29.52
249.633	-11.43
249.85	-21.67
250.067	31.57
250.284	39.76
250.501	15.19
250.717	152.4
250.934	47.96
251.151	4.95
251.368	62.29
251.585	41.81
251.801	93.01
252.018	21.33
252.235	95.06
252.451	52.05
252.668	13.14
252.885	27.48
253.102	45.91
253.318	103.25
253.535	4.95
253.752	7
253.968	13.14
254.185	-36.01
254.401	62.29
254.618	62.29
254.835	25.43
255.051	35.67
255.268	76.63
255.484	19.29
255.701	-44.2
255.917	103.25
256.134	13.14
256.351	50
256.567	0.85
256.784	86.87
257	4.95
257.217	29.52
257.433	39.76
257.65	27.48
257.866	47.96
258.082	19.29
258.299	35.67
258.515	27.48
258.732	-11.43
258.948	23.38
259.165	11.09
259.381	-70.83
259.597	41.81
259.814	2.9
260.03	54.1
260.246	41.81
260.463	86.87
260.679	43.86
260.895	70.48
261.112	70.48
261.328	-23.72
261.544	82.77
261.761	95.06
261.977	-7.34
262.193	-44.2
262.409	17.24
262.626	84.82
262.842	31.57
263.058	-19.63
263.274	62.29
263.49	50
263.707	29.52
263.923	86.87
264.139	-23.72
264.355	103.25
264.571	37.72
264.787	70.48
265.004	62.29
265.22	86.87
265.436	19.29
265.652	45.91
265.868	-3.24
266.084	-54.44
266.3	-3.24
266.516	133.97
266.732	15.19
266.948	-33.96
267.164	86.87
267.38	68.44
267.596	37.72
267.812	119.64
268.028	29.52
268.244	43.86
268.46	-23.72
268.676	82.77
268.892	4.95
269.108	11.09
269.324	-19.63
269.54	2.9
269.756	109.4
269.972	29.52
270.188	41.81
270.403	4.95
270.619	74.58
270.835	-11.43
271.051	25.43
271.267	-23.72
271.483	68.44
271.698	62.29
271.914	62.29
272.13	45.91
272.346	27.48
272.562	70.48
272.777	-36.01
272.993	25.43
273.209	74.58
273.425	111.44
273.64	19.29
273.856	29.52
274.072	25.43
274.287	-109.74
274.503	-36.01
274.719	95.06
274.934	90.96
275.15	43.86
275.366	23.38
275.581	21.33
275.797	11.09
276.012	95.06
276.228	82.77
276.444	45.91
276.659	66.39
276.875	-52.39
277.09	21.33
277.306	56.15
277.521	86.87
277.737	-11.43
277.952	70.48
278.168	29.52
278.383	62.29
278.599	-36.01
278.814	29.52
279.03	54.1
279.245	119.64
279.461	54.1
279.676	62.29
279.892	82.77
280.107	9.05
280.322	0.85
280.538	-7.34
280.753	11.09
280.969	41.81
281.184	37.72
281.399	62.29
281.615	50
281.83	37.72
282.045	-7.34
282.26	56.15
282.476	-15.53
282.691	41.81
282.906	101.2
283.122	29.52
283.337	93.01
283.552	103.25
283.767	-52.39
283.983	129.88
284.198	0.85
284.413	52.05
284.628	-79.02
284.843	35.67
285.058	125.78
285.274	82.77
285.489	15.19
285.704	54.1
285.919	29.52
286.134	60.24
286.349	35.67
286.564	31.57
286.779	88.92
286.995	17.24
287.21	39.76
287.425	105.3
287.64	-15.53
287.855	80.72
288.07	-31.91
288.285	127.83
288.5	70.48
288.715	84.82
288.93	43.86
289.145	25.43
289.36	37.72
289.575	29.52
289.79	78.68
290.004	52.05
290.219	56.15
290.434	60.24
290.649	25.43
290.864	-27.82
291.079	29.52
291.294	52.05
291.509	35.67
291.724	82.77
291.938	23.38
292.153	95.06
292.368	72.53
292.583	4.95
292.798	103.25
293.012	95.06
293.227	70.48
293.442	41.81
293.657	-9.39
293.871	103.25
294.086	125.78
294.301	131.92
294.516	29.52
294.73	111.44
294.945	-11.43
295.16	33.62
295.374	-11.43
295.589	43.86
295.804	39.76
296.018	31.57
296.233	109.4
296.447	37.72
296.662	7
296.877	109.4
297.091	21.33
297.306	-3.24
297.52	-72.87
297.735	-13.48
297.949	37.72
298.164	125.78
298.378	-3.24
298.593	54.1
298.807	19.29
299.022	17.24
299.236	37.72
299.451	52.05
299.665	-33.96
299.88	70.48
300.094	62.29
300.309	93.01
300.523	70.48
300.737	-11.43
300.952	58.2
301.166	-13.48
301.381	41.81
301.595	-7.34
301.809	11.09
302.024	45.91
302.238	105.3
302.452	80.72
302.667	68.44
302.881	78.68
303.095	29.52
303.309	62.29
303.524	17.24
303.738	35.67
303.952	45.91
304.166	29.52
304.381	4.95
304.595	101.2
304.809	-44.2
305.023	43.86
305.237	-19.63
305.452	13.14
305.666	25.43
305.88	41.81
306.094	70.48
306.308	-3.24
306.522	33.62
306.736	84.82
306.95	29.52
307.164	7
307.379	72.53
307.593	136.02
307.807	80.72
308.021	50
308.235	111.44
308.449	-25.77
308.663	11.09
308.877	93.01
309.091	21.33
309.305	74.58
309.519	-44.2
309.733	52.05
309.947	-40.11
310.161	105.3
310.374	13.14
310.588	68.44
310.802	35.67
311.016	13.14
311.23	52.05
311.444	68.44
311.658	70.48
311.872	52.05
312.085	62.29
312.299	95.06
312.513	52.05
312.727	2.9
312.941	68.44
313.154	-1.19
313.368	70.48
313.582	47.96
313.796	58.2
314.009	-5.29
314.223	58.2
314.437	15.19
314.651	66.39
314.864	4.95
315.078	68.44
315.292	-33.96
315.505	25.43
315.719	11.09
315.933	33.62
316.146	19.29
316.36	21.33
316.573	99.16
316.787	82.77
317.001	37.72
317.214	13.14
317.428	78.68
317.641	-19.63
317.855	78.68
318.068	74.58
318.282	-3.24
318.495	76.63
318.709	76.63
318.922	17.24
319.136	80.72
319.349	29.52
319.563	78.68
319.776	19.29
319.99	-1.19
320.203	97.11
320.417	56.15
320.63	62.29
320.843	140.12
321.057	21.33
321.27	45.91
321.483	84.82
321.697	95.06
321.91	-5.29
322.124	64.34
322.337	39.76
322.55	70.48
322.763	86.87
322.977	45.91
323.19	13.14
323.403	66.39
323.617	50
323.83	117.59
324.043	0.85
324.256	58.2
324.469	33.62
324.683	19.29
324.896	-11.43
325.109	84.82
325.322	-3.24
325.535	17.24
325.748	66.39
325.962	111.44
326.175	37.72
326.388	19.29
326.601	74.58
326.814	41.81
327.027	60.24
327.24	54.1
327.453	4.95
327.666	-13.48
327.879	68.44
328.092	90.96
328.305	-27.82
328.518	37.72
328.731	72.53
328.944	41.81
329.157	60.24
329.37	66.39
329.583	86.87
329.796	82.77
330.009	-36.01
330.222	88.92
330.435	103.25
330.648	-15.53
330.861	90.96
331.073	109.4
331.286	76.63
331.499	50
331.712	31.57
331.925	29.52
332.138	62.29
332.35	23.38
332.563	25.43
332.776	80.72
332.989	-13.48
333.202	0.85
333.414	29.52
333.627	0.85
333.84	-11.43
334.053	117.59
334.265	17.24
334.478	17.24
334.691	103.25
334.903	2.9
335.116	-1.19
335.329	13.14
335.541	-7.34
335.754	86.87
335.966	2.9
336.179	86.87
336.392	2.9
336.604	-3.24
336.817	86.87
337.029	50
337.242	37.72
337.454	86.87
337.667	29.52
337.88	39.76
338.092	76.63
338.305	68.44
338.517	19.29
338.729	37.72
338.942	80.72
339.154	-23.72
339.367	13.14
339.579	58.2
339.792	-9.39
340.004	86.87
340.217	-33.96
340.429	127.83
340.641	115.54
340.854	11.09
341.066	4.95
341.278	97.11
341.491	136.02
341.703	54.1
341.915	15.19
342.128	109.4
342.34	99.16
342.552	62.29
342.764	70.48
342.977	29.52
343.189	58.2
343.401	70.48
343.613	41.81
343.826	11.09
344.038	54.1
344.25	31.57
344.462	-27.82
344.674	27.48
344.886	-23.72
345.099	-29.87
345.311	54.1
345.523	47.96
345.735	-5.29
345.947	72.53
346.159	54.1
346.371	68.44
346.583	21.33
346.795	90.96
347.007	29.52
347.219	56.15
347.431	56.15
347.643	19.29
347.855	35.67
348.067	47.96
348.279	45.91
348.491	103.25
348.703	2.9
348.915	-29.87
349.127	-5.29
349.339	52.05
349.551	2.9
349.763	68.44
349.975	11.09
350.187	95.06
350.399	66.39
350.61	25.43
350.822	35.67
351.034	25.43
351.246	64.34
351.458	99.16
351.669	86.87
351.881	121.68
352.093	119.64
352.305	66.39
352.517	95.06
352.728	64.34
352.94	82.77
353.152	115.54
353.363	-38.06
353.575	29.52
353.787	193.36
353.999	54.1
354.21	103.25
354.422	-56.49
354.633	25.43
354.845	54.1
355.057	0.85
355.268	37.72
355.48	41.81
355.692	43.86
355.903	27.48
356.115	74.58
356.326	111.44
356.538	119.64
356.749	23.38
356.961	37.72
357.172	68.44
357.384	37.72
357.595	74.58
357.807	70.48
358.018	117.59
358.23	68.44
358.441	43.86
358.653	68.44
358.864	35.67
359.075	43.86
359.287	13.14
359.498	158.55
359.709	66.39
359.921	54.1
360.132	31.57
360.344	70.48
360.555	68.44
360.766	54.1
360.977	13.14
361.189	62.29
361.4	-11.43
361.611	33.62
361.823	41.81
362.034	47.96
362.245	-7.34
362.456	74.58
362.667	117.59
362.879	31.57
363.09	99.16
363.301	17.24
363.512	37.72
363.723	99.16
363.935	15.19
364.146	19.29
364.357	15.19
364.568	35.67
364.779	-48.3
364.99	60.24
365.201	21.33
365.412	107.35
365.623	2.9
365.834	50
366.045	-11.43
366.256	41.81
366.467	78.68
366.678	27.48
366.889	29.52
367.1	-5.29
367.311	52.05
367.522	-11.43
367.733	39.76
367.944	4.95
368.155	13.14
368.366	105.3
368.577	168.79
368.788	119.64
368.999	39.76
369.209	66.39
369.42	125.78
369.631	144.21
369.842	82.77
370.053	82.77
370.264	95.06
370.474	43.86
370.685	72.53
370.896	35.67
371.107	88.92
371.317	60.24
371.528	37.72
371.739	78.68
371.95	93.01
372.16	84.82
372.371	156.5
372.582	-9.39
372.792	103.25
373.003	41.81
373.214	86.87
373.424	58.2
373.635	70.48
373.846	103.25
374.056	54.1
374.267	144.21
374.477	103.25
374.688	43.86
374.898	88.92
375.109	70.48
375.319	88.92
375.53	86.87
375.74	35.67
375.951	33.62
376.161	70.48
376.372	37.72
376.582	68.44
376.793	82.77
377.003	-44.2
377.214	37.72
377.424	117.59
377.635	45.91
377.845	-1.19
378.055	74.58
378.266	27.48
378.476	29.52
378.686	35.67
378.897	31.57
379.107	136.02
379.317	140.12
379.528	-5.29
379.738	52.05
379.948	9.05
380.158	164.69
380.369	76.63
380.579	78.68
380.789	4.95
380.999	93.01
381.21	66.39
381.42	74.58
381.63	66.39
381.84	-1.19
382.05	93.01
382.261	70.48
382.471	52.05
382.681	-5.29
382.891	95.06
383.101	119.64
383.311	37.72
383.521	37.72
383.731	31.57
383.941	74.58
384.151	19.29
384.361	50
384.571	2.9
384.781	19.29
384.991	70.48
385.201	109.4
385.411	138.07
385.621	54.1
385.831	45.91
386.041	54.1
386.251	99.16
386.461	127.83
386.671	58.2
386.881	33.62
387.091	119.64
387.301	66.39
387.511	70.48
387.72	162.64
387.93	93.01
388.14	-44.2
388.35	82.77
388.56	90.96
388.769	86.87
388.979	70.48
389.189	66.39
389.399	43.86
389.609	156.5
389.818	125.78
390.028	33.62
390.238	31.57
390.447	-9.39
390.657	142.16
390.867	-23.72
391.076	25.43
391.286	54.1
391.496	13.14
391.705	-1.19
391.915	105.3
392.125	136.02
392.334	54.1
392.544	43.86
392.753	78.68
392.963	43.86
393.172	119.64
393.382	107.35
393.591	117.59
393.801	43.86
394.01	88.92
394.22	62.29
394.429	50
394.639	50
394.848	115.54
395.058	109.4
395.267	58.2
395.477	78.68
395.686	125.78
395.895	133.97
396.105	150.36
396.314	123.73
396.524	131.92
396.733	62.29
396.942	103.25
397.152	90.96
397.361	84.82
397.57	117.59
397.78	27.48
397.989	127.83
398.198	127.83
398.407	133.97
398.617	78.68
398.826	21.33
399.035	123.73
399.244	144.21
399.453	80.72
399.663	82.77
399.872	213.84
400.081	66.39
400.29	127.83
400.499	70.48
400.708	84.82
400.917	136.02
401.127	72.53
401.336	101.2
401.545	150.36
401.754	101.2
401.963	129.88
402.172	29.52
402.381	11.09
402.59	86.87
402.799	123.73
403.008	181.07
403.217	136.02
403.426	111.44
403.635	111.44
403.844	123.73
404.053	111.44
404.262	111.44
404.471	172.88
404.68	152.4
404.888	133.97
405.097	68.44
405.306	164.69
405.515	152.4
405.724	144.21
405.933	176.98
406.142	168.79
406.35	160.59
406.559	160.59
406.768	185.17
406.977	197.46
407.185	234.32
407.394	219.99
407.603	183.12
407.812	166.74
408.02	230.23
408.229	185.17
408.438	222.03
408.646	189.27
408.855	238.42
409.064	219.99
409.272	146.26
409.481	346.96
409.69	269.14
409.898	312.14
410.107	269.14
410.315	254.8
410.524	248.66
410.733	346.96
410.941	289.62
411.15	324.43
411.358	371.54
411.567	320.34
411.775	258.9
411.984	299.86
412.192	344.91
412.401	359.25
412.609	463.69
412.818	432.97
413.026	437.07
413.234	459.6
413.443	430.93
413.651	467.79
413.86	527.18
414.068	559.95
414.276	557.9
414.485	533.33
414.693	551.76
414.901	627.53
415.11	635.72
415.318	619.34
415.526	662.35
415.734	697.16
415.943	684.87
416.151	660.3
416.359	738.12
416.567	656.2
416.776	695.11
416.984	799.56
417.192	836.42
417.4	799.56
417.608	869.19
417.817	861
418.025	1000.26
418.233	1030.98
418.441	932.68
418.649	934.73
418.857	1151.81
419.065	1172.29
419.273	1157.96
419.481	1200.96
419.689	1248.07
419.897	1256.26
420.105	1217.35
420.313	1291.07
420.521	1459.01
420.729	1491.77
420.937	1436.48
421.145	1506.11
421.353	1581.89
421.561	1614.65
421.769	1702.72
421.977	1807.16
422.185	1733.43
422.393	1737.53
422.601	1930.04
422.809	1913.66
423.017	1895.22
423.224	1915.7
423.432	1989.43
423.64	2044.73
423.848	2257.71
424.056	2288.43
424.263	2487.09
424.471	2374.45
424.679	2437.94
424.887	2679.6
425.094	2687.79
425.302	2827.05
425.51	2669.36
425.718	2777.9
425.925	2771.76
426.133	2929.45
426.341	3300.13
426.548	3308.32
426.756	3380
426.964	3423.01
427.171	3541.79
427.379	3625.76
427.586	3642.14
427.794	3781.4
428.001	4076.31
428.209	4090.65
428.417	4166.42
428.624	4432.66
428.832	4541.2
429.039	4557.58
429.247	4293.4
429.454	4764.43
429.662	4999.95
429.869	4721.42
430.076	5108.49
430.284	5124.87
430.491	5051.14
430.699	5448.45
430.906	5411.59
431.114	5362.44
431.321	5735.17
431.528	5747.45
431.736	6083.32
431.943	6494.96
432.15	6253.3
432.358	6550.26
432.565	6693.62
432.772	6783.73
432.979	7049.96
433.187	7252.71
433.394	7154.41
433.601	7805.66
433.808	7744.22
434.016	7901.92
434.223	7942.88
434.43	8278.74
434.637	8237.78
434.844	8796.88
435.052	8944.33
435.259	8811.21
435.466	9089.74
435.673	8848.08
435.88	9548.48
436.087	10095.29
436.294	10040
436.501	9900.73
436.708	10162.87
436.915	10207.93
437.122	10752.69
437.329	10678.96
437.537	10881.71
437.743	11389.61
437.95	11242.15
438.157	11903.65
438.364	12321.43
438.571	12077.73
438.778	12155.55
438.985	13341.32
439.192	12980.88
439.399	13189.77
439.606	13013.65
439.813	13771.4
440.02	14639.73
440.227	14404.22
440.433	14283.39
440.64	14287.48
440.847	14457.46
441.054	15028.85
441.261	15897.19
441.467	15473.26
441.674	16114.27
441.881	16786.01
442.088	16466.52
442.294	16306.78
442.501	16929.36
442.708	17093.2
442.914	17879.62
443.121	18825.78
443.328	17992.26
443.534	19278.38
443.741	18836.02
443.948	18620.99
444.154	19810.86
444.361	19765.8
444.568	20140.58
444.774	20042.28
444.981	20199.97
445.187	20843.03
445.394	21633.55
445.6	21092.88
445.807	23253.49
446.013	22467.07
446.22	22766.07
446.426	23966.18
446.633	23943.66
446.839	24941.02
447.046	23644.65
447.252	25063.89
447.459	24891.87
447.665	24938.97
447.871	25856.46
448.078	27292.08
448.284	25758.16
448.491	26540.48
448.697	27421.11
448.903	28166.57
449.11	28225.96
449.316	27787.69
449.522	28166.57
449.728	28864.92
449.935	29295
450.141	29239.7
450.347	29772.18
450.553	28737.95
450.76	29548.95
450.966	29907.34
451.172	29923.72
451.378	30665.09
451.584	30181.77
451.791	30435.72
451.997	30652.8
452.203	30880.13
452.409	31293.82
452.615	30914.94
452.821	29972.88
453.027	29487.51
453.233	31072.64
453.44	29780.37
453.646	30134.67
453.852	29794.7
454.058	30448
454.264	29559.19
454.47	30265.74
454.676	29497.75
454.882	30488.96
455.088	27910.57
455.294	28180.9
455.5	28551.59
455.705	28967.32
455.911	27580.85
456.117	27320.76
456.323	27144.63
456.529	25219.54
456.735	26679.74
456.941	25618.89
457.147	25344.47
457.352	24486.37
457.558	23712.24
457.764	24185.32
457.97	24052.2
458.176	23333.36
458.381	23269.87
458.587	22192.64
458.793	21938.69
458.999	20855.32
459.204	22190.59
459.41	21602.83
459.616	20222.5
459.821	20394.53
460.027	20265.5
460.233	19804.71
460.438	18854.45
460.644	19231.28
460.85	17834.57
461.055	18031.17
461.261	17814.09
461.466	16652.89
461.672	16042.59
461.878	17201.74
462.083	16263.77
462.289	15880.8
462.494	15473.26
462.7	14979.7
462.905	14506.62
463.111	15020.66
463.316	15198.83
463.522	15002.22
463.727	14807.67
463.932	14785.14
464.138	14627.45
464.343	14656.12
464.549	14367.35
464.754	14606.97
464.959	14658.17
465.165	14629.49
465.37	13564.55
465.575	13703.81
465.781	14058.11
465.986	14127.74
466.191	13447.82
466.397	13204.11
466.602	12739.22
466.807	13275.79
467.012	13263.5
467.218	13200.01
467.423	12761.75
467.628	13019.79
467.833	13494.92
468.038	13068.94
468.244	12669.59
468.449	13163.15
468.654	12733.08
468.859	12837.52
469.064	12593.81
469.269	12042.91
469.474	12253.85
469.679	12485.27
469.885	12161.69
470.09	12268.19
470.295	12169.88
470.5	11711.14
470.705	11872.93
470.91	11510.44
471.115	11575.97
471.32	11764.39
471.525	11653.8
471.73	11283.11
471.935	11291.31
472.139	10941.1
472.344	11160.24
472.549	11078.32
472.754	10683.06
472.959	10592.95
473.164	10261.18
473.369	10103.48
473.574	10724.02
473.778	10390.2
473.983	10498.74
474.188	10490.55
474.393	9999.04
474.598	10058.43
474.802	9818.82
475.007	9616.07
475.212	9947.84
475.417	9378.5
475.621	9312.97
475.826	9499.33
476.031	9411.27
476.235	9138.89
476.44	9294.54
476.645	9089.74
476.849	9089.74
477.054	8954.57
477.259	8848.08
477.463	8803.02
477.668	8712.91
477.872	8770.26
478.077	8682.19
478.282	8209.11
478.486	8344.28
478.691	8194.78
478.895	7920.35
479.1	8147.67
479.304	8147.67
479.509	7932.64
479.713	8276.7
479.918	7908.06
480.122	7842.53
480.326	7826.14
480.531	7805.66
480.735	7834.33
480.94	7811.81
481.144	7983.84
481.348	7781.09
481.553	7738.08
481.757	7377.64
481.961	7688.93
482.166	7660.26
482.37	7742.18
482.574	7508.71
482.778	7733.98
482.983	7752.42
483.187	7615.2
483.391	7703.26
483.595	7539.43
483.8	7647.97
484.004	7590.63
484.208	7670.5
484.412	7641.82
484.616	7631.58
484.821	7717.6
485.025	7389.92
485.229	7549.67
485.433	7443.17
485.637	7394.02
485.841	7510.75
486.045	7598.82
486.249	7553.76
486.453	7572.19
486.657	7316.2
486.861	7574.24
487.065	7402.21
487.269	7688.93
487.473	7398.12
487.677	7639.78
487.881	7705.31
488.085	7674.59
488.289	7455.46
488.493	7441.12
488.697	7674.59
488.901	7680.74
489.105	7582.43
489.309	7670.5
489.512	7668.45
489.716	7789.28
489.92	7717.6
490.124	7451.36
490.328	7834.33
490.531	7684.83
490.735	7639.78
490.939	7787.23
491.143	7799.52
491.346	7731.94
491.55	7830.24
491.754	7822.05
491.958	7867.1
492.161	7658.21
492.365	7893.72
492.569	8006.36
492.772	7975.64
492.976	7998.17
493.18	8129.24
493.383	8235.74
493.587	8196.82
493.79	8383.19
493.994	8225.5
494.197	8311.51
494.401	8219.35
494.605	8399.57
494.808	8674
495.012	8301.27
495.215	8669.91
495.419	8762.06
495.622	8592.08
495.825	9046.73
496.029	8862.41
496.232	9089.74
496.436	8921.81
496.639	9118.41
496.843	9106.12
497.046	9417.41
497.249	9448.13
497.453	9218.76
497.656	9644.74
497.859	9650.88
498.063	9654.98
498.266	9910.97
498.469	9947.84
498.673	10064.57
498.876	10060.48
499.079	10162.87
499.282	10158.78
499.485	10394.29
499.689	10463.93
499.892	10453.69
500.095	10584.76
500.298	10949.29
500.501	10850.99
500.705	11088.56
500.908	11113.13
501.111	11369.13
501.314	11385.51
501.517	11600.55
501.72	11737.76
501.923	11412.14
502.126	11780.77
502.329	12032.67
502.532	12264.09
502.735	12237.47
502.938	12587.67
503.141	12522.13
503.344	12716.69
503.547	12907.15
503.75	12835.47
503.953	12964.5
504.156	13138.57
504.359	13290.12
504.562	13496.97
504.765	13699.72
504.968	13865.6
505.17	13881.99
505.373	13986.43
505.576	14224
505.779	14336.63
505.982	14320.25
506.185	14828.15
506.387	14553.72
506.59	14965.36
506.793	15192.69
506.996	15176.3
507.198	15518.31
507.401	15411.82
507.604	15848.04
507.807	16026.21
508.009	15946.34
508.212	16028.26
508.415	16329.31
508.617	16470.62
508.82	16620.12
509.022	16476.76
509.225	16663.13
509.428	17193.55
509.63	17486.41
509.833	17240.65
510.035	17732.17
510.238	17693.26
510.44	17779.27
510.643	18172.48
510.845	18489.92
511.048	18160.19
511.25	18688.57
511.453	18741.82
511.655	19128.88
511.858	18985.52
512.06	19130.93
512.262	19360.3
512.465	19343.92
512.667	19720.74
512.87	20032.04
513.072	19886.63
513.274	20417.05
513.477	20587.04
513.679	20654.62
513.881	20920.85
514.084	21082.64
514.286	21185.04
514.488	21529.1
514.69	21914.12
514.893	21877.26
515.095	21914.12
515.297	22192.64
515.499	22268.42
515.701	22737.4
515.904	22870.52
516.106	23011.83
516.308	23271.92
516.51	23200.24
516.712	23831.02
516.914	23962.09
517.116	24132.07
517.318	24013.29
517.52	24390.11
517.722	24656.35
517.925	24748.51
518.127	24984.02
518.329	25567.7
518.531	25350.61
518.733	25868.75
518.935	26091.98
519.136	26051.02
519.338	26569.15
519.54	26458.56
519.742	26755.52
519.944	26714.56
520.146	27496.88
520.348	27552.18
520.55	28072.36
520.752	27625.9
520.954	28369.32
521.155	28133.8
521.357	28795.29
521.559	28762.53
521.761	29178.26
521.963	29256.09
522.164	29546.9
522.366	29491.6
522.568	29669.78
522.77	29911.44
522.971	30378.37
523.173	30368.13
523.375	30851.45
523.576	31029.63
523.778	31175.03
523.98	31166.84
524.181	31406.45
524.383	31357.3
524.584	31994.22
524.786	32323.94
524.988	32199.02
525.189	32874.85
525.391	32344.42
525.592	33065.31
525.794	33186.14
525.995	33165.66
526.197	33227.1
526.398	33296.73
526.6	33708.37
526.801	33859.92
527.003	34277.71
527.204	33997.13
527.406	34718.02
527.607	34339.15
527.808	35002.69
528.01	34218.32
528.211	34904.38
528.412	35313.98
528.614	35432.76
528.815	35004.74
529.016	35789.11
529.218	35397.95
529.419	35858.74
529.62	35834.16
529.822	36176.17
530.023	36198.7
530.224	36088.11
530.425	36532.52
530.626	35911.99
530.828	35916.08
531.029	36935.97
531.23	36479.27
531.431	36649.25
531.632	37073.18
531.833	36860.19
532.035	36813.09
532.236	37083.42
532.437	37179.68
532.638	36847.91
532.839	37247.26
533.04	37480.73
533.241	37306.65
533.442	37845.27
533.643	37411.1
533.844	37531.93
534.045	37832.98
534.246	37288.22
534.447	37656.85
534.648	37583.13
534.849	37699.86
535.05	37679.38
535.251	37730.58
535.451	37749.01
535.652	38330.64
535.853	37792.02
536.054	38328.59
536.255	38136.08
536.456	37533.98
536.657	38312.2
536.857	37929.23
537.058	37974.29
537.259	37945.62
537.46	37984.53
537.66	38258.96
537.861	38019.35
538.062	37570.84
538.263	37970.19
538.463	38181.13
538.664	38043.92
538.865	38023.44
539.065	38588.68
539.266	37845.27
539.466	38140.18
539.667	37939.47
539.868	38340.88
540.068	37892.37
540.269	37935.38
540.469	38828.29
540.67	37988.63
540.87	38086.93
541.071	38402.32
541.271	38261.01
541.472	38033.68
541.672	38174.99
541.873	37849.36
542.073	37794.07
542.274	38672.65
542.474	38127.89
542.675	37929.23
542.875	38164.75
543.075	37789.97
543.276	37673.24
543.476	38019.35
543.676	38002.96
543.877	38449.42
544.077	37777.68
544.277	37617.94
544.478	38275.34
544.678	38164.75
544.878	38324.49
545.078	38461.71
545.279	37509.4
545.479	37984.53
545.679	37951.76
545.879	37761.3
546.079	37826.84
546.28	38162.7
546.48	37857.56
546.68	38160.66
546.88	38129.94
547.08	37908.75
547.28	37687.57
547.48	37759.25
547.68	37861.65
547.88	37589.27
548.081	38066.45
548.281	37945.62
548.481	38197.52
548.681	37726.49
548.881	38007.06
549.081	38052.11
549.28	37658.9
549.48	38324.49
549.68	38095.12
549.88	38455.56
550.08	37529.88
550.28	38150.42
550.48	37632.28
550.68	37943.57
550.88	37861.65
551.08	37857.56
551.279	37990.67
551.479	37738.77
551.679	38052.11
551.879	37525.78
552.079	37959.95
552.278	37271.84
552.478	37509.4
552.678	37644.57
552.878	38050.06
553.077	37849.36
553.277	37505.31
553.477	37988.63
553.676	37411.1
553.876	37673.24
554.076	37603.61
554.275	37415.19
554.475	36950.31
554.674	38076.69
554.874	37384.47
555.074	37425.43
555.273	37419.29
555.473	37771.54
555.672	37345.56
555.872	37077.28
556.071	37288.22
556.271	37218.59
556.47	36682.02
556.67	36518.18
556.869	36772.13
557.068	37071.14
557.268	36464.94
557.467	36759.84
557.667	36710.69
557.866	36534.57
558.065	36458.79
558.265	36462.89
558.464	36079.92
558.663	36833.57
558.863	35748.15
559.062	36714.79
559.261	36200.75
559.461	36440.36
559.66	35674.42
559.859	36266.28
560.058	35533.11
560.258	35977.52
560.457	35596.6
560.656	35696.95
560.855	35582.26
561.054	35785.01
561.253	35053.89
561.453	35373.37
561.652	34820.42
561.851	35608.89
562.05	35017.02
562.249	34775.36
562.448	35252.54
562.647	34918.72
562.846	34763.07
563.045	34961.73
563.244	34242.89
563.443	34732.36
563.642	33710.42
563.841	34339.15
564.04	34111.82
564.239	34632
564.438	34189.64
564.637	34193.74
564.836	33773.91
565.035	33556.82
565.234	33495.38
565.432	33298.78
565.631	33274.2
565.83	33331.54
566.029	33053.02
566.228	33044.83
566.427	33118.56
566.625	32952.67
566.824	32698.72
567.023	32952.67
567.222	32487.78
567.42	32690.53
567.619	32590.18
567.818	32459.11
568.016	32268.65
568.215	32309.61
568.414	32168.3
568.612	32217.45
568.811	31924.59
569.01	31709.55
569.208	31650.16
569.407	31992.17
569.605	31025.53
569.804	31730.03
570.002	31244.66
570.201	31015.29
570.4	31021.44
570.598	30716.29
570.797	30742.91
570.995	31015.29
571.193	30417.29
571.392	30867.84
571.59	30214.54
571.789	30327.17
571.987	30275.98
572.186	30153.1
572.384	29749.65
572.582	30009.74
572.781	29989.26
572.979	29979.02
573.177	29772.18
573.376	29804.94
573.574	29585.81
573.772	29362.58
573.971	29385.11
574.169	29276.57
574.367	29106.59
574.565	29217.18
574.763	28748.19
574.962	28402.08
575.16	28367.27
575.358	28541.35
575.556	28406.18
575.754	28705.18
575.952	28037.55
576.151	28244.39
576.349	28305.83
576.547	27799.98
576.745	28076.46
576.943	28000.68
577.141	27828.65
577.339	27681.2
577.537	27619.76
577.735	27638.19
577.933	27474.35
578.131	27826.6
578.329	27136.44
578.527	27183.54
578.725	27038.14
578.923	27083.19
579.121	27070.9
579.319	26864.06
579.516	26767.8
579.714	27050.42
579.912	26575.3
580.11	26671.55
580.308	26692.03
580.506	26579.39
580.704	26276.29
580.901	26296.77
581.099	26421.7
581.297	26008.01
581.495	25999.82
581.692	26237.38
581.89	25790.92
582.088	25915.85
582.285	25383.38
582.483	26053.06
582.681	25536.98
582.878	25348.56
583.076	25508.3
583.274	25338.32
583.471	25246.16
583.669	25074.13
583.866	24934.87
584.064	24789.47
584.262	24846.81
584.459	25020.89
584.657	25006.55
584.854	25035.22
585.052	24367.59
585.249	24586.72
585.447	24936.92
585.644	24338.91
585.841	24312.29
586.039	24484.32
586.236	24283.62
586.434	23947.75
586.631	23837.16
586.828	23884.26
587.026	23665.13
587.223	23497.2
587.42	23828.97
587.618	23927.27
587.815	23550.45
588.012	23650.8
588.21	23407.09
588.407	23620.08
588.604	23310.83
588.801	23181.81
588.999	23382.51
589.196	23337.46
589.393	23177.72
589.59	23038.45
589.787	23241.2
589.984	22919.67
590.182	22440.45
590.379	22936.06
590.576	22778.36
590.773	22755.83
590.97	22438.4
591.167	22307.33
591.364	22258.18
591.561	22602.24
591.758	22145.54
591.955	22168.07
592.152	22286.85
592.349	22217.22
592.546	22342.14
592.743	22383.1
592.94	21785.1
593.137	21889.54
593.334	21836.3
593.531	21600.78
593.727	21742.09
593.924	21467.66
594.121	21266.96
594.318	21449.23
594.515	21506.57
594.712	21629.45
594.908	21090.84
595.105	21039.64
595.302	20752.92
595.499	21010.96
595.696	21146.13
595.892	20886.04
596.089	21056.02
596.286	20511.26
596.482	20705.82
596.679	20898.33
596.876	20797.98
597.072	20630.04
597.269	20419.1
597.466	20306.46
597.662	19946.02
597.859	20152.87
598.055	20316.7
598.252	20079.14
598.448	20261.41
598.645	20187.68
598.841	19808.81
599.038	19837.48
599.234	19903.01
599.431	19778.09
599.627	19780.14
599.824	19614.25
600.02	19665.45
600.217	19751.46
600.413	19491.37
600.609	19216.94
600.806	19434.03
601.002	19474.99
601.198	18983.48
601.395	19161.65
601.591	19100.21
601.787	19155.51
601.984	18934.32
602.18	19024.44
602.376	18991.67
602.572	18938.42
602.769	19044.91
602.965	18377.28
603.161	18434.62
603.357	18610.75
603.553	18385.47
603.75	18498.11
603.946	18295.36
604.142	18723.38
604.338	17990.21
604.534	18516.54
604.73	18283.07
604.926	18057.79
605.122	18352.7
605.318	18082.37
605.514	17838.66
605.71	17703.5
605.906	18102.85
606.102	17699.4
606.298	17809.99
606.494	17594.95
606.69	17558.09
606.886	17683.02
607.082	17136.21
607.278	17498.7
607.474	17373.77
607.67	17715.78
607.866	17246.8
608.062	17449.55
608.257	17252.94
608.453	17115.73
608.649	17117.78
608.845	17261.13
609.041	17101.39
609.236	17119.82
609.432	17056.34
609.628	17066.58
609.824	16902.74
610.019	16861.78
610.215	16910.93
610.411	16691.8
610.606	16691.8
610.802	16855.64
610.998	16857.68
611.193	16697.94
611.389	16443.99
611.584	16755.29
611.78	16642.65
611.976	16704.09
612.171	16384.6
612.367	16411.23
612.562	16319.07
612.758	16040.54
612.953	16132.7
613.149	16411.23
613.344	16058.98
613.539	16380.51
613.735	15985.25
613.93	16403.04
614.126	15882.85
614.321	16337.5
614.517	16024.16
614.712	15925.86
614.907	15913.57
615.103	15995.49
615.298	15860.32
615.493	16007.78
615.688	15589.99
615.884	16101.98
616.079	15542.89
616.274	15932
616.47	15911.52
616.665	15719.01
616.86	15577.7
617.055	15395.43
617.25	15604.33
617.445	15528.55
617.641	15346.28
617.836	15448.68
618.031	15118.96
618.226	15530.6
618.421	15366.76
618.616	15235.69
618.811	15286.89
619.006	15454.83
619.201	15004.27
619.396	14920.31
619.591	14672.5
619.786	14928.5
619.981	14688.89
620.176	14998.13
620.371	14926.45
620.566	14742.13
620.761	14484.09
620.956	14629.49
621.151	14453.37
621.346	14426.75
621.541	14019.2
621.735	14420.6
621.93	13900.42
622.125	14193.28
622.32	13898.37
622.515	13939.33
622.709	13736.58
622.904	14021.25
623.099	13810.31
623.294	13693.57
623.488	13415.05
623.683	13869.7
623.878	13521.54
624.072	13312.65
624.267	13423.24
624.462	13406.86
624.656	13058.7
624.851	13306.51
625.046	12825.23
625.24	13056.65
625.435	12835.47
625.629	13054.61
625.824	12726.93
626.018	12800.66
626.213	12515.99
626.407	12628.63
626.602	12290.71
626.796	12653.2
626.991	12427.93
627.185	12307.1
627.38	12292.76
627.574	12309.15
627.768	12358.3
627.963	12100.25
628.157	11758.24
628.352	11932.32
628.546	11754.15
628.74	12030.62
628.935	11653.8
629.129	11637.41
629.323	11588.26
629.517	11319.98
629.712	11457.19
629.906	11543.21
630.1	11127.47
630.294	11211.43
630.489	11133.61
630.683	11131.56
630.877	10922.67
631.071	11113.13
631.265	11287.21
631.459	10873.52
631.653	10891.95
631.848	10789.55
632.042	10812.08
632.236	10838.7
632.43	10853.04
632.624	10541.75
632.818	10470.07
633.012	10551.99
633.206	10396.34
633.4	10504.89
633.594	10316.47
633.788	10422.97
633.982	10199.74
634.176	10212.03
634.369	10054.33
634.563	10062.52
634.757	9923.26
634.951	9958.08
635.145	10070.72
635.339	10003.13
635.533	9867.97
635.726	9863.87
635.92	9661.12
636.114	9818.82
636.308	9710.27
636.501	9704.13
636.695	9437.89
636.889	9515.72
637.083	9411.27
637.276	9384.65
637.47	9368.26
637.664	9179.85
637.857	9261.77
638.051	9284.3
638.244	9382.6
638.438	9089.74
638.632	9114.31
638.825	8991.44
639.019	9075.4
639.212	8913.61
639.406	8858.32
639.599	8721.1
639.793	8755.92
639.986	8620.75
640.18	8772.3
640.373	8573.65
640.567	8528.6
640.76	8514.26
640.954	8250.07
641.147	8180.44
641.34	8344.28
641.534	8358.61
641.727	8321.75
641.92	8270.55
642.114	8291.03
642.307	8221.4
642.5	8145.63
642.694	8006.36
642.887	7934.68
643.08	7987.93
643.273	7967.45
643.467	7867.1
643.66	7848.67
643.853	7920.35
644.046	7770.85
644.239	7899.87
644.432	7529.19
644.626	7645.92
644.819	7738.08
645.012	7566.05
645.205	7572.19
645.398	7482.08
645.591	7424.74
645.784	7324.39
645.977	7127.78
646.17	7525.09
646.363	7338.73
646.556	7213.8
646.749	7236.33
646.942	7250.66
647.135	7082.73
647.328	7181.03
647.521	7103.21
647.714	7097.07
647.907	6974.19
648.099	6982.38
648.292	6943.47
648.485	6888.17
648.678	6986.47
648.871	7047.91
649.064	6939.37
649.256	6843.12
649.449	6828.78
649.642	6660.85
649.835	6830.83
650.027	6742.77
650.22	6611.7
650.413	6593.26
650.605	6683.38
650.798	6447.86
650.991	6540.02
651.183	6480.63
651.376	6408.95
651.568	6595.31
651.761	6517.49
651.954	6210.29
652.146	6343.41
652.339	6382.32
652.531	6378.23
652.724	6181.62
652.916	6081.27
653.109	6099.7
653.301	6079.22
653.494	6144.76
653.686	6013.69
653.879	6087.42
654.071	6048.51
654.263	5931.77
654.456	6030.07
654.648	5999.35
654.84	5964.54
655.033	5954.3
655.225	5802.75
655.417	5901.05
655.61	5747.45
655.802	5671.68
655.994	5796.6
656.186	5792.51
656.379	5665.53
656.571	5665.53
656.763	5643.01
656.955	5708.54
657.148	5563.14
657.34	5632.77
657.532	5651.2
657.724	5450.5
657.916	5485.31
658.108	5583.62
658.3	5337.86
658.492	5528.32
658.684	5362.44
658.876	5362.44
659.068	5303.04
659.26	5208.84
659.452	5249.8
659.644	5210.89
659.836	5317.38
660.028	5352.2
660.22	5182.21
660.412	5260.04
660.604	5102.34
660.796	5159.69
660.988	4993.8
661.18	5077.77
661.372	5051.14
661.563	5026.57
661.755	5042.95
661.947	5008.14
662.139	4926.22
662.331	5040.9
662.522	4881.16
662.714	5053.19
662.906	4940.55
663.097	4819.72
663.289	4893.45
663.481	4901.64
663.673	4909.83
663.864	4875.02
664.056	4659.98
664.247	4858.64
664.439	4823.82
664.631	4840.2
664.822	4674.32
665.014	4813.58
665.205	4711.18
665.397	4690.7
665.588	4641.55
665.78	4645.65
665.971	4825.87
666.163	4707.09
666.354	4633.36
666.546	4526.86
666.737	4576.02
666.929	4631.31
667.12	4680.46
667.311	4623.12
667.503	4467.47
667.694	4623.12
667.885	4586.26
668.077	4557.58
668.268	4664.08
668.459	4455.19
668.651	4569.87
668.842	4461.33
669.033	4473.62
669.224	4414.23
669.416	4600.59
669.607	4469.52
669.798	4453.14
669.989	4432.66
670.18	4506.38
670.371	4428.56
670.563	4408.08
670.754	4358.93
670.945	4373.27
671.136	4530.96
671.327	4467.47
671.518	4494.1
671.709	4504.34
671.9	4444.95
672.091	4590.35
672.282	4311.83
672.473	4459.28
672.664	4467.47
672.855	4379.41
673.046	4420.37
673.237	4586.26
673.428	4240.15
673.619	4504.34
673.809	4305.68
674	4567.82
674.191	4399.89
674.382	4305.68
674.573	4492.05
674.764	4416.27
674.954	4446.99
675.145	4475.67
675.336	4367.12
675.527	4449.04
675.717	4432.66
675.908	4408.08
676.099	4535.06
676.289	4313.88
676.48	4363.03
676.671	4457.23
676.861	4557.58
677.052	4420.37
677.243	4328.21
677.433	4600.59
677.624	4563.73
677.814	4533.01
678.005	4557.58
678.195	4539.15
678.386	4444.95
678.576	4481.81
678.767	4580.11
678.957	4481.81
679.148	4559.63
679.338	4616.97
679.529	4746
679.719	4573.97
679.909	4711.18
680.1	4762.38
680.29	4737.81
680.481	4502.29
680.671	4723.47
680.861	4737.81
681.052	4707.09
681.242	4690.7
681.432	4866.83
681.622	4748.04
681.813	4651.79
682.003	4762.38
682.193	4666.13
682.383	4832.01
682.573	4860.68
682.764	4719.37
682.954	4827.92
683.144	4893.45
683.334	4723.47
683.524	4739.85
683.714	4885.26
683.904	4823.82
684.094	4639.5
684.284	4776.72
684.474	4813.58
684.664	4924.17
684.854	4875.02
685.044	4780.81
685.234	4805.39
685.424	4694.8
685.614	4752.14
685.804	4760.33
685.994	4715.28
686.184	4764.43
686.374	4866.83
686.564	4778.76
686.753	4770.57
686.943	4782.86
687.133	4672.27
687.323	4772.62
687.513	4684.56
687.702	4555.54
687.892	4526.86
688.082	4541.2
688.272	4619.02
688.461	4543.25
688.651	4451.09
688.841	4498.19
689.03	4598.54
689.22	4465.43
689.41	4490
689.599	4436.75
689.789	4373.27
689.979	4490
690.168	4301.59
690.358	4350.74
690.547	4176.66
690.737	4234
690.926	4238.1
691.116	4141.85
691.305	4272.92
691.495	4225.81
691.684	4129.56
691.874	4119.32
692.063	4100.89
692.252	4109.08
692.442	3957.53
692.631	4082.46
692.82	3922.71
693.01	3926.81
693.199	3912.47
693.388	3963.67
693.578	3887.9
693.767	3773.21
693.956	3859.23
694.146	3797.79
694.335	3865.37
694.524	3693.34
694.713	3728.16
694.902	3658.53
695.092	3683.1
695.281	3623.71
695.47	3666.72
695.659	3652.38
695.848	3625.76
696.037	3605.28
696.226	3625.76
696.415	3525.41
696.604	3711.77
696.793	3511.07
696.982	3488.54
697.171	3498.78
697.36	3527.46
697.549	3566.37
697.738	3633.95
697.927	3533.6
698.116	3414.82
698.305	3492.64
698.494	3461.92
698.683	3517.22
698.872	3533.6
699.061	3447.58
699.25	3607.33
699.438	3537.7
699.627	3488.54
699.816	3472.16
700.005	3404.58
700.193	3298.08
700.382	3568.41
700.571	3429.15
700.76	3361.57
700.948	3531.55
701.137	3402.53
701.326	3486.5
701.514	3396.39
701.703	3441.44
701.892	3367.71
702.08	3492.64
702.269	3443.49
702.457	3384.1
702.646	3296.04
702.834	3336.99
703.023	3478.3
703.212	3377.95
703.4	3607.33
703.589	3363.62
703.777	3549.98
703.965	3459.87
704.154	3486.5
704.342	3523.36
704.531	3502.88
704.719	3533.6
704.907	3515.17
705.096	3386.15
705.284	3441.44
705.472	3590.94
705.661	3537.7
705.849	3457.82
706.037	3560.22
706.226	3531.55
706.414	3617.57
706.602	3547.94
706.79	3603.23
706.979	3592.99
707.167	3631.9
707.355	3437.34
707.543	3783.45
707.731	3615.52
707.919	3582.75
708.107	3535.65
708.296	3558.18
708.484	3539.74
708.672	3715.87
708.86	3656.48
709.048	3625.76
709.236	3592.99
709.424	3656.48
709.612	3801.88
709.8	3758.88
709.988	3715.87
710.176	3695.39
710.364	3752.73
710.551	3820.32
710.739	3683.1
710.927	3699.48
711.115	3875.61
711.303	3863.32
711.491	3814.17
711.679	3775.26
711.866	3793.69
712.054	4039.45
712.242	3758.88
712.43	3990.3
712.617	3904.28
712.805	3939.1
712.993	3885.85
713.181	3910.43
713.368	3906.33
713.556	4074.26
713.744	3857.18
713.931	4068.12
714.119	3949.34
714.306	4010.78
714.494	4115.22
714.682	4086.55
714.869	4098.84
715.057	3978.01
715.244	4088.6
715.432	4084.5
715.619	4072.22
715.807	4223.76
715.994	4133.65
716.182	4225.81
716.369	4330.26
716.556	4277.01
716.744	4256.53
716.931	4363.03
717.119	4326.16
717.306	4348.69
717.493	4250.39
717.681	4469.52
717.868	4330.26
718.055	4416.27
718.242	4397.84
718.43	4524.82
718.617	4436.75
718.804	4399.89
718.991	4424.47
719.179	4442.9
719.366	4418.32
719.553	4539.15
719.74	4545.3
719.927	4623.12
720.114	4733.71
720.301	4539.15
720.488	4555.54
720.676	4551.44
720.863	4657.93
721.05	4547.34
721.237	4690.7
721.424	4641.55
721.611	4612.88
721.798	4649.74
721.985	4610.83
722.172	4506.38
722.358	4772.62
722.545	4907.79
722.732	4770.57
722.919	4932.36
723.106	4678.41
723.293	4893.45
723.48	4967.18
723.667	4766.48
723.853	4930.31
724.04	5067.53
724.227	5016.33
724.414	4950.79
724.6	4842.25
724.787	4967.18
724.974	5024.52
725.161	4969.23
725.347	4838.16
725.534	5128.97
725.72	5016.33
725.907	5075.72
726.094	5137.16
726.28	4950.79
726.467	5169.93
726.653	5063.43
726.84	5257.99
727.027	5112.58
727.213	5034.76
727.4	5169.93
727.586	5114.63
727.773	5112.58
727.959	5362.44
728.145	5319.43
728.332	5051.14
728.518	5350.15
728.705	5325.57
728.891	5260.04
729.077	5333.76
729.264	5212.93
729.45	5298.95
729.636	5409.54
729.823	5296.9
730.009	5370.63
730.195	5188.36
730.382	5350.15
730.568	5286.66
730.754	5409.54
730.94	5432.07
731.126	5444.35
731.313	5382.92
731.499	5501.7
731.685	5442.31
731.871	5464.83
732.057	5421.83
732.243	5417.73
732.429	5585.66
732.615	5513.99
732.801	5468.93
732.987	5499.65
733.173	5522.18
733.359	5384.96
733.545	5466.88
733.731	5579.52
733.917	5530.37
734.103	5694.21
734.289	5538.56
734.475	5552.9
734.661	5593.86
734.847	5452.55
735.033	5489.41
735.219	5649.15
735.404	5460.74
735.59	5616.38
735.776	5575.42
735.962	5667.58
736.148	5688.06
736.333	5450.5
736.519	5493.51
736.705	5532.42
736.89	5481.22
737.076	5559.04
737.262	5585.66
737.447	5473.03
737.633	5468.93
737.819	5636.86
738.004	5505.79
738.19	5477.12
738.375	5450.5
738.561	5536.51
738.747	5507.84
738.932	5427.97
739.118	5696.25
739.303	5434.11
739.489	5542.66
739.674	5403.39
739.859	5466.88
740.045	5565.18
740.23	5444.35
740.416	5339.91
740.601	5530.37
740.786	5507.84
740.972	5350.15
741.157	5397.25
741.342	5317.38
741.528	5444.35
741.713	5407.49
741.898	5378.82
742.084	5513.99
742.269	5333.76
742.454	5276.42
742.639	5210.89
742.824	5225.22
743.01	5288.71
743.195	5307.14
743.38	5456.64
743.565	5303.04
743.75	5311.24
743.935	5264.13
744.12	5313.28
744.305	5165.83
744.49	5131.02
744.675	5042.95
744.86	5071.62
745.045	5139.21
745.23	5092.1
745.415	5040.9
745.6	5169.93
745.785	5124.87
745.97	4918.03
746.155	4870.92
746.34	5034.76
746.525	4920.07
746.71	5018.38
746.895	4868.88
747.079	4895.5
747.264	4729.61
747.449	4766.48
747.634	4858.64
747.819	4909.83
748.003	4772.62
748.188	4594.45
748.373	4621.07
748.557	4616.97
748.742	4541.2
748.927	4377.36
749.111	4500.24
749.296	4535.06
749.481	4627.21
749.665	4401.94
749.85	4371.22
750.034	4623.12
750.219	4436.75
750.404	4330.26
750.588	4283.16
750.773	4352.79
750.957	4248.34
751.141	4297.49
751.326	4215.57
751.51	4107.03
751.695	4272.92
751.879	4244.24
752.064	4023.06
752.248	4004.63
752.432	4111.13
752.617	4205.33
752.801	3943.19
752.985	3869.47
753.17	4117.27
753.354	3932.95
753.538	4029.21
753.722	3783.45
753.907	3783.45
754.091	3740.44
754.275	3756.83
754.459	3707.68
754.643	3765.02
754.828	3715.87
755.012	3629.85
755.196	3625.76
755.38	3466.02
755.564	3367.71
755.748	3539.74
755.932	3492.64
756.116	3427.11
756.3	3437.34
756.484	3478.3
756.668	3480.35
756.852	3316.51
757.036	3388.19
757.22	3257.12
757.404	3316.51
757.588	3330.85
757.772	3277.6
757.956	3212.07
758.14	3253.03
758.323	3281.7
758.507	3230.5
758.691	3171.11
758.875	3240.74
759.059	3121.96
759.242	3052.33
759.426	3060.52
759.61	3140.39
759.794	3021.61
759.977	3052.33
760.161	3033.9
760.345	3025.7
760.528	2949.93
760.712	2781.99
760.895	2913.06
761.079	2839.34
761.263	2863.91
761.446	2827.05
761.63	2757.42
761.813	2870.06
761.997	2630.45
762.18	2835.24
762.364	2812.71
762.547	2722.6
762.731	2798.38
762.914	2919.21
763.098	2695.98
763.281	2775.85
763.464	2626.35
763.648	2681.64
763.831	2712.36
764.015	2614.06
764.198	2444.08
764.381	2677.55
764.564	2657.07
764.748	2614.06
764.931	2548.53
765.114	2493.23
765.297	2698.03
765.481	2526
765.664	2550.57
765.847	2532.14
766.03	2487.09
766.213	2425.65
766.397	2403.12
766.58	2497.33
766.763	2413.36
766.946	2419.5
767.129	2335.54
767.312	2396.98
767.495	2460.46
767.678	2345.78
767.861	2468.66
768.044	2364.21
768.227	2386.74
768.41	2276.15
768.593	2386.74
768.776	2249.52
768.959	2229.04
769.142	2380.59
769.324	2149.17
769.507	2394.93
769.69	2169.65
769.873	2120.5
770.056	2321.2
770.239	2157.36
770.421	2220.85
770.604	2126.64
770.787	2163.51
770.97	2106.17
771.152	2046.77
771.335	2208.56
771.518	2052.92
771.7	2050.87
771.883	2143.03
772.066	2085.69
772.248	2114.36
772.431	2001.72
772.613	2077.49
772.796	1993.53
772.978	1983.29
773.161	1966.9
773.343	1915.7
773.526	1995.57
773.708	1946.42
773.891	1897.27
774.073	1913.66
774.256	1762.11
774.438	1921.85
774.621	1860.41
774.803	1940.28
774.985	1825.59
775.168	1913.66
775.35	1772.35
775.532	1821.5
775.715	1811.26
775.897	1725.24
776.079	1712.96
776.261	1774.39
776.444	1753.91
776.626	1688.38
776.808	1739.58
776.99	1602.36
777.173	1684.28
777.355	1588.03
777.537	1635.13
777.719	1624.89
777.901	1590.08
778.083	1459.01
778.265	1573.69
778.447	1575.74
778.629	1489.73
778.811	1493.82
778.993	1575.74
779.175	1551.17
779.357	1542.97
779.539	1489.73
779.721	1463.1
779.903	1471.29
780.085	1450.82
780.267	1362.75
780.449	1493.82
780.631	1495.87
780.812	1545.02
780.994	1381.18
781.176	1370.94
781.358	1336.13
781.54	1387.33
781.721	1303.36
781.903	1284.93
782.085	1315.65
782.267	1276.74
782.448	1233.73
782.63	1209.15
782.812	1248.07
782.993	1272.64
783.175	1219.39
783.357	1246.02
783.538	1315.65
783.72	1172.29
783.901	1188.68
784.083	1248.07
784.264	1256.26
784.446	1110.85
784.627	1026.89
784.809	1133.38
784.99	1129.28
785.172	1145.67
785.353	1063.75
785.535	1143.62
785.716	1119.04
785.897	1098.56
786.079	1053.51
786.26	1073.99
786.441	1039.17
786.623	1028.93
786.804	1082.18
786.985	1033.03
787.167	979.78
787.348	994.12
787.529	1022.79
787.71	1078.08
787.891	1010.5
788.073	944.97
788.254	895.82
788.435	1037.13
788.616	901.96
788.797	934.73
788.978	930.63
789.159	922.44
789.34	938.82
789.522	930.63
789.703	904.01
789.884	901.96
790.065	897.86
790.246	938.82
790.427	789.32
790.607	895.82
790.788	865.1
790.969	801.61
791.15	869.19
791.331	897.86
791.512	772.94
791.693	779.08
791.874	824.14
792.054	867.14
792.235	830.28
792.416	637.77
792.597	783.18
792.778	752.46
792.958	842.57
793.139	795.47
793.32	791.37
793.5	799.56
793.681	865.1
793.862	756.55
794.042	772.94
794.223	758.6
794.404	707.4
794.584	779.08
794.765	715.59
794.945	791.37
795.126	748.36
795.306	770.89
795.487	617.29
795.667	750.41
795.848	707.4
796.028	678.73
796.209	645.96
796.389	725.83
796.57	676.68
796.75	736.07
796.93	705.35
797.111	643.92
797.291	637.77
797.471	717.64
797.652	664.4
797.832	639.82
798.012	678.73
798.192	607.05
798.373	584.52
798.553	594.76
798.733	723.79
798.913	635.72
799.093	586.57
799.274	594.76
799.454	631.63
799.634	660.3
799.814	615.24
799.994	594.76
800.174	627.53
800.354	541.52
800.534	613.2
800.714	592.72
800.894	570.19
801.074	562
801.254	576.33
801.434	551.76
801.614	607.05
801.794	518.99
801.974	1327.94
802.154	594.76
802.334	625.48
802.514	465.74
802.693	574.28
802.873	504.65
803.053	586.57
803.233	576.33
803.413	504.65
803.592	447.31
803.772	484.17
803.952	527.18
804.131	400.21
804.311	537.42
804.491	496.46
804.67	529.23
804.85	521.04
805.03	529.23
805.209	562
805.389	463.69
805.568	510.8
805.748	516.94
805.928	494.41
806.107	516.94
806.287	475.98
806.466	504.65
806.646	461.65
806.825	404.3
807.004	455.5
807.184	486.22
807.363	445.26
807.543	447.31
807.722	453.45
807.901	430.93
808.081	506.7
808.26	295.76
808.439	529.23
808.619	430.93
808.798	410.45
808.977	504.65
809.156	369.49
809.336	461.65
809.515	461.65
809.694	459.6
809.873	496.46
810.052	361.3
810.231	439.12
810.411	435.02
810.59	398.16
810.769	459.6
810.948	363.34
811.127	346.96
811.306	381.78
811.485	400.21
811.664	406.35
811.843	394.06
812.022	336.72
812.201	371.54
812.38	369.49
812.559	349.01
812.737	443.21
812.916	389.97
813.095	338.77
813.274	424.78
813.453	369.49
813.632	344.91
813.811	467.79
813.989	267.09
814.168	392.02
814.347	262.99
814.526	357.2
814.704	363.34
814.883	349.01
815.062	324.43
815.24	379.73
815.419	398.16
815.598	344.91
815.776	287.57
815.955	367.44
816.133	328.53
816.312	252.75
816.49	336.72
816.669	310.1
816.847	275.28
817.026	318.29
817.204	297.81
817.383	328.53
817.561	250.71
817.74	275.28
817.918	349.01
818.097	215.89
818.275	299.86
818.453	275.28
818.632	291.66
818.81	312.14
818.988	262.99
819.167	277.33
819.345	287.57
819.523	338.77
819.701	355.15
819.879	283.47
820.058	240.47
820.236	396.11
820.414	379.73
820.592	226.13
820.77	277.33
820.948	244.56
821.127	283.47
821.305	303.95
821.483	258.9
821.661	322.38
821.839	293.71
822.017	246.61
822.195	267.09
822.373	301.9
822.551	275.28
822.729	287.57
822.907	334.67
823.085	207.7
823.262	291.66
823.44	320.34
823.618	267.09
823.796	226.13
823.974	248.66
824.152	312.14
824.329	277.33
824.507	279.38
824.685	303.95
824.863	187.22
825.04	201.55
825.218	291.66
825.396	219.99
825.574	222.03
825.751	230.23
825.929	234.32
826.107	201.55
826.284	193.36
826.462	234.32
826.639	170.83
826.817	136.02
826.994	248.66
827.172	168.79
827.349	328.53
827.527	254.8
827.704	275.28
827.882	232.27
828.059	201.55
828.237	136.02
828.414	203.6
828.591	136.02
828.769	234.32
828.946	189.27
829.124	267.09
829.301	226.13
829.478	258.9
829.655	201.55
829.833	201.55
830.01	193.36
830.187	189.27
830.364	262.99
830.542	234.32
830.719	242.51
830.896	230.23
831.073	199.51
831.25	232.27
831.427	152.4
831.604	281.43
831.782	201.55
831.959	164.69
832.136	154.45
832.313	160.59
832.49	248.66
832.667	244.56
832.844	111.44
833.021	232.27
833.198	234.32
833.374	150.36
833.551	119.64
833.728	158.55
833.905	205.65
834.082	160.59
834.259	193.36
834.436	234.32
834.612	172.88
834.789	160.59
834.966	146.26
835.143	164.69
835.319	84.82
835.496	189.27
835.673	244.56
835.85	176.98
836.026	222.03
836.203	166.74
836.38	176.98
836.556	226.13
836.733	142.16
836.909	258.9
837.086	205.65
837.262	121.68
837.439	133.97
837.616	41.81
837.792	219.99
837.968	176.98
838.145	127.83
838.321	193.36
838.498	146.26
838.674	174.93
838.851	156.5
839.027	140.12
839.203	172.88
839.38	183.12
839.556	176.98
839.732	197.46
839.909	129.88
840.085	99.16
840.261	131.92
840.437	150.36
840.614	158.55
840.79	179.03
840.966	174.93
841.142	181.07
841.318	127.83
841.494	183.12
841.671	117.59
841.847	127.83
842.023	183.12
842.199	215.89
842.375	140.12
842.551	164.69
842.727	84.82
842.903	164.69
843.079	129.88
843.255	242.51
843.431	95.06
843.607	195.41
843.783	35.67
843.959	160.59
844.134	70.48
844.31	142.16
844.486	70.48
844.662	60.24
844.838	109.4
845.013	164.69
845.189	148.31
845.365	74.58
845.541	113.49
845.716	140.12
845.892	201.55
846.068	62.29
846.244	103.25
846.419	119.64
846.595	105.3
846.77	111.44
846.946	131.92
847.122	90.96
847.297	95.06
847.473	152.4
847.648	21.33
847.824	172.88
847.999	0.85
848.175	103.25
848.35	144.21
848.526	193.36
848.701	150.36
848.876	142.16
849.052	109.4
849.227	93.01
849.403	86.87
849.578	140.12
849.753	37.72
849.929	115.54
850.104	136.02
850.279	109.4
850.454	80.72
850.63	123.73
850.805	54.1
850.98	86.87
851.155	68.44
851.33	37.72
851.505	41.81
851.681	117.59
851.856	115.54
852.031	78.68
852.206	125.78
852.381	68.44
852.556	41.81
852.731	54.1
852.906	131.92
853.081	88.92
853.256	95.06
853.431	111.44
853.606	93.01
853.781	119.64
853.956	45.91
854.131	111.44
854.305	62.29
854.48	62.29
854.655	93.01
854.83	84.82
855.005	25.43
855.18	127.83
855.354	95.06
855.529	76.63
855.704	103.25
855.879	117.59
856.053	45.91
856.228	56.15
856.403	35.67
856.577	68.44
856.752	4.95
856.926	90.96
857.101	138.07
857.276	35.67
857.45	41.81
857.625	90.96
857.799	33.62
857.974	27.48
858.148	127.83
858.323	123.73
858.497	111.44
858.672	133.97
858.846	27.48
859.02	111.44
859.195	66.39
859.369	74.58
859.543	60.24
859.718	11.09
859.892	111.44
860.066	-11.43
860.241	37.72
860.415	35.67
860.589	54.1
860.763	60.24
860.938	183.12
861.112	109.4
861.286	95.06
861.46	111.44
861.634	21.33
861.808	90.96
861.982	56.15
862.157	11.09
862.331	-17.58
862.505	-9.39
862.679	-15.53
862.853	-27.82
863.027	15.19
863.201	127.83
863.375	-23.72
863.549	58.2
863.722	-3.24
863.896	43.86
864.07	0.85
864.244	11.09
864.418	21.33
864.592	70.48
864.766	62.29
864.939	35.67
865.113	52.05
865.287	64.34
865.461	-3.24
865.634	133.97
865.808	76.63
865.982	-3.24
866.156	43.86
866.329	-52.39
866.503	58.2
866.676	115.54
866.85	64.34
867.024	103.25
867.197	41.81
867.371	68.44
867.544	60.24
867.718	-9.39
867.891	123.73
868.065	-15.53
868.238	45.91
868.412	93.01
868.585	58.2
868.759	15.19
868.932	-5.29
869.105	29.52
869.279	99.16
869.452	37.72
869.625	33.62
869.799	123.73
869.972	-19.63
870.145	72.53
870.319	23.38
870.492	-11.43
870.665	62.29
870.838	123.73
871.011	-68.78
871.185	-1.19
871.358	19.29
871.531	72.53
871.704	52.05
871.877	95.06
872.05	-29.87
872.223	23.38
872.396	70.48
872.569	123.73
872.742	-3.24
872.915	76.63
873.088	-11.43
873.261	33.62
873.434	-15.53
873.607	-11.43
873.78	54.1
873.953	13.14
874.126	62.29
874.299	47.96
874.471	68.44
874.644	64.34
874.817	4.95
874.99	60.24
875.163	2.9
875.335	82.77
875.508	37.72
875.681	37.72
875.853	-3.24
876.026	17.24
876.199	70.48
876.371	72.53
876.544	39.76
876.717	101.2
876.889	4.95
877.062	54.1
877.234	-11.43
877.407	27.48
877.579	29.52
877.752	-17.58
877.924	68.44
878.097	115.54
878.269	37.72
878.442	-1.19
878.614	37.72
878.786	33.62
878.959	4.95
879.131	13.14
879.303	-3.24
879.476	60.24
879.648	119.64
879.82	76.63
879.993	54.1
880.165	-19.63
880.337	-60.59
880.509	29.52
880.681	-7.34
880.854	45.91
881.026	31.57
881.198	52.05
881.37	17.24
881.542	95.06
881.714	56.15
881.886	-5.29
882.058	13.14
882.23	58.2
882.402	-52.39
882.574	64.34
882.746	70.48
882.918	4.95
883.09	86.87
883.262	45.91
883.434	82.77
883.606	-29.87
883.778	52.05
883.95	88.92
884.122	9.05
884.293	52.05
884.465	-1.19
884.637	103.25
884.809	4.95
884.98	90.96
885.152	29.52
885.324	-17.58
885.496	-5.29
885.667	37.72
885.839	-3.24
886.011	115.54
886.182	15.19
886.354	0.85
886.525	31.57
886.697	54.1
886.869	-17.58
887.04	41.81
887.212	50
887.383	41.81
887.555	41.81
887.726	-27.82
887.897	35.67
888.069	45.91
888.24	-19.63
888.412	68.44
888.583	62.29
888.754	39.76
888.926	-21.67
889.097	-19.63
889.268	-19.63
889.44	58.2
889.611	25.43
889.782	23.38
889.953	19.29
890.125	101.2
890.296	37.72
890.467	35.67
890.638	60.24
890.809	-17.58
890.98	19.29
891.151	-29.87
891.323	-3.24
891.494	-58.54
891.665	13.14
891.836	52.05
892.007	76.63
892.178	62.29
892.349	-36.01
892.52	41.81
892.691	76.63
892.862	19.29
893.032	-36.01
893.203	-70.83
893.374	93.01
893.545	119.64
893.716	11.09
893.887	27.48
894.057	-52.39
894.228	-23.72
894.399	-11.43
894.57	78.68
894.74	29.52
894.911	21.33
895.082	-3.24
895.253	-19.63
895.423	54.1
895.594	131.92
895.764	-19.63
895.935	9.05
896.106	-3.24
896.276	29.52
896.447	45.91
896.617	9.05
896.788	-36.01
896.958	25.43
897.129	45.91
897.299	-21.67
897.47	50
897.64	-15.53
897.81	-23.72
897.981	47.96
898.151	111.44
898.322	9.05
898.492	4.95
898.662	-7.34
898.832	-7.34
899.003	-29.87
899.173	37.72
899.343	90.96
899.513	0.85
