Data from USB4F104151__95__11-32-14-300.txt Node

Date: Fri Mar 14 11:32:14 EDT 2025
User: louis
Spectrometer: USB4F10415
Trigger mode: 4
Integration Time (sec): 5.000000E-2
Scans to average: 1
Electric dark correction enabled: true
Nonlinearity correction enabled: false
Boxcar width: 0
XAxis mode: Wavelengths
Number of Pixels in Spectrum: 3648
>>>>>Begin Spectral Data<<<<<
178.204	-179.03
178.424	-179.03
178.644	-179.03
178.864	-205.65
179.084	-142.16
179.304	-52.05
179.524	62.63
179.744	-37.72
179.964	-37.72
180.184	101.55
180.404	64.68
180.624	-50
180.844	-7
181.064	29.87
181.283	3.24
181.503	-43.86
181.723	-33.62
181.943	-52.05
182.163	115.88
182.383	13.48
182.602	23.72
182.822	40.11
183.042	31.91
183.262	17.58
183.482	40.11
183.701	68.78
183.921	29.87
184.141	-39.76
184.361	40.11
184.58	50.35
184.8	17.58
185.02	-23.38
185.239	13.48
185.459	-2.9
185.679	72.87
185.898	5.29
186.118	56.49
186.338	48.3
186.557	111.78
186.777	-72.53
186.997	-13.14
187.216	21.67
187.436	48.3
187.655	60.59
187.875	36.01
188.095	-15.19
188.314	54.44
188.534	72.87
188.753	1.19
188.973	17.58
189.192	38.06
189.412	-43.86
189.631	-0.85
189.851	42.15
190.07	83.11
190.29	-50
190.509	-41.81
190.729	58.54
190.948	117.93
191.168	177.32
191.387	66.73
191.607	9.39
191.826	15.53
192.045	76.97
192.265	5.29
192.484	42.15
192.704	44.2
192.923	-25.43
193.142	113.83
193.362	15.53
193.581	64.68
193.8	-11.09
194.02	44.2
194.239	3.24
194.458	97.45
194.678	74.92
194.897	-27.48
195.116	58.54
195.335	15.53
195.555	-13.14
195.774	-50
195.993	-15.19
196.212	-4.95
196.432	-82.77
196.651	117.93
196.87	-33.62
197.089	101.55
197.308	58.54
197.528	40.11
197.747	-0.85
197.966	33.96
198.185	23.72
198.404	-13.14
198.623	9.39
198.842	60.59
199.062	58.54
199.281	31.91
199.5	58.54
199.719	27.82
199.938	27.82
200.157	17.58
200.376	21.67
200.595	62.63
200.814	17.58
201.033	-15.19
201.252	99.5
201.471	-23.38
201.69	23.72
201.909	17.58
202.128	58.54
202.347	42.15
202.566	13.48
202.785	29.87
203.004	81.07
203.223	56.49
203.442	-15.19
203.661	1.19
203.879	72.87
204.098	83.11
204.317	-58.2
204.536	93.35
204.755	23.72
204.974	9.39
205.193	-62.29
205.411	81.07
205.63	19.63
205.849	13.48
206.068	5.29
206.287	-78.68
206.505	11.43
206.724	64.68
206.943	-31.57
207.162	-58.2
207.381	42.15
207.599	70.83
207.818	58.54
208.037	44.2
208.255	93.35
208.474	3.24
208.693	62.63
208.911	11.43
209.13	23.72
209.349	-2.9
209.567	-0.85
209.786	64.68
210.005	-2.9
210.223	23.72
210.442	-101.2
210.661	-33.62
210.879	31.91
211.098	-23.38
211.316	91.31
211.535	64.68
211.753	-50
211.972	9.39
212.191	-52.05
212.409	38.06
212.628	72.87
212.846	-21.33
213.065	-7
213.283	36.01
213.502	-39.76
213.72	72.87
213.938	64.68
214.157	42.15
214.375	33.96
214.594	-21.33
214.812	81.07
215.031	38.06
215.249	-74.58
215.467	81.07
215.686	-31.57
215.904	-27.48
216.122	-31.57
216.341	87.21
216.559	46.25
216.778	58.54
216.996	36.01
217.214	-41.81
217.432	-25.43
217.651	15.53
217.869	-11.09
218.087	-9.05
218.306	31.91
218.524	40.11
218.742	44.2
218.96	54.44
219.179	-13.14
219.397	-7
219.615	179.37
219.833	66.73
220.051	29.87
220.27	23.72
220.488	-0.85
220.706	1.19
220.924	72.87
221.142	46.25
221.36	93.35
221.578	-33.62
221.796	3.24
222.015	13.48
222.233	54.44
222.451	76.97
222.669	-31.57
222.887	79.02
223.105	23.72
223.323	5.29
223.541	25.77
223.759	72.87
223.977	-2.9
224.195	3.24
224.413	54.44
224.631	81.07
224.849	-13.14
225.067	48.3
225.285	15.53
225.503	-17.24
225.721	-52.05
225.939	60.59
226.157	1.19
226.375	132.26
226.592	111.78
226.81	-7
227.028	7.34
227.246	31.91
227.464	70.83
227.682	7.34
227.9	19.63
228.117	40.11
228.335	40.11
228.553	27.82
228.771	40.11
228.989	58.54
229.206	40.11
229.424	-52.05
229.642	25.77
229.86	-45.91
230.077	99.5
230.295	38.06
230.513	31.91
230.731	19.63
230.948	87.21
231.166	29.87
231.384	25.77
231.601	-29.52
231.819	74.92
232.037	33.96
232.254	48.3
232.472	1.19
232.689	62.63
232.907	85.16
233.125	-21.33
233.342	17.58
233.56	-68.44
233.777	91.31
233.995	-11.09
234.213	23.72
234.43	58.54
234.648	13.48
234.865	-0.85
235.083	1.19
235.3	21.67
235.518	74.92
235.735	21.67
235.953	83.11
236.17	-23.38
236.388	7.34
236.605	85.16
236.822	7.34
237.04	87.21
237.257	-33.62
237.475	-31.57
237.692	-11.09
237.909	76.97
238.127	-17.24
238.344	19.63
238.562	17.58
238.779	36.01
238.996	-45.91
239.214	-9.05
239.431	-39.76
239.648	-23.38
239.865	31.91
240.083	48.3
240.3	11.43
240.517	-0.85
240.735	9.39
240.952	89.26
241.169	40.11
241.386	13.48
241.603	13.48
241.821	-33.62
242.038	21.67
242.255	48.3
242.472	-111.44
242.689	58.54
242.907	1.19
243.124	-9.05
243.341	58.54
243.558	-33.62
243.775	-31.57
243.992	-2.9
244.209	-11.09
244.426	62.63
244.643	64.68
244.86	-19.29
245.078	72.87
245.295	-0.85
245.512	-50
245.729	-19.29
245.946	31.91
246.163	66.73
246.38	11.43
246.597	15.53
246.814	23.72
247.031	17.58
247.248	62.63
247.464	-50
247.681	-0.85
247.898	25.77
248.115	60.59
248.332	-2.9
248.549	83.11
248.766	83.11
248.983	21.67
249.2	23.72
249.417	74.92
249.633	70.83
249.85	23.72
250.067	97.45
250.284	25.77
250.501	72.87
250.717	-4.95
250.934	40.11
251.151	46.25
251.368	33.96
251.585	-0.85
251.801	-17.24
252.018	-64.34
252.235	169.13
252.451	9.39
252.668	-31.57
252.885	25.77
253.102	7.34
253.318	-23.38
253.535	-17.24
253.752	19.63
253.968	33.96
254.185	-29.52
254.401	46.25
254.618	-23.38
254.835	31.91
255.051	48.3
255.268	95.4
255.484	38.06
255.701	66.73
255.917	66.73
256.134	-39.76
256.351	-9.05
256.567	-31.57
256.784	23.72
257	60.59
257.217	68.78
257.433	54.44
257.65	29.87
257.866	79.02
258.082	-119.64
258.299	-17.24
258.515	21.67
258.732	33.96
258.948	-21.33
259.165	13.48
259.381	62.63
259.597	9.39
259.814	-9.05
260.03	-9.05
260.246	66.73
260.463	-7
260.679	33.96
260.895	1.19
261.112	21.67
261.328	-33.62
261.544	-9.05
261.761	74.92
261.977	56.49
262.193	-15.19
262.409	-11.09
262.626	27.82
262.842	-54.1
263.058	-2.9
263.274	-41.81
263.49	48.3
263.707	56.49
263.923	99.5
264.139	-9.05
264.355	-2.9
264.571	15.53
264.787	25.77
265.004	50.35
265.22	-13.14
265.436	7.34
265.652	15.53
265.868	27.82
266.084	-47.96
266.3	70.83
266.516	-56.15
266.732	64.68
266.948	66.73
267.164	40.11
267.38	33.96
267.596	79.02
267.812	72.87
268.028	-19.29
268.244	-2.9
268.46	25.77
268.676	-11.09
268.892	9.39
269.108	52.39
269.324	-4.95
269.54	-37.72
269.756	3.24
269.972	9.39
270.188	56.49
270.403	-64.34
270.619	9.39
270.835	66.73
271.051	-29.52
271.267	-23.38
271.483	-15.19
271.698	64.68
271.914	7.34
272.13	38.06
272.346	50.35
272.562	-7
272.777	58.54
272.993	38.06
273.209	50.35
273.425	-19.29
273.64	-39.76
273.856	79.02
274.072	19.63
274.287	5.29
274.503	54.44
274.719	62.63
274.934	5.29
275.15	-47.96
275.366	-29.52
275.581	-2.9
275.797	-43.86
276.012	54.44
276.228	-17.24
276.444	-37.72
276.659	52.39
276.875	-37.72
277.09	42.15
277.306	-45.91
277.521	5.29
277.737	-2.9
277.952	7.34
278.168	72.87
278.383	31.91
278.599	-35.67
278.814	17.58
279.03	23.72
279.245	93.35
279.461	-43.86
279.676	42.15
279.892	5.29
280.107	7.34
280.322	42.15
280.538	-15.19
280.753	21.67
280.969	9.39
281.184	31.91
281.399	66.73
281.615	9.39
281.83	31.91
282.045	-74.58
282.26	-9.05
282.476	-23.38
282.691	42.15
282.906	-17.24
283.122	31.91
283.337	-37.72
283.552	40.11
283.767	-47.96
283.983	40.11
284.198	-39.76
284.413	101.55
284.628	-29.52
284.843	13.48
285.058	-7
285.274	-45.91
285.489	15.53
285.704	50.35
285.919	-50
286.134	-0.85
286.349	36.01
286.564	13.48
286.779	-21.33
286.995	52.39
287.21	-68.44
287.425	5.29
287.64	7.34
287.855	-23.38
288.07	25.77
288.285	122.02
288.5	7.34
288.715	56.49
288.93	-9.05
289.145	40.11
289.36	81.07
289.575	-47.96
289.79	76.97
290.004	23.72
290.219	31.91
290.434	-21.33
290.649	-47.96
290.864	85.16
291.079	23.72
291.294	-2.9
291.509	58.54
291.724	3.24
291.938	21.67
292.153	25.77
292.368	-0.85
292.583	50.35
292.798	36.01
293.012	64.68
293.227	3.24
293.442	33.96
293.657	42.15
293.871	83.11
294.086	38.06
294.301	70.83
294.516	99.5
294.73	38.06
294.945	1.19
295.16	23.72
295.374	48.3
295.589	70.83
295.804	-68.44
296.018	33.96
296.233	66.73
296.447	144.55
296.662	-39.76
296.877	50.35
297.091	79.02
297.306	-21.33
297.52	79.02
297.735	21.67
297.949	15.53
298.164	66.73
298.378	15.53
298.593	11.43
298.807	-33.62
299.022	66.73
299.236	38.06
299.451	-13.14
299.665	38.06
299.88	70.83
300.094	50.35
300.309	-43.86
300.523	64.68
300.737	-7
300.952	-15.19
301.166	-15.19
301.381	-29.52
301.595	-2.9
301.809	17.58
302.024	58.54
302.238	13.48
302.452	42.15
302.667	-25.43
302.881	148.65
303.095	7.34
303.309	79.02
303.524	1.19
303.738	1.19
303.952	13.48
304.166	58.54
304.381	-47.96
304.595	85.16
304.809	5.29
305.023	29.87
305.237	130.22
305.452	-11.09
305.666	3.24
305.88	66.73
306.094	21.67
306.308	83.11
306.522	17.58
306.736	44.2
306.95	17.58
307.164	13.48
307.379	-39.76
307.593	29.87
307.807	54.44
308.021	-39.76
308.235	23.72
308.449	-29.52
308.663	5.29
308.877	95.4
309.091	46.25
309.305	50.35
309.519	-15.19
309.733	93.35
309.947	-15.19
310.161	74.92
310.374	46.25
310.588	50.35
310.802	-17.24
311.016	33.96
311.23	15.53
311.444	-58.2
311.658	23.72
311.872	42.15
312.085	21.67
312.299	38.06
312.513	-9.05
312.727	9.39
312.941	-9.05
313.154	58.54
313.368	76.97
313.582	17.58
313.796	-9.05
314.009	-21.33
314.223	138.41
314.437	-31.57
314.651	70.83
314.864	-7
315.078	62.63
315.292	15.53
315.505	-2.9
315.719	-0.85
315.933	-7
316.146	33.96
316.36	-80.72
316.573	38.06
316.787	52.39
317.001	-37.72
317.214	17.58
317.428	25.77
317.641	-15.19
317.855	46.25
318.068	-45.91
318.282	29.87
318.495	60.59
318.709	-11.09
318.922	87.21
319.136	7.34
319.349	62.63
319.563	-84.82
319.776	66.73
319.99	-0.85
320.203	11.43
320.417	21.67
320.63	25.77
320.843	-19.29
321.057	1.19
321.27	91.31
321.483	58.54
321.697	83.11
321.91	58.54
322.124	29.87
322.337	91.31
322.55	-27.48
322.763	-11.09
322.977	58.54
323.19	-13.14
323.403	-19.29
323.617	33.96
323.83	38.06
324.043	-47.96
324.256	21.67
324.469	-47.96
324.683	19.63
324.896	44.2
325.109	-15.19
325.322	-15.19
325.535	-2.9
325.748	13.48
325.962	17.58
326.175	-27.48
326.388	36.01
326.601	97.45
326.814	23.72
327.027	-11.09
327.24	140.46
327.453	-7
327.666	60.59
327.879	62.63
328.092	13.48
328.305	15.53
328.518	38.06
328.731	-4.95
328.944	-31.57
329.157	70.83
329.37	-15.19
329.583	81.07
329.796	107.69
330.009	-21.33
330.222	21.67
330.435	50.35
330.648	115.88
330.861	15.53
331.073	-45.91
331.286	38.06
331.499	89.26
331.712	40.11
331.925	25.77
332.138	-39.76
332.35	81.07
332.563	36.01
332.776	58.54
332.989	9.39
333.202	29.87
333.414	1.19
333.627	38.06
333.84	9.39
334.053	40.11
334.265	-11.09
334.478	-23.38
334.691	31.91
334.903	-43.86
335.116	-9.05
335.329	21.67
335.541	83.11
335.754	66.73
335.966	-21.33
336.179	29.87
336.392	17.58
336.604	5.29
336.817	52.39
337.029	70.83
337.242	113.83
337.454	64.68
337.667	76.97
337.88	152.74
338.092	42.15
338.305	42.15
338.517	-39.76
338.729	-21.33
338.942	1.19
339.154	17.58
339.367	-43.86
339.579	48.3
339.792	31.91
340.004	93.35
340.217	58.54
340.429	-23.38
340.641	-11.09
340.854	19.63
341.066	85.16
341.278	113.83
341.491	97.45
341.703	46.25
341.915	-64.34
342.128	-0.85
342.34	-19.29
342.552	-19.29
342.764	17.58
342.977	-45.91
343.189	-25.43
343.401	3.24
343.613	27.82
343.826	58.54
344.038	17.58
344.25	17.58
344.462	25.77
344.674	17.58
344.886	54.44
345.099	40.11
345.311	25.77
345.523	46.25
345.735	-72.53
345.947	5.29
346.159	3.24
346.371	89.26
346.583	-7
346.795	64.68
347.007	15.53
347.219	-7
347.431	58.54
347.643	122.02
347.855	-25.43
348.067	1.19
348.279	-27.48
348.491	31.91
348.703	52.39
348.915	50.35
349.127	15.53
349.339	89.26
349.551	33.96
349.763	105.64
349.975	74.92
350.187	-2.9
350.399	72.87
350.61	99.5
350.822	7.34
351.034	23.72
351.246	25.77
351.458	107.69
351.669	81.07
351.881	46.25
352.093	50.35
352.305	64.68
352.517	11.43
352.728	91.31
352.94	50.35
353.152	-43.86
353.363	-2.9
353.575	-52.05
353.787	83.11
353.999	42.15
354.21	72.87
354.422	-99.16
354.633	-27.48
354.845	13.48
355.057	72.87
355.268	23.72
355.48	9.39
355.692	29.87
355.903	13.48
356.115	-9.05
356.326	-41.81
356.538	83.11
356.749	1.19
356.961	91.31
357.172	1.19
357.384	-19.29
357.595	70.83
357.807	25.77
358.018	13.48
358.23	-43.86
358.441	50.35
358.653	-23.38
358.864	31.91
359.075	29.87
359.287	17.58
359.498	38.06
359.709	62.63
359.921	72.87
360.132	-2.9
360.344	-35.67
360.555	27.82
360.766	95.4
360.977	-15.19
361.189	17.58
361.4	-9.05
361.611	40.11
361.823	66.73
362.034	99.5
362.245	-19.29
362.456	31.91
362.667	48.3
362.879	54.44
363.09	-39.76
363.301	38.06
363.512	54.44
363.723	-9.05
363.935	25.77
364.146	42.15
364.357	50.35
364.568	72.87
364.779	-37.72
364.99	83.11
365.201	1.19
365.412	74.92
365.623	-43.86
365.834	-11.09
366.045	-11.09
366.256	58.54
366.467	38.06
366.678	-13.14
366.889	15.53
367.1	3.24
367.311	-2.9
367.522	62.63
367.733	46.25
367.944	21.67
368.155	15.53
368.366	40.11
368.577	38.06
368.788	72.87
368.999	-7
369.209	1.19
369.42	113.83
369.631	64.68
369.842	7.34
370.053	25.77
370.264	33.96
370.474	-13.14
370.685	11.43
370.896	-15.19
371.107	42.15
371.317	72.87
371.528	42.15
371.739	99.5
371.95	40.11
372.16	72.87
372.371	48.3
372.582	-4.95
372.792	-15.19
373.003	33.96
373.214	-4.95
373.424	17.58
373.635	-4.95
373.846	56.49
374.056	-39.76
374.267	-0.85
374.477	23.72
374.688	33.96
374.898	40.11
375.109	48.3
375.319	-15.19
375.53	42.15
375.74	-7
375.951	81.07
376.161	-2.9
376.372	91.31
376.582	5.29
376.793	97.45
377.003	-41.81
377.214	5.29
377.424	7.34
377.635	23.72
377.845	46.25
378.055	36.01
378.266	-23.38
378.476	40.11
378.686	54.44
378.897	42.15
379.107	44.2
379.317	1.19
379.528	-17.24
379.738	58.54
379.948	-7
380.158	7.34
380.369	68.78
380.579	15.53
380.789	27.82
380.999	-17.24
381.21	91.31
381.42	85.16
381.63	42.15
381.84	66.73
382.05	42.15
382.261	107.69
382.471	-15.19
382.681	-39.76
382.891	48.3
383.101	-2.9
383.311	68.78
383.521	-15.19
383.731	64.68
383.941	79.02
384.151	-15.19
384.361	60.59
384.571	1.19
384.781	5.29
384.991	95.4
385.201	142.5
385.411	97.45
385.621	38.06
385.831	25.77
386.041	48.3
386.251	38.06
386.461	23.72
386.671	13.48
386.881	52.39
387.091	33.96
387.301	91.31
387.511	-9.05
387.72	56.49
387.93	74.92
388.14	27.82
388.35	7.34
388.56	70.83
388.769	99.5
388.979	11.43
389.189	33.96
389.399	-17.24
389.609	17.58
389.818	-7
390.028	-27.48
390.238	23.72
390.447	-17.24
390.657	89.26
390.867	38.06
391.076	31.91
391.286	36.01
391.496	48.3
391.705	99.5
391.915	87.21
392.125	74.92
392.334	1.19
392.544	27.82
392.753	99.5
392.963	89.26
393.172	50.35
393.382	-37.72
393.591	1.19
393.801	11.43
394.01	150.7
394.22	36.01
394.429	66.73
394.639	74.92
394.848	56.49
395.058	68.78
395.267	91.31
395.477	74.92
395.686	-52.05
395.895	115.88
396.105	246.95
396.314	48.3
396.524	31.91
396.733	-7
396.942	128.17
397.152	115.88
397.361	50.35
397.57	93.35
397.78	64.68
397.989	46.25
398.198	95.4
398.407	85.16
398.617	3.24
398.826	25.77
399.035	66.73
399.244	52.39
399.453	95.4
399.663	72.87
399.872	91.31
400.081	107.69
400.29	70.83
400.499	74.92
400.708	162.98
400.917	19.63
401.127	21.67
401.336	87.21
401.545	203.94
401.754	111.78
401.963	38.06
402.172	99.5
402.381	40.11
402.59	103.59
402.799	93.35
403.008	187.56
403.217	99.5
403.426	130.22
403.635	48.3
403.844	132.26
404.053	66.73
404.262	70.83
404.471	193.7
404.68	160.94
404.888	50.35
405.097	72.87
405.306	99.5
405.515	119.98
405.724	95.4
405.933	154.79
406.142	111.78
406.35	58.54
406.559	146.6
406.768	83.11
406.977	173.22
407.185	124.07
407.394	181.42
407.603	103.59
407.812	144.55
408.02	197.8
408.229	134.31
408.438	177.32
408.646	140.46
408.855	162.98
409.064	214.18
409.272	103.59
409.481	238.76
409.69	173.22
409.898	158.89
410.107	138.41
410.315	236.71
410.524	267.43
410.733	210.09
410.941	210.09
411.15	302.25
411.358	302.25
411.567	320.68
411.775	318.63
411.984	312.49
412.192	289.96
412.401	292.01
412.609	400.55
412.818	328.87
413.026	349.35
413.234	353.45
413.443	351.4
413.651	339.11
413.86	406.69
414.068	464.04
414.276	406.69
414.485	511.14
414.693	500.9
414.901	550.05
415.11	517.28
415.318	509.09
415.526	490.66
415.734	578.72
415.943	517.28
416.151	541.86
416.359	582.82
416.567	705.7
416.776	656.54
416.984	687.26
417.192	660.64
417.4	681.12
417.608	658.59
417.817	656.54
418.025	720.03
418.233	892.06
418.441	730.27
418.649	826.53
418.857	984.22
419.065	1041.56
419.273	1000.6
419.481	1012.89
419.689	1047.71
419.897	1072.28
420.105	1055.9
420.313	1049.75
420.521	1189.02
420.729	1148.06
420.937	1139.87
421.145	1162.39
421.353	1275.03
421.561	1359
421.769	1348.76
421.977	1430.68
422.185	1371.29
422.393	1580.18
422.601	1551.51
422.809	1606.8
423.017	1645.71
423.224	1649.81
423.432	1825.93
423.64	1721.49
423.848	1866.89
424.056	1965.2
424.263	2043.02
424.471	2063.5
424.679	1981.58
424.887	2129.03
425.094	2333.83
425.302	2182.28
425.51	2280.58
425.718	2370.69
425.925	2442.37
426.133	2522.24
426.341	2681.99
426.548	2720.9
426.756	2610.31
426.964	2796.67
427.171	2964.61
427.379	2989.18
427.586	2966.65
427.794	3073.15
428.001	3265.66
428.209	3581.04
428.417	3437.69
428.624	3548.28
428.832	3726.45
429.039	3587.19
429.247	3579
429.454	4117.61
429.662	4293.74
429.869	3980.4
430.076	4400.23
430.284	4271.21
430.491	4230.25
430.699	4533.35
430.906	4572.26
431.114	4600.93
431.321	4877.41
431.528	4959.33
431.736	5188.7
431.943	5303.39
432.15	5174.36
432.358	5280.86
432.565	5495.89
432.772	5530.71
432.979	5842
433.187	5993.55
433.394	5899.34
433.601	6345.8
433.808	6411.34
434.016	6462.54
434.223	6612.04
434.43	7105.6
434.637	6964.29
434.844	7322.68
435.052	7437.37
435.259	7388.22
435.466	7310.4
435.673	7490.62
435.88	7902.26
436.087	8385.58
436.294	8170.54
436.501	8254.51
436.708	8145.97
436.915	8606.76
437.122	8944.67
437.329	8967.2
437.537	9231.39
437.743	9384.99
437.95	9335.84
438.157	9724.95
438.364	9970.71
438.571	10036.24
438.778	10118.16
438.985	11228.16
439.192	10896.39
439.399	11021.31
439.606	10853.38
439.813	11402.24
440.02	12325.87
440.227	11903.99
440.433	11695.1
440.64	12112.88
440.847	12067.83
441.054	12321.77
441.261	13190.11
441.467	12749.8
441.674	13272.03
441.881	13820.89
442.088	13646.81
442.294	13491.16
442.501	13915.09
442.708	14222.29
442.914	14848.97
443.121	15377.34
443.328	15049.67
443.534	15938.49
443.741	15719.35
443.948	15281.09
444.154	16249.78
444.361	16235.44
444.568	16632.75
444.774	16702.38
444.981	16446.38
445.187	17120.17
445.394	17855.39
445.6	17900.44
445.807	19436.42
446.013	18471.82
446.22	18680.72
446.426	19604.35
446.633	19919.74
446.839	20493.17
447.046	19905.4
447.252	20755.31
447.459	20593.52
447.665	20407.16
447.871	21699.42
448.078	22672.21
448.284	21433.19
448.491	21986.14
448.697	22782.8
448.903	23255.88
449.11	22942.54
449.316	22786.89
449.522	23499.59
449.728	24017.72
449.935	24206.14
450.141	24265.53
450.347	24601.4
450.553	23771.97
450.76	24312.63
450.966	24732.47
451.172	24892.21
451.378	25266.99
451.584	24754.99
451.791	25486.12
451.997	25072.43
452.203	25707.3
452.409	25758.5
452.615	25309.99
452.821	24359.73
453.027	24564.53
453.233	25711.39
453.44	24693.55
453.646	24785.71
453.852	25152.3
454.058	25381.67
454.264	24425.27
454.47	25299.75
454.676	24449.85
454.882	25142.06
455.088	23044.94
455.294	23393.09
455.5	23644.99
455.705	23919.42
455.911	22885.2
456.117	22680.4
456.323	22195.03
456.529	20876.14
456.735	22307.67
456.941	21537.63
457.147	20974.44
457.352	20616.05
457.558	20360.05
457.764	20339.57
457.97	20044.66
458.176	19444.61
458.381	19342.21
458.587	18572.18
458.793	18314.13
458.999	17345.44
459.204	18561.94
459.41	18369.43
459.616	16860.07
459.821	17066.92
460.027	16819.11
460.233	16528.3
460.438	15481.79
460.644	15887.29
460.85	15119.3
461.055	14758.86
461.261	14744.52
461.466	13716.44
461.672	13562.84
461.878	14468.05
462.083	13390.81
462.289	13132.77
462.494	12940.26
462.7	12477.42
462.905	11975.67
463.111	12575.72
463.316	12733.42
463.522	12180.46
463.727	12399.6
463.932	12153.84
464.138	12233.71
464.343	12346.35
464.549	11842.55
464.754	12428.27
464.959	12067.83
465.165	12248.05
465.37	11447.29
465.575	11340.8
465.781	11590.65
465.986	11764.73
466.191	11224.06
466.397	10978.31
466.602	10519.56
466.807	11150.34
467.012	10787.85
467.218	10796.04
467.423	10785.8
467.628	10918.92
467.833	11162.62
468.038	10744.84
468.244	10478.6
468.449	10855.43
468.654	10675.21
468.859	10667.02
469.064	10533.9
469.269	10122.26
469.474	10148.88
469.679	10271.76
469.885	10247.18
470.09	10189.84
470.295	10134.54
470.5	9856.02
470.705	9921.56
470.91	9722.9
471.115	9708.57
471.32	9712.66
471.525	9595.93
471.73	9593.88
471.935	9292.83
472.139	9042.98
472.344	9065.5
472.549	9172
472.754	9026.59
472.959	8854.56
473.164	8545.32
473.369	8793.12
473.574	8840.23
473.778	8610.86
473.983	8549.42
474.188	8739.88
474.393	8096.82
474.598	8256.56
474.802	8127.53
475.007	8188.97
475.212	8297.52
475.417	7816.24
475.621	7967.79
475.826	7834.68
476.031	7775.28
476.235	7709.75
476.44	7681.08
476.645	7578.68
476.849	7369.79
477.054	7310.4
477.259	7380.03
477.463	7357.5
477.668	7242.81
477.872	7267.39
478.077	7027.78
478.282	6960.19
478.486	7027.78
478.691	6892.61
478.895	6777.92
479.1	6777.92
479.304	6808.64
479.509	6659.14
479.713	6683.72
479.918	6628.42
480.122	6521.93
480.326	6446.15
480.531	6599.75
480.735	6503.5
480.94	6341.71
481.144	6644.81
481.348	6362.19
481.553	6349.9
481.757	6239.31
481.961	6462.54
482.166	6358.09
482.37	6286.41
482.574	6388.81
482.778	6306.89
482.983	6560.84
483.187	6300.75
483.391	6591.56
483.595	6259.79
483.8	6192.2
484.004	6243.4
484.208	6382.67
484.412	6249.55
484.616	6308.94
484.821	6390.86
485.025	6194.25
485.229	6208.59
485.433	6233.16
485.637	6327.37
485.841	6302.79
486.045	6126.67
486.249	6245.45
486.453	6198.35
486.657	6325.32
486.861	6208.59
487.065	6011.98
487.269	6464.58
487.473	6108.24
487.677	6192.2
487.881	6327.37
488.085	6093.9
488.289	6259.79
488.493	6349.9
488.697	6349.9
488.901	6229.07
489.105	6231.12
489.309	6376.52
489.512	6356.04
489.716	6493.26
489.92	6397
490.124	6284.36
490.328	6497.35
490.531	6521.93
490.735	6403.14
490.939	6378.57
491.143	6302.79
491.346	6280.27
491.55	6497.35
491.754	6509.64
491.958	6491.21
492.161	6532.17
492.365	6544.45
492.569	6364.23
492.772	6493.26
492.976	6509.64
493.18	6702.15
493.383	6927.42
493.587	6943.81
493.79	6874.18
493.994	6765.64
494.197	7078.97
494.401	7068.73
494.605	6911.04
494.808	7005.25
495.012	6997.06
495.215	7101.5
495.419	7142.46
495.622	7027.78
495.825	7197.76
496.029	7160.89
496.232	7531.58
496.436	7060.54
496.639	7603.25
496.843	7359.55
497.046	7550.01
497.249	7691.32
497.453	7982.13
497.656	7957.55
497.859	7857.2
498.063	8203.31
498.266	8225.84
498.469	7957.55
498.673	8231.98
498.876	8406.06
499.079	8594.47
499.282	8352.81
499.485	8512.55
499.689	8504.36
499.892	8686.63
500.095	8639.53
500.298	9118.75
500.501	9010.21
500.705	9135.14
500.908	9198.62
501.111	9585.69
501.314	9456.67
501.517	9479.19
501.72	9524.25
501.923	9573.4
502.126	9958.42
502.329	9978.9
502.532	10148.88
502.735	9989.14
502.938	10494.99
503.141	10349.58
503.344	10456.08
503.547	10525.71
503.75	10748.93
503.953	10824.71
504.156	11035.65
504.359	11009.03
504.562	11191.3
504.765	11203.58
504.968	11578.36
505.17	11400.19
505.373	11627.51
505.576	11809.78
505.779	12112.88
505.982	11998.2
506.185	12088.31
506.387	12268.53
506.59	12321.77
506.793	12497.9
506.996	12788.71
507.198	13042.66
507.401	12948.45
507.604	13425.63
507.807	13239.26
508.009	13450.21
508.212	13614.04
508.415	13542.36
508.617	14003.16
508.82	13718.49
509.022	13913.05
509.225	14152.66
509.428	14341.07
509.63	14304.21
509.833	14439.37
510.035	14986.18
510.238	14967.75
510.44	15211.46
510.643	15373.25
510.845	15449.02
511.048	15332.29
511.25	15440.83
511.453	15664.06
511.655	16382.9
511.858	16110.52
512.06	16241.59
512.262	16532.4
512.465	16460.72
512.667	16888.74
512.87	16786.35
513.072	16769.96
513.274	17308.58
513.477	17236.9
513.679	17673.12
513.881	17851.29
514.084	18103.19
514.286	17857.43
514.488	17957.78
514.69	18682.77
514.893	18453.39
515.095	18559.89
515.297	19061.64
515.499	19311.49
515.701	19329.92
515.904	19940.22
516.106	19610.5
516.308	19925.88
516.51	20138.87
516.712	20302.71
516.914	20304.76
517.116	21152.62
517.318	20874.09
517.52	21027.69
517.722	20992.87
517.925	21404.52
518.127	21713.76
518.329	21918.56
518.531	22049.63
518.733	22434.64
518.935	22618.96
519.136	22567.76
519.338	23133
519.54	23139.15
519.742	23812.93
519.944	23509.83
520.146	23835.45
520.348	24273.72
520.55	24230.71
520.752	24472.37
520.954	24675.12
521.155	24890.16
521.357	24972.08
521.559	25348.9
521.761	25695.01
521.963	25527.08
522.164	26227.48
522.366	26372.89
522.568	26665.75
522.77	26706.71
522.971	27126.54
523.173	27237.13
523.375	27390.73
523.576	27497.22
523.778	27726.6
523.98	27865.86
524.181	28230.4
524.383	28367.61
524.584	28545.78
524.786	28986.1
524.988	29018.86
525.189	29217.52
525.391	29659.88
525.592	29405.93
525.794	29768.42
525.995	29819.62
526.197	30089.95
526.398	30481.11
526.6	30319.32
526.801	30638.81
527.003	30833.36
527.204	31118.03
527.406	31648.46
527.607	31509.19
527.808	31589.06
528.01	30966.48
528.211	31668.94
528.412	32492.22
528.614	32127.68
528.815	32387.77
529.016	33002.16
529.218	32268.99
529.419	32625.34
529.62	32821.94
529.822	32744.12
530.023	33032.88
530.224	33288.88
530.425	33479.34
530.626	33118.9
530.828	33106.61
531.029	34089.63
531.23	33725.1
531.431	33573.55
531.632	33919.65
531.833	34247.33
532.035	34167.46
532.236	33981.09
532.437	34419.36
532.638	34081.44
532.839	34587.29
533.04	34931.35
533.241	34433.69
533.442	35089.04
533.643	34597.53
533.844	34742.94
534.045	35275.41
534.246	34777.75
534.447	35424.91
534.648	35033.75
534.849	35617.42
535.05	34783.9
535.251	35183.25
535.451	35529.36
535.652	35130
535.853	35011.22
536.054	35205.78
536.255	35488.4
536.456	35496.59
536.657	36082.31
536.857	35531.4
537.058	35429.01
537.259	35902.09
537.46	35760.78
537.66	35592.84
537.861	35707.53
538.062	35662.47
538.263	35768.97
538.463	35304.08
538.664	35967.62
538.865	35924.61
539.065	36057.73
539.266	35238.54
539.466	35744.39
539.667	35062.42
539.868	36055.68
540.068	35326.61
540.269	36059.78
540.469	35871.37
540.67	35803.78
540.87	35660.43
541.071	35578.51
541.271	35893.89
541.472	35719.82
541.672	35881.61
541.873	35768.97
542.073	35375.76
542.274	36180.61
542.474	35971.72
542.675	35449.49
542.875	35887.75
543.075	35775.11
543.276	35228.31
543.476	35885.7
543.676	35646.09
543.877	35807.88
544.077	35641.99
544.277	35764.87
544.478	35488.4
544.678	36027.01
544.878	35660.43
545.078	35947.14
545.279	35406.48
545.479	35676.81
545.679	35869.32
545.879	35482.25
546.079	35672.71
546.28	35457.68
546.48	35222.16
546.68	36145.8
546.88	35742.35
547.08	35824.26
547.28	35662.47
547.48	35250.83
547.68	35885.7
547.88	35445.39
548.081	35852.94
548.281	35338.9
548.481	35422.86
548.681	35863.18
548.881	35805.83
549.081	35445.39
549.28	35822.22
549.48	35781.26
549.68	35525.26
549.88	36186.75
550.08	35324.56
550.28	35975.81
550.48	35736.2
550.68	35912.33
550.88	35756.68
551.08	35383.95
551.279	35670.67
551.479	35338.9
551.679	35994.25
551.879	35576.46
552.079	35687.05
552.278	35562.12
552.478	35164.82
552.678	35482.25
552.878	35529.36
553.077	35531.4
553.277	35023.51
553.477	35541.64
553.676	35332.75
553.876	35041.94
554.076	35144.34
554.275	35351.18
554.475	35168.91
554.674	35277.46
554.874	35527.31
555.074	35185.3
555.273	35142.29
555.473	35220.11
555.672	34779.8
555.872	34792.09
556.071	35013.27
556.271	35048.08
556.47	34654.87
556.67	34554.52
556.869	34572.96
557.068	35027.6
557.268	34511.52
557.467	34470.56
557.667	34263.71
557.866	34282.14
558.065	33778.34
558.265	33698.47
558.464	34325.15
558.663	34589.34
558.863	33725.1
559.062	34278.05
559.261	33551.02
559.461	34136.74
559.66	33235.63
559.859	33497.77
560.058	33364.65
560.258	33514.16
560.457	33266.35
560.656	33514.16
560.855	33247.92
561.054	33331.89
561.253	32613.05
561.453	33008.31
561.652	33069.75
561.851	32754.36
562.05	32606.91
562.249	32326.33
562.448	32924.34
562.647	32291.52
562.846	32424.64
563.045	32199.36
563.244	31738.57
563.443	32713.4
563.642	31685.32
563.841	31816.39
564.04	31632.07
564.239	32062.15
564.438	31597.26
564.637	31441.61
564.836	31077.07
565.035	30776.02
565.234	30958.29
565.432	31183.57
565.631	30890.71
565.83	30751.45
566.029	30671.57
566.228	30356.19
566.427	30626.52
566.625	29965.03
566.824	30120.67
567.023	30268.12
567.222	29377.26
567.42	30040.8
567.619	29373.16
567.818	29776.61
568.016	29383.4
568.215	29397.74
568.414	29274.86
568.612	29014.77
568.811	28836.59
569.01	29033.2
569.208	28369.66
569.407	28394.23
569.605	28218.11
569.804	28351.23
570.002	28254.97
570.201	28478.2
570.4	27816.71
570.598	27812.61
570.797	27529.99
570.995	27783.94
571.193	27214.6
571.392	27550.47
571.59	27478.79
571.789	27085.58
571.987	27026.19
572.186	27212.56
572.384	27122.44
572.582	27204.36
572.781	27118.35
572.979	26526.49
573.177	26520.34
573.376	26465.05
573.574	26084.12
573.772	25969.44
573.971	25801.5
574.169	25953.05
574.367	25690.91
574.565	25948.96
574.763	25533.22
574.962	25692.96
575.16	25602.85
575.358	25658.15
575.556	25156.39
575.754	25613.09
575.952	25047.85
576.151	25367.34
576.349	25058.09
576.547	24806.19
576.745	24798
576.943	24566.58
577.141	24593.2
577.339	24484.66
577.537	24316.73
577.735	24398.65
577.933	24304.44
578.131	24150.84
578.329	23872.32
578.527	24146.75
578.725	24146.75
578.923	24001.34
579.121	23597.89
579.319	23612.23
579.516	23790.4
579.714	23636.8
579.912	23589.7
580.11	23384.9
580.308	23372.61
580.506	23233.35
580.704	22768.46
580.901	23083.85
581.099	23059.27
581.297	22915.92
581.495	22844.24
581.692	23012.17
581.89	22641.49
582.088	22840.14
582.285	22469.46
582.483	22498.13
582.681	22332.25
582.878	22154.07
583.076	22358.87
583.274	22588.24
583.471	21943.13
583.669	22043.48
583.866	21973.85
584.064	21861.21
584.262	21625.7
584.459	21625.7
584.657	21672.8
584.854	21269.35
585.052	21363.56
585.249	21394.28
585.447	21762.91
585.644	20919.15
585.841	21453.67
586.039	21195.62
586.236	21058.41
586.434	21052.27
586.631	21121.9
586.828	20806.51
587.026	20884.33
587.223	20652.91
587.42	20497.27
587.618	20476.79
587.815	20175.73
588.012	20327.28
588.21	20278.13
588.407	20415.35
588.604	20331.38
588.801	20302.71
588.999	19850.11
589.196	20155.26
589.393	19942.27
589.59	20069.24
589.787	20018.04
589.984	19635.07
590.182	19766.14
590.379	19776.38
590.576	19460.99
590.773	19696.51
590.97	19590.02
591.167	19495.81
591.364	19252.1
591.561	19110.79
591.758	19237.77
591.955	19145.61
592.152	19166.09
592.349	19102.6
592.546	19205
592.743	18776.97
592.94	18525.07
593.137	18766.73
593.334	18969.48
593.531	18566.03
593.727	18531.22
593.924	18514.83
594.121	18396.05
594.318	18324.37
594.515	18422.67
594.712	18357.14
594.908	18281.36
595.105	18201.49
595.302	17841.05
595.499	18412.43
595.696	18109.33
595.892	17836.95
596.089	17961.88
596.286	17916.83
596.482	17884.06
596.679	17830.81
596.876	17796
597.072	17609.63
597.269	17875.87
597.466	17453.98
597.662	17531.81
597.859	17339.3
598.055	17548.19
598.252	17216.42
598.448	17304.48
598.645	17021.86
598.841	16898.98
599.038	17077.16
599.234	16911.27
599.431	16919.46
599.627	16876.46
599.824	17011.62
600.02	16610.22
600.217	16720.81
600.413	16755.63
600.609	16366.51
600.806	16532.4
601.002	16769.96
601.198	16561.07
601.395	16401.33
601.591	16495.53
601.787	16151.48
601.984	16274.35
602.18	16311.22
602.376	16090.04
602.572	15805.37
602.769	16065.46
602.965	15805.37
603.161	16176.05
603.357	15815.61
603.553	15926.2
603.75	15778.75
603.946	15928.25
604.142	15756.22
604.338	15510.46
604.534	15627.2
604.73	15403.97
604.926	15465.41
605.122	15430.59
605.318	15365.06
605.514	15365.06
605.71	15158.21
605.906	15070.15
606.102	15045.57
606.298	15238.08
606.494	15395.78
606.69	15072.2
606.886	15424.45
607.082	14834.63
607.278	15084.48
607.474	14547.92
607.67	14994.37
607.866	14603.21
608.062	14693.32
608.257	14515.15
608.453	14568.4
608.649	14678.99
608.845	14549.96
609.041	14470.09
609.236	14463.95
609.432	14533.58
609.628	14549.96
609.824	14382.03
610.019	14304.21
610.215	13999.06
610.411	14521.29
610.606	14261.2
610.802	14230.48
610.998	14267.34
611.193	14361.55
611.389	14195.67
611.584	14236.63
611.78	13902.81
611.976	13831.13
612.171	14150.61
612.367	13964.25
612.562	13884.37
612.758	13978.58
612.953	13804.5
613.149	14011.35
613.344	13681.63
613.539	14164.95
613.735	13751.26
613.93	13761.5
614.126	13624.28
614.321	13738.97
614.517	13618.14
614.712	13640.67
614.907	13480.92
615.103	13607.9
615.298	13325.28
615.493	13638.62
615.688	13265.89
615.884	13652.95
616.079	13308.9
616.274	13411.29
616.47	13374.43
616.665	13229.02
616.86	13181.92
617.055	13259.74
617.25	13030.37
617.445	13294.56
617.641	12973.03
617.836	13151.2
618.031	12905.45
618.226	13161.44
618.421	12927.97
618.616	13030.37
618.811	12655.59
619.006	13052.9
619.201	12268.53
619.396	12807.14
619.591	12456.94
619.786	12772.33
619.981	12213.23
620.176	12368.88
620.371	12350.45
620.566	12489.71
620.761	12221.42
620.956	12303.34
621.151	12141.55
621.346	11914.23
621.541	12190.7
621.735	12057.59
621.93	11994.1
622.125	12071.92
622.32	11756.54
622.515	11789.3
622.709	11578.36
622.904	11617.27
623.099	11545.59
623.294	11795.45
623.488	11361.28
623.683	11379.71
623.878	11338.75
624.072	11543.55
624.267	11211.78
624.462	11318.27
624.656	11176.96
624.851	11244.54
625.046	10961.92
625.24	10984.45
625.435	10732.55
625.629	10851.33
625.824	10798.09
626.018	10855.43
626.213	10519.56
626.407	10796.04
626.602	10552.33
626.796	10482.7
626.991	10642.44
627.185	10312.72
627.38	10318.86
627.574	10275.85
627.768	10200.08
627.963	10185.74
628.157	10142.74
628.352	10222.61
628.546	9872.4
628.74	10073.1
628.935	9884.69
629.129	9853.97
629.323	9714.71
629.517	9591.83
629.712	9712.66
629.906	9610.26
630.1	9622.55
630.294	9419.8
630.489	9483.29
630.683	9352.22
630.877	9331.74
631.071	9288.73
631.265	9354.27
631.459	9223.2
631.653	9223.2
631.848	9118.75
632.042	9081.89
632.236	9006.11
632.43	8977.44
632.624	9075.74
632.818	8952.87
633.012	8741.93
633.206	8866.85
633.4	8868.9
633.594	8492.07
633.788	8592.42
633.982	8883.24
634.176	8619.05
634.369	8561.7
634.563	8373.29
634.757	8297.52
634.951	8350.76
635.145	8571.94
635.339	8258.6
635.533	8354.86
635.726	8229.93
635.92	8150.06
636.114	8002.61
636.308	8158.25
636.501	8135.73
636.695	7975.98
636.889	7875.63
637.083	7898.16
637.276	7935.03
637.47	7697.46
637.664	7795.76
637.857	7715.89
638.051	7881.78
638.244	7646.26
638.438	7758.9
638.632	7435.32
638.825	7611.45
639.019	7377.98
639.212	7414.84
639.406	7636.02
639.599	7484.47
639.793	7373.88
639.986	7164.99
640.18	7435.32
640.373	7363.64
640.567	7179.33
640.76	7291.96
640.954	7169.09
641.147	7160.89
641.34	6865.99
641.534	7076.93
641.727	7021.63
641.92	6876.23
642.114	6812.74
642.307	6763.59
642.5	6882.37
642.694	6669.38
642.887	6665.28
643.08	6708.29
643.273	6685.76
643.467	6698.05
643.66	6538.31
643.853	6528.07
644.046	6609.99
644.239	6403.14
644.432	6427.72
644.626	6382.67
644.819	6356.04
645.012	6388.81
645.205	6339.66
645.398	6253.64
645.591	6194.25
645.784	6282.31
645.977	6061.13
646.17	6138.96
646.363	6077.52
646.556	5973.07
646.749	6050.89
646.942	6050.89
647.135	6009.93
647.328	5792.85
647.521	5934.16
647.714	5747.79
647.907	5891.15
648.099	5846.1
648.292	5915.73
648.485	5835.86
648.678	5729.36
648.871	5768.27
649.064	5807.19
649.256	5733.46
649.449	5729.36
649.642	5586.01
649.835	5596.25
650.027	5598.29
650.22	5534.81
650.413	5512.28
650.605	5569.62
650.798	5499.99
650.991	5497.94
651.183	5321.82
651.376	5360.73
651.568	5344.35
651.761	5483.61
651.954	5278.81
652.146	5223.51
652.339	5366.87
652.531	5260.38
652.724	5176.41
652.916	5053.53
653.109	5182.56
653.301	5284.95
653.494	5186.65
653.686	5125.21
653.879	5200.99
654.071	5033.05
654.263	5020.77
654.456	5020.77
654.648	5022.81
654.84	4998.24
655.033	4832.35
655.225	4934.75
655.417	4875.36
655.61	4885.6
655.802	5055.58
655.994	4762.72
656.186	4920.42
656.379	4904.03
656.571	4938.85
656.763	4697.19
656.955	4693.09
657.148	4668.52
657.34	4750.43
657.532	4781.15
657.724	4666.47
657.916	4564.07
658.108	4635.75
658.3	4711.52
658.492	4715.62
658.684	4519.01
658.876	4580.45
659.068	4486.25
659.26	4426.86
659.452	4492.39
659.644	4463.72
659.836	4529.25
660.028	4613.22
660.22	4283.5
660.412	4576.36
660.604	4394.09
660.796	4375.66
660.988	4406.38
661.18	4375.66
661.372	4258.92
661.563	4301.93
661.755	4189.29
661.947	4203.63
662.139	4179.05
662.331	4334.7
662.522	4267.11
662.714	4222.06
662.906	4187.24
663.097	4258.92
663.289	4043.88
663.481	4138.09
663.673	4277.35
663.864	4064.36
664.056	4203.63
664.247	4058.22
664.439	4017.26
664.631	4299.88
664.822	4095.08
665.014	4189.29
665.205	4318.31
665.397	4076.65
665.588	4144.24
665.78	4023.41
665.971	4203.63
666.163	4252.78
666.354	4093.04
666.546	4185.19
666.737	4131.95
666.929	4111.47
667.12	4084.84
667.311	4109.42
667.503	4131.95
667.694	4220.01
667.885	4076.65
668.077	4017.26
668.268	4162.67
668.459	4191.34
668.651	4043.88
668.842	3925.1
669.033	3966.06
669.224	3957.87
669.416	4140.14
669.607	3931.25
669.798	4025.45
669.989	4215.91
670.18	4105.32
670.371	4017.26
670.563	4027.5
670.754	4011.12
670.945	4088.94
671.136	4144.24
671.327	3986.54
671.518	4359.27
671.709	4222.06
671.9	4203.63
672.091	4230.25
672.282	4064.36
672.473	4148.33
672.664	4121.71
672.855	4228.2
673.046	4189.29
673.237	4289.64
673.428	4228.2
673.619	4275.31
673.809	4287.59
674	4316.26
674.191	4295.79
674.382	4289.64
674.573	4330.6
674.764	4277.35
674.954	4336.74
675.145	4375.66
675.336	4408.42
675.527	4383.85
675.717	4488.29
675.908	4445.29
676.099	4328.55
676.289	4308.07
676.48	4494.44
676.671	4473.96
676.861	4471.91
677.052	4433
677.243	4455.53
677.433	4430.95
677.624	4574.31
677.814	4629.6
678.005	4658.28
678.195	4668.52
678.386	4471.91
678.576	4637.8
678.767	4664.42
678.957	4799.59
679.148	4785.25
679.338	4779.11
679.529	4682.85
679.719	4658.28
679.909	5102.68
680.1	4791.39
680.29	4895.84
680.481	4914.27
680.671	4914.27
680.861	4908.13
681.052	4973.66
681.242	4924.51
681.432	4983.9
681.622	5188.7
681.813	4990.05
682.003	5055.58
682.193	5121.12
682.383	5020.77
682.573	5145.69
682.764	5098.59
682.954	5205.08
683.144	5006.43
683.334	5278.81
683.524	5166.17
683.714	5151.84
683.904	5176.41
684.094	5272.67
684.284	5231.71
684.474	5395.54
684.664	5291.1
684.854	5303.39
685.044	5268.57
685.234	5381.21
685.424	5379.16
685.614	5327.96
685.804	5319.77
685.994	5354.58
686.184	5459.03
686.374	5389.4
686.564	5237.85
686.753	5364.82
686.943	5225.56
687.133	5301.34
687.323	5092.44
687.513	5219.42
687.702	5112.92
687.892	5297.24
688.082	5151.84
688.272	5143.64
688.461	5137.5
688.651	5074.01
688.841	5041.25
689.03	5035.1
689.22	5180.51
689.41	4985.95
689.599	5166.17
689.789	5108.83
689.979	4908.13
690.168	4863.07
690.358	5004.38
690.547	4947.04
690.737	4861.02
690.926	4965.47
691.116	4801.63
691.305	4863.07
691.495	4781.15
691.684	4865.12
691.874	4824.16
692.063	4836.45
692.252	4637.8
692.442	4805.73
692.631	4629.6
692.82	4734.05
693.01	4605.03
693.199	4619.36
693.388	4723.81
693.578	4701.28
693.767	4691.04
693.956	4553.83
694.146	4389.99
694.335	4510.82
694.524	4447.33
694.713	4549.73
694.902	4570.21
695.092	4469.86
695.281	4406.38
695.47	4578.4
695.659	4449.38
695.848	4447.33
696.037	4408.42
696.226	4463.72
696.415	4463.72
696.604	4539.49
696.793	4418.66
696.982	4267.11
697.171	4523.11
697.36	4400.23
697.549	4336.74
697.738	4482.15
697.927	4414.57
698.116	4461.67
698.305	4492.39
698.494	4420.71
698.683	4402.28
698.872	4492.39
699.061	4398.18
699.25	4322.41
699.438	4340.84
699.627	4414.57
699.816	4494.44
700.005	4392.04
700.193	4443.24
700.382	4420.71
700.571	4502.63
700.76	4394.09
700.948	4469.86
701.137	4559.97
701.326	4455.53
701.514	4359.27
701.703	4557.93
701.892	4379.75
702.08	4533.35
702.269	4476.01
702.457	4457.57
702.646	4498.53
702.834	4394.09
703.023	4504.68
703.212	4414.57
703.4	4629.6
703.589	4572.26
703.777	4627.56
703.965	4521.06
704.154	4570.21
704.342	4625.51
704.531	4580.45
704.719	4428.9
704.907	4572.26
705.096	4572.26
705.284	4424.81
705.472	4678.76
705.661	4756.58
705.849	4713.57
706.037	4838.5
706.226	4551.78
706.414	4725.86
706.602	4805.73
706.79	4824.16
706.979	4693.09
707.167	4689
707.355	4721.76
707.543	4883.55
707.731	4924.51
707.919	4924.51
708.107	4932.7
708.296	4777.06
708.484	4971.61
708.672	4854.88
708.86	4940.9
709.048	4988
709.236	4899.94
709.424	4916.32
709.612	5063.77
709.8	4926.56
709.988	5149.79
710.176	5123.16
710.364	4963.42
710.551	5010.53
710.739	5203.04
710.927	5192.8
711.115	5287
711.303	5020.77
711.491	5252.19
711.679	5166.17
711.866	5301.34
712.054	5325.91
712.242	5217.37
712.43	5510.23
712.617	5231.71
712.805	5282.91
712.993	5362.78
713.181	5225.56
713.368	5297.24
713.556	5469.27
713.744	5395.54
713.931	5567.57
714.119	5420.12
714.306	5629.01
714.494	5555.29
714.682	5416.02
714.869	5624.92
715.057	5637.2
715.244	5340.25
715.432	5678.16
715.619	5665.88
715.807	5813.33
715.994	5692.5
716.182	5719.12
716.369	5829.71
716.556	5844.05
716.744	5731.41
716.931	5850.19
717.119	5899.34
717.306	5960.78
717.493	5923.92
717.681	5989.46
717.868	6036.56
718.055	5938.26
718.242	5932.11
718.43	5925.97
718.617	6046.8
718.804	5999.7
718.991	5995.6
719.179	6231.12
719.366	6151.24
719.553	6227.02
719.74	6079.57
719.927	6120.53
720.114	6323.27
720.301	6270.03
720.488	6233.16
720.676	6249.55
720.863	6329.42
721.05	6374.47
721.237	6306.89
721.424	6399.05
721.611	6409.29
721.798	6304.84
721.985	6300.75
722.172	6448.2
722.358	6290.51
722.545	6399.05
722.732	6431.82
722.919	6452.3
723.106	6399.05
723.293	6413.38
723.48	6556.74
723.667	6454.34
723.853	6427.72
724.04	6538.31
724.227	6560.84
724.414	6349.9
724.6	6544.45
724.787	6747.2
724.974	6677.57
725.161	6530.12
725.347	6661.19
725.534	6782.02
725.72	6618.18
725.907	6720.58
726.094	6726.72
726.28	6947.9
726.467	6794.31
726.653	6751.3
726.84	6970.43
727.027	7023.68
727.213	6777.92
727.4	6816.83
727.586	6831.17
727.773	6919.23
727.959	6898.75
728.145	6915.14
728.332	6751.3
728.518	7115.84
728.705	7060.54
728.891	6886.47
729.077	6902.85
729.264	6970.43
729.45	7029.82
729.636	7261.24
729.823	7115.84
730.009	7181.37
730.195	7115.84
730.382	6790.21
730.568	7019.58
730.754	6917.19
730.94	7038.02
731.126	7101.5
731.313	7167.04
731.499	7025.73
731.685	6964.29
731.871	7044.16
732.057	7173.18
732.243	7169.09
732.429	7064.64
732.615	7191.61
732.801	7339.07
732.987	7171.13
733.173	7197.76
733.359	7289.92
733.545	7218.24
733.731	7257.15
733.917	7365.69
734.103	7349.31
734.289	7089.21
734.475	7203.9
734.661	7410.75
734.847	7259.2
735.033	7154.75
735.219	7236.67
735.404	7382.07
735.59	7134.27
735.776	7238.72
735.962	7259.2
736.148	7396.41
736.333	7308.35
736.519	7162.94
736.705	7355.45
736.89	7193.66
737.076	7228.48
737.262	7173.18
737.447	7101.5
737.633	7367.74
737.819	7242.81
738.004	7068.73
738.19	7197.76
738.375	7070.78
738.561	7214.14
738.747	7136.32
738.932	7193.66
739.118	7343.16
739.303	7054.4
739.489	7052.35
739.674	7160.89
739.859	7042.11
740.045	6966.34
740.23	7017.54
740.416	7146.56
740.601	7035.97
740.786	7099.45
740.972	6978.62
741.157	7144.51
741.342	6954.05
741.528	6972.48
741.713	7078.97
741.898	6929.47
742.084	6925.38
742.269	7128.13
742.454	6902.85
742.639	6943.81
742.824	6849.6
743.01	6863.94
743.195	6816.83
743.38	6648.9
743.565	6683.72
743.75	6775.88
743.935	6632.52
744.12	6657.09
744.305	6659.14
744.49	6677.57
744.675	6601.8
744.86	6349.9
745.045	6499.4
745.23	6587.46
745.415	6421.58
745.6	6489.16
745.785	6263.88
745.97	6521.93
746.155	6319.18
746.34	6372.43
746.525	6267.98
746.71	6202.44
746.895	6245.45
747.079	6141
747.264	6095.95
747.449	6212.68
747.634	6003.79
747.819	6214.73
748.003	5911.63
748.188	6110.29
748.373	5938.26
748.557	5872.72
748.742	5850.19
748.927	5907.54
749.111	5778.51
749.296	5850.19
749.481	5721.17
749.665	5786.71
749.85	5592.15
750.034	5768.27
750.219	5618.77
750.404	5502.04
750.588	5350.49
750.773	5575.77
750.957	5469.27
751.141	5420.12
751.326	5338.2
751.51	5428.31
751.695	5086.3
751.879	5178.46
752.064	5219.42
752.248	5157.98
752.432	5164.12
752.617	5174.36
752.801	5071.97
752.985	5020.77
753.17	5092.44
753.354	5016.67
753.538	4781.15
753.722	5018.72
753.907	4869.22
754.091	4760.67
754.275	4760.67
754.459	4586.6
754.643	4670.56
754.828	4547.69
755.012	4437.09
755.196	4502.63
755.38	4564.07
755.564	4476.01
755.748	4471.91
755.932	4422.76
756.116	4400.23
756.3	4349.03
756.484	4389.99
756.668	4271.21
756.852	4152.43
757.036	4312.17
757.22	4191.34
757.404	4201.58
757.588	4156.52
757.772	4207.72
757.956	4146.28
758.14	4136.04
758.323	4025.45
758.507	4144.24
758.691	3951.73
758.875	4007.02
759.059	3871.86
759.242	3802.22
759.426	3863.66
759.61	3834.99
759.794	3814.51
759.977	3753.07
760.161	3744.88
760.345	3757.17
760.528	3667.06
760.712	3656.82
760.895	3581.04
761.079	3708.02
761.263	3480.69
761.446	3640.44
761.63	3507.32
761.813	3579
761.997	3535.99
762.18	3650.67
762.364	3597.43
762.547	3458.17
762.731	3558.52
762.914	3404.92
763.098	3296.38
763.281	3257.46
763.464	3544.18
763.648	3327.1
763.831	3306.62
764.015	3337.34
764.198	3282.04
764.381	3306.62
764.564	3202.17
764.748	3331.19
764.931	3255.42
765.114	3196.03
765.297	3271.8
765.481	3222.65
765.664	3114.11
765.847	3163.26
766.03	3124.35
766.213	2978.94
766.397	3150.97
766.58	3040.38
766.763	3224.7
766.946	2954.37
767.129	2987.13
767.312	2872.45
767.495	2962.56
767.678	2874.49
767.861	2788.48
768.044	2819.2
768.227	2919.55
768.41	2913.41
768.593	2890.88
768.776	2819.2
768.959	2622.59
769.142	2991.23
769.324	2751.62
769.507	2794.62
769.69	2655.36
769.873	2761.86
770.056	2735.23
770.239	2681.99
770.421	2720.9
770.604	2741.38
770.787	2675.84
770.97	2698.37
771.152	2536.58
771.335	2686.08
771.518	2550.92
771.7	2581.64
771.883	2677.89
772.066	2538.63
772.248	2569.35
772.431	2583.68
772.613	2569.35
772.796	2538.63
772.978	2417.8
773.161	2563.2
773.343	2366.6
773.526	2376.84
773.708	2241.67
773.891	2290.82
774.073	2348.17
774.256	2241.67
774.438	2382.98
774.621	2262.15
774.803	2385.03
774.985	2204.81
775.168	2235.53
775.35	2196.62
775.532	2262.15
775.715	2145.42
775.897	2262.15
776.079	2083.98
776.261	2172.04
776.444	2073.74
776.626	2098.31
776.808	2086.03
776.99	2081.93
777.173	2053.26
777.355	2114.7
777.537	2030.73
777.719	1965.2
777.901	1944.72
778.083	1914
778.265	1881.23
778.447	1973.39
778.629	1926.29
778.811	1885.33
778.993	1815.69
779.175	1823.89
779.357	1793.17
779.539	1811.6
779.721	1815.69
779.903	1856.65
780.085	1770.64
780.267	1713.3
780.449	1791.12
780.631	1614.99
780.812	1729.68
780.994	1664.15
781.176	1774.74
781.358	1754.26
781.54	1666.19
781.721	1631.38
781.903	1727.63
782.085	1492.12
782.267	1623.19
782.448	1584.27
782.63	1641.62
782.812	1481.88
782.993	1565.84
783.175	1490.07
783.357	1457.3
783.538	1488.02
783.72	1395.86
783.901	1365.14
784.083	1490.07
784.264	1463.44
784.446	1395.86
784.627	1404.05
784.809	1402.01
784.99	1328.28
785.172	1410.2
785.353	1309.85
785.535	1295.51
785.716	1356.95
785.897	1242.26
786.079	1244.31
786.26	1293.46
786.441	1350.81
786.623	1240.22
786.804	1283.22
786.985	1270.94
787.167	1180.82
787.348	1215.64
787.529	1154.2
787.71	1242.26
787.891	1236.12
788.073	1270.94
788.254	1111.19
788.435	1172.63
788.616	1139.87
788.797	1109.15
788.978	1070.23
789.159	1139.87
789.34	1111.19
789.522	1070.23
789.703	1125.53
789.884	988.32
790.065	1137.82
790.246	1103
790.427	1035.42
790.607	1131.67
790.788	1160.34
790.969	1055.9
791.15	1016.99
791.331	945.31
791.512	1086.62
791.693	1004.7
791.874	904.35
792.054	996.51
792.235	1004.7
792.416	877.73
792.597	914.59
792.778	935.07
792.958	967.84
793.139	990.36
793.32	1000.6
793.5	879.77
793.681	900.25
793.862	1021.08
794.042	908.44
794.223	881.82
794.404	853.15
794.584	875.68
794.765	834.72
794.945	828.57
795.126	836.77
795.306	812.19
795.487	812.19
795.667	791.71
795.848	838.81
796.028	738.46
796.209	717.98
796.389	867.49
796.57	775.33
796.75	804
796.93	824.48
797.111	777.37
797.291	820.38
797.471	744.61
797.652	816.29
797.832	742.56
798.012	806.05
798.192	734.37
798.373	744.61
798.553	652.45
798.733	758.94
798.913	691.36
799.093	783.52
799.274	720.03
799.454	787.61
799.634	726.18
799.814	752.8
799.994	689.31
800.174	670.88
800.354	672.93
800.534	582.82
800.714	738.46
800.894	607.39
801.074	627.87
801.254	582.82
801.434	685.22
801.614	683.17
801.794	697.5
801.974	1324.18
802.154	648.35
802.334	746.66
802.514	744.61
802.693	550.05
802.873	654.5
803.053	629.92
803.233	664.74
803.413	603.3
803.592	603.3
803.772	593.06
803.952	595.11
804.131	531.62
804.311	568.48
804.491	627.87
804.67	564.39
804.85	629.92
805.03	648.35
805.209	668.83
805.389	566.43
805.568	582.82
805.748	527.52
805.928	523.43
806.107	603.3
806.287	603.3
806.466	558.24
806.646	597.15
806.825	517.28
807.004	588.96
807.184	595.11
807.363	570.53
807.543	502.95
807.722	556.19
807.901	588.96
808.081	578.72
808.26	484.52
808.439	472.23
808.619	560.29
808.798	480.42
808.977	552.1
809.156	476.32
809.336	545.95
809.515	521.38
809.694	402.6
809.873	560.29
810.052	502.95
810.231	574.63
810.411	476.32
810.59	572.58
810.769	517.28
810.948	511.14
811.127	351.4
811.306	390.31
811.485	455.84
811.664	595.11
811.843	484.52
812.022	459.94
812.201	400.55
812.38	408.74
812.559	402.6
812.737	511.14
812.916	382.12
813.095	461.99
813.274	361.64
813.453	564.39
813.632	496.8
813.811	461.99
813.989	361.64
814.168	435.36
814.347	404.64
814.526	400.55
814.704	386.21
814.883	457.89
815.062	449.7
815.24	404.64
815.419	394.4
815.598	437.41
815.776	378.02
815.955	427.17
816.133	373.92
816.312	410.79
816.49	398.5
816.669	359.59
816.847	361.64
817.026	361.64
817.204	423.08
817.383	390.31
817.561	343.21
817.74	380.07
817.918	427.17
818.097	369.83
818.275	320.68
818.453	328.87
818.632	388.26
818.81	353.45
818.988	400.55
819.167	378.02
819.345	369.83
819.523	357.54
819.701	332.97
819.879	367.78
820.058	310.44
820.236	289.96
820.414	318.63
820.592	347.3
820.77	398.5
820.948	345.25
821.127	324.77
821.305	378.02
821.483	361.64
821.661	326.82
821.839	386.21
822.017	308.39
822.195	236.71
822.373	388.26
822.551	359.59
822.729	328.87
822.907	365.73
823.085	283.81
823.262	357.54
823.44	228.52
823.618	384.16
823.796	394.4
823.974	255.14
824.152	285.86
824.329	332.97
824.507	308.39
824.685	343.21
824.863	312.49
825.04	275.62
825.218	255.14
825.396	187.56
825.574	287.91
825.751	212.14
825.929	308.39
826.107	304.29
826.284	232.62
826.462	292.01
826.639	320.68
826.817	226.47
826.994	304.29
827.172	212.14
827.349	330.92
827.527	216.23
827.704	265.38
827.882	277.67
828.059	251.05
828.237	228.52
828.414	238.76
828.591	171.18
828.769	296.1
828.946	263.33
829.124	261.29
829.301	261.29
829.478	212.14
829.655	253.09
829.833	251.05
830.01	212.14
830.187	246.95
830.364	246.95
830.542	220.33
830.719	292.01
830.896	201.9
831.073	267.43
831.25	294.05
831.427	261.29
831.604	240.81
831.782	287.91
831.959	324.77
832.136	193.7
832.313	205.99
832.49	144.55
832.667	330.92
832.844	214.18
833.021	220.33
833.198	173.22
833.374	244.9
833.551	193.7
833.728	136.36
833.905	263.33
834.082	97.45
834.259	210.09
834.436	230.57
834.612	173.22
834.789	246.95
834.966	134.31
835.143	220.33
835.319	179.37
835.496	210.09
835.673	144.55
835.85	205.99
836.026	214.18
836.203	224.42
836.38	240.81
836.556	154.79
836.733	97.45
836.909	230.57
837.086	156.84
837.262	154.79
837.439	140.46
837.616	189.61
837.792	146.6
837.968	205.99
838.145	113.83
838.321	158.89
838.498	148.65
838.674	246.95
838.851	205.99
839.027	167.08
839.203	130.22
839.38	212.14
839.556	140.46
839.732	177.32
839.909	40.11
840.085	165.03
840.261	165.03
840.437	189.61
840.614	99.5
840.79	156.84
840.966	91.31
841.142	199.85
841.318	146.6
841.494	179.37
841.671	142.5
841.847	70.83
842.023	142.5
842.199	173.22
842.375	173.22
842.551	50.35
842.727	79.02
842.903	191.66
843.079	122.02
843.255	179.37
843.431	154.79
843.607	165.03
843.783	103.59
843.959	130.22
844.134	107.69
844.31	146.6
844.486	93.35
844.662	136.36
844.838	128.17
845.013	27.82
845.189	140.46
845.365	105.64
845.541	189.61
845.716	124.07
845.892	128.17
846.068	103.59
846.244	117.93
846.419	119.98
846.595	87.21
846.77	17.58
846.946	130.22
847.122	23.72
847.297	74.92
847.473	208.04
847.648	83.11
847.824	76.97
847.999	74.92
848.175	115.88
848.35	91.31
848.526	173.22
848.701	85.16
848.876	212.14
849.052	171.18
849.227	70.83
849.403	115.88
849.578	54.44
849.753	128.17
849.929	119.98
850.104	62.63
850.279	89.26
850.454	146.6
850.63	83.11
850.805	15.53
850.98	95.4
851.155	54.44
851.33	83.11
851.505	79.02
851.681	195.75
851.856	66.73
852.031	140.46
852.206	91.31
852.381	70.83
852.556	91.31
852.731	173.22
852.906	70.83
853.081	70.83
853.256	201.9
853.431	103.59
853.606	62.63
853.781	1.19
853.956	5.29
854.131	48.3
854.305	62.63
854.48	91.31
854.655	21.67
854.83	105.64
855.005	109.74
855.18	54.44
855.354	76.97
855.529	46.25
855.704	72.87
855.879	79.02
856.053	23.72
856.228	103.59
856.403	9.39
856.577	68.78
856.752	7.34
856.926	9.39
857.101	130.22
857.276	-33.62
857.45	31.91
857.625	97.45
857.799	50.35
857.974	64.68
858.148	1.19
858.323	119.98
858.497	36.01
858.672	11.43
858.846	-25.43
859.02	103.59
859.195	-52.05
859.369	33.96
859.543	83.11
859.718	44.2
859.892	99.5
860.066	99.5
860.241	-0.85
860.415	17.58
860.589	122.02
860.763	48.3
860.938	54.44
861.112	42.15
861.286	70.83
861.46	107.69
861.634	44.2
861.808	58.54
861.982	-15.19
862.157	72.87
862.331	-25.43
862.505	31.91
862.679	-2.9
862.853	42.15
863.027	25.77
863.201	111.78
863.375	-7
863.549	107.69
863.722	31.91
863.896	58.54
864.07	1.19
864.244	72.87
864.418	17.58
864.592	109.74
864.766	66.73
864.939	74.92
865.113	42.15
865.287	33.96
865.461	-9.05
865.634	83.11
865.808	60.59
865.982	74.92
866.156	-52.05
866.329	-29.52
866.503	-2.9
866.676	62.63
866.85	23.72
867.024	54.44
867.197	38.06
867.371	54.44
867.544	72.87
867.718	36.01
867.891	29.87
868.065	21.67
868.238	17.58
868.412	38.06
868.585	-27.48
868.759	-2.9
868.932	25.77
869.105	-23.38
869.279	-19.29
869.452	15.53
869.625	56.49
869.799	-56.15
869.972	33.96
870.145	33.96
870.319	-0.85
870.492	-68.44
870.665	3.24
870.838	17.58
871.011	-15.19
871.185	-43.86
871.358	25.77
871.531	25.77
871.704	-17.24
871.877	91.31
872.05	7.34
872.223	-23.38
872.396	130.22
872.569	74.92
872.742	21.67
872.915	56.49
873.088	7.34
873.261	31.91
873.434	95.4
873.607	-68.44
873.78	115.88
873.953	-60.24
874.126	64.68
874.299	-68.44
874.471	-21.33
874.644	9.39
874.817	27.82
874.99	99.5
875.163	-31.57
875.335	36.01
875.508	21.67
875.681	19.63
875.853	-70.48
876.026	-23.38
876.199	74.92
876.371	17.58
876.544	-58.2
876.717	-7
876.889	-9.05
877.062	44.2
877.234	70.83
877.407	9.39
877.579	42.15
877.752	42.15
877.924	56.49
878.097	64.68
878.269	-21.33
878.442	50.35
878.614	44.2
878.786	29.87
878.959	-7
879.131	1.19
879.303	-9.05
879.476	1.19
879.648	11.43
879.82	93.35
879.993	-25.43
880.165	60.59
880.337	-52.05
880.509	1.19
880.681	-41.81
880.854	27.82
881.026	21.67
881.198	17.58
881.37	-11.09
881.542	25.77
881.714	7.34
881.886	33.96
882.058	38.06
882.23	21.67
882.402	-84.82
882.574	-31.57
882.746	23.72
882.918	42.15
883.09	50.35
883.262	11.43
883.434	-56.15
883.606	11.43
883.778	-7
883.95	54.44
884.122	-11.09
884.293	21.67
884.465	5.29
884.637	-17.24
884.809	38.06
884.98	15.53
885.152	25.77
885.324	64.68
885.496	42.15
885.667	-29.52
885.839	-68.44
886.011	-2.9
886.182	29.87
886.354	11.43
886.525	-9.05
886.697	19.63
886.869	17.58
887.04	-72.53
887.212	21.67
887.383	72.87
887.555	-31.57
887.726	-39.76
887.897	31.91
888.069	33.96
888.24	58.54
888.412	1.19
888.583	33.96
888.754	-27.48
888.926	3.24
889.097	-58.2
889.268	-15.19
889.44	-60.24
889.611	-31.57
889.782	-4.95
889.953	-41.81
890.125	58.54
890.296	-41.81
890.467	-2.9
890.638	-35.67
890.809	-58.2
890.98	-64.34
891.151	-11.09
891.323	25.77
891.494	-41.81
891.665	17.58
891.836	1.19
892.007	17.58
892.178	81.07
892.349	31.91
892.52	-66.39
892.691	-56.15
892.862	-45.91
893.032	-50
893.203	-29.52
893.374	13.48
893.545	-15.19
893.716	-47.96
893.887	-4.95
894.057	13.48
894.228	-17.24
894.399	-7
894.57	-15.19
894.74	-4.95
894.911	-7
895.082	-11.09
895.253	62.63
895.423	11.43
895.594	58.54
895.764	11.43
895.935	-15.19
896.106	-17.24
896.276	-39.76
896.447	33.96
896.617	17.58
896.788	-56.15
896.958	-64.34
897.129	-47.96
897.299	9.39
897.47	33.96
897.64	58.54
897.81	-105.3
897.981	13.48
898.151	-31.57
898.322	42.15
898.492	33.96
898.662	-11.09
898.832	5.29
899.003	25.77
899.173	-7
899.343	-45.91
899.513	-97.11
