Data from USB4F104151__33__11-30-10-264.txt Node

Date: Fri Mar 14 11:30:10 EDT 2025
User: louis
Spectrometer: USB4F10415
Trigger mode: 4
Integration Time (sec): 5.000000E-2
Scans to average: 1
Electric dark correction enabled: true
Nonlinearity correction enabled: false
Boxcar width: 0
XAxis mode: Wavelengths
Number of Pixels in Spectrum: 3648
>>>>>Begin Spectral Data<<<<<
178.204	-128.68
178.424	-128.68
178.644	-128.68
178.864	-114.34
179.084	-183.98
179.304	-11.95
179.524	-1.71
179.744	16.73
179.964	39.25
180.184	-16.04
180.404	39.25
180.624	55.64
180.844	14.68
181.064	-50.86
181.283	-67.24
181.503	-73.39
181.723	55.64
181.943	-108.2
182.163	115.03
182.383	-1.71
182.602	53.59
182.822	55.64
183.042	-40.62
183.262	51.54
183.482	47.44
183.701	45.4
183.921	108.88
184.141	26.96
184.361	67.92
184.58	12.63
184.8	31.06
185.02	63.83
185.239	117.08
185.459	35.16
185.679	69.97
185.898	-9.9
186.118	14.68
186.338	6.49
186.557	55.64
186.777	-20.14
186.997	39.25
187.216	53.59
187.436	119.12
187.655	74.07
187.875	94.55
188.095	-13.99
188.314	49.49
188.534	43.35
188.753	-1.71
188.973	84.31
189.192	37.2
189.412	45.4
189.631	43.35
189.851	-9.9
190.07	31.06
190.29	16.73
190.509	31.06
190.729	22.87
190.948	104.79
191.168	174.42
191.387	31.06
191.607	51.54
191.826	14.68
192.045	14.68
192.265	84.31
192.484	18.77
192.704	12.63
192.923	18.77
193.142	53.59
193.362	72.02
193.581	96.6
193.8	14.68
194.02	35.16
194.239	-26.28
194.458	76.12
194.678	-3.75
194.897	49.49
195.116	35.16
195.335	55.64
195.555	90.45
195.774	33.11
195.993	26.96
196.212	47.44
196.432	-5.8
196.651	-18.09
196.87	20.82
197.089	84.31
197.308	110.93
197.528	39.25
197.747	-65.19
197.966	67.92
198.185	88.4
198.404	47.44
198.623	22.87
198.842	63.83
199.062	47.44
199.281	72.02
199.5	80.21
199.719	-5.8
199.938	-11.95
200.157	51.54
200.376	65.88
200.595	72.02
200.814	29.01
201.033	24.92
201.252	110.93
201.471	18.77
201.69	53.59
201.909	55.64
202.128	47.44
202.347	-26.28
202.566	-5.8
202.785	6.49
203.004	39.25
203.223	112.98
203.442	22.87
203.661	47.44
203.879	59.73
204.098	-1.71
204.317	14.68
204.536	31.06
204.755	14.68
204.974	61.78
205.193	31.06
205.411	92.5
205.63	26.96
205.849	67.92
206.068	22.87
206.287	-16.04
206.505	51.54
206.724	88.4
206.943	-18.09
207.162	72.02
207.381	-1.71
207.599	80.21
207.818	-18.09
208.037	8.53
208.255	78.16
208.474	-1.71
208.693	6.49
208.911	4.44
209.13	39.25
209.349	45.4
209.567	108.88
209.786	55.64
210.005	26.96
210.223	24.92
210.442	12.63
210.661	65.88
210.879	47.44
211.098	6.49
211.316	24.92
211.535	47.44
211.753	22.87
211.972	18.77
212.191	92.5
212.409	41.3
212.628	100.69
212.846	14.68
213.065	31.06
213.283	59.73
213.502	-20.14
213.72	63.83
213.938	37.2
214.157	24.92
214.375	33.11
214.594	72.02
214.812	94.55
215.031	55.64
215.249	35.16
215.467	29.01
215.686	92.5
215.904	147.8
216.122	26.96
216.341	41.3
216.559	82.26
216.778	63.83
216.996	84.31
217.214	-22.19
217.432	-26.28
217.651	55.64
217.869	102.74
218.087	41.3
218.306	18.77
218.524	39.25
218.742	-3.75
218.96	45.4
219.179	22.87
219.397	20.82
219.615	88.4
219.833	35.16
220.051	14.68
220.27	53.59
220.488	55.64
220.706	43.35
220.924	67.92
221.142	4.44
221.36	76.12
221.578	88.4
221.796	59.73
222.015	2.39
222.233	59.73
222.451	119.12
222.669	-9.9
222.887	37.2
223.105	-54.95
223.323	80.21
223.541	-20.14
223.759	6.49
223.977	31.06
224.195	57.68
224.413	74.07
224.631	39.25
224.849	22.87
225.067	88.4
225.285	-1.71
225.503	2.39
225.721	-42.67
225.939	43.35
226.157	4.44
226.375	115.03
226.592	63.83
226.81	29.01
227.028	-3.75
227.246	29.01
227.464	14.68
227.682	39.25
227.9	63.83
228.117	80.21
228.335	117.08
228.553	37.2
228.771	-9.9
228.989	141.65
229.206	29.01
229.424	-5.8
229.642	39.25
229.86	86.36
230.077	131.41
230.295	10.58
230.513	65.88
230.731	86.36
230.948	96.6
231.166	88.4
231.384	45.4
231.601	41.3
231.819	37.2
232.037	-3.75
232.254	-26.28
232.472	53.59
232.689	-26.28
232.907	74.07
233.125	-13.99
233.342	-26.28
233.56	4.44
233.777	-18.09
233.995	14.68
234.213	108.88
234.43	82.26
234.648	-34.47
234.865	-42.67
235.083	55.64
235.3	57.68
235.518	37.2
235.735	135.51
235.953	96.6
236.17	14.68
236.388	51.54
236.605	14.68
236.822	86.36
237.04	115.03
237.257	4.44
237.475	22.87
237.692	18.77
237.909	49.49
238.127	26.96
238.344	61.78
238.562	51.54
238.779	-32.43
238.996	-11.95
239.214	10.58
239.431	125.27
239.648	94.55
239.865	-38.57
240.083	45.4
240.3	47.44
240.517	88.4
240.735	-34.47
240.952	119.12
241.169	88.4
241.386	2.39
241.603	112.98
241.821	6.49
242.038	82.26
242.255	-9.9
242.472	51.54
242.689	39.25
242.907	43.35
243.124	49.49
243.341	92.5
243.558	45.4
243.775	-11.95
243.992	31.06
244.209	96.6
244.426	133.46
244.643	-3.75
244.86	76.12
245.078	61.78
245.295	61.78
245.512	39.25
245.729	10.58
245.946	10.58
246.163	45.4
246.38	31.06
246.597	18.77
246.814	-5.8
247.031	-20.14
247.248	84.31
247.464	6.49
247.681	94.55
247.898	6.49
248.115	10.58
248.332	69.97
248.549	119.12
248.766	72.02
248.983	-1.71
249.2	61.78
249.417	67.92
249.633	29.01
249.85	37.2
250.067	24.92
250.284	35.16
250.501	74.07
250.717	39.25
250.934	51.54
251.151	-5.8
251.368	-26.28
251.585	22.87
251.801	55.64
252.018	76.12
252.235	88.4
252.451	-24.23
252.668	-18.09
252.885	90.45
253.102	14.68
253.318	33.11
253.535	31.06
253.752	0.34
253.968	43.35
254.185	14.68
254.401	69.97
254.618	121.17
254.835	29.01
255.051	61.78
255.268	47.44
255.484	88.4
255.701	31.06
255.917	121.17
256.134	59.73
256.351	72.02
256.567	14.68
256.784	26.96
257	-52.91
257.217	22.87
257.433	69.97
257.65	22.87
257.866	45.4
258.082	-44.71
258.299	59.73
258.515	110.93
258.732	0.34
258.948	-50.86
259.165	18.77
259.381	-9.9
259.597	88.4
259.814	-93.87
260.03	-57
260.246	72.02
260.463	35.16
260.679	86.36
260.895	39.25
261.112	80.21
261.328	31.06
261.544	14.68
261.761	63.83
261.977	51.54
262.193	-85.67
262.409	108.88
262.626	-1.71
262.842	20.82
263.058	-22.19
263.274	39.25
263.49	82.26
263.707	67.92
263.923	74.07
264.139	-42.67
264.355	51.54
264.571	106.84
264.787	18.77
265.004	153.94
265.22	10.58
265.436	76.12
265.652	-11.95
265.868	67.92
266.084	4.44
266.3	-22.19
266.516	80.21
266.732	121.17
266.948	43.35
267.164	37.2
267.38	55.64
267.596	-34.47
267.812	88.4
268.028	14.68
268.244	-7.85
268.46	86.36
268.676	-34.47
268.892	69.97
269.108	-7.85
269.324	37.2
269.54	31.06
269.756	63.83
269.972	-9.9
270.188	88.4
270.403	35.16
270.619	92.5
270.835	47.44
271.051	59.73
271.267	61.78
271.483	78.16
271.698	18.77
271.914	-30.38
272.13	-26.28
272.346	47.44
272.562	20.82
272.777	0.34
272.993	-3.75
273.209	-1.71
273.425	84.31
273.64	-30.38
273.856	67.92
274.072	47.44
274.287	22.87
274.503	-5.8
274.719	127.32
274.934	96.6
275.15	-67.24
275.366	78.16
275.581	0.34
275.797	104.79
276.012	26.96
276.228	63.83
276.444	86.36
276.659	80.21
276.875	-28.33
277.09	31.06
277.306	-1.71
277.521	39.25
277.737	-24.23
277.952	53.59
278.168	57.68
278.383	39.25
278.599	51.54
278.814	108.88
279.03	-18.09
279.245	80.21
279.461	39.25
279.676	69.97
279.892	61.78
280.107	41.3
280.322	26.96
280.538	6.49
280.753	16.73
280.969	63.83
281.184	69.97
281.399	63.83
281.615	39.25
281.83	-32.43
282.045	-13.99
282.26	53.59
282.476	69.97
282.691	-26.28
282.906	14.68
283.122	108.88
283.337	14.68
283.552	72.02
283.767	55.64
283.983	96.6
284.198	55.64
284.413	22.87
284.628	6.49
284.843	-9.9
285.058	110.93
285.274	22.87
285.489	69.97
285.704	6.49
285.919	-26.28
286.134	24.92
286.349	26.96
286.564	-3.75
286.779	29.01
286.995	22.87
287.21	-38.57
287.425	-9.9
287.64	6.49
287.855	-26.28
288.07	88.4
288.285	63.83
288.5	80.21
288.715	78.16
288.93	20.82
289.145	-1.71
289.36	47.44
289.575	29.01
289.79	55.64
290.004	10.58
290.219	47.44
290.434	41.3
290.649	-1.71
290.864	18.77
291.079	-20.14
291.294	29.01
291.509	133.46
291.724	84.31
291.938	74.07
292.153	100.69
292.368	37.2
292.583	55.64
292.798	94.55
293.012	88.4
293.227	102.74
293.442	-38.57
293.657	92.5
293.871	129.36
294.086	53.59
294.301	108.88
294.516	80.21
294.73	51.54
294.945	39.25
295.16	47.44
295.374	127.32
295.589	12.63
295.804	31.06
296.018	26.96
296.233	121.17
296.447	67.92
296.662	6.49
296.877	45.4
297.091	96.6
297.306	53.59
297.52	20.82
297.735	80.21
297.949	22.87
298.164	-22.19
298.378	88.4
298.593	41.3
298.807	6.49
299.022	53.59
299.236	6.49
299.451	0.34
299.665	69.97
299.88	112.98
300.094	80.21
300.309	-13.99
300.523	12.63
300.737	108.88
300.952	88.4
301.166	20.82
301.381	43.35
301.595	47.44
301.809	47.44
302.024	57.68
302.238	47.44
302.452	100.69
302.667	8.53
302.881	51.54
303.095	96.6
303.309	63.83
303.524	20.82
303.738	-9.9
303.952	-18.09
304.166	63.83
304.381	-32.43
304.595	129.36
304.809	29.01
305.023	47.44
305.237	-34.47
305.452	88.4
305.666	78.16
305.88	43.35
306.094	47.44
306.308	-13.99
306.522	72.02
306.736	26.96
306.95	102.74
307.164	74.07
307.379	53.59
307.593	96.6
307.807	-5.8
308.021	67.92
308.235	94.55
308.449	0.34
308.663	2.39
308.877	145.75
309.091	-26.28
309.305	31.06
309.519	12.63
309.733	137.56
309.947	39.25
310.161	20.82
310.374	45.4
310.588	53.59
310.802	-38.57
311.016	41.3
311.23	24.92
311.444	98.64
311.658	76.12
311.872	47.44
312.085	108.88
312.299	67.92
312.513	76.12
312.727	110.93
312.941	63.83
313.154	39.25
313.368	53.59
313.582	72.02
313.796	29.01
314.009	65.88
314.223	102.74
314.437	135.51
314.651	57.68
314.864	47.44
315.078	51.54
315.292	39.25
315.505	35.16
315.719	35.16
315.933	76.12
316.146	-20.14
316.36	43.35
316.573	18.77
316.787	41.3
317.001	88.4
317.214	16.73
317.428	88.4
317.641	14.68
317.855	4.44
318.068	92.5
318.282	94.55
318.495	121.17
318.709	39.25
318.922	4.44
319.136	94.55
319.349	100.69
319.563	-9.9
319.776	45.4
319.99	-7.85
320.203	55.64
320.417	47.44
320.63	90.45
320.843	112.98
321.057	43.35
321.27	80.21
321.483	67.92
321.697	57.68
321.91	69.97
322.124	18.77
322.337	-1.71
322.55	35.16
322.763	49.49
322.977	112.98
323.19	31.06
323.403	86.36
323.617	39.25
323.83	72.02
324.043	-3.75
324.256	37.2
324.469	-5.8
324.683	72.02
324.896	29.01
325.109	88.4
325.322	-50.86
325.535	29.01
325.748	133.46
325.962	47.44
326.175	18.77
326.388	72.02
326.601	-9.9
326.814	35.16
327.027	29.01
327.24	80.21
327.453	-18.09
327.666	59.73
327.879	80.21
328.092	51.54
328.305	76.12
328.518	45.4
328.731	14.68
328.944	8.53
329.157	102.74
329.37	53.59
329.583	162.13
329.796	78.16
330.009	69.97
330.222	31.06
330.435	35.16
330.648	14.68
330.861	-22.19
331.073	18.77
331.286	45.4
331.499	59.73
331.712	37.2
331.925	69.97
332.138	43.35
332.35	129.36
332.563	20.82
332.776	80.21
332.989	69.97
333.202	22.87
333.414	-18.09
333.627	53.59
333.84	-26.28
334.053	51.54
334.265	90.45
334.478	51.54
334.691	47.44
334.903	80.21
335.116	-3.75
335.329	12.63
335.541	55.64
335.754	137.56
335.966	33.11
336.179	74.07
336.392	14.68
336.604	22.87
336.817	72.02
337.029	10.58
337.242	121.17
337.454	53.59
337.667	18.77
337.88	59.73
338.092	127.32
338.305	20.82
338.517	-1.71
338.729	69.97
338.942	141.65
339.154	-1.71
339.367	14.68
339.579	37.2
339.792	41.3
340.004	47.44
340.217	-18.09
340.429	-9.9
340.641	6.49
340.854	-9.9
341.066	14.68
341.278	63.83
341.491	63.83
341.703	96.6
341.915	78.16
342.128	86.36
342.34	88.4
342.552	6.49
342.764	72.02
342.977	45.4
343.189	49.49
343.401	104.79
343.613	49.49
343.826	74.07
344.038	-28.33
344.25	-11.95
344.462	16.73
344.674	63.83
344.886	39.25
345.099	49.49
345.311	80.21
345.523	18.77
345.735	-18.09
345.947	67.92
346.159	-3.75
346.371	26.96
346.583	51.54
346.795	92.5
347.007	22.87
347.219	86.36
347.431	39.25
347.643	100.69
347.855	-5.8
348.067	55.64
348.279	88.4
348.491	37.2
348.703	14.68
348.915	106.84
349.127	115.03
349.339	55.64
349.551	39.25
349.763	100.69
349.975	22.87
350.187	8.53
350.399	149.84
350.61	72.02
350.822	63.83
351.034	4.44
351.246	59.73
351.458	127.32
351.669	10.58
351.881	104.79
352.093	65.88
352.305	14.68
352.517	96.6
352.728	100.69
352.94	92.5
353.152	-42.67
353.363	10.58
353.575	37.2
353.787	37.2
353.999	69.97
354.21	115.03
354.422	4.44
354.633	53.59
354.845	80.21
355.057	-1.71
355.268	55.64
355.48	35.16
355.692	-16.04
355.903	51.54
356.115	-3.75
356.326	29.01
356.538	49.49
356.749	108.88
356.961	133.46
357.172	121.17
357.384	69.97
357.595	186.71
357.807	-26.28
358.018	80.21
358.23	102.74
358.441	112.98
358.653	37.2
358.864	2.39
359.075	74.07
359.287	10.58
359.498	112.98
359.709	39.25
359.921	65.88
360.132	29.01
360.344	39.25
360.555	47.44
360.766	55.64
360.977	102.74
361.189	53.59
361.4	59.73
361.611	133.46
361.823	96.6
362.034	63.83
362.245	22.87
362.456	67.92
362.667	53.59
362.879	63.83
363.09	14.68
363.301	47.44
363.512	96.6
363.723	92.5
363.935	4.44
364.146	53.59
364.357	20.82
364.568	14.68
364.779	63.83
364.99	153.94
365.201	35.16
365.412	80.21
365.623	-26.28
365.834	22.87
366.045	18.77
366.256	104.79
366.467	51.54
366.678	-9.9
366.889	72.02
367.1	35.16
367.311	106.84
367.522	72.02
367.733	-34.47
367.944	72.02
368.155	4.44
368.366	57.68
368.577	119.12
368.788	104.79
368.999	80.21
369.209	74.07
369.42	135.51
369.631	115.03
369.842	104.79
370.053	47.44
370.264	47.44
370.474	117.08
370.685	67.92
370.896	31.06
371.107	84.31
371.317	104.79
371.528	37.2
371.739	94.55
371.95	43.35
372.16	6.49
372.371	-11.95
372.582	39.25
372.792	59.73
373.003	35.16
373.214	72.02
373.424	31.06
373.635	55.64
373.846	61.78
374.056	88.4
374.267	80.21
374.477	121.17
374.688	110.93
374.898	100.69
375.109	35.16
375.319	74.07
375.53	121.17
375.74	8.53
375.951	117.08
376.161	47.44
376.372	143.7
376.582	80.21
376.793	78.16
377.003	49.49
377.214	-36.52
377.424	35.16
377.635	47.44
377.845	-26.28
378.055	74.07
378.266	45.4
378.476	86.36
378.686	117.08
378.897	119.12
379.107	67.92
379.317	86.36
379.528	80.21
379.738	69.97
379.948	61.78
380.158	74.07
380.369	59.73
380.579	80.21
380.789	47.44
380.999	158.03
381.21	69.97
381.42	143.7
381.63	26.96
381.84	47.44
382.05	76.12
382.261	76.12
382.471	112.98
382.681	127.32
382.891	100.69
383.101	76.12
383.311	22.87
383.521	14.68
383.731	67.92
383.941	55.64
384.151	110.93
384.361	74.07
384.571	86.36
384.781	22.87
384.991	162.13
385.201	55.64
385.411	45.4
385.621	102.74
385.831	80.21
386.041	47.44
386.251	72.02
386.461	92.5
386.671	-11.95
386.881	74.07
387.091	31.06
387.301	26.96
387.511	94.55
387.72	88.4
387.93	53.59
388.14	45.4
388.35	123.22
388.56	131.41
388.769	86.36
388.979	137.56
389.189	16.73
389.399	24.92
389.609	31.06
389.818	96.6
390.028	82.26
390.238	100.69
390.447	133.46
390.657	92.5
390.867	39.25
391.076	39.25
391.286	63.83
391.496	39.25
391.705	115.03
391.915	203.09
392.125	125.27
392.334	51.54
392.544	72.02
392.753	121.17
392.963	110.93
393.172	53.59
393.382	-1.71
393.591	119.12
393.801	108.88
394.01	125.27
394.22	147.8
394.429	121.17
394.639	49.49
394.848	176.47
395.058	80.21
395.267	18.77
395.477	133.46
395.686	219.47
395.895	98.64
396.105	127.32
396.314	80.21
396.524	69.97
396.733	59.73
396.942	166.23
397.152	143.7
397.361	186.71
397.57	143.7
397.78	63.83
397.989	135.51
398.198	219.47
398.407	198.99
398.617	76.12
398.826	164.18
399.035	125.27
399.244	153.94
399.453	174.42
399.663	137.56
399.872	106.84
400.081	76.12
400.29	151.89
400.499	98.64
400.708	170.32
400.917	153.94
401.127	78.16
401.336	72.02
401.545	162.13
401.754	219.47
401.963	170.32
402.172	110.93
402.381	96.6
402.59	112.98
402.799	47.44
403.008	176.47
403.217	203.09
403.426	139.6
403.635	80.21
403.844	90.45
404.053	102.74
404.262	155.99
404.471	164.18
404.68	176.47
404.888	164.18
405.097	190.8
405.306	141.65
405.515	153.94
405.724	239.95
405.933	217.43
406.142	201.04
406.35	180.56
406.559	235.86
406.768	248.15
406.977	248.15
407.185	297.3
407.394	305.49
407.603	227.67
407.812	242
408.02	301.39
408.229	334.16
408.438	309.58
408.646	178.51
408.855	297.3
409.064	264.53
409.272	209.23
409.481	366.93
409.69	375.12
409.898	244.05
410.107	323.92
410.315	362.83
410.524	317.78
410.733	387.41
410.941	328.02
411.15	368.98
411.358	428.37
411.567	498
411.775	381.26
411.984	479.57
412.192	403.79
412.401	491.85
412.609	534.86
412.818	588.11
413.026	506.19
413.234	475.47
413.443	596.3
413.651	631.12
413.86	608.59
414.068	645.45
414.276	653.64
414.485	577.87
414.693	797
414.901	780.62
415.11	803.15
415.318	782.67
415.526	817.48
415.734	833.86
415.943	887.11
416.151	866.63
416.359	883.02
416.567	981.32
416.776	1077.57
416.984	1116.48
417.192	1079.62
417.4	1063.24
417.608	1108.29
417.817	1104.2
418.025	1268.03
418.233	1222.98
418.441	1321.28
418.649	1270.08
418.857	1372.48
419.065	1388.86
419.273	1386.82
419.481	1341.76
419.689	1587.52
419.897	1591.61
420.105	1673.53
420.313	1734.97
420.521	1665.34
420.729	1790.27
420.937	1876.28
421.145	1970.49
421.353	2007.35
421.561	2046.26
421.769	2197.81
421.977	2365.75
422.185	2232.63
422.393	2359.6
422.601	2609.45
422.809	2513.2
423.017	2527.53
423.224	2617.65
423.432	2679.08
423.64	2732.33
423.848	3109.16
424.056	2808.11
424.263	3043.62
424.471	3045.67
424.679	3305.76
424.887	3365.15
425.094	3514.66
425.302	3606.81
425.51	3739.93
425.718	3731.74
425.925	3774.75
426.133	4047.13
426.341	4231.44
426.548	4305.17
426.756	4215.06
426.964	4325.65
427.171	4659.47
427.379	4657.42
427.586	4839.69
427.794	4897.03
428.001	5216.52
428.209	5452.03
428.417	5501.19
428.624	5556.48
428.832	5826.81
429.039	5794.04
429.247	5802.24
429.454	6275.32
429.662	6746.35
429.869	6131.96
430.076	6787.31
430.284	6529.27
430.491	6834.41
430.699	7131.37
430.906	6942.96
431.114	7151.85
431.321	7561.44
431.528	7723.23
431.736	8165.59
431.943	8530.13
432.15	8337.62
432.358	8253.66
432.565	8898.77
432.772	8980.68
432.979	9230.54
433.187	9380.04
433.394	9359.56
433.601	10105.02
433.808	10135.74
434.016	10137.79
434.223	10600.63
434.43	11112.62
434.637	10920.11
434.844	11557.03
435.052	11571.36
435.259	11870.37
435.466	11782.31
435.673	11813.03
435.88	12413.08
436.087	13291.66
436.294	13226.12
436.501	12681.36
436.708	12957.84
436.915	13680.77
437.122	14151.81
437.329	14014.59
437.537	14682.23
437.743	14715
437.95	14889.07
438.157	15538.28
438.364	15960.16
438.571	16001.12
438.778	16015.46
438.985	17715.27
439.192	16756.82
439.399	17371.21
439.606	16914.52
439.813	17969.22
440.02	19052.59
440.227	18833.46
440.433	18430.01
440.64	19226.67
440.847	19208.24
441.054	19476.52
441.261	20586.52
441.467	20543.52
441.674	21016.6
441.881	21690.38
442.088	21504.01
442.294	21331.98
442.501	22188.03
442.708	22460.41
442.914	23341.04
443.121	24354.79
443.328	23623.66
443.534	25180.12
443.741	24582.11
443.948	24510.43
444.154	26120.13
444.361	26058.7
444.568	26365.89
444.774	26087.37
444.981	26603.46
445.187	26976.19
445.394	28319.65
445.6	27971.5
445.807	30775.17
446.013	29466.52
446.22	30039.95
446.426	31111.03
446.633	31444.85
446.839	32311.14
447.046	30986.11
447.252	32702.31
447.459	32771.94
447.665	32520.04
447.871	33953.62
448.078	35555.13
448.284	33623.89
448.491	35112.77
448.697	36060.98
448.903	36663.08
449.11	36747.04
449.316	36097.84
449.522	36761.38
449.728	38018.83
449.935	38244.11
450.141	37885.72
450.347	38862.6
450.553	37412.63
450.76	37955.35
450.966	39155.46
451.172	38960.9
451.378	39825.14
451.584	39110.4
451.791	39823.09
451.997	39888.63
452.203	40281.84
452.409	40249.07
452.615	40083.19
452.821	38780.68
453.027	38078.22
453.233	40058.61
453.44	38860.55
453.646	38766.34
453.852	39048.96
454.058	39968.5
454.264	38076.18
454.47	39528.19
454.676	37924.63
454.882	39374.59
455.088	36302.64
455.294	36792.1
455.5	37187.36
455.705	37601.05
455.911	35479.35
456.117	35327.8
456.323	34381.64
456.529	32831.33
456.735	33935.18
456.941	33312.6
457.147	32999.26
457.352	31956.85
457.558	31319.93
457.764	31242.1
457.97	30875.52
458.176	30054.28
458.381	29990.8
458.587	28616.61
458.793	28788.64
458.999	27176.89
459.204	28884.89
459.41	28053.42
459.616	25886.67
459.821	26527.68
460.027	26437.57
460.233	25630.67
460.438	24657.89
460.644	25112.53
460.85	23748.59
461.055	23322.61
461.261	23199.73
461.466	21630.99
461.672	20903.96
461.878	22140.93
462.083	20949.01
462.289	20480.03
462.494	20131.87
462.7	19611.69
462.905	18911.28
463.111	19527.72
463.316	19529.77
463.522	19253.3
463.727	19392.56
463.932	19275.82
464.138	18847.8
464.343	19056.69
464.549	18462.78
464.754	19013.68
464.959	18681.91
465.165	18821.17
465.37	17766.47
465.575	17354.83
465.781	18243.65
465.986	18286.65
466.191	17625.16
466.397	17399.88
466.602	16427.1
466.807	17176.66
467.012	17023.06
467.218	16969.81
467.423	17057.87
467.628	16713.81
467.833	17565.77
468.038	16848.98
468.244	16402.52
468.449	16750.68
468.654	16662.62
468.859	16244.83
469.064	16375.9
469.269	15837.28
469.474	15874.15
469.679	16267.36
469.885	15652.97
470.09	16140.38
470.295	15951.97
470.5	15270
470.705	15343.72
470.91	15032.43
471.115	15079.54
471.32	15267.95
471.525	15157.36
471.73	14764.15
471.935	14694.52
472.139	14211.2
472.344	14194.81
472.549	14252.16
472.754	14125.18
472.959	13635.72
473.164	13303.95
473.369	13310.09
473.574	13740.16
473.778	13533.32
473.983	13424.78
474.188	13305.99
474.393	12869.78
474.598	12904.59
474.802	12798.1
475.007	12746.9
475.212	12908.69
475.417	12081.31
475.621	12279.96
475.826	12175.52
476.031	11997.34
476.235	11896.99
476.44	12189.85
476.645	11800.74
476.849	11753.63
477.054	11641
477.259	11432.1
477.463	11274.41
477.668	11045.04
477.872	11155.63
478.077	10922.16
478.282	10705.07
478.486	10999.98
478.691	10660.02
478.895	10653.87
479.1	10598.58
479.304	10547.38
479.509	10166.46
479.713	10340.54
479.918	10324.15
480.122	10000.57
480.326	10199.23
480.531	10066.11
480.735	10221.75
480.94	9959.61
481.144	10326.2
481.348	9834.69
481.553	9916.61
481.757	9646.27
481.961	9889.98
482.166	9965.76
482.37	9812.16
482.574	9844.93
482.778	9869.5
482.983	10004.67
483.187	9793.73
483.391	10033.34
483.595	9892.03
483.8	9668.8
484.004	9812.16
484.208	9785.54
484.412	9758.91
484.616	9896.13
484.821	9914.56
485.025	9654.47
485.229	10023.1
485.433	9701.57
485.637	9900.22
485.841	9599.17
486.045	9685.19
486.249	9779.39
486.453	9633.99
486.657	9795.78
486.861	9781.44
487.065	9476.29
487.269	9869.5
487.473	9543.88
487.677	9609.41
487.881	9834.69
488.085	9793.73
488.289	9810.11
488.493	9717.95
488.697	9898.17
488.901	9998.52
489.105	9836.74
489.309	10062.01
489.512	9877.69
489.716	9965.76
489.92	10025.15
490.124	9826.5
490.328	10105.02
490.531	9877.69
490.735	10068.16
490.939	9943.23
491.143	9982.14
491.346	10176.7
491.55	10025.15
491.754	10221.75
491.958	10197.18
492.161	10019
492.365	10287.29
492.569	10168.51
492.772	10277.05
492.976	10344.63
493.18	10684.59
493.383	10641.59
493.587	10700.98
493.79	10606.77
493.994	10766.51
494.197	10774.7
494.401	10807.47
494.605	10776.75
494.808	10965.17
495.012	11045.04
495.215	11092.14
495.419	11274.41
495.622	11042.99
495.825	11260.07
496.029	11309.22
496.232	11546.79
496.436	11499.69
496.639	11786.4
496.843	11751.59
497.046	11946.14
497.249	12136.6
497.453	12056.73
497.656	12134.56
497.859	12406.94
498.063	12189.85
498.266	12759.19
498.469	12499.09
498.673	12699.8
498.876	12910.74
499.079	13006.99
499.282	13021.33
499.485	13295.75
499.689	13607.05
499.892	13727.88
500.095	13701.25
500.298	13961.34
500.501	13717.64
500.705	14213.24
500.908	14434.43
501.111	14624.89
501.314	14628.98
501.517	15071.34
501.72	15057.01
501.923	15100.01
502.126	15358.06
502.329	15523.94
502.532	15814.76
502.735	15630.44
502.938	16025.7
503.141	16138.34
503.344	16302.17
503.547	16355.42
503.75	16722.01
503.953	17125.46
504.156	17117.26
504.359	17117.26
504.562	17236.05
504.765	17672.26
504.968	17791.05
505.17	17768.52
505.373	18034.75
505.576	18436.16
505.779	18495.55
505.982	18554.94
506.185	18964.53
506.387	19044.4
506.59	19374.13
506.793	19748.9
506.996	19542.06
507.198	20088.87
507.401	19931.17
507.604	20207.65
507.807	20635.67
508.009	20768.79
508.212	20756.5
508.415	21129.23
508.617	21655.56
508.82	21583.88
509.022	21360.66
509.225	22069.25
509.428	22046.72
509.63	22456.32
509.833	22622.2
510.035	23042.04
510.238	22796.28
510.44	23220.21
510.643	23687.15
510.845	23828.46
511.048	23435.25
511.25	24268.77
511.453	24186.85
511.655	24917.98
511.858	24661.98
512.06	24946.65
512.262	25429.97
512.465	25505.74
512.667	25726.92
512.87	25647.05
513.072	25901
513.274	26480.58
513.477	26521.54
513.679	26988.47
513.881	27367.35
514.084	27586.48
514.286	27490.23
514.488	27865
514.69	28522.4
514.893	28532.64
515.095	28501.92
515.297	28667.81
515.499	29198.23
515.701	29464.47
515.904	29810.57
516.106	29812.62
516.308	30322.57
516.51	30490.5
516.712	30572.42
516.914	30584.71
517.116	31154.04
517.318	31518.58
517.52	31614.83
517.722	31993.71
517.925	32194.41
518.127	32632.68
518.329	32948.06
518.531	33087.32
518.733	33511.25
518.935	33777.49
519.136	33714
519.338	34793.28
519.54	34336.59
519.742	34809.67
519.944	34963.26
520.146	35741.49
520.348	35452.73
520.55	35905.33
520.752	36327.21
520.954	37160.73
521.155	36658.98
521.357	37046.05
521.559	37005.09
521.761	37752.6
521.963	38004.5
522.164	37953.3
522.366	38487.82
522.568	38567.69
522.77	38747.91
522.971	39302.91
523.173	39366.4
523.375	39831.29
523.576	39642.87
523.778	40277.74
523.98	40214.26
524.181	40787.69
524.383	40304.37
524.584	41215.71
524.786	41660.12
524.988	41209.57
525.189	41928.41
525.391	42041.04
525.592	42309.33
525.794	42548.94
525.995	42503.88
526.197	42411.73
526.398	43009.73
526.6	43089.6
526.801	43474.62
527.003	43830.97
527.204	44066.48
527.406	44113.59
527.607	44209.84
527.808	44773.03
528.01	44263.09
528.211	44566.19
528.412	45301.41
528.614	45162.15
528.815	45084.33
529.016	45825.69
529.218	45264.55
529.419	45778.59
529.62	45606.56
529.822	45594.27
530.023	45891.23
530.224	45819.55
530.425	46268.05
530.626	45657.76
530.828	45751.96
531.029	47079.05
531.23	46696.08
531.431	46870.15
531.632	46591.63
531.833	46919.31
532.035	46947.98
532.236	47242.88
532.437	47279.75
532.638	47054.47
532.839	47189.64
533.04	47709.82
533.241	47236.74
533.442	48041.59
533.643	47910.52
533.844	47824.51
534.045	47709.82
534.246	47480.45
534.447	47548.03
534.648	47640.19
534.849	48037.5
535.05	47707.77
535.251	48187
535.451	47890.04
535.652	48387.7
535.853	48168.57
536.054	48017.02
536.255	48326.26
536.456	47875.71
536.657	48479.86
536.857	48094.84
537.058	47836.8
537.259	48195.19
537.46	48434.8
537.66	48230.01
537.861	48170.61
538.062	47967.87
538.263	48356.98
538.463	47928.95
538.664	48279.16
538.865	48428.66
539.065	48742
539.266	47838.84
539.466	48483.95
539.667	47912.57
539.868	48793.2
540.068	48361.08
540.269	48293.49
540.469	48897.64
540.67	47980.15
540.87	48086.65
541.071	48178.81
541.271	48422.51
541.472	48389.75
541.672	48176.76
541.873	47996.54
542.073	47333
542.274	48803.44
542.474	48045.69
542.675	47838.84
542.875	48238.2
543.075	48133.75
543.276	47787.64
543.476	48373.36
543.676	48088.7
543.877	48383.6
544.077	48205.43
544.277	47842.94
544.478	47847.04
544.678	48324.21
544.878	48039.54
545.078	48404.08
545.279	48070.26
545.479	48098.94
545.679	48152.18
545.879	48240.25
546.079	48150.13
546.28	47939.19
546.48	47615.61
546.68	48150.13
546.88	47830.65
547.08	47945.34
547.28	48033.4
547.48	47521.41
547.68	47842.94
547.88	47875.71
548.081	47906.43
548.281	47892.09
548.481	47623.81
548.681	48203.38
548.881	48223.86
549.081	48012.92
549.28	47410.82
549.48	47906.43
549.68	47775.36
549.88	48506.48
550.08	47537.79
550.28	47947.39
550.48	47799.93
550.68	47883.9
550.88	47441.54
551.08	47607.42
551.279	47484.54
551.479	46919.31
551.679	47629.95
551.879	47847.04
552.079	47894.14
552.278	47222.4
552.478	47412.87
552.678	47849.08
552.878	48094.84
553.077	47677.05
553.277	47363.71
553.477	47621.76
553.676	47185.54
553.876	47578.75
554.076	47132.29
554.275	47218.31
554.475	46812.81
554.674	46986.89
554.874	47206.02
555.074	47246.98
555.273	47349.38
555.473	47308.42
555.672	46616.21
555.872	46945.93
556.071	46868.11
556.271	47122.05
556.47	46734.99
556.67	46550.67
556.869	46175.89
557.068	46788.24
557.268	46386.83
557.467	46624.4
557.667	46317.2
557.866	46476.94
558.065	45971.1
558.265	45989.53
558.464	45897.37
558.663	46323.35
558.863	45498.02
559.062	45989.53
559.261	45469.34
559.461	45985.43
559.66	45295.27
559.859	45751.96
560.058	45129.38
560.258	45295.27
560.457	44910.25
560.656	45358.75
560.855	44918.44
561.054	45190.82
561.253	44789.42
561.453	45119.14
561.652	44930.73
561.851	44793.51
562.05	44392.11
562.249	44218.03
562.448	44342.96
562.647	44189.36
562.846	44394.16
563.045	44099.25
563.244	43466.43
563.443	44408.5
563.642	43327.17
563.841	43902.65
564.04	43347.65
564.239	43859.64
564.438	43110.08
564.637	43216.58
564.836	43083.46
565.035	42698.44
565.234	43136.71
565.432	42745.55
565.631	42542.8
565.83	42804.94
566.029	42245.84
566.228	42417.87
566.427	42325.71
566.625	41936.6
566.824	41647.83
567.023	41971.41
567.222	41238.24
567.42	42073.81
567.619	41805.53
567.818	41363.17
568.016	41522.91
568.215	41090.79
568.414	41133.79
568.612	41543.39
568.811	40718.06
569.01	40623.85
569.208	39929.59
569.407	40519.4
569.605	40009.46
569.804	40740.58
570.002	39988.98
570.201	40330.99
570.4	39683.83
570.598	39528.19
570.797	39431.93
570.995	39778.04
571.193	39139.07
571.392	39397.12
571.59	38854.4
571.789	38801.16
571.987	39001.86
572.186	38455.05
572.384	38434.57
572.582	38770.44
572.781	38756.1
572.979	37986.07
573.177	38276.88
573.376	38387.47
573.574	37601.05
573.772	37646.1
573.971	37805.84
574.169	37060.38
574.367	37345.05
574.565	37766.93
574.763	36869.92
574.962	37144.35
575.16	36513.58
575.358	37107.49
575.556	36511.53
575.754	37130.01
575.952	36380.46
576.151	36831.01
576.349	36216.62
576.547	36183.85
576.745	36200.24
576.943	36075.31
577.141	35997.49
577.339	35874.61
577.537	35622.71
577.735	35649.33
577.933	35510.07
578.131	35481.4
578.329	35096.38
578.527	34723.65
578.725	35120.96
578.923	35032.89
579.121	34905.92
579.319	34875.2
579.516	34973.5
579.714	34641.73
579.912	34651.97
580.11	34051.92
580.308	34111.31
580.506	34477.9
580.704	33652.56
580.901	34170.7
581.099	34002.77
581.297	33541.97
581.495	33636.18
581.692	33877.84
581.89	33185.63
582.088	33877.84
582.285	33054.56
582.483	33662.8
582.681	33165.15
582.878	32991.07
583.076	32624.48
583.274	33042.27
583.471	32569.19
583.669	32624.48
583.866	32374.63
584.064	32624.48
584.262	32001.9
584.459	32614.24
584.657	32243.56
584.854	32452.45
585.052	31760.24
585.249	31891.31
585.447	31930.22
585.644	31479.67
585.841	31424.37
586.039	31698.8
586.236	31195
586.434	31209.34
586.631	30988.16
586.828	30990.2
587.026	30988.16
587.223	31207.29
587.42	30644.1
587.618	31000.44
587.815	30566.27
588.012	30752.64
588.21	30418.82
588.407	30779.26
588.604	30201.74
588.801	29986.7
588.999	30226.31
589.196	30179.21
589.393	29923.21
589.59	30109.58
589.787	29730.7
589.984	29484.95
590.182	29525.91
590.379	29562.77
590.576	29269.91
590.773	29437.84
590.97	29032.35
591.167	29183.9
591.364	28776.35
591.561	28958.62
591.758	28510.11
591.955	29122.46
592.152	28686.24
592.349	28618.66
592.546	28618.66
592.743	28434.34
592.94	28420
593.137	28495.78
593.334	28379.04
593.531	27897.77
593.727	28004.27
593.924	28049.32
594.121	27592.62
594.318	28053.42
594.515	27617.2
594.712	27588.53
594.908	27582.38
595.105	27862.96
595.302	27051.96
595.499	27293.62
595.696	27084.73
595.892	26765.24
596.089	27060.15
596.286	27011
596.482	27021.24
596.679	26871.74
596.876	26625.98
597.072	26216.39
597.269	26456
597.466	26193.86
597.662	26417.09
597.859	26140.61
598.055	26386.37
598.252	25825.23
598.448	26200.01
598.645	25845.71
598.841	25792.46
599.038	25882.57
599.234	25864.14
599.431	25487.31
599.627	25493.46
599.824	25640.91
600.02	25442.26
600.217	25825.23
600.413	25495.5
600.609	25214.93
600.806	25188.31
601.002	25184.21
601.198	25055.19
601.395	25020.38
601.591	24475.62
601.787	24608.73
601.984	24842.2
602.18	24942.55
602.376	24514.53
602.572	24547.29
602.769	24641.5
602.965	24180.71
603.161	24174.56
603.357	23887.85
603.553	24195.04
603.75	24285.15
603.946	23711.72
604.142	23984.1
604.338	23582.7
604.534	23949.29
604.73	23138.29
604.926	23156.72
605.122	23713.77
605.318	23271.41
605.514	23162.87
605.71	23140.34
605.906	23183.35
606.102	23052.28
606.298	23070.71
606.494	23234.55
606.69	23115.76
606.886	22968.31
607.082	22652.92
607.278	22730.75
607.474	22052.87
607.67	22886.39
607.866	22269.95
608.062	22657.02
608.257	22274.05
608.453	22456.32
608.649	22478.85
608.845	22269.95
609.041	22251.52
609.236	22222.85
609.432	22298.63
609.628	21909.51
609.824	21954.57
610.019	21831.69
610.215	21823.5
610.411	22126.6
610.606	21547.02
610.802	21872.65
610.998	21817.35
611.193	21821.45
611.389	21645.32
611.584	21352.46
611.78	21276.69
611.976	21479.44
612.171	21422.09
612.367	21571.6
612.562	21231.63
612.758	20795.42
612.953	21362.7
613.149	21131.28
613.344	20828.18
613.539	21035.03
613.735	20916.25
613.93	20951.06
614.126	20736.02
614.321	21037.08
614.517	20946.97
614.712	20850.71
614.907	20582.43
615.103	20901.91
615.298	20467.74
615.493	20961.3
615.688	20572.19
615.884	20801.56
616.079	20154.4
616.274	20469.79
616.47	20406.3
616.665	20293.66
616.86	20199.46
617.055	20469.79
617.25	20178.98
617.445	20127.78
617.641	19888.17
617.836	19965.99
618.031	19546.16
618.226	20006.95
618.421	19873.83
618.616	20031.52
618.811	19578.92
619.006	19583.02
619.201	19480.62
619.396	19318.83
619.591	19292.21
619.786	19281.97
619.981	19210.29
620.176	19474.48
620.371	18853.94
620.566	19390.51
620.761	18704.44
620.956	18880.57
621.151	18696.25
621.346	18579.51
621.541	18372.67
621.735	18700.34
621.93	18219.07
622.125	18473.02
622.32	18112.58
622.515	18174.02
622.709	17965.12
622.904	17958.98
623.099	17952.84
623.294	17846.34
623.488	17557.58
623.683	17791.05
623.878	17446.99
624.072	17586.25
624.267	17487.95
624.462	17205.33
624.656	17274.96
624.851	17043.54
625.046	16945.23
625.24	17274.96
625.435	16535.64
625.629	16898.13
625.824	16672.85
626.018	16486.49
626.213	16216.16
626.407	16226.4
626.602	15990.88
626.796	16242.78
626.991	16029.79
627.185	15923.3
627.38	15665.25
627.574	15769.7
627.768	15530.09
627.963	15683.69
628.157	15491.18
628.352	15450.22
628.546	15403.11
628.74	15239.28
628.935	15390.83
629.129	15022.19
629.323	14860.4
629.517	15112.3
629.712	14796.92
629.906	14778.48
630.1	14510.2
630.294	14608.5
630.489	14657.65
630.683	14395.51
630.877	14295.16
631.071	14301.31
631.265	14473.34
631.459	14153.85
631.653	14119.04
631.848	14073.98
632.042	14112.89
632.236	14026.88
632.43	13774.98
632.624	13822.08
632.818	13535.37
633.012	13590.66
633.206	13760.64
633.4	13451.4
633.594	13447.3
633.788	13344.91
633.982	13226.12
634.176	13187.21
634.369	13150.35
634.563	13082.77
634.757	12859.54
634.951	12880.02
635.145	12839.06
635.339	13019.28
635.533	12814.48
635.726	12777.62
635.92	12343.45
636.114	12554.39
636.308	12402.84
636.501	12447.9
636.695	12462.23
636.889	12232.86
637.083	12382.36
637.276	12013.73
637.47	12036.25
637.664	12071.07
637.857	11880.61
638.051	11921.57
638.244	11681.96
638.438	11698.34
638.632	11913.38
638.825	11765.92
639.019	11597.99
639.212	11579.56
639.406	11311.27
639.599	11446.44
639.793	11487.4
639.986	11143.34
640.18	11186.35
640.373	10987.69
640.567	11045.04
640.76	10950.83
640.954	10864.82
641.147	10885.3
641.34	10778.8
641.534	10817.71
641.727	10672.31
641.92	10664.11
642.114	10766.51
642.307	10612.92
642.5	10666.16
642.694	10399.93
642.887	10516.66
643.08	10440.89
643.273	10309.82
643.467	10139.83
643.66	10266.81
643.853	10006.72
644.046	9967.81
644.239	9971.9
644.432	9892.03
644.626	9908.41
644.819	9705.67
645.012	9834.69
645.205	9787.58
645.398	9664.71
645.591	9709.76
645.784	9658.56
645.977	9488.58
646.17	9402.57
646.363	9416.9
646.556	9425.09
646.749	9361.61
646.942	9474.24
647.135	9269.45
647.328	9210.06
647.521	9150.67
647.714	8861.9
647.907	9074.89
648.099	9121.99
648.292	8909.01
648.485	8911.05
648.678	8745.17
648.871	8794.32
649.064	8751.31
649.256	8714.45
649.449	8739.02
649.642	8624.34
649.835	8423.64
650.027	8376.53
650.22	8542.42
650.413	8442.07
650.605	8362.2
650.798	8210.65
650.991	8167.64
651.183	8227.03
651.376	8218.84
651.568	8198.36
651.761	8118.49
651.954	8397.01
652.146	8153.3
652.339	8083.67
652.531	8147.16
652.724	7997.66
652.916	7860.45
653.109	7864.54
653.301	7799.01
653.494	7882.97
653.686	7944.41
653.879	7768.29
654.071	7647.46
654.263	7708.9
654.456	7538.91
654.648	7680.22
654.84	7489.76
655.033	7354.6
655.225	7549.15
655.417	7297.25
655.61	7526.63
655.802	7282.92
655.994	7358.69
656.186	7348.45
656.379	7358.69
656.571	7260.39
656.763	6969.58
656.955	7166.18
657.148	7121.13
657.34	7241.96
657.532	7196.9
657.724	6975.72
657.916	6988.01
658.108	6875.37
658.3	6879.47
658.492	6820.08
658.684	6889.71
658.876	6875.37
659.068	6842.6
659.26	6734.06
659.452	6674.67
659.644	6715.63
659.836	6795.5
660.028	6713.58
660.22	6527.22
660.412	6592.75
660.604	6494.45
660.796	6568.18
660.988	6611.18
661.18	6390
661.372	6347
661.563	6588.66
661.755	6428.92
661.947	6402.29
662.139	6330.61
662.331	6283.51
662.522	6238.45
662.714	6254.84
662.906	6220.02
663.097	6103.29
663.289	6273.27
663.481	5976.31
663.673	6279.41
663.864	6150.39
664.056	6154.49
664.247	6197.49
664.439	5787.9
664.631	5798.14
664.822	5982.46
665.014	5980.41
665.205	5871.87
665.397	5894.4
665.588	5908.73
665.78	5929.21
665.971	5972.22
666.163	6009.08
666.354	5804.28
666.546	5896.44
666.737	5777.66
666.929	5748.99
667.12	5953.79
667.311	5763.33
667.503	5691.65
667.694	5804.28
667.885	5628.16
668.077	5642.5
668.268	5464.32
668.459	5675.26
668.651	5495.04
668.842	5751.04
669.033	5609.73
669.224	5538.05
669.416	5628.16
669.607	5646.59
669.798	5617.92
669.989	5622.02
670.18	5501.19
670.371	5576.96
670.563	5484.8
670.754	5585.15
670.945	5464.32
671.136	5468.42
671.327	5576.96
671.518	5574.91
671.709	5650.69
671.9	5380.36
672.091	5708.03
672.282	5470.47
672.473	5421.31
672.664	5558.53
672.855	5400.83
673.046	5536
673.237	5523.71
673.428	5466.37
673.619	5437.7
673.809	5339.4
674	5495.04
674.191	5370.12
674.382	5368.07
674.573	5353.73
674.764	5427.46
674.954	5396.74
675.145	5404.93
675.336	5353.73
675.527	5624.06
675.717	5370.12
675.908	5384.45
676.099	5460.23
676.289	5515.52
676.48	5368.07
676.671	5409.03
676.861	5431.55
677.052	5439.75
677.243	5390.6
677.433	5359.88
677.624	5366.02
677.814	5435.65
678.005	5583.1
678.195	5472.51
678.386	5310.72
678.576	5423.36
678.767	5454.08
678.957	5372.16
679.148	5560.58
679.338	5585.15
679.529	5552.38
679.719	5554.43
679.909	5568.77
680.1	5617.92
680.29	5593.34
680.481	5517.57
680.671	5525.76
680.861	5452.03
681.052	5484.8
681.242	5566.72
681.432	5798.14
681.622	5501.19
681.813	5536
682.003	5484.8
682.193	5736.7
682.383	5497.09
682.573	5642.5
682.764	5605.63
682.954	5796.09
683.144	5867.77
683.334	5642.5
683.524	5685.5
683.714	5769.47
683.904	5634.3
684.094	5562.62
684.284	5695.74
684.474	5667.07
684.664	5505.28
684.854	5605.63
685.044	5765.37
685.234	5564.67
685.424	5699.84
685.614	5716.22
685.804	5507.33
685.994	5724.41
686.184	5650.69
686.374	5568.77
686.564	5605.63
686.753	5556.48
686.943	5392.64
687.133	5501.19
687.323	5468.42
687.513	5642.5
687.702	5333.25
687.892	5386.5
688.082	5339.4
688.272	5501.19
688.461	5282.05
688.651	5269.76
688.841	5388.55
689.03	5329.16
689.22	5085.45
689.41	5142.79
689.599	5091.59
689.789	5175.56
689.979	5124.36
690.168	5239.05
690.358	5085.45
690.547	5087.5
690.737	5046.54
690.926	4997.39
691.116	4983.05
691.305	5044.49
691.495	4782.35
691.684	4833.55
691.874	4825.36
692.063	4802.83
692.252	4866.32
692.442	4860.17
692.631	4610.32
692.82	4776.2
693.01	4682
693.199	4569.36
693.388	4391.19
693.578	4712.72
693.767	4622.61
693.956	4505.87
694.146	4493.58
694.335	4505.87
694.524	4538.64
694.713	4540.69
694.902	4458.77
695.092	4503.82
695.281	4485.39
695.47	4348.18
695.659	4296.98
695.848	4450.58
696.037	4409.62
696.226	4325.65
696.415	4327.7
696.604	4307.22
696.793	4262.16
696.982	4247.83
697.171	4264.21
697.36	4327.7
697.549	4225.3
697.738	4264.21
697.927	4235.54
698.116	4200.73
698.305	4280.6
698.494	4159.77
698.683	4294.93
698.872	4249.88
699.061	4221.2
699.25	4243.73
699.438	4374.8
699.627	4309.27
699.816	4165.91
700.005	4149.53
700.193	4106.52
700.382	4237.59
700.571	4161.81
700.76	4118.81
700.948	4213.01
701.137	4266.26
701.326	4155.67
701.514	4102.42
701.703	4274.45
701.892	4083.99
702.08	4280.6
702.269	4288.79
702.457	4065.56
702.646	4174.1
702.834	4143.38
703.023	4200.73
703.212	3997.98
703.4	4139.29
703.589	4067.61
703.777	4206.87
703.965	4006.17
704.154	4241.68
704.342	4213.01
704.531	4151.57
704.719	4100.37
704.907	4237.59
705.096	4102.42
705.284	4165.91
705.472	4202.77
705.661	4092.18
705.849	4253.97
706.037	4296.98
706.226	4202.77
706.414	4188.44
706.602	4243.73
706.79	4233.49
706.979	4120.85
707.167	4204.82
707.355	4096.28
707.543	4221.2
707.731	4337.94
707.919	4147.48
708.107	4313.36
708.296	4305.17
708.484	4186.39
708.672	4430.1
708.86	4417.81
709.048	4389.14
709.236	4368.66
709.424	4585.74
709.612	4360.47
709.8	4401.43
709.988	4290.84
710.176	4606.22
710.364	4555.02
710.551	4454.67
710.739	4501.78
710.927	4497.68
711.115	4436.24
711.303	4290.84
711.491	4561.17
711.679	4450.58
711.866	4397.33
712.054	4591.89
712.242	4411.67
712.43	4694.29
712.617	4550.93
712.805	4452.63
712.993	4569.36
713.181	4606.22
713.368	4626.7
713.556	4796.68
713.744	4626.7
713.931	4892.94
714.119	4616.46
714.306	4761.87
714.494	4686.09
714.682	4722.96
714.869	4710.67
715.057	4929.8
715.244	4739.34
715.432	4858.12
715.619	4874.51
715.807	4882.7
715.994	4913.42
716.182	4663.57
716.369	4958.47
716.556	4960.52
716.744	4950.28
716.931	4815.12
717.119	5044.49
717.306	5050.63
717.493	5144.84
717.681	5019.91
717.868	4940.04
718.055	4843.79
718.242	5030.15
718.43	4968.71
718.617	5275.91
718.804	5085.45
718.991	4989.19
719.179	5187.85
719.366	5175.56
719.553	5249.29
719.74	5187.85
719.927	5153.03
720.114	5116.17
720.301	5372.16
720.488	5327.11
720.676	5314.82
720.863	5220.61
721.05	5288.2
721.237	5427.46
721.424	5320.96
721.611	5230.85
721.798	5501.19
721.985	5312.77
722.172	5208.33
722.358	5384.45
722.545	5437.7
722.732	5447.94
722.919	5437.7
723.106	5441.79
723.293	5353.73
723.48	5445.89
723.667	5411.07
723.853	5515.52
724.04	5654.78
724.227	5435.65
724.414	5499.14
724.6	5515.52
724.787	5673.21
724.974	5675.26
725.161	5716.22
725.347	5458.18
725.534	5560.58
725.72	5519.62
725.907	5734.65
726.094	5933.31
726.28	5710.08
726.467	5662.97
726.653	5779.71
726.84	5765.37
727.027	5832.96
727.213	5601.54
727.4	5794.04
727.586	5757.18
727.773	5961.98
727.959	5755.13
728.145	5880.06
728.332	5837.05
728.518	5806.33
728.705	6027.51
728.891	5929.21
729.077	5916.92
729.264	5871.87
729.45	5845.24
729.636	6025.47
729.823	5900.54
730.009	5978.36
730.195	6195.45
730.382	6082.81
730.568	6060.28
730.754	6043.9
730.94	6082.81
731.126	6222.07
731.313	5978.36
731.499	6086.9
731.685	6162.68
731.871	6113.53
732.057	6084.86
732.243	6191.35
732.429	6217.97
732.615	6205.69
732.801	6183.16
732.987	6023.42
733.173	6183.16
733.359	6318.32
733.545	6211.83
733.731	6072.57
733.917	6246.65
734.103	6340.85
734.289	6195.45
734.475	6148.34
734.661	6371.57
734.847	6125.82
735.033	6338.8
735.219	6347
735.404	6191.35
735.59	6375.67
735.776	6109.43
735.962	6279.41
736.148	6303.99
736.333	6306.04
736.519	6318.32
736.705	6224.12
736.89	6326.52
737.076	6371.57
737.262	6115.58
737.447	6109.43
737.633	6148.34
737.819	6195.45
738.004	6123.77
738.19	6250.74
738.375	6043.9
738.561	6189.3
738.747	5957.88
738.932	6091
739.118	6058.23
739.303	6093.05
739.489	6121.72
739.674	5990.65
739.859	6191.35
740.045	6138.1
740.23	6154.49
740.416	6027.51
740.601	6060.28
740.786	6117.62
740.972	6041.85
741.157	6256.89
741.342	5976.31
741.528	6064.38
741.713	6052.09
741.898	5978.36
742.084	6002.94
742.269	5949.69
742.454	6039.8
742.639	6025.47
742.824	6015.23
743.01	5912.83
743.195	5949.69
743.38	5863.68
743.565	5763.33
743.75	5724.41
743.935	5695.74
744.12	5771.52
744.305	5716.22
744.49	5699.84
744.675	5681.41
744.86	5484.8
745.045	5703.93
745.23	5720.32
745.415	5665.02
745.6	5667.07
745.785	5423.36
745.97	5540.1
746.155	5525.76
746.34	5337.35
746.525	5409.03
746.71	5237
746.895	5380.36
747.079	5425.41
747.264	5263.62
747.449	5273.86
747.634	5312.77
747.819	5300.48
748.003	5159.17
748.188	5189.89
748.373	5206.28
748.557	5298.44
748.742	5069.06
748.927	5126.41
749.111	4927.75
749.296	4835.6
749.481	4983.05
749.665	4962.57
749.85	4806.92
750.034	4843.79
750.219	4716.81
750.404	4673.81
750.588	4720.91
750.773	4690.19
750.957	4798.73
751.141	4778.25
751.326	4634.89
751.51	4569.36
751.695	4469.01
751.879	4567.31
752.064	4583.7
752.248	4485.39
752.432	4507.92
752.617	4563.22
752.801	4446.48
752.985	4382.99
753.17	4307.22
753.354	4417.81
753.538	4229.4
753.722	4325.65
753.907	4188.44
754.091	4153.62
754.275	4143.38
754.459	4086.04
754.643	4161.81
754.828	3971.35
755.012	4036.89
755.196	4040.98
755.38	3942.68
755.564	3989.78
755.748	3846.43
755.932	3942.68
756.116	3836.19
756.3	3739.93
756.484	3827.99
756.668	3750.17
756.852	3789.08
757.036	3707.16
757.22	3635.49
757.404	3733.79
757.588	3608.86
757.772	3791.13
757.956	3598.62
758.14	3551.52
758.323	3471.65
758.507	3393.83
758.691	3402.02
758.875	3500.32
759.059	3408.16
759.242	3494.18
759.426	3406.11
759.61	3275.04
759.794	3377.44
759.977	3402.02
760.161	3387.68
760.345	3338.53
760.528	3291.43
760.712	3252.52
760.895	3150.12
761.079	3166.5
761.263	3264.8
761.446	3055.91
761.63	3115.3
761.813	3162.41
761.997	2930.98
762.18	3027.24
762.364	3078.44
762.547	3000.62
762.731	3078.44
762.914	3019.05
763.098	2971.94
763.281	2881.83
763.464	2951.46
763.648	2959.66
763.831	3008.81
764.015	2810.15
764.198	2828.59
764.381	2789.67
764.564	2838.83
764.748	2797.87
764.931	2937.13
765.114	2873.64
765.297	2828.59
765.481	2767.15
765.664	2718
765.847	2761
766.03	2765.1
766.213	2730.28
766.397	2627.89
766.58	2623.79
766.763	2750.76
766.946	2660.65
767.129	2537.77
767.312	2681.13
767.495	2640.17
767.678	2619.69
767.861	2668.84
768.044	2558.25
768.227	2599.21
768.41	2517.29
768.593	2488.62
768.776	2447.66
768.959	2498.86
769.142	2484.53
769.324	2437.42
769.507	2494.77
769.69	2431.28
769.873	2439.47
770.056	2441.52
770.239	2378.03
770.421	2345.27
770.604	2375.99
770.787	2359.6
770.97	2341.17
771.152	2255.15
771.335	2425.14
771.518	2232.63
771.7	2298.16
771.883	2277.68
772.066	2257.2
772.248	2148.66
772.431	2234.68
772.613	2263.35
772.796	2277.68
772.978	2226.48
773.161	2232.63
773.343	2199.86
773.526	2119.99
773.708	2095.41
773.891	2021.69
774.073	2038.07
774.256	2091.32
774.438	2206
774.621	1937.72
774.803	2124.08
774.985	2036.02
775.168	2033.97
775.35	1935.67
775.532	2038.07
775.715	1872.18
775.897	2009.4
776.079	1882.42
776.261	1839.42
776.444	1937.72
776.626	1874.23
776.808	1907
776.99	1788.22
777.173	1874.23
777.355	1849.66
777.537	1796.41
777.719	1907
777.901	1755.45
778.083	1620.28
778.265	1741.11
778.447	1700.16
778.629	1640.76
778.811	1685.82
778.993	1593.66
779.175	1528.13
779.357	1667.39
779.539	1489.21
779.721	1503.55
779.903	1628.48
780.085	1612.09
780.267	1595.71
780.449	1562.94
780.631	1519.93
780.812	1564.99
780.994	1585.47
781.176	1550.65
781.358	1489.21
781.54	1470.78
781.721	1524.03
781.903	1440.06
782.085	1399.1
782.267	1509.69
782.448	1417.54
782.63	1407.3
782.812	1323.33
782.993	1364.29
783.175	1341.76
783.357	1333.57
783.538	1343.81
783.72	1202.5
783.901	1354.05
784.083	1171.78
784.264	1163.59
784.446	1265.99
784.627	1218.88
784.809	1300.8
784.99	1194.31
785.172	1243.46
785.353	1186.12
785.535	1268.03
785.716	1145.16
785.897	1151.3
786.079	1194.31
786.26	1145.16
786.441	1153.35
786.623	1087.81
786.804	1132.87
786.985	1087.81
787.167	1177.92
787.348	1149.25
787.529	1167.68
787.71	1161.54
787.891	1053
788.073	1020.23
788.254	1085.76
788.435	1096
788.616	1124.68
788.797	1055.05
788.978	1055.05
789.159	1012.04
789.34	999.75
789.522	1014.09
789.703	1001.8
789.884	989.51
790.065	981.32
790.246	1085.76
790.427	987.46
790.607	1018.18
790.788	915.78
790.969	913.74
791.15	932.17
791.331	1005.89
791.512	960.84
791.693	889.16
791.874	952.65
792.054	930.12
792.235	776.52
792.416	803.15
792.597	911.69
792.778	831.82
792.958	837.96
793.139	833.86
793.32	848.2
793.5	854.34
793.681	833.86
793.862	821.58
794.042	897.35
794.223	874.82
794.404	792.91
794.584	758.09
794.765	856.39
794.945	694.6
795.126	790.86
795.306	883.02
795.487	780.62
795.667	741.71
795.848	692.55
796.028	762.19
796.209	807.24
796.389	790.86
796.57	702.79
796.75	692.55
796.93	678.22
797.111	627.02
797.291	710.99
797.471	670.03
797.652	784.71
797.832	725.32
798.012	735.56
798.192	670.03
798.373	694.6
798.553	665.93
798.733	596.3
798.913	659.79
799.093	639.31
799.274	749.9
799.454	657.74
799.634	657.74
799.814	598.35
799.994	678.22
800.174	608.59
800.354	663.88
800.534	559.44
800.714	602.44
800.894	620.88
801.074	549.2
801.254	616.78
801.434	674.12
801.614	567.63
801.794	629.07
801.974	1296.71
802.154	612.68
802.334	635.21
802.514	524.62
802.693	633.16
802.873	508.24
803.053	545.1
803.233	538.96
803.413	604.49
803.592	579.92
803.772	528.72
803.952	555.34
804.131	514.38
804.311	629.07
804.491	610.64
804.67	590.16
804.85	565.58
805.03	571.72
805.209	620.88
805.389	504.14
805.568	481.61
805.748	471.37
805.928	598.35
806.107	559.44
806.287	553.29
806.466	502.09
806.646	475.47
806.825	551.24
807.004	452.94
807.184	543.05
807.363	541.01
807.543	514.38
807.722	469.33
807.901	596.3
808.081	510.29
808.26	397.65
808.439	489.81
808.619	504.14
808.798	475.47
808.977	414.03
809.156	473.42
809.336	432.46
809.515	475.47
809.694	416.08
809.873	448.85
810.052	549.2
810.231	481.61
810.411	479.57
810.59	463.18
810.769	440.65
810.948	401.74
811.127	358.74
811.306	409.94
811.485	395.6
811.664	422.22
811.843	444.75
812.022	471.37
812.201	495.95
812.38	471.37
812.559	356.69
812.737	475.47
812.916	420.17
813.095	440.65
813.274	368.98
813.453	491.85
813.632	444.75
813.811	424.27
813.989	377.17
814.168	450.89
814.347	411.98
814.526	391.5
814.704	422.22
814.883	391.5
815.062	340.3
815.24	395.6
815.419	330.06
815.598	403.79
815.776	358.74
815.955	416.08
816.133	325.97
816.312	321.87
816.49	381.26
816.669	371.02
816.847	315.73
817.026	244.05
817.204	366.93
817.383	297.3
817.561	354.64
817.74	358.74
817.918	379.22
818.097	352.59
818.275	391.5
818.453	352.59
818.632	358.74
818.81	289.1
818.988	342.35
819.167	338.26
819.345	338.26
819.523	352.59
819.701	336.21
819.879	420.17
820.058	328.02
820.236	375.12
820.414	350.54
820.592	268.63
820.77	256.34
820.948	299.34
821.127	338.26
821.305	307.54
821.483	282.96
821.661	409.94
821.839	270.67
822.017	250.19
822.195	248.15
822.373	338.26
822.551	395.6
822.729	350.54
822.907	268.63
823.085	358.74
823.262	291.15
823.44	285.01
823.618	309.58
823.796	256.34
823.974	260.43
824.152	278.87
824.329	303.44
824.507	223.57
824.685	330.06
824.863	266.58
825.04	270.67
825.218	338.26
825.396	213.33
825.574	217.43
825.751	260.43
825.929	360.78
826.107	160.08
826.284	231.76
826.462	268.63
826.639	227.67
826.817	194.9
826.994	311.63
827.172	239.95
827.349	350.54
827.527	276.82
827.704	256.34
827.882	311.63
828.059	227.67
828.237	297.3
828.414	293.2
828.591	178.51
828.769	239.95
828.946	244.05
829.124	266.58
829.301	280.91
829.478	205.14
829.655	301.39
829.833	203.09
830.01	160.08
830.187	250.19
830.364	203.09
830.542	317.78
830.719	321.87
830.896	237.91
831.073	166.23
831.25	153.94
831.427	192.85
831.604	203.09
831.782	205.14
831.959	225.62
832.136	235.86
832.313	260.43
832.49	176.47
832.667	186.71
832.844	162.13
833.021	162.13
833.198	194.9
833.374	178.51
833.551	178.51
833.728	192.85
833.905	190.8
834.082	221.52
834.259	223.57
834.436	190.8
834.612	145.75
834.789	158.03
834.966	174.42
835.143	170.32
835.319	201.04
835.496	203.09
835.673	211.28
835.85	168.27
836.026	201.04
836.203	239.95
836.38	194.9
836.556	184.66
836.733	158.03
836.909	188.75
837.086	178.51
837.262	174.42
837.439	131.41
837.616	135.51
837.792	155.99
837.968	133.46
838.145	153.94
838.321	112.98
838.498	198.99
838.674	201.04
838.851	153.94
839.027	170.32
839.203	174.42
839.38	127.32
839.556	80.21
839.732	254.29
839.909	139.6
840.085	182.61
840.261	88.4
840.437	246.1
840.614	119.12
840.79	145.75
840.966	155.99
841.142	153.94
841.318	205.14
841.494	133.46
841.671	151.89
841.847	151.89
842.023	149.84
842.199	178.51
842.375	153.94
842.551	69.97
842.727	135.51
842.903	229.71
843.079	102.74
843.255	135.51
843.431	121.17
843.607	129.36
843.783	96.6
843.959	80.21
844.134	121.17
844.31	153.94
844.486	151.89
844.662	88.4
844.838	102.74
845.013	135.51
845.189	217.43
845.365	137.56
845.541	207.19
845.716	180.56
845.892	147.8
846.068	149.84
846.244	139.6
846.419	164.18
846.595	94.55
846.77	125.27
846.946	139.6
847.122	147.8
847.297	72.02
847.473	190.8
847.648	94.55
847.824	127.32
847.999	37.2
848.175	96.6
848.35	137.56
848.526	153.94
848.701	149.84
848.876	98.64
849.052	158.03
849.227	39.25
849.403	168.27
849.578	137.56
849.753	72.02
849.929	170.32
850.104	-13.99
850.279	164.18
850.454	63.83
850.63	129.36
850.805	12.63
850.98	98.64
851.155	108.88
851.33	153.94
851.505	10.58
851.681	127.32
851.856	110.93
852.031	184.66
852.206	88.4
852.381	115.03
852.556	37.2
852.731	145.75
852.906	104.79
853.081	129.36
853.256	127.32
853.431	14.68
853.606	80.21
853.781	104.79
853.956	100.69
854.131	86.36
854.305	12.63
854.48	96.6
854.655	67.92
854.83	45.4
855.005	112.98
855.18	104.79
855.354	47.44
855.529	100.69
855.704	76.12
855.879	76.12
856.053	88.4
856.228	61.78
856.403	35.16
856.577	129.36
856.752	2.39
856.926	78.16
857.101	37.2
857.276	31.06
857.45	84.31
857.625	72.02
857.799	112.98
857.974	47.44
858.148	-5.8
858.323	47.44
858.497	94.55
858.672	57.68
858.846	51.54
859.02	88.4
859.195	127.32
859.369	67.92
859.543	37.2
859.718	-20.14
859.892	20.82
860.066	117.08
860.241	45.4
860.415	22.87
860.589	18.77
860.763	55.64
860.938	108.88
861.112	92.5
861.286	74.07
861.46	47.44
861.634	43.35
861.808	39.25
861.982	47.44
862.157	69.97
862.331	-46.76
862.505	14.68
862.679	10.58
862.853	76.12
863.027	4.44
863.201	88.4
863.375	33.11
863.549	84.31
863.722	45.4
863.896	82.26
864.07	49.49
864.244	63.83
864.418	86.36
864.592	76.12
864.766	4.44
864.939	72.02
865.113	121.17
865.287	125.27
865.461	33.11
865.634	55.64
865.808	49.49
865.982	35.16
866.156	112.98
866.329	-95.91
866.503	117.08
866.676	69.97
866.85	22.87
867.024	22.87
867.197	90.45
867.371	125.27
867.544	37.2
867.718	53.59
867.891	43.35
868.065	-83.63
868.238	4.44
868.412	96.6
868.585	26.96
868.759	141.65
868.932	51.54
869.105	22.87
869.279	61.78
869.452	43.35
869.625	47.44
869.799	69.97
869.972	-61.1
870.145	26.96
870.319	129.36
870.492	72.02
870.665	55.64
870.838	31.06
871.011	39.25
871.185	51.54
871.358	59.73
871.531	22.87
871.704	29.01
871.877	47.44
872.05	37.2
872.223	-5.8
872.396	94.55
872.569	47.44
872.742	22.87
872.915	53.59
873.088	72.02
873.261	-9.9
873.434	74.07
873.607	37.2
873.78	16.73
873.953	-20.14
874.126	16.73
874.299	88.4
874.471	45.4
874.644	-5.8
874.817	51.54
874.99	65.88
875.163	67.92
875.335	61.78
875.508	18.77
875.681	74.07
875.853	-24.23
876.026	-22.19
876.199	14.68
876.371	14.68
876.544	-61.1
876.717	92.5
876.889	18.77
877.062	-20.14
877.234	59.73
877.407	26.96
877.579	151.89
877.752	31.06
877.924	108.88
878.097	37.2
878.269	29.01
878.442	14.68
878.614	-34.47
878.786	29.01
878.959	-59.05
879.131	24.92
879.303	12.63
879.476	37.2
879.648	0.34
879.82	8.53
879.993	108.88
880.165	55.64
880.337	-73.39
880.509	-1.71
880.681	-1.71
880.854	41.3
881.026	84.31
881.198	121.17
881.37	51.54
881.542	22.87
881.714	121.17
881.886	76.12
882.058	12.63
882.23	39.25
882.402	53.59
882.574	78.16
882.746	12.63
882.918	121.17
883.09	-9.9
883.262	-36.52
883.434	39.25
883.606	6.49
883.778	8.53
883.95	22.87
884.122	-18.09
884.293	4.44
884.465	-42.67
884.637	72.02
884.809	16.73
884.98	-20.14
885.152	47.44
885.324	-36.52
885.496	-1.71
885.667	-50.86
885.839	29.01
886.011	-11.95
886.182	26.96
886.354	96.6
886.525	63.83
886.697	53.59
886.869	6.49
887.04	35.16
887.212	35.16
887.383	55.64
887.555	100.69
887.726	-59.05
887.897	-13.99
888.069	24.92
888.24	37.2
888.412	2.39
888.583	24.92
888.754	31.06
888.926	-28.33
889.097	43.35
889.268	-11.95
889.44	37.2
889.611	10.58
889.782	-36.52
889.953	-9.9
890.125	47.44
890.296	14.68
890.467	74.07
890.638	-1.71
890.809	-42.67
890.98	8.53
891.151	72.02
891.323	121.17
891.494	6.49
891.665	47.44
891.836	55.64
892.007	45.4
892.178	-9.9
892.349	31.06
892.52	-24.23
892.691	86.36
892.862	31.06
893.032	-11.95
893.203	61.78
893.374	-16.04
893.545	39.25
893.716	-52.91
893.887	69.97
894.057	2.39
894.228	78.16
894.399	-28.33
894.57	57.68
894.74	47.44
894.911	108.88
895.082	-20.14
895.253	6.49
895.423	-50.86
895.594	94.55
895.764	37.2
895.935	26.96
896.106	92.5
896.276	-20.14
896.447	31.06
896.617	-52.91
896.788	-28.33
896.958	-65.19
897.129	-11.95
897.299	-67.24
897.47	29.01
897.64	-3.75
897.81	31.06
897.981	92.5
898.151	-13.99
898.322	22.87
898.492	12.63
898.662	-24.23
898.832	-46.76
899.003	-9.9
899.173	35.16
899.343	-52.91
899.513	4.44
