Data from USB4F104151__43__11-30-24-862.txt Node

Date: Fri Mar 14 11:30:24 EDT 2025
User: louis
Spectrometer: USB4F10415
Trigger mode: 4
Integration Time (sec): 5.000000E-2
Scans to average: 1
Electric dark correction enabled: true
Nonlinearity correction enabled: false
Boxcar width: 0
XAxis mode: Wavelengths
Number of Pixels in Spectrum: 3648
>>>>>Begin Spectral Data<<<<<
178.204	-83.28
178.424	-83.28
178.644	-83.28
178.864	-140.63
179.084	-197.97
179.304	21.16
179.524	-68.95
179.744	-38.23
179.964	21.16
180.184	19.11
180.404	29.35
180.624	-17.75
180.844	-36.18
181.064	47.79
181.283	-9.56
181.503	15.02
181.723	17.07
181.943	-7.51
182.163	101.03
182.383	23.21
182.602	80.55
182.822	76.46
183.042	15.02
183.262	53.93
183.482	92.84
183.701	39.59
183.921	23.21
184.141	-3.41
184.361	43.69
184.58	39.59
184.8	23.21
185.02	0.68
185.239	92.84
185.459	4.78
185.679	80.55
185.898	-13.65
186.118	43.69
186.338	72.36
186.557	105.13
186.777	12.97
186.997	12.97
187.216	4.78
187.436	105.13
187.655	10.92
187.875	58.03
188.095	70.31
188.314	43.69
188.534	84.65
188.753	23.21
188.973	80.55
189.192	115.37
189.412	131.75
189.631	86.7
189.851	53.93
190.07	70.31
190.29	-44.37
190.509	23.21
190.729	29.35
190.948	47.79
191.168	262.82
191.387	121.51
191.607	39.59
191.826	41.64
192.045	2.73
192.265	12.97
192.484	31.4
192.704	25.26
192.923	29.35
193.142	174.76
193.362	19.11
193.581	15.02
193.8	47.79
194.02	-15.7
194.239	-50.52
194.458	60.07
194.678	58.03
194.897	109.22
195.116	-3.41
195.335	80.55
195.555	31.4
195.774	19.11
195.993	94.89
196.212	21.16
196.432	-23.89
196.651	15.02
196.87	2.73
197.089	51.88
197.308	86.7
197.528	109.22
197.747	39.59
197.966	60.07
198.185	105.13
198.404	41.64
198.623	185
198.842	35.5
199.062	101.03
199.281	33.45
199.5	-17.75
199.719	17.07
199.938	68.27
200.157	76.46
200.376	105.13
200.595	62.12
200.814	47.79
201.033	27.31
201.252	88.75
201.471	129.7
201.69	12.97
201.909	92.84
202.128	117.42
202.347	55.98
202.566	35.5
202.785	47.79
203.004	12.97
203.223	123.56
203.442	23.21
203.661	31.4
203.879	80.55
204.098	64.17
204.317	-25.94
204.536	141.99
204.755	23.21
204.974	74.41
205.193	39.59
205.411	150.18
205.63	41.64
205.849	101.03
206.068	66.22
206.287	31.4
206.505	45.74
206.724	23.21
206.943	-9.56
207.162	55.98
207.381	49.83
207.599	6.83
207.818	72.36
208.037	-54.61
208.255	33.45
208.474	41.64
208.693	58.03
208.911	150.18
209.13	17.07
209.349	125.61
209.567	27.31
209.786	12.97
210.005	76.46
210.223	-3.41
210.442	-52.56
210.661	94.89
210.879	76.46
211.098	53.93
211.316	31.4
211.535	109.22
211.753	37.55
211.972	58.03
212.191	-21.85
212.409	109.22
212.628	-58.71
212.846	23.21
213.065	80.55
213.283	111.27
213.502	39.59
213.72	88.75
213.938	-21.85
214.157	-15.7
214.375	12.97
214.594	0.68
214.812	49.83
215.031	15.02
215.249	43.69
215.467	-13.65
215.686	12.97
215.904	80.55
216.122	-5.46
216.341	117.42
216.559	19.11
216.778	144.04
216.996	-25.94
217.214	74.41
217.432	62.12
217.651	10.92
217.869	29.35
218.087	31.4
218.306	74.41
218.524	6.83
218.742	19.11
218.96	86.7
219.179	80.55
219.397	6.83
219.615	84.65
219.833	29.35
220.051	0.68
220.27	68.27
220.488	92.84
220.706	27.31
220.924	72.36
221.142	2.73
221.36	51.88
221.578	123.56
221.796	-3.41
222.015	-9.56
222.233	10.92
222.451	49.83
222.669	-19.8
222.887	96.94
223.105	-23.89
223.323	6.83
223.541	-27.99
223.759	23.21
223.977	72.36
224.195	84.65
224.413	111.27
224.631	-1.37
224.849	64.17
225.067	109.22
225.285	-44.37
225.503	23.21
225.721	-3.41
225.939	72.36
226.157	60.07
226.375	123.56
226.592	-19.8
226.81	31.4
227.028	72.36
227.246	51.88
227.464	64.17
227.682	101.03
227.9	47.79
228.117	66.22
228.335	88.75
228.553	144.04
228.771	6.83
228.989	76.46
229.206	53.93
229.424	51.88
229.642	-21.85
229.86	6.83
230.077	45.74
230.295	15.02
230.513	103.08
230.731	10.92
230.948	129.7
231.166	76.46
231.384	53.93
231.601	82.6
231.819	98.99
232.037	35.5
232.254	6.83
232.472	15.02
232.689	-19.8
232.907	55.98
233.125	111.27
233.342	0.68
233.56	39.59
233.777	6.83
233.995	43.69
234.213	64.17
234.43	27.31
234.648	62.12
234.865	70.31
235.083	27.31
235.3	-21.85
235.518	76.46
235.735	23.21
235.953	29.35
236.17	68.27
236.388	55.98
236.605	125.61
236.822	80.55
237.04	119.46
237.257	55.98
237.475	-50.52
237.692	55.98
237.909	55.98
238.127	39.59
238.344	109.22
238.562	62.12
238.779	-15.7
238.996	33.45
239.214	101.03
239.431	41.64
239.648	121.51
239.865	25.26
240.083	45.74
240.3	-42.32
240.517	41.64
240.735	96.94
240.952	101.03
241.169	62.12
241.386	6.83
241.603	41.64
241.821	-5.46
242.038	55.98
242.255	43.69
242.472	23.21
242.689	76.46
242.907	117.42
243.124	-1.37
243.341	45.74
243.558	-21.85
243.775	43.69
243.992	-34.13
244.209	35.5
244.426	144.04
244.643	6.83
244.86	-19.8
245.078	33.45
245.295	27.31
245.512	45.74
245.729	29.35
245.946	49.83
246.163	88.75
246.38	-9.56
246.597	0.68
246.814	45.74
247.031	72.36
247.248	6.83
247.464	-38.23
247.681	29.35
247.898	29.35
248.115	47.79
248.332	31.4
248.549	101.03
248.766	105.13
248.983	80.55
249.2	-13.65
249.417	74.41
249.633	51.88
249.85	43.69
250.067	-5.46
250.284	51.88
250.501	47.79
250.717	68.27
250.934	-13.65
251.151	127.66
251.368	37.55
251.585	25.26
251.801	17.07
252.018	94.89
252.235	150.18
252.451	23.21
252.668	58.03
252.885	123.56
253.102	94.89
253.318	21.16
253.535	31.4
253.752	-38.23
253.968	76.46
254.185	-5.46
254.401	15.02
254.618	31.4
254.835	19.11
255.051	41.64
255.268	31.4
255.484	15.02
255.701	101.03
255.917	0.68
256.134	-3.41
256.351	-15.7
256.567	47.79
256.784	15.02
257	4.78
257.217	78.51
257.433	144.04
257.65	10.92
257.866	70.31
258.082	23.21
258.299	55.98
258.515	152.23
258.732	-19.8
258.948	58.03
259.165	80.55
259.381	-1.37
259.597	12.97
259.814	80.55
260.03	66.22
260.246	70.31
260.463	92.84
260.679	62.12
260.895	17.07
261.112	88.75
261.328	-3.41
261.544	21.16
261.761	152.23
261.977	21.16
262.193	12.97
262.409	39.59
262.626	8.87
262.842	68.27
263.058	12.97
263.274	119.46
263.49	23.21
263.707	29.35
263.923	27.31
264.139	19.11
264.355	55.98
264.571	109.22
264.787	-11.61
265.004	103.08
265.22	39.59
265.436	27.31
265.652	33.45
265.868	2.73
266.084	35.5
266.3	-25.94
266.516	-19.8
266.732	55.98
266.948	19.11
267.164	88.75
267.38	72.36
267.596	64.17
267.812	119.46
268.028	109.22
268.244	-11.61
268.46	-21.85
268.676	45.74
268.892	80.55
269.108	47.79
269.324	-15.7
269.54	-75.09
269.756	25.26
269.972	0.68
270.188	-19.8
270.403	27.31
270.619	58.03
270.835	-17.75
271.051	-23.89
271.267	33.45
271.483	-1.37
271.698	51.88
271.914	21.16
272.13	55.98
272.346	45.74
272.562	39.59
272.777	43.69
272.993	39.59
273.209	84.65
273.425	86.7
273.64	2.73
273.856	137.9
274.072	45.74
274.287	29.35
274.503	43.69
274.719	121.51
274.934	4.78
275.15	-19.8
275.366	19.11
275.581	47.79
275.797	23.21
276.012	-25.94
276.228	-1.37
276.444	37.55
276.659	148.14
276.875	117.42
277.09	62.12
277.306	80.55
277.521	76.46
277.737	51.88
277.952	72.36
278.168	23.21
278.383	103.08
278.599	39.59
278.814	47.79
279.03	92.84
279.245	88.75
279.461	88.75
279.676	72.36
279.892	35.5
280.107	31.4
280.322	-17.75
280.538	43.69
280.753	19.11
280.969	72.36
281.184	6.83
281.399	117.42
281.615	39.59
281.83	86.7
282.045	0.68
282.26	64.17
282.476	31.4
282.691	68.27
282.906	103.08
283.122	4.78
283.337	-32.08
283.552	23.21
283.767	-9.56
283.983	64.17
284.198	23.21
284.413	39.59
284.628	55.98
284.843	88.75
285.058	96.94
285.274	58.03
285.489	27.31
285.704	109.22
285.919	-21.85
286.134	49.83
286.349	55.98
286.564	2.73
286.779	115.37
286.995	47.79
287.21	92.84
287.425	78.51
287.64	-1.37
287.855	105.13
288.07	-19.8
288.285	23.21
288.5	78.51
288.715	35.5
288.93	35.5
289.145	31.4
289.36	31.4
289.575	55.98
289.79	8.87
290.004	12.97
290.219	123.56
290.434	47.79
290.649	29.35
290.864	47.79
291.079	53.93
291.294	39.59
291.509	72.36
291.724	80.55
291.938	31.4
292.153	35.5
292.368	84.65
292.583	33.45
292.798	92.84
293.012	64.17
293.227	29.35
293.442	60.07
293.657	37.55
293.871	96.94
294.086	141.99
294.301	98.99
294.516	60.07
294.73	2.73
294.945	49.83
295.16	72.36
295.374	27.31
295.589	127.66
295.804	82.6
296.018	21.16
296.233	43.69
296.447	68.27
296.662	21.16
296.877	29.35
297.091	47.79
297.306	-15.7
297.52	29.35
297.735	25.26
297.949	72.36
298.164	21.16
298.378	31.4
298.593	-38.23
298.807	-36.18
299.022	96.94
299.236	113.32
299.451	39.59
299.665	35.5
299.88	68.27
300.094	80.55
300.309	60.07
300.523	55.98
300.737	-23.89
300.952	103.08
301.166	27.31
301.381	53.93
301.595	21.16
301.809	94.89
302.024	4.78
302.238	33.45
302.452	60.07
302.667	17.07
302.881	76.46
303.095	76.46
303.309	80.55
303.524	80.55
303.738	86.7
303.952	21.16
304.166	-48.47
304.381	33.45
304.595	162.47
304.809	70.31
305.023	4.78
305.237	55.98
305.452	96.94
305.666	-1.37
305.88	8.87
306.094	55.98
306.308	70.31
306.522	51.88
306.736	23.21
306.95	84.65
307.164	64.17
307.379	-13.65
307.593	107.18
307.807	62.12
308.021	66.22
308.235	88.75
308.449	-9.56
308.663	60.07
308.877	123.56
309.091	80.55
309.305	6.83
309.519	98.99
309.733	47.79
309.947	-48.47
310.161	125.61
310.374	51.88
310.588	101.03
310.802	0.68
311.016	-13.65
311.23	86.7
311.444	-1.37
311.658	88.75
311.872	23.21
312.085	113.32
312.299	129.7
312.513	80.55
312.727	-1.37
312.941	80.55
313.154	51.88
313.368	55.98
313.582	21.16
313.796	68.27
314.009	74.41
314.223	-11.61
314.437	15.02
314.651	68.27
314.864	51.88
315.078	4.78
315.292	60.07
315.505	31.4
315.719	47.79
315.933	55.98
316.146	-17.75
316.36	58.03
316.573	92.84
316.787	58.03
317.001	84.65
317.214	-9.56
317.428	4.78
317.641	68.27
317.855	51.88
318.068	64.17
318.282	141.99
318.495	98.99
318.709	-27.99
318.922	-3.41
319.136	133.8
319.349	96.94
319.563	-19.8
319.776	51.88
319.99	6.83
320.203	29.35
320.417	41.64
320.63	19.11
320.843	129.7
321.057	74.41
321.27	39.59
321.483	21.16
321.697	64.17
321.91	55.98
322.124	19.11
322.337	70.31
322.55	55.98
322.763	53.93
322.977	105.13
323.19	-9.56
323.403	47.79
323.617	21.16
323.83	113.32
324.043	107.18
324.256	45.74
324.469	12.97
324.683	103.08
324.896	-3.41
325.109	88.75
325.322	-3.41
325.535	51.88
325.748	45.74
325.962	39.59
326.175	47.79
326.388	105.13
326.601	4.78
326.814	15.02
327.027	70.31
327.24	64.17
327.453	12.97
327.666	107.18
327.879	6.83
328.092	96.94
328.305	15.02
328.518	10.92
328.731	105.13
328.944	-13.65
329.157	55.98
329.37	10.92
329.583	121.51
329.796	125.61
330.009	45.74
330.222	72.36
330.435	76.46
330.648	31.4
330.861	70.31
331.073	37.55
331.286	-17.75
331.499	27.31
331.712	-5.46
331.925	-15.7
332.138	25.26
332.35	135.85
332.563	-15.7
332.776	55.98
332.989	-9.56
333.202	76.46
333.414	-38.23
333.627	43.69
333.84	6.83
334.053	111.27
334.265	39.59
334.478	6.83
334.691	-19.8
334.903	41.64
335.116	-62.8
335.329	12.97
335.541	76.46
335.754	86.7
335.966	35.5
336.179	92.84
336.392	23.21
336.604	74.41
336.817	137.9
337.029	6.83
337.242	4.78
337.454	51.88
337.667	-9.56
337.88	64.17
338.092	64.17
338.305	111.27
338.517	119.46
338.729	60.07
338.942	84.65
339.154	29.35
339.367	29.35
339.579	33.45
339.792	45.74
340.004	96.94
340.217	72.36
340.429	-17.75
340.641	49.83
340.854	0.68
341.066	55.98
341.278	39.59
341.491	78.51
341.703	64.17
341.915	-56.66
342.128	60.07
342.34	35.5
342.552	39.59
342.764	-15.7
342.977	94.89
343.189	-17.75
343.401	90.79
343.613	23.21
343.826	78.51
344.038	31.4
344.25	51.88
344.462	-52.56
344.674	29.35
344.886	70.31
345.099	86.7
345.311	96.94
345.523	33.45
345.735	-50.52
345.947	37.55
346.159	23.21
346.371	37.55
346.583	35.5
346.795	96.94
347.007	21.16
347.219	123.56
347.431	23.21
347.643	88.75
347.855	41.64
348.067	113.32
348.279	10.92
348.491	68.27
348.703	78.51
348.915	2.73
349.127	-5.46
349.339	84.65
349.551	6.83
349.763	133.8
349.975	64.17
350.187	51.88
350.399	109.22
350.61	135.85
350.822	-40.28
351.034	-19.8
351.246	51.88
351.458	15.02
351.669	47.79
351.881	74.41
352.093	58.03
352.305	70.31
352.517	74.41
352.728	47.79
352.94	31.4
353.152	53.93
353.363	12.97
353.575	133.8
353.787	55.98
353.999	64.17
354.21	96.94
354.422	2.73
354.633	-5.46
354.845	39.59
355.057	62.12
355.268	98.99
355.48	101.03
355.692	80.55
355.903	35.5
356.115	51.88
356.326	-68.95
356.538	80.55
356.749	-34.13
356.961	103.08
357.172	55.98
357.384	-13.65
357.595	96.94
357.807	47.79
358.018	51.88
358.23	-5.46
358.441	117.42
358.653	84.65
358.864	47.79
359.075	-1.37
359.287	68.27
359.498	96.94
359.709	166.57
359.921	78.51
360.132	94.89
360.344	43.69
360.555	41.64
360.766	55.98
360.977	35.5
361.189	62.12
361.4	53.93
361.611	29.35
361.823	15.02
362.034	146.09
362.245	-60.76
362.456	37.55
362.667	88.75
362.879	33.45
363.09	6.83
363.301	72.36
363.512	88.75
363.723	31.4
363.935	45.74
364.146	101.03
364.357	23.21
364.568	78.51
364.779	12.97
364.99	103.08
365.201	45.74
365.412	131.75
365.623	39.59
365.834	43.69
366.045	12.97
366.256	121.51
366.467	113.32
366.678	-9.56
366.889	6.83
367.1	64.17
367.311	101.03
367.522	90.79
367.733	64.17
367.944	6.83
368.155	53.93
368.366	68.27
368.577	80.55
368.788	80.55
368.999	53.93
369.209	37.55
369.42	199.34
369.631	121.51
369.842	60.07
370.053	39.59
370.264	58.03
370.474	-3.41
370.685	15.02
370.896	72.36
371.107	82.6
371.317	55.98
371.528	23.21
371.739	60.07
371.95	21.16
372.16	133.8
372.371	19.11
372.582	47.79
372.792	115.37
373.003	35.5
373.214	29.35
373.424	103.08
373.635	10.92
373.846	23.21
374.056	51.88
374.267	53.93
374.477	55.98
374.688	-1.37
374.898	47.79
375.109	37.55
375.319	125.61
375.53	-25.94
375.74	101.03
375.951	39.59
376.161	133.8
376.372	105.13
376.582	35.5
376.793	58.03
377.003	62.12
377.214	-11.61
377.424	19.11
377.635	-23.89
377.845	39.59
378.055	15.02
378.266	-32.08
378.476	17.07
378.686	101.03
378.897	72.36
379.107	68.27
379.317	60.07
379.528	2.73
379.738	80.55
379.948	47.79
380.158	80.55
380.369	121.51
380.579	53.93
380.789	55.98
380.999	96.94
381.21	27.31
381.42	103.08
381.63	-9.56
381.84	78.51
382.05	47.79
382.261	76.46
382.471	86.7
382.681	21.16
382.891	80.55
383.101	64.17
383.311	-11.61
383.521	51.88
383.731	47.79
383.941	86.7
384.151	39.59
384.361	-11.61
384.571	105.13
384.781	76.46
384.991	62.12
385.201	193.19
385.411	68.27
385.621	70.31
385.831	31.4
386.041	107.18
386.251	137.9
386.461	51.88
386.671	15.02
386.881	98.99
387.091	15.02
387.301	113.32
387.511	12.97
387.72	72.36
387.93	15.02
388.14	8.87
388.35	19.11
388.56	43.69
388.769	115.37
388.979	94.89
389.189	35.5
389.399	84.65
389.609	72.36
389.818	121.51
390.028	94.89
390.238	94.89
390.447	-11.61
390.657	113.32
390.867	27.31
391.076	23.21
391.286	105.13
391.496	21.16
391.705	154.28
391.915	90.79
392.125	105.13
392.334	39.59
392.544	111.27
392.753	76.46
392.963	111.27
393.172	103.08
393.382	-9.56
393.591	119.46
393.801	35.5
394.01	148.14
394.22	113.32
394.429	15.02
394.639	105.13
394.848	119.46
395.058	60.07
395.267	15.02
395.477	37.55
395.686	78.51
395.895	135.85
396.105	109.22
396.314	70.31
396.524	78.51
396.733	84.65
396.942	105.13
397.152	105.13
397.361	105.13
397.57	29.35
397.78	72.36
397.989	78.51
398.198	185
398.407	84.65
398.617	64.17
398.826	94.89
399.035	66.22
399.244	72.36
399.453	23.21
399.663	141.99
399.872	148.14
400.081	109.22
400.29	129.7
400.499	23.21
400.708	146.09
400.917	111.27
401.127	92.84
401.336	62.12
401.545	121.51
401.754	174.76
401.963	113.32
402.172	55.98
402.381	37.55
402.59	68.27
402.799	96.94
403.008	127.66
403.217	96.94
403.426	137.9
403.635	64.17
403.844	217.77
404.053	76.46
404.262	158.38
404.471	144.04
404.68	76.46
404.888	113.32
405.097	135.85
405.306	187.05
405.515	94.89
405.724	162.47
405.933	127.66
406.142	170.66
406.35	154.28
406.559	146.09
406.768	127.66
406.977	187.05
407.185	170.66
407.394	160.42
407.603	127.66
407.812	158.38
408.02	115.37
408.229	148.14
408.438	168.62
408.646	244.39
408.855	135.85
409.064	193.19
409.272	217.77
409.481	228.01
409.69	248.49
409.898	234.15
410.107	273.06
410.315	240.29
410.524	303.78
410.733	256.68
410.941	287.4
411.15	346.79
411.358	334.5
411.567	373.41
411.775	285.35
411.984	383.65
412.192	416.42
412.401	344.74
412.609	391.84
412.818	400.04
413.026	414.37
413.234	363.17
413.443	389.8
413.651	365.22
413.86	451.24
414.068	492.2
414.276	488.1
414.485	449.19
414.693	598.69
414.901	486.05
415.11	492.2
415.318	488.1
415.526	643.74
415.734	592.55
415.943	602.79
416.151	625.31
416.359	666.27
416.567	643.74
416.776	690.85
416.984	793.25
417.192	752.29
417.4	615.07
417.608	785.05
417.817	895.64
418.025	891.55
418.233	965.28
418.441	834.21
418.649	842.4
418.857	1012.38
419.065	998.04
419.273	973.47
419.481	1096.35
419.689	1061.53
419.897	1100.44
420.105	1129.11
420.313	1165.98
420.521	1282.71
420.729	1249.94
420.937	1227.42
421.145	1342.1
421.353	1366.68
421.561	1438.36
421.769	1497.75
421.977	1653.39
422.185	1446.55
422.393	1677.97
422.601	1698.45
422.809	1694.35
423.017	1813.13
423.224	1856.14
423.432	1854.09
423.64	1872.53
423.848	2042.51
424.056	1878.67
424.263	2026.12
424.471	2034.32
424.679	2226.82
424.887	2216.58
425.094	2407.05
425.302	2390.66
425.51	2405
425.718	2536.07
425.925	2538.12
426.133	2691.71
426.341	2849.41
426.548	2912.89
426.756	2830.98
426.964	2964.09
427.171	2996.86
427.379	3119.74
427.586	3166.84
427.794	3328.63
428.001	3482.23
428.209	3648.11
428.417	3652.21
428.624	3865.2
428.832	3955.31
429.039	3773.04
429.247	3859.06
429.454	4264.55
429.662	4518.5
429.869	4237.93
430.076	4579.94
430.284	4434.53
430.491	4631.14
430.699	4815.46
430.906	4837.98
431.114	4952.67
431.321	4973.15
431.528	5229.15
431.736	5667.41
431.943	5655.12
432.15	5573.21
432.358	5681.75
432.565	6111.82
432.772	5947.98
432.979	6181.45
433.187	6394.44
433.394	6363.72
433.601	7004.74
433.808	7062.08
434.016	6949.44
434.223	7025.22
434.43	7594.55
434.637	7545.4
434.844	7717.43
435.052	8124.97
435.259	7862.83
435.466	8137.26
435.673	7782.96
435.88	8358.44
436.087	8780.32
436.294	8802.85
436.501	8671.78
436.708	8985.12
436.915	9280.03
437.122	9533.98
437.329	9669.14
437.537	9861.65
437.743	9787.93
437.95	9933.33
438.157	10406.41
438.364	10813.96
438.571	10725.9
438.778	10967.56
438.985	11930.1
439.192	11282.94
439.399	11909.62
439.606	11319.81
439.813	12128.75
440.02	12925.41
440.227	12730.86
440.433	12444.14
440.64	12937.7
440.847	12870.12
441.054	13122.02
441.261	14027.22
441.467	13851.1
441.674	14189.01
441.881	14805.45
442.088	14664.14
442.294	14737.87
442.501	15208.9
442.708	15307.2
442.914	15786.43
443.121	16366
443.328	16226.74
443.534	16904.62
443.741	16722.35
443.948	16400.82
444.154	17527.2
444.361	17529.25
444.568	17639.84
444.774	17785.24
444.981	17799.58
445.187	18696.59
445.394	18938.25
445.6	18919.82
445.807	20752.75
446.013	19904.89
446.22	20173.17
446.426	20894.06
446.633	21170.54
446.839	21934.43
447.046	20935.02
447.252	22391.12
447.459	21930.33
447.665	22356.31
447.871	23081.29
448.078	23996.73
448.284	22872.4
448.491	23753.02
448.697	24111.42
448.903	24664.37
449.11	24848.69
449.316	24469.81
449.522	24795.44
449.728	25600.29
449.935	26022.17
450.141	25770.27
450.347	26108.19
450.553	25393.45
450.76	25706.79
450.966	26863.89
451.172	26353.94
451.378	26966.29
451.584	26618.13
451.791	27238.67
451.997	26956.05
452.203	27574.53
452.409	27218.19
452.615	27228.43
452.821	26312.99
453.027	25876.77
453.233	27377.93
453.44	26231.07
453.646	26380.57
453.852	26427.67
454.058	26779.92
454.264	25811.23
454.47	26790.16
454.676	25975.07
454.882	27089.17
455.088	24621.36
455.294	24975.66
455.5	25098.54
455.705	25301.29
455.911	24379.7
456.117	24025.4
456.323	23515.46
456.529	22198.62
456.735	23388.49
456.941	22729.04
457.147	22368.6
457.352	21698.91
457.558	21178.73
457.764	21422.44
457.97	20789.61
458.176	20416.88
458.381	20576.62
458.587	19728.77
458.793	19394.95
458.999	18620.81
459.204	19532.16
459.41	19095.94
459.616	18059.67
459.821	17824.15
460.027	17844.63
460.233	17758.62
460.438	16789.93
460.644	16732.59
460.85	15892.92
461.055	15860.15
461.261	15800.76
461.466	14412.24
461.672	14307.79
461.878	15151.56
462.083	14195.15
462.289	13963.73
462.494	13591
462.7	13126.11
462.905	12880.36
463.111	13230.56
463.316	13052.39
463.522	13205.99
463.727	12730.86
463.932	12878.31
464.138	12659.18
464.343	12775.91
464.549	12595.69
464.754	12892.65
464.959	12607.98
465.165	12806.63
465.37	11971.06
465.575	11954.68
465.781	12325.36
465.986	12261.87
466.191	12038.64
466.397	11803.13
466.602	11264.51
466.807	11764.22
467.012	11383.29
467.218	11545.08
467.423	11319.81
467.628	11565.56
467.833	11758.07
468.038	11459.07
468.244	11084.29
468.449	11760.12
468.654	11131.39
468.859	10973.7
469.064	10922.5
469.269	10621.45
469.474	10578.44
469.679	10734.09
469.885	10555.91
470.09	10803.72
470.295	10719.75
470.5	10435.08
470.705	10564.11
470.91	10314.25
471.115	10281.49
471.32	10279.44
471.525	10467.85
471.73	9943.57
471.935	9957.91
472.139	9556.5
472.344	9941.52
472.549	9792.02
472.754	9634.33
472.959	9239.07
473.164	9275.93
473.369	9153.06
473.574	9476.63
473.778	9296.41
473.983	9202.21
474.188	9286.17
474.393	8565.29
474.598	8944.16
474.802	8743.46
475.007	8690.21
475.212	8667.69
475.417	8311.34
475.621	8272.43
475.826	8608.3
476.031	8243.76
476.235	7940.66
476.44	8157.74
476.645	8245.8
476.849	8057.39
477.054	7819.83
477.259	7731.76
477.463	7772.72
477.668	7625.27
477.872	7762.48
478.077	7486.01
478.282	7256.64
478.486	7203.39
478.691	7297.6
478.895	7305.79
479.1	7074.37
479.304	7219.77
479.509	6896.19
479.713	7166.53
479.918	6980.16
480.122	6726.21
480.326	7008.83
480.531	7158.33
480.735	6871.62
480.94	6709.83
481.144	6933.06
481.348	6670.92
481.553	6859.33
481.757	6574.66
481.961	6847.04
482.166	6822.47
482.37	6666.82
482.574	6601.29
482.778	6683.2
482.983	6617.67
483.187	6711.88
483.391	6781.51
483.595	6541.89
483.8	6857.28
484.004	6601.29
484.208	6574.66
484.412	6697.54
484.616	6900.29
484.821	6818.37
485.025	6502.98
485.229	6675.01
485.433	6705.73
485.637	6607.43
485.841	6589
486.045	6521.42
486.249	6683.2
486.453	6715.97
486.657	6656.58
486.861	6681.16
487.065	6351.43
487.269	6556.23
487.473	6380.11
487.677	6679.11
487.881	6699.59
488.085	6705.73
488.289	6728.26
488.493	6609.48
488.697	6904.39
488.901	6720.07
489.105	6783.56
489.309	6621.77
489.512	6728.26
489.716	6648.39
489.92	6650.44
490.124	6621.77
490.328	6789.7
490.531	6779.46
490.735	6955.58
490.939	6789.7
491.143	6664.77
491.346	6818.37
491.55	7027.26
491.754	7023.17
491.958	7080.51
492.161	6822.47
492.365	6982.21
492.569	7039.55
492.772	7068.22
492.976	6998.59
493.18	7240.25
493.383	7205.44
493.587	7367.23
493.79	7410.23
493.994	7346.75
494.197	7449.14
494.401	7383.61
494.605	7449.14
494.808	7492.15
495.012	7584.31
495.215	7621.17
495.419	7600.69
495.622	7604.79
495.825	7766.58
496.029	7717.43
496.232	7918.13
496.436	7854.64
496.639	8084.02
496.843	8006.19
497.046	8362.54
497.249	8362.54
497.453	8186.41
497.656	8329.77
497.859	8518.18
498.063	8448.55
498.266	8610.34
498.469	8632.87
498.673	8655.4
498.876	8809
499.079	8962.59
499.282	8942.11
499.485	9267.74
499.689	9165.34
499.892	9345.56
500.095	9495.07
500.298	9445.91
500.501	9368.09
500.705	9706.01
500.908	9796.12
501.111	9835.03
501.314	9998.87
501.517	10062.35
501.72	10365.45
501.923	10318.35
502.126	10347.02
502.329	10764.81
502.532	10746.37
502.735	10775.05
502.938	10928.64
503.141	11022.85
503.344	11115.01
503.547	11293.18
503.75	11493.88
503.953	11610.62
504.156	11627
504.359	11979.25
504.562	11864.57
504.765	12124.66
504.968	12403.18
505.17	12380.65
505.373	12538.35
505.576	12700.14
505.779	12659.18
505.982	12794.34
506.185	12896.74
506.387	13332.96
506.59	13236.7
506.793	13353.44
506.996	13509.08
507.198	13955.54
507.401	13631.96
507.604	13894.1
507.807	14113.24
508.009	14481.87
508.212	14471.63
508.415	14354.9
508.617	14522.83
508.82	15083.97
509.022	14981.57
509.225	15389.12
509.428	15245.76
509.63	15575.49
509.833	15501.76
510.035	15985.08
510.238	15870.39
510.44	16112.05
510.643	16310.71
510.845	16525.74
511.048	16320.95
511.25	16505.26
511.453	16851.37
511.655	17576.35
511.858	17289.63
512.06	17308.07
512.262	17688.99
512.465	17533.34
512.667	18033.05
512.87	18209.17
513.072	18344.34
513.274	18538.9
513.477	18913.67
513.679	18899.34
513.881	19130.76
514.084	19153.29
514.286	19468.67
514.488	19431.81
514.69	20033.91
514.893	20064.63
515.095	20224.37
515.297	20384.12
515.499	20593.01
515.701	20951.4
515.904	20842.86
516.106	21414.24
516.308	21600.61
516.51	21457.25
516.712	21651.81
516.914	22047.07
517.116	22528.34
517.318	22325.59
517.52	22473.04
517.722	23101.77
517.925	23349.57
518.127	23531.84
518.329	23785.79
518.531	23656.77
518.733	24006.97
518.935	24314.17
519.136	24684.85
519.338	24525.11
519.54	24777.01
519.742	25377.06
519.944	25356.58
520.146	25776.42
520.348	25743.65
520.55	26159.39
520.752	26247.45
520.954	26773.78
521.155	26659.09
521.357	27052.3
521.559	27291.91
521.761	27853.06
521.963	28066.05
522.164	28082.43
522.366	28514.55
522.568	28350.71
522.77	28807.41
522.971	29407.47
523.173	29028.59
523.375	29417.71
523.576	29419.75
523.778	30132.45
523.98	30195.93
524.181	30474.46
524.383	30435.55
524.584	30894.29
524.786	31271.12
524.988	31025.36
525.189	31645.9
525.391	31813.83
525.592	31801.54
525.794	32213.18
525.995	32456.89
526.197	32112.83
526.398	32755.89
526.6	32843.96
526.801	33159.34
527.003	33063.09
527.204	33237.17
527.406	33544.36
527.607	33560.75
527.808	34472.09
528.01	33659.05
528.211	34320.54
528.412	34926.74
528.614	34631.83
528.815	34791.58
529.016	35354.77
529.218	34873.49
529.419	34867.35
529.62	35012.76
529.822	35168.4
530.023	35551.37
530.224	36046.98
530.425	35889.29
530.626	35733.64
530.828	35836.04
531.029	36491.39
531.23	35983.49
531.431	36225.15
531.632	36661.37
531.833	36917.37
532.035	36513.92
532.236	36460.67
532.437	36819.06
532.638	36628.6
532.839	37142.64
533.04	37308.53
533.241	36888.7
533.442	37861.48
533.643	37308.53
533.844	37363.82
534.045	37550.19
534.246	37257.33
534.447	37664.88
534.648	37650.54
534.849	37824.62
535.05	37490.8
535.251	37814.38
535.451	37732.46
535.652	37789.8
535.853	37818.47
536.054	38015.08
536.255	38230.12
536.456	37822.57
536.657	38518.88
536.857	37943.4
537.058	38084.71
537.259	38482.02
537.46	38035.56
537.66	38242.4
537.861	38367.33
538.062	38025.32
538.263	38588.51
538.463	37929.06
538.664	38078.57
538.865	38250.6
539.065	38625.37
539.266	38420.58
539.466	38563.93
539.667	37718.12
539.868	38944.86
540.068	38199.4
540.269	38131.81
540.469	38506.59
540.67	38316.13
540.87	38312.03
541.071	38330.47
541.271	38600.8
541.472	37924.97
541.672	38414.43
541.873	38097
542.073	38039.65
542.274	38643.81
542.474	38326.37
542.675	38195.3
542.875	38371.43
543.075	38193.25
543.276	38125.67
543.476	38500.45
543.676	38180.96
543.877	38363.23
544.077	38082.66
544.277	38107.24
544.478	38260.83
544.678	38654.04
544.878	38451.3
545.078	38178.92
545.279	38103.14
545.479	38107.24
545.679	38170.72
545.879	38297.7
546.079	38082.66
546.28	38064.23
546.48	38062.18
546.68	38379.62
546.88	38465.63
547.08	38664.28
547.28	38099.05
547.48	37779.56
547.68	38264.93
547.88	38473.82
548.081	38527.07
548.281	38232.16
548.481	38246.5
548.681	38097
548.881	38172.77
549.081	38271.07
549.28	38365.28
549.48	38275.17
549.68	37859.43
549.88	38776.92
550.08	38109.29
550.28	37978.22
550.48	37884.01
550.68	38539.36
550.88	38051.94
551.08	38125.67
551.279	38213.73
551.479	37759.08
551.679	38035.56
551.879	37976.17
552.079	38125.67
552.278	38195.3
552.478	38144.1
552.678	37984.36
552.878	37900.39
553.077	37965.93
553.277	37734.51
553.477	38113.38
553.676	37812.33
553.876	37927.02
554.076	37556.33
554.275	37718.12
554.475	37417.07
554.674	37838.95
554.874	37634.16
555.074	37550.19
555.273	37826.67
555.473	37585.01
555.672	37167.22
555.872	37720.17
556.071	37757.03
556.271	37668.97
556.47	37587.05
556.67	37128.31
556.869	37245.04
557.068	37177.46
557.268	37306.48
557.467	37075.06
557.667	36704.38
557.866	37040.25
558.065	36741.24
558.265	36868.22
558.464	36626.56
558.663	36829.3
558.863	35944.58
559.062	36735.1
559.261	36266.11
559.461	36610.17
559.66	35948.68
559.859	36067.46
560.058	35747.98
560.258	36323.46
560.457	35578
560.656	35915.91
560.855	35469.45
561.054	35801.22
561.253	35328.14
561.453	35250.32
561.652	35342.48
561.851	35389.58
562.05	35381.39
562.249	34764.95
562.448	35367.06
562.647	34799.77
562.846	34857.11
563.045	34588.83
563.244	34318.49
563.443	34916.5
563.642	33845.41
563.841	34197.66
564.04	34031.78
564.239	34494.62
564.438	33579.18
564.637	33951.91
564.836	33740.97
565.035	33517.74
565.234	33589.42
565.432	33433.77
565.631	33351.85
565.83	33007.79
566.029	32944.31
566.228	32731.32
566.427	32661.69
566.625	32256.19
566.824	32121.02
567.023	32325.82
567.222	31588.55
567.42	32440.51
567.619	32053.44
567.818	31940.8
568.016	31639.75
568.215	31799.49
568.414	31484.11
568.612	31758.53
568.811	31113.42
569.01	31199.44
569.208	30652.63
569.407	31066.32
569.605	30834.9
569.804	30990.55
570.002	30206.17
570.201	30673.11
570.4	30435.55
570.598	30269.66
570.797	29958.37
570.995	29798.63
571.193	29872.35
571.392	29784.29
571.59	29169.9
571.789	29417.71
571.987	29106.41
572.186	29063.41
572.384	28885.23
572.582	28838.13
572.781	28913.91
572.979	28498.17
573.177	28698.87
573.376	28860.66
573.574	28410.11
573.772	28508.41
573.971	28410.11
574.169	28020.99
574.367	27898.11
574.565	27904.26
574.763	27549.96
574.962	27580.68
575.16	27650.31
575.358	27607.3
575.556	27261.19
575.754	27472.14
575.952	27175.18
576.151	27224.33
576.349	26906.9
576.547	26767.63
576.745	26571.03
576.943	26650.9
577.141	26403.1
577.339	26290.46
577.537	26214.68
577.735	26388.76
577.933	26108.19
578.131	26124.57
578.329	26007.84
578.527	25655.59
578.725	25622.82
578.923	25774.37
579.121	25549.09
579.319	25508.13
579.516	25426.21
579.714	25426.21
579.912	25270.57
580.11	24899.89
580.308	24889.65
580.506	24889.65
580.704	24607.03
580.901	24903.98
581.099	25301.29
581.297	24555.83
581.495	24582.45
581.692	24807.73
581.89	24418.61
582.088	24609.08
582.285	24181.05
582.483	24338.74
582.681	24162.62
582.878	23787.84
583.076	23716.16
583.274	24140.09
583.471	23736.64
583.669	23884.09
583.866	23464.26
584.064	23583.04
584.262	23634.24
584.459	23673.15
584.657	23230.79
584.854	23411.01
585.052	23083.34
585.249	23288.14
585.447	22995.28
585.644	22939.98
585.841	22933.84
586.039	22929.74
586.236	22511.96
586.434	22454.61
586.631	22466.9
586.828	22747.47
587.026	22485.33
587.223	22215
587.42	22358.36
587.618	22395.22
587.815	21983.58
588.012	21846.37
588.21	21680.48
588.407	22022.49
588.604	21694.82
588.801	21457.25
588.999	21477.73
589.196	21598.56
589.393	21670.24
589.59	21504.35
589.787	21252.45
589.984	20982.12
590.182	20728.17
590.379	21291.37
590.576	20953.45
590.773	21113.19
590.97	20994.41
591.167	21004.65
591.364	20658.54
591.561	20447.6
591.758	20580.72
591.955	20504.95
592.152	20515.19
592.349	20599.15
592.546	20488.56
592.743	20457.84
592.94	20396.4
593.137	20349.3
593.334	20181.37
593.531	19968.38
593.727	20130.17
593.924	19837.31
594.121	19673.47
594.318	19960.19
594.515	19753.34
594.712	19747.2
594.908	19784.06
595.105	19808.64
595.302	19495.3
595.499	19562.88
595.696	19300.74
595.892	19304.84
596.089	19446.15
596.286	19214.73
596.482	19231.11
596.679	19026.31
596.876	18794.89
597.072	18848.14
597.269	18715.02
597.466	18579.86
597.662	18784.65
597.859	18755.98
598.055	18723.21
598.252	18315.67
598.448	18588.05
598.645	18653.58
598.841	18463.12
599.038	18305.43
599.234	18385.3
599.431	18129.3
599.627	18170.26
599.824	17965.46
600.02	18067.86
600.217	18313.62
600.413	18014.62
600.609	17746.33
600.806	17607.07
601.002	17865.11
601.198	17807.77
601.395	17496.48
601.591	17541.53
601.787	17619.36
601.984	17385.89
602.18	17308.07
602.376	17387.94
602.572	17203.62
602.769	17199.52
602.965	17150.37
603.161	17228.2
603.357	16912.81
603.553	17037.73
603.75	17056.17
603.946	16828.84
604.142	16912.81
604.338	16486.83
604.534	16818.6
604.73	16531.89
604.926	16630.19
605.122	16753.07
605.318	16525.74
605.514	16288.18
605.71	16052.66
605.906	16230.83
606.102	16062.9
606.298	16118.2
606.494	16032.18
606.69	16142.77
606.886	16087.48
607.082	15888.82
607.278	16040.37
607.474	15681.98
607.67	16126.39
607.866	15724.99
608.062	16060.85
608.257	15829.43
608.453	15686.08
608.649	15679.93
608.845	15737.27
609.041	15430.08
609.236	15497.66
609.432	15575.49
609.628	15620.54
609.824	15491.52
610.019	15219.14
610.215	15329.73
610.411	15301.06
610.606	15309.25
610.802	15208.9
610.998	15411.65
611.193	15116.74
611.389	15081.92
611.584	14922.18
611.78	15141.32
611.976	14975.43
612.171	15024.58
612.367	14967.24
612.562	14862.79
612.758	14787.02
612.953	14686.67
613.149	14721.48
613.344	14680.52
613.539	14793.16
613.735	14584.27
613.93	14694.86
614.126	14688.71
614.321	14680.52
614.517	14723.53
614.712	14258.64
614.907	14498.25
615.103	14598.6
615.298	14092.76
615.493	14342.61
615.688	14209.49
615.884	14578.12
616.079	14105.04
616.274	14170.58
616.47	14100.95
616.665	14027.22
616.86	14195.15
617.055	14057.94
617.25	14170.58
617.445	14012.88
617.641	13797.85
617.836	14105.04
618.031	13670.87
618.226	13744.6
618.421	13957.59
618.616	13834.71
618.811	13400.54
619.006	13662.68
619.201	13459.93
619.396	13341.15
619.591	13410.78
619.786	13251.04
619.981	13189.6
620.176	13328.86
620.371	13107.68
620.566	13220.32
620.761	13089.25
620.956	13179.36
621.151	12796.39
621.346	12947.94
621.541	12573.16
621.735	12997.09
621.93	12620.27
622.125	12552.68
622.32	12483.05
622.515	12622.31
622.709	12472.81
622.904	12405.23
623.099	12380.65
623.294	12489.2
623.488	12104.18
623.683	12247.54
623.878	12151.28
624.072	12265.97
624.267	11891.19
624.462	11733.5
624.656	12028.4
624.851	12151.28
625.046	11823.61
625.24	11555.32
625.435	11479.55
625.629	11489.79
625.824	11547.13
626.018	11510.27
626.213	10965.51
626.407	11282.94
626.602	11024.9
626.796	11237.89
626.991	11246.08
627.185	11063.81
627.38	10879.49
627.574	11004.42
627.768	10840.58
627.963	10826.25
628.157	10789.38
628.352	10652.17
628.546	10402.32
628.74	10773
628.935	10351.12
629.129	10359.31
629.323	10459.66
629.517	10215.95
629.712	10336.78
629.906	10263.05
630.1	10072.59
630.294	10353.16
630.489	9847.32
630.683	10244.62
630.877	9812.5
631.071	9857.56
631.265	9882.13
631.459	9732.63
631.653	9683.48
631.848	9648.66
632.042	9669.14
632.236	9695.77
632.43	9486.87
632.624	9447.96
632.818	9587.22
633.012	9357.85
633.206	9329.18
633.4	9198.11
633.594	9191.97
633.788	9155.1
633.982	9099.81
634.176	9167.39
634.369	8944.16
634.563	9044.51
634.757	8806.95
634.951	9026.08
635.145	8890.92
635.339	8718.89
635.533	8845.86
635.726	8684.07
635.92	8647.21
636.114	8669.73
636.308	8591.91
636.501	8383.02
636.695	8501.8
636.889	8575.53
637.083	8458.79
637.276	8368.68
637.47	8301.1
637.664	8327.72
637.857	8184.37
638.051	8260.14
638.244	8092.21
638.438	8237.61
638.632	8163.89
638.825	8000.05
639.019	7926.32
639.212	8010.29
639.406	8004.14
639.599	8002.1
639.793	7764.53
639.986	7672.37
640.18	7758.39
640.373	7723.57
640.567	7563.83
640.76	7637.56
640.954	7453.24
641.147	7545.4
641.34	7395.9
641.534	7434.81
641.727	7285.31
641.92	7424.57
642.114	7408.19
642.307	7205.44
642.5	7318.07
642.694	7150.14
642.887	7098.94
643.08	7174.72
643.273	7135.81
643.467	7113.28
643.66	7033.41
643.853	6974.02
644.046	6871.62
644.239	6920.77
644.432	6691.4
644.626	6720.07
644.819	6810.18
645.012	6707.78
645.205	6589
645.398	6589
645.591	6435.4
645.784	6662.72
645.977	6529.61
646.17	6537.8
646.363	6369.87
646.556	6392.39
646.749	6302.28
646.942	6359.63
647.135	6455.88
647.328	6328.91
647.521	6230.6
647.714	6122.06
647.907	6150.73
648.099	6109.77
648.292	6179.4
648.485	6087.25
648.678	5917.26
648.871	5995.09
649.064	5978.7
649.256	5966.42
649.449	5929.55
649.642	5962.32
649.835	5937.74
650.027	5757.52
650.22	5796.43
650.413	5747.28
650.605	5751.38
650.798	5767.76
650.991	5667.41
651.183	5825.11
651.376	5651.03
651.568	5732.95
651.761	5501.53
651.954	5622.36
652.146	5741.14
652.339	5567.06
652.531	5575.25
652.724	5440.09
652.916	5446.23
653.109	5427.8
653.301	5458.52
653.494	5442.14
653.686	5282.39
653.879	5440.09
654.071	5452.38
654.263	5315.16
654.456	5167.71
654.648	5423.7
654.84	5186.14
655.033	5089.88
655.225	5212.76
655.417	5093.98
655.61	5235.29
655.802	5110.36
655.994	5188.19
656.186	5093.98
656.379	5075.55
656.571	5100.12
656.763	4905.57
656.955	5098.08
657.148	5077.6
657.34	4880.99
657.532	4917.86
657.724	4749.92
657.916	4930.14
658.108	5012.06
658.3	4758.11
658.492	4856.42
658.684	4772.45
658.876	4901.47
659.068	4792.93
659.26	4803.17
659.452	4815.46
659.644	4762.21
659.836	4807.27
660.028	4768.35
660.22	4641.38
660.412	4596.32
660.604	4704.87
660.796	4631.14
660.988	4534.89
661.18	4625
661.372	4504.17
661.563	4600.42
661.755	4477.54
661.947	4649.57
662.139	4493.93
662.331	4565.6
662.522	4487.78
662.714	4395.62
662.906	4405.86
663.097	4479.59
663.289	4342.38
663.481	4364.9
663.673	4446.82
663.864	4369
664.056	4305.51
664.247	4258.41
664.439	4366.95
664.631	4371.05
664.822	4399.72
665.014	4463.21
665.205	4356.71
665.397	4328.04
665.588	4385.38
665.78	4168.3
665.971	4356.71
666.163	4233.83
666.354	4328.04
666.546	4311.66
666.737	4135.53
666.929	4196.97
667.12	4217.45
667.311	4258.41
667.503	4143.72
667.694	4338.28
667.885	4086.38
668.077	4258.41
668.268	4250.22
668.459	4143.72
668.651	4315.75
668.842	4145.77
669.033	4295.27
669.224	4315.75
669.416	4164.2
669.607	4303.46
669.798	4295.27
669.989	4295.27
670.18	4225.64
670.371	4278.89
670.563	4260.46
670.754	4309.61
670.945	4272.75
671.136	4287.08
671.327	4176.49
671.518	4356.71
671.709	4463.21
671.9	4446.82
672.091	4397.67
672.282	4164.2
672.473	4258.41
672.664	4383.34
672.855	4325.99
673.046	4293.23
673.237	4393.58
673.428	4287.08
673.619	4356.71
673.809	4414.06
674	4475.49
674.191	4362.86
674.382	4299.37
674.573	4371.05
674.764	4510.31
674.954	4495.97
675.145	4395.62
675.336	4461.16
675.527	4483.69
675.717	4422.25
675.908	4477.54
676.099	4524.65
676.289	4633.19
676.48	4459.11
676.671	4534.89
676.861	4586.08
677.052	4516.45
677.243	4520.55
677.433	4627.04
677.624	4799.07
677.814	4725.35
678.005	4778.59
678.195	4725.35
678.386	4563.56
678.576	4758.11
678.767	4774.5
678.957	4698.72
679.148	4969.05
679.338	4878.94
679.529	4969.05
679.719	4887.14
679.909	4938.34
680.1	4889.18
680.29	5044.83
680.481	4954.72
680.671	5053.02
680.861	5143.13
681.052	4956.77
681.242	4973.15
681.432	5163.61
681.622	5220.95
681.813	5077.6
682.003	5134.94
682.193	5106.27
682.383	5280.35
682.573	5171.8
682.764	5208.67
682.954	5220.95
683.144	5196.38
683.334	5413.46
683.524	5296.73
683.714	5165.66
683.904	5132.89
684.094	5290.59
684.284	5321.31
684.474	5352.02
684.664	5315.16
684.854	5376.6
685.044	5397.08
685.234	5145.18
685.424	5309.02
685.614	5257.82
685.804	5399.13
685.994	5352.02
686.184	5370.46
686.374	5270.11
686.564	5403.22
686.753	5200.48
686.943	5050.97
687.133	5233.24
687.323	5106.27
687.513	5231.19
687.702	5167.71
687.892	5143.13
688.082	5159.52
688.272	5077.6
688.461	5171.8
688.651	5110.36
688.841	5083.74
689.03	5044.83
689.22	5155.42
689.41	5028.45
689.599	4897.38
689.789	4840.03
689.979	4864.61
690.168	4901.47
690.358	4770.4
690.547	4729.44
690.737	4751.97
690.926	4708.96
691.116	4670.05
691.305	4725.35
691.495	4534.89
691.684	4543.08
691.874	4668
692.063	4536.93
692.252	4590.18
692.442	4616.8
692.631	4485.73
692.82	4452.97
693.01	4612.71
693.199	4668
693.388	4389.48
693.578	4262.51
693.767	4342.38
693.956	4295.27
694.146	4377.19
694.335	4346.47
694.524	4387.43
694.713	4289.13
694.902	4344.42
695.092	4239.98
695.281	4231.79
695.47	4395.62
695.659	4336.23
695.848	4319.85
696.037	4258.41
696.226	4307.56
696.415	4223.59
696.604	4352.62
696.793	4125.29
696.982	4256.36
697.171	4354.66
697.36	4239.98
697.549	4242.03
697.738	4199.02
697.927	4184.68
698.116	4145.77
698.305	3979.89
698.494	4156.01
698.683	4026.99
698.872	4209.26
699.061	4168.3
699.25	4147.82
699.438	4194.92
699.627	4110.96
699.816	4274.79
700.005	4100.72
700.193	4170.35
700.382	4231.79
700.571	4205.16
700.76	4188.78
700.948	4086.38
701.137	4264.55
701.326	4209.26
701.514	4117.1
701.703	4246.12
701.892	4276.84
702.08	4160.11
702.269	4299.37
702.457	4119.15
702.646	4244.07
702.834	4074.09
703.023	4176.49
703.212	4211.31
703.4	4321.9
703.589	4137.58
703.777	4444.77
703.965	4364.9
704.154	4237.93
704.342	4133.48
704.531	4342.38
704.719	4344.42
704.907	4313.7
705.096	4160.11
705.284	4465.25
705.472	4369
705.661	4424.3
705.849	4444.77
706.037	4440.68
706.226	4485.73
706.414	4315.75
706.602	4362.86
706.79	4569.7
706.979	4199.02
707.167	4348.52
707.355	4584.04
707.543	4495.97
707.731	4405.86
707.919	4512.36
708.107	4446.82
708.296	4577.89
708.484	4455.01
708.672	4608.61
708.86	4512.36
709.048	4618.85
709.236	4487.78
709.424	4721.25
709.612	4461.16
709.8	4508.26
709.988	4655.72
710.176	4674.15
710.364	4569.7
710.551	4596.32
710.739	4764.26
710.927	4780.64
711.115	4782.69
711.303	4702.82
711.491	4745.83
711.679	4831.84
711.866	4915.81
712.054	4969.05
712.242	4977.25
712.43	4815.46
712.617	4807.27
712.805	4917.86
712.993	4749.92
713.181	5018.21
713.368	5108.32
713.556	5180
713.744	5057.12
713.931	5216.86
714.119	5198.43
714.306	5122.65
714.494	5151.32
714.682	5204.57
714.869	5182.04
715.057	5298.78
715.244	5161.56
715.432	5261.91
715.619	5126.75
715.807	5313.11
715.994	5313.11
716.182	5349.98
716.369	5368.41
716.556	5321.31
716.744	5530.2
716.931	5372.5
717.119	5444.18
717.306	5624.4
717.493	5329.5
717.681	5497.43
717.868	5474.9
718.055	5683.8
718.242	5648.98
718.43	5511.77
718.617	5515.86
718.804	5636.69
718.991	5767.76
719.179	5735
719.366	5640.79
719.553	5769.81
719.74	5665.36
719.927	5739.09
720.114	5708.37
720.301	5827.15
720.488	5683.8
720.676	5780.05
720.863	5884.5
721.05	5691.99
721.237	5833.3
721.424	5935.7
721.611	5626.45
721.798	5790.29
721.985	5982.8
722.172	5970.51
722.358	5898.83
722.545	5945.94
722.732	5947.98
722.919	6173.26
723.106	6171.21
723.293	6056.53
723.48	6142.54
723.667	6044.24
723.853	5952.08
724.04	6064.72
724.227	5964.37
724.414	6122.06
724.6	6044.24
724.787	6253.13
724.974	6181.45
725.161	6283.85
725.347	6040.14
725.534	6335.05
725.72	6376.01
725.907	6267.47
726.094	6130.25
726.28	6322.76
726.467	6263.37
726.653	6294.09
726.84	6179.4
727.027	6421.06
727.213	6414.92
727.4	6384.2
727.586	6314.57
727.773	6543.94
727.959	6199.88
728.145	6453.83
728.332	6232.65
728.518	6505.03
728.705	6550.09
728.891	6429.26
729.077	6525.51
729.264	6494.79
729.45	6640.2
729.636	6599.24
729.823	6505.03
730.009	6558.28
730.195	6541.89
730.382	6675.01
730.568	6632.01
730.754	6572.61
730.94	6443.59
731.126	6777.41
731.313	6478.41
731.499	6623.81
731.685	6511.18
731.871	6683.2
732.057	6695.49
732.243	6711.88
732.429	6617.67
732.615	6763.08
732.801	6679.11
732.987	6754.88
733.173	6732.36
733.359	6607.43
733.545	6535.75
733.731	6584.9
733.917	6736.45
734.103	6713.92
734.289	6810.18
734.475	6658.63
734.661	6824.51
734.847	6724.16
735.033	6640.2
735.219	6820.42
735.404	6646.34
735.59	6822.47
735.776	6656.58
735.962	6756.93
736.148	6777.41
736.333	6720.07
736.519	6705.73
736.705	6683.2
736.89	6849.09
737.076	6730.31
737.262	6785.6
737.447	6793.79
737.633	6916.67
737.819	6863.43
738.004	6603.33
738.19	6728.26
738.375	6595.14
738.561	6697.54
738.747	6642.25
738.932	6736.45
739.118	6632.01
739.303	6670.92
739.489	6670.92
739.674	6707.78
739.859	6466.12
740.045	6748.74
740.23	6580.81
740.416	6650.44
740.601	6605.38
740.786	6462.02
740.972	6543.94
741.157	6582.85
741.342	6552.13
741.528	6464.07
741.713	6517.32
741.898	6527.56
742.084	6416.97
742.269	6568.52
742.454	6431.3
742.639	6390.35
742.824	6369.87
743.01	6210.12
743.195	6433.35
743.38	6324.81
743.565	6333
743.75	6330.95
743.935	6224.46
744.12	6402.63
744.305	6107.73
744.49	5995.09
744.675	6077.01
744.86	6050.38
745.045	6109.77
745.23	6023.76
745.415	5941.84
745.6	5999.18
745.785	6034
745.97	6070.86
746.155	5904.98
746.34	5939.79
746.525	5921.36
746.71	5941.84
746.895	5737.04
747.079	5728.85
747.264	5737.04
747.449	5548.63
747.634	5624.4
747.819	5771.86
748.003	5614.16
748.188	5476.95
748.373	5550.68
748.557	5608.02
748.742	5413.46
748.927	5456.47
749.111	5528.15
749.296	5364.31
749.481	5442.14
749.665	5192.28
749.85	5202.52
750.034	5257.82
750.219	5259.87
750.404	5190.24
750.588	4993.63
750.773	5188.19
750.957	5003.87
751.141	4999.77
751.326	5077.6
751.51	5050.97
751.695	4803.17
751.879	4856.42
752.064	5022.3
752.248	4780.64
752.432	4844.13
752.617	4706.91
752.801	4672.1
752.985	4555.37
753.17	4590.18
753.354	4586.08
753.538	4567.65
753.722	4581.99
753.907	4526.69
754.091	4414.06
754.275	4383.34
754.459	4532.84
754.643	4369
754.828	4344.42
755.012	4299.37
755.196	4432.49
755.38	4227.69
755.564	4201.07
755.748	4092.52
755.932	4063.85
756.116	4233.83
756.3	4094.57
756.484	4047.47
756.668	3914.35
756.852	3959.41
757.036	3906.16
757.22	3936.88
757.404	3848.82
757.588	3705.46
757.772	3857.01
757.956	3725.94
758.14	3807.86
758.323	3654.26
758.507	3746.42
758.691	3742.32
758.875	3725.94
759.059	3680.88
759.242	3697.27
759.426	3510.9
759.61	3488.37
759.794	3570.29
759.977	3504.76
760.161	3568.24
760.345	3582.58
760.528	3541.62
760.712	3426.93
760.895	3467.89
761.079	3484.28
761.263	3340.92
761.446	3418.74
761.63	3299.96
761.813	3361.4
761.997	3189.37
762.18	3250.81
762.364	3302.01
762.547	3109.5
762.731	3168.89
762.914	3242.62
763.098	3144.31
763.281	3109.5
763.464	3170.94
763.648	3230.33
763.831	3117.69
764.015	3086.97
764.198	2968.19
764.381	3060.35
764.564	3027.58
764.748	3095.16
764.931	2996.86
765.114	2982.53
765.297	2988.67
765.481	2972.29
765.664	2931.33
765.847	2757.25
766.03	3000.96
766.213	2906.75
766.397	2785.92
766.58	2792.06
766.763	2923.13
766.946	2816.64
767.129	2816.64
767.312	2718.34
767.495	2837.12
767.678	2708.1
767.861	2736.77
768.044	2724.48
768.227	2742.91
768.41	2634.37
768.593	2744.96
768.776	2652.8
768.959	2845.31
769.142	2722.43
769.324	2568.84
769.507	2607.75
769.69	2534.02
769.873	2488.96
770.056	2634.37
770.239	2587.27
770.421	2583.17
770.604	2527.88
770.787	2443.91
770.97	2349.7
771.152	2445.96
771.335	2509.44
771.518	2357.89
771.7	2448.01
771.883	2486.92
772.066	2407.05
772.248	2402.95
772.431	2374.28
772.613	2339.46
772.796	2339.46
772.978	2308.74
773.161	2364.04
773.343	2273.93
773.526	2255.5
773.708	2175.63
773.891	2208.39
774.073	2235.02
774.256	2200.2
774.438	2189.96
774.621	2071.18
774.803	2161.29
774.985	2157.19
775.168	2095.75
775.35	2058.89
775.532	2114.19
775.715	1979.02
775.897	2001.55
776.079	1923.73
776.261	1921.68
776.444	1972.88
776.626	1962.64
776.808	1833.61
776.99	1981.07
777.173	1872.53
777.355	1872.53
777.537	1938.06
777.719	1868.43
777.901	1741.46
778.083	1804.94
778.265	1784.46
778.447	1735.31
778.629	1774.22
778.811	1651.35
778.993	1780.37
779.175	1850
779.357	1784.46
779.539	1634.96
779.721	1763.98
779.903	1696.4
780.085	1667.73
780.267	1626.77
780.449	1571.47
780.631	1622.67
780.812	1653.39
780.994	1604.24
781.176	1704.59
781.358	1585.81
781.54	1522.32
781.721	1495.7
781.903	1493.65
782.085	1475.22
782.267	1424.02
782.448	1507.99
782.63	1528.47
782.812	1444.5
782.993	1405.59
783.175	1372.82
783.357	1305.24
783.538	1477.27
783.72	1251.99
783.901	1342.1
784.083	1440.4
784.264	1327.77
784.446	1350.29
784.627	1239.7
784.809	1364.63
784.99	1266.33
785.172	1368.73
785.353	1278.62
785.535	1284.76
785.716	1272.47
785.897	1215.13
786.079	1278.62
786.26	1178.26
786.441	1266.33
786.623	1237.66
786.804	1122.97
786.985	1184.41
787.167	1223.32
787.348	1161.88
787.529	1231.51
787.71	1208.98
787.891	1073.82
788.073	993.95
788.254	1022.62
788.435	1026.71
788.616	1045.15
788.797	957.08
788.978	1067.67
789.159	1086.11
789.34	1079.96
789.522	1045.15
789.703	1014.43
789.884	1024.67
790.065	1012.38
790.246	1104.54
790.427	998.04
790.607	932.51
790.788	957.08
790.969	912.03
791.15	973.47
791.331	1026.71
791.512	946.84
791.693	899.74
791.874	983.71
792.054	1008.28
792.235	979.61
792.416	955.04
792.597	838.3
792.778	887.45
792.958	973.47
793.139	846.49
793.32	801.44
793.5	907.93
793.681	920.22
793.862	858.78
794.042	811.68
794.223	686.75
794.404	793.25
794.584	793.25
794.765	830.11
794.945	866.97
795.126	819.87
795.306	897.69
795.487	826.01
795.667	772.77
795.848	776.86
796.028	776.86
796.209	809.63
796.389	813.73
796.57	770.72
796.75	692.9
796.93	789.15
797.111	744.1
797.291	795.29
797.471	842.4
797.652	709.28
797.832	793.25
798.012	750.24
798.192	725.66
798.373	721.57
798.553	715.42
798.733	715.42
798.913	692.9
799.093	662.18
799.274	740
799.454	676.51
799.634	723.62
799.814	735.9
799.994	602.79
800.174	678.56
800.354	651.94
800.534	561.83
800.714	719.52
800.894	653.98
801.074	545.44
801.254	596.64
801.434	678.56
801.614	684.7
801.794	635.55
801.974	1358.49
802.154	604.83
802.334	678.56
802.514	604.83
802.693	629.41
802.873	602.79
803.053	613.03
803.233	690.85
803.413	606.88
803.592	580.26
803.772	588.45
803.952	588.45
804.131	551.59
804.311	635.55
804.491	580.26
804.67	527.01
804.85	543.39
805.03	602.79
805.209	653.98
805.389	555.68
805.568	488.1
805.748	539.3
805.928	551.59
806.107	584.35
806.287	641.7
806.466	578.21
806.646	520.87
806.825	506.53
807.004	514.72
807.184	631.46
807.363	582.31
807.543	453.28
807.722	395.94
807.901	584.35
808.081	510.63
808.26	426.66
808.439	516.77
808.619	522.91
808.798	551.59
808.977	465.57
809.156	580.26
809.336	447.14
809.515	602.79
809.694	522.91
809.873	531.11
810.052	424.61
810.231	576.16
810.411	555.68
810.59	463.52
810.769	518.82
810.948	514.72
811.127	416.42
811.306	428.71
811.485	410.28
811.664	508.58
811.843	455.33
812.022	545.44
812.201	404.13
812.38	416.42
812.559	469.67
812.737	451.24
812.916	447.14
813.095	379.56
813.274	453.28
813.453	408.23
813.632	463.52
813.811	408.23
813.989	391.84
814.168	438.95
814.347	424.61
814.526	389.8
814.704	535.2
814.883	447.14
815.062	334.5
815.24	350.89
815.419	383.65
815.598	324.26
815.776	397.99
815.955	432.8
816.133	357.03
816.312	363.17
816.49	357.03
816.669	393.89
816.847	289.45
817.026	367.27
817.204	381.6
817.383	334.5
817.561	309.93
817.74	449.19
817.918	400.04
818.097	410.28
818.275	373.41
818.453	424.61
818.632	430.76
818.81	441
818.988	295.59
819.167	430.76
819.345	357.03
819.523	350.89
819.701	363.17
819.879	383.65
820.058	340.65
820.236	385.7
820.414	293.54
820.592	285.35
820.77	293.54
820.948	373.41
821.127	318.12
821.305	367.27
821.483	268.97
821.661	309.93
821.839	287.4
822.017	273.06
822.195	223.91
822.373	344.74
822.551	334.5
822.729	424.61
822.907	207.53
823.085	322.21
823.262	397.99
823.44	332.45
823.618	209.58
823.796	361.13
823.974	289.45
824.152	250.53
824.329	277.16
824.507	309.93
824.685	373.41
824.863	334.5
825.04	268.97
825.218	361.13
825.396	289.45
825.574	320.17
825.751	260.77
825.929	248.49
826.107	301.73
826.284	295.59
826.462	318.12
826.639	219.82
826.817	279.21
826.994	303.78
827.172	262.82
827.349	299.69
827.527	211.62
827.704	246.44
827.882	232.1
828.059	232.1
828.237	260.77
828.414	297.64
828.591	174.76
828.769	234.15
828.946	170.66
829.124	248.49
829.301	219.82
829.478	277.16
829.655	244.39
829.833	182.95
830.01	195.24
830.187	283.3
830.364	193.19
830.542	221.86
830.719	371.36
830.896	303.78
831.073	244.39
831.25	256.68
831.427	201.38
831.604	283.3
831.782	266.92
831.959	260.77
832.136	215.72
832.313	187.05
832.49	170.66
832.667	219.82
832.844	232.1
833.021	275.11
833.198	199.34
833.374	170.66
833.551	162.47
833.728	285.35
833.905	232.1
834.082	66.22
834.259	244.39
834.436	289.45
834.612	119.46
834.789	211.62
834.966	215.72
835.143	281.25
835.319	189.1
835.496	199.34
835.673	244.39
835.85	225.96
836.026	221.86
836.203	228.01
836.38	187.05
836.556	137.9
836.733	209.58
836.909	232.1
837.086	225.96
837.262	131.75
837.439	162.47
837.616	189.1
837.792	201.38
837.968	195.24
838.145	178.86
838.321	199.34
838.498	248.49
838.674	154.28
838.851	135.85
839.027	121.51
839.203	187.05
839.38	195.24
839.556	111.27
839.732	232.1
839.909	242.34
840.085	176.81
840.261	113.32
840.437	137.9
840.614	209.58
840.79	156.33
840.966	201.38
841.142	193.19
841.318	113.32
841.494	225.96
841.671	215.72
841.847	199.34
842.023	129.7
842.199	242.34
842.375	180.9
842.551	109.22
842.727	137.9
842.903	191.14
843.079	96.94
843.255	228.01
843.431	207.53
843.607	150.18
843.783	51.88
843.959	60.07
844.134	105.13
844.31	111.27
844.486	105.13
844.662	113.32
844.838	141.99
845.013	137.9
845.189	195.24
845.365	146.09
845.541	154.28
845.716	146.09
845.892	225.96
846.068	123.56
846.244	125.61
846.419	82.6
846.595	182.95
846.77	76.46
846.946	141.99
847.122	111.27
847.297	96.94
847.473	180.9
847.648	107.18
847.824	88.75
847.999	80.55
848.175	137.9
848.35	121.51
848.526	228.01
848.701	80.55
848.876	185
849.052	113.32
849.227	31.4
849.403	121.51
849.578	225.96
849.753	113.32
849.929	182.95
850.104	62.12
850.279	62.12
850.454	82.6
850.63	131.75
850.805	166.57
850.98	96.94
851.155	123.56
851.33	92.84
851.505	64.17
851.681	64.17
851.856	84.65
852.031	60.07
852.206	101.03
852.381	156.33
852.556	80.55
852.731	127.66
852.906	135.85
853.081	107.18
853.256	123.56
853.431	121.51
853.606	80.55
853.781	88.75
853.956	33.45
854.131	64.17
854.305	105.13
854.48	55.98
854.655	45.74
854.83	88.75
855.005	72.36
855.18	53.93
855.354	72.36
855.529	27.31
855.704	72.36
855.879	105.13
856.053	76.46
856.228	109.22
856.403	80.55
856.577	84.65
856.752	49.83
856.926	66.22
857.101	144.04
857.276	43.69
857.45	62.12
857.625	176.81
857.799	94.89
857.974	39.59
858.148	-1.37
858.323	68.27
858.497	72.36
858.672	144.04
858.846	39.59
859.02	215.72
859.195	141.99
859.369	55.98
859.543	103.08
859.718	39.59
859.892	31.4
860.066	78.51
860.241	45.74
860.415	45.74
860.589	47.79
860.763	80.55
860.938	70.31
861.112	86.7
861.286	39.59
861.46	137.9
861.634	70.31
861.808	131.75
861.982	64.17
862.157	60.07
862.331	23.21
862.505	58.03
862.679	60.07
862.853	68.27
863.027	2.73
863.201	127.66
863.375	12.97
863.549	133.8
863.722	62.12
863.896	129.7
864.07	53.93
864.244	43.69
864.418	43.69
864.592	45.74
864.766	23.21
864.939	31.4
865.113	47.79
865.287	51.88
865.461	127.66
865.634	55.98
865.808	4.78
865.982	72.36
866.156	-68.95
866.329	6.83
866.503	74.41
866.676	96.94
866.85	111.27
867.024	37.55
867.197	53.93
867.371	72.36
867.544	-5.46
867.718	-36.18
867.891	19.11
868.065	-9.56
868.238	37.55
868.412	101.03
868.585	19.11
868.759	101.03
868.932	121.51
869.105	80.55
869.279	107.18
869.452	4.78
869.625	35.5
869.799	19.11
869.972	51.88
870.145	-50.52
870.319	103.08
870.492	10.92
870.665	-17.75
870.838	45.74
871.011	58.03
871.185	37.55
871.358	76.46
871.531	86.7
871.704	19.11
871.877	53.93
872.05	117.42
872.223	47.79
872.396	121.51
872.569	4.78
872.742	-9.56
872.915	64.17
873.088	49.83
873.261	2.73
873.434	45.74
873.607	127.66
873.78	35.5
873.953	-60.76
874.126	90.79
874.299	60.07
874.471	4.78
874.644	-1.37
874.817	23.21
874.99	101.03
875.163	6.83
875.335	12.97
875.508	10.92
875.681	-9.56
875.853	6.83
876.026	103.08
876.199	43.69
876.371	82.6
876.544	12.97
876.717	23.21
876.889	66.22
877.062	19.11
877.234	-46.42
877.407	21.16
877.579	80.55
877.752	35.5
877.924	0.68
878.097	39.59
878.269	86.7
878.442	43.69
878.614	80.55
878.786	98.99
878.959	86.7
879.131	29.35
879.303	2.73
879.476	68.27
879.648	12.97
879.82	43.69
879.993	55.98
880.165	127.66
880.337	-23.89
880.509	10.92
880.681	64.17
880.854	62.12
881.026	17.07
881.198	129.7
881.37	88.75
881.542	72.36
881.714	37.55
881.886	72.36
882.058	62.12
882.23	41.64
882.402	37.55
882.574	80.55
882.746	35.5
882.918	76.46
883.09	60.07
883.262	94.89
883.434	66.22
883.606	58.03
883.778	-17.75
883.95	105.13
884.122	0.68
884.293	72.36
884.465	80.55
884.637	64.17
884.809	29.35
884.98	43.69
885.152	39.59
885.324	-13.65
885.496	10.92
885.667	12.97
885.839	-15.7
886.011	78.51
886.182	2.73
886.354	55.98
886.525	2.73
886.697	64.17
886.869	6.83
887.04	-21.85
887.212	62.12
887.383	53.93
887.555	19.11
887.726	-34.13
887.897	-11.61
888.069	43.69
888.24	49.83
888.412	55.98
888.583	17.07
888.754	80.55
888.926	4.78
889.097	-1.37
889.268	-75.09
889.44	15.02
889.611	-7.51
889.782	43.69
889.953	-68.95
890.125	66.22
890.296	23.21
890.467	23.21
890.638	64.17
890.809	53.93
890.98	-1.37
891.151	19.11
891.323	12.97
891.494	80.55
891.665	-34.13
891.836	43.69
892.007	47.79
892.178	51.88
892.349	10.92
892.52	-11.61
892.691	101.03
892.862	-42.32
893.032	10.92
893.203	15.02
893.374	-25.94
893.545	121.51
893.716	25.26
893.887	68.27
894.057	-56.66
894.228	39.59
894.399	31.4
894.57	80.55
894.74	37.55
894.911	64.17
895.082	64.17
895.253	-11.61
895.423	51.88
895.594	21.16
895.764	55.98
895.935	-44.37
896.106	45.74
896.276	-5.46
896.447	27.31
896.617	-58.71
896.788	-5.46
896.958	6.83
897.129	23.21
897.299	37.55
897.47	103.08
897.64	80.55
897.81	31.4
897.981	23.21
898.151	47.79
898.322	21.16
898.492	117.42
898.662	2.73
898.832	-25.94
899.003	45.74
899.173	4.78
899.343	68.27
899.513	-19.8
