Data from USB4F104151__9__11-29-37-368.txt Node

Date: Fri Mar 14 11:29:37 EDT 2025
User: louis
Spectrometer: USB4F10415
Trigger mode: 4
Integration Time (sec): 5.000000E-2
Scans to average: 1
Electric dark correction enabled: true
Nonlinearity correction enabled: false
Boxcar width: 0
XAxis mode: Wavelengths
Number of Pixels in Spectrum: 3648
>>>>>Begin Spectral Data<<<<<
178.204	-144.72
178.424	-144.72
178.644	-144.72
178.864	-122.2
179.084	-48.47
179.304	29.35
179.524	-44.37
179.744	-27.99
179.964	4.78
180.184	21.16
180.404	-3.41
180.624	10.92
180.844	45.74
181.064	-68.95
181.283	31.4
181.503	-44.37
181.723	45.74
181.943	-48.47
182.163	47.79
182.383	2.73
182.602	86.7
182.822	125.61
183.042	86.7
183.262	-68.95
183.482	15.02
183.701	-3.41
183.921	68.27
184.141	103.08
184.361	47.79
184.58	78.51
184.8	78.51
185.02	62.12
185.239	12.97
185.459	92.84
185.679	64.17
185.898	17.07
186.118	29.35
186.338	101.03
186.557	27.31
186.777	-21.84
186.997	107.18
187.216	27.31
187.436	66.22
187.655	27.31
187.875	92.84
188.095	-15.7
188.314	78.51
188.534	119.46
188.753	88.75
188.973	92.84
189.192	29.35
189.412	41.64
189.631	45.74
189.851	66.22
190.07	70.31
190.29	-32.08
190.509	-19.8
190.729	27.31
190.948	27.31
191.168	168.62
191.387	82.6
191.607	-5.46
191.826	17.07
192.045	76.46
192.265	21.16
192.484	70.31
192.704	23.21
192.923	-30.04
193.142	113.32
193.362	53.93
193.581	113.32
193.8	43.69
194.02	74.41
194.239	62.12
194.458	58.03
194.678	12.97
194.897	-3.41
195.116	39.59
195.335	53.93
195.555	27.31
195.774	64.17
195.993	41.64
196.212	58.03
196.432	-17.75
196.651	70.31
196.87	4.78
197.089	58.03
197.308	47.79
197.528	-13.65
197.747	-120.15
197.966	29.35
198.185	115.37
198.404	53.93
198.623	53.93
198.842	55.98
199.062	53.93
199.281	144.04
199.5	74.41
199.719	-44.37
199.938	58.03
200.157	66.22
200.376	2.73
200.595	51.88
200.814	37.55
201.033	-13.65
201.252	103.08
201.471	84.65
201.69	37.55
201.909	117.42
202.128	94.89
202.347	55.98
202.566	25.26
202.785	41.64
203.004	-87.38
203.223	160.42
203.442	-23.89
203.661	-32.08
203.879	107.18
204.098	103.08
204.317	-30.04
204.536	27.31
204.755	25.26
204.974	101.03
205.193	49.83
205.411	123.56
205.63	-15.7
205.849	78.51
206.068	29.35
206.287	15.02
206.505	76.46
206.724	21.16
206.943	96.94
207.162	21.16
207.381	35.5
207.599	12.97
207.818	33.45
208.037	27.31
208.255	76.46
208.474	29.35
208.693	76.46
208.911	47.79
209.13	29.35
209.349	33.45
209.567	68.27
209.786	58.03
210.005	47.79
210.223	111.27
210.442	-38.23
210.661	84.65
210.879	4.78
211.098	64.17
211.316	66.22
211.535	45.74
211.753	27.31
211.972	66.22
212.191	78.51
212.409	21.16
212.628	66.22
212.846	15.02
213.065	70.31
213.283	72.36
213.502	37.55
213.72	53.93
213.938	-19.8
214.157	31.4
214.375	94.89
214.594	-25.94
214.812	78.51
215.031	33.45
215.249	68.27
215.467	4.78
215.686	37.55
215.904	66.22
216.122	-3.41
216.341	53.93
216.559	0.68
216.778	4.78
216.996	53.93
217.214	51.88
217.432	39.59
217.651	39.59
217.869	76.46
218.087	86.7
218.306	35.5
218.524	64.17
218.742	10.92
218.96	27.31
219.179	-79.19
219.397	111.27
219.615	88.75
219.833	21.16
220.051	78.51
220.27	60.07
220.488	35.5
220.706	103.08
220.924	25.26
221.142	2.73
221.36	10.92
221.578	103.08
221.796	17.07
222.015	-7.51
222.233	49.83
222.451	72.36
222.669	-3.41
222.887	51.88
223.105	21.16
223.323	55.98
223.541	17.07
223.759	-3.41
223.977	-46.42
224.195	70.31
224.413	43.69
224.631	-3.41
224.849	0.68
225.067	90.79
225.285	-66.9
225.503	-44.37
225.721	10.92
225.939	78.51
226.157	8.87
226.375	70.31
226.592	94.89
226.81	-5.46
227.028	62.12
227.246	94.89
227.464	51.88
227.682	86.7
227.9	2.73
228.117	101.03
228.335	60.07
228.553	92.84
228.771	-5.46
228.989	35.5
229.206	49.83
229.424	76.46
229.642	15.02
229.86	58.03
230.077	84.65
230.295	27.31
230.513	45.74
230.731	70.31
230.948	92.84
231.166	86.7
231.384	68.27
231.601	84.65
231.819	76.46
232.037	-11.61
232.254	60.07
232.472	-3.41
232.689	53.93
232.907	43.69
233.125	-5.46
233.342	-11.61
233.56	58.03
233.777	-3.41
233.995	35.5
234.213	-27.99
234.43	66.22
234.648	98.99
234.865	86.7
235.083	27.31
235.3	103.08
235.518	72.36
235.735	47.79
235.953	47.79
236.17	-5.46
236.388	12.97
236.605	12.97
236.822	51.88
237.04	27.31
237.257	-30.04
237.475	35.5
237.692	37.55
237.909	17.07
238.127	17.07
238.344	144.04
238.562	37.55
238.779	2.73
238.996	27.31
239.214	6.83
239.431	98.99
239.648	-15.7
239.865	78.51
240.083	94.89
240.3	-48.47
240.517	29.35
240.735	80.55
240.952	70.31
241.169	49.83
241.386	17.07
241.603	10.92
241.821	8.87
242.038	70.31
242.255	90.79
242.472	-19.8
242.689	103.08
242.907	25.26
243.124	62.12
243.341	41.64
243.558	15.02
243.775	8.87
243.992	8.87
244.209	60.07
244.426	17.07
244.643	78.51
244.86	31.4
245.078	119.46
245.295	62.12
245.512	19.11
245.729	-19.8
245.946	41.64
246.163	8.87
246.38	8.87
246.597	53.93
246.814	-23.89
247.031	29.35
247.248	45.74
247.464	101.03
247.681	8.87
247.898	49.83
248.115	49.83
248.332	-3.41
248.549	117.42
248.766	70.31
248.983	47.79
249.2	41.64
249.417	78.51
249.633	6.83
249.85	82.6
250.067	78.51
250.284	58.03
250.501	35.5
250.717	98.99
250.934	19.11
251.151	0.68
251.368	62.12
251.585	109.23
251.801	10.92
252.018	41.64
252.235	60.07
252.451	6.83
252.668	90.79
252.885	68.27
253.102	62.12
253.318	12.97
253.535	27.31
253.752	35.5
253.968	-11.61
254.185	-30.04
254.401	62.12
254.618	31.4
254.835	88.75
255.051	131.75
255.268	15.02
255.484	127.66
255.701	-15.7
255.917	135.85
256.134	21.16
256.351	10.92
256.567	19.11
256.784	0.68
257	2.73
257.217	45.74
257.433	-27.99
257.65	68.27
257.866	49.83
258.082	29.35
258.299	21.16
258.515	10.92
258.732	-13.65
258.948	60.07
259.165	-3.41
259.381	62.12
259.597	15.02
259.814	6.83
260.03	21.16
260.246	33.45
260.463	111.27
260.679	88.75
260.895	53.93
261.112	76.46
261.328	6.83
261.544	41.64
261.761	162.47
261.977	53.93
262.193	23.21
262.409	37.55
262.626	8.87
262.842	74.41
263.058	-3.41
263.274	49.83
263.49	31.4
263.707	86.7
263.923	70.31
264.139	35.5
264.355	96.94
264.571	86.7
264.787	68.27
265.004	103.08
265.22	62.12
265.436	4.78
265.652	55.98
265.868	-21.84
266.084	19.11
266.3	4.78
266.516	-19.8
266.732	64.17
266.948	15.02
267.164	62.12
267.38	111.27
267.596	70.31
267.812	33.45
268.028	78.51
268.244	70.31
268.46	62.12
268.676	23.21
268.892	109.23
269.108	-7.51
269.324	0.68
269.54	-17.75
269.756	64.17
269.972	60.07
270.188	37.55
270.403	-3.41
270.619	2.73
270.835	45.74
271.051	94.89
271.267	35.5
271.483	27.31
271.698	127.66
271.914	8.87
272.13	6.83
272.346	21.16
272.562	21.16
272.777	43.69
272.993	31.4
273.209	33.45
273.425	127.66
273.64	17.07
273.856	115.37
274.072	-56.66
274.287	-32.08
274.503	10.92
274.719	101.03
274.934	-19.8
275.15	25.26
275.366	27.31
275.581	8.87
275.797	78.51
276.012	84.65
276.228	66.22
276.444	53.93
276.659	123.56
276.875	72.36
277.09	45.74
277.306	92.84
277.521	58.03
277.737	17.07
277.952	41.64
278.168	33.45
278.383	58.03
278.599	-30.04
278.814	86.7
279.03	8.87
279.245	123.56
279.461	-38.23
279.676	82.6
279.892	45.74
280.107	-46.42
280.322	17.07
280.538	64.17
280.753	86.7
280.969	58.03
281.184	39.59
281.399	107.18
281.615	51.88
281.83	66.22
282.045	33.45
282.26	119.46
282.476	45.74
282.691	84.65
282.906	62.12
283.122	53.93
283.337	37.55
283.552	53.93
283.767	-36.18
283.983	21.16
284.198	43.69
284.413	43.69
284.628	31.4
284.843	84.65
285.058	78.51
285.274	45.74
285.489	-38.23
285.704	53.93
285.919	33.45
286.134	62.12
286.349	12.97
286.564	12.97
286.779	107.18
286.995	-36.18
287.21	49.83
287.425	78.51
287.64	41.64
287.855	45.74
288.07	-32.08
288.285	51.88
288.5	62.12
288.715	35.5
288.93	29.35
289.145	-3.41
289.36	98.99
289.575	78.51
289.79	137.9
290.004	62.12
290.219	58.03
290.434	33.45
290.649	43.69
290.864	-1.37
291.079	-36.18
291.294	10.92
291.509	94.89
291.724	4.78
291.938	35.5
292.153	76.46
292.368	2.73
292.583	-13.65
292.798	94.89
293.012	70.31
293.227	55.98
293.442	33.45
293.657	90.79
293.871	101.03
294.086	90.79
294.301	82.6
294.516	113.32
294.73	37.55
294.945	29.35
295.16	4.78
295.374	94.89
295.589	80.55
295.804	15.02
296.018	17.07
296.233	90.79
296.447	37.55
296.662	10.92
296.877	70.31
297.091	125.61
297.306	76.46
297.52	-13.65
297.735	49.83
297.949	37.55
298.164	53.93
298.378	31.4
298.593	-19.8
298.807	-17.75
299.022	107.18
299.236	70.31
299.451	64.17
299.665	41.64
299.88	92.84
300.094	66.22
300.309	2.73
300.523	64.17
300.737	66.22
300.952	90.79
301.166	92.84
301.381	62.12
301.595	35.5
301.809	37.55
302.024	53.93
302.238	10.92
302.452	62.12
302.667	41.64
302.881	111.27
303.095	84.65
303.309	84.65
303.524	19.11
303.738	72.36
303.952	17.07
304.166	17.07
304.381	-36.18
304.595	45.74
304.809	-52.56
305.023	4.78
305.237	82.6
305.452	49.83
305.666	60.07
305.88	47.79
306.094	25.26
306.308	45.74
306.522	60.07
306.736	68.27
306.95	111.27
307.164	88.75
307.379	84.65
307.593	-19.8
307.807	84.65
308.021	45.74
308.235	62.12
308.449	29.35
308.663	39.59
308.877	107.18
309.091	31.4
309.305	35.5
309.519	2.73
309.733	51.88
309.947	2.73
310.161	62.12
310.374	98.99
310.588	66.22
310.802	-46.42
311.016	-5.46
311.23	45.74
311.444	-3.41
311.658	-5.46
311.872	88.75
312.085	12.97
312.299	127.66
312.513	51.88
312.727	29.35
312.941	21.16
313.154	62.12
313.368	119.46
313.582	49.83
313.796	76.46
314.009	62.12
314.223	70.31
314.437	64.17
314.651	19.11
314.864	62.12
315.078	35.5
315.292	21.16
315.505	4.78
315.719	43.69
315.933	45.74
316.146	90.79
316.36	-3.41
316.573	127.66
316.787	10.92
317.001	101.03
317.214	78.51
317.428	53.93
317.641	35.5
317.855	62.12
318.068	-3.41
318.282	-19.8
318.495	94.89
318.709	-19.8
318.922	-11.61
319.136	96.94
319.349	43.69
319.563	86.7
319.776	78.51
319.99	70.31
320.203	131.75
320.417	-13.65
320.63	27.31
320.843	158.38
321.057	101.03
321.27	113.32
321.483	88.75
321.697	158.38
321.91	-11.61
322.124	4.78
322.337	23.21
322.55	-15.7
322.763	33.45
322.977	37.55
323.19	-7.51
323.403	72.36
323.617	33.45
323.83	103.08
324.043	21.16
324.256	12.97
324.469	27.31
324.683	78.51
324.896	10.92
325.109	68.27
325.322	0.68
325.535	94.89
325.748	49.83
325.962	60.07
326.175	37.55
326.388	12.97
326.601	37.55
326.814	53.93
327.027	123.56
327.24	113.32
327.453	-7.51
327.666	115.37
327.879	62.12
328.092	33.45
328.305	43.69
328.518	31.4
328.731	78.51
328.944	117.42
329.157	25.26
329.37	-27.99
329.583	88.75
329.796	70.31
330.009	-15.7
330.222	127.66
330.435	37.55
330.648	103.08
330.861	58.03
331.073	74.41
331.286	21.16
331.499	86.7
331.712	-60.76
331.925	17.07
332.138	17.07
332.35	94.89
332.563	-17.75
332.776	94.89
332.989	41.64
333.202	113.32
333.414	10.92
333.627	139.94
333.84	60.07
334.053	25.26
334.265	53.93
334.478	-5.46
334.691	-21.84
334.903	8.87
335.116	82.6
335.329	62.12
335.541	29.35
335.754	86.7
335.966	98.99
336.179	92.84
336.392	41.64
336.604	-19.8
336.817	35.5
337.029	31.4
337.242	27.31
337.454	62.12
337.667	19.11
337.88	33.45
338.092	-5.46
338.305	125.61
338.517	-3.41
338.729	72.36
338.942	90.79
339.154	35.5
339.367	-32.08
339.579	62.12
339.792	88.75
340.004	70.31
340.217	45.74
340.429	68.27
340.641	15.02
340.854	60.07
341.066	76.46
341.278	43.69
341.491	107.18
341.703	19.11
341.915	78.51
342.128	68.27
342.34	45.74
342.552	-36.18
342.764	-7.51
342.977	43.69
343.189	53.93
343.401	86.7
343.613	27.31
343.826	92.84
344.038	-19.8
344.25	53.93
344.462	74.41
344.674	154.28
344.886	25.26
345.099	53.93
345.311	70.31
345.523	78.51
345.735	-3.41
345.947	92.84
346.159	60.07
346.371	82.6
346.583	62.12
346.795	125.61
347.007	98.99
347.219	-40.28
347.431	41.64
347.643	90.79
347.855	62.12
348.067	105.13
348.279	-19.8
348.491	49.83
348.703	78.51
348.915	33.45
349.127	17.07
349.339	41.64
349.551	41.64
349.763	53.93
349.975	35.5
350.187	41.64
350.399	94.89
350.61	21.16
350.822	37.55
351.034	35.5
351.246	-9.56
351.458	49.83
351.669	74.41
351.881	117.42
352.093	105.13
352.305	12.97
352.517	101.03
352.728	168.62
352.94	53.93
353.152	78.51
353.363	62.12
353.575	29.35
353.787	168.62
353.999	125.61
354.21	82.6
354.422	25.26
354.633	39.59
354.845	-5.46
355.057	76.46
355.268	58.03
355.48	111.27
355.692	62.12
355.903	-21.84
356.115	33.45
356.326	68.27
356.538	178.86
356.749	45.74
356.961	94.89
357.172	31.4
357.384	29.35
357.595	107.18
357.807	94.89
358.018	33.45
358.23	25.26
358.441	29.35
358.653	10.92
358.864	25.26
359.075	37.55
359.287	35.5
359.498	166.57
359.709	62.12
359.921	37.55
360.132	33.45
360.344	62.12
360.555	62.12
360.766	33.45
360.977	41.64
361.189	84.65
361.4	4.78
361.611	82.6
361.823	37.55
362.034	33.45
362.245	37.55
362.456	4.78
362.667	78.51
362.879	21.16
363.09	53.93
363.301	58.03
363.512	49.83
363.723	51.88
363.935	70.31
364.146	90.79
364.357	72.36
364.568	111.27
364.779	27.31
364.99	111.27
365.201	119.46
365.412	-19.8
365.623	-52.56
365.834	29.35
366.045	76.46
366.256	92.84
366.467	84.65
366.678	25.26
366.889	127.66
367.1	49.83
367.311	12.97
367.522	17.07
367.733	96.94
367.944	78.51
368.155	70.31
368.366	-13.65
368.577	74.41
368.788	43.69
368.999	33.45
369.209	60.07
369.42	90.79
369.631	176.81
369.842	49.83
370.053	33.45
370.264	49.83
370.474	-13.65
370.685	121.51
370.896	17.07
371.107	111.27
371.317	62.12
371.528	53.93
371.739	185
371.95	74.41
372.16	84.65
372.371	35.5
372.582	92.84
372.792	86.7
373.003	-9.56
373.214	107.18
373.424	98.99
373.635	45.74
373.846	66.22
374.056	62.12
374.267	94.89
374.477	37.55
374.688	10.92
374.898	33.45
375.109	21.16
375.319	90.79
375.53	62.12
375.74	70.31
375.951	94.89
376.161	45.74
376.372	172.71
376.582	17.07
376.793	82.6
377.003	4.78
377.214	117.42
377.424	90.79
377.635	47.79
377.845	-44.37
378.055	168.62
378.266	-27.99
378.476	35.5
378.686	98.99
378.897	76.46
379.107	51.88
379.317	25.26
379.528	111.27
379.738	47.79
379.948	19.11
380.158	37.55
380.369	74.41
380.579	41.64
380.789	4.78
380.999	156.33
381.21	125.61
381.42	74.41
381.63	39.59
381.84	68.27
382.05	121.51
382.261	17.07
382.471	68.27
382.681	-21.84
382.891	115.37
383.101	82.6
383.311	111.27
383.521	-5.46
383.731	86.7
383.941	135.85
384.151	19.11
384.361	47.79
384.571	47.79
384.781	21.16
384.991	113.32
385.201	133.8
385.411	78.51
385.621	98.99
385.831	45.74
386.041	25.26
386.251	58.03
386.461	146.09
386.671	119.46
386.881	25.26
387.091	2.73
387.301	29.35
387.511	43.69
387.72	92.84
387.93	92.84
388.14	66.22
388.35	17.07
388.56	209.58
388.769	101.03
388.979	125.61
389.189	66.22
389.399	141.99
389.609	86.7
389.818	107.18
390.028	60.07
390.238	144.04
390.447	45.74
390.657	68.27
390.867	49.83
391.076	45.74
391.286	-3.41
391.496	53.93
391.705	164.52
391.915	166.57
392.125	144.04
392.334	-21.84
392.544	62.12
392.753	150.18
392.963	4.78
393.172	53.93
393.382	68.27
393.591	160.42
393.801	55.98
394.01	123.56
394.22	92.84
394.429	82.6
394.639	84.65
394.848	156.33
395.058	64.17
395.267	66.22
395.477	64.17
395.686	86.7
395.895	90.79
396.105	137.9
396.314	51.88
396.524	76.46
396.733	123.56
396.942	178.86
397.152	150.18
397.361	101.03
397.57	98.99
397.78	156.33
397.989	62.12
398.198	135.85
398.407	187.05
398.617	119.46
398.826	117.42
399.035	60.07
399.244	31.4
399.453	144.04
399.663	154.28
399.872	144.04
400.081	62.12
400.29	78.51
400.499	133.8
400.708	76.46
400.917	135.85
401.127	78.51
401.336	107.18
401.545	131.75
401.754	107.18
401.963	168.62
402.172	156.33
402.381	82.6
402.59	141.99
402.799	158.38
403.008	150.18
403.217	70.31
403.426	193.19
403.635	133.8
403.844	129.7
404.053	62.12
404.262	154.28
404.471	207.53
404.68	172.71
404.888	193.19
405.097	76.46
405.306	164.52
405.515	199.34
405.724	127.66
405.933	217.77
406.142	195.24
406.35	168.62
406.559	125.61
406.768	250.53
406.977	234.15
407.185	158.38
407.394	225.96
407.603	185
407.812	250.53
408.02	281.25
408.229	205.48
408.438	238.25
408.646	217.77
408.855	266.92
409.064	266.92
409.272	232.1
409.481	221.86
409.69	232.1
409.898	281.25
410.107	223.91
410.315	289.45
410.524	332.45
410.733	301.73
410.941	248.49
411.15	336.55
411.358	295.59
411.567	447.14
411.775	377.51
411.984	422.56
412.192	410.28
412.401	418.47
412.609	527.01
412.818	445.09
413.026	422.56
413.234	434.85
413.443	445.09
413.651	475.81
413.86	594.59
414.068	737.95
414.276	518.82
414.485	524.96
414.693	635.55
414.901	613.03
415.11	660.13
415.318	656.03
415.526	709.28
415.734	723.62
415.943	772.77
416.151	799.39
416.359	696.99
416.567	873.12
416.776	914.08
416.984	791.2
417.192	887.45
417.4	1028.76
417.608	916.12
417.817	922.27
418.025	965.28
418.233	1088.15
418.441	1079.96
418.649	1139.35
418.857	1204.89
419.065	1204.89
419.273	1125.02
419.481	1270.42
419.689	1327.77
419.897	1389.21
420.105	1274.52
420.313	1495.7
420.521	1536.66
420.729	1512.08
420.937	1503.89
421.145	1630.87
421.353	1774.22
421.561	1811.09
421.769	1839.76
421.977	1796.75
422.185	1870.48
422.393	1989.26
422.601	2114.19
422.809	2071.18
423.017	2097.8
423.224	2261.64
423.432	2337.41
423.64	2323.08
423.848	2454.15
424.056	2478.72
424.263	2585.22
424.471	2663.04
424.679	2624.13
424.887	2714.24
425.094	2880.13
425.302	3074.68
425.51	3043.96
425.718	3172.99
425.925	3109.5
426.133	3279.48
426.341	3297.91
426.548	3580.53
426.756	3623.54
426.964	3609.2
427.171	3723.89
427.379	4047.47
427.586	4026.99
427.794	4115.05
428.001	4319.85
428.209	4530.79
428.417	4467.3
428.624	4643.43
428.832	4672.1
429.039	4649.57
429.247	4817.51
429.454	5057.12
429.662	5583.45
429.869	5169.76
430.076	5610.07
430.284	5485.14
430.491	5648.98
430.699	6093.39
430.906	5849.68
431.114	5947.98
431.321	6148.68
431.528	6482.5
431.736	6842.95
431.943	7117.37
432.15	6869.57
432.358	6890.05
432.565	7242.3
432.772	7279.16
432.979	7922.23
433.187	7729.72
433.394	7770.68
433.601	8270.38
433.808	8307.24
434.016	8376.87
434.223	8890.91
434.43	9189.92
434.637	9099.81
434.844	9583.13
435.052	9724.44
435.259	9785.88
435.466	9933.33
435.673	9712.15
435.88	10611.21
436.087	11012.61
436.294	10969.6
436.501	10916.36
436.708	10971.65
436.915	11334.14
437.122	11919.86
437.329	11899.38
437.537	12083.7
437.743	12378.61
437.95	12474.86
438.157	12855.78
438.364	13230.56
438.571	13130.21
438.778	13308.38
438.985	14688.71
439.192	14029.27
439.399	14590.41
439.606	13988.31
439.813	14957
440.02	15675.84
440.227	15403.46
440.433	15712.7
440.64	15946.17
440.847	16107.96
441.054	16361.9
441.261	17267.11
441.467	17293.73
441.674	17396.13
441.881	17994.14
442.088	18100.63
442.294	17805.72
442.501	18219.41
442.708	18801.04
442.914	19421.57
443.121	20547.95
443.328	19765.63
443.534	21258.6
443.741	20490.61
443.948	20302.2
444.154	21963.1
444.361	21721.44
444.568	21782.88
444.774	21582.18
444.981	22042.97
445.187	22872.4
445.394	23687.49
445.6	23439.68
445.807	25819.42
446.013	24647.99
446.22	25076.01
446.426	26073.37
446.633	25997.6
446.839	26958.1
447.046	26026.27
447.252	27371.78
447.459	27347.21
447.665	27179.28
447.871	28520.7
448.078	29806.82
448.284	28229.88
448.491	29098.22
448.697	30144.73
448.903	30746.84
449.11	30822.61
449.316	29964.51
449.522	30755.03
449.728	31619.27
449.935	32010.43
450.141	31744.2
450.347	32344.25
450.553	31240.4
450.76	31652.04
450.966	32874.68
451.172	32415.93
451.378	33325.23
451.584	32952.5
451.791	33253.55
451.997	33290.41
452.203	33431.72
452.409	33613.99
452.615	33695.91
452.821	32385.21
453.027	31834.31
453.233	33454.25
453.44	32444.6
453.646	32172.22
453.852	32858.29
454.058	33292.46
454.264	31846.6
454.47	32757.94
454.676	31523.02
454.882	32995.51
455.088	30253.28
455.294	30593.24
455.5	31279.31
455.705	31375.56
455.911	29989.09
456.117	29378.79
456.323	29016.3
456.529	27404.55
456.735	28707.06
456.941	27957.5
457.147	27451.66
457.352	26540.31
457.558	26087.71
457.764	26388.76
457.97	25803.04
458.176	24967.47
458.381	25090.35
458.587	24086.84
458.793	24191.29
458.999	22387.03
459.204	24224.06
459.41	23310.66
459.616	21676.38
459.821	21961.05
460.027	21991.77
460.233	21571.94
460.438	20400.5
460.644	20783.47
460.85	19747.2
461.055	19356.04
461.261	19091.85
461.466	18014.62
461.672	17303.97
461.878	18682.25
462.083	17535.39
462.289	17269.16
462.494	16941.48
462.7	16146.87
462.905	15583.68
463.111	16216.5
463.316	16429.49
463.522	16062.9
463.727	15956.41
463.932	15983.03
464.138	15751.61
464.343	15739.32
464.549	15292.87
464.754	16175.54
464.959	15722.94
465.165	15763.9
465.37	14756.3
465.575	14680.52
465.781	15151.56
465.986	15421.89
466.191	14799.3
466.397	14393.81
466.602	13861.34
466.807	14090.71
467.012	14062.04
467.218	14320.08
467.423	13961.69
467.628	14275.02
467.833	14557.64
468.038	14062.04
468.244	13562.33
468.449	14125.52
468.654	13656.54
468.859	13715.93
469.064	13611.48
469.269	13040.1
469.474	13042.15
469.679	13421.02
469.885	12861.93
470.09	13019.62
470.295	13029.86
470.5	12853.73
470.705	12820.97
470.91	12552.68
471.115	12595.69
471.32	12493.29
471.525	12616.17
471.73	12313.07
471.935	12038.64
472.139	11946.48
472.344	12098.03
472.549	11758.07
472.754	11858.42
472.959	11411.96
473.164	11254.27
473.369	11147.78
473.574	11401.72
473.778	11414.01
473.983	11213.31
474.188	11084.29
474.393	10619.4
474.598	10633.74
474.802	10711.56
475.007	10523.15
475.212	10244.62
475.417	10164.75
475.621	10205.71
475.826	10457.61
476.031	9972.24
476.235	9810.45
476.44	9914.9
476.645	9849.36
476.849	9765.4
477.054	9634.33
477.259	9351.71
477.463	9450.01
477.668	9337.37
477.872	9611.8
478.077	9327.13
478.282	8940.07
478.486	8882.72
478.691	8870.44
478.895	8856.1
479.1	8700.45
479.304	8884.77
479.509	8796.71
479.713	8735.27
479.918	8665.64
480.122	8419.88
480.326	8368.68
480.531	8505.9
480.735	8546.86
480.94	8254
481.144	8524.33
481.348	8141.36
481.553	8385.07
481.757	8131.12
481.961	8208.94
482.166	8303.15
482.37	8354.35
482.574	8227.37
482.778	8153.65
482.983	8458.79
483.187	8153.65
483.391	8204.85
483.595	8016.43
483.8	8096.3
484.004	8301.1
484.208	8438.31
484.412	8243.76
484.616	8049.2
484.821	8241.71
485.025	8043.06
485.229	8135.21
485.433	8055.34
485.637	8256.04
485.841	8176.17
486.045	8352.3
486.249	8356.4
486.453	7967.28
486.657	8278.57
486.861	8000.05
487.065	7891.51
487.269	8098.35
487.473	8231.47
487.677	8147.5
487.881	8284.72
488.085	8194.61
488.289	8204.85
488.493	8120.88
488.697	8145.45
488.901	7950.9
489.105	8221.23
489.309	8294.96
489.512	8331.82
489.716	8274.48
489.92	8127.02
490.124	8182.32
490.328	8555.05
490.531	8393.26
490.735	8417.83
490.939	8448.55
491.143	8393.26
491.346	8251.95
491.55	8507.94
491.754	8524.33
491.958	8520.23
492.161	8456.75
492.365	8530.47
492.569	8426.03
492.772	8585.77
492.976	8854.05
493.18	8667.69
493.383	8866.34
493.587	9036.32
493.79	8958.5
493.994	8786.47
494.197	8872.48
494.401	9067.04
494.605	9048.61
494.808	9181.73
495.012	9054.75
495.215	9372.19
495.419	9470.49
495.622	9206.3
495.825	9613.85
496.029	9478.68
496.232	9783.83
496.436	9513.5
496.639	9968.15
496.843	9769.49
497.046	10129.94
497.249	10242.57
497.453	10269.2
497.656	10269.2
497.859	10261.01
498.063	10218
498.266	10609.16
498.469	10703.37
498.673	10750.47
498.876	10721.8
499.079	10809.86
499.282	10910.21
499.485	11334.14
499.689	11125.25
499.892	11444.73
500.095	11481.6
500.298	11782.65
500.501	11739.64
500.705	12018.16
500.908	12022.26
501.111	12098.03
501.314	12376.56
501.517	12444.14
501.72	12497.39
501.923	12589.55
502.126	12788.2
502.329	13107.68
502.532	12976.61
502.735	12999.14
502.938	13449.69
503.141	13375.97
503.344	13726.17
503.547	13480.41
503.75	14031.32
503.953	13857.24
504.156	14287.31
504.359	14447.05
504.562	14422.48
504.765	14657.99
504.968	15141.32
505.17	15053.25
505.373	15073.73
505.576	15362.5
505.779	15178.18
505.982	15448.51
506.185	15878.58
506.387	15794.62
506.59	16136.63
506.793	16146.87
506.996	16345.52
507.198	16789.93
507.401	16599.47
507.604	16687.53
507.807	17254.82
508.009	17312.16
508.212	17412.51
508.415	17648.03
508.617	17934.74
508.82	17881.5
509.022	18014.62
509.225	18160.02
509.428	18579.86
509.63	18389.39
509.833	18624.91
510.035	19298.69
510.238	19061.13
510.44	19374.47
510.643	19542.4
510.845	19483.01
511.048	19632.51
511.25	20013.43
511.453	20128.12
511.655	20502.9
511.858	20380.02
512.06	20711.79
512.262	21070.19
512.465	20980.07
512.667	21401.96
512.87	21784.93
513.072	21799.26
513.274	22026.59
513.477	22120.79
513.679	22204.76
513.881	22759.76
514.084	22933.84
514.286	23034.19
514.488	22806.86
514.69	23544.13
514.893	23578.95
515.095	23427.4
515.297	23806.27
515.499	24179
515.701	24449.33
515.904	24389.94
516.106	24615.22
516.308	25102.64
516.51	25180.46
516.712	25303.34
516.914	25733.41
517.116	26003.74
517.318	26005.79
517.52	26013.98
517.722	26648.85
517.925	26722.58
518.127	27097.36
518.329	27490.57
518.531	27156.75
518.733	27824.39
518.935	27906.3
519.136	28363
519.338	28084.48
519.54	28662.01
519.742	29163.76
519.944	29006.06
520.146	29378.79
520.348	29464.81
520.55	30038.24
520.752	29835.49
520.954	30335.2
521.155	30175.45
521.357	30718.17
521.559	30892.24
521.761	31453.39
521.963	31363.28
522.164	31570.12
522.366	31533.26
522.568	32086.21
522.77	32254.14
522.971	33005.75
523.173	32532.67
523.375	32803
523.576	33196.21
523.778	33104.05
523.98	33513.64
524.181	33642.67
524.383	33876.13
524.584	34101.41
524.786	34177.19
524.988	34347.17
525.189	35018.9
525.391	34949.27
525.592	34988.18
525.794	35197.07
525.995	35430.54
526.197	35444.88
526.398	35831.94
526.6	36087.94
526.801	35924.1
527.003	36434.05
527.204	36468.86
527.406	36946.04
527.607	36823.16
527.808	37486.7
528.01	36913.27
528.211	37179.51
528.412	37736.55
528.614	37548.14
528.815	37582.96
529.016	37865.58
529.218	37646.44
529.419	38223.97
529.62	38219.88
529.822	37927.02
530.023	38187.11
530.224	38090.85
530.425	38402.14
530.626	38287.46
530.828	38498.4
531.029	39032.92
531.23	38563.93
531.431	38764.64
531.632	39262.29
531.833	39237.72
532.035	38961.24
532.236	39405.65
532.437	39395.41
532.638	38926.42
532.839	39503.95
533.04	39698.51
533.241	39319.63
533.442	40343.62
533.643	39352.4
533.844	39839.82
534.045	39743.56
534.246	39757.9
534.447	39882.83
534.648	39878.73
534.849	40269.89
535.05	39657.55
535.251	40106.05
535.451	39704.65
535.652	40294.47
535.853	39643.21
536.054	40015.94
536.255	40466.5
536.456	39893.07
536.657	40564.8
536.857	39960.65
537.058	40044.62
537.259	40505.41
537.46	40491.07
537.66	40196.17
537.861	40499.26
538.062	40337.48
538.263	40208.45
538.463	40038.47
538.664	40130.63
538.865	40089.67
539.065	40589.38
539.266	40294.47
539.466	40431.68
539.667	39762
539.868	40730.69
540.068	40347.71
540.269	40116.29
540.469	40374.34
540.67	40149.06
540.87	40220.74
541.071	40202.31
541.271	40450.11
541.472	40175.69
541.672	39829.58
541.873	40210.5
542.073	39913.55
542.274	40392.77
542.474	39784.52
542.675	40108.1
542.875	40237.12
543.075	40056.9
543.276	39587.92
543.476	40233.03
543.676	40017.99
543.877	40591.42
544.077	40044.62
544.277	40390.72
544.478	40378.43
544.678	40417.35
544.878	39874.63
545.078	40220.74
545.279	40192.07
545.479	39757.9
545.679	40560.7
545.879	40114.25
546.079	40122.44
546.28	39952.46
546.48	39770.19
546.68	40239.17
546.88	40099.91
547.08	39878.73
547.28	40032.33
547.48	40147.01
547.68	40147.01
547.88	39632.97
548.081	39997.51
548.281	40081.48
548.481	39964.74
548.681	40214.6
548.881	39991.37
549.081	39749.71
549.28	40056.9
549.48	40235.08
549.68	39841.87
549.88	40548.42
550.08	39680.08
550.28	39977.03
550.48	39581.77
550.68	40269.89
550.88	40269.89
551.08	39923.79
551.279	40276.04
551.479	39667.79
551.679	39854.15
551.879	39524.43
552.079	40171.59
552.278	39655.5
552.478	39602.25
552.678	40300.61
552.878	39970.89
553.077	39811.15
553.277	39297.11
553.477	40421.44
553.676	40001.61
553.876	39309.39
554.076	39579.73
554.275	39270.48
554.475	39053.4
554.674	39438.42
554.874	39094.36
555.074	39309.39
555.273	39524.43
555.473	39450.7
555.672	38938.71
555.872	39200.85
556.071	39188.56
556.271	39073.88
556.47	39147.61
556.67	38772.83
556.869	38922.33
557.068	38967.38
557.268	38541.41
557.467	38709.34
557.667	38711.39
557.866	38582.37
558.065	38738.01
558.265	38223.97
558.464	38189.16
558.663	38742.11
558.863	38097
559.062	38465.63
559.261	38058.09
559.461	38312.03
559.66	37226.61
559.859	37871.72
560.058	37927.02
560.258	37857.38
560.457	37191.8
560.656	37871.72
560.855	37546.09
561.054	37468.27
561.253	37386.35
561.453	37611.63
561.652	37204.08
561.851	37320.82
562.05	37167.22
562.249	36595.84
562.448	36845.69
562.647	36687.99
562.846	36790.39
563.045	36415.61
563.244	36468.86
563.443	36817.02
563.642	36124.8
563.841	36464.77
564.04	36096.13
564.239	36632.7
564.438	36196.48
564.637	35819.66
564.836	36065.41
565.035	35287.18
565.234	35903.62
565.432	35127.44
565.631	35178.64
565.83	35262.61
566.029	35240.08
566.228	35240.08
566.427	34838.68
566.625	34715.8
566.824	34199.71
567.023	34951.32
567.222	34283.68
567.42	34353.31
567.619	34173.09
567.818	34121.89
568.016	34283.68
568.215	34320.54
568.414	33896.61
568.612	34220.19
568.811	33687.72
569.01	33890.47
569.208	33378.48
569.407	33513.64
569.605	33153.2
569.804	33560.75
570.002	33173.68
570.201	33392.81
570.4	33005.75
570.598	32600.25
570.797	32334.01
570.995	32667.83
571.193	32424.12
571.392	32508.09
571.59	32307.39
571.789	31932.61
571.987	32094.4
572.186	31903.94
572.384	31592.65
572.582	31815.88
572.781	31590.6
572.979	31326.41
573.177	31246.54
573.376	31795.4
573.574	31074.51
573.772	31389.9
573.971	31105.23
574.169	30716.12
574.367	30941.39
574.565	31056.08
574.763	30390.49
574.962	30894.29
575.16	30570.71
575.358	30462.17
575.556	30011.62
575.754	30679.25
575.952	30185.69
576.151	30234.85
576.349	29810.92
576.547	29743.33
576.745	29599.97
576.943	29694.18
577.141	29298.92
577.339	29638.89
577.537	29628.65
577.735	29425.9
577.933	28922.1
578.131	29440.23
578.329	29266.16
578.527	28682.49
578.725	28903.67
578.923	29128.94
579.121	28750.07
579.319	28315.9
579.516	28399.87
579.714	28614.9
579.912	28725.49
580.11	28201.21
580.308	28244.22
580.506	28332.28
580.704	27844.87
580.901	27990.27
581.099	28137.73
581.297	27730.18
581.495	27930.88
581.692	27881.73
581.89	27414.79
582.088	27939.07
582.285	27515.14
582.483	27603.21
582.681	27324.68
582.878	27179.28
583.076	27261.19
583.274	27486.47
583.471	27001.1
583.669	26900.75
583.866	26573.08
584.064	26718.48
584.262	26349.85
584.459	26990.86
584.657	26763.54
584.854	26874.13
585.052	26116.38
585.249	26433.82
585.447	26456.34
585.644	26331.42
585.841	26136.86
586.039	26202.39
586.236	25628.96
586.434	25588
586.631	25923.87
586.828	25579.81
587.026	25784.61
587.223	25491.75
587.42	25639.2
587.618	25741.6
587.815	25190.7
588.012	25221.42
588.21	25481.51
588.407	25350.44
588.604	24842.54
588.801	24854.83
588.999	24946.99
589.196	24828.21
589.393	25002.29
589.59	24766.77
589.787	24420.66
589.984	24353.08
590.182	24265.02
590.379	24351.03
590.576	24162.62
590.773	24281.4
590.97	24043.84
591.167	24060.22
591.364	23789.89
591.561	23857.47
591.758	23601.47
591.955	23828.8
592.152	24031.55
592.349	23511.36
592.546	23759.17
592.743	23714.11
592.94	23292.23
593.137	23597.38
593.334	23570.75
593.531	22808.91
593.727	23429.45
593.924	23175.5
594.121	23255.37
594.318	22817.1
594.515	22704.46
594.712	23159.11
594.908	22630.74
595.105	22700.37
595.302	22346.07
595.499	22567.25
595.696	22346.07
595.892	22292.82
596.089	22368.6
596.286	22597.97
596.482	22149.46
596.679	22333.78
596.876	22405.46
597.072	22231.38
597.269	21967.2
597.466	21991.77
597.662	21860.7
597.859	21821.79
598.055	21733.73
598.252	21614.94
598.448	21811.55
598.645	21440.87
598.841	21291.37
599.038	21471.59
599.234	21635.42
599.431	20765.04
599.627	20930.92
599.824	21158.25
600.02	21076.33
600.217	20975.98
600.413	21125.48
600.609	20930.92
600.806	20547.95
601.002	20806
601.198	20683.12
601.395	20490.61
601.591	20564.34
601.787	20521.33
601.984	20603.25
602.18	20390.26
602.376	20351.35
602.572	20257.14
602.769	20015.48
602.965	20154.74
603.161	20169.08
603.357	19935.61
603.553	19857.79
603.75	19829.12
603.946	19825.02
604.142	19777.92
604.338	19327.36
604.534	19540.35
604.73	19298.69
604.926	19415.43
605.122	19435.91
605.318	19106.18
605.514	19366.28
605.71	19155.33
605.906	19280.26
606.102	19095.94
606.298	19343.75
606.494	18897.29
606.69	18940.3
606.886	19065.22
607.082	18729.36
607.278	18874.76
607.474	18430.35
607.67	18827.66
607.866	18573.71
608.062	18739.6
608.257	18262.42
608.453	18514.32
608.649	18508.18
608.845	18243.99
609.041	18311.57
609.236	18330
609.432	18131.35
609.628	17883.55
609.824	18084.25
610.019	18348.43
610.215	18086.29
610.411	18260.37
610.606	17875.35
610.802	17951.13
610.998	17863.07
611.193	17590.69
611.389	17887.64
611.584	17756.57
611.78	17772.96
611.976	17899.93
612.171	17920.41
612.367	17781.15
612.562	17541.53
612.758	17306.02
612.953	17693.08
613.149	17437.09
613.344	17375.65
613.539	17641.89
613.735	17785.24
613.93	17359.27
614.126	17396.13
614.321	17457.57
614.517	17162.66
614.712	17437.09
614.907	17277.35
615.103	17609.12
615.298	17140.13
615.493	17090.98
615.688	16726.44
615.884	17156.52
616.079	16925.1
616.274	16800.17
616.47	16906.66
616.665	16849.32
616.86	16888.23
617.055	16927.14
617.25	16703.92
617.445	17097.13
617.641	16472.5
617.836	16595.37
618.031	16277.94
618.226	16396.72
618.421	16525.74
618.616	16626.09
618.811	16380.34
619.006	16425.39
619.201	16003.51
619.396	16497.07
619.591	15925.69
619.786	16169.4
619.981	15733.18
620.176	16083.38
620.371	15735.23
620.566	15827.39
620.761	15548.86
620.956	15954.36
621.151	15516.09
621.346	15378.88
621.541	15411.65
621.735	15495.61
621.93	15389.12
622.125	15282.63
622.32	14909.9
622.515	15051.2
622.709	15241.67
622.904	15147.46
623.099	14805.45
623.294	14821.83
623.488	14508.49
623.683	14701
623.878	14373.33
624.072	14533.07
624.267	14320.08
624.462	14555.6
624.656	14070.23
624.851	14092.76
625.046	14053.84
625.24	13898.2
625.435	13873.62
625.629	13887.96
625.824	13885.91
626.018	13783.51
626.213	13468.13
626.407	13842.9
626.602	13154.79
626.796	13498.84
626.991	13560.28
627.185	13263.33
627.38	13212.13
627.574	13195.75
627.768	13046.24
627.963	13019.62
628.157	12718.57
628.352	12767.72
628.546	12472.81
628.74	13062.63
628.935	12712.42
629.129	12732.9
629.323	12413.42
629.517	12558.83
629.712	12556.78
629.906	12372.46
630.1	12208.62
630.294	12192.24
630.489	12161.52
630.683	12126.71
630.877	12079.6
631.071	11911.67
631.265	11860.47
631.459	11956.72
631.653	11610.62
631.848	11723.26
632.042	11559.42
632.236	11635.19
632.43	11440.64
632.624	11465.21
632.818	11442.68
633.012	11344.38
633.206	11282.94
633.4	11379.2
633.594	11022.85
633.788	11008.51
633.982	11121.15
634.176	11131.39
634.369	10844.68
634.563	10908.16
634.757	10785.29
634.951	10826.25
635.145	10750.47
635.339	10826.25
635.533	10603.02
635.726	10799.62
635.92	10453.52
636.114	10539.53
636.308	10408.46
636.501	10261.01
636.695	10435.08
636.889	10105.36
637.083	10248.72
637.276	10326.54
637.47	10027.54
637.664	10005.01
637.857	10025.49
638.051	9884.18
638.244	9910.8
638.438	9767.45
638.632	9826.84
638.825	9622.04
639.019	9663
639.212	9597.46
639.406	9726.49
639.599	9431.58
639.793	9644.57
639.986	9273.89
640.18	9407
640.373	9316.89
640.567	9163.29
640.76	9101.86
640.954	9144.86
641.147	8940.07
641.34	9075.23
641.534	9003.55
641.727	8950.31
641.92	9040.42
642.114	8923.68
642.307	8704.55
642.5	8596.01
642.694	8456.75
642.887	8561.19
643.08	8833.57
643.273	8737.32
643.467	8524.33
643.66	8550.95
643.853	8602.15
644.046	8438.31
644.239	8370.73
644.432	8448.55
644.626	8170.03
644.819	8262.19
645.012	8114.73
645.205	8251.95
645.398	8139.31
645.591	8098.35
645.784	7991.86
645.977	8045.1
646.17	7975.47
646.363	7936.56
646.556	7924.27
646.749	7813.68
646.942	7684.66
647.135	7645.75
647.328	7764.53
647.521	7696.95
647.714	7655.99
647.907	7735.86
648.099	7643.7
648.292	7684.66
648.485	7496.25
648.678	7379.51
648.871	7512.63
649.064	7440.95
649.256	7156.29
649.449	7467.58
649.642	7164.48
649.835	7148.09
650.027	7234.11
650.22	7211.58
650.413	7047.74
650.605	7045.7
650.798	7096.89
650.991	6996.54
651.183	6961.73
651.376	6922.82
651.568	6816.32
651.761	6875.71
651.954	6672.96
652.146	6844.99
652.339	6769.22
652.531	6767.17
652.724	6595.14
652.916	6589
653.109	6664.77
653.301	6599.24
653.494	6580.81
653.686	6416.97
653.879	6521.42
654.071	6302.28
654.263	6402.63
654.456	6464.07
654.648	6517.32
654.84	6398.54
655.033	6267.47
655.225	6271.56
655.417	6283.85
655.61	6175.31
655.802	6160.97
655.994	6294.09
656.186	6095.44
656.379	6197.84
656.571	6171.21
656.763	6001.23
656.955	6023.76
657.148	6150.73
657.34	5984.85
657.532	5835.35
657.724	5925.46
657.916	5894.74
658.108	5841.49
658.3	6005.33
658.492	5821.01
658.684	5648.98
658.876	5818.96
659.068	5728.85
659.26	5655.12
659.452	5755.47
659.644	5673.56
659.836	5796.43
660.028	5728.85
660.22	5599.83
660.412	5575.25
660.604	5624.4
660.796	5503.57
660.988	5610.07
661.18	5481.05
661.372	5474.9
661.563	5495.38
661.755	5401.18
661.947	5608.02
662.139	5435.99
662.331	5364.31
662.522	5413.46
662.714	5366.36
662.906	5296.73
663.097	5311.07
663.289	5132.89
663.481	5296.73
663.673	5237.34
663.864	5227.1
664.056	5024.35
664.247	5335.64
664.439	5122.65
664.631	5190.24
664.822	4934.24
665.014	5157.47
665.205	5044.83
665.397	5007.97
665.588	5003.87
665.78	5173.85
665.971	5163.61
666.163	5157.47
666.354	5073.5
666.546	4862.56
666.737	4932.19
666.929	5005.92
667.12	5124.7
667.311	4967.01
667.503	4668
667.694	4799.07
667.885	4756.07
668.077	4913.76
668.268	4698.72
668.459	4856.42
668.651	4842.08
668.842	4878.94
669.033	4811.36
669.224	4829.79
669.416	4846.18
669.607	4868.7
669.798	4694.63
669.989	4936.29
670.18	4600.42
670.371	4819.55
670.563	4737.63
670.754	4737.63
670.945	4866.66
671.136	4792.93
671.327	4719.2
671.518	4733.54
671.709	4754.02
671.9	4833.89
672.091	4690.53
672.282	4762.21
672.473	4706.91
672.664	4672.1
672.855	4682.34
673.046	4813.41
673.237	4758.11
673.428	4797.03
673.619	4774.5
673.809	4690.53
674	4678.24
674.191	4907.62
674.382	4711.01
674.573	4729.44
674.764	4551.27
674.954	4819.55
675.145	4571.75
675.336	4680.29
675.527	4819.55
675.717	4768.35
675.908	4751.97
676.099	4659.81
676.289	4731.49
676.48	4805.22
676.671	4762.21
676.861	4706.91
677.052	4665.96
677.243	4659.81
677.433	4784.74
677.624	4801.12
677.814	4870.75
678.005	4797.03
678.195	4774.5
678.386	4778.59
678.576	4817.51
678.767	4760.16
678.957	4858.46
679.148	4942.43
679.338	4797.03
679.529	4858.46
679.719	4950.62
679.909	4858.46
680.1	4829.79
680.29	4952.67
680.481	5010.01
680.671	5034.59
680.861	4786.79
681.052	5016.16
681.242	4901.47
681.432	5030.49
681.622	4975.2
681.813	4942.43
682.003	4977.25
682.193	4997.73
682.383	5053.02
682.573	5091.93
682.764	4971.1
682.954	4987.49
683.144	5214.81
683.334	5032.54
683.524	5030.49
683.714	5120.6
683.904	4973.15
684.094	5116.51
684.284	5259.87
684.474	4999.77
684.664	5012.06
684.854	5016.16
685.044	5149.28
685.234	5016.16
685.424	4946.53
685.614	5151.32
685.804	5186.14
685.994	5106.27
686.184	5010.01
686.374	4944.48
686.564	5143.13
686.753	5034.59
686.943	4954.72
687.133	4967.01
687.323	4897.38
687.513	4969.05
687.702	4938.34
687.892	5001.82
688.082	4778.59
688.272	4858.46
688.461	4878.94
688.651	4956.77
688.841	4856.42
689.03	4686.44
689.22	4674.15
689.41	4702.82
689.599	4618.85
689.789	4784.74
689.979	4637.28
690.168	4645.48
690.358	4602.47
690.547	4448.87
690.737	4682.34
690.926	4442.73
691.116	4446.82
691.305	4444.77
691.495	4444.77
691.684	4352.62
691.874	4426.34
692.063	4287.08
692.252	4358.76
692.442	4385.38
692.631	4194.92
692.82	4207.21
693.01	4248.17
693.199	4162.16
693.388	4076.14
693.578	4215.4
693.767	4153.96
693.956	4043.37
694.146	4156.01
694.335	3961.45
694.524	3938.93
694.713	3951.21
694.902	3955.31
695.092	3943.02
695.281	3940.97
695.47	3828.34
695.659	3918.45
695.848	3830.38
696.037	3814
696.226	3861.1
696.415	3846.77
696.604	3875.44
696.793	3891.82
696.982	3887.73
697.171	3859.06
697.36	3740.27
697.549	3734.13
697.738	3830.38
697.927	3641.97
698.116	3795.57
698.305	3730.03
698.494	3902.06
698.683	3773.04
698.872	3824.24
699.061	3740.27
699.25	3867.25
699.438	3713.65
699.627	3756.66
699.816	3773.04
700.005	3715.7
700.193	3756.66
700.382	3814
700.571	3762.8
700.76	3682.93
700.948	3719.79
701.137	3750.51
701.326	3756.66
701.514	3674.74
701.703	3777.14
701.892	3601.01
702.08	3687.03
702.269	3705.46
702.457	3717.75
702.646	3699.31
702.834	3607.16
703.023	3820.14
703.212	3713.65
703.4	3754.61
703.589	3691.12
703.777	3875.44
703.965	3785.33
704.154	3893.87
704.342	3699.31
704.531	3920.49
704.719	3625.59
704.907	3670.64
705.096	3592.82
705.284	3725.94
705.472	3756.66
705.661	3916.4
705.849	3814
706.037	3789.42
706.226	3760.75
706.414	3803.76
706.602	3830.38
706.79	3789.42
706.979	3799.66
707.167	4020.85
707.355	3912.3
707.543	3936.88
707.731	4002.41
707.919	3814
708.107	3834.48
708.296	3879.54
708.484	3795.57
708.672	3983.98
708.86	3973.74
709.048	3822.19
709.236	3963.5
709.424	4084.33
709.612	3895.92
709.8	3969.65
709.988	4080.24
710.176	4194.92
710.364	4113
710.551	3977.84
710.739	4137.58
710.927	4108.91
711.115	4176.49
711.303	4094.57
711.491	4115.05
711.679	4170.35
711.866	4084.33
712.054	4188.78
712.242	4162.16
712.43	4235.88
712.617	4295.27
712.805	4285.03
712.993	4090.48
713.181	4291.18
713.368	4412.01
713.556	4332.14
713.744	4352.62
713.931	4528.74
714.119	4434.53
714.306	4385.38
714.494	4452.97
714.682	4409.96
714.869	4342.38
715.057	4452.97
715.244	4477.54
715.432	4584.04
715.619	4455.01
715.807	4682.34
715.994	4649.57
716.182	4545.13
716.369	4622.95
716.556	4616.8
716.744	4653.67
716.931	4665.96
717.119	4657.76
717.306	4674.15
717.493	4641.38
717.681	4702.82
717.868	4706.91
718.055	4780.64
718.242	4672.1
718.43	4817.51
718.617	4876.9
718.804	4762.21
718.991	4700.77
719.179	5040.73
719.366	4809.31
719.553	4901.47
719.74	4942.43
719.927	4799.07
720.114	4973.15
720.301	4901.47
720.488	4856.42
720.676	4948.58
720.863	5077.6
721.05	5112.41
721.237	5249.63
721.424	5020.25
721.611	5093.98
721.798	5118.56
721.985	5182.04
722.172	5126.75
722.358	5165.66
722.545	5294.68
722.732	5229.15
722.919	5159.52
723.106	5186.14
723.293	5141.08
723.48	5182.04
723.667	5206.62
723.853	5370.46
724.04	5337.69
724.227	5349.98
724.414	5206.62
724.6	5309.02
724.787	5268.06
724.974	5401.18
725.161	5272.15
725.347	5530.2
725.534	5597.78
725.72	5403.22
725.907	5466.71
726.094	5653.08
726.28	5464.66
726.467	5372.5
726.653	5509.72
726.84	5466.71
727.027	5556.82
727.213	5483.1
727.4	5591.64
727.586	5632.6
727.773	5479
727.959	5831.25
728.145	5640.79
728.332	5653.08
728.518	5653.08
728.705	5669.46
728.891	5624.4
729.077	5763.67
729.264	5743.19
729.45	5665.36
729.636	5816.91
729.823	5818.96
730.009	5767.76
730.195	5816.91
730.382	5743.19
730.568	5870.16
730.754	5980.75
730.94	5704.28
731.126	5933.65
731.313	5818.96
731.499	5823.06
731.685	5714.52
731.871	5947.98
732.057	6079.05
732.243	5935.7
732.429	6013.52
732.615	6156.88
732.801	5972.56
732.987	5861.97
733.173	5855.83
733.359	6107.73
733.545	5931.6
733.731	6009.42
733.917	6224.46
734.103	6046.29
734.289	6099.53
734.475	5907.02
734.661	6191.69
734.847	6097.49
735.033	6011.47
735.219	6056.53
735.404	6013.52
735.59	5937.74
735.776	5902.93
735.962	6189.64
736.148	6167.12
736.333	6095.44
736.519	6005.33
736.705	6099.53
736.89	6081.1
737.076	6122.06
737.262	5952.08
737.447	5962.32
737.633	6019.66
737.819	6042.19
738.004	5943.89
738.19	6074.96
738.375	5980.75
738.561	6156.88
738.747	6007.38
738.932	5898.83
739.118	6031.95
739.303	5984.85
739.489	5923.41
739.674	5823.06
739.859	6146.64
740.045	6001.23
740.23	6007.38
740.416	5872.21
740.601	6062.67
740.786	5876.31
740.972	5941.84
741.157	6015.57
741.342	5982.8
741.528	5929.55
741.713	5927.5
741.898	5892.69
742.084	5902.93
742.269	5878.35
742.454	5792.34
742.639	5933.65
742.824	5657.17
743.01	5921.36
743.195	5794.39
743.38	5780.05
743.565	5878.35
743.75	5890.64
743.935	5673.56
744.12	5706.32
744.305	5624.4
744.49	5526.1
744.675	5579.35
744.86	5556.82
745.045	5589.59
745.23	5417.56
745.415	5429.85
745.6	5435.99
745.785	5401.18
745.97	5491.29
746.155	5335.64
746.34	5354.07
746.525	5481.05
746.71	5335.64
746.895	5255.77
747.079	5223
747.264	5272.15
747.449	5292.63
747.634	5182.04
747.819	5251.67
748.003	5198.43
748.188	5276.25
748.373	5012.06
748.557	4991.58
748.742	5018.21
748.927	5034.59
749.111	5071.45
749.296	4878.94
749.481	4981.34
749.665	4809.31
749.85	4891.23
750.034	4788.83
750.219	4821.6
750.404	4641.38
750.588	4661.86
750.773	4600.42
750.957	4565.61
751.141	4622.95
751.326	4639.33
751.51	4698.72
751.695	4547.17
751.879	4448.87
752.064	4577.89
752.248	4407.91
752.432	4399.72
752.617	4280.94
752.801	4366.95
752.985	4401.77
753.17	4369
753.354	4244.07
753.538	4282.99
753.722	4201.07
753.907	4149.87
754.091	4203.11
754.275	4090.48
754.459	4086.38
754.643	4039.28
754.828	4133.48
755.012	3992.17
755.196	3859.06
755.38	3906.16
755.564	3838.58
755.748	3949.17
755.932	3863.15
756.116	3719.79
756.3	3732.08
756.484	3680.88
756.668	3811.95
756.852	3707.51
757.036	3719.79
757.22	3584.63
757.404	3684.98
757.588	3572.34
757.772	3594.87
757.956	3410.55
758.14	3535.48
758.323	3457.65
758.507	3510.9
758.691	3543.67
758.875	3379.83
759.059	3412.6
759.242	3279.48
759.426	3439.22
759.61	3349.11
759.794	3203.71
759.977	3320.44
760.161	3342.97
760.345	3158.65
760.528	3222.14
760.712	3224.19
760.895	3199.61
761.079	3039.87
761.263	3060.35
761.446	3132.03
761.63	3041.92
761.813	3154.55
761.997	2966.14
762.18	2968.19
762.364	2949.76
762.547	3060.35
762.731	3125.88
762.914	2970.24
763.098	3033.72
763.281	2966.14
763.464	2806.4
763.648	2904.7
763.831	2921.09
764.015	2951.81
764.198	2781.82
764.381	2878.08
764.564	2810.5
764.748	2796.16
764.931	2882.17
765.114	2839.17
765.297	2771.58
765.481	2724.48
765.664	2759.3
765.847	2716.29
766.03	2679.43
766.213	2728.58
766.397	2712.19
766.58	2638.47
766.763	2654.85
766.946	2658.95
767.129	2724.48
767.312	2759.3
767.495	2581.12
767.678	2577.03
767.861	2720.39
768.044	2579.08
768.227	2452.1
768.41	2581.12
768.593	2458.25
768.776	2577.03
768.959	2454.15
769.142	2495.11
769.324	2484.87
769.507	2429.57
769.69	2306.7
769.873	2386.57
770.056	2462.34
770.239	2445.96
770.421	2343.56
770.604	2339.46
770.787	2361.99
770.97	2396.81
771.152	2273.93
771.335	2364.04
771.518	2249.35
771.7	2302.6
771.883	2255.5
772.066	2251.4
772.248	2296.46
772.431	2312.84
772.613	2204.3
772.796	2208.39
772.978	2151.05
773.161	2146.95
773.343	2011.79
773.526	2093.71
773.708	2105.99
773.891	2009.74
774.073	2089.61
774.256	1974.92
774.438	2093.71
774.621	2124.43
774.803	1936.01
774.985	1999.5
775.168	1852.05
775.35	1958.54
775.532	1893.01
775.715	1774.22
775.897	1880.72
776.079	1823.37
776.261	1893.01
776.444	1794.7
776.626	1757.84
776.808	1720.98
776.99	1723.02
777.173	1852.05
777.355	1766.03
777.537	1837.71
777.719	1706.64
777.901	1753.74
778.083	1720.98
778.265	1624.72
778.447	1833.61
778.629	1567.38
778.811	1712.78
778.993	1544.85
779.175	1661.59
779.357	1667.73
779.539	1526.42
779.721	1653.39
779.903	1606.29
780.085	1577.62
780.267	1548.95
780.449	1495.7
780.631	1536.66
780.812	1487.51
780.994	1469.08
781.176	1469.08
781.358	1542.8
781.54	1454.74
781.721	1364.63
781.903	1442.45
782.085	1346.2
782.267	1483.41
782.448	1376.92
782.63	1325.72
782.812	1409.69
782.993	1333.91
783.175	1409.69
783.357	1331.86
783.538	1352.34
783.72	1282.71
783.901	1329.81
784.083	1221.27
784.264	1247.9
784.446	1258.14
784.627	1221.27
784.809	1278.62
784.99	1245.85
785.172	1163.93
785.353	1135.26
785.535	1172.12
785.716	1188.5
785.897	1153.69
786.079	1188.5
786.26	1118.87
786.441	1049.24
786.623	1082.01
786.804	1084.06
786.985	1053.34
787.167	1088.15
787.348	1067.67
787.529	1045.15
787.71	1125.02
787.891	1084.06
788.073	1084.06
788.254	1053.34
788.435	1094.3
788.616	985.76
788.797	979.61
788.978	1073.82
789.159	1036.95
789.34	1030.81
789.522	1034.91
789.703	965.28
789.884	1000.09
790.065	961.18
790.246	983.71
790.427	909.98
790.607	993.95
790.788	1018.52
790.969	914.08
791.15	889.5
791.331	922.27
791.512	889.5
791.693	873.12
791.874	893.6
792.054	860.83
792.235	936.6
792.416	864.93
792.597	893.6
792.778	883.36
792.958	815.77
793.139	963.23
793.32	852.64
793.5	852.64
793.681	887.45
793.862	875.17
794.042	772.77
794.223	692.9
794.404	778.91
794.584	801.44
794.765	840.35
794.945	805.53
795.126	821.92
795.306	799.39
795.487	727.71
795.667	733.86
795.848	862.88
796.028	731.81
796.209	791.2
796.389	801.44
796.57	756.38
796.75	713.38
796.93	742.05
797.111	647.84
797.291	752.29
797.471	742.05
797.652	733.86
797.832	686.75
798.012	717.47
798.192	651.94
798.373	643.74
798.553	690.85
798.733	625.31
798.913	653.98
799.093	600.74
799.274	676.51
799.454	660.13
799.634	701.09
799.814	723.62
799.994	709.28
800.174	684.7
800.354	690.85
800.534	598.69
800.714	658.08
800.894	631.46
801.074	625.31
801.254	561.83
801.434	645.79
801.614	557.73
801.794	537.25
801.974	1354.39
802.154	545.44
802.334	647.84
802.514	641.7
802.693	662.18
802.873	549.54
803.053	586.4
803.233	557.73
803.413	496.29
803.592	512.67
803.772	574.11
803.952	623.27
804.131	471.72
804.311	570.02
804.491	531.11
804.67	445.09
804.85	529.06
805.03	563.87
805.209	543.39
805.389	613.03
805.568	553.63
805.748	447.14
805.928	606.88
806.107	610.98
806.287	508.58
806.466	508.58
806.646	572.07
806.825	498.34
807.004	463.52
807.184	492.2
807.363	580.26
807.543	549.54
807.722	471.72
807.901	527.01
808.081	471.72
808.26	447.14
808.439	496.29
808.619	412.32
808.798	475.81
808.977	475.81
809.156	488.1
809.336	428.71
809.515	516.77
809.694	373.41
809.873	477.86
810.052	453.28
810.231	524.96
810.411	453.28
810.59	463.52
810.769	512.67
810.948	484
811.127	400.04
811.306	414.37
811.485	373.41
811.664	420.52
811.843	430.76
812.022	400.04
812.201	428.71
812.38	484
812.559	357.03
812.737	434.85
812.916	420.52
813.095	352.93
813.274	395.94
813.453	404.13
813.632	363.17
813.811	410.28
813.989	320.17
814.168	285.35
814.347	395.94
814.526	416.42
814.704	389.8
814.883	461.48
815.062	422.56
815.24	410.28
815.419	344.74
815.598	397.99
815.776	346.79
815.955	377.51
816.133	297.64
816.312	338.6
816.49	291.49
816.669	357.03
816.847	379.56
817.026	316.07
817.204	369.32
817.383	385.7
817.561	363.17
817.74	334.5
817.918	369.32
818.097	324.26
818.275	293.54
818.453	334.5
818.632	357.03
818.81	287.4
818.988	291.49
819.167	322.21
819.345	332.45
819.523	271.01
819.701	289.45
819.879	369.32
820.058	410.28
820.236	311.97
820.414	262.82
820.592	266.92
820.77	297.64
820.948	301.73
821.127	283.3
821.305	275.11
821.483	301.73
821.661	332.45
821.839	367.27
822.017	215.72
822.195	328.36
822.373	248.49
822.551	297.64
822.729	359.08
822.907	324.26
823.085	258.73
823.262	223.91
823.44	291.49
823.618	189.1
823.796	303.78
823.974	279.21
824.152	215.72
824.329	266.92
824.507	217.77
824.685	328.36
824.863	287.4
825.04	303.78
825.218	311.97
825.396	332.45
825.574	268.97
825.751	266.92
825.929	326.31
826.107	172.71
826.284	264.87
826.462	281.25
826.639	236.2
826.817	189.1
826.994	330.41
827.172	215.72
827.349	271.01
827.527	217.77
827.704	193.19
827.882	275.11
828.059	234.15
828.237	234.15
828.414	238.25
828.591	232.1
828.769	221.86
828.946	260.77
829.124	238.25
829.301	277.16
829.478	152.23
829.655	228.01
829.833	166.57
830.01	158.38
830.187	246.44
830.364	238.25
830.542	221.86
830.719	285.35
830.896	273.06
831.073	258.73
831.25	273.06
831.427	207.53
831.604	215.72
831.782	185
831.959	340.65
832.136	213.67
832.313	211.62
832.49	127.66
832.667	221.86
832.844	213.67
833.021	232.1
833.198	195.24
833.374	164.52
833.551	182.95
833.728	250.53
833.905	207.53
834.082	160.42
834.259	201.38
834.436	215.72
834.612	193.19
834.789	144.04
834.966	193.19
835.143	248.49
835.319	193.19
835.496	152.23
835.673	185
835.85	221.86
836.026	189.1
836.203	314.02
836.38	254.63
836.556	172.71
836.733	232.1
836.909	207.53
837.086	113.32
837.262	146.09
837.439	232.1
837.616	158.38
837.792	158.38
837.968	197.29
838.145	174.76
838.321	172.71
838.498	168.62
838.674	264.87
838.851	127.66
839.027	182.95
839.203	170.66
839.38	144.04
839.556	115.37
839.732	199.34
839.909	111.27
840.085	209.58
840.261	90.79
840.437	111.27
840.614	166.57
840.79	94.89
840.966	137.9
841.142	148.14
841.318	250.53
841.494	154.28
841.671	250.53
841.847	123.56
842.023	144.04
842.199	166.57
842.375	166.57
842.551	35.5
842.727	160.42
842.903	215.72
843.079	119.46
843.255	158.38
843.431	94.89
843.607	117.42
843.783	107.18
843.959	141.99
844.134	41.64
844.31	176.81
844.486	111.27
844.662	152.23
844.838	131.75
845.013	225.96
845.189	103.08
845.365	176.81
845.541	66.22
845.716	123.56
845.892	164.52
846.068	103.08
846.244	160.42
846.419	119.46
846.595	86.7
846.77	66.22
846.946	166.57
847.122	172.71
847.297	101.03
847.473	137.9
847.648	101.03
847.824	29.35
847.999	64.17
848.175	156.33
848.35	103.08
848.526	150.18
848.701	185
848.876	133.8
849.052	119.46
849.227	107.18
849.403	135.85
849.578	64.17
849.753	119.46
849.929	109.23
850.104	86.7
850.279	98.99
850.454	107.18
850.63	185
850.805	164.52
850.98	133.8
851.155	51.88
851.33	109.23
851.505	68.27
851.681	176.81
851.856	62.12
852.031	211.62
852.206	64.17
852.381	101.03
852.556	123.56
852.731	123.56
852.906	107.18
853.081	21.16
853.256	148.14
853.431	78.51
853.606	82.6
853.781	47.79
853.956	111.27
854.131	152.23
854.305	84.65
854.48	66.22
854.655	96.94
854.83	78.51
855.005	21.16
855.18	96.94
855.354	133.8
855.529	80.55
855.704	8.87
855.879	74.41
856.053	76.46
856.228	74.41
856.403	8.87
856.577	166.57
856.752	31.4
856.926	53.93
857.101	109.23
857.276	-3.41
857.45	139.94
857.625	174.76
857.799	45.74
857.974	17.07
858.148	-7.51
858.323	115.37
858.497	86.7
858.672	70.31
858.846	121.51
859.02	111.27
859.195	66.22
859.369	88.75
859.543	53.93
859.718	51.88
859.892	37.55
860.066	92.84
860.241	25.26
860.415	66.22
860.589	101.03
860.763	-7.51
860.938	62.12
861.112	113.32
861.286	101.03
861.46	-15.7
861.634	35.5
861.808	58.03
861.982	41.64
862.157	55.98
862.331	37.55
862.505	70.31
862.679	8.87
862.853	70.31
863.027	21.16
863.201	164.52
863.375	33.45
863.549	43.69
863.722	168.62
863.896	109.23
864.07	45.74
864.244	29.35
864.418	74.41
864.592	55.98
864.766	78.51
864.939	139.94
865.113	92.84
865.287	103.08
865.461	101.03
865.634	53.93
865.808	33.45
865.982	68.27
866.156	53.93
866.329	86.7
866.503	39.59
866.676	94.89
866.85	80.55
867.024	10.92
867.197	115.37
867.371	78.51
867.544	-25.94
867.718	45.74
867.891	41.64
868.065	29.35
868.238	58.03
868.412	27.31
868.585	141.99
868.759	70.31
868.932	58.03
869.105	51.88
869.279	29.35
869.452	2.73
869.625	31.4
869.799	68.27
869.972	-32.08
870.145	-21.84
870.319	37.55
870.492	-25.94
870.665	66.22
870.838	60.07
871.011	-44.37
871.185	-9.56
871.358	12.97
871.531	62.12
871.704	2.73
871.877	29.35
872.05	49.83
872.223	10.92
872.396	225.96
872.569	135.85
872.742	12.97
872.915	72.36
873.088	15.02
873.261	64.17
873.434	31.4
873.607	-32.08
873.78	29.35
873.953	-46.42
874.126	127.66
874.299	33.45
874.471	45.74
874.644	15.02
874.817	39.59
874.99	189.1
875.163	68.27
875.335	12.97
875.508	6.83
875.681	60.07
875.853	41.64
876.026	29.35
876.199	51.88
876.371	53.93
876.544	47.79
876.717	-13.65
876.889	31.4
877.062	45.74
877.234	45.74
877.407	29.35
877.579	27.31
877.752	86.7
877.924	-34.13
878.097	76.46
878.269	51.88
878.442	0.68
878.614	29.35
878.786	-9.56
878.959	4.78
879.131	90.79
879.303	10.92
879.476	-11.61
879.648	33.45
879.82	49.83
879.993	55.98
880.165	0.68
880.337	4.78
880.509	37.55
880.681	78.51
880.854	53.93
881.026	70.31
881.198	103.08
881.37	41.64
881.542	-54.61
881.714	101.03
881.886	19.11
882.058	-52.56
882.23	21.16
882.402	53.93
882.574	29.35
882.746	115.37
882.918	84.65
883.09	53.93
883.262	86.7
883.434	12.97
883.606	-19.8
883.778	-60.76
883.95	78.51
884.122	0.68
884.293	84.65
884.465	105.13
884.637	141.99
884.809	51.88
884.98	33.45
885.152	49.83
885.324	60.07
885.496	25.26
885.667	-23.89
885.839	-11.61
886.011	166.57
886.182	111.27
886.354	64.17
886.525	51.88
886.697	19.11
886.869	60.07
887.04	70.31
887.212	103.08
887.383	21.16
887.555	66.22
887.726	37.55
887.897	35.5
888.069	37.55
888.24	60.07
888.412	-17.75
888.583	62.12
888.754	27.31
888.926	-7.51
889.097	29.35
889.268	-19.8
889.44	-3.41
889.611	25.26
889.782	-19.8
889.953	-19.8
890.125	60.07
890.296	33.45
890.467	23.21
890.638	72.36
890.809	-5.46
890.98	21.16
891.151	-23.89
891.323	41.64
891.494	-27.99
891.665	19.11
891.836	29.35
892.007	8.87
892.178	-11.61
892.349	58.03
892.52	-30.04
892.691	82.6
892.862	82.6
893.032	0.68
893.203	19.11
893.374	12.97
893.545	37.55
893.716	29.35
893.887	47.79
894.057	35.5
894.228	-11.61
894.399	12.97
894.57	49.83
894.74	-27.99
894.911	19.11
895.082	-3.41
895.253	19.11
895.423	60.07
895.594	21.16
895.764	37.55
895.935	29.35
896.106	21.16
896.276	-23.89
896.447	4.78
896.617	41.64
896.788	-5.46
896.958	-21.84
897.129	35.5
897.299	-79.19
897.47	19.11
897.64	51.88
897.81	19.11
897.981	39.59
898.151	-36.18
898.322	60.07
898.492	31.4
898.662	-23.89
898.832	-3.41
899.003	-11.61
899.173	74.41
899.343	-9.56
899.513	37.55
