Data from USB4F104151__51__11-30-34-861.txt Node

Date: Fri Mar 14 11:30:34 EDT 2025
User: louis
Spectrometer: USB4F10415
Trigger mode: 4
Integration Time (sec): 5.000000E-2
Scans to average: 1
Electric dark correction enabled: true
Nonlinearity correction enabled: false
Boxcar width: 0
XAxis mode: Wavelengths
Number of Pixels in Spectrum: 3648
>>>>>Begin Spectral Data<<<<<
178.204	-199.16
178.424	-199.16
178.644	-199.16
178.864	-152.06
179.084	-190.97
179.304	-18.94
179.524	-27.14
179.744	-4.61
179.964	22.02
180.184	-45.57
180.404	17.92
180.624	40.45
180.844	5.63
181.064	-6.66
181.283	22.02
181.503	-14.85
181.723	9.73
181.943	-78.33
182.163	28.16
182.383	-23.04
182.602	44.54
182.822	73.21
183.042	-10.75
183.262	-35.33
183.482	-10.75
183.701	-12.8
183.921	13.82
184.141	11.78
184.361	-4.61
184.58	-10.75
184.8	38.4
185.02	54.78
185.239	79.36
185.459	-35.33
185.679	67.07
185.898	-88.57
186.118	101.89
186.338	-8.7
186.557	50.69
186.777	38.4
186.997	-23.04
187.216	-39.42
187.436	65.02
187.655	5.63
187.875	38.4
188.095	13.82
188.314	79.36
188.534	46.59
188.753	-10.75
188.973	28.16
189.192	83.45
189.412	38.4
189.631	-37.38
189.851	32.26
190.07	54.78
190.29	-12.8
190.509	-16.9
190.729	-31.23
190.948	79.36
191.168	95.74
191.387	38.4
191.607	9.73
191.826	30.21
192.045	93.69
192.265	13.82
192.484	-2.56
192.704	-47.62
192.923	-61.95
193.142	36.35
193.362	28.16
193.581	26.11
193.8	13.82
194.02	69.12
194.239	-51.71
194.458	60.93
194.678	-2.56
194.897	15.87
195.116	-35.33
195.335	11.78
195.555	28.16
195.774	-16.9
195.993	62.98
196.212	54.78
196.432	46.59
196.651	22.02
196.87	-18.94
197.089	58.88
197.308	30.21
197.528	-18.94
197.747	19.97
197.966	62.98
198.185	30.21
198.404	-2.56
198.623	62.98
198.842	17.92
199.062	54.78
199.281	11.78
199.5	22.02
199.719	91.65
199.938	7.68
200.157	54.78
200.376	13.82
200.595	-16.9
200.814	103.93
201.033	11.78
201.252	36.35
201.471	36.35
201.69	46.59
201.909	83.45
202.128	30.21
202.347	46.59
202.566	28.16
202.785	-16.9
203.004	-35.33
203.223	148.99
203.442	34.3
203.661	67.07
203.879	28.16
204.098	-57.86
204.317	-25.09
204.536	62.98
204.755	28.16
204.974	22.02
205.193	-43.52
205.411	11.78
205.63	40.45
205.849	34.3
206.068	19.97
206.287	-14.85
206.505	46.59
206.724	38.4
206.943	60.93
207.162	-53.76
207.381	46.59
207.599	17.92
207.818	65.02
208.037	-18.94
208.255	22.02
208.474	22.02
208.693	79.36
208.911	15.87
209.13	32.26
209.349	71.17
209.567	-8.7
209.786	-31.23
210.005	22.02
210.223	-8.7
210.442	22.02
210.661	22.02
210.879	7.68
211.098	9.73
211.316	87.55
211.535	50.69
211.753	36.35
211.972	52.74
212.191	5.63
212.409	56.83
212.628	7.68
212.846	34.3
213.065	28.16
213.283	52.74
213.502	67.07
213.72	46.59
213.938	-4.61
214.157	30.21
214.375	36.35
214.594	30.21
214.812	62.98
215.031	50.69
215.249	-37.38
215.467	-6.66
215.686	-10.75
215.904	28.16
216.122	5.63
216.341	36.35
216.559	56.83
216.778	85.5
216.996	-18.94
217.214	-10.75
217.432	19.97
217.651	-39.42
217.869	-16.9
218.087	7.68
218.306	13.82
218.524	3.58
218.742	54.78
218.96	9.73
219.179	-2.56
219.397	22.02
219.615	58.88
219.833	60.93
220.051	40.45
220.27	83.45
220.488	-29.18
220.706	15.87
220.924	26.11
221.142	87.55
221.36	48.64
221.578	62.98
221.796	36.35
222.015	-2.56
222.233	19.97
222.451	46.59
222.669	-2.56
222.887	28.16
223.105	19.97
223.323	-76.29
223.541	52.74
223.759	30.21
223.977	-4.61
224.195	30.21
224.413	46.59
224.631	9.73
224.849	46.59
225.067	46.59
225.285	11.78
225.503	46.59
225.721	-72.19
225.939	3.58
226.157	-2.56
226.375	112.13
226.592	-16.9
226.81	13.82
227.028	28.16
227.246	50.69
227.464	46.59
227.682	89.6
227.9	22.02
228.117	-0.51
228.335	-59.9
228.553	30.21
228.771	30.21
228.989	32.26
229.206	-6.66
229.424	34.3
229.642	42.5
229.86	52.74
230.077	42.5
230.295	-10.75
230.513	7.68
230.731	54.78
230.948	32.26
231.166	44.54
231.384	46.59
231.601	5.63
231.819	93.69
232.037	-8.7
232.254	93.69
232.472	36.35
232.689	-23.04
232.907	-12.8
233.125	9.73
233.342	73.21
233.56	-4.61
233.777	-29.18
233.995	-16.9
234.213	79.36
234.43	44.54
234.648	42.5
234.865	22.02
235.083	95.74
235.3	28.16
235.518	3.58
235.735	36.35
235.953	48.64
236.17	40.45
236.388	36.35
236.605	11.78
236.822	110.08
237.04	-25.09
237.257	36.35
237.475	-29.18
237.692	62.98
237.909	24.06
238.127	11.78
238.344	5.63
238.562	91.65
238.779	60.93
238.996	-59.9
239.214	73.21
239.431	56.83
239.648	-45.57
239.865	34.3
240.083	83.45
240.3	-43.52
240.517	-2.56
240.735	46.59
240.952	24.06
241.169	38.4
241.386	26.11
241.603	28.16
241.821	-43.52
242.038	-6.66
242.255	62.98
242.472	-45.57
242.689	50.69
242.907	79.36
243.124	-18.94
243.341	69.12
243.558	-14.85
243.775	50.69
243.992	-64
244.209	26.11
244.426	103.93
244.643	34.3
244.86	71.17
245.078	42.5
245.295	9.73
245.512	-23.04
245.729	-20.99
245.946	11.78
246.163	-18.94
246.38	7.68
246.597	62.98
246.814	19.97
247.031	-18.94
247.248	50.69
247.464	38.4
247.681	65.02
247.898	77.31
248.115	17.92
248.332	54.78
248.549	42.5
248.766	110.08
248.983	50.69
249.2	-2.56
249.417	67.07
249.633	-4.61
249.85	83.45
250.067	62.98
250.284	-2.56
250.501	32.26
250.717	-68.09
250.934	22.02
251.151	69.12
251.368	30.21
251.585	5.63
251.801	1.54
252.018	-4.61
252.235	69.12
252.451	-6.66
252.668	42.5
252.885	54.78
253.102	-18.94
253.318	140.8
253.535	17.92
253.752	-2.56
253.968	52.74
254.185	-51.71
254.401	-96.77
254.618	17.92
254.835	40.45
255.051	134.65
255.268	48.64
255.484	48.64
255.701	11.78
255.917	-10.75
256.134	11.78
256.351	30.21
256.567	58.88
256.784	42.5
257	-8.7
257.217	69.12
257.433	105.98
257.65	105.98
257.866	62.98
258.082	19.97
258.299	50.69
258.515	-2.56
258.732	-18.94
258.948	-10.75
259.165	62.98
259.381	79.36
259.597	62.98
259.814	36.35
260.03	11.78
260.246	62.98
260.463	52.74
260.679	142.85
260.895	22.02
261.112	69.12
261.328	44.54
261.544	5.63
261.761	62.98
261.977	-55.81
262.193	-23.04
262.409	83.45
262.626	34.3
262.842	46.59
263.058	26.11
263.274	87.55
263.49	24.06
263.707	17.92
263.923	62.98
264.139	-27.14
264.355	17.92
264.571	40.45
264.787	60.93
265.004	71.17
265.22	13.82
265.436	-27.14
265.652	46.59
265.868	-2.56
266.084	-0.51
266.3	67.07
266.516	-35.33
266.732	-29.18
266.948	38.4
267.164	38.4
267.38	101.89
267.596	-8.7
267.812	103.93
268.028	95.74
268.244	17.92
268.46	77.31
268.676	-53.76
268.892	26.11
269.108	-47.62
269.324	-39.42
269.54	22.02
269.756	77.31
269.972	-55.81
270.188	-4.61
270.403	11.78
270.619	38.4
270.835	38.4
271.051	11.78
271.267	-16.9
271.483	-20.99
271.698	52.74
271.914	36.35
272.13	30.21
272.346	38.4
272.562	22.02
272.777	71.17
272.993	13.82
273.209	36.35
273.425	9.73
273.64	-43.52
273.856	38.4
274.072	9.73
274.287	19.97
274.503	116.22
274.719	34.3
274.934	-31.23
275.15	67.07
275.366	15.87
275.581	-29.18
275.797	26.11
276.012	34.3
276.228	7.68
276.444	83.45
276.659	30.21
276.875	-23.04
277.09	-2.56
277.306	-2.56
277.521	30.21
277.737	73.21
277.952	-8.7
278.168	60.93
278.383	-0.51
278.599	26.11
278.814	34.3
279.03	-10.75
279.245	87.55
279.461	-12.8
279.676	38.4
279.892	19.97
280.107	13.82
280.322	-16.9
280.538	13.82
280.753	13.82
280.969	79.36
281.184	3.58
281.399	-27.14
281.615	-27.14
281.83	26.11
282.045	5.63
282.26	26.11
282.476	36.35
282.691	136.7
282.906	30.21
283.122	-4.61
283.337	17.92
283.552	67.07
283.767	26.11
283.983	79.36
284.198	-37.38
284.413	34.3
284.628	-35.33
284.843	1.54
285.058	60.93
285.274	13.82
285.489	-45.57
285.704	11.78
285.919	-37.38
286.134	50.69
286.349	34.3
286.564	28.16
286.779	83.45
286.995	36.35
287.21	75.26
287.425	-23.04
287.64	52.74
287.855	-18.94
288.07	-31.23
288.285	38.4
288.5	-29.18
288.715	83.45
288.93	-2.56
289.145	5.63
289.36	52.74
289.575	24.06
289.79	67.07
290.004	-29.18
290.219	22.02
290.434	54.78
290.649	-53.76
290.864	-51.71
291.079	36.35
291.294	136.7
291.509	-41.47
291.724	-20.99
291.938	1.54
292.153	44.54
292.368	-4.61
292.583	38.4
292.798	67.07
293.012	26.11
293.227	17.92
293.442	-41.47
293.657	-16.9
293.871	85.5
294.086	67.07
294.301	116.22
294.516	71.17
294.73	-18.94
294.945	-47.62
295.16	13.82
295.374	-10.75
295.589	99.84
295.804	26.11
296.018	91.65
296.233	95.74
296.447	-18.94
296.662	38.4
296.877	44.54
297.091	-4.61
297.306	60.93
297.52	58.88
297.735	79.36
297.949	26.11
298.164	26.11
298.378	13.82
298.593	5.63
298.807	-18.94
299.022	62.98
299.236	71.17
299.451	28.16
299.665	38.4
299.88	-33.28
300.094	69.12
300.309	-92.67
300.523	54.78
300.737	13.82
300.952	34.3
301.166	69.12
301.381	73.21
301.595	-4.61
301.809	-18.94
302.024	34.3
302.238	-31.23
302.452	26.11
302.667	-2.56
302.881	15.87
303.095	50.69
303.309	22.02
303.524	30.21
303.738	46.59
303.952	5.63
304.166	69.12
304.381	-80.38
304.595	120.32
304.809	15.87
305.023	73.21
305.237	-43.52
305.452	11.78
305.666	56.83
305.88	44.54
306.094	69.12
306.308	19.97
306.522	101.89
306.736	54.78
306.95	101.89
307.164	26.11
307.379	19.97
307.593	89.6
307.807	146.94
308.021	71.17
308.235	-29.18
308.449	-33.28
308.663	19.97
308.877	126.46
309.091	32.26
309.305	13.82
309.519	-33.28
309.733	-10.75
309.947	3.58
310.161	13.82
310.374	13.82
310.588	77.31
310.802	-20.99
311.016	22.02
311.23	38.4
311.444	60.93
311.658	9.73
311.872	95.74
312.085	54.78
312.299	75.26
312.513	30.21
312.727	22.02
312.941	-49.66
313.154	30.21
313.368	44.54
313.582	-33.28
313.796	46.59
314.009	62.98
314.223	28.16
314.437	-18.94
314.651	13.82
314.864	71.17
315.078	58.88
315.292	71.17
315.505	17.92
315.719	9.73
315.933	79.36
316.146	17.92
316.36	3.58
316.573	108.03
316.787	-20.99
317.001	42.5
317.214	1.54
317.428	40.45
317.641	1.54
317.855	-2.56
318.068	-39.42
318.282	42.5
318.495	118.27
318.709	54.78
318.922	62.98
319.136	120.32
319.349	93.69
319.563	-29.18
319.776	112.13
319.99	-84.48
320.203	58.88
320.417	-61.95
320.63	65.02
320.843	19.97
321.057	30.21
321.27	69.12
321.483	-4.61
321.697	60.93
321.91	1.54
322.124	24.06
322.337	42.5
322.55	-88.57
322.763	-35.33
322.977	-27.14
323.19	56.83
323.403	40.45
323.617	46.59
323.83	105.98
324.043	7.68
324.256	19.97
324.469	17.92
324.683	87.55
324.896	13.82
325.109	46.59
325.322	-29.18
325.535	9.73
325.748	46.59
325.962	5.63
326.175	-72.19
326.388	56.83
326.601	77.31
326.814	17.92
327.027	67.07
327.24	22.02
327.453	-96.77
327.666	-0.51
327.879	46.59
328.092	71.17
328.305	83.45
328.518	26.11
328.731	-14.85
328.944	26.11
329.157	60.93
329.37	42.5
329.583	71.17
329.796	42.5
330.009	52.74
330.222	5.63
330.435	48.64
330.648	11.78
330.861	-20.99
331.073	103.93
331.286	52.74
331.499	19.97
331.712	52.74
331.925	26.11
332.138	36.35
332.35	58.88
332.563	30.21
332.776	38.4
332.989	-70.14
333.202	26.11
333.414	50.69
333.627	-27.14
333.84	-2.56
334.053	71.17
334.265	60.93
334.478	30.21
334.691	22.02
334.903	-8.7
335.116	-12.8
335.329	58.88
335.541	26.11
335.754	95.74
335.966	3.58
336.179	-35.33
336.392	-27.14
336.604	69.12
336.817	140.8
337.029	30.21
337.242	1.54
337.454	40.45
337.667	56.83
337.88	77.31
338.092	56.83
338.305	60.93
338.517	11.78
338.729	69.12
338.942	52.74
339.154	50.69
339.367	-18.94
339.579	58.88
339.792	34.3
340.004	95.74
340.217	30.21
340.429	-12.8
340.641	-43.52
340.854	-6.66
341.066	7.68
341.278	71.17
341.491	50.69
341.703	44.54
341.915	38.4
342.128	91.65
342.34	32.26
342.552	19.97
342.764	-18.94
342.977	60.93
343.189	46.59
343.401	105.98
343.613	9.73
343.826	83.45
344.038	-10.75
344.25	-29.18
344.462	-29.18
344.674	91.65
344.886	-43.52
345.099	54.78
345.311	54.78
345.523	-23.04
345.735	-6.66
345.947	13.82
346.159	-10.75
346.371	38.4
346.583	-2.56
346.795	110.08
347.007	7.68
347.219	69.12
347.431	17.92
347.643	103.93
347.855	-0.51
348.067	67.07
348.279	-84.48
348.491	103.93
348.703	124.41
348.915	24.06
349.127	44.54
349.339	-6.66
349.551	95.74
349.763	71.17
349.975	-23.04
350.187	95.74
350.399	95.74
350.61	93.69
350.822	22.02
351.034	95.74
351.246	46.59
351.458	103.93
351.669	9.73
351.881	101.89
352.093	79.36
352.305	56.83
352.517	58.88
352.728	38.4
352.94	75.26
353.152	-8.7
353.363	38.4
353.575	60.93
353.787	28.16
353.999	24.06
354.21	103.93
354.422	-27.14
354.633	22.02
354.845	34.3
355.057	19.97
355.268	62.98
355.48	69.12
355.692	-27.14
355.903	48.64
356.115	-27.14
356.326	11.78
356.538	-45.57
356.749	95.74
356.961	91.65
357.172	22.02
357.384	-41.47
357.595	69.12
357.807	-10.75
358.018	-27.14
358.23	46.59
358.441	42.5
358.653	103.93
358.864	114.17
359.075	22.02
359.287	91.65
359.498	28.16
359.709	67.07
359.921	-35.33
360.132	46.59
360.344	28.16
360.555	-51.71
360.766	52.74
360.977	19.97
361.189	38.4
361.4	-10.75
361.611	161.28
361.823	3.58
362.034	48.64
362.245	73.21
362.456	-86.53
362.667	30.21
362.879	-6.66
363.09	87.55
363.301	42.5
363.512	28.16
363.723	-18.94
363.935	-10.75
364.146	77.31
364.357	-0.51
364.568	52.74
364.779	30.21
364.99	77.31
365.201	28.16
365.412	40.45
365.623	17.92
365.834	67.07
366.045	13.82
366.256	19.97
366.467	26.11
366.678	97.79
366.889	71.17
367.1	62.98
367.311	54.78
367.522	46.59
367.733	28.16
367.944	44.54
368.155	46.59
368.366	60.93
368.577	118.27
368.788	69.12
368.999	22.02
369.209	26.11
369.42	38.4
369.631	75.26
369.842	71.17
370.053	30.21
370.264	87.55
370.474	-31.23
370.685	11.78
370.896	42.5
371.107	81.41
371.317	28.16
371.528	22.02
371.739	110.08
371.95	28.16
372.16	5.63
372.371	9.73
372.582	19.97
372.792	7.68
373.003	58.88
373.214	-51.71
373.424	-12.8
373.635	22.02
373.846	34.3
374.056	1.54
374.267	34.3
374.477	93.69
374.688	44.54
374.898	34.3
375.109	67.07
375.319	19.97
375.53	93.69
375.74	112.13
375.951	60.93
376.161	136.7
376.372	30.21
376.582	54.78
376.793	28.16
377.003	19.97
377.214	-23.04
377.424	54.78
377.635	40.45
377.845	-6.66
378.055	28.16
378.266	-37.38
378.476	75.26
378.686	42.5
378.897	75.26
379.107	42.5
379.317	124.41
379.528	60.93
379.738	75.26
379.948	44.54
380.158	58.88
380.369	40.45
380.579	71.17
380.789	58.88
380.999	13.82
381.21	36.35
381.42	85.5
381.63	22.02
381.84	79.36
382.05	36.35
382.261	46.59
382.471	142.85
382.681	13.82
382.891	165.37
383.101	62.98
383.311	5.63
383.521	13.82
383.731	19.97
383.941	79.36
384.151	3.58
384.361	108.03
384.571	44.54
384.781	71.17
384.991	93.69
385.201	75.26
385.411	60.93
385.621	79.36
385.831	13.82
386.041	17.92
386.251	11.78
386.461	15.87
386.671	38.4
386.881	13.82
387.091	46.59
387.301	83.45
387.511	75.26
387.72	44.54
387.93	79.36
388.14	58.88
388.35	-33.28
388.56	56.83
388.769	52.74
388.979	85.5
389.189	3.58
389.399	-0.51
389.609	30.21
389.818	101.89
390.028	65.02
390.238	13.82
390.447	54.78
390.657	22.02
390.867	-31.23
391.076	30.21
391.286	85.5
391.496	91.65
391.705	17.92
391.915	30.21
392.125	-4.61
392.334	5.63
392.544	26.11
392.753	77.31
392.963	-23.04
393.172	44.54
393.382	67.07
393.591	146.94
393.801	95.74
394.01	99.84
394.22	67.07
394.429	83.45
394.639	67.07
394.848	38.4
395.058	52.74
395.267	99.84
395.477	71.17
395.686	3.58
395.895	134.65
396.105	144.89
396.314	87.55
396.524	83.45
396.733	79.36
396.942	132.61
397.152	134.65
397.361	148.99
397.57	75.26
397.78	161.28
397.989	126.46
398.198	42.5
398.407	112.13
398.617	153.09
398.826	95.74
399.035	9.73
399.244	134.65
399.453	93.69
399.663	105.98
399.872	105.98
400.081	44.54
400.29	93.69
400.499	67.07
400.708	89.6
400.917	120.32
401.127	142.85
401.336	110.08
401.545	128.51
401.754	144.89
401.963	142.85
402.172	3.58
402.381	-6.66
402.59	60.93
402.799	124.41
403.008	124.41
403.217	83.45
403.426	99.84
403.635	17.92
403.844	95.74
404.053	157.18
404.262	116.22
404.471	216.57
404.68	126.46
404.888	124.41
405.097	159.23
405.306	120.32
405.515	85.5
405.724	85.5
405.933	136.7
406.142	136.7
406.35	151.04
406.559	71.17
406.768	87.55
406.977	148.99
407.185	185.85
407.394	194.05
407.603	112.13
407.812	134.65
408.02	220.67
408.229	224.76
408.438	206.33
408.646	210.43
408.855	155.13
409.064	245.24
409.272	257.53
409.481	224.76
409.69	192
409.898	210.43
410.107	263.68
410.315	292.35
410.524	237.05
410.733	226.81
410.941	296.44
411.15	286.2
411.358	261.63
411.567	341.5
411.775	282.11
411.984	325.12
412.192	359.93
412.401	261.63
412.609	339.45
412.818	355.83
413.026	323.07
413.234	361.98
413.443	321.02
413.651	300.54
413.86	464.38
414.068	396.79
414.276	558.58
414.485	462.33
414.693	513.53
414.901	517.62
415.11	435.71
415.318	513.53
415.526	472.57
415.734	591.35
415.943	628.21
416.151	624.12
416.359	595.45
416.567	658.93
416.776	714.23
416.984	738.8
417.192	724.47
417.4	816.63
417.608	720.37
417.817	779.76
418.025	830.96
418.233	931.31
418.441	783.86
418.649	869.87
418.857	847.35
419.065	1084.91
419.273	1046
419.481	1054.19
419.689	1103.34
419.897	1029.62
420.105	1074.67
420.313	1179.12
420.521	1183.21
420.729	1250.8
420.937	1193.45
421.145	1365.48
421.353	1406.44
421.561	1410.54
421.769	1461.74
421.977	1576.42
422.185	1494.51
422.393	1684.97
422.601	1668.58
422.809	1646.05
423.017	1742.31
423.224	1820.13
423.432	1879.52
423.64	1895.91
423.848	2090.46
424.056	2102.75
424.263	2090.46
424.471	2096.61
424.679	2223.58
424.887	2217.44
425.094	2381.28
425.302	2381.28
425.51	2498.01
425.718	2389.47
425.925	2643.42
426.133	2575.83
426.341	2860.5
426.548	2840.02
426.756	2971.09
426.964	2952.66
427.171	3149.26
427.379	3274.19
427.586	3362.25
427.794	3411.4
428.001	3562.95
428.209	3644.87
428.417	3849.67
428.624	3845.57
428.832	3878.34
429.039	3902.92
429.247	3954.12
429.454	4287.93
429.662	4634.04
429.869	4242.88
430.076	4494.78
430.284	4355.52
430.491	4586.94
430.699	4910.52
430.906	4818.36
431.114	5008.82
431.321	5195.18
431.528	5213.62
431.736	5596.59
431.943	5785
432.15	5586.35
432.358	5670.31
432.565	5971.36
432.772	5934.5
432.979	6137.25
433.187	6337.95
433.394	6466.97
433.601	7013.78
433.808	6933.91
434.016	6780.31
434.223	7173.52
434.43	7650.7
434.637	7361.94
434.844	7783.82
435.052	7974.28
435.259	7992.71
435.466	7853.45
435.673	7900.55
435.88	8500.61
436.087	9012.6
436.294	8988.02
436.501	8852.86
436.708	8998.26
436.915	9379.18
437.122	9594.22
437.329	9639.28
437.537	10057.06
437.743	9979.24
437.95	9774.44
438.157	10671.45
438.364	10827.1
438.571	10786.14
438.778	10792.28
438.985	11924.81
439.192	11453.78
439.399	11765.07
439.606	11595.09
439.813	12381.51
440.02	12993.85
440.227	12567.87
440.433	12602.69
440.64	13165.88
440.847	12950.84
441.054	13268.28
441.261	14230.82
441.467	13923.63
441.674	14234.92
441.881	14816.54
442.088	14585.12
442.294	14791.97
442.501	15142.17
442.708	15463.7
442.914	15789.33
443.121	16446.73
443.328	15930.64
443.534	17157.37
443.741	16700.67
443.948	16596.23
444.154	18023.66
444.361	17902.83
444.568	17978.61
444.774	17962.22
444.981	18171.11
445.187	18629.86
445.394	19125.47
445.6	19254.49
445.807	20937.92
446.013	20276.43
446.22	20462.79
446.426	21259.45
446.633	21437.62
446.839	21937.33
447.046	21259.45
447.252	22308.01
447.459	22293.68
447.665	22320.3
447.871	23082.14
448.078	24235.15
448.284	23284.89
448.491	23616.66
448.697	24726.66
448.903	24958.08
449.11	24896.64
449.316	24620.17
449.522	25087.11
449.728	25764.98
449.935	25996.4
450.141	26047.6
450.347	26549.35
450.553	25922.68
450.76	26186.86
450.966	27053.16
451.172	26473.58
451.378	27575.39
451.584	26754.15
451.791	27694.17
451.997	27130.98
452.203	27720.79
452.409	27501.66
452.615	27569.24
452.821	26571.88
453.027	26406
453.233	28044.37
453.44	26616.94
453.646	26666.09
453.852	26907.75
454.058	27290.72
454.264	26401.9
454.47	27180.13
454.676	26236.02
454.882	27079.78
455.088	24841.35
455.294	25287.81
455.5	25756.79
455.705	25982.07
455.911	25003.14
456.117	24261.77
456.323	24054.93
456.529	22637.73
456.735	23727.25
456.941	23377.05
457.147	22836.39
457.352	21882.03
457.558	21882.03
457.764	21826.74
457.97	21396.67
458.176	20917.44
458.381	20911.3
458.587	19938.51
458.793	20047.05
458.999	18642.15
459.204	20012.24
459.41	19600.6
459.616	18257.13
459.821	18195.69
460.027	18154.73
460.233	18150.64
460.438	17009.92
460.644	17304.82
460.85	16403.72
461.055	16209.16
461.261	15938.83
461.466	14761.25
461.672	14406.95
461.878	15414.55
462.083	14624.03
462.289	14034.22
462.494	13962.54
462.7	13503.79
462.905	12965.18
463.111	13511.99
463.316	13458.74
463.522	13286.71
463.727	13055.29
463.932	13212.98
464.138	12801.34
464.343	12774.72
464.549	12911.93
464.754	13155.64
464.959	13188.41
465.165	12846.4
465.37	12352.84
465.575	12311.88
465.781	12625.22
465.986	12592.45
466.191	12326.21
466.397	11887.95
466.602	11396.43
466.807	11752.78
467.012	11672.91
467.218	11988.3
467.423	11464.02
467.628	11793.74
467.833	12039.5
468.038	11693.39
468.244	11341.14
468.449	11838.8
468.654	11373.91
468.859	11375.95
469.064	11074.9
469.269	10933.59
469.474	11060.57
469.679	11136.34
469.885	10792.28
470.09	10923.35
470.295	10833.24
470.5	10663.26
470.705	10712.41
470.91	10524
471.115	10255.72
471.32	10571.1
471.525	10501.47
471.73	10282.34
471.935	10128.74
472.139	9772.39
472.344	9805.16
472.549	9651.56
472.754	9719.15
472.959	9532.78
473.164	9430.38
473.369	9260.4
473.574	9528.69
473.778	9332.08
473.983	9364.85
474.188	9393.52
474.393	8959.35
474.598	9006.45
474.802	8809.85
475.007	8740.22
475.212	8848.76
475.417	8461.69
475.621	8246.66
475.826	8551.81
476.031	8187.27
476.235	8191.36
476.44	8365.44
476.645	8160.64
476.849	8279.43
477.054	8088.96
477.259	7959.94
477.463	7857.54
477.668	7673.23
477.872	7918.98
478.077	7796.11
478.282	7433.61
478.486	7384.46
478.691	7329.17
478.895	7474.57
479.1	7466.38
479.304	7368.08
479.509	7067.03
479.713	7507.34
479.918	7034.26
480.122	7116.18
480.326	7083.41
480.531	7105.94
480.735	7150.99
480.94	6804.89
481.144	7140.76
481.348	6895
481.553	6819.22
481.757	6733.21
481.961	6856.09
482.166	6851.99
482.37	6774.17
482.574	6792.6
482.778	6851.99
482.983	6911.38
483.187	6868.38
483.391	6933.91
483.595	6845.85
483.8	6890.9
484.004	6806.94
484.208	6747.55
484.412	7062.93
484.616	6851.99
484.821	6749.59
485.025	6626.71
485.229	6831.51
485.433	6745.5
485.637	6901.14
485.841	6737.31
486.045	6788.5
486.249	6677.91
486.453	6772.12
486.657	6878.62
486.861	6811.03
487.065	6759.83
487.269	6839.7
487.473	6796.7
487.677	6755.74
487.881	6856.09
488.085	6663.58
488.289	6645.15
488.493	6751.64
488.697	6897.05
488.901	6892.95
489.105	6835.61
489.309	6931.86
489.512	6661.53
489.716	6888.85
489.92	6831.51
490.124	6995.35
490.328	7017.88
490.531	7013.78
490.735	7153.04
490.939	7040.4
491.143	6909.33
491.346	7007.64
491.55	7075.22
491.754	7196.05
491.958	7024.02
492.161	7032.21
492.365	7146.9
492.569	7136.66
492.772	7040.4
492.976	7183.76
493.18	7253.39
493.383	7318.93
493.587	7304.59
493.79	7480.72
493.994	7343.5
494.197	7464.33
494.401	7513.49
494.605	7626.12
494.808	7611.79
495.012	7660.94
495.215	7609.74
495.419	7767.43
495.622	7691.66
495.825	7925.13
496.029	7855.5
496.232	8129.92
496.436	7986.57
496.639	8285.57
496.843	8209.79
497.046	8332.67
497.249	8447.36
497.453	8506.75
497.656	8537.47
497.859	8656.25
498.063	8824.19
498.266	8836.47
498.469	8926.58
498.673	8949.11
498.876	9135.48
499.079	9196.92
499.282	9217.4
499.485	9471.34
499.689	9301.36
499.892	9790.83
500.095	9557.36
500.298	9950.57
500.501	9872.75
500.705	10059.11
500.908	10122.6
501.111	10286.44
501.314	10327.39
501.517	10474.85
501.72	10628.45
501.923	10577.25
502.126	10906.97
502.329	10931.55
502.532	11033.94
502.735	10974.55
502.938	11224.4
503.141	11382.1
503.344	11672.91
503.547	11478.35
503.75	11777.36
503.953	11896.14
504.156	12178.76
504.359	12078.41
504.562	12129.61
504.765	12168.52
504.968	12588.35
505.17	12893.5
505.373	12928.31
505.576	13071.67
505.779	13190.45
505.982	13184.31
506.185	13436.21
506.387	13503.79
506.59	13684.02
506.793	13897
506.996	14062.89
507.198	14419.24
507.401	14337.32
507.604	14562.59
507.807	14759.2
508.009	14689.57
508.212	14945.56
508.415	15072.54
508.617	15437.08
508.82	15455.51
509.022	15277.33
509.225	15879.44
509.428	15965.45
509.63	16004.36
509.833	16362.76
510.035	16821.5
510.238	16461.06
510.44	16979.2
510.643	17134.84
510.845	17339.64
511.048	17251.58
511.25	17425.65
511.453	17581.3
511.655	18154.73
511.858	18015.47
512.06	18339.05
512.262	18455.78
512.465	18478.31
512.667	18978.01
512.87	19033.31
513.072	19109.08
513.274	19541.21
513.477	19541.21
513.679	19991.76
513.881	19954.9
514.084	20288.71
514.286	20313.29
514.488	20456.65
514.69	21120.19
514.893	21195.96
515.095	21396.67
515.297	21564.6
515.499	21879.99
515.701	22213.81
515.904	22123.69
516.106	22381.74
516.308	22678.69
516.51	23166.11
516.712	22787.24
516.914	23364.76
517.116	24038.55
517.318	23866.52
517.52	24245.39
517.722	24292.49
517.925	24679.56
518.127	24949.89
518.329	25009.28
518.531	24970.37
518.733	25762.93
518.935	25945.2
519.136	26311.79
519.338	26723.43
519.54	26784.87
519.742	26975.33
519.944	27477.08
520.146	27556.96
520.348	27989.08
520.55	27962.45
520.752	28279.89
520.954	29041.73
521.155	28998.73
521.357	29459.52
521.559	29770.81
521.761	30145.59
521.963	29850.68
522.164	30348.34
522.366	30460.98
522.568	31032.36
522.77	31276.07
522.971	31765.53
523.173	31190.05
523.375	32173.08
523.576	32236.56
523.778	32752.65
523.98	32785.42
524.181	32787.47
524.383	33352.71
524.584	33520.64
524.786	33606.66
524.988	33909.75
525.189	34489.33
525.391	34610.16
525.592	34913.26
525.794	34786.29
525.995	35298.28
526.197	35363.81
526.398	35396.58
526.6	36035.55
526.801	36129.75
527.003	36355.03
527.204	36522.96
527.406	37211.08
527.607	36633.55
527.808	37399.49
528.01	36955.08
528.211	37299.14
528.412	37678.02
528.614	37833.66
528.815	38042.56
529.016	38536.12
529.218	38106.04
529.419	38380.47
529.62	39136.17
529.822	38587.32
530.023	39025.58
530.224	39074.73
530.425	39285.67
530.626	39087.02
530.828	39271.34
531.029	40221.59
531.23	39476.13
531.431	39967.65
531.632	40317.85
531.833	40002.46
532.035	40309.66
532.236	40168.35
532.437	40367
532.638	40463.25
532.839	40608.66
533.04	40952.72
533.241	40348.57
533.442	41083.79
533.643	41253.77
533.844	40989.58
534.045	41261.96
534.246	41012.11
534.447	41483.14
534.648	41311.11
534.849	41393.03
535.05	40913.81
535.251	41739.14
535.451	41425.8
535.652	41794.43
535.853	41644.93
536.054	41870.21
536.255	42161.02
536.456	41302.92
536.657	42064.77
536.857	41870.21
537.058	41982.85
537.259	42054.53
537.46	41929.6
537.66	41954.18
537.861	41696.13
538.062	41968.51
538.263	42421.11
538.463	41704.32
538.664	41950.08
538.865	41991.04
539.065	42335.1
539.266	41839.49
539.466	42355.58
539.667	41499.53
539.868	42490.74
540.068	42171.26
540.269	42279.8
540.469	42263.42
540.67	41773.95
540.87	42224.51
541.071	42066.81
541.271	42259.32
541.472	42460.02
541.672	42292.09
541.873	42118.01
542.073	41536.39
542.274	42593.14
542.474	42036.09
542.675	41970.56
542.875	42189.69
543.075	41810.82
543.276	42038.14
543.476	42574.71
543.676	41986.94
543.877	42339.19
544.077	41892.74
544.277	41952.13
544.478	42148.73
544.678	42214.27
544.878	41991.04
545.078	42429.3
545.279	42208.12
545.479	42011.52
545.679	42163.07
545.879	42744.69
546.079	42193.79
546.28	42396.54
546.48	41872.26
546.68	42466.17
546.88	42154.88
547.08	42087.29
547.28	42351.48
547.48	41929.6
547.68	42353.53
547.88	41849.73
548.081	42476.41
548.281	42136.45
548.481	41900.93
548.681	42568.57
548.881	41954.18
549.081	42591.09
549.28	41921.41
549.48	42367.87
549.68	41978.75
549.88	42513.27
550.08	42023.81
550.28	42056.57
550.48	41964.42
550.68	42507.13
550.88	41767.81
551.08	42335.1
551.279	41923.46
551.479	42040.19
551.679	42105.73
551.879	42163.07
552.079	42478.46
552.278	41673.6
552.478	42075.01
552.678	42054.53
552.878	41905.02
553.077	41757.57
553.277	41601.93
553.477	42281.85
553.676	41579.4
553.876	41995.14
554.076	41929.6
554.275	41628.55
554.475	41345.93
554.674	41733
554.874	41909.12
555.074	41366.41
555.273	41565.06
555.473	41735.04
555.672	41597.83
555.872	41337.74
556.071	41257.87
556.271	41438.09
556.47	41040.78
556.67	40768.4
556.869	40946.58
557.068	41221
557.268	40584.08
557.467	40854.42
557.667	40659.86
557.866	40872.85
558.065	40020.89
558.265	40147.87
558.464	40268.7
558.663	40868.75
558.863	40160.16
559.062	40547.22
559.261	39918.49
559.461	40518.55
559.66	39775.14
559.859	39977.89
560.058	39283.62
560.258	39766.95
560.457	39467.94
560.656	39748.51
560.855	39187.37
561.054	39185.32
561.253	38880.17
561.453	38888.37
561.652	38898.61
561.851	39017.39
562.05	38398.9
562.249	38028.22
562.448	38615.99
562.647	38159.29
562.846	38304.7
563.045	38493.11
563.244	37569.47
563.443	37940.16
563.642	37475.27
563.841	37747.65
564.04	37323.72
564.239	37602.24
564.438	37546.95
564.637	37585.86
564.836	37206.98
565.035	36846.54
565.234	36994
565.432	36656.08
565.631	36514.77
565.83	36330.45
566.029	36289.49
566.228	36342.74
566.427	35961.82
566.625	35867.61
566.824	35523.55
567.023	35990.49
567.222	35347.43
567.42	35855.32
567.619	35283.94
567.818	35374.05
568.016	34958.31
568.215	35351.52
568.414	34606.06
568.612	34634.74
568.811	34253.81
569.01	34421.75
569.208	34198.52
569.407	33913.85
569.605	33985.53
569.804	34079.74
570.002	33496.06
570.201	33813.5
570.4	33258.5
570.598	33184.77
570.797	33006.6
570.995	33025.03
571.193	32394.26
571.392	32971.78
571.59	32406.55
571.789	32521.23
571.987	32238.61
572.186	32177.17
572.384	31968.28
572.582	31921.18
572.781	31749.15
572.979	31480.86
573.177	31362.08
573.376	31912.99
573.574	30852.14
573.772	31407.14
573.971	30936.1
574.169	30921.77
574.367	30516.27
574.565	31259.68
574.763	30491.69
574.962	30393.39
575.16	30022.71
575.358	30223.41
575.556	29684.8
575.754	30276.66
575.952	29531.2
576.151	30131.25
576.349	29512.77
576.547	29404.22
576.745	29424.7
576.943	29322.3
577.141	29185.09
577.339	28896.33
577.537	28759.11
577.735	28597.32
577.933	28451.92
578.131	28626
578.329	28544.08
578.527	28003.41
578.725	28109.91
578.923	28183.63
579.121	27995.22
579.319	27839.58
579.516	27935.83
579.714	27763.8
579.912	27520.09
580.11	27628.63
580.308	27749.46
580.506	27221.09
580.704	26809.45
580.901	26791.02
581.099	27180.13
581.297	26819.69
581.495	26776.68
581.692	26717.29
581.89	26524.78
582.088	26485.87
582.285	26332.27
582.483	26469.48
582.681	26322.03
582.878	25939.06
583.076	26076.27
583.274	26258.54
583.471	25654.39
583.669	25873.53
583.866	25592.95
584.064	25422.97
584.262	25736.31
584.459	25586.81
584.657	25355.39
584.854	25443.45
585.052	25150.59
585.249	25037.95
585.447	24886.4
585.644	24702.09
585.841	24708.23
586.039	24829.06
586.236	24493.19
586.434	24628.36
586.631	24282.25
586.828	24485
587.026	24247.44
587.223	24253.58
587.42	24282.25
587.618	24026.26
587.815	23956.63
588.012	23780.5
588.21	24011.92
588.407	23766.17
588.604	23897.24
588.801	23524.51
588.999	23438.49
589.196	23340.19
589.393	23303.32
589.59	23239.84
589.787	23100.58
589.984	23471.26
590.182	22733.99
590.379	23037.09
590.576	22932.64
590.773	22977.7
590.97	22774.95
591.167	22850.72
591.364	22486.18
591.561	22459.56
591.758	22486.18
591.955	22482.09
592.152	22449.32
592.349	22271.15
592.546	22334.64
592.743	22154.41
592.94	21687.48
593.137	21972.14
593.334	22047.92
593.531	21535.93
593.727	21812.4
593.924	21595.32
594.121	21378.23
594.318	21535.93
594.515	21439.67
594.712	21810.36
594.908	21449.91
595.105	21437.62
595.302	20896.96
595.499	21011.65
595.696	20884.67
595.892	21130.43
596.089	20843.71
596.286	20876.48
596.482	20759.75
596.679	20378.83
596.876	20597.96
597.072	20536.52
597.269	20147.4
597.466	20178.12
597.662	20065.49
597.859	20159.69
598.055	20184.27
598.252	20090.06
598.448	20026.57
598.645	19944.66
598.841	19746
599.038	19862.74
599.234	19834.07
599.431	19455.19
599.627	19655.89
599.824	19713.24
600.02	19139.8
600.217	19379.42
600.413	19395.8
600.609	19229.91
600.806	19201.24
601.002	19358.94
601.198	19250.39
601.395	18898.14
601.591	18951.39
601.787	18824.42
601.984	18586.85
602.18	18988.25
602.376	18685.15
602.572	18760.93
602.769	18871.52
602.965	18388.2
603.161	18410.73
603.357	18461.93
603.553	18455.78
603.75	18341.1
603.946	18134.25
604.142	18132.2
604.338	17890.54
604.534	17921.26
604.73	17716.47
604.926	17865.97
605.122	17632.5
605.318	17681.65
605.514	17706.23
605.71	17394.93
605.906	17569.01
606.102	17454.33
606.298	17468.66
606.494	17409.27
606.69	17558.77
606.886	17376.5
607.082	17198.33
607.278	17267.96
607.474	16930.05
607.67	17192.19
607.866	16737.54
608.062	17196.28
608.257	16839.94
608.453	16839.94
608.649	16880.89
608.845	16710.91
609.041	16805.12
609.236	16565.51
609.432	16514.31
609.628	16571.65
609.824	16557.32
610.019	16487.68
610.215	16409.86
610.411	16340.23
610.606	16389.38
610.802	16614.66
610.998	16125.19
611.193	16149.77
611.389	16311.56
611.584	16248.07
611.78	16012.56
611.976	15969.55
612.171	16295.18
612.367	15832.33
612.562	15834.38
612.758	15703.31
612.953	15846.67
613.149	16028.94
613.344	15754.51
613.539	15709.46
613.735	15613.2
613.93	15705.36
614.126	15570.19
614.321	15625.49
614.517	15650.07
614.712	15607.06
614.907	15234.33
615.103	15373.59
615.298	15422.74
615.493	15535.38
615.688	15056.15
615.884	15377.69
616.079	15039.77
616.274	15238.42
616.47	15185.18
616.665	15072.54
616.86	14904.6
617.055	14877.98
617.25	14910.75
617.445	15035.67
617.641	14716.19
617.836	14753.05
618.031	14882.08
618.226	14802.21
618.421	14552.35
618.616	14687.52
618.811	14202.15
619.006	14497.06
619.201	13985.07
619.396	14325.03
619.591	14083.37
619.786	14409
619.981	14159.14
620.176	13946.16
620.371	13796.65
620.566	14200.1
620.761	13931.82
620.956	13886.76
621.151	13665.58
621.346	13831.47
621.541	13407.54
621.735	13913.39
621.93	13454.64
622.125	13286.71
622.32	13126.97
622.515	13225.27
622.709	13176.12
622.904	13182.26
623.099	12870.97
623.294	13268.28
623.488	12858.68
623.683	12959.03
623.878	12791.1
624.072	12967.23
624.267	12463.43
624.462	12557.63
624.656	12254.53
624.851	12307.78
625.046	12268.87
625.24	12385.6
625.435	12293.44
625.629	12195.14
625.824	12105.03
626.018	12029.26
626.213	11957.58
626.407	11908.43
626.602	11939.15
626.796	11760.97
626.991	11908.43
627.185	11498.83
627.38	11795.79
627.574	11431.25
627.768	11482.45
627.963	11273.56
628.157	11437.39
628.352	11234.64
628.546	11277.65
628.74	11064.66
628.935	10931.55
629.129	10886.49
629.323	10960.22
629.517	10769.76
629.712	10650.97
629.906	10925.4
630.1	10519.9
630.294	10761.56
630.489	10597.73
630.683	10726.75
630.877	10362.21
631.071	10532.19
631.265	10335.59
631.459	10138.98
631.653	10450.27
631.848	10218.85
632.042	10165.6
632.236	10165.6
632.43	10161.51
632.624	10214.76
632.818	9993.58
633.012	9907.56
633.206	9839.98
633.4	9825.64
633.594	9704.81
633.788	9850.22
633.982	9622.89
634.176	9696.62
634.369	9577.84
634.563	9516.4
634.757	9352.56
634.951	9362.8
635.145	9467.25
635.339	9276.79
635.533	9176.44
635.726	9334.13
635.92	9276.79
636.114	9233.78
636.308	9063.8
636.501	9135.48
636.695	8957.3
636.889	8914.3
637.083	8856.95
637.276	8824.19
637.47	8605.05
637.664	8754.55
637.857	8715.64
638.051	8705.4
638.244	8545.66
638.438	8596.86
638.632	8496.51
638.825	8328.58
639.019	8424.83
639.212	8301.95
639.406	8265.09
639.599	8097.16
639.793	8228.23
639.986	8226.18
640.18	8187.27
640.373	8199.55
640.567	7888.26
640.76	8023.43
640.954	7910.79
641.147	7859.59
641.34	7824.78
641.534	7849.35
641.727	7845.26
641.92	7624.08
642.114	7718.28
642.307	7685.51
642.5	7472.53
642.694	7554.44
642.887	7206.29
643.08	7425.42
643.273	7271.83
643.467	7302.54
643.66	7247.25
643.853	7253.39
644.046	7198.1
644.239	7245.2
644.432	7333.26
644.626	7040.4
644.819	7038.36
645.012	7099.8
645.205	7075.22
645.398	7003.54
645.591	6874.52
645.784	6823.32
645.977	6546.84
646.17	6639
646.363	6864.28
646.556	6598.04
646.749	6583.71
646.942	6602.14
647.135	6663.58
647.328	6571.42
647.521	6583.71
647.714	6342.05
647.907	6368.67
648.099	6346.14
648.292	6421.92
648.485	6301.09
648.678	6258.08
648.871	6213.03
649.064	6178.21
649.256	6217.12
649.449	6161.83
649.642	6004.13
649.835	6124.96
650.027	5995.94
650.22	6002.08
650.413	5950.89
650.605	6075.81
650.798	5834.15
650.991	5813.67
651.183	5860.77
651.376	5703.08
651.568	5817.77
651.761	5883.3
651.954	5725.61
652.146	5707.18
652.339	5844.39
652.531	5572.01
652.724	5664.17
652.916	5696.94
653.109	5410.22
653.301	5633.45
653.494	5559.72
653.686	5442.99
653.879	5598.63
654.071	5414.32
654.263	5475.76
654.456	5359.02
654.648	5428.65
654.84	5219.76
655.033	5248.43
655.225	5250.48
655.417	5176.75
655.61	5240.24
655.802	5223.86
655.994	5117.36
656.186	5207.47
656.379	5189.04
656.571	5154.23
656.763	5137.84
656.955	5062.07
657.148	5125.55
657.34	5023.16
657.532	4896.18
657.724	5014.96
657.916	5166.51
658.108	4947.38
658.3	4826.55
658.492	5006.77
658.684	4830.65
658.876	4855.22
659.068	4816.31
659.26	4785.59
659.452	4814.26
659.644	4763.06
659.836	4789.69
660.028	4715.96
660.22	4650.43
660.412	4617.66
660.604	4576.7
660.796	4543.93
660.988	4648.38
661.18	4527.55
661.372	4476.35
661.563	4652.47
661.755	4470.2
661.947	4490.68
662.139	4494.78
662.331	4550.07
662.522	4378.05
662.714	4474.3
662.906	4419
663.097	4482.49
663.289	4394.43
663.481	4216.26
663.673	4320.7
663.864	4302.27
664.056	4361.66
664.247	4212.16
664.439	4253.12
664.631	4318.65
664.822	4386.24
665.014	4437.44
665.205	4279.74
665.397	4236.74
665.588	4212.16
665.78	4249.02
665.971	4115.91
666.163	4275.65
666.354	4175.3
666.546	4220.35
666.737	4099.52
666.929	4099.52
667.12	4054.47
667.311	4244.93
667.503	4160.96
667.694	4120
667.885	4011.46
668.077	4105.67
668.268	4042.18
668.459	3993.03
668.651	3986.88
668.842	3988.93
669.033	4056.51
669.224	3902.92
669.416	4066.75
669.607	3923.4
669.798	3990.98
669.989	4160.96
670.18	3958.21
670.371	4152.77
670.563	4068.8
670.754	4163.01
670.945	4011.46
671.136	4197.82
671.327	3876.29
671.518	4158.91
671.709	3986.88
671.9	4109.76
672.091	4062.66
672.282	3962.31
672.473	4097.47
672.664	4056.51
672.855	3986.88
673.046	3943.88
673.237	4113.86
673.428	3909.06
673.619	3999.17
673.809	4052.42
674	4130.24
674.191	4109.76
674.382	4044.23
674.573	4132.29
674.764	4060.61
674.954	4195.78
675.145	3980.74
675.336	4042.18
675.527	4017.6
675.717	4128.19
675.908	4152.77
676.099	4105.67
676.289	4269.5
676.48	4052.42
676.671	4236.74
676.861	4044.23
677.052	4083.14
677.243	4097.47
677.433	4111.81
677.624	4353.47
677.814	4105.67
678.005	4173.25
678.195	4332.99
678.386	4027.84
678.576	4175.3
678.767	4163.01
678.957	4261.31
679.148	4339.13
679.338	4363.71
679.529	4292.03
679.719	4287.93
679.909	4363.71
680.1	4535.74
680.29	4195.78
680.481	4318.65
680.671	4445.63
680.861	4617.66
681.052	4609.47
681.242	4476.35
681.432	4367.81
681.622	4449.72
681.813	4441.53
682.003	4486.59
682.193	4412.86
682.383	4519.36
682.573	4617.66
682.764	4601.27
682.954	4738.49
683.144	4576.7
683.334	4445.63
683.524	4523.45
683.714	4529.59
683.904	4591.03
684.094	4537.79
684.284	4543.93
684.474	4599.23
684.664	4552.12
684.854	4789.69
685.044	4687.29
685.234	4627.9
685.424	4507.07
685.614	4511.16
685.804	4730.3
685.994	4531.64
686.184	4552.12
686.374	4496.83
686.564	4580.79
686.753	4537.79
686.943	4419
687.133	4404.67
687.323	4380.09
687.513	4451.77
687.702	4525.5
687.892	4470.2
688.082	4371.9
688.272	4347.33
688.461	4312.51
688.651	4474.3
688.841	4404.67
689.03	4367.81
689.22	4322.75
689.41	4429.24
689.599	4275.65
689.789	4320.7
689.979	4220.35
690.168	4249.02
690.358	4115.91
690.547	4060.61
690.737	4232.64
690.926	4124.1
691.116	4050.37
691.305	4208.06
691.495	4068.8
691.684	4107.71
691.874	3968.45
692.063	4050.37
692.252	3976.64
692.442	4036.03
692.631	3786.18
692.82	3939.78
693.01	3909.06
693.199	3929.54
693.388	3913.16
693.578	3866.05
693.767	3870.15
693.956	3988.93
694.146	3907.01
694.335	3786.18
694.524	3849.67
694.713	3845.57
694.902	3806.66
695.092	3841.48
695.281	3835.33
695.47	3708.36
695.659	3849.67
695.848	3786.18
696.037	3786.18
696.226	3857.86
696.415	3687.88
696.604	3712.46
696.793	3698.12
696.982	3608.01
697.171	3870.15
697.36	3780.04
697.549	3700.17
697.738	3741.13
697.927	3804.61
698.116	3743.17
698.305	3562.95
698.494	3716.55
698.683	3698.12
698.872	3753.41
699.061	3802.57
699.25	3685.83
699.438	3845.57
699.627	3829.19
699.816	3780.04
700.005	3868.1
700.193	3708.36
700.382	3907.01
700.571	3767.75
700.76	3804.61
700.948	3812.81
701.137	3843.53
701.326	3880.39
701.514	3837.38
701.703	3732.94
701.892	3786.18
702.08	3878.34
702.269	3788.23
702.457	3804.61
702.646	3962.31
702.834	3947.97
703.023	3814.85
703.212	4036.03
703.4	3835.33
703.589	3929.54
703.777	3831.24
703.965	3814.85
704.154	3945.92
704.342	3935.68
704.531	3993.03
704.719	3917.25
704.907	4003.27
705.096	4033.99
705.284	3970.5
705.472	3917.25
705.661	4027.84
705.849	4111.81
706.037	4109.76
706.226	3958.21
706.414	4072.9
706.602	4093.38
706.79	4134.34
706.979	3990.98
707.167	4142.53
707.355	4060.61
707.543	4203.97
707.731	4130.24
707.919	4093.38
708.107	4115.91
708.296	4126.15
708.484	4050.37
708.672	4206.02
708.86	4195.78
709.048	4236.74
709.236	4165.06
709.424	4322.75
709.612	4355.52
709.8	4265.41
709.988	4201.92
710.176	4251.07
710.364	4255.17
710.551	4206.02
710.739	4269.5
710.927	4220.35
711.115	4339.13
711.303	4367.81
711.491	4427.2
711.679	4419
711.866	4371.9
712.054	4478.4
712.242	4425.15
712.43	4478.4
712.617	4332.99
712.805	4519.36
712.993	4449.72
713.181	4478.4
713.368	4449.72
713.556	4519.36
713.744	4539.83
713.931	4617.66
714.119	4601.27
714.306	4609.47
714.494	4615.61
714.682	4609.47
714.869	4591.03
715.057	4744.63
715.244	4509.12
715.432	4838.84
715.619	4658.62
715.807	4728.25
715.994	4642.23
716.182	4685.24
716.369	4746.68
716.556	4748.73
716.744	4787.64
716.931	4859.32
717.119	4875.7
717.306	4793.78
717.493	4890.04
717.681	4830.65
717.868	4718.01
718.055	4961.72
718.242	4965.81
718.43	4847.03
718.617	4912.57
718.804	4814.26
718.991	4904.37
719.179	4859.32
719.366	4910.52
719.553	4894.13
719.74	5002.68
719.927	5066.16
720.114	5027.25
720.301	5068.21
720.488	4978.1
720.676	5146.03
720.863	5186.99
721.05	5133.75
721.237	4896.18
721.424	5313.97
721.611	5223.86
721.798	5121.46
721.985	5062.07
722.172	5111.22
722.358	5096.88
722.545	5064.11
722.732	5195.18
722.919	5193.14
723.106	5154.23
723.293	5242.29
723.48	5283.25
723.667	5035.44
723.853	5203.38
724.04	5330.35
724.227	5342.64
724.414	5240.24
724.6	5139.89
724.787	5230
724.974	5410.22
725.161	5318.06
725.347	5268.91
725.534	5461.42
725.72	5475.76
725.907	5309.87
726.094	5438.89
726.28	5453.23
726.467	5256.62
726.653	5404.08
726.84	5285.3
727.027	5434.8
727.213	5395.89
727.4	5430.7
727.586	5408.17
727.773	5328.3
727.959	5469.61
728.145	5524.91
728.332	5395.89
728.518	5424.56
728.705	5664.17
728.891	5365.17
729.077	5572.01
729.264	5500.33
729.45	5578.15
729.636	5576.11
729.823	5563.82
730.009	5483.95
730.195	5494.19
730.382	5481.9
730.568	5516.72
730.754	5537.2
730.94	5584.3
731.126	5717.42
731.313	5594.54
731.499	5666.22
731.685	5555.63
731.871	5678.51
732.057	5719.46
732.243	5569.96
732.429	5641.64
732.615	5565.87
732.801	5682.6
732.987	5674.41
733.173	5549.48
733.359	5551.53
733.545	5674.41
733.731	5625.26
733.917	5572.01
734.103	5600.68
734.289	5537.2
734.475	5666.22
734.661	5588.39
734.847	5586.35
735.033	5633.45
735.219	5500.33
735.404	5746.09
735.59	5600.68
735.776	5612.97
735.962	5649.83
736.148	5592.49
736.333	5655.98
736.519	5600.68
736.705	5686.7
736.89	5688.75
737.076	5727.66
737.262	5539.24
737.447	5707.18
737.633	5592.49
737.819	5658.03
738.004	5567.92
738.19	5504.43
738.375	5567.92
738.561	5572.01
738.747	5414.32
738.932	5434.8
739.118	5467.56
739.303	5522.86
739.489	5371.31
739.674	5508.52
739.859	5316.01
740.045	5238.19
740.23	5301.68
740.416	5350.83
740.601	5598.63
740.786	5252.53
740.972	5207.47
741.157	5320.11
741.342	5236.14
741.528	5223.86
741.713	5051.83
741.898	5258.67
742.084	5330.35
742.269	5248.43
742.454	5232.05
742.639	5148.08
742.824	5121.46
743.01	5217.71
743.195	5309.87
743.38	4986.29
743.565	5094.83
743.75	5221.81
743.935	5211.57
744.12	5076.4
744.305	5072.31
744.49	4974
744.675	4998.58
744.86	4863.41
745.045	5002.68
745.23	4890.04
745.415	4926.9
745.6	4969.91
745.785	4951.48
745.97	4869.56
746.155	4998.58
746.34	4974
746.525	4722.1
746.71	4826.55
746.895	4572.6
747.079	4722.1
747.264	4562.36
747.449	4691.38
747.634	4584.89
747.819	4773.3
748.003	4552.12
748.188	4457.92
748.373	4552.12
748.557	4470.2
748.742	4462.01
748.927	4494.78
749.111	4601.27
749.296	4371.9
749.481	4447.68
749.665	4326.85
749.85	4216.26
750.034	4236.74
750.219	4324.8
750.404	4074.95
750.588	4115.91
750.773	4132.29
750.957	4158.91
751.141	4169.15
751.326	3999.17
751.51	4074.95
751.695	4027.84
751.879	4177.34
752.064	4001.22
752.248	3814.85
752.432	4007.36
752.617	3943.88
752.801	3784.13
752.985	3847.62
753.17	3829.19
753.354	3702.22
753.538	3648.97
753.722	3841.48
753.907	3612.1
754.091	3519.95
754.275	3640.78
754.459	3659.21
754.643	3528.14
754.828	3417.55
755.012	3509.71
755.196	3495.37
755.38	3507.66
755.564	3524.04
755.748	3364.3
755.932	3528.14
756.116	3409.36
756.3	3339.73
756.484	3222.99
756.668	3216.85
756.852	3122.64
757.036	3247.57
757.22	3200.46
757.404	3286.48
757.588	3165.65
757.772	3096.02
757.956	3151.31
758.14	3245.52
758.323	2934.23
758.507	3038.67
758.691	3071.44
758.875	2954.71
759.059	3024.34
759.242	2971.09
759.426	2940.37
759.61	3050.96
759.794	2852.31
759.977	2905.56
760.161	2932.18
760.345	2979.28
760.528	2868.69
760.712	2897.36
760.895	2936.28
761.079	2930.13
761.263	2829.78
761.446	2794.97
761.63	2782.68
761.813	2805.21
761.997	2749.91
762.18	2674.14
762.364	2602.46
762.547	2579.93
762.731	2618.84
762.914	2637.27
763.098	2704.85
763.281	2450.91
763.464	2586.07
763.648	2635.22
763.831	2532.83
764.015	2592.22
764.198	2516.44
764.381	2479.58
764.564	2528.73
764.748	2534.87
764.931	2549.21
765.114	2397.66
765.297	2596.31
765.481	2379.23
765.664	2321.88
765.847	2389.47
766.03	2450.91
766.213	2297.31
766.397	2379.23
766.58	2282.97
766.763	2389.47
766.946	2305.5
767.129	2258.4
767.312	2274.78
767.495	2231.77
767.678	2291.17
767.861	2313.69
768.044	2323.93
768.227	2209.25
768.41	2307.55
768.593	2297.31
768.776	2317.79
768.959	2125.28
769.142	2323.93
769.324	2139.62
769.507	2151.9
769.69	2182.62
769.873	2176.48
770.056	2094.56
770.239	2061.79
770.421	2153.95
770.604	2094.56
770.787	2008.55
770.97	2133.47
771.152	2004.45
771.335	1959.39
771.518	1900
771.7	2000.35
771.883	2043.36
772.066	1881.57
772.248	1914.34
772.431	1955.3
772.613	1977.83
772.796	1922.53
772.978	1996.26
773.161	1900
773.343	1848.8
773.526	1930.72
773.708	1900
773.891	1775.08
774.073	1824.23
774.256	1820.13
774.438	1828.32
774.621	1674.73
774.803	1756.65
774.985	1717.73
775.168	1695.21
775.35	1701.35
775.532	1715.69
775.715	1582.57
775.897	1684.97
776.079	1725.93
776.261	1693.16
776.444	1601
776.626	1676.77
776.808	1625.58
776.99	1590.76
777.173	1691.11
777.355	1596.9
777.537	1572.33
777.719	1590.76
777.901	1568.23
778.083	1514.98
778.265	1504.75
778.447	1445.35
778.629	1480.17
778.811	1478.12
778.993	1492.46
779.175	1437.16
779.357	1447.4
779.539	1377.77
779.721	1443.31
779.903	1338.86
780.085	1334.76
780.267	1342.96
780.449	1340.91
780.631	1385.96
780.812	1443.31
780.994	1263.08
781.176	1269.23
781.358	1428.97
781.54	1293.8
781.721	1222.13
781.903	1322.48
782.085	1226.22
782.267	1345
782.448	1220.08
782.63	1168.88
782.812	1197.55
782.993	1256.94
783.175	1166.83
783.357	1166.83
783.538	1205.74
783.72	1175.02
783.901	1218.03
784.083	1234.41
784.264	1234.41
784.446	996.85
784.627	1086.96
784.809	1074.67
784.99	1148.4
785.172	1078.77
785.353	1062.38
785.535	1043.95
785.716	1123.82
785.897	990.7
786.079	1078.77
786.26	1076.72
786.441	1078.77
786.623	943.6
786.804	904.69
786.985	964.08
787.167	894.45
787.348	953.84
787.529	910.83
787.71	996.85
787.891	857.59
788.073	902.64
788.254	833.01
788.435	871.92
788.616	943.6
788.797	871.92
788.978	968.18
789.159	849.4
789.34	808.44
789.522	886.26
789.703	904.69
789.884	839.16
790.065	849.4
790.246	953.84
790.427	865.78
790.607	853.49
790.788	808.44
790.969	773.62
791.15	810.48
791.331	763.38
791.512	767.48
791.693	669.17
791.874	824.82
792.054	828.92
792.235	839.16
792.416	742.9
792.597	802.29
792.778	820.72
792.958	828.92
793.139	781.81
793.32	747
793.5	609.78
793.681	751.09
793.862	726.52
794.042	681.46
794.223	673.27
794.404	720.37
794.584	683.51
794.765	660.98
794.945	701.94
795.126	740.85
795.306	665.08
795.487	665.08
795.667	601.59
795.848	658.93
796.028	636.41
796.209	581.11
796.389	640.5
796.57	620.02
796.75	601.59
796.93	685.56
797.111	617.97
797.291	617.97
797.471	693.75
797.652	663.03
797.832	632.31
798.012	624.12
798.192	534.01
798.373	486.9
798.553	536.06
798.733	628.21
798.913	536.06
799.093	636.41
799.274	587.26
799.454	634.36
799.634	611.83
799.814	636.41
799.994	570.87
800.174	667.13
800.354	488.95
800.534	509.43
800.714	611.83
800.894	493.05
801.074	544.25
801.254	595.45
801.434	622.07
801.614	472.57
801.794	511.48
801.974	1283.56
802.154	531.96
802.334	474.62
802.514	472.57
802.693	548.34
802.873	491
803.053	572.92
803.233	560.63
803.413	499.19
803.592	505.34
803.772	441.85
803.952	497.14
804.131	470.52
804.311	497.14
804.491	579.06
804.67	454.14
804.85	456.19
805.03	531.96
805.209	482.81
805.389	454.14
805.568	396.79
805.748	382.46
805.928	464.38
806.107	511.48
806.287	421.37
806.466	415.23
806.646	441.85
806.825	456.19
807.004	452.09
807.184	433.66
807.363	472.57
807.543	447.99
807.722	427.51
807.901	445.95
808.081	445.95
808.26	331.26
808.439	488.95
808.619	478.71
808.798	415.23
808.977	431.61
809.156	396.79
809.336	318.97
809.515	472.57
809.694	374.27
809.873	284.16
810.052	355.83
810.231	464.38
810.411	355.83
810.59	384.51
810.769	392.7
810.948	419.32
811.127	269.82
811.306	431.61
811.485	275.96
811.664	417.27
811.843	390.65
812.022	306.68
812.201	382.46
812.38	368.12
812.559	337.4
812.737	480.76
812.916	275.96
813.095	284.16
813.274	288.25
813.453	271.87
813.632	372.22
813.811	341.5
813.989	318.97
814.168	316.92
814.347	329.21
814.526	318.97
814.704	329.21
814.883	382.46
815.062	347.64
815.24	345.59
815.419	237.05
815.598	392.7
815.776	214.52
815.955	331.26
816.133	284.16
816.312	255.48
816.49	308.73
816.669	423.42
816.847	259.58
817.026	284.16
817.204	308.73
817.383	349.69
817.561	235
817.74	294.4
817.918	278.01
818.097	298.49
818.275	255.48
818.453	265.72
818.632	341.5
818.81	241.15
818.988	271.87
819.167	263.68
819.345	255.48
819.523	224.76
819.701	314.88
819.879	271.87
820.058	251.39
820.236	202.24
820.414	181.76
820.592	226.81
820.77	282.11
820.948	210.43
821.127	208.38
821.305	318.97
821.483	294.4
821.661	345.59
821.839	194.05
822.017	263.68
822.195	298.49
822.373	230.91
822.551	218.62
822.729	212.48
822.907	204.28
823.085	296.44
823.262	259.58
823.44	267.77
823.618	194.05
823.796	173.57
823.974	245.24
824.152	247.29
824.329	210.43
824.507	304.64
824.685	210.43
824.863	189.95
825.04	280.06
825.218	185.85
825.396	189.95
825.574	189.95
825.751	206.33
825.929	169.47
826.107	235
826.284	169.47
826.462	245.24
826.639	173.57
826.817	218.62
826.994	253.44
827.172	177.66
827.349	269.82
827.527	198.14
827.704	259.58
827.882	153.09
828.059	196.09
828.237	179.71
828.414	181.76
828.591	198.14
828.769	194.05
828.946	161.28
829.124	243.2
829.301	214.52
829.478	181.76
829.655	194.05
829.833	159.23
830.01	112.13
830.187	189.95
830.364	220.67
830.542	185.85
830.719	183.81
830.896	226.81
831.073	126.46
831.25	181.76
831.427	216.57
831.604	175.61
831.782	108.03
831.959	275.96
832.136	108.03
832.313	200.19
832.49	159.23
832.667	185.85
832.844	126.46
833.021	177.66
833.198	165.37
833.374	194.05
833.551	169.47
833.728	105.98
833.905	148.99
834.082	132.61
834.259	192
834.436	210.43
834.612	108.03
834.789	179.71
834.966	151.04
835.143	97.79
835.319	99.84
835.496	132.61
835.673	183.81
835.85	222.72
836.026	177.66
836.203	128.51
836.38	83.45
836.556	144.89
836.733	159.23
836.909	230.91
837.086	101.89
837.262	38.4
837.439	136.7
837.616	134.65
837.792	50.69
837.968	169.47
838.145	67.07
838.321	85.5
838.498	101.89
838.674	91.65
838.851	169.47
839.027	161.28
839.203	165.37
839.38	167.42
839.556	85.5
839.732	192
839.909	101.89
840.085	165.37
840.261	151.04
840.437	26.11
840.614	151.04
840.79	91.65
840.966	95.74
841.142	69.12
841.318	130.56
841.494	124.41
841.671	148.99
841.847	114.17
842.023	138.75
842.199	163.33
842.375	153.09
842.551	71.17
842.727	110.08
842.903	208.38
843.079	118.27
843.255	87.55
843.431	75.26
843.607	120.32
843.783	30.21
843.959	87.55
844.134	79.36
844.31	128.51
844.486	120.32
844.662	46.59
844.838	112.13
845.013	101.89
845.189	103.93
845.365	93.69
845.541	140.8
845.716	112.13
845.892	128.51
846.068	91.65
846.244	36.35
846.419	26.11
846.595	85.5
846.77	17.92
846.946	67.07
847.122	30.21
847.297	1.54
847.473	101.89
847.648	103.93
847.824	128.51
847.999	118.27
848.175	54.78
848.35	79.36
848.526	165.37
848.701	136.7
848.876	144.89
849.052	103.93
849.227	58.88
849.403	22.02
849.578	46.59
849.753	75.26
849.929	87.55
850.104	-6.66
850.279	42.5
850.454	136.7
850.63	87.55
850.805	142.85
850.98	34.3
851.155	17.92
851.33	114.17
851.505	38.4
851.681	126.46
851.856	38.4
852.031	101.89
852.206	118.27
852.381	62.98
852.556	136.7
852.731	46.59
852.906	110.08
853.081	40.45
853.256	73.21
853.431	116.22
853.606	136.7
853.781	-27.14
853.956	44.54
854.131	101.89
854.305	5.63
854.48	112.13
854.655	19.97
854.83	-18.94
855.005	11.78
855.18	9.73
855.354	77.31
855.529	56.83
855.704	-12.8
855.879	71.17
856.053	-18.94
856.228	87.55
856.403	-20.99
856.577	69.12
856.752	11.78
856.926	118.27
857.101	1.54
857.276	22.02
857.45	85.5
857.625	71.17
857.799	44.54
857.974	105.98
858.148	62.98
858.323	91.65
858.497	50.69
858.672	17.92
858.846	-45.57
859.02	110.08
859.195	13.82
859.369	32.26
859.543	52.74
859.718	85.5
859.892	54.78
860.066	60.93
860.241	-6.66
860.415	-10.75
860.589	22.02
860.763	30.21
860.938	-37.38
861.112	36.35
861.286	52.74
861.46	58.88
861.634	62.98
861.808	114.17
861.982	22.02
862.157	-8.7
862.331	22.02
862.505	93.69
862.679	-41.47
862.853	19.97
863.027	38.4
863.201	77.31
863.375	40.45
863.549	30.21
863.722	83.45
863.896	128.51
864.07	22.02
864.244	75.26
864.418	19.97
864.592	3.58
864.766	-39.42
864.939	19.97
865.113	67.07
865.287	103.93
865.461	19.97
865.634	46.59
865.808	-14.85
865.982	58.88
866.156	24.06
866.329	5.63
866.503	79.36
866.676	54.78
866.85	-18.94
867.024	7.68
867.197	95.74
867.371	95.74
867.544	19.97
867.718	-12.8
867.891	50.69
868.065	7.68
868.238	36.35
868.412	9.73
868.585	46.59
868.759	28.16
868.932	-23.04
869.105	-2.56
869.279	34.3
869.452	5.63
869.625	26.11
869.799	1.54
869.972	-102.91
870.145	1.54
870.319	75.26
870.492	28.16
870.665	-43.52
870.838	3.58
871.011	-25.09
871.185	15.87
871.358	-20.99
871.531	112.13
871.704	-10.75
871.877	36.35
872.05	50.69
872.223	52.74
872.396	44.54
872.569	46.59
872.742	-107.01
872.915	30.21
873.088	5.63
873.261	-29.18
873.434	44.54
873.607	-16.9
873.78	42.5
873.953	-78.33
874.126	58.88
874.299	112.13
874.471	-2.56
874.644	15.87
874.817	-2.56
874.99	22.02
875.163	-0.51
875.335	-68.09
875.508	30.21
875.681	58.88
875.853	13.82
876.026	-55.81
876.199	60.93
876.371	15.87
876.544	22.02
876.717	42.5
876.889	13.82
877.062	30.21
877.234	-68.09
877.407	42.5
877.579	-18.94
877.752	-12.8
877.924	58.88
878.097	46.59
878.269	19.97
878.442	38.4
878.614	42.5
878.786	11.78
878.959	-6.66
879.131	44.54
879.303	13.82
879.476	50.69
879.648	99.84
879.82	58.88
879.993	-59.9
880.165	1.54
880.337	-35.33
880.509	19.97
880.681	34.3
880.854	13.82
881.026	34.3
881.198	75.26
881.37	50.69
881.542	22.02
881.714	48.64
881.886	-109.05
882.058	-18.94
882.23	103.93
882.402	15.87
882.574	13.82
882.746	-14.85
882.918	13.82
883.09	52.74
883.262	-4.61
883.434	32.26
883.606	85.5
883.778	9.73
883.95	87.55
884.122	44.54
884.293	42.5
884.465	36.35
884.637	52.74
884.809	-27.14
884.98	19.97
885.152	3.58
885.324	3.58
885.496	69.12
885.667	-2.56
885.839	-111.1
886.011	44.54
886.182	-20.99
886.354	11.78
886.525	42.5
886.697	52.74
886.869	38.4
887.04	-23.04
887.212	22.02
887.383	75.26
887.555	36.35
887.726	-23.04
887.897	26.11
888.069	-10.75
888.24	52.74
888.412	110.08
888.583	-59.9
888.754	19.97
888.926	-86.53
889.097	-39.42
889.268	-37.38
889.44	81.41
889.611	-2.56
889.782	-18.94
889.953	-18.94
890.125	108.03
890.296	-70.14
890.467	-10.75
890.638	-35.33
890.809	1.54
890.98	-72.19
891.151	46.59
891.323	60.93
891.494	-25.09
891.665	-6.66
891.836	-18.94
892.007	34.3
892.178	32.26
892.349	38.4
892.52	-20.99
892.691	13.82
892.862	26.11
893.032	-68.09
893.203	-10.75
893.374	5.63
893.545	42.5
893.716	-2.56
893.887	19.97
894.057	-10.75
894.228	67.07
894.399	-39.42
894.57	1.54
894.74	62.98
894.911	-25.09
895.082	3.58
895.253	42.5
895.423	5.63
895.594	-6.66
895.764	54.78
895.935	-43.52
896.106	-66.05
896.276	46.59
896.447	9.73
896.617	-35.33
896.788	3.58
896.958	-6.66
897.129	13.82
897.299	-20.99
897.47	95.74
897.64	22.02
897.81	-49.66
897.981	-6.66
898.151	-4.61
898.322	-2.56
898.492	85.5
898.662	9.73
898.832	-45.57
899.003	73.21
899.173	28.16
899.343	-0.51
899.513	11.78
