Data from USB4F104151__67__11-31-04-408.txt Node

Date: Fri Mar 14 11:31:04 EDT 2025
User: louis
Spectrometer: USB4F10415
Trigger mode: 4
Integration Time (sec): 5.000000E-2
Scans to average: 1
Electric dark correction enabled: true
Nonlinearity correction enabled: false
Boxcar width: 0
XAxis mode: Wavelengths
Number of Pixels in Spectrum: 3648
>>>>>Begin Spectral Data<<<<<
178.204	-145.75
178.424	-145.75
178.644	-145.75
178.864	-90.45
179.084	-182.61
179.304	-20.82
179.524	-29.01
179.744	-55.64
179.964	67.24
180.184	83.63
180.404	-24.92
180.624	28.33
180.844	-4.44
181.064	-14.68
181.283	-4.44
181.503	-22.87
181.723	-2.39
181.943	-98.64
182.163	18.09
182.383	1.71
182.602	34.47
182.822	26.28
183.042	75.43
183.262	50.86
183.482	-14.68
183.701	-24.92
183.921	54.95
184.141	-43.35
184.361	32.43
184.58	83.63
184.8	-22.87
185.02	-0.34
185.239	89.77
185.459	18.09
185.679	149.16
185.898	26.28
186.118	-8.53
186.338	59.05
186.557	95.91
186.777	-47.44
186.997	-18.77
187.216	52.91
187.436	79.53
187.655	73.39
187.875	1.71
188.095	13.99
188.314	16.04
188.534	100.01
188.753	-41.3
188.973	87.72
189.192	48.81
189.412	24.23
189.631	-8.53
189.851	9.9
190.07	34.47
190.29	9.9
190.509	22.19
190.729	-6.49
190.948	9.9
191.168	194.22
191.387	18.09
191.607	-18.77
191.826	79.53
192.045	-18.77
192.265	32.43
192.484	73.39
192.704	79.53
192.923	18.09
193.142	118.44
193.362	57
193.581	118.44
193.8	9.9
194.02	26.28
194.239	30.38
194.458	34.47
194.678	40.62
194.897	-39.25
195.116	32.43
195.335	26.28
195.555	93.87
195.774	-4.44
195.993	34.47
196.212	36.52
196.432	59.05
196.651	5.8
196.87	77.48
197.089	118.44
197.308	95.91
197.528	34.47
197.747	-55.64
197.966	34.47
198.185	54.95
198.404	16.04
198.623	-2.39
198.842	26.28
199.062	65.19
199.281	81.58
199.5	7.85
199.719	24.23
199.938	28.33
200.157	-29.01
200.376	34.47
200.595	79.53
200.814	-2.39
201.033	-49.49
201.252	34.47
201.471	63.15
201.69	32.43
201.909	87.72
202.128	-8.53
202.347	9.9
202.566	-0.34
202.785	9.9
203.004	-49.49
203.223	89.77
203.442	-14.68
203.661	20.14
203.879	48.81
204.098	54.95
204.317	-37.2
204.536	18.09
204.755	-0.34
204.974	83.63
205.193	5.8
205.411	153.26
205.63	32.43
205.849	130.73
206.068	-96.6
206.287	50.86
206.505	13.99
206.724	-24.92
206.943	22.19
207.162	16.04
207.381	-29.01
207.599	11.95
207.818	-67.92
208.037	50.86
208.255	22.19
208.474	9.9
208.693	13.99
208.911	-35.16
209.13	38.57
209.349	54.95
209.567	61.1
209.786	11.95
210.005	44.71
210.223	63.15
210.442	20.14
210.661	3.75
210.879	-2.39
211.098	65.19
211.316	46.76
211.535	59.05
211.753	65.19
211.972	-31.06
212.191	73.39
212.409	50.86
212.628	38.57
212.846	7.85
213.065	48.81
213.283	9.9
213.502	-16.73
213.72	81.58
213.938	-22.87
214.157	57
214.375	18.09
214.594	-2.39
214.812	-6.49
215.031	22.19
215.249	9.9
215.467	3.75
215.686	26.28
215.904	57
216.122	24.23
216.341	106.15
216.559	-6.49
216.778	38.57
216.996	81.58
217.214	26.28
217.432	-35.16
217.651	108.2
217.869	-6.49
218.087	57
218.306	-4.44
218.524	-6.49
218.742	-35.16
218.96	52.91
219.179	-26.96
219.397	-4.44
219.615	38.57
219.833	79.53
220.051	13.99
220.27	57
220.488	71.34
220.706	95.91
220.924	38.57
221.142	34.47
221.36	46.76
221.578	59.05
221.796	18.09
222.015	20.14
222.233	34.47
222.451	38.57
222.669	-59.73
222.887	85.67
223.105	-43.35
223.323	-33.11
223.541	-6.49
223.759	75.43
223.977	81.58
224.195	18.09
224.413	46.76
224.631	50.86
224.849	16.04
225.067	108.2
225.285	-33.11
225.503	59.05
225.721	-41.3
225.939	24.23
226.157	-8.53
226.375	147.11
226.592	-8.53
226.81	46.76
227.028	59.05
227.246	69.29
227.464	-12.63
227.682	22.19
227.9	26.28
228.117	50.86
228.335	-14.68
228.553	-18.77
228.771	46.76
228.989	18.09
229.206	22.19
229.424	-90.45
229.642	-6.49
229.86	-8.53
230.077	71.34
230.295	-45.4
230.513	42.67
230.731	18.09
230.948	95.91
231.166	63.15
231.384	50.86
231.601	-14.68
231.819	77.48
232.037	48.81
232.254	65.19
232.472	-22.87
232.689	-16.73
232.907	61.1
233.125	50.86
233.342	-0.34
233.56	-10.58
233.777	-14.68
233.995	48.81
234.213	108.2
234.43	1.71
234.648	-6.49
234.865	22.19
235.083	32.43
235.3	46.76
235.518	50.86
235.735	42.67
235.953	75.43
236.17	-26.96
236.388	-16.73
236.605	54.95
236.822	18.09
237.04	-16.73
237.257	16.04
237.475	-45.4
237.692	34.47
237.909	20.14
238.127	18.09
238.344	20.14
238.562	59.05
238.779	-69.97
238.996	-72.02
239.214	-6.49
239.431	26.28
239.648	18.09
239.865	9.9
240.083	16.04
240.3	20.14
240.517	-31.06
240.735	7.85
240.952	50.86
241.169	71.34
241.386	63.15
241.603	-12.63
241.821	-22.87
242.038	100.01
242.255	9.9
242.472	-33.11
242.689	-18.77
242.907	46.76
243.124	11.95
243.341	18.09
243.558	20.14
243.775	-10.58
243.992	9.9
244.209	16.04
244.426	134.82
244.643	83.63
244.86	-53.59
245.078	42.67
245.295	42.67
245.512	-12.63
245.729	34.47
245.946	-0.34
246.163	22.19
246.38	24.23
246.597	38.57
246.814	9.9
247.031	-84.31
247.248	59.05
247.464	26.28
247.681	54.95
247.898	26.28
248.115	50.86
248.332	18.09
248.549	44.71
248.766	61.1
248.983	-6.49
249.2	7.85
249.417	28.33
249.633	-10.58
249.85	69.29
250.067	-8.53
250.284	-67.92
250.501	42.67
250.717	54.95
250.934	-22.87
251.151	20.14
251.368	100.01
251.585	-16.73
251.801	-49.49
252.018	-57.68
252.235	69.29
252.451	7.85
252.668	-33.11
252.885	28.33
253.102	24.23
253.318	26.28
253.535	13.99
253.752	28.33
253.968	52.91
254.185	-33.11
254.401	-20.82
254.618	34.47
254.835	69.29
255.051	61.1
255.268	22.19
255.484	24.23
255.701	42.67
255.917	40.62
256.134	1.71
256.351	81.58
256.567	-84.31
256.784	34.47
257	-100.69
257.217	40.62
257.433	36.52
257.65	67.24
257.866	77.48
258.082	-22.87
258.299	-69.97
258.515	28.33
258.732	38.57
258.948	-31.06
259.165	30.38
259.381	48.81
259.597	9.9
259.814	57
260.03	22.19
260.246	18.09
260.463	73.39
260.679	38.57
260.895	9.9
261.112	155.3
261.328	-16.73
261.544	-26.96
261.761	83.63
261.977	-49.49
262.193	-22.87
262.409	42.67
262.626	-31.06
262.842	1.71
263.058	-18.77
263.274	18.09
263.49	118.44
263.707	11.95
263.923	59.05
264.139	-39.25
264.355	52.91
264.571	57
264.787	-4.44
265.004	67.24
265.22	81.58
265.436	63.15
265.652	71.34
265.868	95.91
266.084	65.19
266.3	79.53
266.516	-41.3
266.732	-61.78
266.948	77.48
267.164	77.48
267.38	46.76
267.596	151.21
267.812	91.82
268.028	13.99
268.244	7.85
268.46	-29.01
268.676	-26.96
268.892	83.63
269.108	26.28
269.324	-10.58
269.54	-37.2
269.756	108.2
269.972	-16.73
270.188	-49.49
270.403	30.38
270.619	-20.82
270.835	75.43
271.051	75.43
271.267	-8.53
271.483	44.71
271.698	48.81
271.914	-31.06
272.13	59.05
272.346	34.47
272.562	26.28
272.777	122.54
272.993	30.38
273.209	34.47
273.425	-2.39
273.64	57
273.856	26.28
274.072	34.47
274.287	-57.68
274.503	42.67
274.719	59.05
274.934	-31.06
275.15	-76.12
275.366	-41.3
275.581	57
275.797	42.67
276.012	50.86
276.228	106.15
276.444	-24.92
276.659	91.82
276.875	-18.77
277.09	16.04
277.306	81.58
277.521	7.85
277.737	59.05
277.952	24.23
278.168	30.38
278.383	63.15
278.599	-2.39
278.814	5.8
279.03	-12.63
279.245	26.28
279.461	-6.49
279.676	36.52
279.892	-26.96
280.107	18.09
280.322	18.09
280.538	-31.06
280.753	30.38
280.969	-18.77
281.184	54.95
281.399	87.72
281.615	59.05
281.83	11.95
282.045	-29.01
282.26	-74.07
282.476	16.04
282.691	57
282.906	67.24
283.122	59.05
283.337	-47.44
283.552	7.85
283.767	75.43
283.983	71.34
284.198	24.23
284.413	16.04
284.628	13.99
284.843	26.28
285.058	79.53
285.274	1.71
285.489	-82.26
285.704	30.38
285.919	22.19
286.134	5.8
286.349	50.86
286.564	7.85
286.779	91.82
286.995	87.72
287.21	-0.34
287.425	-41.3
287.64	-22.87
287.855	-47.44
288.07	34.47
288.285	26.28
288.5	71.34
288.715	20.14
288.93	16.04
289.145	9.9
289.36	13.99
289.575	-18.77
289.79	16.04
290.004	24.23
290.219	16.04
290.434	-14.68
290.649	-14.68
290.864	9.9
291.079	44.71
291.294	-6.49
291.509	-14.68
291.724	75.43
291.938	1.71
292.153	50.86
292.368	73.39
292.583	32.43
292.798	-24.92
293.012	1.71
293.227	-10.58
293.442	32.43
293.657	42.67
293.871	87.72
294.086	59.05
294.301	124.58
294.516	57
294.73	5.8
294.945	-47.44
295.16	30.38
295.374	-24.92
295.589	34.47
295.804	-29.01
296.018	-2.39
296.233	83.63
296.447	-10.58
296.662	26.28
296.877	65.19
297.091	-22.87
297.306	9.9
297.52	-31.06
297.735	11.95
297.949	-39.25
298.164	7.85
298.378	18.09
298.593	-59.73
298.807	42.67
299.022	18.09
299.236	97.96
299.451	5.8
299.665	-6.49
299.88	5.8
300.094	-53.59
300.309	1.71
300.523	-47.44
300.737	-6.49
300.952	7.85
301.166	-24.92
301.381	93.87
301.595	87.72
301.809	-43.35
302.024	13.99
302.238	22.19
302.452	42.67
302.667	-74.07
302.881	155.3
303.095	71.34
303.309	32.43
303.524	26.28
303.738	20.14
303.952	26.28
304.166	91.82
304.381	-55.64
304.595	59.05
304.809	16.04
305.023	59.05
305.237	-55.64
305.452	32.43
305.666	34.47
305.88	91.82
306.094	83.63
306.308	75.43
306.522	54.95
306.736	91.82
306.95	81.58
307.164	28.33
307.379	40.62
307.593	81.58
307.807	30.38
308.021	24.23
308.235	63.15
308.449	-14.68
308.663	-39.25
308.877	102.06
309.091	13.99
309.305	1.71
309.519	-63.83
309.733	38.57
309.947	54.95
310.161	116.39
310.374	3.75
310.588	59.05
310.802	-41.3
311.016	30.38
311.23	18.09
311.444	20.14
311.658	-10.58
311.872	-6.49
312.085	-2.39
312.299	42.67
312.513	59.05
312.727	16.04
312.941	-61.78
313.154	28.33
313.368	40.62
313.582	63.15
313.796	106.15
314.009	18.09
314.223	24.23
314.437	13.99
314.651	75.43
314.864	-12.63
315.078	1.71
315.292	-2.39
315.505	-14.68
315.719	87.72
315.933	77.48
316.146	-4.44
316.36	-29.01
316.573	81.58
316.787	-8.53
317.001	-61.78
317.214	-18.77
317.428	59.05
317.641	-12.63
317.855	9.9
318.068	42.67
318.282	75.43
318.495	65.19
318.709	75.43
318.922	91.82
319.136	42.67
319.349	79.53
319.563	50.86
319.776	54.95
319.99	1.71
320.203	65.19
320.417	75.43
320.63	114.34
320.843	91.82
321.057	40.62
321.27	46.76
321.483	50.86
321.697	22.19
321.91	3.75
322.124	34.47
322.337	63.15
322.55	46.76
322.763	42.67
322.977	83.63
323.19	-31.06
323.403	38.57
323.617	30.38
323.83	24.23
324.043	-22.87
324.256	38.57
324.469	73.39
324.683	1.71
324.896	-72.02
325.109	16.04
325.322	-72.02
325.535	143.02
325.748	38.57
325.962	-61.78
326.175	9.9
326.388	122.54
326.601	57
326.814	-67.92
327.027	48.81
327.24	38.57
327.453	-26.96
327.666	36.52
327.879	34.47
328.092	73.39
328.305	-16.73
328.518	18.09
328.731	9.9
328.944	-0.34
329.157	-8.53
329.37	-0.34
329.583	110.25
329.796	91.82
330.009	-16.73
330.222	9.9
330.435	3.75
330.648	-8.53
330.861	24.23
331.073	89.77
331.286	97.96
331.499	-47.44
331.712	20.14
331.925	42.67
332.138	11.95
332.35	83.63
332.563	-84.31
332.776	61.1
332.989	54.95
333.202	-43.35
333.414	-6.49
333.627	38.57
333.84	24.23
334.053	24.23
334.265	36.52
334.478	36.52
334.691	13.99
334.903	93.87
335.116	13.99
335.329	-6.49
335.541	34.47
335.754	36.52
335.966	46.76
336.179	48.81
336.392	-6.49
336.604	26.28
336.817	97.96
337.029	42.67
337.242	40.62
337.454	22.19
337.667	54.95
337.88	143.02
338.092	-16.73
338.305	-22.87
338.517	-96.6
338.729	42.67
338.942	34.47
339.154	-14.68
339.367	-96.6
339.579	46.76
339.792	-0.34
340.004	108.2
340.217	-22.87
340.429	9.9
340.641	59.05
340.854	7.85
341.066	7.85
341.278	77.48
341.491	81.58
341.703	-35.16
341.915	-18.77
342.128	83.63
342.34	48.81
342.552	9.9
342.764	1.71
342.977	-2.39
343.189	112.3
343.401	5.8
343.613	34.47
343.826	11.95
344.038	-16.73
344.25	16.04
344.462	-31.06
344.674	-6.49
344.886	-16.73
345.099	42.67
345.311	40.62
345.523	38.57
345.735	-33.11
345.947	40.62
346.159	16.04
346.371	46.76
346.583	-96.6
346.795	34.47
347.007	-47.44
347.219	69.29
347.431	-16.73
347.643	20.14
347.855	3.75
348.067	87.72
348.279	-29.01
348.491	-2.39
348.703	-8.53
348.915	108.2
349.127	32.43
349.339	83.63
349.551	77.48
349.763	81.58
349.975	-16.73
350.187	132.78
350.399	85.67
350.61	-31.06
350.822	-41.3
351.034	24.23
351.246	36.52
351.458	69.29
351.669	38.57
351.881	-14.68
352.093	48.81
352.305	9.9
352.517	38.57
352.728	50.86
352.94	-31.06
353.152	20.14
353.363	79.53
353.575	50.86
353.787	79.53
353.999	1.71
354.21	132.78
354.422	-8.53
354.633	59.05
354.845	-2.39
355.057	50.86
355.268	57
355.48	11.95
355.692	20.14
355.903	34.47
356.115	-6.49
356.326	-6.49
356.538	104.11
356.749	11.95
356.961	106.15
357.172	57
357.384	30.38
357.595	138.92
357.807	-2.39
358.018	-0.34
358.23	-2.39
358.441	120.49
358.653	100.01
358.864	26.28
359.075	-6.49
359.287	89.77
359.498	50.86
359.709	73.39
359.921	87.72
360.132	-47.44
360.344	87.72
360.555	34.47
360.766	50.86
360.977	28.33
361.189	46.76
361.4	48.81
361.611	57
361.823	87.72
362.034	91.82
362.245	13.99
362.456	-24.92
362.667	65.19
362.879	57
363.09	-31.06
363.301	13.99
363.512	22.19
363.723	54.95
363.935	54.95
364.146	7.85
364.357	59.05
364.568	65.19
364.779	40.62
364.99	91.82
365.201	-29.01
365.412	-2.39
365.623	-65.88
365.834	59.05
366.045	40.62
366.256	95.91
366.467	40.62
366.678	100.01
366.889	93.87
367.1	50.86
367.311	38.57
367.522	-2.39
367.733	38.57
367.944	67.24
368.155	-49.49
368.366	50.86
368.577	22.19
368.788	97.96
368.999	7.85
369.209	24.23
369.42	108.2
369.631	175.78
369.842	91.82
370.053	22.19
370.264	34.47
370.474	-18.77
370.685	18.09
370.896	18.09
371.107	77.48
371.317	-6.49
371.528	26.28
371.739	79.53
371.95	46.76
372.16	-4.44
372.371	-2.39
372.582	46.76
372.792	-22.87
373.003	16.04
373.214	32.43
373.424	32.43
373.635	46.76
373.846	91.82
374.056	-24.92
374.267	26.28
374.477	85.67
374.688	-2.39
374.898	87.72
375.109	79.53
375.319	91.82
375.53	73.39
375.74	57
375.951	13.99
376.161	63.15
376.372	110.25
376.582	-24.92
376.793	77.48
377.003	-18.77
377.214	91.82
377.424	44.71
377.635	-0.34
377.845	-12.63
378.055	132.78
378.266	-92.5
378.476	46.76
378.686	48.81
378.897	59.05
379.107	110.25
379.317	7.85
379.528	24.23
379.738	83.63
379.948	13.99
380.158	30.38
380.369	67.24
380.579	95.91
380.789	-10.58
380.999	20.14
381.21	38.57
381.42	116.39
381.63	46.76
381.84	5.8
382.05	36.52
382.261	20.14
382.471	95.91
382.681	95.91
382.891	26.28
383.101	91.82
383.311	-2.39
383.521	20.14
383.731	-10.58
383.941	116.39
384.151	118.44
384.361	-14.68
384.571	102.06
384.781	112.3
384.991	91.82
385.201	85.67
385.411	112.3
385.621	9.9
385.831	122.54
386.041	40.62
386.251	65.19
386.461	67.24
386.671	26.28
386.881	1.71
387.091	54.95
387.301	9.9
387.511	50.86
387.72	44.71
387.93	38.57
388.14	48.81
388.35	42.67
388.56	44.71
388.769	149.16
388.979	97.96
389.189	44.71
389.399	18.09
389.609	91.82
389.818	126.63
390.028	18.09
390.238	38.57
390.447	100.01
390.657	13.99
390.867	-0.34
391.076	-24.92
391.286	63.15
391.496	40.62
391.705	40.62
391.915	95.91
392.125	124.58
392.334	-4.44
392.544	32.43
392.753	71.34
392.963	36.52
393.172	65.19
393.382	1.71
393.591	171.69
393.801	-0.34
394.01	63.15
394.22	87.72
394.429	61.1
394.639	81.58
394.848	97.96
395.058	91.82
395.267	65.19
395.477	16.04
395.686	67.24
395.895	132.78
396.105	192.17
396.314	169.64
396.524	65.19
396.733	48.81
396.942	161.45
397.152	116.39
397.361	114.34
397.57	140.97
397.78	100.01
397.989	138.92
398.198	175.78
398.407	-0.34
398.617	73.39
398.826	71.34
399.035	36.52
399.244	169.64
399.453	57
399.663	91.82
399.872	57
400.081	59.05
400.29	128.68
400.499	13.99
400.708	91.82
400.917	48.81
401.127	34.47
401.336	59.05
401.545	71.34
401.754	42.67
401.963	143.02
402.172	9.9
402.381	50.86
402.59	100.01
402.799	124.58
403.008	114.34
403.217	118.44
403.426	212.65
403.635	-2.39
403.844	100.01
404.053	91.82
404.262	87.72
404.471	218.79
404.68	169.64
404.888	114.34
405.097	22.19
405.306	190.12
405.515	138.92
405.724	147.11
405.933	183.98
406.142	100.01
406.35	89.77
406.559	97.96
406.768	159.4
406.977	194.22
407.185	100.01
407.394	165.54
407.603	120.49
407.812	259.75
408.02	237.22
408.229	196.26
408.438	245.41
408.646	157.35
408.855	239.27
409.064	190.12
409.272	222.89
409.481	241.32
409.69	272.04
409.898	235.18
410.107	276.13
410.315	292.52
410.524	249.51
410.733	304.81
410.941	237.22
411.15	304.81
411.358	382.63
411.567	296.61
411.775	298.66
411.984	313
412.192	433.83
412.401	325.29
412.609	417.44
412.818	423.59
413.026	425.64
413.234	456.36
413.443	362.15
413.651	423.59
413.86	442.02
414.068	482.98
414.276	560.8
414.485	487.08
414.693	528.03
414.901	636.58
415.11	585.38
415.318	542.37
415.526	614.05
415.734	687.78
415.943	687.78
416.151	618.15
416.359	679.58
416.567	698.02
416.776	761.5
416.984	837.28
417.192	833.18
417.4	802.46
417.608	786.08
417.817	906.91
418.025	884.38
418.233	1001.12
418.441	947.87
418.649	1001.12
418.857	1099.42
419.065	1148.57
419.273	1021.6
419.481	1115.8
419.689	1189.53
419.897	1242.78
420.105	1115.8
420.313	1273.5
420.521	1320.6
420.729	1334.93
420.937	1339.03
421.145	1549.97
421.353	1515.16
421.561	1580.69
421.769	1705.62
421.977	1740.43
422.185	1717.9
422.393	1750.67
422.601	1887.89
422.809	1904.27
423.017	1963.66
423.224	1998.48
423.432	2057.87
423.64	2100.87
423.848	2358.92
424.056	2217.61
424.263	2459.27
424.471	2356.87
424.679	2496.13
424.887	2590.34
425.094	2729.6
425.302	2670.21
425.51	2653.83
425.718	2987.65
425.925	2903.68
426.133	3063.42
426.341	3149.43
426.548	3247.74
426.756	3286.65
426.964	3313.27
427.171	3509.88
427.379	3487.35
427.586	3597.94
427.794	3769.97
428.001	3982.96
428.209	4238.95
428.417	4060.78
428.624	4390.5
428.832	4290.15
429.039	4380.26
429.247	4453.99
429.454	4798.05
429.662	5125.72
429.869	4775.52
430.076	5162.59
430.284	5052
430.491	5111.39
430.699	5424.73
430.906	5408.34
431.114	5502.55
431.321	5807.7
431.528	5957.2
431.736	6149.71
431.943	6411.85
432.15	6180.43
432.358	6407.75
432.565	6946.37
432.772	6749.76
432.979	7018.05
433.187	7269.95
433.394	7267.9
433.601	7743.03
433.808	7747.12
434.016	7833.14
434.223	7978.54
434.43	8594.98
434.637	8345.13
434.844	8889.89
435.052	8994.34
435.259	9057.82
435.466	9115.17
435.673	9082.4
435.88	9537.05
436.087	10151.44
436.294	10016.27
436.501	9928.21
436.708	10100.24
436.915	10481.16
437.122	10929.67
437.329	10882.56
437.537	11118.08
437.743	11386.36
437.95	11302.4
438.157	11603.45
438.364	12361.2
438.571	12125.68
438.778	12369.39
438.985	13415.9
439.192	13151.71
439.399	13368.8
439.606	13213.15
439.813	13669.85
440.02	14509.52
440.227	14548.43
440.433	14321.1
440.64	14388.69
440.847	14925.25
441.054	14947.78
441.261	15957.43
441.467	15875.51
441.674	16055.73
441.881	16596.4
442.088	16686.51
442.294	16715.18
442.501	16924.07
442.708	17223.08
442.914	18068.89
443.121	18718.09
443.328	18451.86
443.534	19410.31
443.741	19002.76
443.948	18816.4
444.154	20051.32
444.361	20055.42
444.568	20209.01
444.774	20161.91
444.981	20338.04
445.187	20946.28
445.394	21761.37
445.6	21392.74
445.807	23639.36
446.013	22650.19
446.22	23063.88
446.426	23776.58
446.633	24108.35
446.839	25011.5
447.046	23733.57
447.252	25230.63
447.459	25019.69
447.665	25013.55
447.871	26236.19
448.078	27147.53
448.284	26211.61
448.491	26844.43
448.697	27647.24
448.903	28316.92
449.11	28159.23
449.316	27819.27
449.522	28224.76
449.728	29168.88
449.935	29631.72
450.141	29467.88
450.347	30182.62
450.553	29285.61
450.76	29205.74
450.966	30479.58
451.172	29955.3
451.378	30635.22
451.584	29883.62
451.791	30743.77
451.997	30909.65
452.203	31380.68
452.409	31235.28
452.615	31073.49
452.821	29977.83
453.027	29590.76
453.233	31349.96
453.44	29883.62
453.646	30211.29
453.852	30256.35
454.058	30614.74
454.264	29785.32
454.47	30455
454.676	29924.58
454.882	30414.04
455.088	28017.92
455.294	28247.29
455.5	28595.45
455.705	29201.65
455.911	27661.57
456.117	27372.81
456.323	27000.08
456.529	25576.74
456.735	26764.56
456.941	26076.44
457.147	25394.47
457.352	24417.59
457.558	24497.46
457.764	24456.5
457.97	23864.64
458.176	23377.22
458.381	23514.44
458.587	22252.89
458.793	22373.72
458.999	21050.73
459.204	22584.66
459.41	21947.74
459.616	20370.8
459.821	20604.27
460.027	20411.76
460.233	20149.62
460.438	19127.69
460.644	19350.92
460.85	18347.41
461.055	18115.99
461.261	17999.26
461.466	16639.4
461.672	16321.97
461.878	17372.58
462.083	16227.76
462.289	15971.77
462.494	15855.03
462.7	15060.42
462.905	14720.46
463.111	14953.93
463.316	15295.94
463.522	14843.34
463.727	14917.06
463.932	14857.67
464.138	14695.88
464.343	14820.81
464.549	14652.88
464.754	14892.49
464.959	14630.35
465.165	14400.97
465.37	14056.92
465.575	13694.43
465.781	14052.82
465.986	14216.66
466.191	13663.71
466.397	13358.56
466.602	12838.37
466.807	13454.81
467.012	13520.35
467.218	13149.67
467.423	13137.38
467.628	13096.42
467.833	13639.13
468.038	13501.92
468.244	12869.09
468.449	13157.86
468.654	12924.39
468.859	12862.95
469.064	12848.61
469.269	12320.24
469.474	12279.28
469.679	12461.55
469.885	12105.2
470.09	12215.79
470.295	12232.18
470.5	11920.88
470.705	12283.38
470.91	11582.97
471.115	11554.3
471.32	11785.72
471.525	11777.53
471.73	11527.67
471.935	11335.17
472.139	11144.7
472.344	11240.96
472.549	10782.21
472.754	11056.64
472.959	10657.29
473.164	10587.66
473.369	10294.8
473.574	10761.73
473.778	10728.97
473.983	10470.92
474.188	10542.6
474.393	9997.84
474.598	10046.99
474.802	9899.54
475.007	9926.16
475.212	10110.48
475.417	9479.71
475.621	9618.97
475.826	9453.08
476.031	9453.08
476.235	9176.61
476.44	9270.81
476.645	9266.72
476.849	9133.6
477.054	9008.67
477.259	8971.81
477.463	8824.36
477.668	8828.45
477.872	8840.74
478.077	8617.51
478.282	8312.36
478.486	8375.85
478.691	8437.29
478.895	8453.67
479.1	8255.02
479.304	8435.24
479.509	8082.99
479.713	8218.16
479.918	8044.08
480.122	7870
480.326	8035.89
480.531	7986.74
480.735	7790.13
480.94	7861.81
481.144	8003.12
481.348	7640.63
481.553	7927.35
481.757	7640.63
481.961	7620.15
482.166	7734.84
482.37	7831.09
482.574	7847.47
482.778	7693.88
482.983	7779.89
483.187	7706.17
483.391	7697.97
483.595	7464.5
483.8	7632.44
484.004	7706.17
484.208	7814.71
484.412	7679.54
484.616	7730.74
484.821	7726.64
485.025	7480.89
485.229	7663.16
485.433	7513.66
485.637	7736.88
485.841	7480.89
486.045	7601.72
486.249	7833.14
486.453	7620.15
486.657	7677.49
486.861	7634.49
487.065	7509.56
487.269	7593.53
487.473	7503.42
487.677	7738.93
487.881	7915.06
488.085	7663.16
488.289	7765.56
488.493	7597.62
488.697	7861.81
488.901	7630.39
489.105	7769.65
489.309	7806.52
489.512	7679.54
489.716	7886.39
489.92	7657.01
490.124	7783.99
490.328	7915.06
490.531	7689.78
490.735	7861.81
490.939	7863.86
491.143	7734.84
491.346	7806.52
491.55	7947.83
491.754	8076.85
491.958	8013.36
492.161	8160.81
492.365	8015.41
492.569	8021.55
492.772	8101.42
492.976	8029.74
493.18	8193.58
493.383	8234.54
493.587	8431.15
493.79	8336.94
493.994	8214.06
494.197	8484.39
494.401	8599.08
494.605	8500.78
494.808	8607.27
495.012	8662.57
495.215	8732.2
495.419	8828.45
495.622	8820.26
495.825	8910.37
496.029	8994.34
496.232	9010.72
496.436	9133.6
496.639	9289.24
496.843	9111.07
497.046	9283.1
497.249	9338.4
497.453	9479.71
497.656	9516.57
497.859	9561.62
498.063	9780.76
498.266	9997.84
498.469	10010.13
498.673	9946.64
498.876	10126.86
499.079	10229.26
499.282	10210.83
499.485	10622.47
499.689	10524.17
499.892	10751.49
500.095	10593.8
500.298	10915.33
500.501	10911.24
500.705	11091.46
500.908	11425.28
501.111	11234.82
501.314	11347.45
501.517	11697.66
501.72	11648.5
501.923	11892.21
502.126	12076.53
502.329	12275.18
502.532	12051.95
502.735	12260.85
502.938	12656.11
503.141	12436.97
503.344	12787.18
503.547	12813.8
503.75	13149.67
503.953	13164
504.156	13354.46
504.359	13499.87
504.562	13534.68
504.765	13739.48
504.968	14001.62
505.17	13929.94
505.373	13874.65
505.576	14222.8
505.779	14468.56
505.982	14376.4
506.185	14933.45
506.387	14876.1
506.59	15025.61
506.793	15377.86
506.996	15295.94
507.198	15809.98
507.401	15494.59
507.604	15846.84
507.807	16041.4
508.009	15930.81
508.212	16262.58
508.415	16457.14
508.617	16651.69
508.82	16743.85
509.022	16795.05
509.225	17083.81
509.428	17210.79
509.63	17251.75
509.833	17583.52
510.035	17816.99
510.238	17794.46
510.44	17859.99
510.643	18374.03
510.845	18228.63
511.048	18437.52
511.25	18582.93
511.453	18509.2
511.655	19312
511.858	19314.05
512.06	19330.44
512.262	19529.09
512.465	19606.91
512.667	19881.34
512.87	20022.65
513.072	20182.39
513.274	20622.7
513.477	20606.32
513.679	20745.58
513.881	21177.7
514.084	21208.42
514.286	21095.78
514.488	21407.08
514.69	22093.15
514.893	22062.43
515.095	21972.32
515.297	22293.85
515.499	22478.16
515.701	22764.88
515.904	23121.23
516.106	22994.25
516.308	23276.87
516.51	23698.75
516.712	23641.41
516.914	24261.94
517.116	24286.52
517.318	24519.99
517.52	24495.41
517.722	24780.08
517.925	25013.55
518.127	25013.55
518.329	25396.52
518.531	25439.53
518.733	26027.29
518.935	26072.35
519.136	26033.44
519.338	26641.68
519.54	26793.23
519.742	27038.99
519.944	27067.66
520.146	27614.47
520.348	27804.93
520.55	27718.92
520.752	27938.05
520.954	28579.06
521.155	28163.32
521.357	28728.56
521.559	28787.96
521.761	29287.66
521.963	29066.48
522.164	29547.75
522.366	29695.21
522.568	30356.7
522.77	30010.59
522.971	30672.09
523.173	30547.16
523.375	30504.15
523.576	30825.68
523.778	31114.45
523.98	31290.57
524.181	31626.44
524.383	31319.24
524.584	32062.66
524.786	32007.36
524.988	32085.19
525.189	32343.23
525.391	32738.49
525.592	32507.07
525.794	33516.72
525.995	32922.8
526.197	33014.96
526.398	33115.31
526.6	33498.28
526.801	33799.33
527.003	34034.85
527.204	34114.72
527.406	34448.54
527.607	34630.81
527.808	34827.42
528.01	34454.68
528.211	34507.93
528.412	35562.64
528.614	34958.49
528.815	35488.91
529.016	35720.33
529.218	35222.67
529.419	35730.57
529.62	35404.94
529.822	36113.54
530.023	36140.16
530.224	36134.02
530.425	36070.53
530.626	36109.44
530.828	35728.52
531.029	36729.98
531.23	36420.73
531.431	36320.38
531.632	36543.61
531.833	36764.79
532.035	36723.83
532.236	36865.14
532.437	36899.96
532.638	37330.03
532.839	37063.8
533.04	37166.2
533.241	37031.03
533.442	37438.58
533.643	37246.07
533.844	37528.69
534.045	37579.89
534.246	37188.72
534.447	37891.18
534.648	37659.76
534.849	37626.99
535.05	37158
535.251	37327.99
535.451	37330.03
535.652	37948.52
535.853	37686.38
536.054	37520.49
536.255	38061.16
536.456	37583.98
536.657	37964.9
536.857	37735.53
537.058	37643.37
537.259	38077.54
537.46	37821.55
537.66	37555.31
537.861	38024.29
538.062	37878.89
538.263	38073.45
538.463	37850.22
538.664	37860.46
538.865	37899.37
539.065	38581.34
539.266	37606.51
539.466	38163.56
539.667	37672.04
539.868	38454.37
540.068	37856.36
540.269	37901.42
540.469	38290.53
540.67	37969
540.87	37987.43
541.071	37981.29
541.271	38550.62
541.472	37837.93
541.672	37428.34
541.873	37991.53
542.073	37807.21
542.274	38294.63
542.474	37919.85
542.675	37508.21
542.875	38026.34
543.075	37923.94
543.276	37430.38
543.476	38038.63
543.676	38036.58
543.877	38075.49
544.077	37702.76
544.277	37745.77
544.478	37502.06
544.678	37756.01
544.878	37932.14
545.078	37827.69
545.279	37401.71
545.479	37833.83
545.679	37829.74
545.879	37811.31
546.079	37903.46
546.28	37661.8
546.48	37514.35
546.68	38030.44
546.88	38036.58
547.08	37934.18
547.28	37956.71
547.48	37940.33
547.68	38081.64
547.88	37403.76
548.081	38196.32
548.281	37657.71
548.481	37391.47
548.681	37966.95
548.881	37735.53
549.081	37962.86
549.28	37887.08
549.48	38181.99
549.68	37602.41
549.88	37909.61
550.08	37989.48
550.28	37880.94
550.48	37753.96
550.68	37940.33
550.88	37620.84
551.08	37600.36
551.279	37977.19
551.479	37530.73
551.679	37794.92
551.879	37446.77
552.079	37651.56
552.278	37891.18
552.478	37561.45
552.678	37762.15
552.878	37749.87
553.077	37418.1
553.277	37260.4
553.477	37915.75
553.676	37414
553.876	37289.07
554.076	37465.2
554.275	37592.17
554.475	36959.35
554.674	37422.19
554.874	37508.21
555.074	36889.72
555.273	37350.51
555.473	37399.66
555.672	36963.45
555.872	37031.03
556.071	37323.89
556.271	37323.89
556.47	36797.56
556.67	36576.38
556.869	36828.28
557.068	37031.03
557.268	36549.76
557.467	36791.42
557.667	36818.04
557.866	36676.73
558.065	36508.8
558.265	36453.5
558.464	36172.93
558.663	36510.85
558.863	35794.06
559.062	36355.2
559.261	35990.66
559.461	36443.26
559.66	36023.43
559.859	35841.16
560.058	35593.36
560.258	35808.39
560.457	35511.44
560.656	35830.92
560.855	35685.51
561.054	35527.82
561.253	35277.97
561.453	35619.98
561.652	35339.41
561.851	35386.51
562.05	34940.05
562.249	34532.51
562.448	35007.64
562.647	35122.32
562.846	34657.43
563.045	34716.82
563.244	34294.94
563.443	35114.13
563.642	34374.81
563.841	34337.95
564.04	34038.95
564.239	34503.84
564.438	33979.56
564.637	34010.28
564.836	34178.21
565.035	33313.97
565.234	33914.02
565.432	33539.24
565.631	33365.17
565.83	33782.95
566.029	33111.22
566.228	33211.57
566.427	33246.38
566.625	32853.17
566.824	32789.69
567.023	33012.91
567.222	32443.58
567.42	32666.81
567.619	32357.56
567.818	32402.62
568.016	32005.31
568.215	32324.8
568.414	32138.43
568.612	32400.57
568.811	32255.17
569.01	32093.38
569.208	31556.81
569.407	32029.89
569.605	31485.13
569.804	31378.64
570.002	31431.88
570.201	31380.68
570.4	30944.47
570.598	30891.22
570.797	30907.6
570.995	30754.01
571.193	30309.6
571.392	30559.45
571.59	30489.82
571.789	30368.99
571.987	30186.72
572.186	30285.02
572.384	30420.19
572.582	29897.95
572.781	30199.01
572.979	29584.62
573.177	29725.93
573.376	29521.13
573.574	29359.34
573.772	29699.3
573.971	29349.1
574.169	29527.27
574.367	29084.91
574.565	29209.84
574.763	28941.55
574.962	29043.95
575.16	28620.02
575.358	28812.53
575.556	28744.95
575.754	28742.9
575.952	28480.76
576.151	28484.86
576.349	28458.23
576.547	28370.17
576.745	28480.76
576.943	28341.5
577.141	27800.83
577.339	28073.21
577.537	27766.02
577.735	27505.93
577.933	27370.76
578.131	27813.12
578.329	27323.66
578.527	27196.68
578.725	27501.83
578.923	27763.97
579.121	27528.45
579.319	27231.5
579.516	27041.04
579.714	27155.72
579.912	26905.87
580.11	27055.37
580.308	26504.47
580.506	26625.3
580.704	26483.99
580.901	26795.28
581.099	26686.74
581.297	26133.79
581.495	26293.53
581.692	26623.25
581.89	26033.44
582.088	26076.44
582.285	25922.85
582.483	25869.6
582.681	25965.85
582.878	25761.06
583.076	25623.84
583.274	25900.32
583.471	25277.74
583.669	25802.02
583.866	25400.62
584.064	25967.9
584.262	25044.27
584.459	25027.88
584.657	25214.25
584.854	25419.05
585.052	24593.72
585.249	24972.59
585.447	25062.7
585.644	24618.29
585.841	24991.02
586.039	24988.97
586.236	24386.87
586.434	24364.34
586.631	24337.72
586.828	24302.9
587.026	24307
587.223	24216.89
587.42	23899.45
587.618	24419.64
587.815	23897.41
588.012	24085.82
588.21	23997.76
588.407	23878.97
588.604	23717.18
588.801	23747.9
588.999	23450.95
589.196	23797.06
589.393	23770.43
589.59	23199.05
589.787	23129.42
589.984	23303.5
590.182	22820.17
590.379	23082.31
590.576	23235.91
590.773	22986.06
590.97	22568.27
591.167	22873.42
591.364	22617.43
591.561	22773.07
591.758	22594.9
591.955	22347.09
592.152	22451.54
592.349	22504.79
592.546	22365.53
592.743	22191.45
592.94	21988.7
593.137	22256.98
593.334	22033.75
593.531	22000.99
593.727	22410.58
593.924	21794.14
594.121	21841.25
594.318	21912.92
594.515	21802.33
594.712	21818.72
594.908	21613.92
595.105	21521.76
595.302	21228.9
595.499	21480.8
595.696	21392.74
595.892	21329.25
596.089	20899.18
596.286	21273.96
596.482	20919.66
596.679	21030.25
596.876	21101.93
597.072	20731.25
597.269	20872.56
597.466	20606.32
597.662	20553.07
597.859	20620.66
598.055	20661.62
598.252	20508.02
598.448	20583.79
598.645	20548.98
598.841	20405.62
599.038	20442.48
599.234	20297.08
599.431	19850.62
599.627	19901.82
599.824	20002.17
600.02	19885.44
600.217	20180.34
600.413	19795.32
600.609	19893.63
600.806	19565.95
601.002	19881.34
601.198	19436.93
601.395	19369.35
601.591	19629.44
601.787	19164.55
601.984	19365.25
602.18	19301.76
602.376	19408.26
602.572	19080.58
602.769	19199.37
602.965	18890.12
603.161	19326.34
603.357	18824.59
603.553	18816.4
603.75	18879.88
603.946	18875.79
604.142	18670.99
604.338	18521.49
604.534	18406.8
604.73	18163.09
604.926	18326.93
605.122	18603.41
605.318	18165.14
605.514	18195.86
605.71	18242.96
605.906	18349.46
606.102	18085.27
606.298	18443.67
606.494	18036.12
606.69	18046.36
606.886	17968.54
607.082	17786.27
607.278	17759.64
607.474	17776.03
607.67	17792.41
607.866	17397.15
608.062	17812.89
608.257	17761.69
608.453	17704.35
608.649	17601.95
608.845	17493.41
609.041	17530.27
609.236	17329.57
609.432	17687.96
609.628	17288.61
609.824	17274.28
610.019	17132.97
610.215	17171.88
610.411	17319.33
610.606	17239.46
610.802	17030.57
610.998	17135.01
611.193	17022.37
611.389	16905.64
611.584	17139.11
611.78	16889.26
611.976	16793
612.171	16889.26
612.367	16758.19
612.562	16919.98
612.758	16768.43
612.953	16348.59
613.149	16678.32
613.344	16606.64
613.539	16620.97
613.735	16620.97
613.93	16725.42
614.126	16375.22
614.321	16477.62
614.517	16270.77
614.712	16530.86
614.907	16362.93
615.103	16596.4
615.298	16233.91
615.493	16182.71
615.688	16068.02
615.884	16508.33
616.079	16088.5
616.274	16278.96
616.47	15986.1
616.665	16309.68
616.86	15889.85
617.055	15629.76
617.25	15842.74
617.445	16084.41
617.641	15961.53
617.836	15889.85
618.031	15685.05
618.226	15711.67
618.421	15635.9
618.616	15783.35
618.811	15433.15
619.006	15844.79
619.201	15416.77
619.396	15406.53
619.591	14992.84
619.786	15355.33
619.981	15275.46
620.176	15037.89
620.371	15080.9
620.566	14964.17
620.761	14974.41
620.956	15183.3
621.151	14761.42
621.346	14945.73
621.541	14708.17
621.735	14728.65
621.93	14730.7
622.125	14530
622.32	14331.34
622.515	14513.61
622.709	14169.55
622.904	14204.37
623.099	14206.42
623.294	14040.53
623.488	13786.58
623.683	13989.33
623.878	13753.82
624.072	13784.54
624.267	13936.09
624.462	13630.94
624.656	13485.53
624.851	13420
625.046	13387.23
625.24	13567.45
625.435	13317.6
625.629	13188.58
625.824	12996.07
626.018	13018.6
626.213	12871.14
626.407	13055.46
626.602	12865
626.796	12676.59
626.991	13116.9
627.185	12813.8
627.38	12670.44
627.574	12516.84
627.768	12379.63
627.963	12406.25
628.157	12383.73
628.352	12426.73
628.546	11992.56
628.74	12373.49
628.935	11949.56
629.129	12123.63
629.323	12115.44
629.517	11703.8
629.712	11746.81
629.906	11795.96
630.1	11542.01
630.294	11757.05
630.489	11664.89
630.683	11609.59
630.877	11396.6
631.071	11445.76
631.265	11462.14
631.459	11349.5
631.653	11269.63
631.848	11091.46
632.042	11130.37
632.236	11230.72
632.43	11097.6
632.624	10993.15
632.818	10704.39
633.012	10731.01
633.206	10741.25
633.4	10862.08
633.594	10487.31
633.788	10804.74
633.982	10599.94
634.176	10653.19
634.369	10532.36
634.563	10315.28
634.757	10237.45
634.951	10354.19
635.145	10272.27
635.339	10368.52
635.533	10143.25
635.726	10196.5
635.92	9879.06
636.114	9954.83
636.308	9907.73
636.501	9905.68
636.695	9954.83
636.889	9747.99
637.083	9782.81
637.276	9743.89
637.47	9602.58
637.664	9500.19
637.857	9659.93
638.051	9500.19
638.244	9410.08
638.438	9438.75
638.632	9442.84
638.825	9360.92
639.019	9121.31
639.212	9223.71
639.406	9172.51
639.599	9072.16
639.793	9182.75
639.986	8926.75
640.18	8959.52
640.373	8859.17
640.567	8681
640.76	8683.05
640.954	8801.83
641.147	8805.92
641.34	8832.55
641.534	8762.92
641.727	8521.26
641.92	8439.34
642.114	8363.56
642.307	8445.48
642.5	8504.87
642.694	8222.25
642.887	8343.08
643.08	8289.84
643.273	8461.87
643.467	8203.82
643.66	8082.99
643.853	8039.98
644.046	8171.05
644.239	8070.7
644.432	8007.22
644.626	7896.63
644.819	8144.43
645.012	7837.24
645.205	7904.82
645.398	7786.04
645.591	7894.58
645.784	7636.53
645.977	7642.68
646.17	7636.53
646.363	7634.49
646.556	7552.57
646.749	7493.18
646.942	7607.86
647.135	7431.74
647.328	7468.6
647.521	7372.35
647.714	7228.99
647.907	7417.4
648.099	7114.3
648.292	7267.9
648.485	7196.22
648.678	7153.21
648.871	7013.95
649.064	7128.64
649.256	7054.91
649.449	6985.28
649.642	6985.28
649.835	6977.09
650.027	7001.66
650.22	6899.27
650.413	6774.34
650.605	6880.83
650.798	6788.68
650.991	6690.37
651.183	6772.29
651.376	6534.73
651.568	6794.82
651.761	6719.04
651.954	6557.25
652.146	6522.44
652.339	6493.77
652.531	6536.77
652.724	6555.21
652.916	6411.85
653.109	6463.05
653.301	6434.38
653.494	6358.6
653.686	6207.05
653.879	6448.71
654.071	6108.75
654.263	6258.25
654.456	6125.13
654.648	6340.17
654.84	5981.78
655.033	6121.04
655.225	6047.31
655.417	6026.83
655.61	6043.21
655.802	6098.51
655.994	6024.78
656.186	5834.32
656.379	5916.24
656.571	5951.06
656.763	5846.61
656.955	5772.88
657.148	5656.15
657.34	5783.12
657.532	5815.89
657.724	5647.96
657.916	5621.33
658.108	5615.19
658.3	5549.65
658.492	5570.13
658.684	5457.5
658.876	5486.17
659.068	5619.28
659.26	5680.72
659.452	5414.49
659.644	5437.02
659.836	5473.88
660.028	5346.91
660.22	5361.24
660.412	5310.04
660.604	5314.14
660.796	5371.48
660.988	5367.38
661.18	5238.36
661.372	5264.99
661.563	5166.68
661.755	5260.89
661.947	5332.57
662.139	5162.59
662.331	5072.48
662.522	5086.81
662.714	5144.16
662.906	5248.6
663.097	5088.86
663.289	5017.18
663.481	5142.11
663.673	5033.57
663.864	5064.29
664.056	4925.02
664.247	4951.65
664.439	4865.63
664.631	4959.84
664.822	5039.71
665.014	4947.55
665.205	4865.63
665.397	4839.01
665.588	4900.45
665.78	4900.45
665.971	4888.16
666.163	4783.71
666.354	4791.91
666.546	4906.59
666.737	4685.41
666.929	4720.23
667.12	4761.19
667.311	4810.34
667.503	4677.22
667.694	4884.06
667.885	4695.65
668.077	4650.6
668.268	4726.37
668.459	4671.08
668.651	4765.28
668.842	4658.79
669.033	4685.41
669.224	4589.16
669.416	4724.32
669.607	4576.87
669.798	4572.77
669.989	4759.14
670.18	4712.03
670.371	4609.64
670.563	4527.72
670.754	4687.46
670.945	4609.64
671.136	4480.61
671.327	4599.4
671.518	4683.36
671.709	4580.96
671.9	4589.16
672.091	4562.53
672.282	4548.2
672.473	4488.81
672.664	4664.93
672.855	4585.06
673.046	4642.4
673.237	4472.42
673.428	4572.77
673.619	4597.35
673.809	4587.11
674	4603.49
674.191	4570.72
674.382	4525.67
674.573	4572.77
674.764	4580.96
674.954	4789.86
675.145	4445.8
675.336	4603.49
675.527	4556.39
675.717	4609.64
675.908	4574.82
676.099	4671.08
676.289	4755.04
676.48	4632.16
676.671	4601.44
676.861	4755.04
677.052	4640.36
677.243	4777.57
677.433	4613.73
677.624	4712.03
677.814	4879.97
678.005	4677.22
678.195	4867.68
678.386	4650.6
678.576	4601.44
678.767	4882.02
678.957	4798.05
679.148	4908.64
679.338	4793.95
679.529	4802.15
679.719	4839.01
679.909	5090.91
680.1	4945.5
680.29	4884.06
680.481	4890.21
680.671	4781.67
680.861	4861.54
681.052	4906.59
681.242	4832.86
681.432	4947.55
681.622	4982.37
681.813	4955.74
682.003	4939.36
682.193	4953.7
682.383	5146.2
682.573	5002.85
682.764	4904.54
682.954	5002.85
683.144	5015.13
683.334	5084.77
683.524	4873.82
683.714	5049.95
683.904	4912.74
684.094	5037.66
684.284	5095
684.474	5119.58
684.664	5078.62
684.854	5070.43
685.044	4986.46
685.234	5006.94
685.424	5023.33
685.614	5076.57
685.804	5076.57
685.994	5060.19
686.184	4939.36
686.374	4998.75
686.564	4970.08
686.753	4937.31
686.943	4888.16
687.133	4826.72
687.323	4847.2
687.513	4879.97
687.702	4933.22
687.892	4912.74
688.082	4918.88
688.272	4777.57
688.461	4714.08
688.651	4783.71
688.841	4558.44
689.03	4720.23
689.22	4638.31
689.41	4626.02
689.599	4554.34
689.789	4773.47
689.979	4546.15
690.168	4523.62
690.358	4408.94
690.547	4322.92
690.737	4531.81
690.926	4456.04
691.116	4425.32
691.305	4365.93
691.495	4456.04
691.684	4392.55
691.874	4318.82
692.063	4202.09
692.252	4277.87
692.442	4152.94
692.631	4087.4
692.82	4107.88
693.01	4122.22
693.199	4251.24
693.388	4114.03
693.578	4089.45
693.767	4077.16
693.956	3911.28
694.146	3731.06
694.335	3958.38
694.524	3942
694.713	3892.85
694.902	3860.08
695.092	3808.88
695.281	3751.54
695.47	3954.29
695.659	3769.97
695.848	3741.3
696.037	3683.95
696.226	3823.22
696.415	3827.31
696.604	3841.65
696.793	3686
696.982	3665.52
697.171	3729.01
697.36	3741.3
697.549	3595.89
697.738	3626.61
697.927	3622.52
698.116	3604.08
698.305	3724.91
698.494	3737.2
698.683	3585.65
698.872	3845.74
699.061	3542.64
699.25	3565.17
699.438	3606.13
699.627	3620.47
699.816	3622.52
700.005	3571.32
700.193	3577.46
700.382	3526.26
700.571	3556.98
700.76	3683.95
700.948	3630.71
701.137	3565.17
701.326	3653.23
701.514	3554.93
701.703	3565.17
701.892	3499.64
702.08	3499.64
702.269	3597.94
702.457	3507.83
702.646	3464.82
702.834	3501.69
703.023	3466.87
703.212	3591.8
703.4	3548.79
703.589	3597.94
703.777	3593.84
703.965	3475.06
704.154	3516.02
704.342	3563.12
704.531	3638.9
704.719	3573.36
704.907	3851.89
705.096	3563.12
705.284	3595.89
705.472	3532.4
705.661	3688.05
705.849	3827.31
706.037	3671.67
706.226	3559.03
706.414	3688.05
706.602	3612.28
706.79	3626.61
706.979	3622.52
707.167	3720.82
707.355	3751.54
707.543	3720.82
707.731	3710.58
707.919	3694.19
708.107	3686
708.296	3638.9
708.484	3720.82
708.672	3868.27
708.86	3823.22
709.048	3763.83
709.236	3761.78
709.424	3757.68
709.612	3858.03
709.8	3716.72
709.988	3817.07
710.176	3827.31
710.364	3821.17
710.551	3894.9
710.739	3858.03
710.927	3831.41
711.115	3864.18
711.303	3982.96
711.491	4101.74
711.679	3903.09
711.866	3952.24
712.054	4023.92
712.242	3989.1
712.43	4236.91
712.617	3999.34
712.805	4005.49
712.993	4185.71
713.181	4048.49
713.368	4216.43
713.556	4114.03
713.744	4154.99
713.931	4286.06
714.119	4122.22
714.306	4185.71
714.494	4253.29
714.682	4269.67
714.869	4257.39
715.057	4228.71
715.244	4224.62
715.432	4451.94
715.619	4218.47
715.807	4333.16
715.994	4408.94
716.182	4482.66
716.369	4286.06
716.556	4392.55
716.744	4425.32
716.931	4351.59
717.119	4494.95
717.306	4515.43
717.493	4527.72
717.681	4580.96
717.868	4580.96
718.055	4666.98
718.242	4468.33
718.43	4664.93
718.617	4712.03
718.804	4634.21
718.991	4699.75
719.179	4716.13
719.366	4671.08
719.553	4669.03
719.74	4628.07
719.927	4810.34
720.114	4738.66
720.301	4613.73
720.488	4613.73
720.676	4793.95
720.863	4701.79
721.05	4916.83
721.237	4867.68
721.424	4851.3
721.611	4943.46
721.798	4732.51
721.985	4902.5
722.172	4908.64
722.358	4890.21
722.545	4859.49
722.732	4965.98
722.919	5017.18
723.106	4843.1
723.293	5045.85
723.48	5068.38
723.667	5187.16
723.853	5176.92
724.04	5013.09
724.227	4996.7
724.414	5113.44
724.6	4879.97
724.787	5146.2
724.974	5113.44
725.161	5264.99
725.347	5211.74
725.534	5129.82
725.72	5363.29
725.907	5314.14
726.094	5379.67
726.28	5371.48
726.467	5258.84
726.653	5191.26
726.84	5371.48
727.027	5449.3
727.213	5166.68
727.4	5338.71
727.586	5371.48
727.773	5531.22
727.959	5471.83
728.145	5523.03
728.332	5475.93
728.518	5551.7
728.705	5473.88
728.891	5516.89
729.077	5717.59
729.264	5637.72
729.45	5701.2
729.636	5520.98
729.823	5533.27
730.009	5471.83
730.195	5650
730.382	5697.11
730.568	5559.89
730.754	5799.51
730.94	5723.73
731.126	5713.49
731.313	5752.4
731.499	5772.88
731.685	5733.97
731.871	5834.32
732.057	5768.79
732.243	5690.96
732.429	5840.47
732.615	5707.35
732.801	5750.35
732.987	5846.61
733.173	5895.76
733.359	5760.59
733.545	5793.36
733.731	5621.33
733.917	5918.29
734.103	5826.13
734.289	6053.45
734.475	5637.72
734.661	5949.01
734.847	5854.8
735.033	6061.65
735.219	5926.48
735.404	5973.58
735.59	6004.3
735.776	5906
735.962	5987.92
736.148	5975.63
736.333	5944.91
736.519	5809.75
736.705	6018.64
736.89	5961.3
737.076	5819.99
737.262	5717.59
737.447	5842.51
737.633	5776.98
737.819	5850.71
738.004	5721.68
738.19	5807.7
738.375	5793.36
738.561	5989.97
738.747	5856.85
738.932	5809.75
739.118	5965.39
739.303	5795.41
739.489	5973.58
739.674	5801.55
739.859	5686.87
740.045	5750.35
740.23	5834.32
740.416	5768.79
740.601	5785.17
740.786	5893.71
740.972	5768.79
741.157	5824.08
741.342	5746.26
741.528	5676.63
741.713	5641.81
741.898	5736.02
742.084	5662.29
742.269	5779.03
742.454	5553.75
742.639	5570.13
742.824	5680.72
743.01	5715.54
743.195	5621.33
743.38	5379.67
743.565	5480.02
743.75	5504.6
743.935	5447.26
744.12	5664.34
744.305	5318.23
744.49	5318.23
744.675	5373.53
744.86	5381.72
745.045	5357.14
745.23	5441.11
745.415	5318.23
745.6	5432.92
745.785	5338.71
745.97	5410.39
746.155	5170.78
746.34	5252.7
746.525	5195.36
746.71	5240.41
746.895	5187.16
747.079	5148.25
747.264	4972.13
747.449	5140.06
747.634	5150.3
747.819	5082.72
748.003	4925.02
748.188	4994.65
748.373	4978.27
748.557	4716.13
748.742	4806.24
748.927	4871.78
749.111	4646.5
749.296	4851.3
749.481	4849.25
749.665	4847.2
749.85	4613.73
750.034	4634.21
750.219	4558.44
750.404	4564.58
750.588	4513.38
750.773	4521.57
750.957	4488.81
751.141	4406.89
751.326	4318.82
751.51	4337.26
751.695	4324.97
751.879	4339.3
752.064	4437.61
752.248	4079.21
752.432	4251.24
752.617	4238.95
752.801	4177.51
752.985	4171.37
753.17	4208.23
753.354	4146.8
753.538	4093.55
753.722	4091.5
753.907	3923.57
754.091	3917.42
754.275	3978.86
754.459	4048.49
754.643	3933.81
754.828	3915.37
755.012	3970.67
755.196	3784.3
755.38	3784.3
755.564	3810.93
755.748	3782.26
755.932	3677.81
756.116	3712.63
756.3	3794.54
756.484	3550.84
756.668	3593.84
756.852	3470.97
757.036	3647.09
757.22	3434.1
757.404	3548.79
757.588	3450.49
757.772	3552.88
757.956	3401.33
758.14	3473.01
758.323	3405.43
758.507	3376.76
758.691	3288.7
758.875	3327.61
759.059	3233.4
759.242	3307.13
759.426	3241.59
759.61	3131
759.794	3028.6
759.977	3178.11
760.161	3317.37
760.345	3151.48
760.528	3141.24
760.712	3221.11
760.895	3169.91
761.079	3139.19
761.263	2915.97
761.446	3024.51
761.63	2948.73
761.813	3006.08
761.997	2913.92
762.18	2934.4
762.364	2971.26
762.547	2756.22
762.731	2750.08
762.914	2989.69
763.098	2868.86
763.281	2948.73
763.464	2834.05
763.648	2813.57
763.831	2762.37
764.015	2731.65
764.198	2741.89
764.381	2758.27
764.564	2715.27
764.748	2729.6
764.931	2850.43
765.114	2563.72
765.297	2713.22
765.481	2633.35
765.664	2647.68
765.847	2803.33
766.03	2596.48
766.213	2621.06
766.397	2524.8
766.58	2528.9
766.763	2573.96
766.946	2594.44
767.129	2551.43
767.312	2573.96
767.495	2430.6
767.678	2344.58
767.861	2496.13
768.044	2471.56
768.227	2446.98
768.41	2569.86
768.593	2383.49
768.776	2334.34
768.959	2293.38
769.142	2541.19
769.324	2442.89
769.507	2408.07
769.69	2293.38
769.873	2295.43
770.056	2287.24
770.239	2197.13
770.421	2369.16
770.604	2242.18
770.787	2369.16
770.97	2317.96
771.152	2121.35
771.335	2299.53
771.518	2160.27
771.7	2274.95
771.883	2158.22
772.066	2207.37
772.248	2176.65
772.431	2295.43
772.613	2166.41
772.796	2133.64
772.978	2104.97
773.161	2131.59
773.343	2098.83
773.526	2057.87
773.708	2023.05
773.891	2010.76
774.073	2064.01
774.256	2004.62
774.438	2082.44
774.621	2123.4
774.803	1953.42
774.985	1904.27
775.168	1992.33
775.35	1934.99
775.532	1902.22
775.715	1984.14
775.897	1894.03
776.079	1810.06
776.261	1910.41
776.444	1834.64
776.626	1871.5
776.808	1754.77
776.99	1789.58
777.173	1891.98
777.355	1648.27
777.537	1652.37
777.719	1750.67
777.901	1752.72
778.083	1640.08
778.265	1627.79
778.447	1658.51
778.629	1570.45
778.811	1605.27
778.993	1582.74
779.175	1660.56
779.357	1531.54
779.539	1644.18
779.721	1466
779.903	1574.55
780.085	1531.54
780.267	1486.48
780.449	1379.99
780.631	1492.63
780.812	1566.35
780.994	1517.2
781.176	1455.76
781.358	1517.2
781.54	1375.89
781.721	1375.89
781.903	1373.85
782.085	1392.28
782.267	1404.57
782.448	1392.28
782.63	1468.05
782.812	1353.37
782.993	1304.21
783.175	1302.17
783.357	1265.3
783.538	1259.16
783.72	1173.14
783.901	1232.54
784.083	1230.49
784.264	1191.58
784.446	1255.06
784.627	1216.15
784.809	1132.19
784.99	1123.99
785.172	1271.45
785.353	1152.67
785.535	1148.57
785.716	1140.38
785.897	1148.57
786.079	1123.99
786.26	1113.75
786.441	1134.23
786.623	1111.71
786.804	1089.18
786.985	1025.69
787.167	1021.6
787.348	1064.6
787.529	945.82
787.71	1105.56
787.891	1046.17
788.073	974.49
788.254	980.64
788.435	970.4
788.616	1042.07
788.797	1013.4
788.978	1001.12
789.159	911
789.34	1060.51
789.522	964.25
789.703	908.96
789.884	976.54
790.065	911
790.246	988.83
790.427	929.44
790.607	976.54
790.788	931.48
790.969	829.09
791.15	902.81
791.331	859.81
791.512	939.68
791.693	827.04
791.874	913.05
792.054	988.83
792.235	827.04
792.416	784.03
792.597	835.23
792.778	870.05
792.958	855.71
793.139	882.33
793.32	857.76
793.5	736.93
793.681	880.29
793.862	777.89
794.042	779.93
794.223	784.03
794.404	671.39
794.584	669.34
794.765	769.69
794.945	751.26
795.126	718.5
795.306	769.69
795.487	716.45
795.667	736.93
795.848	734.88
796.028	741.02
796.209	726.69
796.389	759.46
796.57	732.83
796.75	655.01
796.93	714.4
797.111	730.78
797.291	736.93
797.471	738.98
797.652	679.58
797.832	706.21
798.012	665.25
798.192	655.01
798.373	546.47
798.553	710.3
798.733	683.68
798.913	554.66
799.093	638.62
799.274	677.54
799.454	685.73
799.634	648.86
799.814	630.43
799.994	714.4
800.174	585.38
800.354	601.76
800.534	542.37
800.714	665.25
800.894	585.38
801.074	538.27
801.254	595.62
801.434	575.14
801.614	620.19
801.794	614.05
801.974	1279.64
802.154	497.32
802.334	630.43
802.514	562.85
802.693	523.94
802.873	624.29
803.053	577.19
803.233	566.95
803.413	517.79
803.592	548.51
803.772	523.94
803.952	491.17
804.131	532.13
804.311	521.89
804.491	538.27
804.67	525.99
804.85	550.56
805.03	540.32
805.209	507.55
805.389	560.8
805.568	446.12
805.748	460.45
805.928	476.84
806.107	499.36
806.287	530.08
806.466	478.88
806.646	509.6
806.825	452.26
807.004	480.93
807.184	435.88
807.363	466.6
807.543	454.31
807.722	429.73
807.901	509.6
808.081	482.98
808.26	378.53
808.439	403.11
808.619	394.92
808.798	423.59
808.977	417.44
809.156	437.92
809.336	399.01
809.515	503.46
809.694	448.16
809.873	407.2
810.052	411.3
810.231	501.41
810.411	454.31
810.59	417.44
810.769	362.15
810.948	487.08
811.127	464.55
811.306	374.44
811.485	480.93
811.664	493.22
811.843	394.92
812.022	427.68
812.201	241.32
812.38	351.91
812.559	366.25
812.737	345.77
812.916	323.24
813.095	339.62
813.274	378.53
813.453	390.82
813.632	476.84
813.811	419.49
813.989	386.72
814.168	386.72
814.347	329.38
814.526	390.82
814.704	429.73
814.883	433.83
815.062	337.57
815.24	392.87
815.419	349.86
815.598	343.72
815.776	317.09
815.955	349.86
816.133	226.98
816.312	251.56
816.49	349.86
816.669	345.77
816.847	349.86
817.026	360.1
817.204	327.33
817.383	251.56
817.561	313
817.74	317.09
817.918	327.33
818.097	290.47
818.275	362.15
818.453	329.38
818.632	360.1
818.81	335.53
818.988	280.23
819.167	310.95
819.345	353.96
819.523	247.46
819.701	337.57
819.879	288.42
820.058	218.79
820.236	298.66
820.414	331.43
820.592	339.62
820.77	333.48
820.948	255.65
821.127	276.13
821.305	294.57
821.483	315.05
821.661	263.85
821.839	220.84
822.017	235.18
822.195	241.32
822.373	343.72
822.551	278.18
822.729	257.7
822.907	292.52
823.085	304.81
823.262	286.37
823.44	255.65
823.618	294.57
823.796	296.61
823.974	237.22
824.152	243.37
824.329	216.74
824.507	183.98
824.685	231.08
824.863	161.45
825.04	167.59
825.218	251.56
825.396	290.47
825.574	272.04
825.751	190.12
825.929	226.98
826.107	190.12
826.284	206.5
826.462	296.61
826.639	163.5
826.817	208.55
826.994	255.65
827.172	165.54
827.349	333.48
827.527	231.08
827.704	286.37
827.882	239.27
828.059	247.46
828.237	208.55
828.414	216.74
828.591	155.3
828.769	159.4
828.946	210.6
829.124	267.94
829.301	229.03
829.478	202.41
829.655	171.69
829.833	140.97
830.01	179.88
830.187	280.23
830.364	198.31
830.542	198.31
830.719	245.41
830.896	263.85
831.073	206.5
831.25	186.02
831.427	229.03
831.604	173.74
831.782	188.07
831.959	198.31
832.136	130.73
832.313	181.93
832.49	155.3
832.667	210.6
832.844	163.5
833.021	200.36
833.198	190.12
833.374	157.35
833.551	198.31
833.728	147.11
833.905	194.22
834.082	192.17
834.259	161.45
834.436	190.12
834.612	165.54
834.789	149.16
834.966	143.02
835.143	235.18
835.319	171.69
835.496	132.78
835.673	143.02
835.85	171.69
836.026	97.96
836.203	145.06
836.38	218.79
836.556	177.83
836.733	118.44
836.909	165.54
837.086	122.54
837.262	114.34
837.439	214.7
837.616	108.2
837.792	190.12
837.968	73.39
838.145	179.88
838.321	149.16
838.498	124.58
838.674	183.98
838.851	140.97
839.027	108.2
839.203	190.12
839.38	149.16
839.556	95.91
839.732	128.68
839.909	124.58
840.085	97.96
840.261	179.88
840.437	140.97
840.614	116.39
840.79	93.87
840.966	140.97
841.142	179.88
841.318	128.68
841.494	114.34
841.671	147.11
841.847	116.39
842.023	-8.53
842.199	106.15
842.375	157.35
842.551	61.1
842.727	124.58
842.903	194.22
843.079	75.43
843.255	97.96
843.431	116.39
843.607	89.77
843.783	52.91
843.959	91.82
844.134	145.06
844.31	157.35
844.486	124.58
844.662	91.82
844.838	97.96
845.013	120.49
845.189	153.26
845.365	93.87
845.541	147.11
845.716	132.78
845.892	116.39
846.068	143.02
846.244	83.63
846.419	114.34
846.595	63.15
846.77	40.62
846.946	95.91
847.122	67.24
847.297	132.78
847.473	149.16
847.648	34.47
847.824	81.58
847.999	134.82
848.175	114.34
848.35	57
848.526	67.24
848.701	122.54
848.876	34.47
849.052	145.06
849.227	93.87
849.403	106.15
849.578	104.11
849.753	106.15
849.929	26.28
850.104	-2.39
850.279	11.95
850.454	65.19
850.63	106.15
850.805	108.2
850.98	52.91
851.155	81.58
851.33	79.53
851.505	-35.16
851.681	188.07
851.856	7.85
852.031	87.72
852.206	59.05
852.381	48.81
852.556	67.24
852.731	40.62
852.906	147.11
853.081	79.53
853.256	110.25
853.431	52.91
853.606	-10.58
853.781	50.86
853.956	79.53
854.131	13.99
854.305	36.52
854.48	83.63
854.655	73.39
854.83	40.62
855.005	42.67
855.18	67.24
855.354	3.75
855.529	75.43
855.704	28.33
855.879	54.95
856.053	48.81
856.228	108.2
856.403	18.09
856.577	38.57
856.752	-16.73
856.926	9.9
857.101	97.96
857.276	50.86
857.45	42.67
857.625	149.16
857.799	100.01
857.974	-16.73
858.148	-47.44
858.323	87.72
858.497	79.53
858.672	52.91
858.846	-14.68
859.02	132.78
859.195	7.85
859.369	79.53
859.543	48.81
859.718	69.29
859.892	9.9
860.066	110.25
860.241	-22.87
860.415	-2.39
860.589	85.67
860.763	36.52
860.938	28.33
861.112	59.05
861.286	50.86
861.46	38.57
861.634	1.71
861.808	63.15
861.982	1.71
862.157	-0.34
862.331	1.71
862.505	26.28
862.679	3.75
862.853	136.87
863.027	85.67
863.201	124.58
863.375	30.38
863.549	54.95
863.722	100.01
863.896	95.91
864.07	91.82
864.244	52.91
864.418	46.76
864.592	50.86
864.766	-18.77
864.939	-26.96
865.113	38.57
865.287	46.76
865.461	44.71
865.634	77.48
865.808	13.99
865.982	57
866.156	-121.17
866.329	28.33
866.503	93.87
866.676	38.57
866.85	30.38
867.024	34.47
867.197	124.58
867.371	50.86
867.544	42.67
867.718	24.23
867.891	71.34
868.065	-16.73
868.238	-18.77
868.412	54.95
868.585	108.2
868.759	1.71
868.932	-6.49
869.105	9.9
869.279	102.06
869.452	42.67
869.625	34.47
869.799	-0.34
869.972	-16.73
870.145	30.38
870.319	22.19
870.492	9.9
870.665	52.91
870.838	40.62
871.011	-6.49
871.185	50.86
871.358	13.99
871.531	42.67
871.704	-24.92
871.877	73.39
872.05	-31.06
872.223	9.9
872.396	18.09
872.569	26.28
872.742	-22.87
872.915	18.09
873.088	20.14
873.261	-29.01
873.434	3.75
873.607	-49.49
873.78	13.99
873.953	-76.12
874.126	28.33
874.299	48.81
874.471	22.19
874.644	24.23
874.817	13.99
874.99	65.19
875.163	108.2
875.335	-22.87
875.508	1.71
875.681	34.47
875.853	-8.53
876.026	79.53
876.199	100.01
876.371	59.05
876.544	-14.68
876.717	50.86
876.889	26.28
877.062	-4.44
877.234	-0.34
877.407	-39.25
877.579	-57.68
877.752	24.23
877.924	30.38
878.097	7.85
878.269	1.71
878.442	9.9
878.614	-37.2
878.786	13.99
878.959	13.99
879.131	71.34
879.303	-35.16
879.476	59.05
879.648	7.85
879.82	-14.68
879.993	-16.73
880.165	13.99
880.337	-12.63
880.509	-12.63
880.681	-0.34
880.854	-10.58
881.026	42.67
881.198	114.34
881.37	-57.68
881.542	24.23
881.714	-18.77
881.886	-22.87
882.058	-33.11
882.23	24.23
882.402	-18.77
882.574	91.82
882.746	32.43
882.918	44.71
883.09	100.01
883.262	-59.73
883.434	40.62
883.606	-31.06
883.778	18.09
883.95	36.52
884.122	-31.06
884.293	13.99
884.465	-12.63
884.637	-35.16
884.809	-16.73
884.98	24.23
885.152	-43.35
885.324	1.71
885.496	-14.68
885.667	38.57
885.839	-24.92
886.011	20.14
886.182	61.1
886.354	91.82
886.525	24.23
886.697	-22.87
886.869	-16.73
887.04	-55.64
887.212	161.45
887.383	93.87
887.555	38.57
887.726	22.19
887.897	34.47
888.069	11.95
888.24	44.71
888.412	-33.11
888.583	-14.68
888.754	1.71
888.926	-10.58
889.097	-55.64
889.268	9.9
889.44	34.47
889.611	-26.96
889.782	-74.07
889.953	-22.87
890.125	46.76
890.296	20.14
890.467	9.9
890.638	-31.06
890.809	-47.44
890.98	-98.64
891.151	9.9
891.323	-16.73
891.494	-2.39
891.665	-55.64
891.836	26.28
892.007	-31.06
892.178	1.71
892.349	-45.4
892.52	9.9
892.691	-0.34
892.862	24.23
893.032	-14.68
893.203	32.43
893.374	-22.87
893.545	24.23
893.716	-88.4
893.887	89.77
894.057	26.28
894.228	-14.68
894.399	38.57
894.57	65.19
894.74	-10.58
894.911	7.85
895.082	-29.01
895.253	36.52
895.423	32.43
895.594	-18.77
895.764	26.28
895.935	-24.92
896.106	-55.64
896.276	-76.12
896.447	30.38
896.617	-6.49
896.788	-10.58
896.958	-29.01
897.129	-41.3
897.299	-22.87
897.47	13.99
897.64	30.38
897.81	63.15
897.981	-29.01
898.151	-57.68
898.322	30.38
898.492	57
898.662	-104.79
898.832	-67.92
899.003	-14.68
899.173	13.99
899.343	13.99
899.513	-33.11
