Data from USB4F104151__14__11-29-45-517.txt Node

Date: Fri Mar 14 11:29:45 EDT 2025
User: louis
Spectrometer: USB4F10415
Trigger mode: 4
Integration Time (sec): 5.000000E-2
Scans to average: 1
Electric dark correction enabled: true
Nonlinearity correction enabled: false
Boxcar width: 0
XAxis mode: Wavelengths
Number of Pixels in Spectrum: 3648
>>>>>Begin Spectral Data<<<<<
178.204	-167.76
178.424	-167.76
178.644	-167.76
178.864	-143.19
179.084	-137.04
179.304	24.75
179.524	37.03
179.744	-32.6
179.964	20.65
180.184	18.6
180.404	6.31
180.624	-32.6
180.844	-16.21
181.064	-94.04
181.283	-26.45
181.503	20.65
181.723	73.9
181.943	-3.93
182.163	47.27
182.383	-24.4
182.602	-5.97
182.822	26.79
183.042	-75.6
183.262	16.55
183.482	45.23
183.701	16.55
183.921	-18.26
184.141	10.41
184.361	-44.88
184.58	24.75
184.8	104.62
185.02	-75.6
185.239	20.65
185.459	8.36
185.679	69.8
185.898	37.03
186.118	-8.02
186.338	-10.07
186.557	63.66
186.777	-16.21
186.997	49.32
187.216	45.23
187.436	121
187.655	30.89
187.875	47.27
188.095	-12.12
188.314	39.08
188.534	90.28
188.753	-20.31
188.973	24.75
189.192	73.9
189.412	65.71
189.631	94.38
189.851	53.42
190.07	86.19
190.29	6.31
190.509	-10.07
190.729	71.85
190.948	65.71
191.168	164.01
191.387	129.19
191.607	16.55
191.826	82.09
192.045	0.17
192.265	82.09
192.484	-10.07
192.704	30.89
192.923	18.6
193.142	139.43
193.362	47.27
193.581	32.94
193.8	61.61
194.02	75.95
194.239	82.09
194.458	65.71
194.678	32.94
194.897	20.65
195.116	-3.93
195.335	49.32
195.555	16.55
195.774	61.61
195.993	28.84
196.212	-20.31
196.432	12.46
196.651	-48.98
196.87	28.84
197.089	82.09
197.308	32.94
197.528	-28.5
197.747	-1.88
197.966	41.13
198.185	30.89
198.404	-26.45
198.623	37.03
198.842	26.79
199.062	137.38
199.281	8.36
199.5	-8.02
199.719	16.55
199.938	77.99
200.157	34.99
200.376	73.9
200.595	108.71
200.814	49.32
201.033	22.7
201.252	121
201.471	32.94
201.69	47.27
201.909	-3.93
202.128	88.23
202.347	90.28
202.566	69.8
202.785	-10.07
203.004	-51.03
203.223	108.71
203.442	57.51
203.661	57.51
203.879	98.47
204.098	-26.45
204.317	82.09
204.536	6.31
204.755	32.94
204.974	43.18
205.193	55.47
205.411	84.14
205.63	63.66
205.849	104.62
206.068	59.56
206.287	98.47
206.505	41.13
206.724	-3.93
206.943	41.13
207.162	39.08
207.381	-1.88
207.599	41.13
207.818	65.71
208.037	106.67
208.255	41.13
208.474	108.71
208.693	59.56
208.911	16.55
209.13	-12.12
209.349	-32.6
209.567	45.23
209.786	82.09
210.005	45.23
210.223	37.03
210.442	12.46
210.661	0.17
210.879	-12.12
211.098	2.22
211.316	53.42
211.535	80.04
211.753	0.17
211.972	41.13
212.191	77.99
212.409	32.94
212.628	16.55
212.846	61.61
213.065	112.81
213.283	28.84
213.502	4.27
213.72	45.23
213.938	114.86
214.157	65.71
214.375	82.09
214.594	51.37
214.812	-26.45
215.031	18.6
215.249	22.7
215.467	26.79
215.686	-10.07
215.904	61.61
216.122	41.13
216.341	96.43
216.559	63.66
216.778	73.9
216.996	-10.07
217.214	4.27
217.432	-3.93
217.651	37.03
217.869	0.17
218.087	45.23
218.306	6.31
218.524	88.23
218.742	57.51
218.96	26.79
219.179	-14.17
219.397	10.41
219.615	135.34
219.833	49.32
220.051	61.61
220.27	63.66
220.488	61.61
220.706	30.89
220.924	-22.36
221.142	-10.07
221.36	30.89
221.578	67.75
221.796	-65.36
222.015	-40.79
222.233	61.61
222.451	65.71
222.669	39.08
222.887	41.13
223.105	45.23
223.323	-18.26
223.541	-16.21
223.759	12.46
223.977	47.27
224.195	75.95
224.413	8.36
224.631	26.79
224.849	41.13
225.067	32.94
225.285	24.75
225.503	-79.7
225.721	-8.02
225.939	55.47
226.157	-1.88
226.375	147.62
226.592	-32.6
226.81	39.08
227.028	90.28
227.246	90.28
227.464	63.66
227.682	34.99
227.9	-67.41
228.117	55.47
228.335	94.38
228.553	22.7
228.771	47.27
228.989	30.89
229.206	51.37
229.424	73.9
229.642	45.23
229.86	22.7
230.077	118.95
230.295	47.27
230.513	86.19
230.731	-1.88
230.948	61.61
231.166	10.41
231.384	73.9
231.601	18.6
231.819	98.47
232.037	10.41
232.254	80.04
232.472	16.55
232.689	24.75
232.907	102.57
233.125	30.89
233.342	37.03
233.56	39.08
233.777	34.99
233.995	16.55
234.213	4.27
234.43	-1.88
234.648	82.09
234.865	-24.4
235.083	14.51
235.3	-5.97
235.518	8.36
235.735	22.7
235.953	71.85
236.17	49.32
236.388	49.32
236.605	73.9
236.822	100.52
237.04	63.66
237.257	32.94
237.475	71.85
237.692	106.67
237.909	55.47
238.127	-36.69
238.344	65.71
238.562	-3.93
238.779	53.42
238.996	20.65
239.214	10.41
239.431	49.32
239.648	112.81
239.865	106.67
240.083	4.27
240.3	73.9
240.517	-16.21
240.735	28.84
240.952	67.75
241.169	123.05
241.386	6.31
241.603	41.13
241.821	-44.88
242.038	73.9
242.255	49.32
242.472	-5.97
242.689	75.95
242.907	30.89
243.124	24.75
243.341	57.51
243.558	-12.12
243.775	104.62
243.992	-42.84
244.209	14.51
244.426	16.55
244.643	69.8
244.86	-26.45
245.078	4.27
245.295	45.23
245.512	57.51
245.729	49.32
245.946	47.27
246.163	-1.88
246.38	20.65
246.597	49.32
246.814	88.23
247.031	8.36
247.248	20.65
247.464	8.36
247.681	92.33
247.898	73.9
248.115	159.91
248.332	49.32
248.549	69.8
248.766	106.67
248.983	90.28
249.2	129.19
249.417	12.46
249.633	26.79
249.85	39.08
250.067	26.79
250.284	41.13
250.501	53.42
250.717	86.19
250.934	-116.56
251.151	24.75
251.368	20.65
251.585	55.47
251.801	0.17
252.018	63.66
252.235	65.71
252.451	2.22
252.668	0.17
252.885	41.13
253.102	16.55
253.318	63.66
253.535	80.04
253.752	0.17
253.968	24.75
254.185	-1.88
254.401	-20.31
254.618	114.86
254.835	-18.26
255.051	127.14
255.268	77.99
255.484	12.46
255.701	69.8
255.917	84.14
256.134	82.09
256.351	30.89
256.567	57.51
256.784	16.55
257	-12.12
257.217	0.17
257.433	47.27
257.65	77.99
257.866	80.04
258.082	-34.64
258.299	53.42
258.515	30.89
258.732	30.89
258.948	39.08
259.165	-12.12
259.381	20.65
259.597	-8.02
259.814	-8.02
260.03	4.27
260.246	8.36
260.463	77.99
260.679	14.51
260.895	84.14
261.112	90.28
261.328	26.79
261.544	63.66
261.761	73.9
261.977	12.46
262.193	16.55
262.409	30.89
262.626	24.75
262.842	24.75
263.058	0.17
263.274	39.08
263.49	18.6
263.707	39.08
263.923	49.32
264.139	39.08
264.355	10.41
264.571	84.14
264.787	53.42
265.004	63.66
265.22	98.47
265.436	51.37
265.652	-32.6
265.868	47.27
266.084	47.27
266.3	-42.84
266.516	16.55
266.732	39.08
266.948	24.75
267.164	-24.4
267.38	123.05
267.596	34.99
267.812	65.71
268.028	86.19
268.244	37.03
268.46	118.95
268.676	53.42
268.892	98.47
269.108	16.55
269.324	61.61
269.54	-53.08
269.756	26.79
269.972	-65.36
270.188	59.56
270.403	14.51
270.619	59.56
270.835	8.36
271.051	20.65
271.267	30.89
271.483	88.23
271.698	61.61
271.914	49.32
272.13	20.65
272.346	8.36
272.562	49.32
272.777	151.72
272.993	-32.6
273.209	-28.5
273.425	53.42
273.64	-1.88
273.856	53.42
274.072	39.08
274.287	-36.69
274.503	73.9
274.719	55.47
274.934	57.51
275.15	53.42
275.366	80.04
275.581	12.46
275.797	6.31
276.012	16.55
276.228	37.03
276.444	26.79
276.659	116.9
276.875	-65.36
277.09	49.32
277.306	-63.32
277.521	96.43
277.737	67.75
277.952	2.22
278.168	24.75
278.383	-26.45
278.599	4.27
278.814	49.32
279.03	-18.26
279.245	82.09
279.461	90.28
279.676	55.47
279.892	-8.02
280.107	26.79
280.322	37.03
280.538	57.51
280.753	-1.88
280.969	49.32
281.184	-36.69
281.399	94.38
281.615	53.42
281.83	32.94
282.045	-20.31
282.26	-59.22
282.476	-8.02
282.691	110.76
282.906	49.32
283.122	73.9
283.337	0.17
283.552	65.71
283.767	4.27
283.983	57.51
284.198	37.03
284.413	32.94
284.628	-12.12
284.843	0.17
285.058	63.66
285.274	-24.4
285.489	30.89
285.704	57.51
285.919	-51.03
286.134	16.55
286.349	137.38
286.564	47.27
286.779	82.09
286.995	55.47
287.21	-8.02
287.425	45.23
287.64	-18.26
287.855	90.28
288.07	16.55
288.285	71.85
288.5	82.09
288.715	73.9
288.93	30.89
289.145	26.79
289.36	12.46
289.575	51.37
289.79	155.82
290.004	41.13
290.219	77.99
290.434	-8.02
290.649	32.94
290.864	22.7
291.079	8.36
291.294	20.65
291.509	10.41
291.724	80.04
291.938	45.23
292.153	73.9
292.368	69.8
292.583	121
292.798	32.94
293.012	28.84
293.227	123.05
293.442	30.89
293.657	41.13
293.871	6.31
294.086	14.51
294.301	88.23
294.516	90.28
294.73	8.36
294.945	37.03
295.16	92.33
295.374	102.57
295.589	102.57
295.804	41.13
296.018	20.65
296.233	161.96
296.447	6.31
296.662	26.79
296.877	90.28
297.091	53.42
297.306	73.9
297.52	0.17
297.735	63.66
297.949	45.23
298.164	53.42
298.378	8.36
298.593	-14.17
298.807	57.51
299.022	57.51
299.236	59.56
299.451	0.17
299.665	20.65
299.88	12.46
300.094	71.85
300.309	71.85
300.523	63.66
300.737	6.31
300.952	30.89
301.166	86.19
301.381	-3.93
301.595	63.66
301.809	16.55
302.024	-81.75
302.238	-1.88
302.452	65.71
302.667	80.04
302.881	123.05
303.095	69.8
303.309	92.33
303.524	24.75
303.738	-42.84
303.952	65.71
304.166	63.66
304.381	-34.64
304.595	149.67
304.809	28.84
305.023	12.46
305.237	30.89
305.452	61.61
305.666	14.51
305.88	114.86
306.094	104.62
306.308	16.55
306.522	80.04
306.736	8.36
306.95	28.84
307.164	47.27
307.379	0.17
307.593	114.86
307.807	112.81
308.021	61.61
308.235	159.91
308.449	20.65
308.663	-8.02
308.877	100.52
309.091	71.85
309.305	88.23
309.519	-53.08
309.733	90.28
309.947	-30.55
310.161	80.04
310.374	41.13
310.588	53.42
310.802	0.17
311.016	-32.6
311.23	53.42
311.444	61.61
311.658	90.28
311.872	30.89
312.085	57.51
312.299	55.47
312.513	77.99
312.727	45.23
312.941	57.51
313.154	39.08
313.368	24.75
313.582	4.27
313.796	61.61
314.009	98.47
314.223	82.09
314.437	102.57
314.651	61.61
314.864	32.94
315.078	77.99
315.292	-30.55
315.505	-16.21
315.719	22.7
315.933	63.66
316.146	53.42
316.36	45.23
316.573	106.67
316.787	-16.21
317.001	96.43
317.214	20.65
317.428	16.55
317.641	71.85
317.855	16.55
318.068	8.36
318.282	106.67
318.495	114.86
318.709	-28.5
318.922	55.47
319.136	80.04
319.349	82.09
319.563	-67.41
319.776	57.51
319.99	53.42
320.203	96.43
320.417	73.9
320.63	94.38
320.843	98.47
321.057	24.75
321.27	77.99
321.483	77.99
321.697	69.8
321.91	55.47
322.124	24.75
322.337	-1.88
322.55	10.41
322.763	43.18
322.977	22.7
323.19	73.9
323.403	24.75
323.617	127.14
323.83	90.28
324.043	8.36
324.256	55.47
324.469	16.55
324.683	116.9
324.896	39.08
325.109	14.51
325.322	22.7
325.535	71.85
325.748	47.27
325.962	45.23
326.175	110.76
326.388	51.37
326.601	45.23
326.814	94.38
327.027	39.08
327.24	151.72
327.453	32.94
327.666	77.99
327.879	41.13
328.092	57.51
328.305	61.61
328.518	0.17
328.731	-24.4
328.944	28.84
329.157	82.09
329.37	45.23
329.583	123.05
329.796	69.8
330.009	-59.22
330.222	88.23
330.435	57.51
330.648	47.27
330.861	-10.07
331.073	157.86
331.286	77.99
331.499	8.36
331.712	8.36
331.925	80.04
332.138	53.42
332.35	110.76
332.563	4.27
332.776	65.71
332.989	37.03
333.202	24.75
333.414	57.51
333.627	41.13
333.84	-16.21
334.053	88.23
334.265	24.75
334.478	32.94
334.691	20.65
334.903	75.95
335.116	-40.79
335.329	26.79
335.541	53.42
335.754	139.43
335.966	49.32
336.179	71.85
336.392	53.42
336.604	123.05
336.817	-12.12
337.029	16.55
337.242	-44.88
337.454	86.19
337.667	-53.08
337.88	37.03
338.092	69.8
338.305	47.27
338.517	32.94
338.729	53.42
338.942	73.9
339.154	73.9
339.367	-10.07
339.579	77.99
339.792	14.51
340.004	41.13
340.217	-22.36
340.429	82.09
340.641	41.13
340.854	53.42
341.066	84.14
341.278	90.28
341.491	123.05
341.703	82.09
341.915	-24.4
342.128	71.85
342.34	104.62
342.552	59.56
342.764	16.55
342.977	34.99
343.189	88.23
343.401	6.31
343.613	28.84
343.826	98.47
344.038	4.27
344.25	57.51
344.462	86.19
344.674	106.67
344.886	41.13
345.099	82.09
345.311	114.86
345.523	82.09
345.735	39.08
345.947	6.31
346.159	110.76
346.371	65.71
346.583	75.95
346.795	110.76
347.007	112.81
347.219	43.18
347.431	28.84
347.643	73.9
347.855	24.75
348.067	121
348.279	24.75
348.491	43.18
348.703	88.23
348.915	18.6
349.127	16.55
349.339	65.71
349.551	-24.4
349.763	123.05
349.975	63.66
350.187	145.58
350.399	112.81
350.61	71.85
350.822	26.79
351.034	80.04
351.246	73.9
351.458	-48.98
351.669	53.42
351.881	51.37
352.093	59.56
352.305	75.95
352.517	147.62
352.728	77.99
352.94	145.58
353.152	100.52
353.363	90.28
353.575	133.29
353.787	55.47
353.999	2.22
354.21	26.79
354.422	90.28
354.633	102.57
354.845	73.9
355.057	-1.88
355.268	106.67
355.48	108.71
355.692	121
355.903	28.84
356.115	8.36
356.326	-53.08
356.538	88.23
356.749	61.61
356.961	49.32
357.172	65.71
357.384	57.51
357.595	73.9
357.807	6.31
358.018	14.51
358.23	6.31
358.441	90.28
358.653	61.61
358.864	-8.02
359.075	49.32
359.287	82.09
359.498	22.7
359.709	49.32
359.921	34.99
360.132	114.86
360.344	73.9
360.555	16.55
360.766	16.55
360.977	-14.17
361.189	123.05
361.4	18.6
361.611	106.67
361.823	98.47
362.034	59.56
362.245	6.31
362.456	-1.88
362.667	114.86
362.879	-3.93
363.09	77.99
363.301	84.14
363.512	4.27
363.723	-20.31
363.935	41.13
364.146	41.13
364.357	14.51
364.568	94.38
364.779	28.84
364.99	106.67
365.201	77.99
365.412	22.7
365.623	14.51
365.834	98.47
366.045	47.27
366.256	145.58
366.467	73.9
366.678	45.23
366.889	90.28
367.1	16.55
367.311	67.75
367.522	49.32
367.733	102.57
367.944	114.86
368.155	55.47
368.366	104.62
368.577	94.38
368.788	100.52
368.999	28.84
369.209	69.8
369.42	172.2
369.631	98.47
369.842	37.03
370.053	73.9
370.264	69.8
370.474	30.89
370.685	80.04
370.896	73.9
371.107	96.43
371.317	-20.31
371.528	69.8
371.739	151.72
371.95	153.77
372.16	90.28
372.371	34.99
372.582	14.51
372.792	102.57
373.003	110.76
373.214	77.99
373.424	69.8
373.635	24.75
373.846	0.17
374.056	82.09
374.267	67.75
374.477	114.86
374.688	20.65
374.898	43.18
375.109	71.85
375.319	24.75
375.53	96.43
375.74	39.08
375.951	82.09
376.161	90.28
376.372	102.57
376.582	86.19
376.793	114.86
377.003	20.65
377.214	96.43
377.424	67.75
377.635	82.09
377.845	75.95
378.055	67.75
378.266	30.89
378.476	-24.4
378.686	24.75
378.897	37.03
379.107	139.43
379.317	98.47
379.528	-73.56
379.738	30.89
379.948	53.42
380.158	82.09
380.369	71.85
380.579	104.62
380.789	12.46
380.999	106.67
381.21	131.24
381.42	141.48
381.63	82.09
381.84	37.03
382.05	55.47
382.261	53.42
382.471	102.57
382.681	39.08
382.891	86.19
383.101	10.41
383.311	24.75
383.521	77.99
383.731	86.19
383.941	90.28
384.151	59.56
384.361	8.36
384.571	39.08
384.781	116.9
384.991	190.63
385.201	92.33
385.411	71.85
385.621	51.37
385.831	114.86
386.041	108.71
386.251	14.51
386.461	47.27
386.671	-14.17
386.881	22.7
387.091	73.9
387.301	59.56
387.511	65.71
387.72	90.28
387.93	151.72
388.14	20.65
388.35	41.13
388.56	63.66
388.769	73.9
388.979	0.17
389.189	18.6
389.399	41.13
389.609	133.29
389.818	121
390.028	51.37
390.238	55.47
390.447	30.89
390.657	88.23
390.867	8.36
391.076	102.57
391.286	-32.6
391.496	145.58
391.705	102.57
391.915	129.19
392.125	49.32
392.334	121
392.544	90.28
392.753	135.34
392.963	98.47
393.172	75.95
393.382	123.05
393.591	121
393.801	39.08
394.01	174.25
394.22	65.71
394.429	53.42
394.639	137.38
394.848	110.76
395.058	116.9
395.267	102.57
395.477	135.34
395.686	57.51
395.895	178.34
396.105	147.62
396.314	188.58
396.524	135.34
396.733	98.47
396.942	77.99
397.152	161.96
397.361	155.82
397.57	71.85
397.78	121
397.989	77.99
398.198	116.9
398.407	155.82
398.617	65.71
398.826	131.24
399.035	106.67
399.244	147.62
399.453	143.53
399.663	96.43
399.872	139.43
400.081	92.33
400.29	147.62
400.499	104.62
400.708	172.2
400.917	63.66
401.127	77.99
401.336	106.67
401.545	196.78
401.754	104.62
401.963	139.43
402.172	92.33
402.381	24.75
402.59	186.54
402.799	98.47
403.008	102.57
403.217	217.26
403.426	110.76
403.635	98.47
403.844	202.92
404.053	147.62
404.262	155.82
404.471	188.58
404.68	151.72
404.888	147.62
405.097	131.24
405.306	180.39
405.515	229.54
405.724	229.54
405.933	207.02
406.142	215.21
406.35	188.58
406.559	211.11
406.768	174.25
406.977	200.87
407.185	164.01
407.394	288.93
407.603	168.1
407.812	217.26
408.02	290.98
408.229	293.03
408.438	276.65
408.646	247.97
408.855	262.31
409.064	299.17
409.272	286.89
409.481	245.93
409.69	266.41
409.898	360.61
410.107	250.02
410.315	295.08
410.524	299.17
410.733	403.62
410.941	293.03
411.15	362.66
411.358	399.52
411.567	473.25
411.775	475.3
411.984	487.59
412.192	454.82
412.401	485.54
412.609	479.4
412.818	542.88
413.026	596.13
413.234	549.03
413.443	565.41
413.651	571.55
413.86	618.66
414.068	669.86
414.276	727.2
414.485	678.05
414.693	702.62
414.901	802.97
415.11	860.32
415.318	745.63
415.526	809.12
415.734	882.85
415.943	884.89
416.151	942.24
416.359	940.19
416.567	923.8
416.776	1024.16
416.984	1061.02
417.192	1005.72
417.4	1083.55
417.608	983.2
417.817	1118.36
418.025	1228.95
418.233	1351.83
418.441	1212.57
418.649	1323.16
418.857	1374.36
419.065	1417.37
419.273	1400.98
419.481	1482.9
419.689	1573.01
419.897	1556.63
420.105	1605.78
420.313	1679.51
420.521	1835.15
420.729	1763.47
420.937	1734.8
421.145	1904.78
421.353	2111.63
421.561	2121.87
421.769	2187.4
421.977	2207.88
422.185	2300.04
422.393	2347.14
422.601	2441.35
422.809	2527.36
423.017	2580.61
423.224	2613.38
423.432	2809.98
423.64	2816.13
423.848	3055.74
424.056	2904.19
424.263	3117.18
424.471	3242.11
424.679	3184.76
424.887	3379.32
425.094	3563.64
425.302	3532.92
425.51	3469.43
425.718	3715.19
425.925	3731.57
426.133	3973.23
426.341	4055.15
426.548	4345.96
426.756	4307.05
426.964	4444.26
427.171	4536.42
427.379	4870.24
427.586	4843.62
427.794	4970.59
428.001	5216.35
428.209	5554.26
428.417	5374.04
428.624	5722.2
428.832	5736.53
429.039	5765.2
429.247	5800.02
429.454	6326.35
429.662	6815.81
429.869	6135.89
430.076	6727.75
430.284	6420.55
430.491	7045.18
430.699	7174.21
430.906	7084.09
431.114	7297.08
431.321	7485.5
431.528	7505.98
431.736	8265.77
431.943	8509.48
432.15	8245.29
432.358	8445.99
432.565	8910.88
432.772	8714.28
432.979	9469.98
433.187	9363.48
433.394	9377.82
433.601	10186.77
433.808	10084.37
434.016	10057.75
434.223	10696.71
434.43	11065.35
434.637	10862.6
434.844	11655.16
435.052	11886.58
435.259	11628.54
435.466	11999.22
435.673	11612.15
435.88	12720.1
436.087	13268.96
436.294	13166.56
436.501	12982.24
436.708	13199.33
436.915	13311.97
437.122	14274.51
437.329	14180.31
437.537	14761.93
437.743	14938.05
437.95	14874.57
438.157	15513.53
438.364	16166.84
438.571	16160.69
438.778	16293.81
438.985	17684.38
439.192	17211.3
439.399	17594.27
439.606	17196.96
439.813	18239.38
440.02	19335.04
440.227	18907.02
440.433	18579.34
440.64	19271.56
440.847	19062.66
441.054	19730.3
441.261	20891.5
441.467	20586.35
441.674	21176.17
441.881	21722.98
442.088	21729.12
442.294	21772.13
442.501	22474.58
442.708	22839.12
442.914	23437.13
443.121	24532.79
443.328	24237.88
443.534	25806.62
443.741	24717.11
443.948	24624.95
444.154	26654.48
444.361	26263.32
444.568	26513.17
444.774	26855.18
444.981	26621.72
445.187	27356.94
445.394	28589.81
445.6	28573.43
445.807	31174.35
446.013	29773.54
446.22	30056.16
446.426	31401.68
446.633	32091.84
446.839	32786.1
447.046	31645.38
447.252	33365.68
447.459	33310.38
447.665	33185.46
447.871	34393.76
448.078	35958.41
448.284	34197.15
448.491	35350.16
448.697	36779.64
448.903	37297.78
449.11	37566.06
449.316	36927.1
449.522	37488.24
449.728	38155.88
449.935	38864.47
450.141	38069.86
450.347	39089.75
450.553	38364.77
450.76	38327.91
450.966	39947.85
451.172	39265.88
451.378	39919.18
451.584	39456.34
451.791	39831.11
451.997	40476.23
452.203	40781.37
452.409	40681.02
452.615	40797.76
452.821	39032.41
453.027	38735.45
453.233	40848.96
453.44	38905.43
453.646	39427.67
453.852	39691.85
454.058	40296
454.264	38923.86
454.47	39886.41
454.676	38473.31
454.882	39937.61
455.088	36638.33
455.294	37357.17
455.5	37660.27
455.705	38186.6
455.911	36193.92
456.117	35491.47
456.323	35612.3
456.529	33279.66
456.735	34600.6
456.941	33916.58
457.147	33230.51
457.352	32450.24
457.558	31805.13
457.764	31645.38
457.97	31219.41
458.176	30389.98
458.381	30625.5
458.587	29181.68
458.793	28907.25
458.999	27752.2
459.204	29630.18
459.41	28716.79
459.616	26855.18
459.821	26973.97
460.027	26791.7
460.233	26056.48
460.438	24850.22
460.644	25145.13
460.85	23975.74
461.055	23787.33
461.261	23830.34
461.466	21841.76
461.672	21264.23
461.878	22341.46
462.083	21106.54
462.289	20655.98
462.494	20621.17
462.7	19574.66
462.905	19132.29
463.111	19687.29
463.316	19896.19
463.522	19486.59
463.727	19488.64
463.932	19537.79
464.138	18978.7
464.343	19001.22
464.549	18798.48
464.754	19437.44
464.959	19214.21
465.165	18898.83
465.37	17948.57
465.575	17915.8
465.781	18626.45
465.986	18413.46
466.191	17956.76
466.397	17579.93
466.602	16910.25
466.807	17184.68
467.012	17297.31
467.218	17477.54
467.423	17133.48
467.628	17164.2
467.833	17713.05
468.038	17244.07
468.244	16867.24
468.449	17393.57
468.654	16916.39
468.859	16471.98
469.064	16482.22
469.269	15617.98
469.474	15953.85
469.679	16598.96
469.885	15845.3
470.09	16070.58
470.295	16019.38
470.5	15966.14
470.705	15585.21
470.91	15415.23
471.115	15347.65
471.32	15599.55
471.525	15433.66
471.73	14884.81
471.935	14903.24
472.139	14196.69
472.344	14479.31
472.549	14473.17
472.754	14090.2
472.959	14172.11
473.164	13826.01
473.369	13445.09
473.574	13815.77
473.778	13993.94
473.983	13606.88
474.188	13477.85
474.393	12933.09
474.598	13051.88
474.802	12847.08
475.007	12978.15
475.212	12920.81
475.417	12396.53
475.621	12527.6
475.826	12566.51
476.031	12177.39
476.235	11988.98
476.44	12197.87
476.645	11671.54
476.849	12083.19
477.054	11806.71
477.259	11466.75
477.463	11665.4
477.668	11288.57
477.872	11620.35
478.077	11145.22
478.282	10991.62
478.486	10795.01
478.691	10690.57
478.895	10633.22
479.1	10850.31
479.304	10756.1
479.509	10477.58
479.713	10688.52
479.918	10346.51
480.122	10256.4
480.326	10608.65
480.531	10502.15
480.735	10403.85
480.94	10242.06
481.144	10694.66
481.348	10123.28
481.553	10102.8
481.757	9967.63
481.961	10240.01
482.166	10084.37
482.37	10188.82
482.574	9934.87
482.778	10061.84
482.983	10178.58
483.187	9814.04
483.391	9883.67
483.595	10018.83
483.8	9756.69
484.004	10158.1
484.208	10076.18
484.412	9895.96
484.616	10141.71
484.821	9977.87
485.025	9713.69
485.229	9926.68
485.433	9953.3
485.637	10022.93
485.841	9670.68
486.045	9945.11
486.249	9766.93
486.453	9801.75
486.657	9965.59
486.861	9977.87
487.065	9691.16
487.269	9777.17
487.473	9773.08
487.677	9920.53
487.881	9816.08
488.085	9959.44
488.289	9975.83
488.493	10033.17
488.697	10215.44
488.901	9967.63
489.105	10162.19
489.309	10029.07
489.512	10080.27
489.716	10108.94
489.92	10031.12
490.124	10139.66
490.328	10459.15
490.531	10059.79
490.735	10375.18
490.939	10100.75
491.143	10334.22
491.346	10270.73
491.55	10364.94
491.754	10240.01
491.958	10502.15
492.161	10467.34
492.365	10467.34
492.569	10330.13
492.772	10526.73
492.976	10682.38
493.18	10633.22
493.383	10844.17
493.587	10909.7
493.79	11008
493.994	10811.4
494.197	10915.84
494.401	11261.95
494.605	11055.11
494.808	11128.83
495.012	11212.8
495.215	11325.44
495.419	11268.09
495.622	11507.71
495.825	11450.36
496.029	11501.56
496.232	11667.45
496.436	11855.86
496.639	12169.2
496.843	12113.91
497.046	12255.22
497.249	12367.85
497.453	12369.9
497.656	12519.4
497.859	12488.68
498.063	12761.06
498.266	12941.29
498.469	13072.36
498.673	13098.98
498.876	13115.36
499.079	13291.49
499.282	13393.89
499.485	13778.9
499.689	14053.33
499.892	13864.92
500.095	13950.93
500.298	14356.43
500.501	14305.23
500.705	14622.67
500.908	14612.43
501.111	14688.2
501.314	15097.8
501.517	15247.3
501.72	15300.55
501.923	15321.02
502.126	15622.08
502.329	15880.12
502.532	16220.08
502.735	16132.02
502.938	16404.4
503.141	16379.82
503.344	16820.14
503.547	16875.43
503.75	17080.23
503.953	17469.34
504.156	17794.97
504.359	17729.44
504.562	18012.06
504.765	18073.49
504.968	18044.82
505.17	18653.07
505.373	18790.28
505.576	18970.51
505.779	19111.82
505.982	19019.66
506.185	19285.89
506.387	19541.89
506.59	19881.85
506.793	20187
506.996	20461.43
507.198	20793.2
507.401	20424.56
507.604	20909.93
507.807	21315.43
508.009	21419.88
508.212	21538.66
508.415	21964.64
508.617	22155.1
508.82	22210.39
509.022	21964.64
509.225	22771.54
509.428	22787.92
509.63	23048.01
509.833	23103.31
510.035	23770.94
510.238	23371.59
510.44	23803.71
510.643	24710.96
510.845	24495.92
511.048	24407.86
511.25	24942.38
511.453	25005.87
511.655	25954.08
511.858	25528.1
512.06	25837.34
512.262	26259.23
512.465	26140.44
512.667	26527.51
512.87	26924.82
513.072	27184.91
513.274	27500.3
513.477	27868.93
513.679	27977.47
513.881	28251.9
514.084	28679.93
514.286	28839.67
514.488	28880.63
514.69	29443.82
514.893	29800.16
515.095	29890.27
515.297	30226.14
515.499	30215.9
515.701	30795.48
515.904	31446.73
516.106	31334.09
516.308	31424.2
516.51	32267.97
516.712	32288.45
516.914	32458.43
517.116	33078.96
517.318	33201.84
517.52	33435.31
517.722	33715.88
517.925	34137.76
518.127	34514.59
518.329	34961.05
518.531	34676.38
518.733	35237.52
518.935	35593.87
519.136	35948.17
519.338	36269.7
519.54	36468.35
519.742	36734.59
519.944	37138.04
520.146	37375.6
520.348	37746.28
520.55	37949.03
520.752	38440.54
520.954	38706.78
521.155	38932.06
521.357	39331.41
521.559	39771.72
521.761	39984.71
521.963	40347.2
522.164	40439.36
522.366	40810.04
522.568	41207.35
522.77	41705.01
522.971	42522.15
523.173	42026.54
523.375	42436.13
523.576	42651.17
523.778	42739.23
523.98	43267.61
524.181	43441.68
524.383	43669.01
524.584	44414.47
524.786	44672.51
524.988	44430.85
525.189	45176.31
525.391	45299.19
525.592	45942.25
525.794	45479.41
525.995	45876.72
526.197	46179.82
526.398	46239.21
526.6	46759.39
526.801	47050.2
527.003	47168.99
527.204	47732.18
527.406	47459.8
527.607	47529.43
527.808	48121.29
528.01	47736.27
528.211	48129.48
528.412	49309.11
528.614	48559.56
528.815	48793.03
529.016	49532.34
529.218	49190.33
529.419	49262.01
529.62	49409.46
529.822	49966.51
530.023	50249.13
530.224	50093.49
530.425	50103.73
530.626	49915.31
530.828	49728.95
531.029	50922.91
531.23	50210.22
531.431	50951.59
531.632	50906.53
531.833	51410.33
532.035	51031.46
532.236	51279.26
532.437	51586.46
532.638	50963.87
532.839	51549.59
533.04	51656.09
533.241	51690.9
533.442	52348.3
533.643	51469.72
533.844	51987.86
534.045	52170.13
534.246	51619.22
534.447	52520.33
534.648	51619.22
534.849	52581.77
535.05	51901.84
535.251	52491.66
535.451	51664.28
535.652	52436.36
535.853	52250
536.054	52694.41
536.255	52626.82
536.456	52006.29
536.657	52856.2
536.857	52202.89
537.058	52331.92
537.259	52653.45
537.46	52667.78
537.66	52850.05
537.861	52749.7
538.062	52333.96
538.263	52796.81
538.463	52356.49
538.664	52622.73
538.865	52426.12
539.065	53108.1
539.266	52405.64
539.466	52897.16
539.667	52299.15
539.868	53185.92
540.068	52555.14
540.269	52852.1
540.469	53122.43
540.67	53044.61
540.87	53077.38
541.071	52585.86
541.271	53081.47
541.472	52610.44
541.672	52577.67
541.873	52096.4
542.073	52102.54
542.274	53339.52
542.474	52522.38
542.675	51883.41
542.875	52905.35
543.075	52352.4
543.276	52163.98
543.476	52987.27
543.676	52143.5
543.877	52680.07
544.077	52651.4
544.277	52229.52
544.478	52497.8
544.678	52688.26
544.878	52407.69
545.078	52624.78
545.279	52196.75
545.479	52252.05
545.679	52626.82
545.879	52512.14
546.079	52727.17
546.28	52299.15
546.48	51881.36
546.68	52454.79
546.88	52624.78
547.08	52745.61
547.28	52452.75
547.48	52206.99
547.68	52542.86
547.88	52336.01
548.081	52931.97
548.281	52354.44
548.481	52317.58
548.681	52741.51
548.881	52792.71
549.081	52383.12
549.28	52317.58
549.48	52759.94
549.68	52143.5
549.88	53101.95
550.08	52168.08
550.28	52217.23
550.48	52250
550.68	52704.65
550.88	51830.16
551.08	52798.85
551.279	52110.74
551.479	52057.49
551.679	52659.59
551.879	52352.4
552.079	52200.85
552.278	51983.76
552.478	52327.82
552.678	52233.61
552.878	52254.09
553.077	52039.06
553.277	51881.36
553.477	52575.62
553.676	51686.81
553.876	51672.47
554.076	51541.4
554.275	51629.46
554.475	51242.4
554.674	51430.81
554.874	51385.75
555.074	51785.11
555.273	51443.1
555.473	52096.4
555.672	51465.63
555.872	51156.38
556.071	51529.11
556.271	51301.79
556.47	50701.73
556.67	50795.94
556.869	50877.86
557.068	51053.98
557.268	50857.38
557.467	50521.51
557.667	50931.11
557.866	50777.51
558.065	50615.72
558.265	50498.98
558.464	49974.7
558.663	50662.82
558.863	49866.16
559.062	50894.24
559.261	49788.34
559.461	50466.22
559.66	49622.45
559.859	50189.74
560.058	49245.63
560.258	49655.22
560.457	49153.47
560.656	49505.72
560.855	49143.23
561.054	49794.48
561.253	48514.5
561.453	49223.1
561.652	49024.45
561.851	48989.63
562.05	48674.24
562.249	48293.32
562.448	49165.76
562.647	48506.31
562.846	48018.89
563.045	48350.66
563.244	47683.03
563.443	48088.52
563.642	47312.34
563.841	47687.12
564.04	47238.62
564.239	47703.51
564.438	47087.07
564.637	47390.17
564.836	47547.86
565.035	46517.73
565.234	46786.02
565.432	46706.15
565.631	46194.15
565.83	46652.9
566.029	45729.26
566.228	46110.19
566.427	46130.67
566.625	45688.31
566.824	45327.86
567.023	45663.73
567.222	44551.68
567.42	45409.78
567.619	45207.03
567.818	44983.8
568.016	44758.53
568.215	45067.77
568.414	44504.58
568.612	45313.53
568.811	44082.7
569.01	44363.27
569.208	43828.75
569.407	43943.44
569.605	43486.74
569.804	43646.48
570.002	43281.94
570.201	43273.75
570.4	42935.84
570.598	42776.09
570.797	42767.9
570.995	42792.48
571.193	41985.58
571.392	42530.34
571.59	42200.61
571.789	42135.08
571.987	42108.46
572.186	42042.92
572.384	41604.66
572.582	41834.03
572.781	41424.43
572.979	40734.27
573.177	41109.05
573.376	41135.67
573.574	40810.04
573.772	41176.63
573.971	40310.34
574.169	40435.27
574.367	40214.09
574.565	40355.39
574.763	40078.92
574.962	39951.95
575.16	39454.29
575.358	40164.93
575.556	39132.76
575.754	39720.52
575.952	39124.57
576.151	39663.18
576.349	39048.79
576.547	38776.41
576.745	38907.48
576.943	38858.33
577.141	38649.44
577.339	38354.53
577.537	38225.51
577.735	38172.26
577.933	37856.87
578.131	38018.66
578.329	37596.78
578.527	37484.14
578.725	37856.87
578.923	37437.04
579.121	37330.55
579.319	36925.05
579.516	37099.12
579.714	37148.28
579.912	36679.29
580.11	36454.01
580.308	36599.42
580.506	36775.55
580.704	35896.97
580.901	36398.72
581.099	36232.83
581.297	36023.94
581.495	35927.69
581.692	35901.06
581.89	35712.65
582.088	35735.18
582.285	35489.42
582.483	35597.96
582.681	35587.72
582.878	35147.41
583.076	35002
583.274	35280.53
583.471	34573.98
583.669	34424.48
583.866	34850.45
584.064	34829.98
584.262	33889.96
584.459	34180.77
584.657	34070.18
584.854	34076.32
585.052	33736.36
585.249	34113.19
585.447	34219.68
585.644	33226.42
585.841	33636.01
586.039	33824.42
586.236	33484.46
586.434	33279.66
586.631	33115.83
586.828	33218.22
587.026	32810.68
587.223	32958.13
587.42	32595.64
587.618	32618.17
587.815	32390.84
588.012	32423.61
588.21	32241.34
588.407	32259.77
588.604	32181.95
588.801	31993.54
588.999	31831.75
589.196	31725.25
589.393	31600.33
589.59	31600.33
589.787	31413.96
589.984	31352.52
590.182	31373
590.379	31383.24
590.576	31264.46
590.773	30983.89
590.97	30652.12
591.167	31067.86
591.364	30652.12
591.561	30750.42
591.758	30392.03
591.955	30439.13
592.152	30754.52
592.349	30090.98
592.546	30230.24
592.743	30306.01
592.94	29890.27
593.137	29961.95
593.334	29507.3
593.531	29658.85
593.727	29497.06
593.924	29443.82
594.121	29322.99
594.318	29640.42
594.515	28952.3
594.712	29187.82
594.908	29216.49
595.105	29269.74
595.302	28739.32
595.499	28884.72
595.696	28786.42
595.892	28299
596.089	28628.73
596.286	28602.1
596.482	28245.76
596.679	28468.98
596.876	28573.43
597.072	28034.81
597.269	28077.82
597.466	28083.97
597.662	27715.33
597.859	27870.98
598.055	27981.57
598.252	27461.38
598.448	27842.31
598.645	27490.06
598.841	27315.98
599.038	27346.7
599.234	27440.9
599.431	26748.69
599.627	26969.87
599.824	27021.07
600.02	26586.9
600.217	26668.82
600.413	26615.57
600.609	26388.25
600.806	26486.55
601.002	26523.41
601.198	26072.86
601.395	26214.17
601.591	25999.13
601.787	25972.51
601.984	26009.37
602.18	26138.4
602.376	25988.89
602.572	25562.92
602.769	25777.95
602.965	25657.12
603.161	25685.79
603.357	25569.06
603.553	25450.28
603.75	25573.16
603.946	24897.33
604.142	25093.93
604.338	24692.53
604.534	25270.06
604.73	24788.78
604.926	24459.06
605.122	24936.24
605.318	24407.86
605.514	24348.47
605.71	24411.96
605.906	24125.24
606.102	24096.57
606.298	24104.76
606.494	24403.77
606.69	24297.27
606.886	24117.05
607.082	23816
607.278	23707.46
607.474	23662.4
607.67	23963.45
607.866	23424.84
608.062	23785.28
608.257	23678.79
608.453	23351.11
608.649	23177.03
608.845	23097.16
609.041	22986.57
609.236	23285.58
609.432	23088.97
609.628	23115.59
609.824	22835.02
610.019	22761.3
610.215	22943.56
610.411	22982.48
610.606	22949.71
610.802	22798.16
610.998	22683.47
611.193	22734.67
611.389	22644.56
611.584	22417.24
611.78	22234.97
611.976	22636.37
612.171	22456.15
612.367	22576.98
612.562	22363.99
612.758	22093.66
612.953	21888.86
613.149	22265.69
613.344	21913.44
613.539	22120.28
613.735	21839.71
613.93	21884.76
614.126	21376.87
614.321	22077.27
614.517	21796.7
614.712	21794.65
614.907	21421.92
615.103	21960.54
615.298	21389.16
615.493	21817.18
615.688	21366.63
615.884	21585.76
616.079	21041
616.274	21215.08
616.47	21088.1
616.665	21110.63
616.86	21053.29
617.055	21090.15
617.25	20914.03
617.445	20772.72
617.641	20668.27
617.836	20680.56
618.031	20561.78
618.226	20645.74
618.421	20567.92
618.616	20840.3
618.811	20369.27
619.006	20389.75
619.201	20424.56
619.396	20154.23
619.591	19617.66
619.786	20111.22
619.981	19705.73
620.176	19986.3
620.371	19707.77
620.566	19767.17
620.761	19654.53
620.956	19875.71
621.151	19306.37
621.346	19294.08
621.541	19128.2
621.735	19371.91
621.93	19177.35
622.125	19103.62
622.32	18616.21
622.515	19007.37
622.709	18382.74
622.904	18790.28
623.099	18663.31
623.294	18622.35
623.488	18270.1
623.683	18415.51
623.878	18046.87
624.072	18050.97
624.267	17973.14
624.462	17842.07
624.656	17805.21
624.851	17692.57
625.046	17653.66
625.24	17330.08
625.435	17471.39
625.629	17360.8
625.824	17168.29
626.018	17119.14
626.213	16852.91
626.407	16770.99
626.602	16770.99
626.796	16838.57
626.991	16850.86
627.185	16541.61
627.38	16426.93
627.574	16476.08
627.768	16150.45
627.963	16175.03
628.157	15849.4
628.352	16140.21
628.546	15853.5
628.74	16031.67
628.935	15736.76
629.129	15742.91
629.323	15462.33
629.517	15349.7
629.712	15450.05
629.906	15355.84
630.1	15114.18
630.294	15122.37
630.489	15116.23
630.683	15316.93
630.877	14686.15
631.071	14796.74
631.265	14657.48
631.459	14737.35
631.653	14696.39
631.848	14532.56
632.042	14387.15
632.236	14639.05
632.43	14428.11
632.624	14211.03
632.818	14043.09
633.012	14114.77
633.206	14120.92
633.4	14286.8
633.594	13672.41
633.788	13879.25
633.982	14122.96
634.176	13658.07
634.369	13725.66
634.563	13451.23
634.757	13477.85
634.951	13471.71
635.145	13367.26
635.339	13336.54
635.533	13152.23
635.726	13314.02
635.92	13041.64
636.114	12924.9
636.308	12832.74
636.501	12742.63
636.695	12627.95
636.889	12490.73
637.083	12566.51
637.276	12425.2
637.47	12476.4
637.664	12457.96
637.857	12216.3
638.051	12310.51
638.244	12218.35
638.438	12204.02
638.632	12255.22
638.825	12034.04
639.019	11837.43
639.212	11800.57
639.406	11773.94
639.599	11606.01
639.793	11423.74
639.986	11587.58
640.18	11681.78
640.373	11528.19
640.567	11288.57
640.76	11294.72
640.954	11018.24
641.147	11229.18
641.34	11266.05
641.534	11182.08
641.727	11098.11
641.92	11255.81
642.114	10729.48
642.307	11167.74
642.5	10706.95
642.694	10592.27
642.887	10688.52
643.08	10563.59
643.273	10420.24
643.467	10668.04
643.66	10321.93
643.853	10326.03
644.046	10022.93
644.239	10354.7
644.432	10166.29
644.626	10125.33
644.819	10188.82
645.012	10031.12
645.205	9945.11
645.398	9881.62
645.591	9930.77
645.784	9932.82
645.977	9779.22
646.17	9850.9
646.363	9543.71
646.556	9699.35
646.749	9582.62
646.942	9689.11
647.135	9553.94
647.328	9429.02
647.521	9164.83
647.714	9138.21
647.907	9211.93
648.099	9367.58
648.292	9256.99
648.485	9113.63
648.678	9187.36
648.871	8966.18
649.064	8927.27
649.256	9115.68
649.449	8808.48
649.642	8884.26
649.835	8751.14
650.027	8712.23
650.22	8697.89
650.413	8738.85
650.605	8605.74
650.798	8626.22
650.991	8495.15
651.183	8396.84
651.376	8370.22
651.568	8445.99
651.761	8331.31
651.954	8310.83
652.146	8278.06
652.339	8208.43
652.531	8157.23
652.724	8265.77
652.916	8110.13
653.109	7919.67
653.301	8216.62
653.494	8093.74
653.686	7899.19
653.879	7858.23
654.071	7831.6
654.263	7821.36
654.456	7837.75
654.648	8056.88
654.84	7602.23
655.033	7643.19
655.225	7714.87
655.417	7524.41
655.61	7647.29
655.802	7667.77
655.994	7657.53
656.186	7454.78
656.379	7311.42
656.571	7338.04
656.763	7352.38
656.955	7303.23
657.148	7270.46
657.34	7196.73
657.532	7118.91
657.724	7196.73
657.916	7229.5
658.108	7243.84
658.3	7080
658.492	7075.9
658.684	6799.43
658.876	7051.33
659.068	6924.35
659.26	6963.26
659.452	6709.32
659.644	6869.06
659.836	6914.11
660.028	6848.58
660.22	6811.71
660.412	6830.15
660.604	6658.12
660.796	6561.86
660.988	6883.39
661.18	6723.65
661.372	6660.17
661.563	6658.12
661.755	6490.18
661.947	6543.43
662.139	6365.26
662.331	6457.42
662.522	6412.36
662.714	6430.79
662.906	6469.7
663.097	6332.49
663.289	6281.29
663.481	6189.13
663.673	6152.27
663.864	6092.88
664.056	6139.98
664.247	6373.45
664.439	6000.72
664.631	6039.63
664.822	6004.82
665.014	6013.01
665.205	6180.94
665.397	6000.72
665.588	6025.29
665.78	6053.97
665.971	5894.22
666.163	6094.93
666.354	5869.65
666.546	6209.61
666.737	6053.97
666.929	5902.42
667.12	5951.57
667.311	5816.4
667.503	5945.42
667.694	5787.73
667.885	5836.88
668.077	5822.55
668.268	5718.1
668.459	5742.68
668.651	5757.01
668.842	5914.7
669.033	5783.63
669.224	5617.75
669.416	5709.91
669.607	5687.38
669.798	5771.35
669.989	5566.55
670.18	5703.76
670.371	5701.72
670.563	5582.93
670.754	5707.86
670.945	5580.89
671.136	5685.33
671.327	5574.74
671.518	5793.87
671.709	5732.44
671.9	5640.28
672.091	5724.24
672.282	5527.64
672.473	5503.06
672.664	5451.86
672.855	5460.06
673.046	5611.61
673.237	5537.88
673.428	5695.57
673.619	5597.27
673.809	5357.66
674	5468.25
674.191	5472.34
674.382	5517.4
674.573	5597.27
674.764	5535.83
674.954	5353.56
675.145	5400.66
675.336	5646.42
675.527	5597.27
675.717	5472.34
675.908	5593.17
676.099	5621.84
676.289	5484.63
676.48	5546.07
676.671	5529.69
676.861	5611.61
677.052	5625.94
677.243	5501.01
677.433	5507.16
677.624	5570.65
677.814	5587.03
678.005	5578.84
678.195	5664.85
678.386	5527.64
678.576	5560.41
678.767	5460.06
678.957	5582.93
679.148	5679.19
679.338	5607.51
679.529	5644.37
679.719	5664.85
679.909	5597.27
680.1	5740.63
680.29	5632.08
680.481	5701.72
680.671	5601.37
680.861	5816.4
681.052	5857.36
681.242	5863.51
681.432	5689.43
681.622	5607.51
681.813	5726.29
682.003	5793.87
682.193	5613.65
682.383	5883.98
682.573	5759.06
682.764	5773.39
682.954	5640.28
683.144	5832.79
683.334	5894.22
683.524	5795.92
683.714	5912.66
683.904	5699.67
684.094	5806.16
684.284	5890.13
684.474	5886.03
684.664	5883.98
684.854	5847.12
685.044	5593.17
685.234	5890.13
685.424	5767.25
685.614	5914.7
685.804	5845.07
685.994	5748.82
686.184	5816.4
686.374	5806.16
686.564	5795.92
686.753	5707.86
686.943	5603.41
687.133	5611.61
687.323	5769.3
687.513	5800.02
687.702	5754.96
687.892	5554.26
688.082	5574.74
688.272	5593.17
688.461	5685.33
688.651	5636.18
688.841	5501.01
689.03	5560.41
689.22	5529.69
689.41	5404.76
689.599	5376.09
689.789	5453.91
689.979	5279.83
690.168	5382.23
690.358	5292.12
690.547	5177.44
690.737	5277.79
690.926	5298.27
691.116	5230.68
691.305	5183.58
691.495	5161.05
691.684	5116
691.874	4986.97
692.063	5130.33
692.252	5032.03
692.442	5126.24
692.631	4790.37
692.82	4931.68
693.01	4821.09
693.199	4935.78
693.388	4778.08
693.578	4726.88
693.767	4833.38
693.956	4837.47
694.146	4743.27
694.335	4784.23
694.524	4941.92
694.713	4923.49
694.902	4800.61
695.092	4657.25
695.281	4601.96
695.47	4687.97
695.659	4649.06
695.848	4579.43
696.037	4616.29
696.226	4589.67
696.415	4583.52
696.604	4749.41
696.793	4579.43
696.982	4659.3
697.171	4724.83
697.36	4620.39
697.549	4792.42
697.738	4642.92
697.927	4499.56
698.116	4567.14
698.305	4554.85
698.494	4505.7
698.683	4653.16
698.872	4577.38
699.061	4587.62
699.25	4546.66
699.438	4610.15
699.627	4628.58
699.816	4513.89
700.005	4563.05
700.193	4741.22
700.382	4507.75
700.571	4692.07
700.76	4685.92
700.948	4565.09
701.137	4569.19
701.326	4552.81
701.514	4593.76
701.703	4661.35
701.892	4468.84
702.08	4720.74
702.269	4780.13
702.457	4501.61
702.646	4673.64
702.834	4520.04
703.023	4569.19
703.212	4718.69
703.4	4601.96
703.589	4587.62
703.777	4601.96
703.965	4612.2
704.154	4505.7
704.342	4677.73
704.531	4708.45
704.719	4405.35
704.907	4647.01
705.096	4472.93
705.284	4753.51
705.472	4618.34
705.661	4661.35
705.849	4675.68
706.037	4720.74
706.226	4692.07
706.414	4747.36
706.602	4644.96
706.79	4829.28
706.979	4636.77
707.167	4677.73
707.355	4837.47
707.543	4798.56
707.731	4800.61
707.919	4739.17
708.107	4823.14
708.296	4651.11
708.484	4743.27
708.672	4741.22
708.86	4702.31
709.048	4798.56
709.236	4810.85
709.424	4888.67
709.612	4878.43
709.8	4683.88
709.988	4974.69
710.176	4884.58
710.364	5046.37
710.551	4745.31
710.739	4819.04
710.927	4812.9
711.115	4825.19
711.303	5070.94
711.491	4982.88
711.679	4937.82
711.866	4905.06
712.054	5044.32
712.242	4907.1
712.43	5167.2
712.617	5095.52
712.805	4925.54
712.993	5079.13
713.181	5011.55
713.368	5093.47
713.556	5111.9
713.744	5140.57
713.931	5275.74
714.119	5111.9
714.306	5169.24
714.494	5144.67
714.682	5257.31
714.869	5222.49
715.057	5259.35
715.244	5224.54
715.432	5308.51
715.619	5281.88
715.807	5187.68
715.994	5396.57
716.182	5365.85
716.369	5382.23
716.556	5308.51
716.744	5380.18
716.931	5322.84
717.119	5476.44
717.306	5484.63
717.493	5525.59
717.681	5437.53
717.868	5550.17
718.055	5511.25
718.242	5480.54
718.43	5394.52
718.617	5488.73
718.804	5609.56
718.991	5558.36
719.179	5720.15
719.366	5503.06
719.553	5693.52
719.74	5601.37
719.927	5695.57
720.114	5636.18
720.301	5613.65
720.488	5556.31
720.676	5625.94
720.863	5732.44
721.05	5722.2
721.237	5789.78
721.424	5699.67
721.611	5623.89
721.798	5730.39
721.985	5587.03
722.172	5824.59
722.358	5744.72
722.545	5865.55
722.732	5939.28
722.919	5920.85
723.106	5744.72
723.293	5800.02
723.48	5765.2
723.667	5781.59
723.853	5869.65
724.04	5986.38
724.227	5871.7
724.414	5861.46
724.6	5652.56
724.787	5916.75
724.974	5965.9
725.161	5988.43
725.347	5937.23
725.534	5941.33
725.72	5863.51
725.907	6062.16
726.094	6111.31
726.28	5961.81
726.467	5922.9
726.653	5877.84
726.84	5974.1
727.027	6131.79
727.213	5881.94
727.4	6049.87
727.586	5888.08
727.773	5961.81
727.959	6060.11
728.145	6060.11
728.332	6017.1
728.518	6195.28
728.705	6053.97
728.891	6166.6
729.077	6103.12
729.264	6215.76
729.45	6129.74
729.636	6305.87
729.823	6103.12
730.009	5998.67
730.195	6119.5
730.382	6340.68
730.568	6275.15
730.754	6246.48
730.94	6197.32
731.126	6250.57
731.313	6256.72
731.499	6426.7
731.685	6207.56
731.871	6438.98
732.057	6350.92
732.243	6379.59
732.429	6438.98
732.615	6469.7
732.801	6254.67
732.987	6334.54
733.173	6348.87
733.359	6430.79
733.545	6287.43
733.731	6262.86
733.917	6414.41
734.103	6414.41
734.289	6381.64
734.475	6209.61
734.661	6365.26
734.847	6314.06
735.033	6297.67
735.219	6168.65
735.404	6502.47
735.59	6357.07
735.776	6410.31
735.962	6379.59
736.148	6336.59
736.333	6377.55
736.519	6324.3
736.705	6449.22
736.89	6234.19
737.076	6381.64
737.262	6062.16
737.447	6303.82
737.633	6279.24
737.819	6281.29
738.004	6228.04
738.19	6246.48
738.375	6275.15
738.561	6379.59
738.747	6228.04
738.932	6336.59
739.118	6295.63
739.303	6002.77
739.489	6248.52
739.674	6182.99
739.859	6144.08
740.045	6127.69
740.23	6248.52
740.416	5994.58
740.601	6135.89
740.786	6348.87
740.972	6049.87
741.157	6084.69
741.342	6111.31
741.528	6051.92
741.713	6086.73
741.898	6053.97
742.084	5947.47
742.269	5994.58
742.454	5914.7
742.639	6113.36
742.824	5937.23
743.01	5922.9
743.195	5996.62
743.38	5992.53
743.565	5933.14
743.75	5742.68
743.935	5857.36
744.12	5926.99
744.305	5724.24
744.49	5732.44
744.675	5656.66
744.86	5613.65
745.045	5550.17
745.23	5619.8
745.415	5558.36
745.6	5636.18
745.785	5535.83
745.97	5642.32
746.155	5513.3
746.34	5582.93
746.525	5519.45
746.71	5478.49
746.895	5371.99
747.079	5312.6
747.264	5417.05
747.449	5304.41
747.634	5267.55
747.819	5263.45
748.003	5062.75
748.188	5128.28
748.373	5085.28
748.557	5011.55
748.742	4968.54
748.927	5005.41
749.111	5093.47
749.296	4956.26
749.481	4968.54
749.665	4886.62
749.85	4866.14
750.034	5005.41
750.219	4808.8
750.404	4747.36
750.588	4804.71
750.773	4792.42
750.957	4698.21
751.141	4712.55
751.326	4587.62
751.51	4505.7
751.695	4581.48
751.879	4462.69
752.064	4517.99
752.248	4550.76
752.432	4517.99
752.617	4374.63
752.801	4276.33
752.985	4343.91
753.17	4358.25
753.354	4399.21
753.538	4337.77
753.722	4184.17
753.907	4147.31
754.091	4147.31
754.275	4122.73
754.459	4159.6
754.643	4110.44
754.828	4116.59
755.012	4032.62
755.196	3868.78
755.38	3874.93
755.564	3915.89
755.748	3704.95
755.932	3829.87
756.116	3680.37
756.3	3782.77
756.484	3723.38
756.668	3772.53
756.852	3766.39
757.036	3682.42
757.22	3688.56
757.404	3604.6
757.588	3676.27
757.772	3711.09
757.956	3645.56
758.14	3680.37
758.323	3530.87
758.507	3522.68
758.691	3487.86
758.875	3399.8
759.059	3440.76
759.242	3457.14
759.426	3330.17
759.61	3299.45
759.794	3301.5
759.977	3416.18
760.161	3448.95
760.345	3235.96
760.528	3227.77
760.712	3203.19
760.895	3227.77
761.079	3125.37
761.263	3027.07
761.446	2982.01
761.63	3147.9
761.813	3117.18
761.997	3061.88
762.18	3129.47
762.364	3188.86
762.547	3055.74
762.731	2998.4
762.914	3022.97
763.098	2984.06
763.281	2898.05
763.464	2928.77
763.648	2879.61
763.831	2871.42
764.015	2908.29
764.198	2971.77
764.381	2875.52
764.564	2840.7
764.748	2873.47
764.931	2828.42
765.114	2840.7
765.297	2769.02
765.481	2820.22
765.664	2779.26
765.847	2756.74
766.03	2721.92
766.213	2646.15
766.397	2736.26
766.58	2539.65
766.763	2752.64
766.946	2646.15
767.129	2629.76
767.312	2527.36
767.495	2760.83
767.678	2584.71
767.861	2674.82
768.044	2480.26
768.227	2549.89
768.41	2494.6
768.593	2504.84
768.776	2500.74
768.959	2455.69
769.142	2506.88
769.324	2359.43
769.507	2424.97
769.69	2453.64
769.873	2297.99
770.056	2416.77
770.239	2474.12
770.421	2261.13
770.604	2381.96
770.787	2228.36
770.97	2257.03
771.152	2261.13
771.335	2228.36
771.518	2193.55
771.7	2293.9
771.883	2302.09
772.066	2197.64
772.248	2136.2
772.431	2261.13
772.613	2168.97
772.796	2146.44
772.978	2193.55
773.161	2254.98
773.343	2136.2
773.526	2177.16
773.708	2033.8
773.891	1998.99
774.073	1998.99
774.256	2070.67
774.438	2099.34
774.621	2128.01
774.803	2039.95
774.985	2037.9
775.168	1933.45
775.35	1892.49
775.532	1990.8
775.715	1933.45
775.897	1783.95
776.079	1790.1
776.261	1958.03
776.444	1921.17
776.626	1781.9
776.808	1908.88
776.99	1763.47
777.173	1794.19
777.355	1808.53
777.537	1808.53
777.719	1786
777.901	1749.14
778.083	1771.66
778.265	1704.08
778.447	1704.08
778.629	1597.59
778.811	1720.46
778.993	1683.6
779.175	1609.87
779.357	1616.02
779.539	1530
779.721	1634.45
779.903	1577.11
780.085	1575.06
780.267	1546.39
780.449	1548.44
780.631	1548.44
780.812	1558.67
780.994	1417.37
781.176	1460.37
781.358	1319.06
781.54	1495.19
781.721	1443.99
781.903	1532.05
782.085	1433.75
782.267	1491.09
782.448	1380.5
782.63	1366.17
782.812	1343.64
782.993	1403.03
783.175	1419.41
783.357	1292.44
783.538	1400.98
783.72	1233.05
783.901	1278.1
784.083	1155.23
784.264	1210.52
784.446	1231
784.627	1302.68
784.809	1216.66
784.99	1173.66
785.172	1253.53
785.353	1177.75
785.535	1204.38
785.716	1216.66
785.897	1136.79
786.079	1044.63
786.26	1099.93
786.441	1212.57
786.623	1085.59
786.804	1104.03
786.985	1147.03
787.167	1114.27
787.348	1099.93
787.529	1130.65
787.71	1128.6
787.891	1013.92
788.073	1157.27
788.254	1149.08
788.435	1063.07
788.616	1095.83
788.797	1040.54
788.978	975
789.159	966.81
789.34	1009.82
789.522	1013.92
789.703	987.29
789.884	964.76
790.065	991.39
790.246	1083.55
790.427	915.61
790.607	979.1
790.788	882.85
790.969	862.37
791.15	991.39
791.331	942.24
791.512	843.93
791.693	899.23
791.874	878.75
792.054	934.04
792.235	868.51
792.416	802.97
792.597	841.89
792.778	843.93
792.958	860.32
793.139	929.95
793.32	802.97
793.5	792.73
793.681	893.09
793.862	782.49
794.042	714.91
794.223	772.25
794.404	809.12
794.584	784.54
794.765	751.78
794.945	782.49
795.126	782.49
795.306	737.44
795.487	860.32
795.667	696.48
795.848	749.73
796.028	680.1
796.209	768.16
796.389	745.63
796.57	749.73
796.75	665.76
796.93	782.49
797.111	630.95
797.291	729.25
797.471	647.33
797.652	635.04
797.832	645.28
798.012	802.97
798.192	655.52
798.373	639.14
798.553	620.71
798.733	643.23
798.913	688.29
799.093	725.15
799.274	676
799.454	643.23
799.634	594.08
799.814	565.41
799.994	641.18
800.174	639.14
800.354	637.09
800.534	661.66
800.714	676
800.894	602.27
801.074	549.03
801.254	532.64
801.434	589.99
801.614	577.7
801.794	608.42
801.974	1319.06
802.154	598.18
802.334	628.9
802.514	450.72
802.693	506.02
802.873	532.64
803.053	540.83
803.233	532.64
803.413	532.64
803.592	587.94
803.772	471.2
803.952	512.16
804.131	569.51
804.311	532.64
804.491	565.41
804.67	538.79
804.85	546.98
805.03	530.59
805.209	524.45
805.389	643.23
805.568	559.27
805.748	516.26
805.928	516.26
806.107	565.41
806.287	510.11
806.466	506.02
806.646	522.4
806.825	483.49
807.004	456.87
807.184	448.68
807.363	508.07
807.543	432.29
807.722	549.03
807.901	553.12
808.081	473.25
808.26	413.86
808.439	506.02
808.619	491.68
808.798	426.15
808.977	549.03
809.156	508.07
809.336	475.3
809.515	450.72
809.694	377
809.873	413.86
810.052	536.74
810.231	467.11
810.411	503.97
810.59	487.59
810.769	401.57
810.948	407.72
811.127	356.52
811.306	336.04
811.485	377
811.664	499.88
811.843	471.2
812.022	487.59
812.201	385.19
812.38	350.37
812.559	364.71
812.737	374.95
812.916	426.15
813.095	397.48
813.274	340.13
813.453	340.13
813.632	379.04
813.811	405.67
813.989	331.94
814.168	417.96
814.347	327.85
814.526	352.42
814.704	368.81
814.883	358.57
815.062	333.99
815.24	368.81
815.419	377
815.598	377
815.776	239.78
815.955	344.23
816.133	360.61
816.312	399.52
816.49	374.95
816.669	360.61
816.847	385.19
817.026	368.81
817.204	317.61
817.383	350.37
817.561	319.65
817.74	475.3
817.918	448.68
818.097	286.89
818.275	342.18
818.453	360.61
818.632	393.38
818.81	290.98
818.988	252.07
819.167	366.76
819.345	377
819.523	333.99
819.701	360.61
819.879	356.52
820.058	336.04
820.236	303.27
820.414	309.41
820.592	307.37
820.77	354.47
820.948	301.22
821.127	284.84
821.305	325.8
821.483	301.22
821.661	346.28
821.839	336.04
822.017	254.12
822.195	225.45
822.373	344.23
822.551	303.27
822.729	274.6
822.907	317.61
823.085	377
823.262	317.61
823.44	211.11
823.618	258.21
823.796	213.16
823.974	327.85
824.152	221.35
824.329	278.69
824.507	229.54
824.685	270.5
824.863	319.65
825.04	329.89
825.218	278.69
825.396	280.74
825.574	327.85
825.751	211.11
825.929	245.93
826.107	219.3
826.284	262.31
826.462	299.17
826.639	172.2
826.817	284.84
826.994	256.17
827.172	260.26
827.349	282.79
827.527	252.07
827.704	237.74
827.882	243.88
828.059	204.97
828.237	225.45
828.414	274.6
828.591	180.39
828.769	243.88
828.946	141.48
829.124	245.93
829.301	254.12
829.478	172.2
829.655	172.2
829.833	217.26
830.01	164.01
830.187	180.39
830.364	180.39
830.542	278.69
830.719	268.45
830.896	286.89
831.073	278.69
831.25	176.3
831.427	254.12
831.604	213.16
831.782	204.97
831.959	168.1
832.136	219.3
832.313	264.36
832.49	180.39
832.667	194.73
832.844	213.16
833.021	209.06
833.198	176.3
833.374	166.06
833.551	192.68
833.728	178.34
833.905	229.54
834.082	223.4
834.259	186.54
834.436	184.49
834.612	153.77
834.789	168.1
834.966	188.58
835.143	184.49
835.319	164.01
835.496	272.55
835.673	168.1
835.85	147.62
836.026	235.69
836.203	200.87
836.38	108.71
836.556	235.69
836.733	106.67
836.909	186.54
837.086	211.11
837.262	147.62
837.439	125.1
837.616	164.01
837.792	123.05
837.968	209.06
838.145	98.47
838.321	157.86
838.498	233.64
838.674	186.54
838.851	153.77
839.027	178.34
839.203	170.15
839.38	188.58
839.556	143.53
839.732	170.15
839.909	190.63
840.085	123.05
840.261	114.86
840.437	192.68
840.614	219.3
840.79	159.91
840.966	202.92
841.142	112.81
841.318	180.39
841.494	145.58
841.671	182.44
841.847	155.82
842.023	139.43
842.199	186.54
842.375	174.25
842.551	18.6
842.727	125.1
842.903	180.39
843.079	41.13
843.255	182.44
843.431	139.43
843.607	174.25
843.783	92.33
843.959	184.49
844.134	98.47
844.31	131.24
844.486	82.09
844.662	102.57
844.838	77.99
845.013	186.54
845.189	168.1
845.365	80.04
845.541	121
845.716	96.43
845.892	102.57
846.068	65.71
846.244	135.34
846.419	123.05
846.595	59.56
846.77	106.67
846.946	49.32
847.122	139.43
847.297	98.47
847.473	94.38
847.648	94.38
847.824	207.02
847.999	73.9
848.175	96.43
848.35	147.62
848.526	170.15
848.701	112.81
848.876	96.43
849.052	94.38
849.227	110.76
849.403	184.49
849.578	55.47
849.753	133.29
849.929	96.43
850.104	98.47
850.279	47.27
850.454	114.86
850.63	127.14
850.805	114.86
850.98	94.38
851.155	108.71
851.33	153.77
851.505	102.57
851.681	96.43
851.856	106.67
852.031	102.57
852.206	135.34
852.381	65.71
852.556	65.71
852.731	123.05
852.906	82.09
853.081	75.95
853.256	100.52
853.431	39.08
853.606	47.27
853.781	41.13
853.956	73.9
854.131	45.23
854.305	55.47
854.48	-3.93
854.655	73.9
854.83	143.53
855.005	73.9
855.18	106.67
855.354	63.66
855.529	63.66
855.704	47.27
855.879	94.38
856.053	49.32
856.228	106.67
856.403	112.81
856.577	94.38
856.752	141.48
856.926	98.47
857.101	168.1
857.276	18.6
857.45	131.24
857.625	49.32
857.799	131.24
857.974	121
858.148	2.22
858.323	155.82
858.497	41.13
858.672	47.27
858.846	22.7
859.02	112.81
859.195	-1.88
859.369	108.71
859.543	75.95
859.718	6.31
859.892	88.23
860.066	69.8
860.241	102.57
860.415	82.09
860.589	-67.41
860.763	82.09
860.938	22.7
861.112	26.79
861.286	51.37
861.46	143.53
861.634	65.71
861.808	82.09
861.982	-40.79
862.157	-1.88
862.331	59.56
862.505	-3.93
862.679	71.85
862.853	14.51
863.027	-32.6
863.201	135.34
863.375	43.18
863.549	75.95
863.722	24.75
863.896	57.51
864.07	71.85
864.244	69.8
864.418	92.33
864.592	112.81
864.766	-24.4
864.939	61.61
865.113	98.47
865.287	106.67
865.461	-12.12
865.634	86.19
865.808	-16.21
865.982	88.23
866.156	26.79
866.329	30.89
866.503	14.51
866.676	-12.12
866.85	6.31
867.024	49.32
867.197	88.23
867.371	-3.93
867.544	55.47
867.718	59.56
867.891	59.56
868.065	-16.21
868.238	86.19
868.412	14.51
868.585	57.51
868.759	88.23
868.932	73.9
869.105	73.9
869.279	49.32
869.452	-5.97
869.625	53.42
869.799	82.09
869.972	-16.21
870.145	49.32
870.319	34.99
870.492	73.9
870.665	-18.26
870.838	53.42
871.011	102.57
871.185	61.61
871.358	55.47
871.531	32.94
871.704	18.6
871.877	71.85
872.05	47.27
872.223	-32.6
872.396	123.05
872.569	63.66
872.742	-16.21
872.915	49.32
873.088	-16.21
873.261	12.46
873.434	73.9
873.607	22.7
873.78	57.51
873.953	20.65
874.126	82.09
874.299	16.55
874.471	57.51
874.644	22.7
874.817	170.15
874.99	108.71
875.163	-34.64
875.335	59.56
875.508	90.28
875.681	24.75
875.853	71.85
876.026	59.56
876.199	69.8
876.371	73.9
876.544	-36.69
876.717	16.55
876.889	24.75
877.062	32.94
877.234	10.41
877.407	-5.97
877.579	12.46
877.752	-18.26
877.924	37.03
878.097	6.31
878.269	-18.26
878.442	71.85
878.614	82.09
878.786	20.65
878.959	55.47
879.131	41.13
879.303	-139.09
879.476	69.8
879.648	32.94
879.82	94.38
879.993	18.6
880.165	-16.21
880.337	-24.4
880.509	49.32
880.681	-12.12
880.854	37.03
881.026	41.13
881.198	98.47
881.37	114.86
881.542	37.03
881.714	32.94
881.886	-16.21
882.058	-8.02
882.23	61.61
882.402	73.9
882.574	43.18
882.746	39.08
882.918	102.57
883.09	12.46
883.262	-48.98
883.434	69.8
883.606	8.36
883.778	49.32
883.95	73.9
884.122	-53.08
884.293	77.99
884.465	43.18
884.637	28.84
884.809	-10.07
884.98	37.03
885.152	14.51
885.324	55.47
885.496	0.17
885.667	59.56
885.839	49.32
886.011	98.47
886.182	131.24
886.354	57.51
886.525	37.03
886.697	-8.02
886.869	22.7
887.04	-1.88
887.212	86.19
887.383	-14.17
887.555	24.75
887.726	-20.31
887.897	80.04
888.069	6.31
888.24	71.85
888.412	-40.79
888.583	-12.12
888.754	55.47
888.926	47.27
889.097	20.65
889.268	-57.17
889.44	12.46
889.611	-38.74
889.782	-22.36
889.953	12.46
890.125	147.62
890.296	63.66
890.467	86.19
890.638	-40.79
890.809	12.46
890.98	2.22
891.151	0.17
891.323	104.62
891.494	-18.26
891.665	2.22
891.836	24.75
892.007	12.46
892.178	8.36
892.349	41.13
892.52	-59.22
892.691	16.55
892.862	82.09
893.032	-8.02
893.203	20.65
893.374	20.65
893.545	63.66
893.716	8.36
893.887	-24.4
894.057	12.46
894.228	39.08
894.399	-48.98
894.57	108.71
894.74	8.36
894.911	-3.93
895.082	16.55
895.253	-61.27
895.423	-130.9
895.594	59.56
895.764	-3.93
895.935	43.18
896.106	-73.56
896.276	-3.93
896.447	-22.36
896.617	-59.22
896.788	-57.17
896.958	41.13
897.129	-34.64
897.299	6.31
897.47	45.23
897.64	47.27
897.81	22.7
897.981	49.32
898.151	-24.4
898.322	20.65
898.492	-16.21
898.662	-10.07
898.832	-34.64
899.003	-12.12
899.173	30.89
899.343	8.36
899.513	16.55
