Data from USB4F104151__66__11-31-01-149.txt Node

Date: Fri Mar 14 11:31:01 EDT 2025
User: louis
Spectrometer: USB4F10415
Trigger mode: 4
Integration Time (sec): 5.000000E-2
Scans to average: 1
Electric dark correction enabled: true
Nonlinearity correction enabled: false
Boxcar width: 0
XAxis mode: Wavelengths
Number of Pixels in Spectrum: 3648
>>>>>Begin Spectral Data<<<<<
178.204	-147.97
178.424	-147.97
178.644	-147.97
178.864	-145.92
179.084	-174.59
179.304	-23.04
179.524	5.63
179.744	-14.85
179.964	22.02
180.184	-47.62
180.404	-31.23
180.624	9.73
180.844	1.54
181.064	-31.23
181.283	46.59
181.503	-18.94
181.723	81.41
181.943	-39.42
182.163	-31.23
182.383	9.73
182.602	122.37
182.822	30.21
183.042	36.35
183.262	13.82
183.482	120.32
183.701	79.36
183.921	28.16
184.141	-37.38
184.361	52.74
184.58	-16.9
184.8	-20.99
185.02	50.69
185.239	54.78
185.459	-20.99
185.679	58.88
185.898	34.3
186.118	165.37
186.338	71.17
186.557	3.58
186.777	-20.99
186.997	15.87
187.216	48.64
187.436	79.36
187.655	85.5
187.875	19.97
188.095	30.21
188.314	32.26
188.534	105.98
188.753	22.02
188.973	40.45
189.192	83.45
189.412	26.11
189.631	114.17
189.851	19.97
190.07	95.74
190.29	-18.94
190.509	19.97
190.729	38.4
190.948	95.74
191.168	116.22
191.387	83.45
191.607	56.83
191.826	75.26
192.045	19.97
192.265	34.3
192.484	7.68
192.704	-55.81
192.923	-8.7
193.142	124.41
193.362	56.83
193.581	124.41
193.8	50.69
194.02	122.37
194.239	34.3
194.458	105.98
194.678	52.74
194.897	32.26
195.116	-10.75
195.335	40.45
195.555	1.54
195.774	22.02
195.993	116.22
196.212	65.02
196.432	5.63
196.651	32.26
196.87	65.02
197.089	155.13
197.308	67.07
197.528	124.41
197.747	-23.04
197.966	30.21
198.185	69.12
198.404	-35.33
198.623	67.07
198.842	120.32
199.062	151.04
199.281	177.66
199.5	17.92
199.719	97.79
199.938	120.32
200.157	-0.51
200.376	36.35
200.595	97.79
200.814	13.82
201.033	34.3
201.252	79.36
201.471	-23.04
201.69	142.85
201.909	50.69
202.128	71.17
202.347	65.02
202.566	36.35
202.785	-20.99
203.004	22.02
203.223	167.42
203.442	28.16
203.661	36.35
203.879	26.11
204.098	122.37
204.317	17.92
204.536	87.55
204.755	19.97
204.974	36.35
205.193	62.98
205.411	50.69
205.63	50.69
205.849	36.35
206.068	-16.9
206.287	-35.33
206.505	67.07
206.724	67.07
206.943	17.92
207.162	1.54
207.381	22.02
207.599	83.45
207.818	56.83
208.037	32.26
208.255	-41.47
208.474	-2.56
208.693	108.03
208.911	83.45
209.13	17.92
209.349	9.73
209.567	1.54
209.786	34.3
210.005	-16.9
210.223	75.26
210.442	-31.23
210.661	54.78
210.879	87.55
211.098	13.82
211.316	1.54
211.535	116.22
211.753	62.98
211.972	54.78
212.191	-0.51
212.409	17.92
212.628	-20.99
212.846	22.02
213.065	28.16
213.283	67.07
213.502	40.45
213.72	9.73
213.938	42.5
214.157	-23.04
214.375	48.64
214.594	26.11
214.812	91.65
215.031	44.54
215.249	69.12
215.467	32.26
215.686	30.21
215.904	118.27
216.122	103.93
216.341	67.07
216.559	17.92
216.778	79.36
216.996	28.16
217.214	-35.33
217.432	40.45
217.651	13.82
217.869	-2.56
218.087	-49.66
218.306	87.55
218.524	108.03
218.742	58.88
218.96	9.73
219.179	75.26
219.397	67.07
219.615	122.37
219.833	69.12
220.051	69.12
220.27	91.65
220.488	75.26
220.706	89.6
220.924	-29.18
221.142	30.21
221.36	71.17
221.578	101.89
221.796	114.17
222.015	42.5
222.233	83.45
222.451	44.54
222.669	15.87
222.887	85.5
223.105	46.59
223.323	1.54
223.541	9.73
223.759	54.78
223.977	9.73
224.195	128.51
224.413	103.93
224.631	58.88
224.849	32.26
225.067	157.18
225.285	22.02
225.503	-10.75
225.721	5.63
225.939	-0.51
226.157	73.21
226.375	132.61
226.592	32.26
226.81	114.17
227.028	114.17
227.246	165.37
227.464	89.6
227.682	65.02
227.9	87.55
228.117	-31.23
228.335	54.78
228.553	42.5
228.771	50.69
228.989	122.37
229.206	62.98
229.424	38.4
229.642	15.87
229.86	-16.9
230.077	36.35
230.295	81.41
230.513	87.55
230.731	65.02
230.948	89.6
231.166	40.45
231.384	22.02
231.601	-0.51
231.819	54.78
232.037	48.64
232.254	89.6
232.472	69.12
232.689	32.26
232.907	101.89
233.125	85.5
233.342	75.26
233.56	67.07
233.777	-43.52
233.995	81.41
234.213	48.64
234.43	99.84
234.648	34.3
234.865	-6.66
235.083	87.55
235.3	9.73
235.518	26.11
235.735	24.06
235.953	42.5
236.17	-8.7
236.388	93.69
236.605	-20.99
236.822	58.88
237.04	54.78
237.257	71.17
237.475	28.16
237.692	-0.51
237.909	91.65
238.127	-10.75
238.344	62.98
238.562	136.7
238.779	-6.66
238.996	11.78
239.214	38.4
239.431	48.64
239.648	40.45
239.865	32.26
240.083	48.64
240.3	15.87
240.517	-2.56
240.735	38.4
240.952	50.69
241.169	116.22
241.386	112.13
241.603	32.26
241.821	75.26
242.038	50.69
242.255	-18.94
242.472	24.06
242.689	46.59
242.907	124.41
243.124	38.4
243.341	-49.66
243.558	24.06
243.775	-4.61
243.992	-14.85
244.209	24.06
244.426	67.07
244.643	124.41
244.86	50.69
245.078	50.69
245.295	1.54
245.512	19.97
245.729	-33.28
245.946	22.02
246.163	99.84
246.38	95.74
246.597	56.83
246.814	62.98
247.031	-8.7
247.248	17.92
247.464	81.41
247.681	62.98
247.898	91.65
248.115	54.78
248.332	30.21
248.549	42.5
248.766	95.74
248.983	50.69
249.2	79.36
249.417	81.41
249.633	32.26
249.85	62.98
250.067	17.92
250.284	79.36
250.501	73.21
250.717	116.22
250.934	73.21
251.151	42.5
251.368	-18.94
251.585	32.26
251.801	50.69
252.018	40.45
252.235	9.73
252.451	67.07
252.668	48.64
252.885	32.26
253.102	56.83
253.318	-41.47
253.535	13.82
253.752	-6.66
253.968	79.36
254.185	73.21
254.401	77.31
254.618	-23.04
254.835	26.11
255.051	71.17
255.268	105.98
255.484	93.69
255.701	134.65
255.917	38.4
256.134	-6.66
256.351	50.69
256.567	99.84
256.784	30.21
257	-25.09
257.217	75.26
257.433	32.26
257.65	26.11
257.866	67.07
258.082	22.02
258.299	7.68
258.515	7.68
258.732	67.07
258.948	50.69
259.165	46.59
259.381	7.68
259.597	73.21
259.814	17.92
260.03	50.69
260.246	9.73
260.463	67.07
260.679	42.5
260.895	122.37
261.112	-8.7
261.328	-2.56
261.544	1.54
261.761	128.51
261.977	26.11
262.193	42.5
262.409	99.84
262.626	50.69
262.842	-2.56
263.058	17.92
263.274	30.21
263.49	99.84
263.707	126.46
263.923	124.41
264.139	7.68
264.355	79.36
264.571	1.54
264.787	11.78
265.004	91.65
265.22	67.07
265.436	62.98
265.652	-47.62
265.868	58.88
266.084	9.73
266.3	75.26
266.516	58.88
266.732	54.78
266.948	48.64
267.164	79.36
267.38	103.93
267.596	40.45
267.812	105.98
268.028	48.64
268.244	42.5
268.46	75.26
268.676	40.45
268.892	56.83
269.108	26.11
269.324	81.41
269.54	15.87
269.756	99.84
269.972	42.5
270.188	17.92
270.403	50.69
270.619	-47.62
270.835	58.88
271.051	56.83
271.267	22.02
271.483	46.59
271.698	97.79
271.914	38.4
272.13	-6.66
272.346	-8.7
272.562	32.26
272.777	50.69
272.993	22.02
273.209	9.73
273.425	54.78
273.64	26.11
273.856	99.84
274.072	48.64
274.287	-31.23
274.503	108.03
274.719	-6.66
274.934	40.45
275.15	-59.9
275.366	38.4
275.581	-33.28
275.797	73.21
276.012	-12.8
276.228	79.36
276.444	17.92
276.659	28.16
276.875	58.88
277.09	75.26
277.306	42.5
277.521	65.02
277.737	22.02
277.952	83.45
278.168	40.45
278.383	44.54
278.599	67.07
278.814	73.21
279.03	15.87
279.245	79.36
279.461	42.5
279.676	87.55
279.892	75.26
280.107	-6.66
280.322	38.4
280.538	38.4
280.753	17.92
280.969	1.54
281.184	58.88
281.399	95.74
281.615	95.74
281.83	22.02
282.045	-16.9
282.26	15.87
282.476	50.69
282.691	75.26
282.906	136.7
283.122	73.21
283.337	7.68
283.552	79.36
283.767	15.87
283.983	42.5
284.198	50.69
284.413	89.6
284.628	15.87
284.843	75.26
285.058	54.78
285.274	42.5
285.489	-23.04
285.704	26.11
285.919	1.54
286.134	30.21
286.349	-10.75
286.564	17.92
286.779	89.6
286.995	-2.56
287.21	-27.14
287.425	46.59
287.64	65.02
287.855	28.16
288.07	65.02
288.285	52.74
288.5	48.64
288.715	73.21
288.93	67.07
289.145	24.06
289.36	44.54
289.575	13.82
289.79	69.12
290.004	-6.66
290.219	136.7
290.434	40.45
290.649	22.02
290.864	-10.75
291.079	22.02
291.294	69.12
291.509	11.78
291.724	5.63
291.938	85.5
292.153	91.65
292.368	50.69
292.583	67.07
292.798	120.32
293.012	32.26
293.227	-12.8
293.442	44.54
293.657	48.64
293.871	122.37
294.086	44.54
294.301	144.89
294.516	46.59
294.73	46.59
294.945	11.78
295.16	24.06
295.374	116.22
295.589	71.17
295.804	13.82
296.018	-4.61
296.233	42.5
296.447	75.26
296.662	56.83
296.877	75.26
297.091	79.36
297.306	77.31
297.52	56.83
297.735	165.37
297.949	148.99
298.164	120.32
298.378	67.07
298.593	32.26
298.807	-59.9
299.022	46.59
299.236	75.26
299.451	87.55
299.665	-4.61
299.88	83.45
300.094	32.26
300.309	42.5
300.523	105.98
300.737	48.64
300.952	1.54
301.166	15.87
301.381	-31.23
301.595	73.21
301.809	58.88
302.024	46.59
302.238	26.11
302.452	-25.09
302.667	-0.51
302.881	95.74
303.095	26.11
303.309	65.02
303.524	-51.71
303.738	28.16
303.952	-8.7
304.166	99.84
304.381	46.59
304.595	124.41
304.809	-25.09
305.023	9.73
305.237	83.45
305.452	65.02
305.666	99.84
305.88	120.32
306.094	81.41
306.308	83.45
306.522	73.21
306.736	132.61
306.95	108.03
307.164	-27.14
307.379	56.83
307.593	155.13
307.807	32.26
308.021	69.12
308.235	17.92
308.449	-6.66
308.663	-29.18
308.877	65.02
309.091	13.82
309.305	108.03
309.519	3.58
309.733	73.21
309.947	9.73
310.161	108.03
310.374	85.5
310.588	50.69
310.802	-31.23
311.016	-6.66
311.23	19.97
311.444	54.78
311.658	65.02
311.872	89.6
312.085	116.22
312.299	52.74
312.513	220.67
312.727	54.78
312.941	85.5
313.154	32.26
313.368	30.21
313.582	75.26
313.796	54.78
314.009	13.82
314.223	118.27
314.437	42.5
314.651	34.3
314.864	85.5
315.078	1.54
315.292	44.54
315.505	58.88
315.719	-6.66
315.933	40.45
316.146	22.02
316.36	93.69
316.573	42.5
316.787	24.06
317.001	26.11
317.214	120.32
317.428	15.87
317.641	-39.42
317.855	-14.85
318.068	54.78
318.282	58.88
318.495	97.79
318.709	91.65
318.922	11.78
319.136	97.79
319.349	103.93
319.563	38.4
319.776	40.45
319.99	65.02
320.203	124.41
320.417	50.69
320.63	83.45
320.843	120.32
321.057	40.45
321.27	173.57
321.483	22.02
321.697	97.79
321.91	9.73
322.124	79.36
322.337	112.13
322.55	1.54
322.763	54.78
322.977	22.02
323.19	30.21
323.403	65.02
323.617	62.98
323.83	75.26
324.043	9.73
324.256	42.5
324.469	-27.14
324.683	132.61
324.896	24.06
325.109	69.12
325.322	-47.62
325.535	99.84
325.748	50.69
325.962	-23.04
326.175	34.3
326.388	34.3
326.601	73.21
326.814	11.78
327.027	42.5
327.24	83.45
327.453	17.92
327.666	77.31
327.879	108.03
328.092	97.79
328.305	58.88
328.518	89.6
328.731	17.92
328.944	7.68
329.157	58.88
329.37	40.45
329.583	5.63
329.796	124.41
330.009	19.97
330.222	116.22
330.435	93.69
330.648	24.06
330.861	58.88
331.073	67.07
331.286	65.02
331.499	3.58
331.712	-6.66
331.925	-31.23
332.138	52.74
332.35	91.65
332.563	-43.52
332.776	91.65
332.989	-0.51
333.202	17.92
333.414	50.69
333.627	9.73
333.84	95.74
334.053	7.68
334.265	17.92
334.478	34.3
334.691	99.84
334.903	44.54
335.116	105.98
335.329	-10.75
335.541	26.11
335.754	75.26
335.966	99.84
336.179	71.17
336.392	3.58
336.604	44.54
336.817	17.92
337.029	73.21
337.242	73.21
337.454	56.83
337.667	50.69
337.88	99.84
338.092	60.93
338.305	62.98
338.517	-12.8
338.729	17.92
338.942	105.98
339.154	46.59
339.367	13.82
339.579	71.17
339.792	22.02
340.004	30.21
340.217	71.17
340.429	-2.56
340.641	24.06
340.854	34.3
341.066	65.02
341.278	1.54
341.491	73.21
341.703	40.45
341.915	17.92
342.128	46.59
342.34	44.54
342.552	56.83
342.764	22.02
342.977	93.69
343.189	50.69
343.401	-6.66
343.613	1.54
343.826	105.98
344.038	17.92
344.25	-12.8
344.462	5.63
344.674	77.31
344.886	-43.52
345.099	77.31
345.311	52.74
345.523	-14.85
345.735	-53.76
345.947	56.83
346.159	157.18
346.371	-0.51
346.583	65.02
346.795	71.17
347.007	13.82
347.219	95.74
347.431	-12.8
347.643	87.55
347.855	5.63
348.067	32.26
348.279	36.35
348.491	79.36
348.703	67.07
348.915	-31.23
349.127	1.54
349.339	62.98
349.551	-39.42
349.763	40.45
349.975	26.11
350.187	40.45
350.399	132.61
350.61	34.3
350.822	5.63
351.034	112.13
351.246	71.17
351.458	32.26
351.669	91.65
351.881	148.99
352.093	89.6
352.305	114.17
352.517	83.45
352.728	99.84
352.94	65.02
353.152	97.79
353.363	46.59
353.575	116.22
353.787	48.64
353.999	75.26
354.21	114.17
354.422	-6.66
354.633	-6.66
354.845	34.3
355.057	50.69
355.268	91.65
355.48	34.3
355.692	40.45
355.903	138.75
356.115	60.93
356.326	50.69
356.538	89.6
356.749	50.69
356.961	46.59
357.172	36.35
357.384	19.97
357.595	134.65
357.807	67.07
358.018	26.11
358.23	38.4
358.441	48.64
358.653	26.11
358.864	48.64
359.075	46.59
359.287	48.64
359.498	79.36
359.709	54.78
359.921	34.3
360.132	73.21
360.344	62.98
360.555	32.26
360.766	81.41
360.977	52.74
361.189	99.84
361.4	75.26
361.611	138.75
361.823	87.55
362.034	50.69
362.245	24.06
362.456	15.87
362.667	122.37
362.879	50.69
363.09	1.54
363.301	75.26
363.512	62.98
363.723	67.07
363.935	89.6
364.146	38.4
364.357	50.69
364.568	85.5
364.779	-64
364.99	17.92
365.201	26.11
365.412	1.54
365.623	24.06
365.834	58.88
366.045	44.54
366.256	22.02
366.467	65.02
366.678	52.74
366.889	54.78
367.1	36.35
367.311	108.03
367.522	32.26
367.733	112.13
367.944	73.21
368.155	-6.66
368.366	50.69
368.577	128.51
368.788	95.74
368.999	132.61
369.209	48.64
369.42	99.84
369.631	79.36
369.842	50.69
370.053	28.16
370.264	101.89
370.474	40.45
370.685	42.5
370.896	71.17
371.107	67.07
371.317	46.59
371.528	24.06
371.739	83.45
371.95	34.3
372.16	157.18
372.371	9.73
372.582	146.94
372.792	24.06
373.003	34.3
373.214	46.59
373.424	42.5
373.635	38.4
373.846	112.13
374.056	28.16
374.267	56.83
374.477	85.5
374.688	40.45
374.898	58.88
375.109	140.8
375.319	56.83
375.53	130.56
375.74	83.45
375.951	32.26
376.161	116.22
376.372	58.88
376.582	34.3
376.793	87.55
377.003	17.92
377.214	15.87
377.424	71.17
377.635	32.26
377.845	62.98
378.055	62.98
378.266	24.06
378.476	114.17
378.686	79.36
378.897	34.3
379.107	79.36
379.317	24.06
379.528	50.69
379.738	114.17
379.948	56.83
380.158	85.5
380.369	83.45
380.579	65.02
380.789	40.45
380.999	83.45
381.21	83.45
381.42	91.65
381.63	40.45
381.84	77.31
382.05	24.06
382.261	95.74
382.471	126.46
382.681	56.83
382.891	157.18
383.101	142.85
383.311	26.11
383.521	7.68
383.731	50.69
383.941	34.3
384.151	13.82
384.361	11.78
384.571	60.93
384.781	67.07
384.991	-35.33
385.201	83.45
385.411	15.87
385.621	75.26
385.831	40.45
386.041	89.6
386.251	146.94
386.461	87.55
386.671	56.83
386.881	97.79
387.091	62.98
387.301	105.98
387.511	34.3
387.72	58.88
387.93	114.17
388.14	50.69
388.35	87.55
388.56	95.74
388.769	99.84
388.979	144.89
389.189	58.88
389.399	97.79
389.609	89.6
389.818	44.54
390.028	9.73
390.238	79.36
390.447	32.26
390.657	83.45
390.867	7.68
391.076	5.63
391.286	48.64
391.496	97.79
391.705	24.06
391.915	153.09
392.125	67.07
392.334	60.93
392.544	15.87
392.753	69.12
392.963	46.59
393.172	112.13
393.382	65.02
393.591	202.24
393.801	73.21
394.01	105.98
394.22	122.37
394.429	79.36
394.639	118.27
394.848	124.41
395.058	65.02
395.267	128.51
395.477	99.84
395.686	81.41
395.895	120.32
396.105	89.6
396.314	67.07
396.524	153.09
396.733	15.87
396.942	198.14
397.152	79.36
397.361	144.89
397.57	105.98
397.78	99.84
397.989	157.18
398.198	95.74
398.407	116.22
398.617	44.54
398.826	40.45
399.035	93.69
399.244	65.02
399.453	114.17
399.663	-0.51
399.872	105.98
400.081	87.55
400.29	91.65
400.499	97.79
400.708	105.98
400.917	118.27
401.127	99.84
401.336	50.69
401.545	144.89
401.754	108.03
401.963	112.13
402.172	89.6
402.381	97.79
402.59	81.41
402.799	69.12
403.008	83.45
403.217	165.37
403.426	52.74
403.635	151.04
403.844	79.36
404.053	126.46
404.262	138.75
404.471	181.76
404.68	65.02
404.888	87.55
405.097	124.41
405.306	179.71
405.515	239.1
405.724	214.52
405.933	161.28
406.142	161.28
406.35	148.99
406.559	175.61
406.768	204.28
406.977	212.48
407.185	140.8
407.394	226.81
407.603	163.33
407.812	228.86
408.02	255.48
408.229	189.95
408.438	157.18
408.646	235
408.855	196.09
409.064	177.66
409.272	261.63
409.481	226.81
409.69	230.91
409.898	226.81
410.107	239.1
410.315	275.96
410.524	237.05
410.733	304.64
410.941	288.25
411.15	325.12
411.358	370.17
411.567	300.54
411.775	253.44
411.984	318.97
412.192	415.23
412.401	370.17
412.609	484.86
412.818	370.17
413.026	480.76
413.234	323.07
413.443	396.79
413.651	382.46
413.86	402.94
414.068	484.86
414.276	552.44
414.485	396.79
414.693	521.72
414.901	585.21
415.11	568.82
415.318	460.28
415.526	624.12
415.734	605.69
415.943	671.22
416.151	617.97
416.359	681.46
416.567	691.7
416.776	792.05
416.984	738.8
417.192	716.28
417.4	747
417.608	767.48
417.817	794.1
418.025	863.73
418.233	941.55
418.441	937.46
418.649	949.75
418.857	1107.44
419.065	1058.29
419.273	916.98
419.481	1025.52
419.689	1168.88
419.897	1132.01
420.105	1201.65
420.313	1213.93
420.521	1326.57
420.729	1322.48
420.937	1293.8
421.145	1261.04
421.353	1424.87
421.561	1469.93
421.769	1529.32
421.977	1629.67
422.185	1467.88
422.393	1764.84
422.601	1809.89
422.809	1734.12
423.017	1754.6
423.224	1826.28
423.432	1975.78
423.64	1912.29
423.848	2078.18
424.056	2004.45
424.263	2215.39
424.471	2260.45
424.679	2209.25
424.887	2440.67
425.094	2467.29
425.302	2405.85
425.51	2442.71
425.718	2569.69
425.925	2688.47
426.133	2754.01
426.341	2950.61
426.548	2893.27
426.756	3067.35
426.964	3007.95
427.171	3145.17
427.379	3335.63
427.586	3376.59
427.794	3540.43
428.001	3573.19
428.209	3683.78
428.417	3757.51
428.624	3933.64
428.832	4144.58
429.039	3945.92
429.247	3896.77
429.454	4349.37
429.662	4500.92
429.869	4308.41
430.076	4715.96
430.284	4543.93
430.491	4711.86
430.699	5195.18
430.906	4951.48
431.114	5098.93
431.321	5154.23
431.528	5295.54
431.736	5731.75
431.943	5911.97
432.15	5780.9
432.358	5772.71
432.565	6120.87
432.772	6016.42
432.979	6464.93
433.187	6530.46
433.394	6628.76
433.601	7142.8
433.808	7128.47
434.016	7024.02
434.223	7288.21
434.43	7732.62
434.637	7421.33
434.844	8099.2
435.052	8211.84
435.259	8131.97
435.466	8113.54
435.673	8164.74
435.88	8717.69
436.087	9176.44
436.294	9225.59
436.501	8932.73
436.708	9028.98
436.915	9446.77
437.122	9796.97
437.329	9741.68
437.537	10073.45
437.743	10478.94
437.95	10155.37
438.157	10569.05
438.364	10906.97
438.571	10966.36
438.778	11019.61
438.985	12221.77
439.192	11593.04
439.399	11961.67
439.606	11640.14
439.813	12223.81
440.02	13159.74
440.227	12830.01
440.433	12825.92
440.64	13315.38
440.847	12977.47
441.054	13364.53
441.261	14476.58
441.467	14056.75
441.674	14499.11
441.881	14894.36
442.088	14871.84
442.294	14961.95
442.501	15021.34
442.708	15731.98
442.914	16334.09
443.121	17032.44
443.328	16438.53
443.534	17401.08
443.741	17018.11
443.948	16958.72
444.154	18132.2
444.361	17741.04
444.568	18130.16
444.774	17923.31
444.981	18177.26
445.187	18937.06
445.394	19711.19
445.6	19014.88
445.807	21116.09
446.013	20323.53
446.22	20645.06
446.426	21820.6
446.633	21564.6
446.839	22383.79
447.046	21316.79
447.252	22805.67
447.459	22822.05
447.665	22596.78
447.871	23540.89
448.078	24679.56
448.284	23581.85
448.491	24118.42
448.697	25046.15
448.903	25537.66
449.11	25842.81
449.316	25275.52
449.522	25379.96
449.728	26066.03
449.935	26264.69
450.141	26584.17
450.347	26967.14
450.553	26262.64
450.76	26631.27
450.966	27542.62
451.172	26739.82
451.378	27497.56
451.584	27202.66
451.791	27784.28
451.997	27559
452.203	27970.65
452.409	28177.49
452.615	28154.96
452.821	26999.91
453.027	26821.73
453.233	27761.75
453.44	26793.06
453.646	27049.06
453.852	27386.97
454.058	27692.12
454.264	26661.99
454.47	27186.27
454.676	26522.73
454.882	27634.78
455.088	24919.17
455.294	25273.47
455.5	25785.46
455.705	26072.18
455.911	24849.54
456.117	24552.59
456.323	24149.14
456.529	22920.35
456.735	24112.27
456.941	23114.91
457.147	22727.85
457.352	22043.82
457.558	21750.96
457.764	21894.32
457.97	21750.96
458.176	20931.78
458.381	21099.71
458.587	20012.24
458.793	20049.1
458.999	18758.88
459.204	20298.95
459.41	19678.42
459.616	18488.55
459.821	18537.7
460.027	18132.2
460.233	17927.41
460.438	16925.95
460.644	17495.29
460.85	16542.98
461.055	16088.33
461.261	16006.41
461.466	15052.06
461.672	14476.58
461.878	15484.18
462.083	14681.38
462.289	14089.51
462.494	14087.47
462.7	13483.31
462.905	13245.75
463.111	13425.97
463.316	13937.96
463.522	13411.64
463.727	13241.65
463.932	13579.57
464.138	13165.88
464.343	13251.89
464.549	12846.4
464.754	13331.76
464.959	13133.11
465.165	13215.03
465.37	12707.13
465.575	12236.1
465.781	12535.1
465.986	12592.45
466.191	12313.92
466.397	12094.79
466.602	11404.63
466.807	12064.07
467.012	11763.02
467.218	11783.5
467.423	11879.75
467.628	11803.98
467.833	12219.72
468.038	11670.86
468.244	11355.47
468.449	11990.35
468.654	11437.39
468.859	11507.02
469.064	11365.71
469.269	11093.33
469.474	11013.46
469.679	11203.93
469.885	10929.5
470.09	11214.16
470.295	10925.4
470.5	10702.17
470.705	10857.82
470.91	10536.29
471.115	10435.94
471.32	10728.8
471.525	10347.87
471.73	10335.59
471.935	10134.89
472.139	10073.45
472.344	10143.08
472.549	9864.55
472.754	9962.86
472.959	9598.32
473.164	9438.58
473.369	9485.68
473.574	9467.25
473.778	9518.45
473.983	9338.23
474.188	9403.76
474.393	9049.46
474.598	9119.09
474.802	9008.5
475.007	8691.07
475.212	9008.5
475.417	8496.51
475.621	8496.51
475.826	8590.72
476.031	8289.67
476.235	8224.13
476.44	8402.3
476.645	8226.18
476.849	8373.63
477.054	7990.66
477.259	8148.36
477.463	8131.97
477.668	7998.85
477.872	7806.34
478.077	7734.67
478.282	7599.5
478.486	7650.7
478.691	7630.22
478.895	7632.27
479.1	7628.17
479.304	7435.66
479.509	7226.77
479.713	7191.95
479.918	7136.66
480.122	7148.95
480.326	7148.95
480.531	7064.98
480.735	7202.19
480.94	7019.92
481.144	7390.61
481.348	7112.08
481.553	7226.77
481.757	7015.83
481.961	6880.66
482.166	7116.18
482.37	6960.53
482.574	6659.48
482.778	6880.66
482.983	7091.6
483.187	7030.16
483.391	7079.32
483.595	6864.28
483.8	6759.83
484.004	6962.58
484.208	7054.74
484.412	6876.57
484.616	7015.83
484.821	6923.67
485.025	6815.13
485.229	6944.15
485.433	6983.06
485.637	6940.05
485.841	6831.51
486.045	6806.94
486.249	6827.42
486.453	6866.33
486.657	7011.73
486.861	6864.28
487.065	6735.26
487.269	6888.85
487.473	6575.52
487.677	6878.62
487.881	6972.82
488.085	6905.24
488.289	6817.18
488.493	6669.72
488.697	6981.01
488.901	6749.59
489.105	6952.34
489.309	6917.53
489.512	6811.03
489.716	7032.21
489.92	7071.12
490.124	6921.62
490.328	7144.85
490.531	6981.01
490.735	7136.66
490.939	6923.67
491.143	6981.01
491.346	7060.88
491.55	7212.43
491.754	7024.02
491.958	7243.15
492.161	7202.19
492.365	7392.66
492.569	7224.72
492.772	7331.22
492.976	7325.07
493.18	7257.49
493.383	7275.92
493.587	7648.65
493.79	7583.12
493.994	7437.71
494.197	7533.97
494.401	7669.13
494.605	7669.13
494.808	7751.05
495.012	7734.67
495.215	7908.74
495.419	8037.77
495.622	7955.85
495.825	8035.72
496.029	7953.8
496.232	8205.7
496.436	8201.6
496.639	8299.91
496.843	8379.78
497.046	8230.27
497.249	8725.88
497.453	8459.65
497.656	8603
497.859	8764.79
498.063	8734.07
498.266	8820.09
498.469	8938.87
498.673	9051.51
498.876	9002.36
499.079	9280.88
499.282	9239.92
499.485	9438.58
499.689	9491.82
499.892	9575.79
500.095	9637.23
500.298	9928.04
500.501	9938.28
500.705	9942.38
500.908	10290.53
501.111	10098.02
501.314	10390.88
501.517	10288.48
501.72	10644.83
501.923	10511.71
502.126	10755.42
502.329	11040.09
502.532	11099.48
502.735	10988.89
502.938	11355.47
503.141	11502.93
503.344	11464.02
503.547	11640.14
503.75	11752.78
503.953	12039.5
504.156	12070.22
504.359	12215.62
504.562	12088.65
504.765	12326.21
504.968	12582.21
505.17	12520.77
505.373	12696.89
505.576	12834.11
505.779	13153.59
505.982	13032.76
506.185	13528.37
506.387	13524.27
506.59	13587.76
506.793	13968.68
506.996	14064.94
507.198	14247.21
507.401	14269.73
507.604	14398.76
507.807	14718.24
508.009	14751.01
508.212	14902.56
508.415	15088.92
508.617	15068.44
508.82	15086.87
509.022	15095.07
509.225	15576.34
509.428	15523.09
509.63	15627.54
509.833	15992.08
510.035	16491.78
510.238	15910.16
510.44	16409.86
510.643	16489.73
510.845	16940.29
511.048	16758.02
511.25	17075.45
511.453	17138.94
511.655	17870.06
511.858	17497.33
512.06	17736.95
512.262	17986.8
512.465	17794.29
512.667	18357.48
512.87	18351.34
513.072	18367.72
513.274	18713.83
513.477	19004.64
513.679	19023.07
513.881	19516.63
514.084	19666.13
514.286	19594.45
514.488	19823.83
514.69	20446.41
514.893	20430.02
515.095	20475.08
515.297	20182.22
515.499	20882.63
515.701	20831.43
515.904	21191.87
516.106	21372.09
516.308	21617.85
516.51	21927.09
516.712	22070.45
516.914	22551.72
517.116	22602.92
517.318	22629.54
517.52	22680.74
517.722	22987.94
517.925	23391.39
518.127	23489.69
518.329	23850.13
518.531	23608.47
518.733	24347.79
518.935	24476.81
519.136	24509.58
519.338	24726.66
519.54	25003.14
519.742	25470.08
519.944	25478.27
520.146	25535.61
520.348	26430.57
520.55	26170.48
520.752	26098.8
520.954	26770.54
521.155	26725.48
521.357	27366.49
521.559	27323.49
521.761	27929.69
521.963	28105.81
522.164	27722.84
522.366	28279.89
522.568	28601.42
522.77	28908.61
522.971	29162.56
523.173	28943.43
523.375	29449.28
523.576	29443.13
523.778	29320.26
523.98	29871.16
524.181	30479.41
524.383	30379.06
524.584	30573.61
524.786	31165.48
524.988	30995.5
525.189	31587.36
525.391	31734.81
525.592	31902.75
525.794	31732.76
525.995	32179.22
526.197	32510.99
526.398	32160.79
526.6	32836.62
526.801	33012.74
527.003	33162.25
527.204	33203.21
527.406	33500.16
527.607	33805.31
527.808	34098.17
528.01	33389.57
528.211	33999.87
528.412	34501.62
528.614	34548.72
528.815	34593.78
529.016	35027.95
529.218	34792.43
529.419	34829.29
529.62	35335.14
529.822	35251.17
530.023	35361.76
530.224	35372
530.425	35584.99
530.626	35390.44
530.828	35279.85
531.029	36664.27
531.23	35965.92
531.431	36094.94
531.632	36135.9
531.833	36287.45
532.035	36262.87
532.236	36537.3
532.437	36590.55
532.638	36416.47
532.839	36758.48
533.04	36965.32
533.241	36834.25
533.442	37190.6
533.643	37217.22
533.844	37356.49
534.045	37319.62
534.246	36973.52
534.447	37342.15
534.648	37039.05
534.849	37678.02
535.05	36862.93
535.251	37651.39
535.451	37551.04
535.652	37751.74
535.853	37907.39
536.054	37913.53
536.255	37921.73
536.456	37252.04
536.657	38239.16
536.857	37757.89
537.058	37708.74
537.259	38048.7
537.46	37944.25
537.66	37630.91
537.861	37909.44
538.062	37944.25
538.263	37921.73
538.463	37817.28
538.664	37821.37
538.865	38259.64
539.065	38325.18
539.266	37798.85
539.466	38091.71
539.667	37452.74
539.868	37858.24
540.068	38149.05
540.269	38050.75
540.469	38169.53
540.67	38003.64
540.87	37985.21
541.071	37989.31
541.271	37895.1
541.472	38075.32
541.672	37974.97
541.873	37804.99
542.073	37514.18
542.274	38222.78
542.474	38022.08
542.675	37899.2
542.875	38056.89
543.075	37921.73
543.276	37577.67
543.476	38468.53
543.676	37835.71
543.877	38392.76
544.077	38052.8
544.277	37907.39
544.478	37764.03
544.678	37723.07
544.878	37866.43
545.078	38017.98
545.279	37804.99
545.479	38251.45
545.679	38153.15
545.879	38120.38
546.079	37788.61
546.28	37868.48
546.48	37542.85
546.68	38136.76
546.88	38060.99
547.08	38228.92
547.28	37700.54
547.48	37573.57
547.68	37952.44
547.88	37505.99
548.081	38083.51
548.281	38054.84
548.481	37802.94
548.681	37888.96
548.881	38017.98
549.081	38286.26
549.28	37891.01
549.48	38173.63
549.68	37778.37
549.88	38431.67
550.08	37766.08
550.28	38134.71
550.48	37628.87
550.68	38171.58
550.88	37833.66
551.08	37587.91
551.279	37866.43
551.479	37938.11
551.679	37620.67
551.879	37825.47
552.079	38079.42
552.278	37817.28
552.478	37755.84
552.678	37925.82
552.878	38046.65
553.077	37342.15
553.277	37661.63
553.477	38034.36
553.676	37477.32
553.876	37483.46
554.076	37266.38
554.275	37061.58
554.475	37540.8
554.674	37129.16
554.874	37544.9
555.074	37069.77
555.273	37321.67
555.473	37440.45
555.672	37120.97
555.872	37133.26
556.071	37151.69
556.271	37465.03
556.47	36881.36
556.67	36815.82
556.869	36785.1
557.068	36903.88
557.268	36711.38
557.467	36578.26
557.667	36764.62
557.866	36744.14
558.065	36322.26
558.265	35982.3
558.464	36477.91
558.663	36285.4
558.863	36056.03
559.062	36414.42
559.261	35996.63
559.461	36178.9
559.66	35673.06
559.859	35838.94
560.058	35566.56
560.258	35830.75
560.457	35384.29
560.656	35562.47
560.855	35584.99
561.054	35480.55
561.253	35075.05
561.453	35171.3
561.652	35269.61
561.851	35329
562.05	34841.58
562.249	34845.68
562.448	34743.28
562.647	34548.72
562.846	34479.09
563.045	34601.97
563.244	34184.18
563.443	34333.68
563.642	33926.14
563.841	34057.21
564.04	33655.81
564.239	34065.4
564.438	33444.87
564.637	33532.93
564.836	33362.95
565.035	33403.91
565.234	33317.89
565.432	33217.54
565.631	33197.06
565.83	33000.46
566.029	33117.19
566.228	32732.17
566.427	32474.13
566.625	32492.56
566.824	32220.18
567.023	32494.61
567.222	31767.58
567.42	32250.9
567.619	31949.85
567.818	32029.72
568.016	31738.91
568.215	31986.71
568.414	31550.49
568.612	31474.72
568.811	31413.28
569.01	31175.72
569.208	30821.42
569.407	30858.28
569.605	30673.96
569.804	31050.79
570.002	30344.24
570.201	30590
570.4	30051.38
570.598	29787.19
570.797	29787.19
570.995	30164.02
571.193	29602.88
571.392	29852.73
571.59	29627.45
571.789	29506.62
571.987	29246.53
572.186	29152.32
572.384	29301.82
572.582	29002.82
572.781	29064.26
572.979	28525.64
573.177	28724.3
573.376	28562.51
573.574	28519.5
573.772	28685.39
573.971	27976.79
574.169	28005.46
574.367	27901.01
574.565	28206.16
574.763	27741.27
574.962	27677.79
575.16	27317.34
575.358	27673.69
575.556	27229.28
575.754	27964.5
575.952	27098.21
576.151	27520.09
576.349	27036.77
576.547	26692.71
576.745	26956.9
576.943	26713.19
577.141	26799.21
577.339	26575.98
577.537	26524.78
577.735	26532.97
577.933	26002.55
578.131	26641.51
578.329	26283.12
578.527	26057.84
578.725	26080.37
578.923	26061.94
579.121	25697.4
579.319	25351.29
579.516	25650.3
579.714	25623.67
579.912	25283.71
580.11	25250.94
580.308	25207.94
580.506	25326.72
580.704	24800.39
580.901	25234.56
581.099	25212.03
581.297	25015.43
581.495	24722.57
581.692	24886.4
581.89	24511.63
582.088	24824.97
582.285	24620.17
582.483	24732.81
582.681	24568.97
582.878	24376.46
583.076	24194.19
583.274	24278.16
583.471	23899.28
583.669	24077.46
583.866	23973.01
584.064	23915.67
584.262	23526.55
584.459	23897.24
584.657	23471.26
584.854	23721.11
585.052	23334.04
585.249	23422.11
585.447	23200.93
585.644	23080.1
585.841	23256.22
586.039	23164.06
586.236	22906.02
586.434	22944.93
586.631	22944.93
586.828	22914.21
587.026	23045.28
587.223	22664.36
587.42	22666.41
587.618	22746.28
587.815	22252.72
588.012	22201.52
588.21	22492.33
588.407	22508.71
588.604	22148.27
588.801	21847.22
588.999	21904.56
589.196	21808.31
589.393	22031.54
589.59	21925.04
589.787	21796.02
589.984	21750.96
590.182	21396.67
590.379	21525.69
590.576	21374.14
590.773	21230.78
590.97	21120.19
591.167	21527.74
591.364	21136.57
591.561	21077.18
591.758	20982.98
591.955	20804.8
592.152	21103.81
592.349	20856
592.546	20694.21
592.743	20853.95
592.94	20628.68
593.137	20669.64
593.334	20913.34
593.531	20143.31
593.727	20620.49
593.924	20645.06
594.121	20296.91
594.318	20651.2
594.515	20120.78
594.712	20243.66
594.908	19891.41
595.105	19651.8
595.302	19784.91
595.499	19887.31
595.696	19717.33
595.892	19725.52
596.089	19692.76
596.286	19797.2
596.482	19385.56
596.679	19547.35
596.876	19455.19
597.072	19471.57
597.269	19277.02
597.466	19145.95
597.662	19279.07
597.859	19340.5
598.055	19078.36
598.252	19014.88
598.448	18967.77
598.645	18889.95
598.841	18613.48
599.038	18916.58
599.234	18859.23
599.431	18404.58
599.627	18423.01
599.824	18523.37
600.02	18332.9
600.217	18398.44
600.413	18394.34
600.609	18468.07
600.806	18181.35
601.002	18240.75
601.198	18029.8
601.395	17911.02
601.591	18009.33
601.787	17761.52
601.984	17913.07
602.18	18107.63
602.376	17835.25
602.572	17964.27
602.769	17718.51
602.965	17626.36
603.161	17790.19
603.357	17390.84
603.553	17652.98
603.75	17333.5
603.946	17155.32
604.142	17392.89
604.338	17229.05
604.534	17227
604.73	16864.51
604.926	16872.7
605.122	17114.36
605.318	16825.6
605.514	16778.5
605.71	16772.35
605.906	16567.56
606.102	16854.27
606.298	16694.53
606.494	16598.27
606.69	16459.01
606.886	16377.09
607.082	16323.85
607.278	16375.05
607.474	16241.93
607.67	16434.44
607.866	16282.89
608.062	16409.86
608.257	16436.49
608.453	15998.22
608.649	16039.18
608.845	16037.13
609.041	15967.5
609.236	16043.28
609.432	15809.81
609.628	15822.09
609.824	16024.84
610.019	15641.87
610.215	15979.79
610.411	15652.11
610.606	15691.02
610.802	15521.04
610.998	15568.15
611.193	15516.95
611.389	15779.09
611.584	15475.99
611.78	15234.33
611.976	15717.65
612.171	15664.4
612.367	15250.71
612.562	15170.84
612.758	15066.39
612.953	15131.93
613.149	15404.31
613.344	15146.26
613.539	15115.55
613.735	15035.67
613.93	15168.79
614.126	15031.58
614.321	15283.48
614.517	14920.99
614.712	14912.8
614.907	14843.17
615.103	14908.7
615.298	14746.91
615.493	15017.24
615.688	14691.62
615.884	14740.77
616.079	14585.12
616.274	15031.58
616.47	14683.42
616.665	14587.17
616.86	14576.93
617.055	14685.47
617.25	14527.78
617.445	14548.26
617.641	14079.27
617.836	14312.74
618.031	14320.93
618.226	14482.72
618.421	14234.92
618.616	14296.36
618.811	14099.75
619.006	14222.63
619.201	13997.35
619.396	14083.37
619.591	13817.13
619.786	13935.92
619.981	13565.23
620.176	14007.59
620.371	13772.08
620.566	13821.23
620.761	13487.41
620.956	13716.78
621.151	13395.25
621.346	13567.28
621.541	13241.65
621.735	13409.59
621.93	13346.1
622.125	13337.91
622.32	13102.39
622.515	13069.62
622.709	13006.14
622.904	12858.68
623.099	12901.69
623.294	12686.65
623.488	12641.6
623.683	12449.09
623.878	12522.82
624.072	12389.7
624.267	12469.57
624.462	12324.16
624.656	12250.44
624.851	12035.4
625.046	12371.27
625.24	12051.78
625.435	11634
625.629	11928.91
625.824	12068.17
626.018	11965.77
626.213	11590.99
626.407	11797.84
626.602	11539.79
626.796	11507.02
626.991	11586.9
627.185	11382.1
627.38	11343.19
627.574	11347.28
627.768	11287.89
627.963	11158.87
628.157	11079
628.352	11205.97
628.546	11122.01
628.74	11003.22
628.935	11040.09
629.129	11035.99
629.323	10704.22
629.517	10806.62
629.712	10724.7
629.906	10509.66
630.1	10237.28
630.294	10437.98
630.489	10497.38
630.683	10411.36
630.877	10208.61
631.071	10274.15
631.265	10372.45
631.459	10110.31
631.653	10034.53
631.848	10069.35
632.042	10184.04
632.236	10110.31
632.43	9827.69
632.624	9825.64
632.818	9862.51
633.012	9614.7
633.206	9860.46
633.4	9600.37
633.594	9508.21
633.788	9586.03
633.982	9504.11
634.176	9741.68
634.369	9469.3
634.563	9389.42
634.757	9299.31
634.951	9209.2
635.145	9360.75
635.339	9272.69
635.533	8977.78
635.726	9188.72
635.92	8879.48
636.114	8859
636.308	8996.21
636.501	8918.39
636.695	8654.2
636.889	8754.55
637.083	8945.02
637.276	8684.92
637.47	8578.43
637.664	8510.85
637.857	8590.72
638.051	8658.3
638.244	8340.86
638.438	8713.6
638.632	8465.79
638.825	8082.82
639.019	8390.02
639.212	8381.82
639.406	8234.37
639.599	8150.4
639.793	8191.36
639.986	8121.73
640.18	8070.53
640.373	8084.87
640.567	7677.32
640.76	7902.6
640.954	7865.74
641.147	7875.98
641.34	7603.6
641.534	7701.9
641.727	7619.98
641.92	7781.77
642.114	7497.1
642.307	7665.04
642.5	7558.54
642.694	7394.7
642.887	7411.09
643.08	7456.14
643.273	7232.91
643.467	7497.1
643.66	7306.64
643.853	7191.95
644.046	7228.82
644.239	7153.04
644.432	6981.01
644.626	7142.8
644.819	7114.13
645.012	7021.97
645.205	6872.47
645.398	6874.52
645.591	6880.66
645.784	6878.62
645.977	6964.63
646.17	6835.61
646.363	6628.76
646.556	6632.86
646.749	6751.64
646.942	6847.9
647.135	6768.02
647.328	6651.29
647.521	6565.28
647.714	6602.14
647.907	6575.52
648.099	6460.83
648.292	6432.16
648.485	6518.17
648.678	6405.53
648.871	6401.44
649.064	6448.54
649.256	6442.4
649.449	6296.99
649.642	6104.48
649.835	6204.83
650.027	6041
650.22	6172.07
650.413	6084
650.605	6041
650.798	6206.88
650.991	6092.2
651.183	5903.78
651.376	5973.41
651.568	6141.35
651.761	5811.62
651.954	5875.11
652.146	5864.87
652.339	5850.53
652.531	5834.15
652.724	5725.61
652.916	5629.35
653.109	5594.54
653.301	5774.76
653.494	5627.31
653.686	5592.49
653.879	5737.9
654.071	5551.53
654.263	5604.78
654.456	5500.33
654.648	5641.64
654.84	5359.02
655.033	5512.62
655.225	5389.74
655.417	5283.25
655.61	5410.22
655.802	5307.82
655.994	5397.93
656.186	5344.69
656.379	5252.53
656.571	5346.73
656.763	5264.82
656.955	5248.43
657.148	5203.38
657.34	5232.05
657.532	5109.17
657.724	4990.39
657.916	5176.75
658.108	5107.12
658.3	5164.47
658.492	5082.55
658.684	4955.57
658.876	5078.45
659.068	4832.69
659.26	4801.97
659.452	4957.62
659.644	4945.33
659.836	4851.13
660.028	4810.17
660.22	4945.33
660.412	4767.16
660.604	4750.78
660.796	4660.66
660.988	4926.9
661.18	4765.11
661.372	4650.43
661.563	4748.73
661.755	4629.95
661.947	4670.9
662.139	4603.32
662.331	4738.49
662.522	4621.75
662.714	4554.17
662.906	4601.27
663.097	4603.32
663.289	4476.35
663.481	4462.01
663.673	4615.61
663.864	4595.13
664.056	4646.33
664.247	4470.2
664.439	4511.16
664.631	4376
664.822	4586.94
665.014	4406.72
665.205	4332.99
665.397	4302.27
665.588	4253.12
665.78	4390.33
665.971	4373.95
666.163	4494.78
666.354	4384.19
666.546	4265.41
666.737	4339.13
666.929	4212.16
667.12	4382.14
667.311	4369.85
667.503	4302.27
667.694	4310.46
667.885	4242.88
668.077	4339.13
668.268	4171.2
668.459	4240.83
668.651	4244.93
668.842	4203.97
669.033	4171.2
669.224	4236.74
669.416	4298.17
669.607	4079.04
669.798	4191.68
669.989	4228.54
670.18	4226.5
670.371	4326.85
670.563	4181.44
670.754	4277.69
670.945	4181.44
671.136	4281.79
671.327	4195.78
671.518	4185.54
671.709	4203.97
671.9	4251.07
672.091	4167.1
672.282	4193.73
672.473	4150.72
672.664	4171.2
672.855	4271.55
673.046	4206.02
673.237	4312.51
673.428	4249.02
673.619	4234.69
673.809	4232.64
674	4193.73
674.191	4373.95
674.382	4253.12
674.573	4255.17
674.764	4251.07
674.954	4351.42
675.145	4267.45
675.336	4302.27
675.527	4249.02
675.717	4382.14
675.908	4177.34
676.099	4302.27
676.289	4339.13
676.48	4277.69
676.671	4363.71
676.861	4398.52
677.052	4322.75
677.243	4169.15
677.433	4287.93
677.624	4361.66
677.814	4476.35
678.005	4496.83
678.195	4457.92
678.386	4464.06
678.576	4480.44
678.767	4396.48
678.957	4322.75
679.148	4402.62
679.338	4591.03
679.529	4541.88
679.719	4502.97
679.909	4646.33
680.1	4597.18
680.29	4597.18
680.481	4588.99
680.671	4677.05
680.861	4556.22
681.052	4693.43
681.242	4623.8
681.432	4691.38
681.622	4713.91
681.813	4644.28
682.003	4675
682.193	4656.57
682.383	4742.58
682.573	4711.86
682.764	4693.43
682.954	4875.7
683.144	4685.24
683.334	4861.37
683.524	4756.92
683.714	4949.43
683.904	4744.63
684.094	4795.83
684.284	4773.3
684.474	4879.8
684.664	4961.72
684.854	4824.5
685.044	4685.24
685.234	4687.29
685.424	4824.5
685.614	4578.75
685.804	4820.41
685.994	4750.78
686.184	4816.31
686.374	4892.09
686.564	4666.81
686.753	4652.47
686.943	4695.48
687.133	4597.18
687.323	4670.9
687.513	4672.95
687.702	4713.91
687.892	4763.06
688.082	4578.75
688.272	4771.26
688.461	4584.89
688.651	4552.12
688.841	4408.76
689.03	4560.31
689.22	4533.69
689.41	4457.92
689.599	4488.64
689.789	4376
689.979	4470.2
690.168	4244.93
690.358	4531.64
690.547	4345.28
690.737	4361.66
690.926	4308.41
691.116	4261.31
691.305	4228.54
691.495	4255.17
691.684	4265.41
691.874	4148.67
692.063	4216.26
692.252	4257.22
692.442	4206.02
692.631	3882.44
692.82	4214.21
693.01	4142.53
693.199	4046.27
693.388	4011.46
693.578	3958.21
693.767	3974.6
693.956	3876.29
694.146	3900.87
694.335	3878.34
694.524	3833.29
694.713	3964.36
694.902	3823.05
695.092	3831.24
695.281	3929.54
695.47	3872.2
695.659	3898.82
695.848	3808.71
696.037	3734.98
696.226	3767.75
696.415	3802.57
696.604	3818.95
696.793	3777.99
696.982	3741.13
697.171	3874.24
697.36	3800.52
697.549	3728.84
697.738	3646.92
697.927	3546.57
698.116	3726.79
698.305	3573.19
698.494	3642.82
698.683	3732.94
698.872	3792.33
699.061	3712.46
699.25	3714.5
699.438	3704.26
699.627	3761.61
699.816	3718.6
700.005	3587.53
700.193	3792.33
700.382	3673.54
700.571	3577.29
700.76	3687.88
700.948	3698.12
701.137	3718.6
701.326	3704.26
701.514	3663.3
701.703	3599.82
701.892	3663.3
702.08	3732.94
702.269	3870.15
702.457	3675.59
702.646	3698.12
702.834	3669.45
703.023	3560.91
703.212	3812.81
703.4	3714.5
703.589	3671.5
703.777	3732.94
703.965	3694.02
704.154	3583.43
704.342	3911.11
704.531	3798.47
704.719	3784.13
704.907	3777.99
705.096	3777.99
705.284	3771.85
705.472	3868.1
705.661	3886.53
705.849	3821
706.037	3831.24
706.226	3876.29
706.414	3784.13
706.602	3909.06
706.79	3839.43
706.979	3859.91
707.167	3907.01
707.355	3984.84
707.543	3917.25
707.731	3997.12
707.919	3900.87
708.107	3884.48
708.296	3972.55
708.484	3884.48
708.672	4062.66
708.86	4126.15
709.048	3978.69
709.236	4042.18
709.424	3972.55
709.612	4117.95
709.8	3999.17
709.988	4068.8
710.176	4138.43
710.364	4212.16
710.551	4085.19
710.739	4140.48
710.927	4283.84
711.115	4163.01
711.303	4361.66
711.491	4265.41
711.679	4294.08
711.866	4357.57
712.054	4261.31
712.242	4308.41
712.43	4560.31
712.617	4193.73
712.805	4316.61
712.993	4437.44
713.181	4402.62
713.368	4388.29
713.556	4396.48
713.744	4345.28
713.931	4572.6
714.119	4470.2
714.306	4466.11
714.494	4513.21
714.682	4568.51
714.869	4457.92
715.057	4666.81
715.244	4603.32
715.432	4728.25
715.619	4507.07
715.807	4715.96
715.994	4787.64
716.182	4646.33
716.369	4814.26
716.556	4832.69
716.744	4629.95
716.931	4900.28
717.119	4734.39
717.306	4797.88
717.493	4799.93
717.681	4830.65
717.868	4824.5
718.055	4810.17
718.242	4967.86
718.43	4867.51
718.617	5146.03
718.804	4969.91
718.991	5025.2
719.179	4941.24
719.366	5070.26
719.553	4926.9
719.74	5002.68
719.927	5060.02
720.114	5062.07
720.301	5051.83
720.488	5084.59
720.676	5137.84
720.863	5221.81
721.05	5260.72
721.237	5133.75
721.424	5342.64
721.611	5256.62
721.798	5234.1
721.985	5375.41
722.172	5137.84
722.358	5244.34
722.545	5424.56
722.732	5289.39
722.919	5379.5
723.106	5295.54
723.293	5494.19
723.48	5385.65
723.667	5305.78
723.853	5406.13
724.04	5424.56
724.227	5617.07
724.414	5389.74
724.6	5559.72
724.787	5440.94
724.974	5567.92
725.161	5596.59
725.347	5395.89
725.534	5707.18
725.72	5518.76
725.907	5561.77
726.094	5707.18
726.28	5674.41
726.467	5567.92
726.653	5627.31
726.84	5645.74
727.027	5692.84
727.213	5596.59
727.4	5588.39
727.586	5694.89
727.773	5819.82
727.959	5672.36
728.145	5701.03
728.332	5766.57
728.518	5703.08
728.705	5881.25
728.891	5858.73
729.077	5688.75
729.264	5895.59
729.45	5838.25
729.636	5930.41
729.823	5678.51
730.009	5893.54
730.195	6094.24
730.382	6038.95
730.568	6047.14
730.754	5950.89
730.94	5862.82
731.126	6141.35
731.313	5965.22
731.499	6008.23
731.685	6069.67
731.871	6000.04
732.057	5969.32
732.243	6045.09
732.429	5965.22
732.615	6194.59
732.801	5985.7
732.987	5987.75
733.173	6145.44
733.359	6057.38
733.545	5952.93
733.731	6067.62
733.917	6047.14
734.103	6036.9
734.289	6045.09
734.475	6063.52
734.661	6092.2
734.847	6098.34
735.033	6129.06
735.219	6198.69
735.404	6233.5
735.59	5944.74
735.776	6055.33
735.962	6030.76
736.148	6239.65
736.333	6282.66
736.519	6053.28
736.705	6247.84
736.89	6194.59
737.076	6364.57
737.262	6122.91
737.447	6112.67
737.633	6241.7
737.819	6192.55
738.004	6106.53
738.19	6061.48
738.375	5997.99
738.561	6088.1
738.747	6163.87
738.932	6084
739.118	6129.06
739.303	6063.52
739.489	6104.48
739.674	6045.09
739.859	6022.56
740.045	5938.6
740.23	5989.8
740.416	5920.17
740.601	6047.14
740.786	5920.17
740.972	5911.97
741.157	5932.45
741.342	5895.59
741.528	5911.97
741.713	5772.71
741.898	5957.03
742.084	5963.17
742.269	5965.22
742.454	5895.59
742.639	5977.51
742.824	5744.04
743.01	5793.19
743.195	5866.92
743.38	5768.62
743.565	5828.01
743.75	5723.56
743.935	5795.24
744.12	5703.08
744.305	5645.74
744.49	5619.11
744.675	5655.98
744.86	5660.07
745.045	5617.07
745.23	5598.63
745.415	5469.61
745.6	5678.51
745.785	5408.17
745.97	5430.7
746.155	5490.09
746.34	5471.66
746.525	5254.58
746.71	5496.24
746.895	5092.79
747.079	5422.51
747.264	5170.61
747.449	5248.43
747.634	5199.28
747.819	5342.64
748.003	5217.71
748.188	5021.11
748.373	5078.45
748.557	5158.32
748.742	5092.79
748.927	4974
749.111	4959.67
749.296	4879.8
749.481	4937.14
749.665	4818.36
749.85	4744.63
750.034	4787.64
750.219	4617.66
750.404	4787.64
750.588	4730.3
750.773	4666.81
750.957	4629.95
751.141	4613.56
751.326	4490.68
751.51	4625.85
751.695	4578.75
751.879	4443.58
752.064	4500.92
752.248	4412.86
752.432	4414.91
752.617	4380.09
752.801	4261.31
752.985	4330.94
753.17	4396.48
753.354	4265.41
753.538	4242.88
753.722	4234.69
753.907	4107.71
754.091	4177.34
754.275	3980.74
754.459	4021.7
754.643	4070.85
754.828	3974.6
755.012	3929.54
755.196	3915.2
755.38	3796.42
755.564	3786.18
755.748	3737.03
755.932	3851.72
756.116	3843.53
756.3	3868.1
756.484	3771.85
756.668	3823.05
756.852	3732.94
757.036	3683.78
757.22	3679.69
757.404	3519.95
757.588	3442.12
757.772	3601.87
757.956	3585.48
758.14	3528.14
758.323	3315.15
758.507	3507.66
758.691	3515.85
758.875	3419.6
759.059	3458.51
759.242	3380.68
759.426	3380.68
759.61	3356.11
759.794	3352.01
759.977	3315.15
760.161	3343.82
760.345	3280.33
760.528	3352.01
760.712	3286.48
760.895	3173.84
761.079	3177.94
761.263	3114.45
761.446	3061.2
761.63	3130.83
761.813	3075.54
761.997	3077.59
762.18	3024.34
762.364	2993.62
762.547	2948.56
762.731	3081.68
762.914	3055.06
763.098	2903.51
763.281	2901.46
763.464	2983.38
763.648	2966.99
763.831	2975.19
764.015	2901.46
764.198	2891.22
764.381	2926.04
764.564	2885.08
764.748	2864.6
764.931	2737.62
765.114	2745.81
765.297	2727.38
765.481	2794.97
765.664	2680.28
765.847	2776.53
766.03	2635.22
766.213	2760.15
766.397	2624.98
766.58	2682.33
766.763	2801.11
766.946	2643.42
767.129	2596.31
767.312	2483.67
767.495	2512.35
767.678	2481.63
767.861	2495.96
768.044	2541.02
768.227	2627.03
768.41	2477.53
768.593	2418.14
768.776	2467.29
768.959	2414.04
769.142	2487.77
769.324	2477.53
769.507	2467.29
769.69	2387.42
769.873	2276.83
770.056	2450.91
770.239	2442.71
770.421	2399.71
770.604	2346.46
770.787	2270.69
770.97	2332.12
771.152	2188.77
771.335	2401.76
771.518	2151.9
771.7	2313.69
771.883	2270.69
772.066	2242.01
772.248	2293.21
772.431	2209.25
772.613	2227.68
772.796	2176.48
772.978	2274.78
773.161	2276.83
773.343	2106.85
773.526	2135.52
773.708	2102.75
773.891	2029.03
774.073	2008.55
774.256	2084.32
774.438	2086.37
774.621	2104.8
774.803	2020.83
774.985	1955.3
775.168	2098.66
775.35	1949.15
775.532	1975.78
775.715	1885.67
775.897	1981.92
776.079	1945.06
776.261	1932.77
776.444	1850.85
776.626	1844.71
776.808	1902.05
776.99	1719.78
777.173	1840.61
777.355	1766.89
777.537	1848.8
777.719	1766.89
777.901	1730.02
778.083	1684.97
778.265	1701.35
778.447	1689.06
778.629	1633.77
778.811	1799.65
778.993	1637.86
779.175	1613.29
779.357	1705.45
779.539	1639.91
779.721	1656.29
779.903	1564.14
780.085	1560.04
780.267	1492.46
780.449	1572.33
780.631	1598.95
780.812	1615.34
780.994	1508.84
781.176	1463.79
781.358	1492.46
781.54	1408.49
781.721	1381.87
781.903	1394.15
782.085	1392.11
782.267	1533.42
782.448	1459.69
782.63	1383.91
782.812	1385.96
782.993	1406.44
783.175	1293.8
783.357	1293.8
783.538	1324.52
783.72	1252.84
783.901	1316.33
784.083	1390.06
784.264	1416.68
784.446	1250.8
784.627	1242.61
784.809	1373.68
784.99	1234.41
785.172	1279.47
785.353	1250.8
785.535	1164.78
785.716	1170.93
785.897	1277.42
786.079	1175.02
786.26	1172.97
786.441	1125.87
786.623	1084.91
786.804	1017.33
786.985	1064.43
787.167	1107.44
787.348	1150.45
787.529	1099.25
787.71	1105.39
787.891	1017.33
788.073	1117.68
788.254	947.7
788.435	1127.92
788.616	1166.83
788.797	955.89
788.978	1027.57
789.159	1025.52
789.34	982.51
789.522	976.37
789.703	910.83
789.884	970.23
790.065	890.35
790.246	1035.76
790.427	955.89
790.607	1009.14
790.788	1013.23
790.969	910.83
791.15	1011.18
791.331	968.18
791.512	888.31
791.693	943.6
791.874	978.42
792.054	919.03
792.235	972.27
792.416	806.39
792.597	837.11
792.778	912.88
792.958	898.55
793.139	814.58
793.32	908.79
793.5	790
793.681	857.59
793.862	849.4
794.042	828.92
794.223	792.05
794.404	818.68
794.584	779.76
794.765	747
794.945	810.48
795.126	816.63
795.306	812.53
795.487	701.94
795.667	837.11
795.848	800.24
796.028	734.71
796.209	742.9
796.389	749.04
796.57	769.52
796.75	654.84
796.93	753.14
797.111	794.1
797.291	765.43
797.471	677.37
797.652	726.52
797.832	712.18
798.012	689.65
798.192	720.37
798.373	689.65
798.553	710.13
798.733	706.04
798.913	665.08
799.093	642.55
799.274	697.85
799.454	652.79
799.634	794.1
799.814	656.89
799.994	620.02
800.174	677.37
800.354	689.65
800.534	615.93
800.714	638.45
800.894	581.11
801.074	632.31
801.254	622.07
801.434	697.85
801.614	570.87
801.794	562.68
801.974	1308.14
802.154	587.26
802.334	658.93
802.514	656.89
802.693	521.72
802.873	595.45
803.053	634.36
803.233	648.69
803.413	701.94
803.592	531.96
803.772	505.34
803.952	603.64
804.131	540.15
804.311	536.06
804.491	581.11
804.67	595.45
804.85	517.62
805.03	542.2
805.209	601.59
805.389	493.05
805.568	515.58
805.748	572.92
805.928	579.06
806.107	554.49
806.287	554.49
806.466	593.4
806.646	515.58
806.825	531.96
807.004	554.49
807.184	564.73
807.363	507.38
807.543	577.02
807.722	433.66
807.901	534.01
808.081	464.38
808.26	402.94
808.439	552.44
808.619	493.05
808.798	505.34
808.977	480.76
809.156	476.66
809.336	525.82
809.515	491
809.694	372.22
809.873	480.76
810.052	488.95
810.231	409.08
810.411	474.62
810.59	464.38
810.769	427.51
810.948	454.14
811.127	413.18
811.306	445.95
811.485	458.23
811.664	499.19
811.843	378.36
812.022	359.93
812.201	325.12
812.38	462.33
812.559	390.65
812.737	450.04
812.916	411.13
813.095	433.66
813.274	286.2
813.453	359.93
813.632	378.36
813.811	538.1
813.989	417.27
814.168	368.12
814.347	364.03
814.526	425.47
814.704	415.23
814.883	534.01
815.062	302.59
815.24	380.41
815.419	263.68
815.598	374.27
815.776	400.89
815.955	341.5
816.133	321.02
816.312	374.27
816.49	296.44
816.669	435.71
816.847	415.23
817.026	476.66
817.204	337.4
817.383	417.27
817.561	321.02
817.74	400.89
817.918	361.98
818.097	386.55
818.275	353.79
818.453	308.73
818.632	409.08
818.81	382.46
818.988	296.44
819.167	302.59
819.345	318.97
819.523	288.25
819.701	378.36
819.879	321.02
820.058	292.35
820.236	409.08
820.414	382.46
820.592	304.64
820.77	290.3
820.948	230.91
821.127	343.55
821.305	366.07
821.483	278.01
821.661	337.4
821.839	347.64
822.017	341.5
822.195	351.74
822.373	390.65
822.551	294.4
822.729	294.4
822.907	300.54
823.085	312.83
823.262	349.69
823.44	337.4
823.618	318.97
823.796	271.87
823.974	325.12
824.152	251.39
824.329	216.57
824.507	304.64
824.685	312.83
824.863	280.06
825.04	310.78
825.218	189.95
825.396	259.58
825.574	284.16
825.751	286.2
825.929	263.68
826.107	261.63
826.284	239.1
826.462	245.24
826.639	142.85
826.817	239.1
826.994	263.68
827.172	142.85
827.349	261.63
827.527	292.35
827.704	259.58
827.882	290.3
828.059	333.31
828.237	282.11
828.414	296.44
828.591	173.57
828.769	206.33
828.946	273.92
829.124	288.25
829.301	222.72
829.478	263.68
829.655	210.43
829.833	304.64
830.01	214.52
830.187	239.1
830.364	116.22
830.542	251.39
830.719	235
830.896	185.85
831.073	171.52
831.25	255.48
831.427	230.91
831.604	226.81
831.782	198.14
831.959	220.67
832.136	194.05
832.313	308.73
832.49	153.09
832.667	235
832.844	132.61
833.021	271.87
833.198	210.43
833.374	204.28
833.551	157.18
833.728	239.1
833.905	222.72
834.082	251.39
834.259	216.57
834.436	214.52
834.612	116.22
834.789	263.68
834.966	198.14
835.143	155.13
835.319	144.89
835.496	239.1
835.673	171.52
835.85	181.76
836.026	132.61
836.203	163.33
836.38	171.52
836.556	177.66
836.733	161.28
836.909	208.38
837.086	83.45
837.262	91.65
837.439	189.95
837.616	138.75
837.792	112.13
837.968	194.05
838.145	181.76
838.321	208.38
838.498	105.98
838.674	239.1
838.851	187.9
839.027	179.71
839.203	235
839.38	185.85
839.556	101.89
839.732	189.95
839.909	140.8
840.085	108.03
840.261	183.81
840.437	181.76
840.614	167.42
840.79	167.42
840.966	161.28
841.142	161.28
841.318	132.61
841.494	247.29
841.671	122.37
841.847	157.18
842.023	132.61
842.199	235
842.375	202.24
842.551	97.79
842.727	196.09
842.903	165.37
843.079	99.84
843.255	247.29
843.431	97.79
843.607	148.99
843.783	136.7
843.959	153.09
844.134	179.71
844.31	214.52
844.486	38.4
844.662	95.74
844.838	161.28
845.013	179.71
845.189	126.46
845.365	157.18
845.541	155.13
845.716	140.8
845.892	120.32
846.068	122.37
846.244	26.11
846.419	165.37
846.595	130.56
846.77	144.89
846.946	130.56
847.122	67.07
847.297	163.33
847.473	116.22
847.648	32.26
847.824	114.17
847.999	30.21
848.175	81.41
848.35	95.74
848.526	157.18
848.701	202.24
848.876	89.6
849.052	194.05
849.227	183.81
849.403	34.3
849.578	108.03
849.753	73.21
849.929	206.33
850.104	83.45
850.279	77.31
850.454	95.74
850.63	130.56
850.805	146.94
850.98	116.22
851.155	67.07
851.33	95.74
851.505	-6.66
851.681	99.84
851.856	30.21
852.031	120.32
852.206	132.61
852.381	65.02
852.556	48.64
852.731	120.32
852.906	22.02
853.081	40.45
853.256	126.46
853.431	103.93
853.606	42.5
853.781	36.35
853.956	132.61
854.131	36.35
854.305	140.8
854.48	101.89
854.655	42.5
854.83	83.45
855.005	85.5
855.18	120.32
855.354	124.41
855.529	146.94
855.704	22.02
855.879	142.85
856.053	58.88
856.228	44.54
856.403	-14.85
856.577	165.37
856.752	138.75
856.926	77.31
857.101	99.84
857.276	67.07
857.45	99.84
857.625	179.71
857.799	89.6
857.974	132.61
858.148	58.88
858.323	140.8
858.497	67.07
858.672	50.69
858.846	-25.09
859.02	48.64
859.195	24.06
859.369	50.69
859.543	22.02
859.718	148.99
859.892	108.03
860.066	173.57
860.241	42.5
860.415	56.83
860.589	58.88
860.763	54.78
860.938	75.26
861.112	97.79
861.286	26.11
861.46	24.06
861.634	-6.66
861.808	124.41
861.982	105.98
862.157	38.4
862.331	75.26
862.505	50.69
862.679	32.26
862.853	67.07
863.027	75.26
863.201	48.64
863.375	46.59
863.549	124.41
863.722	44.54
863.896	114.17
864.07	75.26
864.244	73.21
864.418	69.12
864.592	183.81
864.766	116.22
864.939	17.92
865.113	48.64
865.287	142.85
865.461	-4.61
865.634	34.3
865.808	34.3
865.982	40.45
866.156	81.41
866.329	54.78
866.503	93.69
866.676	89.6
866.85	17.92
867.024	44.54
867.197	144.89
867.371	97.79
867.544	-6.66
867.718	-33.28
867.891	116.22
868.065	40.45
868.238	52.74
868.412	81.41
868.585	97.79
868.759	67.07
868.932	26.11
869.105	-0.51
869.279	79.36
869.452	26.11
869.625	40.45
869.799	116.22
869.972	7.68
870.145	48.64
870.319	44.54
870.492	-2.56
870.665	9.73
870.838	65.02
871.011	-4.61
871.185	62.98
871.358	-31.23
871.531	54.78
871.704	26.11
871.877	56.83
872.05	56.83
872.223	58.88
872.396	9.73
872.569	58.88
872.742	7.68
872.915	132.61
873.088	48.64
873.261	1.54
873.434	73.21
873.607	15.87
873.78	58.88
873.953	91.65
874.126	48.64
874.299	-10.75
874.471	34.3
874.644	52.74
874.817	58.88
874.99	122.37
875.163	83.45
875.335	36.35
875.508	56.83
875.681	138.75
875.853	19.97
876.026	67.07
876.199	67.07
876.371	36.35
876.544	17.92
876.717	75.26
876.889	1.54
877.062	67.07
877.234	9.73
877.407	13.82
877.579	58.88
877.752	42.5
877.924	83.45
878.097	17.92
878.269	85.5
878.442	13.82
878.614	83.45
878.786	65.02
878.959	58.88
879.131	7.68
879.303	-23.04
879.476	-6.66
879.648	50.69
879.82	58.88
879.993	-27.14
880.165	56.83
880.337	17.92
880.509	89.6
880.681	30.21
880.854	105.98
881.026	40.45
881.198	167.42
881.37	75.26
881.542	75.26
881.714	54.78
881.886	-47.62
882.058	58.88
882.23	-8.7
882.402	52.74
882.574	77.31
882.746	67.07
882.918	77.31
883.09	81.41
883.262	48.64
883.434	1.54
883.606	-27.14
883.778	75.26
883.95	85.5
884.122	-23.04
884.293	112.13
884.465	38.4
884.637	22.02
884.809	15.87
884.98	30.21
885.152	124.41
885.324	11.78
885.496	13.82
885.667	34.3
885.839	-14.85
886.011	118.27
886.182	9.73
886.354	65.02
886.525	32.26
886.697	116.22
886.869	56.83
887.04	-27.14
887.212	50.69
887.383	116.22
887.555	54.78
887.726	67.07
887.897	-0.51
888.069	71.17
888.24	56.83
888.412	34.3
888.583	-31.23
888.754	-8.7
888.926	-55.81
889.097	24.06
889.268	-14.85
889.44	17.92
889.611	-84.48
889.782	-31.23
889.953	30.21
890.125	1.54
890.296	-53.76
890.467	34.3
890.638	5.63
890.809	-27.14
890.98	17.92
891.151	24.06
891.323	65.02
891.494	34.3
891.665	-8.7
891.836	1.54
892.007	77.31
892.178	58.88
892.349	13.82
892.52	-4.61
892.691	38.4
892.862	-2.56
893.032	1.54
893.203	-31.23
893.374	-10.75
893.545	75.26
893.716	5.63
893.887	93.69
894.057	15.87
894.228	108.03
894.399	46.59
894.57	52.74
894.74	62.98
894.911	79.36
895.082	-45.57
895.253	26.11
895.423	26.11
895.594	58.88
895.764	26.11
895.935	3.58
896.106	3.58
896.276	32.26
896.447	67.07
896.617	30.21
896.788	46.59
896.958	17.92
897.129	13.82
897.299	36.35
897.47	32.26
897.64	-0.51
897.81	56.83
897.981	1.54
898.151	32.26
898.322	73.21
898.492	101.89
898.662	-14.85
898.832	15.87
899.003	-2.56
899.173	26.11
899.343	3.58
899.513	-27.14
