Data from USB4F104151__87__11-32-01-702.txt Node

Date: Fri Mar 14 11:32:01 EDT 2025
User: louis
Spectrometer: USB4F10415
Trigger mode: 4
Integration Time (sec): 5.000000E-2
Scans to average: 1
Electric dark correction enabled: true
Nonlinearity correction enabled: false
Boxcar width: 0
XAxis mode: Wavelengths
Number of Pixels in Spectrum: 3648
>>>>>Begin Spectral Data<<<<<
178.204	-152.23
178.424	-152.23
178.644	-152.23
178.864	-105.13
179.084	-170.66
179.304	-101.03
179.524	36.18
179.744	-45.74
179.964	5.46
180.184	27.99
180.404	40.28
180.624	-21.16
180.844	3.41
181.064	75.09
181.283	9.56
181.503	-33.45
181.723	3.41
181.943	-29.35
182.163	97.62
182.383	-15.02
182.602	42.32
182.822	118.1
183.042	44.37
183.262	89.43
183.482	19.8
183.701	30.04
183.921	42.32
184.141	25.94
184.361	134.48
184.58	85.33
184.8	64.85
185.02	136.53
185.239	71
185.459	73.04
185.679	101.72
185.898	11.61
186.118	97.62
186.338	116.05
186.557	91.48
186.777	60.76
186.997	60.76
187.216	7.51
187.436	157.01
187.655	73.04
187.875	56.66
188.095	15.7
188.314	52.56
188.534	120.15
188.753	-45.74
188.973	99.67
189.192	9.56
189.412	11.61
189.631	91.48
189.851	-10.92
190.07	83.28
190.29	-41.64
190.509	60.76
190.729	75.09
190.948	64.85
191.168	167.25
191.387	44.37
191.607	23.89
191.826	-8.87
192.045	75.09
192.265	42.32
192.484	36.18
192.704	93.52
192.923	1.37
193.142	120.15
193.362	50.52
193.581	85.33
193.8	116.05
194.02	85.33
194.239	23.89
194.458	27.99
194.678	73.04
194.897	107.86
195.116	109.91
195.335	50.52
195.555	91.48
195.774	7.51
195.993	11.61
196.212	30.04
196.432	89.43
196.651	40.28
196.87	-4.78
197.089	77.14
197.308	30.04
197.528	66.9
197.747	36.18
197.966	-6.83
198.185	173.39
198.404	52.56
198.623	3.41
198.842	89.43
199.062	101.72
199.281	77.14
199.5	5.46
199.719	58.71
199.938	60.76
200.157	62.8
200.376	60.76
200.595	32.08
200.814	52.56
201.033	-66.22
201.252	56.66
201.471	109.91
201.69	109.91
201.909	44.37
202.128	52.56
202.347	126.29
202.566	81.24
202.785	21.85
203.004	52.56
203.223	197.97
203.442	-25.26
203.661	-12.97
203.879	126.29
204.098	116.05
204.317	-8.87
204.536	136.53
204.755	89.43
204.974	-29.35
205.193	44.37
205.411	212.31
205.63	32.08
205.849	44.37
206.068	75.09
206.287	21.85
206.505	79.19
206.724	77.14
206.943	52.56
207.162	56.66
207.381	64.85
207.599	66.9
207.818	75.09
208.037	56.66
208.255	36.18
208.474	60.76
208.693	9.56
208.911	58.71
209.13	79.19
209.349	38.23
209.567	-8.87
209.786	73.04
210.005	114
210.223	-4.78
210.442	-35.5
210.661	44.37
210.879	52.56
211.098	122.2
211.316	50.52
211.535	116.05
211.753	81.24
211.972	56.66
212.191	142.68
212.409	128.34
212.628	7.51
212.846	44.37
213.065	-12.97
213.283	32.08
213.502	38.23
213.72	25.94
213.938	1.37
214.157	-8.87
214.375	75.09
214.594	11.61
214.812	68.95
215.031	44.37
215.249	44.37
215.467	-6.83
215.686	11.61
215.904	126.29
216.122	36.18
216.341	36.18
216.559	109.91
216.778	95.57
216.996	81.24
217.214	73.04
217.432	11.61
217.651	3.41
217.869	107.86
218.087	36.18
218.306	-2.73
218.524	-0.68
218.742	19.8
218.96	19.8
219.179	48.47
219.397	111.96
219.615	134.48
219.833	79.19
220.051	48.47
220.27	44.37
220.488	66.9
220.706	-0.68
220.924	-15.02
221.142	91.48
221.36	-21.16
221.578	-31.4
221.796	71
222.015	101.72
222.233	99.67
222.451	89.43
222.669	1.37
222.887	50.52
223.105	17.75
223.323	32.08
223.541	-4.78
223.759	56.66
223.977	146.77
224.195	111.96
224.413	89.43
224.631	91.48
224.849	134.48
225.067	101.72
225.285	-29.35
225.503	-31.4
225.721	11.61
225.939	36.18
226.157	19.8
226.375	146.77
226.592	60.76
226.81	58.71
227.028	81.24
227.246	114
227.464	54.61
227.682	89.43
227.9	101.72
228.117	9.56
228.335	54.61
228.553	91.48
228.771	32.08
228.989	32.08
229.206	68.95
229.424	111.96
229.642	-4.78
229.86	-37.55
230.077	114
230.295	81.24
230.513	89.43
230.731	103.76
230.948	66.9
231.166	89.43
231.384	5.46
231.601	42.32
231.819	140.63
232.037	38.23
232.254	-43.69
232.472	99.67
232.689	77.14
232.907	101.72
233.125	60.76
233.342	27.99
233.56	9.56
233.777	19.8
233.995	21.85
234.213	36.18
234.43	118.1
234.648	1.37
234.865	44.37
235.083	116.05
235.3	50.52
235.518	17.75
235.735	42.32
235.953	134.48
236.17	11.61
236.388	-29.35
236.605	19.8
236.822	111.96
237.04	15.7
237.257	-15.02
237.475	21.85
237.692	85.33
237.909	44.37
238.127	48.47
238.344	109.91
238.562	73.04
238.779	68.95
238.996	-17.07
239.214	27.99
239.431	56.66
239.648	25.94
239.865	101.72
240.083	109.91
240.3	93.52
240.517	3.41
240.735	3.41
240.952	107.86
241.169	52.56
241.386	58.71
241.603	3.41
241.821	15.7
242.038	75.09
242.255	9.56
242.472	111.96
242.689	93.52
242.907	11.61
243.124	62.8
243.341	40.28
243.558	36.18
243.775	11.61
243.992	66.9
244.209	9.56
244.426	154.96
244.643	75.09
244.86	5.46
245.078	48.47
245.295	1.37
245.512	75.09
245.729	21.85
245.946	48.47
246.163	107.86
246.38	66.9
246.597	11.61
246.814	66.9
247.031	56.66
247.248	89.43
247.464	36.18
247.681	17.75
247.898	-8.87
248.115	56.66
248.332	-31.4
248.549	163.15
248.766	105.81
248.983	62.8
249.2	36.18
249.417	126.29
249.633	64.85
249.85	36.18
250.067	27.99
250.284	25.94
250.501	44.37
250.717	77.14
250.934	-19.11
251.151	54.61
251.368	38.23
251.585	11.61
251.801	11.61
252.018	-8.87
252.235	58.71
252.451	48.47
252.668	62.8
252.885	81.24
253.102	36.18
253.318	42.32
253.535	44.37
253.752	27.99
253.968	44.37
254.185	-29.35
254.401	21.85
254.618	83.28
254.835	15.7
255.051	130.39
255.268	30.04
255.484	68.95
255.701	66.9
255.917	50.52
256.134	27.99
256.351	15.7
256.567	95.57
256.784	73.04
257	-12.97
257.217	126.29
257.433	97.62
257.65	48.47
257.866	109.91
258.082	89.43
258.299	34.13
258.515	89.43
258.732	30.04
258.948	99.67
259.165	77.14
259.381	50.52
259.597	101.72
259.814	-15.02
260.03	44.37
260.246	-8.87
260.463	-37.55
260.679	11.61
260.895	38.23
261.112	58.71
261.328	19.8
261.544	71
261.761	136.53
261.977	1.37
262.193	-23.21
262.409	9.56
262.626	75.09
262.842	58.71
263.058	44.37
263.274	109.91
263.49	66.9
263.707	132.44
263.923	52.56
264.139	5.46
264.355	60.76
264.571	159.06
264.787	60.76
265.004	97.62
265.22	68.95
265.436	46.42
265.652	3.41
265.868	36.18
266.084	27.99
266.3	60.76
266.516	-17.07
266.732	42.32
266.948	68.95
267.164	11.61
267.38	89.43
267.596	30.04
267.812	60.76
268.028	60.76
268.244	-8.87
268.46	50.52
268.676	11.61
268.892	36.18
269.108	-6.83
269.324	11.61
269.54	34.13
269.756	132.44
269.972	52.56
270.188	48.47
270.403	36.18
270.619	27.99
270.835	154.96
271.051	58.71
271.267	3.41
271.483	46.42
271.698	48.47
271.914	56.66
272.13	56.66
272.346	11.61
272.562	73.04
272.777	89.43
272.993	58.71
273.209	21.85
273.425	44.37
273.64	50.52
273.856	109.91
274.072	7.51
274.287	1.37
274.503	19.8
274.719	-12.97
274.934	11.61
275.15	77.14
275.366	87.38
275.581	-72.36
275.797	109.91
276.012	36.18
276.228	11.61
276.444	44.37
276.659	52.56
276.875	-12.97
277.09	109.91
277.306	-82.6
277.521	83.28
277.737	79.19
277.952	64.85
278.168	83.28
278.383	21.85
278.599	85.33
278.814	116.05
279.03	75.09
279.245	56.66
279.461	58.71
279.676	-25.26
279.892	54.61
280.107	15.7
280.322	40.28
280.538	99.67
280.753	44.37
280.969	52.56
281.184	27.99
281.399	136.53
281.615	-4.78
281.83	64.85
282.045	25.94
282.26	-64.17
282.476	48.47
282.691	9.56
282.906	77.14
283.122	44.37
283.337	38.23
283.552	128.34
283.767	-0.68
283.983	89.43
284.198	68.95
284.413	60.76
284.628	97.62
284.843	77.14
285.058	85.33
285.274	17.75
285.489	21.85
285.704	60.76
285.919	50.52
286.134	89.43
286.349	66.9
286.564	48.47
286.779	73.04
286.995	11.61
287.21	-35.5
287.425	64.85
287.64	109.91
287.855	95.57
288.07	25.94
288.285	40.28
288.5	116.05
288.715	157.01
288.93	120.15
289.145	-15.02
289.36	93.52
289.575	21.85
289.79	3.41
290.004	68.95
290.219	142.68
290.434	52.56
290.649	85.33
290.864	-15.02
291.079	40.28
291.294	46.42
291.509	23.89
291.724	66.9
291.938	25.94
292.153	71
292.368	19.8
292.583	-21.16
292.798	23.89
293.012	54.61
293.227	83.28
293.442	36.18
293.657	81.24
293.871	140.63
294.086	21.85
294.301	91.48
294.516	52.56
294.73	97.62
294.945	85.33
295.16	64.85
295.374	73.04
295.589	118.1
295.804	-15.02
296.018	60.76
296.233	114
296.447	30.04
296.662	81.24
296.877	56.66
297.091	111.96
297.306	38.23
297.52	83.28
297.735	25.94
297.949	85.33
298.164	48.47
298.378	56.66
298.593	52.56
298.807	52.56
299.022	23.89
299.236	25.94
299.451	52.56
299.665	11.61
299.88	1.37
300.094	148.82
300.309	52.56
300.523	7.51
300.737	3.41
300.952	-15.02
301.166	15.7
301.381	62.8
301.595	75.09
301.809	68.95
302.024	68.95
302.238	27.99
302.452	109.91
302.667	105.81
302.881	122.2
303.095	38.23
303.309	73.04
303.524	5.46
303.738	64.85
303.952	-25.26
304.166	32.08
304.381	79.19
304.595	52.56
304.809	44.37
305.023	68.95
305.237	-6.83
305.452	52.56
305.666	83.28
305.88	97.62
306.094	60.76
306.308	19.8
306.522	75.09
306.736	54.61
306.95	11.61
307.164	34.13
307.379	21.85
307.593	83.28
307.807	140.63
308.021	105.81
308.235	1.37
308.449	7.51
308.663	99.67
308.877	128.34
309.091	62.8
309.305	-4.78
309.519	-15.02
309.733	130.39
309.947	-17.07
310.161	114
310.374	93.52
310.588	99.67
310.802	3.41
311.016	21.85
311.23	30.04
311.444	85.33
311.658	54.61
311.872	128.34
312.085	175.44
312.299	81.24
312.513	99.67
312.727	148.82
312.941	68.95
313.154	89.43
313.368	89.43
313.582	130.39
313.796	50.52
314.009	-23.21
314.223	101.72
314.437	77.14
314.651	54.61
314.864	23.89
315.078	134.48
315.292	64.85
315.505	52.56
315.719	23.89
315.933	83.28
316.146	-23.21
316.36	9.56
316.573	93.52
316.787	52.56
317.001	60.76
317.214	42.32
317.428	42.32
317.641	66.9
317.855	23.89
318.068	11.61
318.282	-8.87
318.495	101.72
318.709	64.85
318.922	89.43
319.136	77.14
319.349	32.08
319.563	17.75
319.776	58.71
319.99	-0.68
320.203	91.48
320.417	101.72
320.63	66.9
320.843	99.67
321.057	25.94
321.27	83.28
321.483	32.08
321.697	120.15
321.91	93.52
322.124	89.43
322.337	36.18
322.55	48.47
322.763	27.99
322.977	1.37
323.19	-39.59
323.403	32.08
323.617	68.95
323.83	83.28
324.043	3.41
324.256	56.66
324.469	-10.92
324.683	13.65
324.896	68.95
325.109	36.18
325.322	23.89
325.535	118.1
325.748	109.91
325.962	99.67
326.175	9.56
326.388	7.51
326.601	116.05
326.814	38.23
327.027	11.61
327.24	126.29
327.453	40.28
327.666	91.48
327.879	34.13
328.092	36.18
328.305	101.72
328.518	-0.68
328.731	3.41
328.944	38.23
329.157	101.72
329.37	73.04
329.583	101.72
329.796	97.62
330.009	-29.35
330.222	122.2
330.435	73.04
330.648	93.52
330.861	116.05
331.073	34.13
331.286	71
331.499	27.99
331.712	36.18
331.925	107.86
332.138	56.66
332.35	27.99
332.563	-12.97
332.776	62.8
332.989	13.65
333.202	77.14
333.414	7.51
333.627	73.04
333.84	81.24
334.053	44.37
334.265	-4.78
334.478	105.81
334.691	64.85
334.903	87.38
335.116	75.09
335.329	48.47
335.541	60.76
335.754	111.96
335.966	40.28
336.179	7.51
336.392	99.67
336.604	17.75
336.817	66.9
337.029	99.67
337.242	27.99
337.454	40.28
337.667	75.09
337.88	42.32
338.092	42.32
338.305	95.57
338.517	50.52
338.729	142.68
338.942	97.62
339.154	77.14
339.367	52.56
339.579	42.32
339.792	44.37
340.004	60.76
340.217	36.18
340.429	71
340.641	1.37
340.854	79.19
341.066	19.8
341.278	81.24
341.491	99.67
341.703	64.85
341.915	11.61
342.128	136.53
342.34	157.01
342.552	40.28
342.764	83.28
342.977	81.24
343.189	91.48
343.401	71
343.613	-8.87
343.826	60.76
344.038	11.61
344.25	77.14
344.462	93.52
344.674	9.56
344.886	17.75
345.099	60.76
345.311	101.72
345.523	34.13
345.735	21.85
345.947	81.24
346.159	50.52
346.371	97.62
346.583	44.37
346.795	93.52
347.007	71
347.219	107.86
347.431	85.33
347.643	116.05
347.855	85.33
348.067	23.89
348.279	15.7
348.491	64.85
348.703	19.8
348.915	44.37
349.127	58.71
349.339	30.04
349.551	1.37
349.763	15.7
349.975	-15.02
350.187	81.24
350.399	52.56
350.61	52.56
350.822	60.76
351.034	120.15
351.246	27.99
351.458	34.13
351.669	60.76
351.881	175.44
352.093	85.33
352.305	54.61
352.517	105.81
352.728	89.43
352.94	114
353.152	85.33
353.363	25.94
353.575	73.04
353.787	52.56
353.999	165.2
354.21	97.62
354.422	52.56
354.633	58.71
354.845	19.8
355.057	79.19
355.268	73.04
355.48	91.48
355.692	-47.79
355.903	73.04
356.115	23.89
356.326	-4.78
356.538	75.09
356.749	91.48
356.961	95.57
357.172	114
357.384	56.66
357.595	111.96
357.807	7.51
358.018	-12.97
358.23	95.57
358.441	136.53
358.653	48.47
358.864	50.52
359.075	60.76
359.287	56.66
359.498	89.43
359.709	114
359.921	77.14
360.132	38.23
360.344	54.61
360.555	60.76
360.766	58.71
360.977	66.9
361.189	25.94
361.4	75.09
361.611	40.28
361.823	138.58
362.034	36.18
362.245	-8.87
362.456	-17.07
362.667	-23.21
362.879	66.9
363.09	93.52
363.301	81.24
363.512	62.8
363.723	9.56
363.935	107.86
364.146	30.04
364.357	11.61
364.568	58.71
364.779	-10.92
364.99	120.15
365.201	44.37
365.412	140.63
365.623	91.48
365.834	60.76
366.045	-4.78
366.256	68.95
366.467	54.61
366.678	79.19
366.889	105.81
367.1	64.85
367.311	71
367.522	52.56
367.733	103.76
367.944	58.71
368.155	56.66
368.366	56.66
368.577	-29.35
368.788	140.63
368.999	27.99
369.209	68.95
369.42	138.58
369.631	152.92
369.842	62.8
370.053	73.04
370.264	134.48
370.474	52.56
370.685	50.52
370.896	32.08
371.107	142.68
371.317	91.48
371.528	97.62
371.739	89.43
371.95	44.37
372.16	52.56
372.371	40.28
372.582	34.13
372.792	85.33
373.003	13.65
373.214	101.72
373.424	99.67
373.635	79.19
373.846	128.34
374.056	97.62
374.267	81.24
374.477	64.85
374.688	62.8
374.898	161.11
375.109	-8.87
375.319	-6.83
375.53	93.52
375.74	91.48
375.951	85.33
376.161	150.87
376.372	48.47
376.582	68.95
376.793	81.24
377.003	83.28
377.214	27.99
377.424	52.56
377.635	56.66
377.845	126.29
378.055	126.29
378.266	19.8
378.476	99.67
378.686	97.62
378.897	99.67
379.107	109.91
379.317	138.58
379.528	56.66
379.738	93.52
379.948	3.41
380.158	150.87
380.369	89.43
380.579	150.87
380.789	71
380.999	124.24
381.21	68.95
381.42	142.68
381.63	11.61
381.84	146.77
382.05	44.37
382.261	77.14
382.471	109.91
382.681	60.76
382.891	107.86
383.101	71
383.311	40.28
383.521	40.28
383.731	99.67
383.941	79.19
384.151	50.52
384.361	66.9
384.571	101.72
384.781	52.56
384.991	60.76
385.201	103.76
385.411	79.19
385.621	146.77
385.831	77.14
386.041	42.32
386.251	68.95
386.461	157.01
386.671	7.51
386.881	142.68
387.091	93.52
387.301	77.14
387.511	81.24
387.72	101.72
387.93	142.68
388.14	38.23
388.35	85.33
388.56	130.39
388.769	126.29
388.979	71
389.189	25.94
389.399	77.14
389.609	27.99
389.818	167.25
390.028	62.8
390.238	97.62
390.447	122.2
390.657	68.95
390.867	13.65
391.076	34.13
391.286	27.99
391.496	107.86
391.705	91.48
391.915	91.48
392.125	116.05
392.334	81.24
392.544	150.87
392.753	85.33
392.963	15.7
393.172	87.38
393.382	27.99
393.591	128.34
393.801	83.28
394.01	105.81
394.22	146.77
394.429	68.95
394.639	38.23
394.848	99.67
395.058	95.57
395.267	93.52
395.477	101.72
395.686	52.56
395.895	159.06
396.105	195.92
396.314	89.43
396.524	157.01
396.733	132.44
396.942	175.44
397.152	138.58
397.361	154.96
397.57	85.33
397.78	126.29
397.989	165.2
398.198	243.03
398.407	114
398.617	126.29
398.826	81.24
399.035	126.29
399.244	206.16
399.453	118.1
399.663	109.91
399.872	150.87
400.081	91.48
400.29	109.91
400.499	148.82
400.708	193.87
400.917	107.86
401.127	140.63
401.336	103.76
401.545	189.78
401.754	122.2
401.963	216.4
402.172	105.81
402.381	124.24
402.59	126.29
402.799	93.52
403.008	216.4
403.217	195.92
403.426	85.33
403.635	126.29
403.844	101.72
404.053	251.22
404.262	167.25
404.471	240.98
404.68	130.39
404.888	152.92
405.097	103.76
405.306	253.27
405.515	212.31
405.724	181.59
405.933	181.59
406.142	132.44
406.35	173.39
406.559	136.53
406.768	236.88
406.977	173.39
407.185	181.59
407.394	247.12
407.603	187.73
407.812	212.31
408.02	195.92
408.229	222.55
408.438	224.59
408.646	204.11
408.855	185.68
409.064	238.93
409.272	277.84
409.481	261.46
409.69	365.9
409.898	195.92
410.107	347.47
410.315	337.23
410.524	353.62
410.733	255.31
410.941	294.22
411.15	421.2
411.358	404.82
411.567	410.96
411.775	339.28
411.984	427.34
412.192	429.39
412.401	388.43
412.609	523.6
412.818	568.65
413.026	464.21
413.234	499.02
413.443	458.06
413.651	527.69
413.86	605.52
414.068	537.93
414.276	658.76
414.485	539.98
414.693	675.15
414.901	695.63
415.11	664.91
415.318	671.05
415.526	695.63
415.734	695.63
415.943	771.4
416.151	707.91
416.359	720.2
416.567	894.28
416.776	853.32
416.984	869.7
417.192	869.7
417.4	1006.92
417.608	822.6
417.817	998.73
418.025	945.48
418.233	1084.74
418.441	1047.88
418.649	1082.69
418.857	1215.81
419.065	1320.26
419.273	1230.15
419.481	1185.09
419.689	1297.73
419.897	1246.53
420.105	1420.61
420.313	1445.18
420.521	1518.91
420.729	1523.01
420.937	1637.69
421.145	1576.25
421.353	1682.75
421.561	1797.43
421.769	1744.19
421.977	1805.63
422.185	1846.59
422.393	2004.28
422.601	2125.11
422.809	2071.86
423.017	2219.32
423.224	2247.99
423.432	2235.7
423.64	2299.19
423.848	2557.23
424.056	2372.91
424.263	2538.8
424.471	2792.75
424.679	2639.15
424.887	2876.71
425.094	2788.65
425.302	2964.78
425.51	3056.93
425.718	3101.99
425.925	3196.2
426.133	3282.21
426.341	3530.02
426.548	3499.3
426.756	3632.41
426.964	3706.14
427.171	3919.13
427.379	3929.37
427.586	4015.38
427.794	4140.31
428.001	4433.17
428.209	4490.51
428.417	4490.51
428.624	4789.52
428.832	4818.19
429.039	4766.99
429.247	4846.86
429.454	5211.4
429.662	5623.04
429.869	5221.64
430.076	5545.22
430.284	5367.04
430.491	5739.77
430.699	6049.02
430.906	5940.47
431.114	5965.05
431.321	6221.05
431.528	6395.12
431.736	6733.04
431.943	6935.79
432.15	6980.84
432.358	6900.97
432.565	7365.86
432.772	7202.02
432.979	7857.37
433.187	7609.57
433.394	7726.3
433.601	8342.74
433.808	8561.87
434.016	8260.82
434.223	8584.4
434.43	9293
434.637	8996.04
434.844	9698.5
435.052	9751.74
435.259	9819.33
435.466	9776.32
435.673	9716.93
435.88	10435.77
436.087	10955.95
436.294	11015.34
436.501	10714.29
436.708	10939.57
436.915	11254.95
437.122	11783.33
437.329	11789.47
437.537	12141.72
437.743	12414.1
437.95	12174.49
438.157	12864.66
438.364	13307.02
438.571	13173.9
438.778	13171.85
438.985	14517.37
439.192	14111.87
439.399	14437.5
439.606	14197.88
439.813	14849.14
440.02	15869.03
440.227	15346.8
440.433	15262.83
440.64	16125.02
440.847	15821.92
441.054	16100.45
441.261	17173.58
441.467	17069.14
441.674	17247.31
441.881	17724.49
442.088	17917
442.294	17806.41
442.501	18201.66
442.708	18570.3
442.914	19145.78
443.121	20073.51
443.328	19549.23
443.534	21117.97
443.741	20749.34
443.948	19997.73
444.154	21679.11
444.361	21646.35
444.568	21656.59
444.774	21623.82
444.981	21971.97
445.187	22246.4
445.394	23331.83
445.6	23041.01
445.807	25312.21
446.013	24478.69
446.22	24370.15
446.426	25549.78
446.633	25906.12
446.839	26899.39
447.046	25484.24
447.252	26719.17
447.459	27139
447.665	26960.83
447.871	27890.6
448.078	29121.43
448.284	28197.8
448.491	28763.04
448.697	30014.35
448.903	30192.52
449.11	30202.76
449.316	29883.28
449.522	30466.95
449.728	31472.5
449.935	31456.12
450.141	31468.41
450.347	32084.84
450.553	31245.18
450.76	31593.33
450.966	32324.46
451.172	32326.5
451.378	32961.37
451.584	32250.73
451.791	32691.04
451.997	33071.96
452.203	33559.38
452.409	33555.29
452.615	33250.14
452.821	31773.55
453.027	31990.64
453.233	33338.2
453.44	32185.19
453.646	32359.27
453.852	32306.02
454.058	32861.02
454.264	31937.39
454.47	32486.25
454.676	32084.84
454.882	33166.17
455.088	29778.83
455.294	30724.99
455.5	30849.92
455.705	31429.49
455.911	29893.52
456.117	29342.61
456.323	28771.23
456.529	27497.39
456.735	28482.47
456.941	27974.57
457.147	27366.32
457.352	26713.02
457.558	26274.76
457.764	26147.78
457.97	25955.27
458.176	25158.61
458.381	25310.16
458.587	24019.94
458.793	23993.32
458.999	22899.7
459.204	24726.49
459.41	23585.77
459.616	22189.06
459.821	22010.89
460.027	22006.79
460.233	21720.07
460.438	20773.91
460.644	20866.07
460.85	19745.83
461.055	19758.12
461.261	19543.08
461.466	18152.51
461.672	17572.94
461.878	18990.13
462.083	17550.41
462.289	16991.31
462.494	17228.88
462.7	16184.41
462.905	15969.38
463.111	16387.16
463.316	16467.03
463.522	16153.69
463.727	16096.35
463.932	16163.93
464.138	15821.92
464.343	15987.81
464.549	15705.19
464.754	15828.07
464.959	16141.41
465.165	15590.5
465.37	14890.1
465.575	14799.99
465.781	15033.46
465.986	15510.63
466.191	14761.08
466.397	14433.4
466.602	14025.86
466.807	14402.68
467.012	14333.05
467.218	14140.54
467.423	14109.82
467.628	14341.24
467.833	14701.68
468.038	14349.43
468.244	13540.49
468.449	14355.58
468.654	13855.87
468.859	13810.82
469.064	13780.1
469.269	13298.83
469.474	13298.83
469.679	13841.54
469.885	13096.08
470.09	13171.85
470.295	13165.71
470.5	12838.03
470.705	12913.81
470.91	12645.52
471.115	12729.49
471.32	12713.11
471.525	12719.25
471.73	12197.02
471.935	12385.43
472.139	11869.34
472.344	12235.93
472.549	11859.1
472.754	11709.6
472.959	11420.84
473.164	11338.92
473.369	11320.49
473.574	11541.67
473.778	11377.83
473.983	11338.92
474.188	11287.72
474.393	10593.46
474.598	11087.02
474.802	10532.02
475.007	10552.5
475.212	10716.34
475.417	10331.32
475.621	10278.07
475.826	10151.1
476.031	9968.83
476.235	9895.1
476.44	10091.71
476.645	9948.35
476.849	9934.01
477.054	9637.06
477.259	9673.92
477.463	9723.07
477.668	9356.49
477.872	9485.51
478.077	9184.46
478.282	9288.9
478.486	8922.32
478.691	9082.06
478.895	9010.38
479.1	9131.21
479.304	8959.18
479.509	8645.84
479.713	9049.29
479.918	8776.91
480.122	8453.33
480.326	8752.34
480.531	8619.22
480.735	8512.72
480.94	8522.96
481.144	8713.42
481.348	8510.68
481.553	8428.76
481.757	8197.34
481.961	8508.63
482.166	8549.59
482.37	8367.32
482.574	8058.07
482.778	8322.26
482.983	8414.42
483.187	8266.97
483.391	8183
483.595	8355.03
483.8	8045.79
484.004	8242.39
484.208	8180.95
484.412	8363.22
484.616	8355.03
484.821	8400.09
485.025	7931.1
485.229	8359.13
485.433	8242.39
485.637	8269.02
485.841	8191.19
486.045	8023.26
486.249	8363.22
486.453	8101.08
486.657	8123.61
486.861	8033.5
487.065	7957.72
487.269	8185.05
487.473	8078.55
487.677	8289.49
487.881	8258.78
488.085	8219.86
488.289	8428.76
488.493	8230.1
488.697	8453.33
488.901	8307.93
489.105	8375.51
489.309	8250.58
489.512	8348.89
489.716	8111.32
489.92	8398.04
490.124	8293.59
490.328	8393.94
490.531	8402.13
490.735	8463.57
490.939	8498.39
491.143	8525.01
491.346	8443.09
491.55	8658.13
491.754	8574.16
491.958	8627.41
492.161	8703.18
492.365	8717.52
492.569	8774.86
492.772	8725.71
492.976	8961.23
493.18	8871.12
493.383	8938.7
493.587	9088.2
493.79	9227.46
493.994	8799.44
494.197	8924.37
494.401	9157.83
494.605	9284.81
494.808	9264.33
495.012	9303.24
495.215	9436.36
495.419	9450.69
495.622	9376.97
495.825	9440.45
496.029	9524.42
496.232	9739.46
496.436	9835.71
496.639	10022.08
496.843	9800.9
497.046	10077.37
497.249	10075.32
497.453	10194.11
497.656	10359.99
497.859	10271.93
498.063	10534.07
498.266	10886.32
498.469	10642.61
498.673	10749.11
498.876	11001.01
499.079	11154.6
499.282	10976.43
499.485	11437.22
499.689	11330.73
499.892	11545.77
500.095	11537.57
500.298	11922.59
500.501	11836.58
500.705	12199.07
500.908	12170.4
501.111	12369.05
501.314	12547.22
501.517	12539.03
501.72	12649.62
501.923	12627.09
502.126	13239.44
502.329	13040.78
502.532	13399.18
502.735	13239.44
502.938	13745.28
503.141	13704.32
503.344	13948.03
503.547	13970.56
503.75	14277.76
503.953	14191.74
504.156	14421.11
504.359	14777.46
504.562	14650.49
504.765	15006.83
504.968	15125.61
505.17	15455.34
505.373	15389.8
505.576	15983.71
505.779	15668.33
505.982	16039.01
506.185	16135.26
506.387	16313.44
506.59	16401.5
506.793	16954.45
506.996	16696.41
507.198	17366.09
507.401	17230.93
507.604	17491.02
507.807	17808.45
508.009	17697.86
508.212	18154.56
508.415	18271.29
508.617	18584.63
508.82	18558.01
509.022	18586.68
509.225	19026.99
509.428	19407.92
509.63	19299.37
509.833	19516.46
510.035	20053.03
510.238	19858.47
510.44	20298.78
510.643	20298.78
510.845	20851.74
511.048	20538.4
511.25	20978.71
511.453	20950.04
511.655	21861.38
511.858	21509.13
512.06	21773.32
512.262	22215.68
512.465	22457.34
512.667	22926.33
512.87	22660.09
513.072	23079.93
513.274	23684.08
513.477	23671.79
513.679	24175.59
513.881	24134.63
514.084	24212.45
514.286	24650.72
514.488	24771.55
514.69	25918.41
514.893	25652.17
515.095	25584.59
515.297	25994.18
515.499	26170.31
515.701	26930.11
515.904	27161.53
516.106	27173.81
516.308	27452.34
516.51	27999.15
516.712	27919.28
516.914	28386.21
517.116	28828.57
517.318	28967.84
517.52	29404.05
517.722	29438.87
517.925	29815.69
518.127	30389.13
518.329	30380.93
518.531	30694.27
518.733	31456.12
518.935	31386.49
519.136	32056.17
519.338	32158.57
519.54	32125.8
519.742	32875.36
519.944	33160.03
520.146	33981.26
520.348	34104.14
520.55	34286.41
520.752	34423.62
520.954	34759.49
521.155	34874.18
521.357	35435.32
521.559	36041.52
521.761	36649.77
521.963	36723.49
522.164	37126.94
522.366	37323.55
522.568	37909.27
522.77	38165.26
522.971	38742.79
523.173	38310.67
523.375	38812.42
523.576	39400.19
523.778	39535.35
523.98	40133.36
524.181	40112.88
524.383	40418.03
524.584	41128.67
524.786	41032.42
524.988	41026.28
525.189	41710.3
525.391	42195.67
525.592	42386.13
525.794	42642.12
525.995	42894.02
526.197	42898.12
526.398	43387.58
526.6	43938.49
526.801	43840.18
527.003	44143.28
527.204	44069.56
527.406	44905.13
527.607	45146.79
527.808	45486.75
528.01	45101.73
528.211	45871.77
528.412	46408.34
528.614	46199.44
528.815	46142.1
529.016	47039.11
529.218	46404.24
529.419	46717.58
529.62	47329.92
529.822	47362.69
530.023	47610.49
530.224	48001.66
530.425	47839.87
530.626	47338.11
530.828	47684.22
531.029	48689.77
531.23	48018.04
531.431	48396.91
531.632	48849.52
531.833	48931.43
532.035	48837.23
532.236	49111.66
532.437	49113.7
532.638	48865.9
532.839	49447.52
533.04	49926.75
533.241	49472.1
533.442	50106.97
533.643	49775.2
533.844	50025.05
534.045	50133.59
534.246	49652.32
534.447	50524.75
534.648	50121.3
534.849	50838.09
535.05	50197.08
535.251	50704.98
535.451	50283.09
535.652	50803.28
535.853	50680.4
536.054	50256.47
536.255	50842.19
536.456	50534.99
536.657	51245.64
536.857	50430.55
537.058	50467.41
537.259	51200.58
537.46	51331.65
537.66	50690.64
537.861	50983.5
538.062	50807.37
538.263	51110.47
538.463	50811.47
538.664	50410.07
538.865	51384.9
539.065	51249.74
539.266	50864.72
539.466	51458.63
539.667	50295.38
539.868	51360.33
540.068	51069.51
540.269	50958.92
540.469	51405.38
540.67	50631.25
540.87	51139.15
541.071	51272.26
541.271	50993.74
541.472	51259.98
541.672	51190.34
541.873	50764.37
542.073	50483.79
542.274	51724.86
542.474	51268.17
542.675	50520.66
542.875	51618.37
543.075	50971.21
543.276	50754.13
543.476	51032.65
543.676	51024.46
543.877	51356.23
544.077	51343.94
544.277	51188.3
544.478	51139.15
544.678	51343.94
544.878	51192.39
545.078	51286.6
545.279	50508.37
545.479	50412.12
545.679	51272.26
545.879	50836.05
546.079	51286.6
546.28	50688.59
546.48	50631.25
546.68	51098.19
546.88	51483.2
547.08	51092.04
547.28	50915.92
547.48	51008.07
547.68	50815.57
547.88	51098.19
548.081	51325.51
548.281	50774.61
548.481	50920.01
548.681	51669.57
548.881	51366.47
549.081	50932.3
549.28	51003.98
549.48	51483.2
549.68	50963.02
549.88	51442.24
550.08	51061.32
550.28	51173.96
550.48	50950.73
550.68	51104.33
550.88	50911.82
551.08	50864.72
551.279	51145.29
551.479	50590.29
551.679	50872.91
551.879	50731.6
552.079	50772.56
552.278	50844.24
552.478	50995.79
552.678	50668.11
552.878	51372.61
553.077	50539.09
553.277	50231.89
553.477	51079.75
553.676	50463.32
553.876	50553.43
554.076	50387.54
554.275	50635.34
554.475	49767.01
554.674	50403.92
554.874	50913.87
555.074	50160.22
555.273	50319.96
555.473	50356.82
555.672	50229.85
555.872	49648.22
556.071	50254.42
556.271	50233.94
556.47	49746.53
556.67	49474.15
556.869	49599.07
557.068	49842.78
557.268	49521.25
557.467	49721.95
557.667	49623.65
557.866	49492.58
558.065	49320.55
558.265	48968.3
558.464	49123.94
558.663	49668.7
558.863	48624.24
559.062	49410.66
559.261	48054.9
559.461	49666.66
559.66	48140.92
559.859	48669.29
560.058	47995.51
560.258	48542.32
560.457	47716.99
560.656	48061.05
560.855	48077.43
561.054	47743.61
561.253	47870.59
561.453	47424.13
561.652	47796.86
561.851	47272.58
562.05	47520.38
562.249	47340.16
562.448	47178.37
562.647	46981.77
562.846	46576.27
563.045	46912.14
563.244	46539.41
563.443	46496.4
563.642	45996.7
563.841	46248.6
564.04	45666.97
564.239	46152.34
564.438	45609.63
564.637	45748.89
564.836	45464.22
565.035	44831.4
565.234	45226.66
565.432	44993.19
565.631	44683.95
565.83	45136.55
566.029	44608.17
566.228	44085.94
566.427	44262.07
566.625	44104.37
566.824	43700.92
567.023	44004.02
567.222	43156.16
567.42	43846.33
567.619	43233.99
567.818	43258.56
568.016	42851.02
568.215	42996.42
568.414	43158.21
568.612	42799.82
568.811	42336.98
569.01	42304.21
569.208	41640.67
569.407	42181.33
569.605	41212.64
569.804	41900.76
570.002	41173.73
570.201	41702.11
570.4	40768.23
570.598	40491.76
570.797	40796.9
570.995	40622.83
571.193	40241.9
571.392	40506.09
571.59	39795.45
571.789	40096.5
571.987	39578.36
572.186	39566.07
572.384	39770.87
572.582	39428.86
572.781	39584.51
572.979	38564.62
573.177	38925.06
573.376	38916.87
573.574	38892.29
573.772	38648.58
573.971	38396.68
574.169	37909.27
574.367	37896.98
574.565	38085.39
574.763	37534.49
574.962	37145.37
575.16	37092.13
575.358	37456.67
575.556	37165.85
575.754	37438.23
575.952	36367.15
576.151	36717.35
576.349	36340.52
576.547	36598.57
576.745	36049.71
576.943	36291.37
577.141	36287.28
577.339	36451.11
577.537	35328.83
577.735	35529.53
577.933	35494.71
578.131	35287.87
578.329	35132.22
578.527	34904.9
578.725	35001.15
578.923	35128.13
579.121	34653
579.319	34362.19
579.516	34900.8
579.714	34575.17
579.912	33997.65
580.11	34079.57
580.308	34147.15
580.506	33987.41
580.704	33395.54
580.901	33977.17
581.099	33598.29
581.297	33434.46
581.495	33536.85
581.692	33317.72
581.89	32891.74
582.088	33104.73
582.285	32785.25
582.483	32951.13
582.681	32678.75
582.878	32856.93
583.076	32301.93
583.274	32699.23
583.471	32105.32
583.669	32334.7
583.866	31986.54
584.064	32029.55
584.262	31986.54
584.459	31898.48
584.657	31374.2
584.854	31556.47
585.052	30946.17
585.249	31662.96
585.447	31091.58
585.644	30882.69
585.841	31013.76
586.039	30731.14
586.236	30729.09
586.434	30509.96
586.631	30604.16
586.828	30604.16
587.026	30417.8
587.223	30421.89
587.42	30311.3
587.618	30274.44
587.815	29969.29
588.012	29836.17
588.21	29735.82
588.407	30235.53
588.604	29445.01
588.801	29350.81
588.999	29451.16
589.196	29496.21
589.393	29092.76
589.59	28976.03
589.787	29055.9
589.984	28791.71
590.182	28693.41
590.379	28699.55
590.576	28414.88
590.773	28545.95
590.97	28332.96
591.167	28175.27
591.364	28138.41
591.561	28036.01
591.758	27911.08
591.955	27689.9
592.152	27935.66
592.349	27495.35
592.546	27354.04
592.743	27653.04
592.94	26858.43
593.137	27521.97
593.334	27687.85
593.531	27024.31
593.727	27130.81
593.924	27204.53
594.121	26954.68
594.318	26817.47
594.515	26586.05
594.712	26997.69
594.908	26561.47
595.105	26874.81
595.302	26395.59
595.499	26411.97
595.696	26293.19
595.892	26342.34
596.089	26129.35
596.286	25969.61
596.482	25787.34
596.679	26184.65
596.876	25732.04
597.072	25973.7
597.269	25826.25
597.466	25426.9
597.662	25736.14
597.859	25285.59
598.055	25570.26
598.252	25240.53
598.448	25365.46
598.645	25181.14
598.841	25017.3
599.038	24812.51
599.234	25076.69
599.431	24691.68
599.627	24423.39
599.824	24943.58
600.02	24392.67
600.217	24525.79
600.413	24421.34
600.609	24136.68
600.806	24161.25
601.002	24349.67
601.198	24001.51
601.395	23968.74
601.591	23778.28
601.787	23819.24
601.984	23624.68
602.18	23946.22
602.376	23606.25
602.572	23612.4
602.769	23450.61
602.965	23086.07
603.161	23315.44
603.357	23251.95
603.553	22911.99
603.75	23122.93
603.946	22789.11
604.142	22946.81
604.338	22582.27
604.534	22840.31
604.73	22735.87
604.926	22365.18
605.122	22780.92
605.318	22101
605.514	22135.81
605.71	22451.2
605.906	22111.24
606.102	22176.77
606.298	22318.08
606.494	21826.57
606.69	22070.28
606.886	21836.81
607.082	21638.16
607.278	21988.36
607.474	21318.67
607.67	21648.39
607.866	21253.14
608.062	21552.14
608.257	21111.83
608.453	21390.35
608.649	21560.33
608.845	21062.68
609.041	21265.42
609.236	21238.8
609.432	21185.55
609.628	21169.17
609.824	21005.33
610.019	20812.82
610.215	20739.1
610.411	21060.63
610.606	20505.63
610.802	20995.09
610.998	20683.8
611.193	20847.64
611.389	20175.91
611.584	20212.77
611.78	20194.34
611.976	20259.87
612.171	20272.16
612.367	20358.17
612.562	20143.14
612.758	19860.52
612.953	19913.77
613.149	20270.11
613.344	19983.4
613.539	19934.25
613.735	19821.61
613.93	19874.85
614.126	19692.58
614.321	19950.63
614.517	19459.12
614.712	19543.08
614.907	19483.69
615.103	19913.77
615.298	19614.76
615.493	19665.96
615.688	19110.96
615.884	19577.9
616.079	18938.93
616.274	19215.41
616.47	18988.08
616.665	19455.02
616.86	19162.16
617.055	19094.58
617.25	18904.12
617.445	18760.76
617.641	18633.78
617.836	19037.23
618.031	18934.84
618.226	18801.72
618.421	18633.78
618.616	18863.16
618.811	18424.89
619.006	18584.63
619.201	18095.17
619.396	18281.53
619.591	17939.52
619.786	17990.72
619.981	18074.69
620.176	18009.15
620.371	17763.4
620.566	17910.85
620.761	17546.31
620.956	17785.93
621.151	17411.15
621.346	17503.31
621.541	17245.26
621.735	17753.16
621.93	17189.97
622.125	17081.42
622.32	16946.26
622.515	17142.86
622.709	17022.03
622.904	16792.66
623.099	16753.75
623.294	16874.58
623.488	16538.71
623.683	16292.96
623.878	16301.15
624.072	16120.93
624.267	16305.24
624.462	15996
624.656	16032.86
624.851	16049.25
625.046	16086.11
625.24	15774.82
625.435	15512.68
625.629	15690.85
625.824	15527.02
626.018	15795.3
626.213	14937.2
626.407	15320.17
626.602	14992.5
626.796	15185.01
626.991	15266.92
627.185	15311.98
627.38	14799.99
627.574	14967.92
627.768	14646.39
627.963	14716.02
628.157	14404.73
628.352	14500.98
628.546	14189.69
628.74	14271.61
628.935	14075.01
629.129	14324.86
629.323	13855.87
629.517	14023.81
629.712	13933.7
629.906	13921.41
630.1	13765.76
630.294	13630.6
630.489	13622.41
630.683	13728.9
630.877	13257.87
631.071	13356.17
631.265	13442.18
631.459	12926.1
631.653	13032.59
631.848	13362.31
632.042	13048.97
632.236	13182.09
632.43	12827.79
632.624	12895.38
632.818	12762.26
633.012	12397.72
633.206	12676.24
633.4	12731.54
633.594	12586.13
633.788	12405.91
633.982	12618.9
634.176	12577.94
634.369	12354.71
634.563	12213.4
634.757	12211.35
634.951	12297.37
635.145	12121.24
635.339	12063.9
635.533	11738.27
635.726	11857.06
635.92	11545.77
636.114	11713.7
636.308	11644.07
636.501	11599.01
636.695	11562.15
636.889	11504.81
637.083	11433.13
637.276	11478.18
637.47	11070.64
637.664	11297.96
637.857	11398.31
638.051	11101.36
638.244	10896.56
638.438	10968.24
638.632	10742.96
638.825	10687.67
639.019	10871.98
639.212	10691.76
639.406	10812.59
639.599	10558.64
639.793	10499.25
639.986	10489.01
640.18	10460.34
640.373	10286.26
640.567	10271.93
640.76	10177.72
640.954	10235.07
641.147	10087.61
641.34	10022.08
641.534	10079.42
641.727	9899.2
641.92	9968.83
642.114	9768.13
642.307	9727.17
642.5	9721.02
642.694	9630.91
642.887	9567.43
643.08	9573.57
643.273	9374.92
643.467	9448.65
643.66	9120.97
643.853	9178.31
644.046	9311.43
644.239	9147.59
644.432	9067.72
644.626	9039.05
644.819	9235.66
645.012	9059.53
645.205	8950.99
645.398	9014.48
645.591	8891.6
645.784	8881.36
645.977	8576.21
646.17	8694.99
646.363	8516.82
646.556	8584.4
646.749	8703.18
646.942	8553.68
647.135	8377.56
647.328	8514.77
647.521	8555.73
647.714	8193.24
647.907	8277.21
648.099	8139.99
648.292	8258.78
648.485	8336.6
648.678	7830.75
648.871	8015.07
649.064	7996.64
649.256	7910.62
649.449	7910.62
649.642	7920.86
649.835	7818.46
650.027	8017.12
650.22	7728.35
650.413	7972.06
650.605	7838.94
650.798	7640.29
650.991	7533.79
651.183	7775.45
651.376	7570.66
651.568	7537.89
651.761	7359.72
651.954	7419.11
652.146	7589.09
652.339	7384.29
652.531	7447.78
652.724	7318.76
652.916	7005.42
653.109	7357.67
653.301	7152.87
653.494	7251.17
653.686	7021.8
653.879	7310.57
654.071	7099.63
654.263	7113.96
654.456	7032.04
654.648	7105.77
654.84	6929.64
655.033	6796.53
655.225	6843.63
655.417	6866.16
655.61	6761.71
655.802	6917.36
655.994	6726.89
656.186	6724.85
656.379	6833.39
656.571	6876.4
656.763	6612.21
656.955	6563.06
657.148	6663.41
657.34	6577.39
657.532	6440.18
657.724	6434.04
657.916	6372.6
658.108	6474.99
658.3	6356.21
658.492	6411.51
658.684	6311.16
658.876	6323.44
659.068	6378.74
659.26	6399.22
659.452	6229.24
659.644	6214.9
659.836	6190.33
660.028	6255.86
660.22	6216.95
660.412	6124.79
660.604	6040.83
660.796	6049.02
660.988	5938.43
661.18	6018.3
661.372	5987.58
661.563	6073.59
661.755	5885.18
661.947	5836.03
662.139	5989.63
662.331	5942.52
662.522	5821.69
662.714	5684.48
662.906	5846.27
663.097	5938.43
663.289	5750.01
663.481	5639.42
663.673	5817.6
663.864	5674.24
664.056	5563.65
664.247	5557.5
664.439	5600.51
664.631	5506.31
664.822	5586.18
665.014	5631.23
665.205	5561.6
665.397	5604.61
665.588	5571.84
665.78	5508.35
665.971	5608.7
666.163	5668.09
666.354	5457.15
666.546	5580.03
666.737	5524.74
666.929	5373.19
667.12	5405.95
667.311	5405.95
667.503	5461.25
667.694	5356.8
667.885	5336.32
668.077	5459.2
668.268	5346.56
668.459	5283.08
668.651	5399.81
668.842	5426.43
669.033	5201.16
669.224	5213.45
669.416	5473.54
669.607	5362.95
669.798	5250.31
669.989	5385.48
670.18	5184.77
670.371	5211.4
670.563	5233.93
670.754	5354.76
670.945	5178.63
671.136	5276.93
671.327	5195.01
671.518	5317.89
671.709	5418.24
671.9	5213.45
672.091	5143.81
672.282	5168.39
672.473	5225.73
672.664	5143.81
672.855	5164.29
673.046	5270.79
673.237	5233.93
673.428	5231.88
673.619	5238.02
673.809	5084.42
674	5289.22
674.191	5295.36
674.382	5209.35
674.573	5178.63
674.764	5246.21
674.954	5211.4
675.145	5369.09
675.336	5317.89
675.527	5119.24
675.717	5367.04
675.908	5254.41
676.099	5256.45
676.289	5297.41
676.48	5446.91
676.671	5246.21
676.861	5356.8
677.052	5317.89
677.243	5321.99
677.433	5334.28
677.624	5350.66
677.814	5152.01
678.005	5518.59
678.195	5369.09
678.386	5338.37
678.576	5461.25
678.767	5451.01
678.957	5440.77
679.148	5508.35
679.338	5481.73
679.529	5483.78
679.719	5416.19
679.909	5582.08
680.1	5641.47
680.29	5539.07
680.481	5635.33
680.671	5580.03
680.861	5428.48
681.052	5721.34
681.242	5479.68
681.432	5635.33
681.622	5504.26
681.813	5557.5
682.003	5666.05
682.193	5637.38
682.383	5657.86
682.573	5670.14
682.764	5559.55
682.954	5661.95
683.144	5741.82
683.334	5809.4
683.524	5745.92
683.714	5827.84
683.904	5631.23
684.094	5700.86
684.284	5756.16
684.474	5719.29
684.664	5688.57
684.854	5694.72
685.044	5598.46
685.234	5696.77
685.424	5727.49
685.614	5661.95
685.804	5674.24
685.994	5737.73
686.184	5586.18
686.374	5860.6
686.564	5702.91
686.753	5702.91
686.943	5487.87
687.133	5610.75
687.323	5569.79
687.513	5592.32
687.702	5451.01
687.892	5592.32
688.082	5639.42
688.272	5571.84
688.461	5532.93
688.651	5500.16
688.841	5432.58
689.03	5381.38
689.22	5297.41
689.41	5426.43
689.599	5287.17
689.789	5238.02
689.979	5381.38
690.168	5295.36
690.358	5360.9
690.547	5281.03
690.737	5180.68
690.926	5278.98
691.116	5223.69
691.305	5287.17
691.495	5104.9
691.684	5061.9
691.874	5092.62
692.063	5059.85
692.252	5215.49
692.442	5166.34
692.631	4963.59
692.82	5106.95
693.01	5170.44
693.199	4971.79
693.388	5002.51
693.578	4998.41
693.767	5035.27
693.956	5106.95
694.146	4918.54
694.335	5057.8
694.524	5082.38
694.713	5025.03
694.902	5123.34
695.092	4926.73
695.281	4910.35
695.47	4920.59
695.659	5031.18
695.848	4914.44
696.037	4881.67
696.226	5008.65
696.415	4787.47
696.604	4875.53
696.793	4973.83
696.982	5016.84
697.171	5004.55
697.36	4926.73
697.549	5033.22
697.738	4885.77
697.927	4984.07
698.116	5090.57
698.305	5027.08
698.494	4996.36
698.683	4982.03
698.872	5088.52
699.061	5059.85
699.25	4906.25
699.438	5129.48
699.627	4920.59
699.816	4875.53
700.005	4916.49
700.193	5051.66
700.382	5076.23
700.571	5065.99
700.76	5141.77
700.948	5205.25
701.137	5068.04
701.326	5317.89
701.514	4998.41
701.703	5123.34
701.892	4973.83
702.08	5221.64
702.269	5238.02
702.457	5160.2
702.646	5088.52
702.834	5049.61
703.023	5129.48
703.212	5145.86
703.4	5321.99
703.589	5121.29
703.777	5426.43
703.965	5053.7
704.154	5313.8
704.342	5283.08
704.531	5293.32
704.719	5360.9
704.907	5264.65
705.096	5139.72
705.284	5178.63
705.472	5229.83
705.661	5387.52
705.849	5383.43
706.037	5373.19
706.226	5283.08
706.414	5334.28
706.602	5442.82
706.79	5500.16
706.979	5145.86
707.167	5444.87
707.355	5416.19
707.543	5326.08
707.731	5586.18
707.919	5426.43
708.107	5264.65
708.296	5508.35
708.484	5434.63
708.672	5397.76
708.86	5516.55
709.048	5381.38
709.236	5512.45
709.424	5584.13
709.612	5385.48
709.8	5506.31
709.988	5508.35
710.176	5670.14
710.364	5563.65
710.551	5649.66
710.739	5428.48
710.927	5541.12
711.115	5534.98
711.303	5680.38
711.491	5754.11
711.679	5651.71
711.866	5479.68
712.054	5565.7
712.242	5489.92
712.43	5750.01
712.617	5547.26
712.805	5711.1
712.993	5594.37
713.181	5629.18
713.368	5678.33
713.556	5756.16
713.744	5709.05
713.931	5840.12
714.119	5821.69
714.306	5682.43
714.494	5786.88
714.682	5741.82
714.869	5786.88
715.057	5977.34
715.244	5833.98
715.432	6001.91
715.619	5874.94
715.807	5782.78
715.994	6032.63
716.182	5719.29
716.369	6008.06
716.556	5999.87
716.744	5803.26
716.931	5905.66
717.119	5922.04
717.306	6053.11
717.493	5885.18
717.681	5989.63
717.868	6010.11
718.055	5868.8
718.242	5833.98
718.43	5967.1
718.617	6167.8
718.804	6061.3
718.991	6114.55
719.179	6137.08
719.366	6008.06
719.553	6106.36
719.74	5981.43
719.927	6196.47
720.114	6241.53
720.301	6126.84
720.488	5971.19
720.676	6073.59
720.863	6012.15
721.05	6055.16
721.237	6198.52
721.424	6114.55
721.611	6274.29
721.798	6042.87
721.985	6022.39
722.172	5997.82
722.358	6214.9
722.545	6237.43
722.732	6114.55
722.919	6114.55
723.106	6173.94
723.293	6096.12
723.48	5958.91
723.667	6163.7
723.853	6051.07
724.04	6085.88
724.227	6276.34
724.414	6196.47
724.6	6012.15
724.787	6223.09
724.974	6429.94
725.161	6108.41
725.347	6196.47
725.534	6401.27
725.72	6204.66
725.907	6239.48
726.094	6270.2
726.28	6214.9
726.467	6278.39
726.653	6204.66
726.84	6178.04
727.027	6360.31
727.213	6307.06
727.4	6237.43
727.586	5952.76
727.773	6364.4
727.959	6235.38
728.145	6278.39
728.332	6245.62
728.518	6237.43
728.705	6331.64
728.891	6343.92
729.077	6151.42
729.264	6208.76
729.45	6288.63
729.636	6372.6
729.823	6173.94
730.009	6229.24
730.195	6104.31
730.382	6280.44
730.568	6206.71
730.754	6231.29
730.94	6274.29
731.126	6307.06
731.313	6241.53
731.499	6085.88
731.685	6294.77
731.871	6112.5
732.057	6253.81
732.243	6272.25
732.429	6278.39
732.615	6262.01
732.801	6341.88
732.987	6391.03
733.173	6241.53
733.359	6253.81
733.545	6276.34
733.731	6237.43
733.917	6284.53
734.103	6227.19
734.289	6206.71
734.475	6135.03
734.661	6368.5
734.847	6137.08
735.033	6216.95
735.219	6210.81
735.404	6237.43
735.59	6302.97
735.776	6081.78
735.962	6229.24
736.148	6173.94
736.333	6235.38
736.519	6212.85
736.705	6274.29
736.89	6032.63
737.076	6077.69
737.262	6006.01
737.447	6044.92
737.633	6104.31
737.819	6126.84
738.004	6108.41
738.19	6057.21
738.375	6036.73
738.561	6157.56
738.747	6012.15
738.932	5924.09
739.118	6137.08
739.303	6114.55
739.489	5981.43
739.674	5999.87
739.859	5885.18
740.045	6081.78
740.23	5917.95
740.416	5840.12
740.601	6059.26
740.786	5907.71
740.972	5778.69
741.157	5811.45
741.342	5711.1
741.528	5790.97
741.713	5793.02
741.898	5684.48
742.084	5823.74
742.269	5602.56
742.454	5670.14
742.639	5729.53
742.824	5741.82
743.01	5737.73
743.195	5733.63
743.38	5688.57
743.565	5604.61
743.75	5545.22
743.935	5463.3
744.12	5528.83
744.305	5285.12
744.49	5432.58
744.675	5481.73
744.86	5442.82
745.045	5385.48
745.23	5479.68
745.415	5393.67
745.6	5328.13
745.785	5168.39
745.97	5174.53
746.155	5088.52
746.34	5231.88
746.525	5207.3
746.71	5180.68
746.895	5053.7
747.079	5045.51
747.264	5166.34
747.449	5035.27
747.634	4934.92
747.819	5080.33
748.003	4936.97
748.188	4891.91
748.373	4898.06
748.557	4873.48
748.742	4912.39
748.927	4855.05
749.111	4842.76
749.296	4674.83
749.481	4672.78
749.665	4691.21
749.85	4560.14
750.034	4504.85
750.219	4549.9
750.404	4453.65
750.588	4429.07
750.773	4422.93
750.957	4611.34
751.141	4410.64
751.326	4402.45
751.51	4357.39
751.695	4244.76
751.879	4381.97
752.064	4236.56
752.248	4230.42
752.432	4218.13
752.617	4148.5
752.801	4207.89
752.985	4078.87
753.17	4042.01
753.354	4056.34
753.538	3775.77
753.722	3984.66
753.907	3865.88
754.091	3912.99
754.275	3835.16
754.459	3935.51
754.643	3902.75
754.828	3687.71
755.012	3775.77
755.196	3609.89
755.38	3613.98
755.564	3796.25
755.748	3720.48
755.932	3669.28
756.116	3624.22
756.3	3661.09
756.484	3550.5
756.668	3601.69
756.852	3407.14
757.036	3468.58
757.22	3302.69
757.404	3370.27
757.588	3452.19
757.772	3405.09
757.956	3374.37
758.14	3327.27
758.323	3169.57
758.507	3171.62
758.691	3106.09
758.875	3312.93
759.059	3237.16
759.242	3214.63
759.426	3181.86
759.61	3136.81
759.794	3165.48
759.977	3140.9
760.161	3063.08
760.345	3087.65
760.528	3188
760.712	2925.86
760.895	3054.89
761.079	3130.66
761.263	2911.53
761.446	2932.01
761.63	3052.84
761.813	2929.96
761.997	2868.52
762.18	2854.19
762.364	2858.28
762.547	2886.95
762.731	2866.47
762.914	2813.23
763.098	2813.23
763.281	2870.57
763.464	2616.62
763.648	2747.69
763.831	2604.33
764.015	2782.51
764.198	2745.64
764.381	2661.68
764.564	2635.05
764.748	2696.49
764.931	2655.53
765.114	2528.56
765.297	2590
765.481	2608.43
765.664	2477.36
765.847	2501.94
766.03	2536.75
766.213	2393.39
766.397	2598.19
766.58	2501.94
766.763	2452.78
766.946	2510.13
767.129	2491.7
767.312	2567.47
767.495	2469.17
767.678	2356.53
767.861	2395.44
768.044	2362.67
768.227	2411.82
768.41	2338.1
768.593	2399.54
768.776	2338.1
768.959	2280.75
769.142	2377.01
769.324	2331.95
769.507	2329.91
769.69	2260.27
769.873	2293.04
770.056	2409.78
770.239	2274.61
770.421	2334
770.604	2161.97
770.787	2309.43
770.97	2059.57
771.152	2035
771.335	2188.6
771.518	2137.4
771.7	2125.11
771.883	2112.82
772.066	2112.82
772.248	2129.2
772.431	2112.82
772.613	2178.36
772.796	2030.9
772.978	2004.28
773.161	2035
773.343	2032.95
773.526	1871.16
773.708	1903.93
773.891	1951.03
774.073	1948.98
774.256	1936.7
774.438	2116.92
774.621	1889.59
774.803	1875.26
774.985	1795.39
775.168	1856.83
775.35	1903.93
775.532	1758.52
775.715	1846.59
775.897	1756.47
776.079	1660.22
776.261	1805.63
776.444	1885.5
776.626	1740.09
776.808	1723.71
776.99	1629.5
777.173	1738.04
777.355	1723.71
777.537	1725.75
777.719	1783.1
777.901	1637.69
778.083	1535.29
778.265	1584.45
778.447	1649.98
778.629	1551.68
778.811	1531.2
778.993	1596.73
779.175	1508.67
779.357	1545.53
779.539	1488.19
779.721	1484.09
779.903	1533.25
780.085	1426.75
780.267	1484.09
780.449	1445.18
780.631	1473.85
780.812	1467.71
780.994	1486.14
781.176	1477.95
781.358	1373.5
781.54	1371.46
781.721	1461.57
781.903	1346.88
782.085	1242.43
782.267	1330.5
782.448	1148.23
782.63	1293.63
782.812	1312.07
782.993	1303.87
783.175	1348.93
783.357	1324.35
783.538	1224
783.72	1207.62
783.901	1191.24
784.083	1133.89
784.264	1248.58
784.446	1160.52
784.627	1090.88
784.809	1181
784.99	1129.8
785.172	1068.36
785.353	1197.38
785.535	1084.74
785.716	1205.57
785.897	1092.93
786.079	1123.65
786.26	1090.88
786.441	1043.78
786.623	1045.83
786.804	1011.01
786.985	1082.69
787.167	1076.55
787.348	951.62
787.529	896.33
787.71	1088.84
787.891	994.63
788.073	955.72
788.254	925
788.435	1068.36
788.616	982.34
788.797	873.8
788.978	912.71
789.159	953.67
789.34	847.18
789.522	1008.97
789.703	910.66
789.884	961.86
790.065	818.5
790.246	949.57
790.427	855.37
790.607	1035.59
790.788	886.09
790.969	933.19
791.15	855.37
791.331	869.7
791.512	845.13
791.693	773.45
791.874	908.62
792.054	855.37
792.235	863.56
792.416	863.56
792.597	865.61
792.778	836.94
792.958	900.42
793.139	761.16
793.32	806.22
793.5	761.16
793.681	804.17
793.862	791.88
794.042	820.55
794.223	728.39
794.404	697.67
794.584	755.02
794.765	687.43
794.945	691.53
795.126	697.67
795.306	810.31
795.487	709.96
795.667	732.49
795.848	767.31
796.028	658.76
796.209	806.22
796.389	683.34
796.57	687.43
796.75	695.63
796.93	830.79
797.111	671.05
797.291	658.76
797.471	783.69
797.652	699.72
797.832	636.24
798.012	671.05
798.192	662.86
798.373	615.76
798.553	673.1
798.733	681.29
798.913	660.81
799.093	689.48
799.274	599.37
799.454	593.23
799.634	714.06
799.814	626
799.994	656.72
800.174	630.09
800.354	611.66
800.534	617.8
800.714	597.32
800.894	560.46
801.074	576.84
801.254	503.12
801.434	654.67
801.614	550.22
801.794	609.61
801.974	1330.5
802.154	576.84
802.334	585.04
802.514	517.45
802.693	558.41
802.873	544.08
803.053	507.21
803.233	597.32
803.413	601.42
803.592	503.12
803.772	519.5
803.952	560.46
804.131	550.22
804.311	519.5
804.491	554.32
804.67	490.83
804.85	417.1
805.03	441.68
805.209	470.35
805.389	527.69
805.568	478.54
805.748	466.25
805.928	572.75
806.107	582.99
806.287	484.69
806.466	550.22
806.646	447.82
806.825	458.06
807.004	527.69
807.184	490.83
807.363	488.78
807.543	480.59
807.722	441.68
807.901	468.3
808.081	466.25
808.26	429.39
808.439	478.54
808.619	361.81
808.798	488.78
808.977	486.73
809.156	484.69
809.336	445.77
809.515	458.06
809.694	361.81
809.873	433.49
810.052	474.45
810.231	511.31
810.411	451.92
810.59	519.5
810.769	394.58
810.948	357.71
811.127	376.14
811.306	433.49
811.485	345.42
811.664	443.73
811.843	292.18
812.022	429.39
812.201	460.11
812.38	429.39
812.559	339.28
812.737	417.1
812.916	320.85
813.095	283.99
813.274	384.34
813.453	322.9
813.632	413.01
813.811	402.77
813.989	271.7
814.168	413.01
814.347	376.14
814.526	347.47
814.704	370
814.883	396.62
815.062	382.29
815.24	445.77
815.419	312.66
815.598	380.24
815.776	312.66
815.955	408.91
816.133	314.7
816.312	372.05
816.49	322.9
816.669	326.99
816.847	281.94
817.026	318.8
817.204	380.24
817.383	331.09
817.561	365.9
817.74	359.76
817.918	345.42
818.097	318.8
818.275	343.38
818.453	347.47
818.632	365.9
818.81	277.84
818.988	324.94
819.167	292.18
819.345	404.82
819.523	370
819.701	310.61
819.879	331.09
820.058	396.62
820.236	286.03
820.414	263.51
820.592	273.75
820.77	308.56
820.948	322.9
821.127	222.55
821.305	273.75
821.483	310.61
821.661	269.65
821.839	288.08
822.017	310.61
822.195	261.46
822.373	290.13
822.551	277.84
822.729	314.7
822.907	294.22
823.085	351.57
823.262	230.74
823.44	216.4
823.618	277.84
823.796	374.1
823.974	224.59
824.152	294.22
824.329	236.88
824.507	329.04
824.685	228.69
824.863	253.27
825.04	234.83
825.218	324.94
825.396	238.93
825.574	329.04
825.751	247.12
825.929	281.94
826.107	216.4
826.284	232.79
826.462	173.39
826.639	218.45
826.817	216.4
826.994	191.83
827.172	204.11
827.349	298.32
827.527	261.46
827.704	206.16
827.882	200.02
828.059	236.88
828.237	224.59
828.414	335.18
828.591	183.63
828.769	232.79
828.946	212.31
829.124	224.59
829.301	269.65
829.478	159.06
829.655	195.92
829.833	257.36
830.01	222.55
830.187	253.27
830.364	249.17
830.542	232.79
830.719	216.4
830.896	220.5
831.073	175.44
831.25	247.12
831.427	255.31
831.604	169.3
831.782	171.35
831.959	222.55
832.136	175.44
832.313	238.93
832.49	191.83
832.667	200.02
832.844	224.59
833.021	120.15
833.198	220.5
833.374	245.07
833.551	210.26
833.728	208.21
833.905	206.16
834.082	148.82
834.259	195.92
834.436	279.89
834.612	200.02
834.789	144.72
834.966	224.59
835.143	193.87
835.319	124.24
835.496	224.59
835.673	224.59
835.85	183.63
836.026	296.27
836.203	167.25
836.38	187.73
836.556	191.83
836.733	134.48
836.909	271.7
837.086	222.55
837.262	159.06
837.439	206.16
837.616	130.39
837.792	154.96
837.968	159.06
838.145	142.68
838.321	99.67
838.498	159.06
838.674	154.96
838.851	89.43
839.027	187.73
839.203	236.88
839.38	159.06
839.556	181.59
839.732	116.05
839.909	181.59
840.085	77.14
840.261	150.87
840.437	142.68
840.614	191.83
840.79	146.77
840.966	152.92
841.142	163.15
841.318	116.05
841.494	140.63
841.671	175.44
841.847	75.09
842.023	83.28
842.199	169.3
842.375	109.91
842.551	52.56
842.727	89.43
842.903	183.63
843.079	167.25
843.255	134.48
843.431	120.15
843.607	122.2
843.783	83.28
843.959	124.24
844.134	134.48
844.31	216.4
844.486	183.63
844.662	146.77
844.838	42.32
845.013	177.49
845.189	181.59
845.365	146.77
845.541	107.86
845.716	183.63
845.892	50.52
846.068	111.96
846.244	68.95
846.419	146.77
846.595	97.62
846.77	118.1
846.946	183.63
847.122	157.01
847.297	60.76
847.473	124.24
847.648	83.28
847.824	126.29
847.999	42.32
848.175	136.53
848.35	118.1
848.526	85.33
848.701	216.4
848.876	85.33
849.052	159.06
849.227	97.62
849.403	83.28
849.578	83.28
849.753	116.05
849.929	187.73
850.104	77.14
850.279	130.39
850.454	99.67
850.63	114
850.805	130.39
850.98	130.39
851.155	128.34
851.33	132.44
851.505	44.37
851.681	146.77
851.856	99.67
852.031	140.63
852.206	93.52
852.381	-0.68
852.556	91.48
852.731	56.66
852.906	183.63
853.081	93.52
853.256	83.28
853.431	68.95
853.606	91.48
853.781	68.95
853.956	34.13
854.131	60.76
854.305	87.38
854.48	124.24
854.655	15.7
854.83	68.95
855.005	73.04
855.18	105.81
855.354	107.86
855.529	146.77
855.704	52.56
855.879	142.68
856.053	-4.78
856.228	-12.97
856.403	99.67
856.577	130.39
856.752	75.09
856.926	38.23
857.101	60.76
857.276	93.52
857.45	85.33
857.625	105.81
857.799	126.29
857.974	71
858.148	36.18
858.323	93.52
858.497	85.33
858.672	58.71
858.846	52.56
859.02	50.52
859.195	77.14
859.369	52.56
859.543	3.41
859.718	136.53
859.892	19.8
860.066	136.53
860.241	-19.11
860.415	116.05
860.589	75.09
860.763	109.91
860.938	58.71
861.112	107.86
861.286	91.48
861.46	109.91
861.634	75.09
861.808	73.04
861.982	77.14
862.157	75.09
862.331	44.37
862.505	-6.83
862.679	64.85
862.853	21.85
863.027	105.81
863.201	138.58
863.375	7.51
863.549	93.52
863.722	77.14
863.896	101.72
864.07	-2.73
864.244	60.76
864.418	73.04
864.592	64.85
864.766	87.38
864.939	27.99
865.113	40.28
865.287	109.91
865.461	48.47
865.634	15.7
865.808	44.37
865.982	91.48
866.156	21.85
866.329	44.37
866.503	60.76
866.676	114
866.85	11.61
867.024	-25.26
867.197	60.76
867.371	165.2
867.544	19.8
867.718	13.65
867.891	132.44
868.065	11.61
868.238	50.52
868.412	136.53
868.585	50.52
868.759	62.8
868.932	58.71
869.105	7.51
869.279	101.72
869.452	-19.11
869.625	62.8
869.799	48.47
869.972	44.37
870.145	-12.97
870.319	50.52
870.492	68.95
870.665	-12.97
870.838	19.8
871.011	-29.35
871.185	87.38
871.358	42.32
871.531	54.61
871.704	54.61
871.877	60.76
872.05	-4.78
872.223	56.66
872.396	107.86
872.569	105.81
872.742	101.72
872.915	118.1
873.088	68.95
873.261	66.9
873.434	132.44
873.607	40.28
873.78	68.95
873.953	36.18
874.126	-29.35
874.299	44.37
874.471	34.13
874.644	17.75
874.817	-2.73
874.99	71
875.163	1.37
875.335	36.18
875.508	-37.55
875.681	30.04
875.853	-41.64
876.026	71
876.199	36.18
876.371	36.18
876.544	21.85
876.717	77.14
876.889	56.66
877.062	56.66
877.234	58.71
877.407	68.95
877.579	-12.97
877.752	62.8
877.924	-2.73
878.097	83.28
878.269	56.66
878.442	91.48
878.614	-23.21
878.786	85.33
878.959	-8.87
879.131	36.18
879.303	-33.45
879.476	-43.69
879.648	83.28
879.82	40.28
879.993	60.76
880.165	11.61
880.337	85.33
880.509	75.09
880.681	34.13
880.854	3.41
881.026	-0.68
881.198	95.57
881.37	85.33
881.542	109.91
881.714	42.32
881.886	13.65
882.058	34.13
882.23	56.66
882.402	32.08
882.574	-8.87
882.746	44.37
882.918	144.72
883.09	44.37
883.262	128.34
883.434	13.65
883.606	-31.4
883.778	42.32
883.95	85.33
884.122	-8.87
884.293	27.99
884.465	17.75
884.637	105.81
884.809	46.42
884.98	95.57
885.152	77.14
885.324	126.29
885.496	-17.07
885.667	-6.83
885.839	40.28
886.011	93.52
886.182	68.95
886.354	62.8
886.525	44.37
886.697	71
886.869	25.94
887.04	11.61
887.212	99.67
887.383	71
887.555	87.38
887.726	36.18
887.897	-0.68
888.069	30.04
888.24	-6.83
888.412	-31.4
888.583	17.75
888.754	-17.07
888.926	64.85
889.097	-51.88
889.268	-15.02
889.44	32.08
889.611	64.85
889.782	1.37
889.953	-35.5
890.125	81.24
890.296	7.51
890.467	36.18
890.638	-6.83
890.809	75.09
890.98	-39.59
891.151	101.72
891.323	36.18
891.494	30.04
891.665	83.28
891.836	-17.07
892.007	40.28
892.178	48.47
892.349	9.56
892.52	1.37
892.691	77.14
892.862	-27.31
893.032	-58.03
893.203	-82.6
893.374	3.41
893.545	91.48
893.716	-39.59
893.887	44.37
894.057	38.23
894.228	52.56
894.399	-6.83
894.57	52.56
894.74	46.42
894.911	-41.64
895.082	-15.02
895.253	-15.02
895.423	62.8
895.594	81.24
895.764	52.56
895.935	52.56
896.106	9.56
896.276	13.65
896.447	36.18
896.617	32.08
896.788	-23.21
896.958	-6.83
897.129	15.7
897.299	19.8
897.47	36.18
897.64	111.96
897.81	73.04
897.981	-8.87
898.151	-21.16
898.322	54.61
898.492	9.56
898.662	38.23
898.832	19.8
899.003	-6.83
899.173	109.91
899.343	27.99
899.513	-98.99
