Data from USB4F104151__82__12-42-26-686.txt Node

Date: Fri Mar 14 12:42:26 EDT 2025
User: louis
Spectrometer: USB4F10415
Trigger mode: 4
Integration Time (sec): 3.000000E-2
Scans to average: 1
Electric dark correction enabled: true
Nonlinearity correction enabled: false
Boxcar width: 0
XAxis mode: Wavelengths
Number of Pixels in Spectrum: 3648
>>>>>Begin Spectral Data<<<<<
178.204	-15.36
178.424	-15.36
178.644	-15.36
178.864	-97.28
179.084	-109.57
179.304	-21.5
179.524	-37.89
179.744	-15.36
179.964	7.17
180.184	-13.31
180.404	-37.89
180.624	-15.36
180.844	60.42
181.064	-48.13
181.283	91.13
181.503	19.46
181.723	11.26
181.943	-62.46
182.163	15.36
182.383	-68.61
182.602	70.65
182.822	66.56
183.042	41.98
183.262	125.95
183.482	74.75
183.701	5.12
183.921	-27.65
184.141	52.22
184.361	70.65
184.58	31.74
184.8	123.9
185.02	27.65
185.239	56.32
185.459	-3.07
185.679	111.61
185.898	56.32
186.118	-3.07
186.338	44.03
186.557	119.81
186.777	56.32
186.997	41.98
187.216	-50.18
187.436	84.99
187.655	68.61
187.875	84.99
188.095	46.08
188.314	97.28
188.534	105.47
188.753	31.74
188.973	82.94
189.192	52.22
189.412	13.31
189.631	39.94
189.851	89.09
190.07	113.66
190.29	-33.79
190.509	37.89
190.729	7.17
190.948	-15.36
191.168	218.11
191.387	25.6
191.607	-13.31
191.826	119.81
192.045	101.37
192.265	23.55
192.484	70.65
192.704	52.22
192.923	-54.27
193.142	87.04
193.362	64.51
193.581	138.24
193.8	84.99
194.02	33.79
194.239	60.42
194.458	19.46
194.678	80.89
194.897	48.13
195.116	37.89
195.335	99.33
195.555	95.23
195.774	60.42
195.993	103.42
196.212	5.12
196.432	-9.22
196.651	56.32
196.87	-44.03
197.089	52.22
197.308	-39.94
197.528	95.23
197.747	-29.7
197.966	25.6
198.185	107.52
198.404	56.32
198.623	29.7
198.842	62.46
199.062	113.66
199.281	97.28
199.5	66.56
199.719	35.84
199.938	78.85
200.157	113.66
200.376	95.23
200.595	105.47
200.814	-23.55
201.033	44.03
201.252	50.18
201.471	3.07
201.69	70.65
201.909	25.6
202.128	52.22
202.347	-25.6
202.566	56.32
202.785	39.94
203.004	-54.27
203.223	13.31
203.442	54.27
203.661	-3.07
203.879	19.46
204.098	25.6
204.317	130.05
204.536	37.89
204.755	44.03
204.974	39.94
205.193	7.17
205.411	113.66
205.63	31.74
205.849	93.18
206.068	29.7
206.287	60.42
206.505	46.08
206.724	17.41
206.943	64.51
207.162	105.47
207.381	27.65
207.599	35.84
207.818	87.04
208.037	1.02
208.255	-48.13
208.474	15.36
208.693	46.08
208.911	68.61
209.13	-11.26
209.349	82.94
209.567	117.76
209.786	58.37
210.005	130.05
210.223	25.6
210.442	-1.02
210.661	-5.12
210.879	46.08
211.098	37.89
211.316	13.31
211.535	44.03
211.753	58.37
211.972	62.46
212.191	1.02
212.409	23.55
212.628	44.03
212.846	76.8
213.065	41.98
213.283	21.5
213.502	50.18
213.72	60.42
213.938	52.22
214.157	142.33
214.375	101.37
214.594	80.89
214.812	76.8
215.031	52.22
215.249	5.12
215.467	72.7
215.686	31.74
215.904	99.33
216.122	-1.02
216.341	1.02
216.559	101.37
216.778	197.63
216.996	89.09
217.214	37.89
217.432	15.36
217.651	56.32
217.869	-11.26
218.087	-5.12
218.306	-33.79
218.524	35.84
218.742	-52.22
218.96	82.94
219.179	37.89
219.397	93.18
219.615	111.61
219.833	54.27
220.051	21.5
220.27	78.85
220.488	56.32
220.706	-21.5
220.924	39.94
221.142	115.71
221.36	64.51
221.578	29.7
221.796	87.04
222.015	80.89
222.233	39.94
222.451	64.51
222.669	-25.6
222.887	46.08
223.105	-21.5
223.323	109.57
223.541	58.37
223.759	44.03
223.977	117.76
224.195	70.65
224.413	56.32
224.631	140.29
224.849	72.7
225.067	138.24
225.285	52.22
225.503	66.56
225.721	-5.12
225.939	35.84
226.157	19.46
226.375	158.72
226.592	-3.07
226.81	74.75
227.028	105.47
227.246	107.52
227.464	56.32
227.682	95.23
227.9	89.09
228.117	11.26
228.335	27.65
228.553	-9.22
228.771	66.56
228.989	66.56
229.206	-87.04
229.424	-31.74
229.642	29.7
229.86	-27.65
230.077	50.18
230.295	21.5
230.513	117.76
230.731	-9.22
230.948	93.18
231.166	107.52
231.384	7.17
231.601	7.17
231.819	58.37
232.037	66.56
232.254	27.65
232.472	78.85
232.689	-1.02
232.907	89.09
233.125	-7.17
233.342	27.65
233.56	-3.07
233.777	60.42
233.995	74.75
234.213	52.22
234.43	31.74
234.648	-35.84
234.865	33.79
235.083	121.85
235.3	11.26
235.518	48.13
235.735	50.18
235.953	64.51
236.17	58.37
236.388	35.84
236.605	31.74
236.822	105.47
237.04	101.37
237.257	-25.6
237.475	-64.51
237.692	50.18
237.909	62.46
238.127	97.28
238.344	21.5
238.562	52.22
238.779	-27.65
238.996	27.65
239.214	27.65
239.431	101.37
239.648	-21.5
239.865	31.74
240.083	130.05
240.3	48.13
240.517	3.07
240.735	15.36
240.952	115.71
241.169	72.7
241.386	44.03
241.603	58.37
241.821	15.36
242.038	17.41
242.255	84.99
242.472	11.26
242.689	-7.17
242.907	111.61
243.124	46.08
243.341	25.6
243.558	1.02
243.775	72.7
243.992	-15.36
244.209	113.66
244.426	50.18
244.643	130.05
244.86	46.08
245.078	31.74
245.295	33.79
245.512	25.6
245.729	50.18
245.946	37.89
246.163	13.31
246.38	80.89
246.597	25.6
246.814	87.04
247.031	66.56
247.248	144.38
247.464	21.5
247.681	136.19
247.898	93.18
248.115	82.94
248.332	35.84
248.549	82.94
248.766	76.8
248.983	72.7
249.2	68.61
249.417	89.09
249.633	7.17
249.85	7.17
250.067	97.28
250.284	107.52
250.501	82.94
250.717	72.7
250.934	52.22
251.151	-25.6
251.368	39.94
251.585	84.99
251.801	82.94
252.018	7.17
252.235	78.85
252.451	58.37
252.668	56.32
252.885	31.74
253.102	29.7
253.318	-25.6
253.535	70.65
253.752	1.02
253.968	115.71
254.185	33.79
254.401	-11.26
254.618	15.36
254.835	23.55
255.051	138.24
255.268	7.17
255.484	144.38
255.701	33.79
255.917	70.65
256.134	-3.07
256.351	9.22
256.567	41.98
256.784	82.94
257	-15.36
257.217	99.33
257.433	87.04
257.65	97.28
257.866	50.18
258.082	33.79
258.299	15.36
258.515	105.47
258.732	3.07
258.948	54.27
259.165	84.99
259.381	64.51
259.597	58.37
259.814	-25.6
260.03	111.61
260.246	25.6
260.463	62.46
260.679	97.28
260.895	46.08
261.112	87.04
261.328	66.56
261.544	21.5
261.761	130.05
261.977	62.46
262.193	13.31
262.409	7.17
262.626	107.52
262.842	31.74
263.058	-44.03
263.274	89.09
263.49	107.52
263.707	74.75
263.923	123.9
264.139	-25.6
264.355	-9.22
264.571	54.27
264.787	66.56
265.004	97.28
265.22	66.56
265.436	39.94
265.652	31.74
265.868	87.04
266.084	-5.12
266.3	89.09
266.516	15.36
266.732	9.22
266.948	-9.22
267.164	15.36
267.38	48.13
267.596	48.13
267.812	128
268.028	1.02
268.244	27.65
268.46	91.13
268.676	107.52
268.892	97.28
269.108	-15.36
269.324	56.32
269.54	21.5
269.756	-5.12
269.972	-35.84
270.188	-23.55
270.403	56.32
270.619	91.13
270.835	87.04
271.051	27.65
271.267	21.5
271.483	56.32
271.698	89.09
271.914	82.94
272.13	82.94
272.346	7.17
272.562	-9.22
272.777	78.85
272.993	115.71
273.209	39.94
273.425	68.61
273.64	11.26
273.856	130.05
274.072	89.09
274.287	80.89
274.503	105.47
274.719	121.85
274.934	50.18
275.15	27.65
275.366	44.03
275.581	9.22
275.797	72.7
276.012	-9.22
276.228	39.94
276.444	48.13
276.659	175.1
276.875	23.55
277.09	-50.18
277.306	46.08
277.521	21.5
277.737	31.74
277.952	89.09
278.168	33.79
278.383	19.46
278.599	33.79
278.814	44.03
279.03	5.12
279.245	46.08
279.461	56.32
279.676	97.28
279.892	33.79
280.107	46.08
280.322	-31.74
280.538	44.03
280.753	56.32
280.969	117.76
281.184	41.98
281.399	109.57
281.615	82.94
281.83	70.65
282.045	-48.13
282.26	19.46
282.476	3.07
282.691	72.7
282.906	74.75
283.122	91.13
283.337	3.07
283.552	52.22
283.767	21.5
283.983	17.41
284.198	3.07
284.413	78.85
284.628	37.89
284.843	64.51
285.058	107.52
285.274	25.6
285.489	56.32
285.704	60.42
285.919	70.65
286.134	58.37
286.349	37.89
286.564	23.55
286.779	25.6
286.995	72.7
287.21	74.75
287.425	70.65
287.64	50.18
287.855	50.18
288.07	-39.94
288.285	52.22
288.5	132.09
288.715	62.46
288.93	105.47
289.145	80.89
289.36	39.94
289.575	-33.79
289.79	76.8
290.004	-13.31
290.219	93.18
290.434	130.05
290.649	48.13
290.864	35.84
291.079	78.85
291.294	62.46
291.509	80.89
291.724	46.08
291.938	46.08
292.153	68.61
292.368	115.71
292.583	1.02
292.798	48.13
293.012	99.33
293.227	72.7
293.442	-15.36
293.657	111.61
293.871	54.27
294.086	52.22
294.301	123.9
294.516	58.37
294.73	76.8
294.945	15.36
295.16	50.18
295.374	123.9
295.589	87.04
295.804	23.55
296.018	70.65
296.233	123.9
296.447	35.84
296.662	29.7
296.877	99.33
297.091	164.86
297.306	19.46
297.52	23.55
297.735	1.02
297.949	64.51
298.164	25.6
298.378	60.42
298.593	7.17
298.807	25.6
299.022	113.66
299.236	95.23
299.451	31.74
299.665	52.22
299.88	70.65
300.094	52.22
300.309	58.37
300.523	39.94
300.737	60.42
300.952	68.61
301.166	54.27
301.381	25.6
301.595	27.65
301.809	15.36
302.024	-1.02
302.238	101.37
302.452	78.85
302.667	50.18
302.881	117.76
303.095	105.47
303.309	19.46
303.524	54.27
303.738	70.65
303.952	52.22
304.166	99.33
304.381	19.46
304.595	111.61
304.809	119.81
305.023	74.75
305.237	-3.07
305.452	111.61
305.666	109.57
305.88	82.94
306.094	31.74
306.308	132.09
306.522	39.94
306.736	39.94
306.95	107.52
307.164	-25.6
307.379	160.77
307.593	68.61
307.807	31.74
308.021	82.94
308.235	37.89
308.449	-11.26
308.663	70.65
308.877	107.52
309.091	7.17
309.305	48.13
309.519	60.42
309.733	115.71
309.947	41.98
310.161	117.76
310.374	95.23
310.588	19.46
310.802	13.31
311.016	76.8
311.23	41.98
311.444	123.9
311.658	-35.84
311.872	113.66
312.085	93.18
312.299	138.24
312.513	177.15
312.727	-23.55
312.941	74.75
313.154	46.08
313.368	89.09
313.582	50.18
313.796	97.28
314.009	60.42
314.223	78.85
314.437	41.98
314.651	44.03
314.864	54.27
315.078	29.7
315.292	50.18
315.505	82.94
315.719	66.56
315.933	101.37
316.146	60.42
316.36	68.61
316.573	113.66
316.787	64.51
317.001	125.95
317.214	52.22
317.428	72.7
317.641	13.31
317.855	115.71
318.068	87.04
318.282	13.31
318.495	93.18
318.709	99.33
318.922	82.94
319.136	78.85
319.349	19.46
319.563	44.03
319.776	37.89
319.99	48.13
320.203	111.61
320.417	113.66
320.63	68.61
320.843	60.42
321.057	29.7
321.27	89.09
321.483	37.89
321.697	150.53
321.91	58.37
322.124	66.56
322.337	56.32
322.55	7.17
322.763	-31.74
322.977	-27.65
323.19	70.65
323.403	72.7
323.617	52.22
323.83	89.09
324.043	31.74
324.256	76.8
324.469	89.09
324.683	148.48
324.896	48.13
325.109	56.32
325.322	-17.41
325.535	82.94
325.748	60.42
325.962	23.55
326.175	27.65
326.388	121.85
326.601	109.57
326.814	41.98
327.027	95.23
327.24	54.27
327.453	5.12
327.666	91.13
327.879	41.98
328.092	44.03
328.305	101.37
328.518	89.09
328.731	70.65
328.944	119.81
329.157	54.27
329.37	27.65
329.583	101.37
329.796	56.32
330.009	125.95
330.222	121.85
330.435	44.03
330.648	103.42
330.861	56.32
331.073	25.6
331.286	25.6
331.499	41.98
331.712	70.65
331.925	80.89
332.138	64.51
332.35	162.81
332.563	54.27
332.776	97.28
332.989	-21.5
333.202	-9.22
333.414	33.79
333.627	44.03
333.84	-3.07
334.053	89.09
334.265	15.36
334.478	130.05
334.691	60.42
334.903	117.76
335.116	-54.27
335.329	64.51
335.541	56.32
335.754	171.01
335.966	-7.17
336.179	84.99
336.392	62.46
336.604	46.08
336.817	27.65
337.029	72.7
337.242	64.51
337.454	64.51
337.667	99.33
337.88	80.89
338.092	105.47
338.305	103.42
338.517	111.61
338.729	142.33
338.942	84.99
339.154	74.75
339.367	58.37
339.579	130.05
339.792	31.74
340.004	89.09
340.217	-5.12
340.429	15.36
340.641	70.65
340.854	89.09
341.066	154.62
341.278	125.95
341.491	128
341.703	154.62
341.915	123.9
342.128	138.24
342.34	89.09
342.552	21.5
342.764	76.8
342.977	39.94
343.189	39.94
343.401	113.66
343.613	99.33
343.826	46.08
344.038	76.8
344.25	146.43
344.462	56.32
344.674	132.09
344.886	70.65
345.099	150.53
345.311	95.23
345.523	37.89
345.735	76.8
345.947	113.66
346.159	138.24
346.371	117.76
346.583	91.13
346.795	113.66
347.007	-5.12
347.219	76.8
347.431	62.46
347.643	58.37
347.855	54.27
348.067	138.24
348.279	89.09
348.491	72.7
348.703	125.95
348.915	121.85
349.127	115.71
349.339	58.37
349.551	52.22
349.763	103.42
349.975	91.13
350.187	119.81
350.399	105.47
350.61	105.47
350.822	17.41
351.034	123.9
351.246	52.22
351.458	66.56
351.669	72.7
351.881	52.22
352.093	70.65
352.305	132.09
352.517	142.33
352.728	136.19
352.94	68.61
353.152	80.89
353.363	19.46
353.575	68.61
353.787	89.09
353.999	89.09
354.21	97.28
354.422	9.22
354.633	101.37
354.845	52.22
355.057	87.04
355.268	29.7
355.48	60.42
355.692	19.46
355.903	70.65
356.115	82.94
356.326	-7.17
356.538	33.79
356.749	121.85
356.961	105.47
357.172	80.89
357.384	91.13
357.595	117.76
357.807	78.85
358.018	72.7
358.23	130.05
358.441	97.28
358.653	115.71
358.864	-13.31
359.075	91.13
359.287	99.33
359.498	80.89
359.709	95.23
359.921	142.33
360.132	91.13
360.344	68.61
360.555	21.5
360.766	54.27
360.977	35.84
361.189	136.19
361.4	74.75
361.611	156.67
361.823	105.47
362.034	27.65
362.245	41.98
362.456	70.65
362.667	48.13
362.879	46.08
363.09	21.5
363.301	115.71
363.512	25.6
363.723	87.04
363.935	44.03
364.146	66.56
364.357	146.43
364.568	56.32
364.779	105.47
364.99	70.65
365.201	50.18
365.412	113.66
365.623	39.94
365.834	87.04
366.045	64.51
366.256	50.18
366.467	74.75
366.678	76.8
366.889	66.56
367.1	115.71
367.311	111.61
367.522	17.41
367.733	37.89
367.944	140.29
368.155	72.7
368.366	142.33
368.577	97.28
368.788	115.71
368.999	134.14
369.209	23.55
369.42	101.37
369.631	125.95
369.842	56.32
370.053	128
370.264	66.56
370.474	62.46
370.685	41.98
370.896	39.94
371.107	50.18
371.317	115.71
371.528	115.71
371.739	82.94
371.95	56.32
372.16	144.38
372.371	44.03
372.582	78.85
372.792	105.47
373.003	-7.17
373.214	29.7
373.424	150.53
373.635	130.05
373.846	11.26
374.056	156.67
374.267	123.9
374.477	33.79
374.688	35.84
374.898	166.91
375.109	60.42
375.319	128
375.53	111.61
375.74	140.29
375.951	111.61
376.161	70.65
376.372	171.01
376.582	-1.02
376.793	185.34
377.003	37.89
377.214	103.42
377.424	80.89
377.635	146.43
377.845	91.13
378.055	89.09
378.266	101.37
378.476	148.48
378.686	44.03
378.897	97.28
379.107	78.85
379.317	84.99
379.528	11.26
379.738	162.81
379.948	70.65
380.158	105.47
380.369	87.04
380.579	80.89
380.789	121.85
380.999	74.75
381.21	72.7
381.42	211.96
381.63	162.81
381.84	29.7
382.05	56.32
382.261	107.52
382.471	140.29
382.681	46.08
382.891	121.85
383.101	105.47
383.311	-7.17
383.521	70.65
383.731	68.61
383.941	113.66
384.151	93.18
384.361	152.57
384.571	125.95
384.781	37.89
384.991	160.77
385.201	132.09
385.411	128
385.621	140.29
385.831	68.61
386.041	84.99
386.251	33.79
386.461	76.8
386.671	54.27
386.881	103.42
387.091	132.09
387.301	158.72
387.511	134.14
387.72	130.05
387.93	113.66
388.14	64.51
388.35	117.76
388.56	113.66
388.769	76.8
388.979	84.99
389.189	146.43
389.399	78.85
389.609	148.48
389.818	125.95
390.028	72.7
390.238	144.38
390.447	121.85
390.657	119.81
390.867	56.32
391.076	9.22
391.286	125.95
391.496	52.22
391.705	130.05
391.915	156.67
392.125	52.22
392.334	91.13
392.544	177.15
392.753	144.38
392.963	121.85
393.172	91.13
393.382	33.79
393.591	91.13
393.801	142.33
394.01	199.68
394.22	117.76
394.429	111.61
394.639	121.85
394.848	113.66
395.058	125.95
395.267	107.52
395.477	132.09
395.686	150.53
395.895	134.14
396.105	193.53
396.314	181.25
396.524	154.62
396.733	82.94
396.942	203.77
397.152	95.23
397.361	195.58
397.57	113.66
397.78	87.04
397.989	140.29
398.198	189.44
398.407	82.94
398.617	193.53
398.826	164.86
399.035	152.57
399.244	89.09
399.453	123.9
399.663	136.19
399.872	218.11
400.081	132.09
400.29	248.83
400.499	224.25
400.708	197.63
400.917	121.85
401.127	191.49
401.336	138.24
401.545	199.68
401.754	238.59
401.963	154.62
402.172	199.68
402.381	195.58
402.59	117.76
402.799	154.62
403.008	246.78
403.217	267.26
403.426	185.34
403.635	209.92
403.844	154.62
404.053	222.2
404.262	220.16
404.471	297.98
404.68	244.73
404.888	216.06
405.097	201.72
405.306	240.64
405.515	242.68
405.724	154.62
405.933	234.49
406.142	273.4
406.35	281.6
406.559	261.12
406.768	308.22
406.977	310.27
407.185	265.21
407.394	304.12
407.603	236.54
407.812	308.22
408.02	371.71
408.229	289.79
408.438	261.12
408.646	351.23
408.855	322.56
409.064	410.62
409.272	388.09
409.481	433.15
409.69	402.43
409.898	400.38
410.107	416.76
410.315	408.57
410.524	484.34
410.733	506.87
410.941	539.64
411.15	596.98
411.358	494.58
411.567	623.61
411.775	545.78
411.984	603.13
412.192	543.74
412.401	588.79
412.609	670.71
412.818	670.71
413.026	678.9
413.234	803.83
413.443	746.48
413.651	787.44
413.86	777.2
414.068	895.99
414.276	904.18
414.485	883.7
414.693	1010.67
414.901	1022.96
415.11	1002.48
415.318	1022.96
415.526	1037.3
415.734	1100.78
415.943	1154.03
416.151	1047.54
416.359	1176.56
416.567	1262.57
416.776	1354.73
416.984	1289.2
417.192	1377.26
417.4	1315.82
417.608	1385.45
417.817	1493.99
418.025	1522.66
418.233	1625.06
418.441	1580.01
418.649	1590.25
418.857	1788.9
419.065	1795.04
419.273	1815.52
419.481	1905.63
419.689	2030.56
419.897	2038.75
420.105	2132.96
420.313	2225.12
420.521	2333.66
420.729	2317.28
420.937	2309.08
421.145	2366.43
421.353	2495.45
421.561	2573.27
421.769	2784.21
421.977	2929.62
422.185	2876.37
422.393	3140.56
422.601	3105.74
422.809	3165.14
423.017	3228.62
423.224	3412.94
423.432	3378.12
423.64	3419.08
423.848	4006.85
424.056	3687.37
424.263	4105.15
424.471	4058.05
424.679	4101.06
424.887	4299.71
425.094	4486.08
425.302	4461.5
425.51	4664.25
425.718	4877.24
425.925	4797.37
426.133	4889.53
426.341	5147.57
426.548	5438.38
426.756	5581.74
426.964	5641.13
427.171	5837.73
427.379	6077.35
427.586	6239.14
427.794	6226.85
428.001	6632.35
428.209	6890.39
428.417	6826.9
428.624	7496.59
428.832	7408.53
429.039	7310.22
429.247	7291.79
429.454	7885.7
429.662	8250.24
429.869	7654.28
430.076	8301.44
430.284	8283.01
430.491	8594.3
430.699	8889.21
430.906	8979.32
431.114	9173.88
431.321	9710.44
431.528	9827.18
431.736	10294.11
431.943	10789.72
432.15	10568.54
432.358	10707.8
432.565	11101.01
432.772	11043.67
432.979	11686.73
433.187	11946.83
433.394	11985.74
433.601	12892.99
433.808	12979
434.016	12772.16
434.223	13245.24
434.43	13966.12
434.637	13824.81
434.844	14592.8
435.052	15166.23
435.259	14924.57
435.466	15117.08
435.673	14990.11
435.88	15973.13
436.087	17005.31
436.294	16919.29
436.501	16311.05
436.708	16790.27
436.915	17208.06
437.122	18078.44
437.329	18143.98
437.537	18406.12
437.743	18731.75
437.95	18600.68
438.157	19600.08
438.364	20634.31
438.571	20173.52
438.778	20120.27
438.985	22549.16
439.192	21453.5
439.399	22276.78
439.606	21666.49
439.813	22571.69
440.02	24281.74
440.227	23837.33
440.433	23491.23
440.64	24160.91
440.847	24066.7
441.054	25019.01
441.261	26313.33
441.467	26149.49
441.674	26679.91
441.881	27814.49
442.088	27380.32
442.294	27554.4
442.501	28103.25
442.708	28942.92
442.914	29700.67
443.121	31040.04
443.328	30020.15
443.534	32397.84
443.741	31095.33
443.948	31308.32
444.154	33171.97
444.361	32782.86
444.568	32950.79
444.774	33184.26
444.981	33454.59
445.187	34791.92
445.394	35891.68
445.6	35582.43
445.807	38760.88
446.013	37470.66
446.22	37988.8
446.426	39481.77
446.633	39637.41
446.839	40876.43
447.046	39535.01
447.252	41468.3
447.459	41759.11
447.665	41572.74
447.871	43514.22
448.078	45529.42
448.284	43295.08
448.491	44278.11
448.697	45719.88
448.903	46735.67
449.11	46692.66
449.316	46104.9
449.522	46874.93
449.728	48474.4
449.935	48507.16
450.141	48322.85
450.347	49629.45
450.553	48113.95
450.76	48773.4
450.966	50739.45
451.172	49893.64
451.378	51005.69
451.584	50069.76
451.791	51106.04
451.997	51495.15
452.203	51761.39
452.409	52013.29
452.615	51304.69
452.821	50043.14
453.027	49283.34
453.233	51718.38
453.44	49834.25
453.646	50735.35
453.852	50616.57
454.058	51179.76
454.264	50104.58
454.47	50960.63
454.676	49707.27
454.882	51679.47
455.088	47020.34
455.294	48224.54
455.5	48541.98
455.705	49025.3
455.911	46776.63
456.117	46190.91
456.323	45842.76
456.529	43639.14
456.735	45254.99
456.941	44276.06
457.147	43225.45
457.352	42248.57
457.558	41683.33
457.764	41908.61
457.97	40683.92
458.176	39917.98
458.381	40589.72
458.587	38115.77
458.793	38285.75
458.999	36489.68
459.204	38906.29
459.41	37761.47
459.616	35422.69
459.821	35215.85
460.027	35295.72
460.233	34374.13
460.438	32774.67
460.644	32956.94
460.85	31605.28
461.055	31074.85
461.261	31021.61
461.466	28633.68
461.672	27841.11
461.878	29889.08
462.083	27808.34
462.289	27449.95
462.494	27310.69
462.7	26094.19
462.905	25168.51
463.111	26088.05
463.316	26251.89
463.522	25299.58
463.727	25770.61
463.932	25780.85
464.138	25424.51
464.343	25307.77
464.549	24734.34
464.754	25307.77
464.959	25307.77
465.165	25219.71
465.37	24031.89
465.575	23536.28
465.781	24304.27
465.986	24640.14
466.191	23597.72
466.397	23364.25
466.602	21977.78
466.807	22966.95
467.012	22932.13
467.218	22747.81
467.423	22588.07
467.628	22684.33
467.833	23669.4
468.038	22639.27
468.244	22110.89
468.449	22862.5
468.654	22180.53
468.859	22069.94
469.064	21924.53
469.269	21230.27
469.474	21297.85
469.679	21529.27
469.885	21013.18
470.09	21453.5
470.295	20914.88
470.5	20613.83
470.705	20533.96
470.91	20372.17
471.115	20411.08
471.32	20460.23
471.525	20296.39
471.73	19878.61
471.935	19804.88
472.139	18963.17
472.344	19493.59
472.549	19006.17
472.754	18989.79
472.959	18662.12
473.164	18131.69
473.369	18164.46
473.574	18787.04
473.778	18479.85
473.983	18180.84
474.188	18103.02
474.393	17359.61
474.598	17390.33
474.802	17222.39
475.007	17195.77
475.212	17351.42
475.417	16481.03
475.621	16595.71
475.826	16581.38
476.031	16321.29
476.235	16085.77
476.44	16270.09
476.645	15858.45
476.849	16132.87
477.054	15657.75
477.259	15487.76
477.463	15719.18
477.668	15014.68
477.872	15362.84
478.077	14957.34
478.282	14723.87
478.486	14486.31
478.691	14420.77
478.895	14271.27
479.1	14439.2
479.304	14353.19
479.509	13908.78
479.713	14226.21
479.918	13910.83
480.122	13407.03
480.326	13912.88
480.531	13693.74
480.735	13515.57
480.94	13433.65
481.144	14093.1
481.348	13204.28
481.553	13382.45
481.757	13050.68
481.961	13288.25
482.166	13816.62
482.37	13519.67
482.574	13138.74
482.778	13388.6
482.983	13337.4
483.187	13357.88
483.391	13366.07
483.595	13026.11
483.8	12852.03
484.004	13087.54
484.208	13433.65
484.412	13118.26
484.616	13296.44
484.821	13228.85
485.025	13015.87
485.229	13480.75
485.433	13194.04
485.637	13321.01
485.841	13038.39
486.045	13187.89
486.249	13306.68
486.453	12708.67
486.657	13196.09
486.861	13151.03
487.065	12884.8
487.269	13126.46
487.473	12860.22
487.677	13114.17
487.881	13214.52
488.085	13175.61
488.289	13292.34
488.493	13198.13
488.697	13228.85
488.901	13245.24
489.105	13222.71
489.309	13402.93
489.512	13370.16
489.716	13257.53
489.92	13300.53
490.124	13314.87
490.328	13536.05
490.531	13431.6
490.735	13681.46
490.939	13462.32
491.143	13499.19
491.346	13546.29
491.55	13583.15
491.754	13873.96
491.958	13536.05
492.161	13880.11
492.365	13867.82
492.569	13798.19
492.772	13654.83
492.976	13943.6
493.18	13802.29
493.383	14277.41
493.587	14105.38
493.79	14275.37
493.994	14152.49
494.197	14371.62
494.401	14611.23
494.605	14478.12
494.808	14801.69
495.012	14805.79
495.215	14754.59
495.419	15022.87
495.622	14789.41
495.825	15067.93
496.029	15215.38
496.232	15448.85
496.436	15301.4
496.639	15786.77
496.843	15676.18
497.046	16268.04
497.249	16233.22
497.453	16096.01
497.656	16397.06
497.859	16374.53
498.063	16388.87
498.266	16952.06
498.469	16749.31
498.673	16954.11
498.876	17310.46
499.079	17629.94
499.282	17443.57
499.485	17902.32
499.689	17804.02
499.892	18184.94
500.095	18199.27
500.298	18698.98
500.501	18346.73
500.705	18811.62
500.908	19094.24
501.111	19186.4
501.314	19389.14
501.517	19854.03
501.72	19915.47
501.923	19870.42
502.126	20394.7
502.329	20495.05
502.532	20714.18
502.735	20773.57
502.938	21185.21
503.141	21193.4
503.344	21697.2
503.547	21861.04
503.75	22059.7
503.953	22127.28
504.156	22428.33
504.359	22745.76
504.562	22780.58
504.765	23300.76
504.968	23620.25
505.17	23751.32
505.373	23571.1
505.576	24011.41
505.779	24507.02
505.982	24744.58
506.185	24978.05
506.387	25121.41
506.59	25201.28
506.793	25901.68
506.996	25455.23
507.198	26184.3
507.401	26253.94
507.604	26509.93
507.807	26868.33
508.009	26890.85
508.212	27378.27
508.415	27794.01
508.617	27947.61
508.82	27753.05
509.022	27900.5
509.225	28482.13
509.428	29141.57
509.63	29053.51
509.833	29563.45
510.035	29694.52
510.238	29764.15
510.44	30214.71
510.643	30532.14
510.845	30499.37
511.048	30501.42
511.25	31089.19
511.453	31386.15
511.655	32412.18
511.858	31658.52
512.06	32471.57
512.262	32590.35
512.465	32545.3
512.667	33073.67
512.87	33528.32
513.072	33487.36
513.274	34079.22
513.477	34159.09
513.679	34613.74
513.881	34810.35
514.084	34990.57
514.286	34978.28
514.488	35314.15
514.69	36426.2
514.893	36497.88
515.095	36338.13
515.297	36860.37
515.499	36934.09
515.701	37654.98
515.904	37732.8
516.106	37736.9
516.308	38556.08
516.51	38775.22
516.712	38523.32
516.914	38975.92
517.116	39614.88
517.318	39473.57
517.52	39588.26
517.722	39903.65
517.925	40581.52
518.127	40964.49
518.329	41173.39
518.531	40825.23
518.733	41679.24
518.935	42150.27
519.136	42125.69
519.338	42379.64
519.54	42785.14
519.742	43221.36
519.944	43209.07
520.146	43964.77
520.348	44138.85
520.55	43932
520.752	44073.31
520.954	45283.66
521.155	44556.63
521.357	45234.51
521.559	45740.36
521.761	45971.78
521.963	46070.08
522.164	46086.46
522.366	46324.03
522.568	46786.87
522.77	47106.35
522.971	47694.12
523.173	47001.91
523.375	47743.27
523.576	47749.42
523.778	47790.37
523.98	48455.96
524.181	48187.68
524.383	48425.25
524.584	48783.64
524.786	49013.01
524.988	48883.99
525.189	49635.59
525.391	49541.39
525.592	50102.53
525.794	50204.93
525.995	49864.97
526.197	49899.78
526.398	50292.99
526.6	50592
526.801	50548.99
527.003	51153.14
527.204	50776.31
527.406	51097.84
527.607	50829.56
527.808	51689.71
528.01	50696.44
528.211	51245.3
528.412	52041.96
528.614	51884.26
528.815	51816.68
529.016	52347.11
529.218	51869.93
529.419	51849.45
529.62	52406.5
529.822	52001
530.023	52074.73
530.224	51874.02
530.425	52156.64
530.626	52054.25
530.828	51931.37
531.029	52748.51
531.23	52205.8
531.431	52324.58
531.632	52492.51
531.833	52594.91
532.035	52578.53
532.236	52764.89
532.437	52852.95
532.638	52525.28
532.839	53057.75
533.04	53233.88
533.241	52635.87
533.442	53430.48
533.643	52811.99
533.844	53049.56
534.045	53215.44
534.246	52394.21
534.447	53143.77
534.648	52545.76
534.849	52818.14
535.05	52705.5
535.251	52717.79
535.451	52586.72
535.652	52867.29
535.853	53285.07
536.054	53045.46
536.255	53098.71
536.456	52416.74
536.657	53467.34
536.857	52811.99
537.058	52498.65
537.259	53489.87
537.46	52707.55
537.66	52820.19
537.861	53084.37
538.062	52496.61
538.263	52701.4
538.463	52396.26
538.664	52584.67
538.865	52908.25
539.065	53250.26
539.266	52377.82
539.466	53135.57
539.667	52453.6
539.868	53049.56
540.068	52547.81
540.269	52627.68
540.469	52826.33
540.67	52531.42
540.87	52680.92
541.071	52766.94
541.271	53086.42
541.472	53033.17
541.672	52377.82
541.873	52148.45
542.073	51697.9
542.274	52639.96
542.474	52351.2
542.675	52150.5
542.875	52852.95
543.075	52127.97
543.276	52279.52
543.476	52402.4
543.676	52433.12
543.877	52240.61
544.077	52271.33
544.277	51874.02
544.478	51630.32
544.678	52359.39
544.878	51806.44
545.078	52181.22
545.279	52068.58
545.479	51865.83
545.679	51775.72
545.879	51906.79
546.079	52140.26
546.28	51767.53
546.48	51761.39
546.68	52054.25
546.88	51939.56
547.08	51634.41
547.28	51831.02
547.48	51673.32
547.68	52015.33
547.88	51587.31
548.081	51917.03
548.281	52265.19
548.481	51949.8
548.681	52213.99
548.881	52021.48
549.081	51618.03
549.28	51349.74
549.48	51478.77
549.68	51585.26
549.88	52115.68
550.08	51284.21
550.28	51718.38
550.48	51681.52
550.68	52031.72
550.88	51636.46
551.08	51443.95
551.279	51802.35
551.479	50995.45
551.679	51912.94
551.879	51300.59
552.079	51675.37
552.278	50751.74
552.478	51935.46
552.678	51314.93
552.878	51804.39
553.077	51218.67
553.277	51015.93
553.477	51810.54
553.676	51525.87
553.876	51079.41
554.076	50804.98
554.275	51206.39
554.475	50788.6
554.674	51534.06
554.874	51419.38
555.074	51106.04
555.273	51327.22
555.473	50927.86
555.672	50663.67
555.872	50456.83
556.071	50854.14
556.271	51173.62
556.47	50583.8
556.67	50663.67
556.869	50688.25
557.068	51200.24
557.268	50573.56
557.467	50426.11
557.667	50456.83
557.866	50133.25
558.065	50336
558.265	50223.36
558.464	50346.24
558.663	50465.02
558.863	49623.31
559.062	50761.98
559.261	49940.74
559.461	50276.61
559.66	49445.13
559.859	50075.91
560.058	49389.84
560.258	50039.04
560.457	49709.32
560.656	50241.79
560.855	49881.35
561.054	50178.31
561.253	49457.42
561.453	49531.15
561.652	49797.38
561.851	49539.34
562.05	49129.75
562.249	48892.18
562.448	49789.19
562.647	49430.8
562.846	49463.57
563.045	49381.65
563.244	49029.4
563.443	49559.82
563.642	48423.2
563.841	49178.9
564.04	48654.62
564.239	49451.28
564.438	48320.8
564.637	48683.29
564.836	48963.86
565.035	48150.82
565.234	48515.36
565.432	48142.63
565.631	48449.82
565.83	48453.92
566.029	48062.75
566.228	48042.27
566.427	48122.15
566.625	47659.3
566.824	47208.75
567.023	48038.18
567.222	46887.22
567.42	47671.59
567.619	47839.53
567.818	47513.9
568.016	47561
568.215	48044.32
568.414	47360.3
568.612	47753.51
568.811	47298.86
569.01	47298.86
569.208	46700.86
569.407	47061.3
569.605	46790.97
569.804	47454.51
570.002	46465.34
570.201	47145.26
570.4	46674.23
570.598	46346.56
570.797	46496.06
570.995	46770.49
571.193	45959.49
571.392	46686.52
571.59	46010.69
571.789	46201.15
571.987	46160.19
572.186	45664.58
572.384	46092.61
572.582	45971.78
572.781	46006.59
572.979	45177.17
573.177	46029.12
573.376	45619.53
573.574	45349.2
573.772	45930.82
573.971	45044.05
574.169	44996.95
574.367	45201.74
574.565	45230.41
574.763	44915.03
574.962	44958.03
575.16	44181.85
575.358	44618.07
575.556	44218.72
575.754	45111.63
575.952	44149.09
576.151	44255.58
576.349	44114.27
576.547	44116.32
576.745	44343.64
576.943	43856.23
577.141	43905.38
577.339	44403.03
577.537	43886.95
577.735	43649.38
577.933	43692.39
578.131	43321.71
578.329	43006.32
578.527	42934.64
578.725	43157.87
578.923	43510.12
579.121	42946.93
579.319	42912.11
579.516	43043.18
579.714	43071.85
579.912	42865.01
580.11	42727.8
580.308	42678.64
580.506	42385.79
580.704	41863.55
580.901	42051.97
581.099	42320.25
581.297	42152.32
581.495	41654.66
581.692	42084.73
581.89	41654.66
582.088	42254.72
582.285	41533.83
582.483	41830.79
582.681	41664.9
582.878	41081.23
583.076	41359.75
583.274	41036.17
583.471	40749.46
583.669	40825.23
583.866	40720.79
584.064	41050.51
584.262	40501.65
584.459	40896.91
584.657	40182.17
584.854	40749.46
585.052	39895.46
585.249	40571.28
585.447	40485.27
585.644	39942.56
585.841	39821.73
586.039	40024.48
586.236	39545.25
586.434	39387.56
586.631	39723.43
586.828	39459.24
587.026	39430.57
587.223	39371.18
587.42	39299.5
587.618	39020.97
587.815	38889.9
588.012	39039.4
588.21	38656.43
588.407	39268.78
588.604	38414.77
588.801	38058.43
588.999	38275.51
589.196	37958.08
589.393	37964.22
589.59	38126.01
589.787	37859.77
589.984	37986.75
590.182	37534.15
590.379	37837.25
590.576	37493.19
590.773	37861.82
590.97	37304.77
591.167	37347.78
591.364	36579.79
591.561	37149.13
591.758	36518.35
591.955	36784.59
592.152	36471.25
592.349	36714.96
592.546	36530.64
592.743	36641.23
592.94	36305.37
593.137	36243.93
593.334	36340.18
593.531	36186.58
593.727	36237.78
593.924	36170.2
594.121	35891.68
594.318	35629.54
594.515	35447.27
594.712	35693.02
594.908	35269.09
595.105	35379.68
595.302	35262.95
595.499	35160.55
595.696	35240.42
595.892	34916.84
596.089	35183.08
596.286	34767.34
596.482	34855.4
596.679	34238.97
596.876	34732.53
597.072	34413.04
597.269	34542.06
597.466	34355.7
597.662	33856
597.859	34306.55
598.055	34124.28
598.252	33706.49
598.448	34433.52
598.645	33731.07
598.841	33309.19
599.038	33600
599.234	33716.73
599.431	33057.29
599.627	33008.14
599.824	33495.55
600.02	32887.31
600.217	33237.51
600.413	32946.7
600.609	32471.57
600.806	32606.73
601.002	32451.09
601.198	32702.99
601.395	32078.36
601.591	32373.27
601.787	32238.1
601.984	31803.93
602.18	32252.44
602.376	31779.36
602.572	31457.82
602.769	31799.83
602.965	31617.57
603.161	31785.5
603.357	31263.27
603.553	31054.37
603.75	31216.16
603.946	31212.07
604.142	31263.27
604.338	30497.33
604.534	30685.74
604.73	30765.61
604.926	30698.03
605.122	30612.01
605.318	30648.88
605.514	30773.8
605.71	30384.69
605.906	30274.1
606.102	30241.33
606.298	30439.98
606.494	30149.17
606.69	30364.21
606.886	30216.75
607.082	29874.74
607.278	29952.57
607.474	29639.23
607.67	29903.42
607.866	29356.61
608.062	29788.73
608.257	29325.89
608.453	29444.67
608.649	29473.34
608.845	29268.55
609.041	29260.35
609.236	28975.69
609.432	29268.55
609.628	29076.04
609.824	28883.53
610.019	28830.28
610.215	28987.97
610.411	28981.83
610.606	28787.27
610.802	28715.59
610.998	28727.88
611.193	28701.26
611.389	28668.49
611.584	28580.43
611.78	28224.08
611.976	28508.75
612.171	28437.07
612.367	28432.97
612.562	28260.94
612.758	27920.98
612.953	27902.55
613.149	28084.82
613.344	27474.52
613.539	28146.26
613.735	27746.9
613.93	28056.15
614.126	27769.43
614.321	28240.47
614.517	27818.58
614.712	27828.82
614.907	27515.48
615.103	27527.77
615.298	27486.81
615.493	28035.67
615.688	27312.74
615.884	27628.12
616.079	27273.82
616.274	27421.28
616.47	27187.81
616.665	27327.07
616.86	27130.47
617.055	26929.77
617.25	26806.89
617.445	26927.72
617.641	26540.65
617.836	26712.68
618.031	26890.85
618.226	26839.65
618.421	26638.95
618.616	26942.05
618.811	26268.27
619.006	26370.67
619.201	25827.96
619.396	25965.17
619.591	25811.57
619.786	26151.54
619.981	25223.81
620.176	26147.44
620.371	25387.64
620.566	25574.01
620.761	25416.32
620.956	25621.11
621.151	25188.99
621.346	25301.63
621.541	24670.86
621.735	25332.35
621.93	24500.87
622.125	24758.92
622.32	24365.71
622.515	24459.91
622.709	24396.43
622.904	24369.8
623.099	24158.86
623.294	23851.67
623.488	23726.74
623.683	23970.45
623.878	23589.53
624.072	23534.23
624.267	23456.41
624.462	23284.38
624.656	22878.88
624.851	22721.19
625.046	22971.04
625.24	22921.89
625.435	22385.32
625.629	22786.72
625.824	22241.96
626.018	22422.19
626.213	21791.41
626.407	22346.41
626.602	21805.75
626.796	21887.67
626.991	21963.44
627.185	21725.88
627.38	21525.18
627.574	21400.25
627.768	21043.9
627.963	21150.4
628.157	20789.95
628.352	21080.77
628.546	20515.53
628.74	20835.01
628.935	20513.48
629.129	20636.36
629.323	20267.72
629.517	20394.7
629.712	20392.65
629.906	20304.59
630.1	20032.21
630.294	20093.65
630.489	19870.42
630.683	20019.92
630.877	19339.99
631.071	19460.82
631.265	19337.94
631.459	19192.54
631.653	18920.16
631.848	19182.3
632.042	18914.02
632.236	19174.11
632.43	18705.12
632.624	18823.9
632.818	18709.22
633.012	18246.38
633.206	18332.39
633.4	18440.93
633.594	18236.14
633.788	17965.81
633.982	17980.14
634.176	17894.13
634.369	17797.87
634.563	17871.6
634.757	17687.28
634.951	17734.39
635.145	17595.12
635.339	17527.54
635.533	17386.23
635.726	17226.49
635.92	17136.38
636.114	17195.77
636.308	17031.93
636.501	16761.6
636.695	16988.92
636.889	16509.7
637.083	16538.37
637.276	16560.9
637.47	16636.67
637.664	16263.94
637.857	16628.48
638.051	16433.93
638.244	15969.04
638.438	15977.23
638.632	16069.39
638.825	15727.38
639.019	15948.56
639.212	15807.25
639.406	15756.05
639.599	15880.97
639.793	15538.96
639.986	15268.63
640.18	15457.04
640.373	15354.65
640.567	15014.68
640.76	15260.44
640.954	15141.66
641.147	14699.3
641.34	14945.05
641.534	14752.54
641.727	14846.75
641.92	14609.19
642.114	14512.93
642.307	14435.11
642.5	14273.32
642.694	14244.65
642.887	14099.24
643.08	14459.68
643.273	14215.98
643.467	14203.69
643.66	14113.58
643.853	13873.96
644.046	13968.17
644.239	13781.81
644.432	13617.97
644.626	13435.7
644.819	13585.2
645.012	13421.36
645.205	13695.79
645.398	13364.02
645.591	13394.74
645.784	13153.08
645.977	13028.15
646.17	12995.39
646.363	12907.32
646.556	12876.6
646.749	12966.71
646.942	12935.99
647.135	12841.79
647.328	12610.37
647.521	12534.59
647.714	12424
647.907	12571.46
648.099	12424
648.292	12573.5
648.485	12428.1
648.678	12217.16
648.871	12032.84
649.064	12159.81
649.256	12217.16
649.449	12127.05
649.642	11959.11
649.835	11758.41
650.027	11821.9
650.22	11817.8
650.413	11785.04
650.605	11731.79
650.798	11570
650.991	11531.09
651.183	11367.25
651.376	11180.89
651.568	11299.67
651.761	11406.16
651.954	11383.63
652.146	11268.95
652.339	11113.3
652.531	10996.57
652.724	10916.7
652.916	10767.2
653.109	10949.46
653.301	10746.72
653.494	10922.84
653.686	10568.54
653.879	10754.91
654.071	10482.53
654.263	10511.2
654.456	10701.66
654.648	10492.77
654.84	10322.79
655.033	10371.94
655.225	10287.97
655.417	10191.72
655.61	10234.72
655.802	10083.17
655.994	10189.67
656.186	9997.16
656.379	9931.62
656.571	9857.9
656.763	9708.4
656.955	9907.05
657.148	9851.75
657.34	9732.97
657.532	9642.86
657.724	9636.72
657.916	9548.65
658.108	9493.36
658.3	9372.53
658.492	9390.96
658.684	9257.84
658.876	9415.54
659.068	9263.99
659.26	9249.65
659.452	9214.84
659.644	9202.55
659.836	8948.6
660.028	8919.93
660.22	9020.28
660.412	8858.49
660.604	8840.06
660.796	8835.96
660.988	8885.11
661.18	8670.08
661.372	8688.51
661.563	8821.63
661.755	8688.51
661.947	8768.38
662.139	8577.92
662.331	8315.78
662.522	8422.27
662.714	8442.75
662.906	8338.3
663.097	8459.13
663.289	8209.28
663.481	8164.23
663.673	8276.87
663.864	8264.58
664.056	8188.8
664.247	8201.09
664.439	8067.97
664.631	8158.08
664.822	7941
665.014	7969.67
665.205	7852.94
665.397	7787.4
665.588	7955.33
665.78	7754.63
665.971	7721.87
666.163	7781.26
666.354	7644.04
666.546	7635.85
666.737	7748.49
666.929	7570.32
667.12	7598.99
667.311	7558.03
667.503	7375.76
667.694	7408.53
667.885	7357.33
668.077	7347.09
668.268	7222.16
668.459	7127.96
668.651	7209.87
668.842	7183.25
669.033	7201.68
669.224	7121.81
669.416	7336.85
669.607	7003.03
669.798	6943.64
669.989	6933.4
670.18	6978.45
670.371	7015.32
670.563	6994.84
670.754	6908.82
670.945	6775.7
671.136	6882.2
671.327	6794.14
671.518	6865.82
671.709	6767.51
671.9	6806.42
672.091	6572.96
672.282	6747.03
672.473	6529.95
672.664	6661.02
672.855	6499.23
673.046	6511.52
673.237	6486.94
673.428	6644.63
673.619	6497.18
673.809	6384.54
674	6646.68
674.191	6558.62
674.382	6452.13
674.573	6335.39
674.764	6284.19
674.954	6294.43
675.145	6296.48
675.336	6398.88
675.527	6312.86
675.717	6146.98
675.908	6216.61
676.099	6253.47
676.289	6114.21
676.48	6239.14
676.671	6065.06
676.861	6149.03
677.052	5983.14
677.243	6036.39
677.433	5958.57
677.624	6042.53
677.814	5835.69
678.005	5831.59
678.195	5925.8
678.386	5809.06
678.576	5723.05
678.767	5886.89
678.957	5977
679.148	5864.36
679.338	5862.31
679.529	5817.26
679.719	5860.26
679.909	5843.88
680.1	5643.18
680.29	5622.7
680.481	5829.54
680.671	5688.23
680.861	5608.36
681.052	5723.05
681.242	5614.51
681.432	5757.86
681.622	5591.98
681.813	5567.4
682.003	5667.75
682.193	5573.55
682.383	5669.8
682.573	5526.44
682.764	5481.39
682.954	5501.87
683.144	5555.12
683.334	5616.55
683.524	5335.98
683.714	5426.09
683.904	5454.76
684.094	5305.26
684.284	5151.67
684.474	5403.57
684.664	5290.93
684.854	5411.76
685.044	5430.19
685.234	5350.32
685.424	5309.36
685.614	5133.23
685.804	5252.02
685.994	5163.95
686.184	5221.3
686.374	5225.39
686.564	5143.47
686.753	5041.08
686.943	4975.54
687.133	5100.47
687.323	4938.68
687.513	4989.88
687.702	4969.4
687.892	5016.5
688.082	4955.06
688.272	5024.69
688.461	4821.94
688.651	4864.95
688.841	4864.95
689.03	4869.05
689.22	4836.28
689.41	4780.98
689.599	4809.65
689.789	4680.63
689.979	4850.61
690.168	4754.36
690.358	4551.61
690.547	4721.59
690.737	4643.77
690.926	4666.3
691.116	4584.38
691.305	4537.27
691.495	4545.47
691.684	4381.63
691.874	4510.65
692.063	4512.7
692.252	4361.15
692.442	4322.24
692.631	4459.45
692.82	4295.61
693.01	4400.06
693.199	4285.37
693.388	4340.67
693.578	4152.26
693.767	4406.2
693.956	4309.95
694.146	4195.26
694.335	4164.54
694.524	4242.37
694.713	4123.59
694.902	4176.83
695.092	4191.17
695.281	3908.55
695.47	4066.24
695.659	4166.59
695.848	3963.84
696.037	3951.56
696.226	3963.84
696.415	4056
696.604	3963.84
696.793	3843.01
696.982	3933.12
697.171	3945.41
697.36	3752.9
697.549	3859.4
697.738	3810.25
697.927	3834.82
698.116	3767.24
698.305	3763.14
698.494	3855.3
698.683	3691.46
698.872	3867.59
699.061	3716.04
699.25	3779.53
699.438	3851.21
699.627	3652.55
699.816	3599.31
700.005	3644.36
700.193	3640.26
700.382	3591.11
700.571	3578.83
700.76	3501
700.948	3632.07
701.137	3541.96
701.326	3726.28
701.514	3670.98
701.703	3548.11
701.892	3476.43
702.08	3619.78
702.269	3625.93
702.457	3382.22
702.646	3564.49
702.834	3441.61
703.023	3494.86
703.212	3529.67
703.4	3484.62
703.589	3394.51
703.777	3378.12
703.965	3290.06
704.154	3214.29
704.342	3310.54
704.531	3353.55
704.719	3361.74
704.907	3349.45
705.096	3296.21
705.284	3339.21
705.472	3394.51
705.661	3417.04
705.849	3310.54
706.037	3298.25
706.226	3236.81
706.414	3392.46
706.602	3191.76
706.79	3367.88
706.979	3371.98
707.167	3285.97
707.355	3183.57
707.543	3234.77
707.731	3138.51
707.919	3310.54
708.107	3228.62
708.296	3191.76
708.484	3222.48
708.672	3218.38
708.86	3169.23
709.048	3165.14
709.236	3220.43
709.424	3400.65
709.612	3333.07
709.8	3144.66
709.988	3103.7
710.176	3316.69
710.364	3083.22
710.551	3216.33
710.739	3089.36
710.927	3310.54
711.115	3111.89
711.303	3335.12
711.491	3199.95
711.679	3177.42
711.866	3206.1
712.054	3285.97
712.242	2991.06
712.43	3136.46
712.617	3029.97
712.805	3132.37
712.993	3093.46
713.181	3152.85
713.368	3105.74
713.556	3027.92
713.744	3029.97
713.931	3036.11
714.119	3091.41
714.306	3158.99
714.494	3019.73
714.682	3042.26
714.869	2995.15
715.057	3068.88
715.244	3072.98
715.432	3146.7
715.619	2927.57
715.807	3017.68
715.994	3029.97
716.182	3124.18
716.369	3136.46
716.556	3025.87
716.744	3029.97
716.931	3148.75
717.119	2962.39
717.306	3046.35
717.493	3099.6
717.681	2999.25
717.868	2986.96
718.055	3015.63
718.242	3023.83
718.43	3021.78
718.617	2931.67
718.804	3046.35
718.991	3050.45
719.179	3068.88
719.366	2921.43
719.553	3036.11
719.74	3124.18
719.927	3032.02
720.114	3029.97
720.301	2935.76
720.488	3034.07
720.676	2958.29
720.863	2948.05
721.05	2966.48
721.237	3052.5
721.424	3058.64
721.611	3081.17
721.798	2978.77
721.985	3132.37
722.172	2931.67
722.358	2956.24
722.545	2999.25
722.732	2821.08
722.919	3021.78
723.106	3015.63
723.293	2931.67
723.48	2976.72
723.667	2950.1
723.853	2913.24
724.04	3146.7
724.227	2954.19
724.414	3058.64
724.6	2984.91
724.787	3101.65
724.974	3005.39
725.161	2995.15
725.347	2896.85
725.534	3005.39
725.72	2991.06
725.907	2958.29
726.094	3126.22
726.28	3050.45
726.467	2968.53
726.653	2931.67
726.84	3025.87
727.027	3023.83
727.213	2878.42
727.4	2984.91
727.586	3050.45
727.773	3032.02
727.959	3107.79
728.145	3015.63
728.332	3005.39
728.518	2972.63
728.705	3173.33
728.891	3122.13
729.077	3107.79
729.264	2995.15
729.45	3072.98
729.636	2982.87
729.823	3021.78
730.009	3056.59
730.195	3115.98
730.382	2980.82
730.568	3036.11
730.754	3068.88
730.94	3075.03
731.126	3212.24
731.313	3171.28
731.499	3181.52
731.685	3042.26
731.871	3113.94
732.057	3068.88
732.243	3066.83
732.429	3144.66
732.615	3146.7
732.801	3050.45
732.987	3101.65
733.173	3230.67
733.359	3144.66
733.545	3042.26
733.731	3023.83
733.917	3056.59
734.103	3052.5
734.289	3165.14
734.475	3165.14
734.661	3285.97
734.847	3163.09
735.033	3158.99
735.219	2927.57
735.404	3333.07
735.59	3044.31
735.776	3122.13
735.962	3111.89
736.148	3220.43
736.333	3134.42
736.519	3044.31
736.705	3066.83
736.89	3156.94
737.076	3093.46
737.262	3054.55
737.447	3156.94
737.633	3175.38
737.819	3107.79
738.004	3265.49
738.19	3183.57
738.375	3064.79
738.561	3195.86
738.747	3216.33
738.932	3183.57
739.118	3019.73
739.303	3204.05
739.489	3148.75
739.674	3245.01
739.859	3099.6
740.045	3134.42
740.23	3183.57
740.416	3070.93
740.601	3113.94
740.786	3206.1
740.972	3087.31
741.157	3304.4
741.342	3025.87
741.528	3251.15
741.713	3113.94
741.898	3130.32
742.084	3099.6
742.269	3253.2
742.454	3228.62
742.639	3148.75
742.824	3046.35
743.01	3095.5
743.195	3124.18
743.38	3046.35
743.565	3111.89
743.75	3111.89
743.935	3113.94
744.12	3202
744.305	2968.53
744.49	3097.55
744.675	2991.06
744.86	3068.88
745.045	3015.63
745.23	2921.43
745.415	3042.26
745.6	3070.93
745.785	2993.11
745.97	3042.26
746.155	3042.26
746.34	2905.04
746.525	2946
746.71	2946
746.895	2986.96
747.079	2946
747.264	2829.27
747.449	3005.39
747.634	2946
747.819	2937.81
748.003	2843.6
748.188	2898.9
748.373	2786.26
748.557	2825.17
748.742	2790.36
748.927	2749.4
749.111	2737.11
749.296	2847.7
749.481	2796.5
749.665	2829.27
749.85	2761.69
750.034	2866.13
750.219	2669.53
750.404	2759.64
750.588	2665.43
750.773	2700.25
750.957	2669.53
751.141	2745.3
751.326	2749.4
751.51	2548.7
751.695	2675.67
751.879	2681.82
752.064	2638.81
752.248	2661.34
752.432	2624.47
752.617	2489.31
752.801	2661.34
752.985	2489.31
753.17	2534.36
753.354	2491.35
753.538	2448.35
753.722	2388.96
753.907	2511.83
754.091	2468.83
754.275	2452.44
754.459	2427.87
754.643	2460.63
754.828	2503.64
755.012	2350.04
755.196	2405.34
755.38	2229.21
755.564	2370.52
755.748	2362.33
755.932	2282.46
756.116	2311.13
756.3	2270.17
756.484	2419.68
756.668	2288.61
756.852	2370.52
757.036	2157.54
757.22	2079.71
757.404	2274.27
757.588	2204.64
757.772	2186.21
757.956	2165.73
758.14	2059.23
758.323	2128.86
758.507	2104.29
758.691	2057.18
758.875	2044.9
759.059	2046.94
759.242	2161.63
759.426	2089.95
759.61	2061.28
759.794	2085.86
759.977	2014.18
760.161	2098.14
760.345	1981.41
760.528	2046.94
760.712	1983.46
760.895	1952.74
761.079	1997.79
761.263	1938.4
761.446	1850.34
761.63	1870.82
761.813	1891.3
761.997	1842.15
762.18	1881.06
762.364	1856.48
762.547	1807.33
762.731	1971.17
762.914	1915.87
763.098	1829.86
763.281	1895.4
763.464	1866.72
763.648	1823.72
763.831	1823.72
764.015	1825.76
764.198	1913.83
764.381	1801.19
764.564	1762.28
764.748	1762.28
764.931	1844.2
765.114	1799.14
765.297	1842.15
765.481	1721.32
765.664	1790.95
765.847	1649.64
766.03	1778.66
766.213	1645.54
766.397	1670.12
766.58	1797.09
766.763	1686.5
766.946	1764.33
767.129	1692.65
767.312	1631.21
767.495	1780.71
767.678	1659.88
767.861	1659.88
768.044	1627.11
768.227	1616.87
768.41	1629.16
768.593	1704.93
768.776	1678.31
768.959	1590.25
769.142	1598.44
769.324	1549.29
769.507	1592.3
769.69	1770.47
769.873	1524.71
770.056	1682.41
770.239	1594.34
770.421	1614.82
770.604	1530.86
770.787	1428.46
770.97	1545.19
771.152	1561.58
771.335	1553.38
771.518	1569.77
771.7	1537
771.883	1479.66
772.066	1475.56
772.248	1577.96
772.431	1465.32
772.613	1465.32
772.796	1328.11
772.978	1500.14
773.161	1493.99
773.343	1412.07
773.526	1418.22
773.708	1485.8
773.891	1334.25
774.073	1309.68
774.256	1416.17
774.438	1448.94
774.621	1291.24
774.803	1375.21
774.985	1270.76
775.168	1315.82
775.35	1221.61
775.532	1342.44
775.715	1313.77
775.897	1272.81
776.079	1219.57
776.261	1211.37
776.444	1211.37
776.626	1266.67
776.808	1176.56
776.99	1151.98
777.173	1180.65
777.355	1088.5
777.537	1197.04
777.719	1178.61
777.901	1201.13
778.083	1121.26
778.265	1055.73
778.447	1051.63
778.629	1143.79
778.811	1192.94
778.993	1201.13
779.175	1160.17
779.357	1156.08
779.539	1104.88
779.721	1059.82
779.903	1082.35
780.085	1059.82
780.267	1102.83
780.449	1104.88
780.631	1096.69
780.812	1078.26
780.994	1004.53
781.176	1002.48
781.358	992.24
781.54	963.57
781.721	955.38
781.903	971.76
782.085	975.86
782.267	1006.58
782.448	945.14
782.63	889.84
782.812	924.66
782.993	924.66
783.175	977.91
783.357	846.84
783.538	867.31
783.72	889.84
783.901	904.18
784.083	859.12
784.264	820.21
784.446	871.41
784.627	826.36
784.809	992.24
784.99	957.43
785.172	814.07
785.353	879.6
785.535	803.83
785.716	793.59
785.897	865.27
786.079	809.97
786.26	879.6
786.441	832.5
786.623	750.58
786.804	771.06
786.985	773.11
787.167	793.59
787.348	711.67
787.529	713.72
787.71	783.35
787.891	760.82
788.073	756.72
788.254	754.68
788.435	769.01
788.616	754.68
788.797	705.53
788.978	730.1
789.159	693.24
789.34	695.29
789.522	658.42
789.703	683
789.884	701.43
790.065	703.48
790.246	662.52
790.427	670.71
790.607	693.24
790.788	656.37
790.969	568.31
791.15	584.7
791.331	576.5
791.512	656.37
791.693	562.17
791.874	586.74
792.054	631.8
792.235	592.89
792.416	666.61
792.597	590.84
792.778	492.54
792.958	637.94
793.139	576.5
793.32	617.46
793.5	586.74
793.681	689.14
793.862	588.79
794.042	541.69
794.223	613.37
794.404	601.08
794.584	537.59
794.765	560.12
794.945	541.69
795.126	576.5
795.306	625.65
795.487	541.69
795.667	506.87
795.848	437.24
796.028	506.87
796.209	478.2
796.389	535.54
796.57	500.73
796.75	447.48
796.93	576.5
797.111	453.63
797.291	547.83
797.471	627.7
797.652	470.01
797.832	474.1
798.012	549.88
798.192	441.34
798.373	433.15
798.553	455.67
798.733	445.43
798.913	496.63
799.093	470.01
799.274	457.72
799.454	457.72
799.634	433.15
799.814	416.76
799.994	441.34
800.174	515.06
800.354	357.37
800.534	404.47
800.714	433.15
800.894	359.42
801.074	433.15
801.254	480.25
801.434	402.43
801.614	412.67
801.794	412.67
801.974	1051.63
802.154	369.66
802.334	416.76
802.514	326.65
802.693	363.51
802.873	379.9
803.053	310.27
803.233	347.13
803.413	410.62
803.592	388.09
803.772	418.81
803.952	429.05
804.131	410.62
804.311	379.9
804.491	457.72
804.67	381.95
804.85	353.27
805.03	441.34
805.209	386.04
805.389	338.94
805.568	420.86
805.748	363.51
805.928	386.04
806.107	435.19
806.287	322.56
806.466	424.95
806.646	306.17
806.825	361.47
807.004	279.55
807.184	367.61
807.363	338.94
807.543	379.9
807.722	254.97
807.901	406.52
808.081	367.61
808.26	306.17
808.439	349.18
808.619	285.69
808.798	240.64
808.977	414.71
809.156	269.31
809.336	242.68
809.515	318.46
809.694	347.13
809.873	343.03
810.052	343.03
810.231	377.85
810.411	328.7
810.59	373.75
810.769	338.94
810.948	349.18
811.127	234.49
811.306	318.46
811.485	357.37
811.664	349.18
811.843	324.6
812.022	295.93
812.201	340.99
812.38	345.08
812.559	297.98
812.737	328.7
812.916	248.83
813.095	328.7
813.274	291.84
813.453	248.83
813.632	306.17
813.811	343.03
813.989	283.64
814.168	304.12
814.347	226.3
814.526	316.41
814.704	304.12
814.883	285.69
815.062	232.44
815.24	265.21
815.419	246.78
815.598	287.74
815.776	240.64
815.955	257.02
816.133	224.25
816.312	269.31
816.49	236.54
816.669	224.25
816.847	302.08
817.026	230.4
817.204	277.5
817.383	183.29
817.561	322.56
817.74	261.12
817.918	230.4
818.097	252.92
818.275	207.87
818.453	252.92
818.632	230.4
818.81	183.29
818.988	218.11
819.167	183.29
819.345	277.5
819.523	185.34
819.701	209.92
819.879	271.36
820.058	142.33
820.236	293.88
820.414	173.05
820.592	199.68
820.77	144.38
820.948	281.6
821.127	242.68
821.305	207.87
821.483	185.34
821.661	261.12
821.839	195.58
822.017	261.12
822.195	222.2
822.373	273.4
822.551	226.3
822.729	179.2
822.907	226.3
823.085	93.18
823.262	168.96
823.44	193.53
823.618	113.66
823.796	115.71
823.974	185.34
824.152	234.49
824.329	160.77
824.507	191.49
824.685	244.73
824.863	128
825.04	222.2
825.218	160.77
825.396	185.34
825.574	222.2
825.751	232.44
825.929	166.91
826.107	183.29
826.284	150.53
826.462	222.2
826.639	113.66
826.817	132.09
826.994	187.39
827.172	164.86
827.349	205.82
827.527	125.95
827.704	125.95
827.882	244.73
828.059	203.77
828.237	150.53
828.414	177.15
828.591	109.57
828.769	238.59
828.946	166.91
829.124	130.05
829.301	177.15
829.478	168.96
829.655	185.34
829.833	150.53
830.01	130.05
830.187	195.58
830.364	166.91
830.542	150.53
830.719	162.81
830.896	148.48
831.073	164.86
831.25	195.58
831.427	152.57
831.604	211.96
831.782	152.57
831.959	203.77
832.136	125.95
832.313	218.11
832.49	68.61
832.667	220.16
832.844	197.63
833.021	185.34
833.198	218.11
833.374	138.24
833.551	130.05
833.728	95.23
833.905	175.1
834.082	84.99
834.259	195.58
834.436	119.81
834.612	142.33
834.789	132.09
834.966	246.78
835.143	142.33
835.319	84.99
835.496	142.33
835.673	150.53
835.85	166.91
836.026	185.34
836.203	146.43
836.38	199.68
836.556	80.89
836.733	78.85
836.909	171.01
837.086	144.38
837.262	111.61
837.439	99.33
837.616	93.18
837.792	56.32
837.968	207.87
838.145	87.04
838.321	146.43
838.498	136.19
838.674	125.95
838.851	80.89
839.027	191.49
839.203	142.33
839.38	78.85
839.556	66.56
839.732	146.43
839.909	91.13
840.085	99.33
840.261	119.81
840.437	80.89
840.614	72.7
840.79	123.9
840.966	91.13
841.142	148.48
841.318	164.86
841.494	87.04
841.671	119.81
841.847	70.65
842.023	136.19
842.199	56.32
842.375	173.05
842.551	29.7
842.727	27.65
842.903	138.24
843.079	111.61
843.255	189.44
843.431	121.85
843.607	105.47
843.783	-19.46
843.959	107.52
844.134	80.89
844.31	150.53
844.486	93.18
844.662	27.65
844.838	48.13
845.013	111.61
845.189	97.28
845.365	91.13
845.541	109.57
845.716	130.05
845.892	60.42
846.068	91.13
846.244	97.28
846.419	128
846.595	87.04
846.77	105.47
846.946	183.29
847.122	97.28
847.297	121.85
847.473	113.66
847.648	33.79
847.824	60.42
847.999	52.22
848.175	50.18
848.35	132.09
848.526	41.98
848.701	164.86
848.876	84.99
849.052	101.37
849.227	136.19
849.403	82.94
849.578	99.33
849.753	103.42
849.929	146.43
850.104	95.23
850.279	31.74
850.454	27.65
850.63	93.18
850.805	78.85
850.98	99.33
851.155	64.51
851.33	93.18
851.505	50.18
851.681	138.24
851.856	15.36
852.031	44.03
852.206	144.38
852.381	93.18
852.556	27.65
852.731	105.47
852.906	130.05
853.081	27.65
853.256	87.04
853.431	70.65
853.606	23.55
853.781	105.47
853.956	54.27
854.131	111.61
854.305	21.5
854.48	87.04
854.655	52.22
854.83	80.89
855.005	19.46
855.18	105.47
855.354	76.8
855.529	89.09
855.704	99.33
855.879	101.37
856.053	-5.12
856.228	130.05
856.403	82.94
856.577	64.51
856.752	82.94
856.926	41.98
857.101	7.17
857.276	46.08
857.45	39.94
857.625	19.46
857.799	109.57
857.974	50.18
858.148	25.6
858.323	80.89
858.497	46.08
858.672	89.09
858.846	105.47
859.02	84.99
859.195	25.6
859.369	78.85
859.543	101.37
859.718	64.51
859.892	41.98
860.066	107.52
860.241	84.99
860.415	91.13
860.589	82.94
860.763	123.9
860.938	48.13
861.112	107.52
861.286	7.17
861.46	50.18
861.634	50.18
861.808	44.03
861.982	58.37
862.157	87.04
862.331	80.89
862.505	31.74
862.679	-17.41
862.853	-15.36
863.027	-23.55
863.201	109.57
863.375	11.26
863.549	50.18
863.722	64.51
863.896	95.23
864.07	48.13
864.244	54.27
864.418	89.09
864.592	58.37
864.766	7.17
864.939	46.08
865.113	5.12
865.287	82.94
865.461	11.26
865.634	31.74
865.808	66.56
865.982	62.46
866.156	93.18
866.329	-1.02
866.503	23.55
866.676	52.22
866.85	46.08
867.024	80.89
867.197	46.08
867.371	128
867.544	60.42
867.718	13.31
867.891	37.89
868.065	-23.55
868.238	39.94
868.412	80.89
868.585	70.65
868.759	35.84
868.932	41.98
869.105	-13.31
869.279	93.18
869.452	91.13
869.625	60.42
869.799	52.22
869.972	39.94
870.145	-35.84
870.319	56.32
870.492	23.55
870.665	9.22
870.838	27.65
871.011	5.12
871.185	27.65
871.358	46.08
871.531	9.22
871.704	-11.26
871.877	56.32
872.05	41.98
872.223	31.74
872.396	33.79
872.569	146.43
872.742	39.94
872.915	107.52
873.088	21.5
873.261	91.13
873.434	50.18
873.607	95.23
873.78	27.65
873.953	33.79
874.126	-33.79
874.299	99.33
874.471	-29.7
874.644	-66.56
874.817	164.86
874.99	115.71
875.163	33.79
875.335	39.94
875.508	-7.17
875.681	56.32
875.853	23.55
876.026	78.85
876.199	25.6
876.371	72.7
876.544	35.84
876.717	72.7
876.889	29.7
877.062	41.98
877.234	44.03
877.407	44.03
877.579	68.61
877.752	64.51
877.924	60.42
878.097	50.18
878.269	-17.41
878.442	84.99
878.614	-9.22
878.786	70.65
878.959	54.27
879.131	25.6
879.303	-58.37
879.476	37.89
879.648	99.33
879.82	29.7
879.993	-37.89
880.165	-5.12
880.337	-80.89
880.509	46.08
880.681	-23.55
880.854	9.22
881.026	23.55
881.198	-23.55
881.37	29.7
881.542	-1.02
881.714	-25.6
881.886	74.75
882.058	15.36
882.23	-9.22
882.402	7.17
882.574	50.18
882.746	89.09
882.918	160.77
883.09	7.17
883.262	44.03
883.434	56.32
883.606	87.04
883.778	52.22
883.95	-5.12
884.122	33.79
884.293	35.84
884.465	23.55
884.637	-11.26
884.809	50.18
884.98	87.04
885.152	89.09
885.324	87.04
885.496	3.07
885.667	-1.02
885.839	44.03
886.011	109.57
886.182	64.51
886.354	109.57
886.525	46.08
886.697	64.51
886.869	52.22
887.04	-1.02
887.212	46.08
887.383	80.89
887.555	78.85
887.726	1.02
887.897	84.99
888.069	60.42
888.24	52.22
888.412	23.55
888.583	54.27
888.754	35.84
888.926	33.79
889.097	52.22
889.268	-27.65
889.44	15.36
889.611	25.6
889.782	-19.46
889.953	11.26
890.125	37.89
890.296	-7.17
890.467	7.17
890.638	15.36
890.809	-17.41
890.98	25.6
891.151	84.99
891.323	99.33
891.494	64.51
891.665	-19.46
891.836	-23.55
892.007	-13.31
892.178	60.42
892.349	74.75
892.52	82.94
892.691	101.37
892.862	-23.55
893.032	35.84
893.203	27.65
893.374	-39.94
893.545	72.7
893.716	7.17
893.887	11.26
894.057	33.79
894.228	87.04
894.399	23.55
894.57	46.08
894.74	19.46
894.911	44.03
895.082	15.36
895.253	25.6
895.423	72.7
895.594	80.89
895.764	-41.98
895.935	60.42
896.106	-13.31
896.276	31.74
896.447	39.94
896.617	-29.7
896.788	25.6
896.958	-58.37
897.129	13.31
897.299	27.65
897.47	111.61
897.64	76.8
897.81	95.23
897.981	35.84
898.151	-5.12
898.322	72.7
898.492	31.74
898.662	70.65
898.832	44.03
899.003	25.6
899.173	31.74
899.343	37.89
899.513	-13.31
