Data from USB4F104151__83__12-42-27-107.txt Node

Date: Fri Mar 14 12:42:27 EDT 2025
User: louis
Spectrometer: USB4F10415
Trigger mode: 4
Integration Time (sec): 3.000000E-2
Scans to average: 1
Electric dark correction enabled: true
Nonlinearity correction enabled: false
Boxcar width: 0
XAxis mode: Wavelengths
Number of Pixels in Spectrum: 3648
>>>>>Begin Spectral Data<<<<<
178.204	-177.32
178.424	-177.32
178.644	-177.32
178.864	-167.08
179.084	-101.55
179.304	15.19
179.524	-15.53
179.744	-27.82
179.964	58.2
180.184	15.19
180.404	29.52
180.624	0.85
180.844	-15.53
181.064	35.67
181.283	-17.58
181.503	-33.96
181.723	-44.2
181.943	-3.24
182.163	82.77
182.383	-9.39
182.602	25.43
182.822	101.2
183.042	144.21
183.262	15.19
183.482	60.24
183.701	-25.77
183.921	82.77
184.141	52.05
184.361	33.62
184.58	-1.19
184.8	39.76
185.02	-17.58
185.239	78.68
185.459	54.1
185.679	80.72
185.898	39.76
186.118	78.68
186.338	45.91
186.557	27.48
186.777	25.43
186.997	29.52
187.216	76.63
187.436	99.16
187.655	54.1
187.875	95.06
188.095	-1.19
188.314	68.44
188.534	52.05
188.753	39.76
188.973	43.86
189.192	99.16
189.412	35.67
189.631	25.43
189.851	-27.82
190.07	127.83
190.29	52.05
190.509	64.34
190.729	52.05
190.948	-5.29
191.168	76.63
191.387	21.33
191.607	29.52
191.826	31.57
192.045	11.09
192.265	-97.45
192.484	-9.39
192.704	31.57
192.923	-36.01
193.142	60.24
193.362	60.24
193.581	21.33
193.8	68.44
194.02	80.72
194.239	45.91
194.458	54.1
194.678	-36.01
194.897	13.14
195.116	11.09
195.335	39.76
195.555	4.95
195.774	-33.96
195.993	21.33
196.212	58.2
196.432	-3.24
196.651	-31.91
196.87	9.05
197.089	109.4
197.308	68.44
197.528	0.85
197.747	45.91
197.966	47.96
198.185	101.2
198.404	-11.43
198.623	41.81
198.842	62.29
199.062	33.62
199.281	45.91
199.5	41.81
199.719	45.91
199.938	64.34
200.157	54.1
200.376	7
200.595	170.83
200.814	93.01
201.033	39.76
201.252	-23.72
201.471	93.01
201.69	93.01
201.909	29.52
202.128	90.96
202.347	52.05
202.566	84.82
202.785	25.43
203.004	-13.48
203.223	74.58
203.442	9.05
203.661	35.67
203.879	70.48
204.098	50
204.317	68.44
204.536	60.24
204.755	64.34
204.974	86.87
205.193	64.34
205.411	142.16
205.63	84.82
205.849	21.33
206.068	19.29
206.287	-50.35
206.505	62.29
206.724	13.14
206.943	41.81
207.162	37.72
207.381	62.29
207.599	47.96
207.818	11.09
208.037	78.68
208.255	50
208.474	-38.06
208.693	45.91
208.911	9.05
209.13	2.9
209.349	54.1
209.567	111.44
209.786	39.76
210.005	39.76
210.223	58.2
210.442	2.9
210.661	-11.43
210.879	-13.48
211.098	29.52
211.316	84.82
211.535	27.48
211.753	11.09
211.972	9.05
212.191	80.72
212.409	37.72
212.628	0.85
212.846	-36.01
213.065	45.91
213.283	35.67
213.502	54.1
213.72	97.11
213.938	58.2
214.157	39.76
214.375	60.24
214.594	37.72
214.812	37.72
215.031	0.85
215.249	31.57
215.467	4.95
215.686	43.86
215.904	62.29
216.122	-1.19
216.341	97.11
216.559	76.63
216.778	123.73
216.996	52.05
217.214	2.9
217.432	13.14
217.651	-15.53
217.869	47.96
218.087	58.2
218.306	-17.58
218.524	74.58
218.742	78.68
218.96	68.44
219.179	-13.48
219.397	37.72
219.615	70.48
219.833	43.86
220.051	-15.53
220.27	115.54
220.488	82.77
220.706	-31.91
220.924	39.76
221.142	58.2
221.36	-29.87
221.578	-3.24
221.796	29.52
222.015	148.31
222.233	154.45
222.451	74.58
222.669	-23.72
222.887	66.39
223.105	23.38
223.323	-42.15
223.541	23.38
223.759	45.91
223.977	58.2
224.195	74.58
224.413	25.43
224.631	56.15
224.849	25.43
225.067	105.3
225.285	-1.19
225.503	43.86
225.721	-11.43
225.939	-9.39
226.157	121.68
226.375	62.29
226.592	35.67
226.81	23.38
227.028	-19.63
227.246	97.11
227.464	41.81
227.682	-13.48
227.9	43.86
228.117	107.35
228.335	101.2
228.553	25.43
228.771	23.38
228.989	125.78
229.206	15.19
229.424	74.58
229.642	-21.67
229.86	-5.29
230.077	31.57
230.295	9.05
230.513	31.57
230.731	52.05
230.948	4.95
231.166	78.68
231.384	-70.83
231.601	45.91
231.819	58.2
232.037	23.38
232.254	-15.53
232.472	-36.01
232.689	7
232.907	17.24
233.125	78.68
233.342	45.91
233.56	-40.11
233.777	97.11
233.995	37.72
234.213	136.02
234.43	21.33
234.648	80.72
234.865	41.81
235.083	50
235.3	21.33
235.518	54.1
235.735	99.16
235.953	66.39
236.17	-60.59
236.388	25.43
236.605	17.24
236.822	68.44
237.04	88.92
237.257	84.82
237.475	-15.53
237.692	52.05
237.909	47.96
238.127	-9.39
238.344	-9.39
238.562	21.33
238.779	17.24
238.996	-13.48
239.214	74.58
239.431	117.59
239.648	31.57
239.865	52.05
240.083	52.05
240.3	50
240.517	52.05
240.735	43.86
240.952	17.24
241.169	45.91
241.386	-15.53
241.603	66.39
241.821	9.05
242.038	50
242.255	27.48
242.472	-40.11
242.689	93.01
242.907	54.1
243.124	-3.24
243.341	-21.67
243.558	-42.15
243.775	31.57
243.992	-119.98
244.209	103.25
244.426	74.58
244.643	43.86
244.86	50
245.078	15.19
245.295	33.62
245.512	35.67
245.729	-19.63
245.946	80.72
246.163	62.29
246.38	7
246.597	33.62
246.814	2.9
247.031	0.85
247.248	23.38
247.464	117.59
247.681	76.63
247.898	64.34
248.115	31.57
248.332	7
248.549	35.67
248.766	107.35
248.983	78.68
249.2	27.48
249.417	33.62
249.633	43.86
249.85	66.39
250.067	25.43
250.284	31.57
250.501	78.68
250.717	-3.24
250.934	17.24
251.151	78.68
251.368	47.96
251.585	-42.15
251.801	-1.19
252.018	-13.48
252.235	35.67
252.451	-11.43
252.668	-13.48
252.885	19.29
253.102	74.58
253.318	58.2
253.535	31.57
253.752	99.16
253.968	54.1
254.185	-21.67
254.401	97.11
254.618	76.63
254.835	45.91
255.051	125.78
255.268	21.33
255.484	97.11
255.701	19.29
255.917	60.24
256.134	0.85
256.351	33.62
256.567	27.48
256.784	60.24
257	-19.63
257.217	109.4
257.433	-3.24
257.65	60.24
257.866	82.77
258.082	86.87
258.299	11.09
258.515	9.05
258.732	-54.44
258.948	43.86
259.165	60.24
259.381	21.33
259.597	107.35
259.814	31.57
260.03	-7.34
260.246	80.72
260.463	9.05
260.679	76.63
260.895	23.38
261.112	111.44
261.328	-40.11
261.544	47.96
261.761	103.25
261.977	33.62
262.193	41.81
262.409	13.14
262.626	82.77
262.842	58.2
263.058	-1.19
263.274	2.9
263.49	78.68
263.707	41.81
263.923	-3.24
264.139	-21.67
264.355	64.34
264.571	115.54
264.787	74.58
265.004	82.77
265.22	80.72
265.436	58.2
265.652	-1.19
265.868	9.05
266.084	-19.63
266.3	11.09
266.516	-11.43
266.732	119.64
266.948	74.58
267.164	66.39
267.38	11.09
267.596	101.2
267.812	144.21
268.028	97.11
268.244	43.86
268.46	41.81
268.676	68.44
268.892	86.87
269.108	23.38
269.324	35.67
269.54	82.77
269.756	115.54
269.972	86.87
270.188	-36.01
270.403	72.53
270.619	39.76
270.835	15.19
271.051	19.29
271.267	74.58
271.483	62.29
271.698	11.09
271.914	99.16
272.13	56.15
272.346	47.96
272.562	97.11
272.777	125.78
272.993	47.96
273.209	56.15
273.425	45.91
273.64	11.09
273.856	80.72
274.072	31.57
274.287	-11.43
274.503	105.3
274.719	33.62
274.934	45.91
275.15	50
275.366	52.05
275.581	60.24
275.797	80.72
276.012	0.85
276.228	54.1
276.444	45.91
276.659	37.72
276.875	21.33
277.09	74.58
277.306	-56.49
277.521	88.92
277.737	66.39
277.952	-23.72
278.168	17.24
278.383	64.34
278.599	-15.53
278.814	93.01
279.03	111.44
279.245	27.48
279.461	35.67
279.676	31.57
279.892	-15.53
280.107	-17.58
280.322	41.81
280.538	84.82
280.753	-38.06
280.969	80.72
281.184	56.15
281.399	39.76
281.615	-5.29
281.83	76.63
282.045	54.1
282.26	27.48
282.476	21.33
282.691	29.52
282.906	43.86
283.122	45.91
283.337	66.39
283.552	50
283.767	41.81
283.983	140.12
284.198	2.9
284.413	117.59
284.628	-5.29
284.843	82.77
285.058	66.39
285.274	33.62
285.489	19.29
285.704	107.35
285.919	-40.11
286.134	17.24
286.349	9.05
286.564	109.4
286.779	142.16
286.995	64.34
287.21	39.76
287.425	33.62
287.64	97.11
287.855	45.91
288.07	-36.01
288.285	84.82
288.5	56.15
288.715	21.33
288.93	-13.48
289.145	17.24
289.36	45.91
289.575	60.24
289.79	107.35
290.004	82.77
290.219	54.1
290.434	19.29
290.649	4.95
290.864	-1.19
291.079	37.72
291.294	17.24
291.509	-23.72
291.724	56.15
291.938	21.33
292.153	35.67
292.368	45.91
292.583	35.67
292.798	97.11
293.012	68.44
293.227	25.43
293.442	19.29
293.657	76.63
293.871	64.34
294.086	23.38
294.301	84.82
294.516	127.83
294.73	9.05
294.945	19.29
295.16	21.33
295.374	39.76
295.589	52.05
295.804	35.67
296.018	2.9
296.233	84.82
296.447	54.1
296.662	-5.29
296.877	72.53
297.091	84.82
297.306	-27.82
297.52	109.4
297.735	62.29
297.949	70.48
298.164	144.21
298.378	35.67
298.593	43.86
298.807	64.34
299.022	29.52
299.236	113.49
299.451	25.43
299.665	4.95
299.88	31.57
300.094	54.1
300.309	66.39
300.523	29.52
300.737	9.05
300.952	47.96
301.166	82.77
301.381	19.29
301.595	56.15
301.809	4.95
302.024	56.15
302.238	47.96
302.452	45.91
302.667	54.1
302.881	90.96
303.095	62.29
303.309	37.72
303.524	0.85
303.738	105.3
303.952	-58.54
304.166	17.24
304.381	66.39
304.595	80.72
304.809	33.62
305.023	9.05
305.237	9.05
305.452	19.29
305.666	0.85
305.88	72.53
306.094	93.01
306.308	80.72
306.522	23.38
306.736	113.49
306.95	13.14
307.164	52.05
307.379	78.68
307.593	72.53
307.807	74.58
308.021	47.96
308.235	52.05
308.449	-1.19
308.663	43.86
308.877	84.82
309.091	-7.34
309.305	64.34
309.519	7
309.733	50
309.947	-27.82
310.161	45.91
310.374	78.68
310.588	181.07
310.802	-17.58
311.016	27.48
311.23	86.87
311.444	47.96
311.658	43.86
311.872	56.15
312.085	80.72
312.299	86.87
312.513	84.82
312.727	7
312.941	15.19
313.154	41.81
313.368	35.67
313.582	29.52
313.796	0.85
314.009	93.01
314.223	101.2
314.437	68.44
314.651	58.2
314.864	54.1
315.078	86.87
315.292	56.15
315.505	86.87
315.719	27.48
315.933	82.77
316.146	60.24
316.36	37.72
316.573	37.72
316.787	37.72
317.001	95.06
317.214	27.48
317.428	37.72
317.641	82.77
317.855	115.54
318.068	70.48
318.282	113.49
318.495	111.44
318.709	23.38
318.922	25.43
319.136	117.59
319.349	54.1
319.563	93.01
319.776	103.25
319.99	-25.77
320.203	125.78
320.417	0.85
320.63	27.48
320.843	99.16
321.057	86.87
321.27	29.52
321.483	54.1
321.697	66.39
321.91	29.52
322.124	15.19
322.337	54.1
322.55	25.43
322.763	43.86
322.977	54.1
323.19	99.16
323.403	72.53
323.617	43.86
323.83	90.96
324.043	33.62
324.256	27.48
324.469	72.53
324.683	88.92
324.896	99.16
325.109	37.72
325.322	11.09
325.535	45.91
325.748	37.72
325.962	19.29
326.175	66.39
326.388	95.06
326.601	125.78
326.814	21.33
327.027	72.53
327.24	62.29
327.453	27.48
327.666	-17.58
327.879	66.39
328.092	13.14
328.305	29.52
328.518	109.4
328.731	29.52
328.944	68.44
329.157	25.43
329.37	138.07
329.583	121.68
329.796	103.25
330.009	90.96
330.222	117.59
330.435	93.01
330.648	25.43
330.861	0.85
331.073	17.24
331.286	50
331.499	162.64
331.712	13.14
331.925	68.44
332.138	66.39
332.35	111.44
332.563	31.57
332.776	103.25
332.989	-1.19
333.202	43.86
333.414	-46.25
333.627	43.86
333.84	-13.48
334.053	62.29
334.265	58.2
334.478	-33.96
334.691	52.05
334.903	111.44
335.116	68.44
335.329	31.57
335.541	35.67
335.754	47.96
335.966	21.33
336.179	52.05
336.392	21.33
336.604	62.29
336.817	64.34
337.029	-15.53
337.242	68.44
337.454	154.45
337.667	43.86
337.88	133.97
338.092	103.25
338.305	21.33
338.517	58.2
338.729	144.21
338.942	58.2
339.154	-56.49
339.367	27.48
339.579	82.77
339.792	-48.3
340.004	64.34
340.217	35.67
340.429	11.09
340.641	58.2
340.854	23.38
341.066	72.53
341.278	101.2
341.491	97.11
341.703	119.64
341.915	25.43
342.128	52.05
342.34	58.2
342.552	31.57
342.764	107.35
342.977	9.05
343.189	47.96
343.401	45.91
343.613	-3.24
343.826	66.39
344.038	-42.15
344.25	66.39
344.462	33.62
344.674	84.82
344.886	58.2
345.099	76.63
345.311	103.25
345.523	88.92
345.735	33.62
345.947	68.44
346.159	27.48
346.371	15.19
346.583	17.24
346.795	72.53
347.007	21.33
347.219	19.29
347.431	11.09
347.643	86.87
347.855	19.29
348.067	43.86
348.279	27.48
348.491	50
348.703	41.81
348.915	33.62
349.127	146.26
349.339	33.62
349.551	105.3
349.763	125.78
349.975	62.29
350.187	107.35
350.399	95.06
350.61	99.16
350.822	21.33
351.034	76.63
351.246	29.52
351.458	2.9
351.669	41.81
351.881	62.29
352.093	113.49
352.305	113.49
352.517	50
352.728	117.59
352.94	37.72
353.152	88.92
353.363	7
353.575	93.01
353.787	127.83
353.999	50
354.21	82.77
354.422	123.73
354.633	31.57
354.845	88.92
355.057	-3.24
355.268	39.76
355.48	95.06
355.692	43.86
355.903	50
356.115	88.92
356.326	9.05
356.538	97.11
356.749	52.05
356.961	62.29
357.172	62.29
357.384	2.9
357.595	119.64
357.807	2.9
358.018	15.19
358.23	84.82
358.441	123.73
358.653	125.78
358.864	56.15
359.075	60.24
359.287	9.05
359.498	121.68
359.709	78.68
359.921	72.53
360.132	129.88
360.344	113.49
360.555	82.77
360.766	113.49
360.977	80.72
361.189	170.83
361.4	47.96
361.611	115.54
361.823	129.88
362.034	129.88
362.245	-27.82
362.456	35.67
362.667	86.87
362.879	109.4
363.09	43.86
363.301	19.29
363.512	31.57
363.723	84.82
363.935	9.05
364.146	74.58
364.357	64.34
364.568	-15.53
364.779	23.38
364.99	140.12
365.201	72.53
365.412	72.53
365.623	19.29
365.834	68.44
366.045	84.82
366.256	27.48
366.467	86.87
366.678	117.59
366.889	76.63
367.1	68.44
367.311	84.82
367.522	-21.67
367.733	9.05
367.944	162.64
368.155	27.48
368.366	88.92
368.577	41.81
368.788	37.72
368.999	35.67
369.209	41.81
369.42	105.3
369.631	72.53
369.842	90.96
370.053	103.25
370.264	74.58
370.474	138.07
370.685	54.1
370.896	45.91
371.107	78.68
371.317	158.55
371.528	80.72
371.739	82.77
371.95	-1.19
372.16	33.62
372.371	27.48
372.582	13.14
372.792	99.16
373.003	23.38
373.214	66.39
373.424	156.5
373.635	15.19
373.846	97.11
374.056	121.68
374.267	70.48
374.477	50
374.688	-3.24
374.898	86.87
375.109	66.39
375.319	35.67
375.53	54.1
375.74	70.48
375.951	52.05
376.161	109.4
376.372	60.24
376.582	45.91
376.793	68.44
377.003	47.96
377.214	50
377.424	70.48
377.635	29.52
377.845	0.85
378.055	60.24
378.266	70.48
378.476	95.06
378.686	23.38
378.897	74.58
379.107	105.3
379.317	99.16
379.528	70.48
379.738	74.58
379.948	37.72
380.158	84.82
380.369	101.2
380.579	107.35
380.789	66.39
380.999	123.73
381.21	23.38
381.42	99.16
381.63	146.26
381.84	90.96
382.05	50
382.261	21.33
382.471	68.44
382.681	109.4
382.891	131.92
383.101	52.05
383.311	93.01
383.521	52.05
383.731	31.57
383.941	93.01
384.151	66.39
384.361	66.39
384.571	84.82
384.781	52.05
384.991	80.72
385.201	93.01
385.411	54.1
385.621	150.36
385.831	76.63
386.041	60.24
386.251	99.16
386.461	103.25
386.671	47.96
386.881	115.54
387.091	86.87
387.301	101.2
387.511	47.96
387.72	31.57
387.93	113.49
388.14	70.48
388.35	103.25
388.56	117.59
388.769	60.24
388.979	95.06
389.189	107.35
389.399	150.36
389.609	113.49
389.818	119.64
390.028	62.29
390.238	150.36
390.447	70.48
390.657	76.63
390.867	125.78
391.076	52.05
391.286	52.05
391.496	60.24
391.705	66.39
391.915	115.54
392.125	131.92
392.334	47.96
392.544	99.16
392.753	123.73
392.963	105.3
393.172	172.88
393.382	47.96
393.591	152.4
393.801	156.5
394.01	115.54
394.22	127.83
394.429	95.06
394.639	50
394.848	133.97
395.058	123.73
395.267	62.29
395.477	13.14
395.686	103.25
395.895	113.49
396.105	228.18
396.314	101.2
396.524	27.48
396.733	62.29
396.942	154.45
397.152	205.65
397.361	152.4
397.57	170.83
397.78	146.26
397.989	103.25
398.198	170.83
398.407	97.11
398.617	129.88
398.826	115.54
399.035	179.03
399.244	203.6
399.453	133.97
399.663	88.92
399.872	191.31
400.081	234.32
400.29	187.22
400.499	125.78
400.708	174.93
400.917	140.12
401.127	111.44
401.336	162.64
401.545	174.93
401.754	109.4
401.963	174.93
402.172	164.69
402.381	228.18
402.59	138.07
402.799	228.18
403.008	217.94
403.217	150.36
403.426	148.31
403.635	117.59
403.844	205.65
404.053	226.13
404.262	197.46
404.471	203.6
404.68	219.99
404.888	209.75
405.097	215.89
405.306	162.64
405.515	252.75
405.724	250.71
405.933	197.46
406.142	215.89
406.35	203.6
406.559	230.23
406.768	256.85
406.977	361.3
407.185	271.19
407.394	349.01
407.603	236.37
407.812	242.51
408.02	330.58
408.229	318.29
408.438	314.19
408.646	328.53
408.855	353.1
409.064	316.24
409.272	316.24
409.481	443.21
409.69	418.64
409.898	379.73
410.107	437.07
410.315	385.87
410.524	482.13
410.733	475.98
410.941	516.94
411.15	504.65
411.358	537.42
411.567	545.61
411.775	572.24
411.984	605
412.192	605
412.401	697.16
412.609	584.52
412.818	637.77
413.026	705.35
413.234	758.6
413.443	777.03
413.651	811.85
413.86	752.46
414.068	815.94
414.276	887.62
414.485	820.04
414.693	906.06
414.901	887.62
415.11	1039.17
415.318	998.21
415.526	955.21
415.734	1055.56
415.943	1090.37
416.151	1205.06
416.359	1192.77
416.567	1178.44
416.776	1272.64
416.984	1352.51
417.192	1370.94
417.4	1284.93
417.608	1368.9
417.817	1479.49
418.025	1635.13
418.233	1610.56
418.441	1532.73
418.649	1606.46
418.857	1790.78
419.065	1821.5
419.273	1694.52
419.481	1889.08
419.689	2009.91
419.897	2038.58
420.105	2104.12
420.313	2218.8
420.521	2245.43
420.729	2292.53
420.937	2419.5
421.145	2399.02
421.353	2550.57
421.561	2818.86
421.769	2706.22
421.977	2841.39
422.185	2847.53
422.393	3083.05
422.601	3261.22
422.809	3138.34
423.017	3277.6
423.224	3310.37
423.432	3502.88
423.64	3480.35
423.848	3863.32
424.056	3717.92
424.263	4074.26
424.471	3969.82
424.679	3994.39
424.887	4373.27
425.094	4391.7
425.302	4541.2
425.51	4700.94
425.718	4645.65
425.925	4868.88
426.133	4942.6
426.341	5303.04
426.548	5479.17
426.756	5495.55
426.964	5649.15
427.171	5796.6
427.379	5946.11
427.586	6038.27
427.794	6230.77
428.001	6441.72
428.209	6836.97
428.417	6832.88
428.624	7361.25
428.832	7377.64
429.039	7291.62
429.247	7197.42
429.454	8039.13
429.662	8356.57
429.869	7951.07
430.076	8557.27
430.284	8295.13
430.491	8645.33
430.699	9067.21
430.906	8880.85
431.114	9167.56
431.321	9536.2
431.528	9802.43
431.736	10171.07
431.943	10830.51
432.15	10607.28
432.358	10650.29
432.565	11233.96
432.772	11182.76
432.979	11643.56
433.187	11963.04
433.394	12028.57
433.601	12771.99
433.808	12853.91
434.016	12812.95
434.223	13410.95
434.43	14174.85
434.637	13980.29
434.844	14789.24
435.052	14967.41
435.259	14899.83
435.466	14977.65
435.673	14920.31
435.88	15905.38
436.087	16747.09
436.294	17005.14
436.501	16054.88
436.708	16736.85
436.915	17553.99
437.122	17969.73
437.329	17871.43
437.537	18487.87
437.743	19051.06
437.95	18551.35
438.157	19624.49
438.364	20521.5
438.571	20468.25
438.778	20447.77
438.985	22252.03
439.192	21520.91
439.399	22176.26
439.606	21381.65
439.813	23175.67
440.02	24234.47
440.227	23706.09
440.433	23646.7
440.64	24381.92
440.847	24144.36
441.054	24693.21
441.261	26497.47
441.467	26325.44
441.674	26773.95
441.881	27619.76
442.088	27840.94
442.294	27367.86
442.501	28129.7
442.708	28658.08
442.914	29751.7
443.121	30857.6
443.328	30290.31
443.534	32258.41
443.741	31455.61
443.948	31234.42
444.154	33339.74
444.361	32928.09
444.568	33184.09
444.774	33196.38
444.981	33784.15
445.187	34404.68
445.394	36002.1
445.6	35844.4
445.807	38738.18
446.013	37361.95
446.22	37927.19
446.426	39635.19
446.633	39856.37
446.839	41404.64
447.046	39745.78
447.252	41769.18
447.459	41847
447.665	41634.01
447.871	43782.33
448.078	45297.83
448.284	43194.56
448.491	44005.56
448.697	46069.91
448.903	46678.16
449.11	46901.39
449.316	46200.98
449.522	47071.37
449.728	48390.26
449.935	48371.83
450.141	48369.78
450.347	49672.29
450.553	47986.81
450.76	48502.9
450.966	50221.14
451.172	49916
451.378	50870.35
451.584	49508.45
451.791	51042.38
451.997	51374.15
452.203	51970.11
452.409	51875.9
452.615	51941.44
452.821	50002.01
453.027	49309.8
453.233	51730.5
453.44	50344.02
453.646	50401.36
453.852	50751.57
454.058	51570.75
454.264	50124.89
454.47	51130.44
454.676	49793.12
454.882	51628.1
455.088	47179.91
455.294	47597.7
455.5	48679.02
455.705	49266.79
455.911	47306.88
456.117	46426.26
456.323	45531.29
456.529	43612.35
456.735	45254.82
456.941	44107.96
457.147	43475.13
457.352	42342.61
457.558	41445.6
457.764	41951.45
457.97	40734.95
458.176	40204.53
458.381	40007.92
458.587	38273.29
458.793	38338.83
458.999	36325.68
459.204	38832.39
459.41	37812.5
459.616	35459.38
459.821	35510.58
460.027	35238.2
460.233	34515.27
460.438	32770.4
460.644	33343.83
460.85	31379.83
461.055	31097.21
461.261	31232.38
461.466	28930.46
461.672	27877.8
461.878	30171.53
462.083	27877.8
462.289	27335.09
462.494	26964.41
462.7	26145.22
462.905	25045.46
463.111	26081.74
463.316	26421.7
463.522	25549.26
463.727	25917.9
463.932	25749.96
464.138	25364.95
464.343	25393.62
464.549	24572.38
464.754	25328.08
464.959	25446.87
465.165	25264.6
465.37	24326.63
465.575	23382.51
465.781	24543.71
465.986	24570.33
466.191	23486.96
466.397	23048.69
466.602	22172.16
466.807	22915.58
467.012	23052.79
467.218	22768.12
467.423	22645.24
467.628	22888.95
467.833	23353.84
468.038	22690.3
468.244	22213.12
468.449	22831.61
468.654	21965.32
468.859	21881.35
469.064	22080
469.269	20845.08
469.474	21477.9
469.679	21864.97
469.885	20761.11
470.09	21307.92
470.295	21191.19
470.5	20554.27
470.705	20687.39
470.91	20578.84
471.115	20040.23
471.32	20654.62
471.525	20406.81
471.73	19941.93
471.935	19724.84
472.139	19120.69
472.344	19405.36
472.549	19188.27
472.754	18860.6
472.959	18471.48
473.164	18352.7
473.369	17975.88
473.574	18739.77
473.778	18340.41
473.983	18291.26
474.188	17902.15
474.393	17345.1
474.598	17594.95
474.802	17478.22
475.007	16908.88
475.212	17132.11
475.417	16464.47
475.621	16607.83
475.826	16849.49
476.031	16464.47
476.235	16018.02
476.44	16206.43
476.645	15950.43
476.849	16083.55
477.054	15526.5
477.259	15440.49
477.463	15207.02
477.668	15460.97
477.872	15313.52
478.077	14926.45
478.282	14484.09
478.486	14361.21
478.691	14545.53
478.895	14400.12
479.1	14365.31
479.304	14439.03
479.509	13867.65
479.713	14426.75
479.918	13853.31
480.122	13576.84
480.326	13804.16
480.531	13785.73
480.735	13777.54
480.94	13556.36
481.144	13994.62
481.348	13089.42
481.553	13396.62
481.757	12939.92
481.961	13312.65
482.166	13398.66
482.37	13283.98
482.574	12968.59
482.778	13384.33
482.983	13531.78
483.187	13386.38
483.391	13255.31
483.595	13015.69
483.8	13021.84
484.004	13189.77
484.208	13437.58
484.412	13363.85
484.616	13185.68
484.821	13357.71
485.025	13175.44
485.229	13214.35
485.433	13169.29
485.637	13130.38
485.841	13044.37
486.045	12989.07
486.249	13140.62
486.453	12888.72
486.657	13114
486.861	13427.34
487.065	12796.56
487.269	13114
487.473	12874.38
487.677	13224.59
487.881	13212.3
488.085	13181.58
488.289	13302.41
488.493	13132.43
488.697	13517.45
488.901	13374.09
489.105	13388.43
489.309	13279.88
489.512	13468.3
489.716	13402.76
489.92	13333.13
490.124	13124.24
490.328	13554.31
490.531	13249.16
490.735	13546.12
490.939	13570.69
491.143	13480.58
491.346	13505.16
491.55	13687.43
491.754	13847.17
491.958	13828.74
492.161	13787.78
492.365	13716.1
492.569	13748.87
492.772	13623.94
492.976	13982.34
493.18	13851.27
493.383	14310.01
493.587	13910.66
493.79	14445.18
493.994	14164.61
494.197	14418.55
494.401	14578.29
494.605	14760.56
494.808	14430.84
495.012	14791.28
495.215	14953.07
495.419	15123.05
495.622	14848.63
495.825	15213.17
496.029	15293.04
496.232	15503.98
496.436	15166.06
496.639	15876.71
496.843	15735.4
497.046	16126.56
497.249	16118.37
497.453	16228.96
497.656	16349.79
497.859	16228.96
498.063	16779.86
498.266	17009.23
498.469	16714.33
498.673	16892.5
498.876	17504.84
499.079	17371.72
499.282	17252.94
499.485	17889.86
499.689	17977.92
499.892	18262.59
500.095	18487.87
500.298	18784.82
500.501	18473.53
500.705	18934.32
500.908	19157.55
501.111	19348.01
501.314	19421.74
501.517	19673.64
501.72	19833.38
501.923	19935.78
502.126	20255.26
502.329	20724.25
502.532	20750.87
502.735	20742.68
502.938	21232.15
503.141	21512.72
503.344	21887.5
503.547	21617.16
503.75	22110.72
503.953	22456.83
504.156	22553.09
504.359	22647.29
504.562	22929.91
504.765	23253.49
504.968	23394.8
505.17	23720.43
505.373	23521.77
505.576	23912.94
505.779	24220.13
505.982	24494.56
506.185	25131.48
506.387	24951.26
506.59	25305.56
506.793	25596.37
506.996	25514.45
507.198	26456.51
507.401	25899.47
507.604	26190.28
507.807	26882.49
508.009	27054.52
508.212	27492.79
508.415	27570.61
508.617	27711.92
508.82	28094.89
509.022	28152.23
509.225	28733.85
509.428	28567.97
509.63	29221.27
509.833	29626.77
510.035	29815.18
510.238	29651.34
510.44	30032.27
510.643	30603.65
510.845	30972.28
511.048	30763.39
511.25	30943.61
511.453	31291.77
511.655	32178.54
511.858	32356.71
512.06	32225.64
512.262	32680.29
512.465	32659.81
512.667	33194.33
512.87	33231.19
513.072	33558.87
513.274	34210.12
513.477	34439.5
513.679	34558.28
513.881	34863.43
514.084	34943.3
514.286	34955.58
514.488	35522.87
514.69	36581.67
514.893	36417.83
515.095	36600.1
515.297	36886.82
515.499	36749.6
515.701	37220.64
515.904	37603.61
516.106	37890.32
516.308	38412.56
516.51	38625.54
516.712	38713.61
516.914	39209.22
517.116	39547.13
517.318	39670.01
517.52	40110.32
517.722	40169.71
517.925	40685.8
518.127	41251.04
518.329	41136.35
518.531	40700.14
518.733	41666.78
518.935	41828.57
519.136	41849.05
519.338	42434.77
519.54	42856.65
519.742	43036.87
519.944	42924.23
520.146	44103.86
520.348	43796.67
520.55	44339.38
520.752	44103.86
520.954	45082.79
521.155	44734.63
521.357	45535.39
521.559	45648.03
521.761	46260.37
521.963	46055.57
522.164	46264.47
522.366	46553.23
522.568	46608.53
522.77	46897.29
522.971	47741.05
523.173	46760.08
523.375	47767.68
523.576	47796.35
523.778	47749.24
523.98	48447.6
524.181	48525.42
524.383	48408.69
524.584	48638.06
524.786	48996.46
524.988	49166.44
525.189	49268.84
525.391	49858.65
525.592	50073.69
525.794	50002.01
525.995	49813.6
526.197	50391.12
526.398	50317.4
526.6	50481.24
526.801	50579.54
527.003	50942.03
527.204	51050.57
527.406	51140.68
527.607	51310.66
527.808	51376.2
528.01	50677.84
528.211	51415.11
528.412	52338.74
528.614	51898.43
528.815	51630.15
529.016	52588.59
529.218	51800.13
529.419	51931.2
529.62	52254.78
529.822	52023.36
530.023	52461.62
530.224	52430.9
530.425	52330.55
530.626	52086.84
530.828	52062.27
531.029	53332.01
531.23	52121.66
531.431	52418.61
531.632	53135.4
531.833	53291.05
532.035	52906.03
532.236	53098.54
532.437	53305.38
532.638	52541.49
532.839	53186.6
533.04	52983.85
533.241	52879.41
533.442	53573.67
533.643	52965.42
533.844	52883.5
534.045	53407.78
534.246	52564.02
534.447	53248.04
534.648	52799.54
534.849	52930.61
535.05	52770.86
535.251	52789.3
535.451	52908.08
535.652	53006.38
535.853	53190.7
536.054	53295.14
536.255	53217.32
536.456	52766.77
536.657	53301.29
536.857	53073.96
537.058	52885.55
537.259	53221.42
537.46	53145.64
537.66	52754.48
537.861	52308.02
538.062	52987.95
538.263	53102.64
538.463	52449.33
538.664	52713.52
538.865	52895.79
539.065	53313.58
539.266	52682.8
539.466	53145.64
539.667	52187.19
539.868	52881.45
540.068	53053.48
540.269	52807.73
540.469	52809.78
540.67	52811.82
540.87	52897.84
541.071	52265.02
541.271	52731.95
541.472	52549.68
541.672	52588.59
541.873	52408.37
542.073	52111.42
542.274	52574.26
542.474	52297.78
542.675	52154.43
542.875	52512.82
543.075	52258.87
543.276	51912.77
543.476	52744.24
543.676	52027.45
543.877	52731.95
544.077	52348.98
544.277	52160.57
544.478	52129.85
544.678	52416.57
544.878	52017.21
545.078	52275.26
545.279	51845.18
545.479	52045.88
545.679	52373.56
545.879	52115.51
546.079	51896.38
546.28	51669.06
546.48	51882.05
546.68	52596.79
546.88	51906.62
547.08	52092.99
547.28	52301.88
547.48	51691.58
547.68	51982.4
547.88	51578.95
548.081	51912.77
548.281	52195.38
548.481	52056.12
548.681	52195.38
548.881	52303.93
549.081	51986.49
549.28	51832.89
549.48	52346.93
549.68	51748.93
549.88	52357.17
550.08	51544.13
550.28	51648.58
550.48	51572.8
550.68	51980.35
550.88	51398.73
551.08	51816.51
551.279	51488.84
551.479	50874.45
551.679	51757.12
551.879	51245.13
552.079	51892.29
552.278	51820.61
552.478	51640.39
552.678	51406.92
552.878	51499.08
553.077	51259.46
553.277	51099.72
553.477	51701.82
553.676	51325
553.876	50939.98
554.076	51093.58
554.275	50792.53
554.475	50534.48
554.674	51277.89
554.874	51339.33
555.074	51155.02
555.273	51392.58
555.473	51380.29
555.672	50395.22
555.872	50843.73
556.071	50864.21
556.271	51081.29
556.47	50808.91
556.67	50399.32
556.869	50804.81
557.068	50503.76
557.268	50348.12
557.467	50534.48
557.667	50600.02
557.866	50534.48
558.065	50864.21
558.265	49977.43
558.464	49989.72
558.663	50815.05
558.863	49866.84
559.062	50874.45
559.261	50200.66
559.461	50634.83
559.66	50163.8
559.859	50339.93
560.058	49567.84
560.258	50303.06
560.457	49303.65
560.656	50088.03
560.855	49846.36
561.054	49893.47
561.253	49432.68
561.453	49778.78
561.652	49774.69
561.851	50079.83
562.05	50030.68
562.249	49094.76
562.448	49444.96
562.647	49176.68
562.846	49361
563.045	49059.94
563.244	48468.08
563.443	49643.62
563.642	48574.58
563.841	49219.69
564.04	48715.89
564.239	48838.76
564.438	48674.93
564.637	48963.69
564.836	49346.66
565.035	48244.85
565.234	48865.39
565.432	48081.02
565.631	48181.37
565.83	48552.05
566.029	48296.05
566.228	48248.95
566.427	48038.01
566.625	48365.68
566.824	47593.6
567.023	48007.29
567.222	47409.28
567.42	47941.75
567.619	47900.79
567.818	47745.15
568.016	47646.85
568.215	47923.32
568.414	47528.06
568.612	47954.04
568.811	47347.84
569.01	47483.01
569.208	46362.77
569.407	47186.05
569.605	46825.61
569.804	47155.33
570.002	46729.36
570.201	46860.43
570.4	46024.86
570.598	46692.49
570.797	46180.5
570.995	46827.66
571.193	45854.87
571.392	46596.24
571.59	46160.02
571.789	46307.47
571.987	46266.52
572.186	46409.87
572.384	45791.39
572.582	46155.93
572.781	46102.68
572.979	45359.27
573.177	45969.56
573.376	45476
573.574	45492.38
573.772	45617.31
573.971	45248.67
574.169	45117.6
574.367	44853.42
574.565	45111.46
574.763	44822.7
574.962	44724.39
575.16	44402.86
575.358	44439.73
575.556	44597.42
575.754	44697.77
575.952	44196.02
576.151	44398.77
576.349	43741.37
576.547	44462.25
576.745	44191.92
576.943	44243.12
577.141	44007.61
577.339	44265.65
577.537	43759.8
577.735	43806.9
577.933	43739.32
578.131	43542.72
578.329	43393.22
578.527	43282.62
578.725	43206.85
578.923	43350.21
579.121	42801.35
579.319	42821.83
579.516	43010.25
579.714	42768.58
579.912	42627.27
580.11	42516.68
580.308	42555.6
580.506	42537.16
580.704	41691.35
580.901	42272.98
581.099	42660.04
581.297	41912.53
581.495	41885.91
581.692	41994.45
581.89	41085.15
582.088	42121.43
582.285	41560.28
582.483	41883.86
582.681	41398.49
582.878	41232.61
583.076	41083.11
583.274	41611.48
583.471	40716.52
583.669	40812.77
583.866	41216.22
584.064	41220.32
584.262	40605.93
584.459	41216.22
584.657	40253.68
584.854	40765.67
585.052	40163.57
585.249	40362.22
585.447	40239.34
585.644	40077.55
585.841	39928.05
586.039	40306.93
586.236	39588.09
586.434	39659.77
586.631	39540.99
586.828	39643.38
587.026	39837.94
587.223	39360.76
587.42	39395.58
587.618	39434.49
587.815	38867.2
588.012	38795.53
588.21	38697.22
588.407	39137.54
588.604	38736.13
588.801	38400.27
588.999	38568.2
589.196	38232.33
589.393	38252.81
589.59	38088.98
589.787	37828.88
589.984	38252.81
590.182	37531.93
590.379	37863.7
590.576	37542.17
590.773	38029.59
590.97	37161.25
591.167	37499.16
591.364	37380.38
591.561	37136.67
591.758	36954.4
591.955	36755.75
592.152	37085.47
592.349	36663.59
592.546	36815.14
592.743	36876.58
592.94	36200.75
593.137	36598.05
593.334	36722.98
593.531	35688.76
593.727	35991.86
593.924	35973.42
594.121	35920.18
594.318	35981.62
594.515	35365.18
594.712	35641.65
594.908	35436.86
595.105	35422.52
595.302	35068.22
595.499	35397.95
595.696	35010.88
595.892	34861.38
596.089	35035.45
596.286	34916.67
596.482	34707.78
596.679	34482.5
596.876	34744.64
597.072	34316.62
597.269	34484.55
597.466	34281.8
597.662	34126.16
597.859	34199.88
598.055	34163.02
598.252	33964.37
598.448	33624.4
598.645	33554.77
598.841	33245.53
599.038	33323.35
599.234	33798.48
599.431	33055.07
599.627	33046.88
599.824	33143.13
600.02	33096.03
600.217	33044.83
600.413	33038.69
600.609	32903.52
600.806	32495.97
601.002	32495.97
601.198	32235.88
601.395	32407.91
601.591	32049.52
601.787	31988.08
601.984	31875.44
602.18	32203.11
602.376	31674.74
602.572	31570.29
602.769	31832.43
602.965	31269.24
603.161	31930.73
603.357	31539.57
603.553	31312.25
603.75	31117.69
603.946	31043.96
604.142	31172.99
604.338	30710.14
604.534	30947.71
604.73	30714.24
604.926	30765.44
605.122	30712.19
605.318	30534.02
605.514	30253.45
605.71	30335.37
605.906	30769.54
606.102	30210.44
606.298	30271.88
606.494	29745.55
606.69	30357.89
606.886	29890.96
607.082	29495.7
607.278	30108.04
607.474	29098.39
607.67	29727.12
607.866	29305.24
608.062	29825.42
608.257	29479.32
608.453	29725.07
608.649	29211.03
608.845	29082.01
609.041	29165.98
609.236	29286.81
609.432	29065.63
609.628	29403.54
609.824	28905.88
610.019	29129.11
610.215	28891.55
610.411	28952.99
610.606	28905.88
610.802	28938.65
610.998	28799.39
611.193	28770.72
611.389	28645.79
611.584	28717.47
611.78	28162.47
611.976	28379.56
612.171	28416.42
612.367	28428.71
612.562	28160.42
612.758	27744.69
612.953	28101.03
613.149	28418.47
613.344	27646.38
613.539	28379.56
613.735	27769.26
613.93	27849.13
614.126	27879.85
614.321	27982.25
614.517	27892.14
614.712	27681.2
614.907	27408.82
615.103	27818.41
615.298	27556.27
615.493	27543.99
615.688	26925.5
615.884	27630
616.079	27191.73
616.274	27521.46
616.47	27066.81
616.665	27404.72
616.86	27081.14
617.055	27124.15
617.25	26874.3
617.445	27052.47
617.641	26681.79
617.836	26782.14
618.031	26573.25
618.226	26909.11
618.421	26603.97
618.616	26640.83
618.811	26352.07
619.006	26700.22
619.201	25842.12
619.396	26075.59
619.591	25864.65
619.786	26149.32
619.981	25878.99
620.176	26016.2
620.371	25577.94
620.566	25602.51
620.761	25690.57
620.956	25731.53
621.151	25061.85
621.346	25379.28
621.541	25115.09
621.735	24764.89
621.93	24660.45
622.125	24787.42
622.32	24236.52
622.515	24545.76
622.709	24469.98
622.904	24035.81
623.099	24125.93
623.294	24078.82
623.488	23779.82
623.683	23675.37
623.878	23560.69
624.072	23558.64
624.267	23675.37
624.462	23429.62
624.656	23138.8
624.851	22995.45
625.046	22772.22
625.24	22995.45
625.435	22456.83
625.629	22489.6
625.824	22254.08
626.018	22467.07
626.213	21852.68
626.407	21965.32
626.602	21731.85
626.796	22069.76
626.991	21975.56
627.185	21713.42
627.38	21484.05
627.574	21488.14
627.768	21092.88
627.963	21174.8
628.157	20806.17
628.352	21111.32
628.546	20357.66
628.74	20967.96
628.935	20488.73
629.129	20427.29
629.323	20423.2
629.517	20245.02
629.712	20234.78
629.906	20148.77
630.1	19814.95
630.294	19948.07
630.489	19946.02
630.683	19913.25
630.877	19499.56
631.071	19479.08
631.265	19706.41
631.459	19255.86
631.653	19141.17
631.848	19214.9
632.042	19151.41
632.236	19092.02
632.43	18985.52
632.624	18864.69
632.818	18766.39
633.012	18184.77
633.206	18491.96
633.4	18305.6
633.594	18104.9
633.788	18270.78
633.982	18272.83
634.176	17932.87
634.369	17572.43
634.563	17781.32
634.757	17640.01
634.951	17484.36
635.145	17721.93
635.339	17578.57
635.533	17160.78
635.726	17480.27
635.92	17199.69
636.114	17201.74
636.308	17027.67
636.501	17031.76
636.695	17070.67
636.889	16738.9
637.083	16564.82
637.276	16443.99
637.47	16454.23
637.664	16321.12
637.857	16460.38
638.051	16345.69
638.244	16263.77
638.438	16087.65
638.632	15903.33
638.825	15563.37
639.019	15868.52
639.212	15868.52
639.406	15413.87
639.599	15542.89
639.793	15743.59
639.986	15358.57
640.18	15362.67
640.373	15374.95
640.567	15202.93
640.76	15315.56
640.954	15243.88
641.147	15131.25
641.34	14877.3
641.534	14832.24
641.727	14596.73
641.92	14692.98
642.114	14518.9
642.307	14537.34
642.5	14172.8
642.694	14172.8
642.887	14205.56
643.08	14252.67
643.273	14332.54
643.467	14129.79
643.66	14002.82
643.853	13742.72
644.046	13671.04
644.239	13814.4
644.432	13759.11
644.626	13789.83
644.819	13460.1
645.012	13683.33
645.205	13406.86
645.398	13468.3
645.591	13271.69
645.784	13462.15
645.977	13144.72
646.17	12923.54
646.363	13163.15
646.556	12896.91
646.749	12817.04
646.942	12941.97
647.135	12610.2
647.328	12864.15
647.521	12774.03
647.714	12397.21
647.907	12581.53
648.099	12472.98
648.292	12602.01
648.485	12450.46
648.678	12059.29
648.871	12343.96
649.064	12061.34
649.256	12286.62
649.449	12094.11
649.642	12104.35
649.835	12106.4
650.027	11883.17
650.22	11737.76
650.413	11670.18
650.605	11717.28
650.798	11899.55
650.991	11606.69
651.183	11559.59
651.376	11227.82
651.568	11367.08
651.761	11442.85
651.954	11268.78
652.146	11332.26
652.339	11027.12
652.531	11172.52
652.724	10861.23
652.916	10818.22
653.109	10926.77
653.301	10732.21
653.494	10914.48
653.686	10752.69
653.879	10789.55
654.071	10609.33
654.263	10625.72
654.456	10490.55
654.648	10371.77
654.84	10437.3
655.033	10422.97
655.225	10259.13
655.417	10156.73
655.61	10148.54
655.802	10164.92
655.994	10052.28
656.186	10066.62
656.379	9939.65
656.571	10027.71
656.763	9923.26
656.955	9765.57
657.148	9779.9
657.34	9681.6
657.532	9577.16
657.724	9714.37
657.916	9532.1
658.108	9464.52
658.3	9513.67
658.492	9439.94
658.684	9534.15
658.876	9368.26
659.068	9403.08
659.26	9120.46
659.452	9171.66
659.644	9157.32
659.836	9149.13
660.028	9192.14
660.22	8966.86
660.412	8991.44
660.604	8870.61
660.796	9038.54
660.988	8807.12
661.18	8784.59
661.372	8880.85
661.563	8798.93
661.755	8604.37
661.947	8544.98
662.139	8522.45
662.331	8420.05
662.522	8397.53
662.714	8426.2
662.906	8387.29
663.097	8268.5
663.289	8235.74
663.481	8295.13
663.673	8205.02
663.864	8075.99
664.056	8207.06
664.247	8096.47
664.439	7877.34
664.631	8106.71
664.822	8078.04
665.014	7836.38
665.205	7951.07
665.397	7959.26
665.588	7973.6
665.78	7695.07
665.971	7557.86
666.163	7842.53
666.354	7846.62
666.546	7594.72
666.737	7561.95
666.929	7406.31
667.12	7570.15
667.311	7545.57
667.503	7396.07
667.694	7604.96
667.885	7510.75
668.077	7213.8
668.268	7351.01
668.459	7228.14
668.651	7213.8
668.842	7314.15
669.033	7170.79
669.224	7086.83
669.416	7162.6
669.607	7002.86
669.798	7047.91
669.989	7068.39
670.18	6834.93
670.371	7023.34
670.563	6908.65
670.754	6976.23
670.945	6753.01
671.136	6863.6
671.327	6718.19
671.518	6943.47
671.709	6785.77
671.9	6763.25
672.091	6789.87
672.282	6710
672.473	6695.66
672.664	6720.24
672.855	6531.83
673.046	6400.76
673.237	6548.21
673.428	6558.45
673.619	6523.63
673.809	6413.04
674	6359.8
674.191	6476.53
674.382	6388.47
674.573	6382.32
674.764	6245.11
674.954	6337.27
675.145	6263.54
675.336	6183.67
675.527	6206.2
675.717	6226.68
675.908	6130.42
676.099	6120.18
676.289	6128.38
676.48	6005.5
676.671	5962.49
676.861	6095.61
677.052	5868.28
677.243	5952.25
677.433	5982.97
677.624	6064.89
677.814	5913.34
678.005	5886.72
678.195	5862.14
678.386	5776.13
678.576	5823.23
678.767	5858.04
678.957	5917.44
679.148	5761.79
679.338	5819.13
679.529	5776.13
679.719	5942.01
679.909	5907.2
680.1	5808.89
680.29	5833.47
680.481	5657.34
680.671	5565.18
680.861	5575.42
681.052	5749.5
681.242	5511.94
681.432	5661.44
681.622	5649.15
681.813	5452.55
682.003	5556.99
682.193	5593.86
682.383	5507.84
682.573	5436.16
682.764	5511.94
682.954	5495.55
683.144	5464.83
683.334	5436.16
683.524	5452.55
683.714	5485.31
683.904	5411.59
684.094	5311.24
684.284	5442.31
684.474	5587.71
684.664	5212.93
684.854	5294.85
685.044	5354.24
685.234	5190.41
685.424	5186.31
685.614	5294.85
685.804	5214.98
685.994	5174.02
686.184	5104.39
686.374	5124.87
686.564	5069.58
686.753	5118.73
686.943	4934.41
687.133	5051.14
687.323	4907.79
687.513	5077.77
687.702	4920.07
687.892	4909.83
688.082	4911.88
688.272	4862.73
688.461	4834.06
688.651	4944.65
688.841	4819.72
689.03	4928.27
689.22	4817.68
689.41	4758.28
689.599	4743.95
689.789	4705.04
689.979	4709.13
690.168	4844.3
690.358	4752.14
690.547	4612.88
690.737	4717.33
690.926	4571.92
691.116	4659.98
691.305	4641.55
691.495	4483.86
691.684	4504.34
691.874	4612.88
692.063	4512.53
692.252	4287.25
692.442	4406.03
692.631	4385.55
692.82	4387.6
693.01	4260.63
693.199	4303.64
693.388	4246.29
693.578	4250.39
693.767	4383.51
693.956	4328.21
694.146	4240.15
694.335	4225.81
694.524	4176.66
694.713	4123.41
694.902	4086.55
695.092	4133.65
695.281	4051.74
695.47	4043.54
695.659	4031.26
695.848	3922.71
696.037	3969.82
696.226	3851.03
696.415	3965.72
696.604	4041.5
696.793	4014.87
696.982	3939.1
697.171	3947.29
697.36	3914.52
697.549	3791.64
697.738	3758.88
697.927	3820.32
698.116	3762.97
698.305	3801.88
698.494	3824.41
698.683	3699.48
698.872	3867.42
699.061	3668.77
699.25	3779.36
699.438	3562.27
699.627	3627.81
699.816	3707.68
700.005	3484.45
700.193	3648.29
700.382	3638.05
700.571	3588.89
700.76	3582.75
700.948	3543.84
701.137	3623.71
701.326	3631.9
701.514	3586.85
701.703	3570.46
701.892	3541.79
702.08	3689.25
702.269	3603.23
702.457	3543.84
702.646	3521.31
702.834	3502.88
703.023	3631.9
703.212	3423.01
703.4	3375.91
703.589	3480.35
703.777	3537.7
703.965	3355.43
704.154	3447.58
704.342	3439.39
704.531	3398.43
704.719	3463.97
704.907	3423.01
705.096	3416.87
705.284	3287.84
705.472	3306.27
705.661	3275.56
705.849	3351.33
706.037	3371.81
706.226	3242.79
706.414	3291.94
706.602	3285.8
706.79	3414.82
706.979	3302.18
707.167	3525.41
707.355	3343.14
707.543	3271.46
707.731	3253.03
707.919	3302.18
708.107	3167.01
708.296	3310.37
708.484	3111.72
708.672	3269.41
708.86	3275.56
709.048	3271.46
709.236	3171.11
709.424	3203.88
709.612	3197.73
709.8	3259.17
709.988	3167.01
710.176	3152.68
710.364	3246.88
710.551	3234.6
710.739	3099.43
710.927	3046.18
711.115	3105.57
711.303	3179.3
711.491	3230.5
711.679	3124.01
711.866	3224.36
712.054	3380
712.242	3121.96
712.43	3099.43
712.617	3140.39
712.805	3076.9
712.993	3052.33
713.181	3009.32
713.368	3146.53
713.556	3091.24
713.744	3074.85
713.931	3044.13
714.119	3068.71
714.306	3089.19
714.494	3060.52
714.682	3029.8
714.869	3019.56
715.057	3058.47
715.244	3081
715.432	3146.53
715.619	2956.07
715.807	3033.9
715.994	3050.28
716.182	2970.41
716.369	3072.81
716.556	3070.76
716.744	2992.94
716.931	3001.13
717.119	3044.13
717.306	3167.01
717.493	3019.56
717.681	2999.08
717.868	2966.31
718.055	3117.86
718.242	2980.65
718.43	3107.62
718.617	3064.61
718.804	3070.76
718.991	3042.09
719.179	3087.14
719.366	3058.47
719.553	2997.03
719.74	2872.11
719.927	3040.04
720.114	3074.85
720.301	2951.98
720.488	3046.18
720.676	2992.94
720.863	2962.22
721.05	3103.53
721.237	2984.74
721.424	3005.22
721.611	3013.42
721.798	2954.02
721.985	2927.4
722.172	2992.94
722.358	2984.74
722.545	2925.35
722.732	2904.87
722.919	3140.39
723.106	3013.42
723.293	2949.93
723.48	3062.57
723.667	2999.08
723.853	3033.9
724.04	3027.75
724.227	3027.75
724.414	2906.92
724.6	3081
724.787	3046.18
724.974	3083.05
725.161	3029.8
725.347	3160.87
725.534	2956.07
725.72	2999.08
725.907	3031.85
726.094	3099.43
726.28	3064.61
726.467	2999.08
726.653	3081
726.84	3023.66
727.027	3048.23
727.213	3070.76
727.4	3093.29
727.586	3074.85
727.773	3062.57
727.959	2939.69
728.145	3132.2
728.332	2970.41
728.518	3040.04
728.705	3056.42
728.891	3074.85
729.077	3101.48
729.264	2888.49
729.45	3001.13
729.636	3054.37
729.823	2990.89
730.009	3013.42
730.195	3097.38
730.382	3187.49
730.568	2941.74
730.754	3025.7
730.94	2980.65
731.126	3195.68
731.313	3029.8
731.499	3064.61
731.685	3107.62
731.871	3064.61
732.057	3197.73
732.243	3216.16
732.429	2898.73
732.615	3175.2
732.801	3195.68
732.987	3058.47
733.173	3066.66
733.359	3050.28
733.545	3156.77
733.731	2982.7
733.917	3103.53
734.103	3281.7
734.289	3246.88
734.475	3140.39
734.661	3214.12
734.847	3167.01
735.033	3212.07
735.219	3169.06
735.404	3124.01
735.59	3070.76
735.776	3144.49
735.962	3093.29
736.148	3279.65
736.333	3130.15
736.519	3183.4
736.705	3171.11
736.89	3085.09
737.076	3070.76
737.262	3042.09
737.447	3060.52
737.633	3121.96
737.819	3095.33
738.004	3189.54
738.19	3214.12
738.375	3121.96
738.561	3142.44
738.747	3201.83
738.932	3111.72
739.118	3064.61
739.303	3109.67
739.489	3312.42
739.674	3101.48
739.859	3238.69
740.045	2941.74
740.23	3187.49
740.416	3113.77
740.601	3232.55
740.786	3089.19
740.972	3085.09
741.157	3130.15
741.342	3037.99
741.528	3189.54
741.713	3132.2
741.898	3042.09
742.084	3138.34
742.269	3216.16
742.454	3138.34
742.639	3207.97
742.824	3066.66
743.01	3134.25
743.195	3124.01
743.38	3060.52
743.565	3130.15
743.75	3081
743.935	3115.81
744.12	3009.32
744.305	3056.42
744.49	2974.5
744.675	3058.47
744.86	3037.99
745.045	3128.1
745.23	3001.13
745.415	2951.98
745.6	3031.85
745.785	3033.9
745.97	3081
746.155	2988.84
746.34	3035.94
746.525	3058.47
746.71	2988.84
746.895	2859.82
747.079	2902.83
747.264	2898.73
747.449	2939.69
747.634	2892.59
747.819	2882.35
748.003	2870.06
748.188	2781.99
748.373	2857.77
748.557	2779.95
748.742	2833.19
748.927	2700.08
749.111	2689.84
749.296	2720.56
749.481	2730.8
749.665	2827.05
749.85	2675.5
750.034	2728.75
750.219	2755.37
750.404	2689.84
750.588	2632.49
750.773	2601.77
750.957	2665.26
751.141	2716.46
751.326	2659.12
751.51	2550.57
751.695	2655.02
751.879	2655.02
752.064	2669.36
752.248	2540.33
752.432	2554.67
752.617	2573.1
752.801	2521.9
752.985	2456.37
753.17	2566.96
753.354	2480.94
753.538	2534.19
753.722	2429.74
753.907	2562.86
754.091	2392.88
754.275	2401.07
754.459	2513.71
754.643	2401.07
754.828	2417.46
755.012	2353.97
755.196	2300.72
755.38	2347.83
755.564	2286.39
755.748	2278.19
755.932	2325.3
756.116	2329.39
756.3	2173.75
756.484	2167.6
756.668	2220.85
756.852	2177.84
757.036	2143.03
757.22	2171.7
757.404	2124.6
757.588	2073.4
757.772	2229.04
757.956	2087.73
758.14	2167.6
758.323	2138.93
758.507	2147.12
758.691	2093.88
758.875	2079.54
759.059	2036.53
759.242	2120.5
759.426	2122.55
759.61	1983.29
759.794	1964.86
759.977	2003.77
760.161	2046.77
760.345	2102.07
760.528	2020.15
760.712	2059.06
760.895	1971
761.079	2011.96
761.263	1932.09
761.446	1944.38
761.63	1946.42
761.813	1993.53
761.997	2007.86
762.18	1944.38
762.364	1825.59
762.547	1850.17
762.731	1815.35
762.914	1870.65
763.098	1878.84
763.281	1899.32
763.464	1766.2
763.648	1813.31
763.831	1889.08
764.015	1893.18
764.198	1895.22
764.381	1725.24
764.564	1792.83
764.748	1889.08
764.931	1796.92
765.114	1852.22
765.297	1674.04
765.481	1712.96
765.664	1657.66
765.847	1688.38
766.03	1846.07
766.213	1758.01
766.397	1657.66
766.58	1680.19
766.763	1680.19
766.946	1643.32
767.129	1766.2
767.312	1680.19
767.495	1672
767.678	1579.84
767.861	1620.8
768.044	1655.61
768.227	1645.37
768.41	1612.6
768.593	1680.19
768.776	1563.45
768.959	1739.58
769.142	1588.03
769.324	1651.52
769.507	1549.12
769.69	1565.5
769.873	1561.41
770.056	1594.17
770.239	1534.78
770.421	1499.97
770.604	1411.9
770.787	1518.4
770.97	1571.65
771.152	1557.31
771.335	1547.07
771.518	1502.01
771.7	1624.89
771.883	1495.87
772.066	1405.76
772.248	1526.59
772.431	1467.2
772.613	1473.34
772.796	1440.58
772.978	1483.58
773.161	1401.66
773.343	1399.62
773.526	1413.95
773.708	1309.51
773.891	1317.7
774.073	1403.71
774.256	1354.56
774.438	1432.38
774.621	1327.94
774.803	1334.08
774.985	1293.12
775.168	1311.55
775.35	1270.59
775.532	1387.33
775.715	1272.64
775.897	1209.15
776.079	1289.03
776.261	1266.5
776.444	1334.08
776.626	1317.7
776.808	1200.96
776.99	1229.63
777.173	1246.02
777.355	1250.11
777.537	1168.2
777.719	1180.48
777.901	1073.99
778.083	1203.01
778.265	1135.43
778.447	1174.34
778.629	1104.71
778.811	1135.43
778.993	1143.62
779.175	1141.57
779.357	1125.19
779.539	1071.94
779.721	1078.08
779.903	1022.79
780.085	1041.22
780.267	961.35
780.449	1049.41
780.631	1055.56
780.812	1092.42
780.994	1033.03
781.176	996.17
781.358	1028.93
781.54	1020.74
781.721	977.73
781.903	1006.41
782.085	969.54
782.267	975.69
782.448	1045.32
782.63	861
782.812	936.78
782.993	957.25
783.175	959.3
783.357	912.2
783.538	871.24
783.72	867.14
783.901	906.06
784.083	932.68
784.264	836.42
784.446	813.9
784.627	852.81
784.809	887.62
784.99	840.52
785.172	916.3
785.353	846.66
785.535	809.8
785.716	832.33
785.897	748.36
786.079	719.69
786.26	764.75
786.441	779.08
786.623	883.53
786.804	691.02
786.985	795.47
787.167	701.26
787.348	746.31
787.529	811.85
787.71	740.17
787.891	854.86
788.073	719.69
788.254	648.01
788.435	748.36
788.616	701.26
788.797	625.48
788.978	633.68
789.159	623.44
789.34	713.55
789.522	686.92
789.703	590.67
789.884	605
790.065	656.2
790.246	648.01
790.427	688.97
790.607	631.63
790.788	557.9
790.969	613.2
791.15	631.63
791.331	621.39
791.512	607.05
791.693	625.48
791.874	621.39
792.054	695.11
792.235	635.72
792.416	570.19
792.597	572.24
792.778	627.53
792.958	506.7
793.139	465.74
793.32	551.76
793.5	572.24
793.681	562
793.862	596.81
794.042	523.09
794.223	516.94
794.404	580.43
794.584	510.8
794.765	572.24
794.945	539.47
795.126	549.71
795.306	478.03
795.487	502.61
795.667	580.43
795.848	525.13
796.028	475.98
796.209	492.37
796.389	553.8
796.57	412.5
796.75	488.27
796.93	553.8
797.111	537.42
797.291	443.21
797.471	473.93
797.652	582.48
797.832	447.31
798.012	473.93
798.192	480.08
798.373	533.33
798.553	473.93
798.733	459.6
798.913	416.59
799.093	430.93
799.274	502.61
799.454	463.69
799.634	490.32
799.814	500.56
799.994	539.47
800.174	445.26
800.354	379.73
800.534	494.41
800.714	494.41
800.894	359.25
801.074	424.78
801.254	373.58
801.434	351.06
801.614	486.22
801.794	318.29
801.974	1033.03
802.154	371.54
802.334	463.69
802.514	379.73
802.693	373.58
802.873	369.49
803.053	406.35
803.233	389.97
803.413	396.11
803.592	437.07
803.772	392.02
803.952	363.34
804.131	396.11
804.311	420.69
804.491	430.93
804.67	445.26
804.85	447.31
805.03	396.11
805.209	373.58
805.389	355.15
805.568	363.34
805.748	441.17
805.928	359.25
806.107	428.88
806.287	316.24
806.466	336.72
806.646	351.06
806.825	326.48
807.004	256.85
807.184	340.82
807.363	303.95
807.543	387.92
807.722	324.43
807.901	369.49
808.081	457.55
808.26	183.12
808.439	375.63
808.619	310.1
808.798	383.82
808.977	297.81
809.156	369.49
809.336	316.24
809.515	375.63
809.694	289.62
809.873	289.62
810.052	303.95
810.231	369.49
810.411	299.86
810.59	316.24
810.769	260.95
810.948	349.01
811.127	281.43
811.306	316.24
811.485	303.95
811.664	234.32
811.843	246.61
812.022	283.47
812.201	230.23
812.38	289.62
812.559	267.09
812.737	285.52
812.916	234.32
813.095	306
813.274	256.85
813.453	269.14
813.632	234.32
813.811	342.86
813.989	254.8
814.168	254.8
814.347	265.04
814.526	256.85
814.704	355.15
814.883	320.34
815.062	240.47
815.24	242.51
815.419	203.6
815.598	246.61
815.776	273.23
815.955	209.75
816.133	275.28
816.312	205.65
816.49	234.32
816.669	152.4
816.847	213.84
817.026	242.51
817.204	258.9
817.383	238.42
817.561	234.32
817.74	193.36
817.918	269.14
818.097	230.23
818.275	211.79
818.453	285.52
818.632	187.22
818.81	234.32
818.988	201.55
819.167	213.84
819.345	197.46
819.523	183.12
819.701	170.83
819.879	170.83
820.058	236.37
820.236	140.12
820.414	160.59
820.592	203.6
820.77	174.93
820.948	232.27
821.127	207.7
821.305	205.65
821.483	176.98
821.661	203.6
821.839	228.18
822.017	125.78
822.195	246.61
822.373	172.88
822.551	199.51
822.729	211.79
822.907	168.79
823.085	201.55
823.262	277.33
823.44	197.46
823.618	219.99
823.796	203.6
823.974	211.79
824.152	209.75
824.329	172.88
824.507	289.62
824.685	142.16
824.863	201.55
825.04	195.41
825.218	232.27
825.396	113.49
825.574	166.74
825.751	203.6
825.929	164.69
826.107	172.88
826.284	207.7
826.462	148.31
826.639	174.93
826.817	123.73
826.994	174.93
827.172	187.22
827.349	269.14
827.527	93.01
827.704	181.07
827.882	162.64
828.059	166.74
828.237	158.55
828.414	183.12
828.591	78.68
828.769	105.3
828.946	136.02
829.124	174.93
829.301	111.44
829.478	228.18
829.655	222.03
829.833	127.83
830.01	129.88
830.187	103.25
830.364	84.82
830.542	228.18
830.719	209.75
830.896	166.74
831.073	115.54
831.25	238.42
831.427	199.51
831.604	129.88
831.782	119.64
831.959	226.13
832.136	168.79
832.313	172.88
832.49	160.59
832.667	154.45
832.844	170.83
833.021	232.27
833.198	115.54
833.374	123.73
833.551	179.03
833.728	140.12
833.905	166.74
834.082	117.59
834.259	62.29
834.436	174.93
834.612	54.1
834.789	203.6
834.966	136.02
835.143	121.68
835.319	35.67
835.496	234.32
835.673	158.55
835.85	158.55
836.026	164.69
836.203	99.16
836.38	76.63
836.556	103.25
836.733	146.26
836.909	99.16
837.086	90.96
837.262	174.93
837.439	78.68
837.616	121.68
837.792	162.64
837.968	111.44
838.145	101.2
838.321	138.07
838.498	125.78
838.674	146.26
838.851	154.45
839.027	144.21
839.203	107.35
839.38	88.92
839.556	140.12
839.732	144.21
839.909	123.73
840.085	60.24
840.261	60.24
840.437	166.74
840.614	52.05
840.79	95.06
840.966	64.34
841.142	76.63
841.318	43.86
841.494	138.07
841.671	148.31
841.847	60.24
842.023	95.06
842.199	166.74
842.375	154.45
842.551	70.48
842.727	80.72
842.903	115.54
843.079	70.48
843.255	224.08
843.431	54.1
843.607	78.68
843.783	37.72
843.959	86.87
844.134	58.2
844.31	109.4
844.486	64.34
844.662	97.11
844.838	115.54
845.013	97.11
845.189	29.52
845.365	179.03
845.541	74.58
845.716	93.01
845.892	127.83
846.068	97.11
846.244	95.06
846.419	121.68
846.595	58.2
846.77	52.05
846.946	136.02
847.122	109.4
847.297	117.59
847.473	78.68
847.648	50
847.824	138.07
847.999	88.92
848.175	93.01
848.35	80.72
848.526	23.38
848.701	140.12
848.876	43.86
849.052	50
849.227	62.29
849.403	103.25
849.578	68.44
849.753	74.58
849.929	72.53
850.104	21.33
850.279	93.01
850.454	97.11
850.63	80.72
850.805	52.05
850.98	97.11
851.155	127.83
851.33	68.44
851.505	39.76
851.681	117.59
851.856	70.48
852.031	86.87
852.206	54.1
852.381	54.1
852.556	25.43
852.731	119.64
852.906	93.01
853.081	50
853.256	97.11
853.431	140.12
853.606	58.2
853.781	121.68
853.956	37.72
854.131	43.86
854.305	-3.24
854.48	117.59
854.655	17.24
854.83	56.15
855.005	47.96
855.18	156.5
855.354	93.01
855.529	64.34
855.704	-1.19
855.879	97.11
856.053	33.62
856.228	27.48
856.403	78.68
856.577	50
856.752	-17.58
856.926	2.9
857.101	90.96
857.276	9.05
857.45	54.1
857.625	17.24
857.799	35.67
857.974	-48.3
858.148	62.29
858.323	2.9
858.497	78.68
858.672	62.29
858.846	68.44
859.02	99.16
859.195	37.72
859.369	70.48
859.543	37.72
859.718	29.52
859.892	-19.63
860.066	35.67
860.241	-11.43
860.415	43.86
860.589	-11.43
860.763	74.58
860.938	37.72
861.112	33.62
861.286	-27.82
861.46	109.4
861.634	101.2
861.808	50
861.982	19.29
862.157	-9.39
862.331	58.2
862.505	41.81
862.679	35.67
862.853	-52.39
863.027	9.05
863.201	70.48
863.375	29.52
863.549	-38.06
863.722	123.73
863.896	54.1
864.07	84.82
864.244	47.96
864.418	58.2
864.592	37.72
864.766	68.44
864.939	-13.48
865.113	9.05
865.287	70.48
865.461	-38.06
865.634	113.49
865.808	2.9
865.982	17.24
866.156	-7.34
866.329	9.05
866.503	78.68
866.676	119.64
866.85	117.59
867.024	43.86
867.197	90.96
867.371	17.24
867.544	15.19
867.718	19.29
867.891	52.05
868.065	84.82
868.238	31.57
868.412	43.86
868.585	43.86
868.759	68.44
868.932	21.33
869.105	-31.91
869.279	76.63
869.452	50
869.625	47.96
869.799	35.67
869.972	37.72
870.145	-1.19
870.319	56.15
870.492	-3.24
870.665	39.76
870.838	54.1
871.011	-25.77
871.185	45.91
871.358	70.48
871.531	35.67
871.704	33.62
871.877	29.52
872.05	-50.35
872.223	35.67
872.396	41.81
872.569	4.95
872.742	-5.29
872.915	74.58
873.088	86.87
873.261	70.48
873.434	50
873.607	47.96
873.78	90.96
873.953	2.9
874.126	62.29
874.299	31.57
874.471	23.38
874.644	52.05
874.817	82.77
874.99	9.05
875.163	23.38
875.335	-33.96
875.508	52.05
875.681	-52.39
875.853	31.57
876.026	4.95
876.199	7
876.371	50
876.544	-1.19
876.717	2.9
876.889	-25.77
877.062	15.19
877.234	-23.72
877.407	-46.25
877.579	21.33
877.752	25.43
877.924	21.33
878.097	-5.29
878.269	11.09
878.442	9.05
878.614	7
878.786	88.92
878.959	56.15
879.131	109.4
879.303	-62.63
879.476	-7.34
879.648	-3.24
879.82	11.09
879.993	13.14
880.165	41.81
880.337	23.38
880.509	-9.39
880.681	-29.87
880.854	-38.06
881.026	29.52
881.198	13.14
881.37	-3.24
881.542	-3.24
881.714	19.29
881.886	-17.58
882.058	-11.43
882.23	29.52
882.402	-62.63
882.574	121.68
882.746	0.85
882.918	111.44
883.09	31.57
883.262	72.53
883.434	64.34
883.606	-25.77
883.778	29.52
883.95	90.96
884.122	70.48
884.293	25.43
884.465	7
884.637	29.52
884.809	31.57
884.98	56.15
885.152	-33.96
885.324	-40.11
885.496	54.1
885.667	58.2
885.839	54.1
886.011	60.24
886.182	17.24
886.354	0.85
886.525	-31.91
886.697	-1.19
886.869	-23.72
887.04	-38.06
887.212	39.76
887.383	13.14
887.555	-33.96
887.726	2.9
887.897	-1.19
888.069	50
888.24	50
888.412	43.86
888.583	27.48
888.754	9.05
888.926	-25.77
889.097	-3.24
889.268	-60.59
889.44	15.19
889.611	11.09
889.782	-1.19
889.953	-19.63
890.125	-36.01
890.296	-27.82
890.467	56.15
890.638	9.05
890.809	82.77
890.98	-17.58
891.151	82.77
891.323	9.05
891.494	-1.19
891.665	17.24
891.836	9.05
892.007	43.86
892.178	-21.67
892.349	4.95
892.52	29.52
892.691	0.85
892.862	29.52
893.032	41.81
893.203	-21.67
893.374	64.34
893.545	60.24
893.716	47.96
893.887	41.81
894.057	64.34
894.228	-29.87
894.399	-40.11
894.57	60.24
894.74	58.2
894.911	-7.34
895.082	-3.24
895.253	-5.29
895.423	2.9
895.594	43.86
895.764	50
895.935	37.72
896.106	37.72
896.276	-70.83
896.447	29.52
896.617	21.33
896.788	2.9
896.958	54.1
897.129	4.95
897.299	-7.34
897.47	47.96
897.64	60.24
897.81	-5.29
897.981	-11.43
898.151	-11.43
898.322	27.48
898.492	-7.34
898.662	-3.24
898.832	54.1
899.003	-76.97
899.173	-3.24
899.343	27.48
899.513	0.85
