Data from USB4F104151__88__12-42-40-726.txt Node

Date: Fri Mar 14 12:42:40 EDT 2025
User: louis
Spectrometer: USB4F10415
Trigger mode: 4
Integration Time (sec): 3.000000E-2
Scans to average: 1
Electric dark correction enabled: true
Nonlinearity correction enabled: false
Boxcar width: 0
XAxis mode: Wavelengths
Number of Pixels in Spectrum: 3648
>>>>>Begin Spectral Data<<<<<
178.204	-122.54
178.424	-122.54
178.644	-122.54
178.864	-140.97
179.084	-110.25
179.304	-59.05
179.524	33.11
179.744	0.34
179.964	2.39
180.184	31.06
180.404	33.11
180.624	-22.19
180.844	-9.9
181.064	-28.33
181.283	-1.71
181.503	24.92
181.723	-3.75
181.943	-61.1
182.163	31.06
182.383	-54.95
182.602	57.68
182.822	72.02
183.042	63.83
183.262	-11.95
183.482	-3.75
183.701	-34.47
183.921	26.96
184.141	-24.23
184.361	0.34
184.58	33.11
184.8	-30.38
185.02	8.53
185.239	59.73
185.459	33.11
185.679	43.35
185.898	-30.38
186.118	53.59
186.338	74.07
186.557	37.2
186.777	-77.48
186.997	24.92
187.216	-3.75
187.436	86.36
187.655	14.68
187.875	20.82
188.095	43.35
188.314	74.07
188.534	59.73
188.753	-18.09
188.973	26.96
189.192	53.59
189.412	49.49
189.631	53.59
189.851	92.5
190.07	82.26
190.29	-30.38
190.509	-26.28
190.729	22.87
190.948	10.58
191.168	131.41
191.387	100.69
191.607	-1.71
191.826	53.59
192.045	26.96
192.265	-7.85
192.484	14.68
192.704	-42.67
192.923	-36.52
193.142	0.34
193.362	49.49
193.581	94.55
193.8	-20.14
194.02	67.92
194.239	51.54
194.458	61.78
194.678	-26.28
194.897	76.12
195.116	72.02
195.335	41.3
195.555	43.35
195.774	-30.38
195.993	119.12
196.212	-5.8
196.432	29.01
196.651	6.49
196.87	37.2
197.089	35.16
197.308	2.39
197.528	61.78
197.747	-73.39
197.966	-11.95
198.185	55.64
198.404	-11.95
198.623	-5.8
198.842	90.45
199.062	29.01
199.281	117.08
199.5	-26.28
199.719	94.55
199.938	-28.33
200.157	43.35
200.376	123.22
200.595	65.88
200.814	76.12
201.033	24.92
201.252	88.4
201.471	47.44
201.69	14.68
201.909	33.11
202.128	20.82
202.347	43.35
202.566	0.34
202.785	-67.24
203.004	-22.19
203.223	84.31
203.442	14.68
203.661	29.01
203.879	22.87
204.098	53.59
204.317	59.73
204.536	-5.8
204.755	31.06
204.974	4.44
205.193	84.31
205.411	100.69
205.63	16.73
205.849	110.93
206.068	31.06
206.287	16.73
206.505	72.02
206.724	26.96
206.943	33.11
207.162	31.06
207.381	-22.19
207.599	61.78
207.818	26.96
208.037	2.39
208.255	20.82
208.474	51.54
208.693	33.11
208.911	2.39
209.13	53.59
209.349	49.49
209.567	37.2
209.786	98.64
210.005	-20.14
210.223	80.21
210.442	41.3
210.661	6.49
210.879	55.64
211.098	78.16
211.316	16.73
211.535	37.2
211.753	26.96
211.972	16.73
212.191	72.02
212.409	-28.33
212.628	4.44
212.846	16.73
213.065	2.39
213.283	45.4
213.502	6.49
213.72	18.77
213.938	59.73
214.157	-50.86
214.375	53.59
214.594	-16.04
214.812	98.64
215.031	14.68
215.249	-20.14
215.467	-1.71
215.686	-5.8
215.904	80.21
216.122	59.73
216.341	-20.14
216.559	80.21
216.778	45.4
216.996	88.4
217.214	35.16
217.432	39.25
217.651	-24.23
217.869	84.31
218.087	43.35
218.306	-7.85
218.524	26.96
218.742	86.36
218.96	-22.19
219.179	31.06
219.397	10.58
219.615	65.88
219.833	92.5
220.051	-18.09
220.27	39.25
220.488	26.96
220.706	49.49
220.924	78.16
221.142	-24.23
221.36	20.82
221.578	24.92
221.796	-9.9
222.015	90.45
222.233	20.82
222.451	92.5
222.669	115.03
222.887	82.26
223.105	33.11
223.323	74.07
223.541	10.58
223.759	-7.85
223.977	-22.19
224.195	67.92
224.413	-16.04
224.631	69.97
224.849	2.39
225.067	108.88
225.285	12.63
225.503	12.63
225.721	-65.19
225.939	72.02
226.157	12.63
226.375	35.16
226.592	24.92
226.81	8.53
227.028	43.35
227.246	100.69
227.464	-44.71
227.682	20.82
227.9	37.2
228.117	51.54
228.335	119.12
228.553	47.44
228.771	12.63
228.989	78.16
229.206	74.07
229.424	-42.67
229.642	-5.8
229.86	24.92
230.077	69.97
230.295	41.3
230.513	18.77
230.731	76.12
230.948	65.88
231.166	98.64
231.384	-7.85
231.601	43.35
231.819	57.68
232.037	26.96
232.254	12.63
232.472	24.92
232.689	92.5
232.907	-18.09
233.125	53.59
233.342	31.06
233.56	-54.95
233.777	12.63
233.995	35.16
234.213	72.02
234.43	-24.23
234.648	127.32
234.865	43.35
235.083	22.87
235.3	8.53
235.518	8.53
235.735	135.51
235.953	82.26
236.17	61.78
236.388	35.16
236.605	26.96
236.822	72.02
237.04	10.58
237.257	41.3
237.475	35.16
237.692	74.07
237.909	61.78
238.127	41.3
238.344	2.39
238.562	8.53
238.779	41.3
238.996	-42.67
239.214	-7.85
239.431	43.35
239.648	26.96
239.865	88.4
240.083	61.78
240.3	123.22
240.517	-32.43
240.735	33.11
240.952	39.25
241.169	117.08
241.386	37.2
241.603	78.16
241.821	0.34
242.038	100.69
242.255	41.3
242.472	-34.47
242.689	33.11
242.907	-30.38
243.124	76.12
243.341	20.82
243.558	35.16
243.775	-57
243.992	-5.8
244.209	41.3
244.426	37.2
244.643	16.73
244.86	94.55
245.078	10.58
245.295	26.96
245.512	29.01
245.729	51.54
245.946	92.5
246.163	-32.43
246.38	0.34
246.597	59.73
246.814	18.77
247.031	24.92
247.248	63.83
247.464	2.39
247.681	14.68
247.898	0.34
248.115	20.82
248.332	57.68
248.549	100.69
248.766	12.63
248.983	39.25
249.2	-38.57
249.417	55.64
249.633	4.44
249.85	80.21
250.067	-3.75
250.284	20.82
250.501	37.2
250.717	78.16
250.934	-1.71
251.151	4.44
251.368	-13.99
251.585	12.63
251.801	49.49
252.018	26.96
252.235	106.84
252.451	18.77
252.668	2.39
252.885	26.96
253.102	86.36
253.318	43.35
253.535	-22.19
253.752	57.68
253.968	-32.43
254.185	37.2
254.401	33.11
254.618	43.35
254.835	43.35
255.051	80.21
255.268	55.64
255.484	86.36
255.701	6.49
255.917	20.82
256.134	-54.95
256.351	-5.8
256.567	8.53
256.784	31.06
257	-20.14
257.217	26.96
257.433	-24.23
257.65	82.26
257.866	49.49
258.082	-22.19
258.299	-7.85
258.515	26.96
258.732	45.4
258.948	86.36
259.165	51.54
259.381	-11.95
259.597	37.2
259.814	41.3
260.03	-11.95
260.246	67.92
260.463	63.83
260.679	45.4
260.895	26.96
261.112	20.82
261.328	22.87
261.544	-28.33
261.761	74.07
261.977	53.59
262.193	-20.14
262.409	112.98
262.626	37.2
262.842	41.3
263.058	-16.04
263.274	47.44
263.49	16.73
263.707	37.2
263.923	76.12
264.139	-13.99
264.355	24.92
264.571	72.02
264.787	-5.8
265.004	35.16
265.22	67.92
265.436	72.02
265.652	-28.33
265.868	33.11
266.084	14.68
266.3	35.16
266.516	24.92
266.732	59.73
266.948	59.73
267.164	24.92
267.38	100.69
267.596	39.25
267.812	162.13
268.028	-13.99
268.244	37.2
268.46	26.96
268.676	24.92
268.892	92.5
269.108	-24.23
269.324	49.49
269.54	-36.52
269.756	98.64
269.972	-18.09
270.188	47.44
270.403	29.01
270.619	49.49
270.835	20.82
271.051	0.34
271.267	51.54
271.483	6.49
271.698	43.35
271.914	43.35
272.13	20.82
272.346	-9.9
272.562	29.01
272.777	78.16
272.993	8.53
273.209	35.16
273.425	26.96
273.64	82.26
273.856	26.96
274.072	33.11
274.287	26.96
274.503	31.06
274.719	12.63
274.934	4.44
275.15	8.53
275.366	20.82
275.581	26.96
275.797	-30.38
276.012	-3.75
276.228	0.34
276.444	49.49
276.659	61.78
276.875	-40.62
277.09	65.88
277.306	12.63
277.521	72.02
277.737	-5.8
277.952	63.83
278.168	43.35
278.383	110.93
278.599	106.84
278.814	80.21
279.03	35.16
279.245	35.16
279.461	31.06
279.676	127.32
279.892	-26.28
280.107	-9.9
280.322	10.58
280.538	41.3
280.753	24.92
280.969	88.4
281.184	16.73
281.399	72.02
281.615	41.3
281.83	55.64
282.045	26.96
282.26	0.34
282.476	-13.99
282.691	47.44
282.906	80.21
283.122	-9.9
283.337	33.11
283.552	141.65
283.767	41.3
283.983	67.92
284.198	2.39
284.413	137.56
284.628	-57
284.843	121.17
285.058	37.2
285.274	43.35
285.489	22.87
285.704	63.83
285.919	8.53
286.134	59.73
286.349	-1.71
286.564	-3.75
286.779	45.4
286.995	67.92
287.21	88.4
287.425	24.92
287.64	45.4
287.855	8.53
288.07	16.73
288.285	43.35
288.5	108.88
288.715	104.79
288.93	31.06
289.145	33.11
289.36	78.16
289.575	4.44
289.79	26.96
290.004	-81.58
290.219	29.01
290.434	43.35
290.649	53.59
290.864	-20.14
291.079	61.78
291.294	61.78
291.509	121.17
291.724	74.07
291.938	14.68
292.153	92.5
292.368	76.12
292.583	90.45
292.798	33.11
293.012	47.44
293.227	16.73
293.442	22.87
293.657	74.07
293.871	2.39
294.086	41.3
294.301	106.84
294.516	41.3
294.73	10.58
294.945	-26.28
295.16	-16.04
295.374	108.88
295.589	55.64
295.804	6.49
296.018	39.25
296.233	112.98
296.447	96.6
296.662	-26.28
296.877	39.25
297.091	76.12
297.306	51.54
297.52	2.39
297.735	0.34
297.949	63.83
298.164	45.4
298.378	90.45
298.593	26.96
298.807	16.73
299.022	43.35
299.236	24.92
299.451	-34.47
299.665	-5.8
299.88	-34.47
300.094	63.83
300.309	12.63
300.523	72.02
300.737	51.54
300.952	22.87
301.166	45.4
301.381	-3.75
301.595	37.2
301.809	106.84
302.024	-7.85
302.238	-42.67
302.452	106.84
302.667	78.16
302.881	102.74
303.095	155.99
303.309	80.21
303.524	69.97
303.738	20.82
303.952	-9.9
304.166	35.16
304.381	-11.95
304.595	90.45
304.809	0.34
305.023	76.12
305.237	35.16
305.452	-7.85
305.666	119.12
305.88	76.12
306.094	131.41
306.308	88.4
306.522	16.73
306.736	0.34
306.95	104.79
307.164	-44.71
307.379	29.01
307.593	59.73
307.807	31.06
308.021	106.84
308.235	94.55
308.449	-16.04
308.663	-20.14
308.877	108.88
309.091	78.16
309.305	24.92
309.519	4.44
309.733	110.93
309.947	-57
310.161	80.21
310.374	76.12
310.588	72.02
310.802	51.54
311.016	-3.75
311.23	-36.52
311.444	49.49
311.658	76.12
311.872	43.35
312.085	41.3
312.299	72.02
312.513	33.11
312.727	45.4
312.941	-46.76
313.154	12.63
313.368	86.36
313.582	49.49
313.796	4.44
314.009	67.92
314.223	94.55
314.437	110.93
314.651	74.07
314.864	69.97
315.078	2.39
315.292	16.73
315.505	8.53
315.719	-20.14
315.933	33.11
316.146	0.34
316.36	26.96
316.573	186.71
316.787	-36.52
317.001	76.12
317.214	-42.67
317.428	69.97
317.641	-22.19
317.855	-26.28
318.068	22.87
318.282	35.16
318.495	-5.8
318.709	43.35
318.922	16.73
319.136	174.42
319.349	94.55
319.563	100.69
319.776	69.97
319.99	43.35
320.203	37.2
320.417	82.26
320.63	8.53
320.843	67.92
321.057	43.35
321.27	104.79
321.483	145.75
321.697	59.73
321.91	82.26
322.124	133.46
322.337	74.07
322.55	80.21
322.763	84.31
322.977	-18.09
323.19	14.68
323.403	65.88
323.617	59.73
323.83	72.02
324.043	29.01
324.256	53.59
324.469	-61.1
324.683	69.97
324.896	92.5
325.109	37.2
325.322	-59.05
325.535	43.35
325.748	24.92
325.962	88.4
326.175	72.02
326.388	-11.95
326.601	-5.8
326.814	53.59
327.027	31.06
327.24	102.74
327.453	-28.33
327.666	59.73
327.879	96.6
328.092	92.5
328.305	74.07
328.518	26.96
328.731	31.06
328.944	-32.43
329.157	26.96
329.37	39.25
329.583	110.93
329.796	104.79
330.009	16.73
330.222	35.16
330.435	26.96
330.648	43.35
330.861	4.44
331.073	80.21
331.286	74.07
331.499	0.34
331.712	33.11
331.925	-38.57
332.138	53.59
332.35	39.25
332.563	-7.85
332.776	80.21
332.989	35.16
333.202	14.68
333.414	4.44
333.627	-13.99
333.84	10.58
334.053	37.2
334.265	47.44
334.478	69.97
334.691	33.11
334.903	47.44
335.116	39.25
335.329	35.16
335.541	16.73
335.754	92.5
335.966	26.96
336.179	63.83
336.392	112.98
336.604	88.4
336.817	8.53
337.029	45.4
337.242	6.49
337.454	119.12
337.667	57.68
337.88	119.12
338.092	110.93
338.305	35.16
338.517	57.68
338.729	76.12
338.942	108.88
339.154	14.68
339.367	2.39
339.579	18.77
339.792	-24.23
340.004	98.64
340.217	31.06
340.429	55.64
340.641	43.35
340.854	51.54
341.066	108.88
341.278	76.12
341.491	10.58
341.703	112.98
341.915	-1.71
342.128	72.02
342.34	94.55
342.552	43.35
342.764	86.36
342.977	37.2
343.189	26.96
343.401	57.68
343.613	33.11
343.826	63.83
344.038	33.11
344.25	43.35
344.462	47.44
344.674	53.59
344.886	51.54
345.099	0.34
345.311	35.16
345.523	76.12
345.735	-1.71
345.947	65.88
346.159	108.88
346.371	102.74
346.583	18.77
346.795	117.08
347.007	18.77
347.219	51.54
347.431	47.44
347.643	100.69
347.855	127.32
348.067	39.25
348.279	-38.57
348.491	82.26
348.703	41.3
348.915	29.01
349.127	20.82
349.339	82.26
349.551	33.11
349.763	76.12
349.975	-18.09
350.187	88.4
350.399	108.88
350.61	47.44
350.822	88.4
351.034	-24.23
351.246	117.08
351.458	22.87
351.669	-24.23
351.881	108.88
352.093	96.6
352.305	80.21
352.517	-28.33
352.728	22.87
352.94	76.12
353.152	102.74
353.363	69.97
353.575	147.8
353.787	67.92
353.999	63.83
354.21	121.17
354.422	-11.95
354.633	31.06
354.845	137.56
355.057	22.87
355.268	20.82
355.48	47.44
355.692	53.59
355.903	47.44
356.115	51.54
356.326	53.59
356.538	98.64
356.749	106.84
356.961	61.78
357.172	47.44
357.384	31.06
357.595	43.35
357.807	59.73
358.018	106.84
358.23	86.36
358.441	67.92
358.653	31.06
358.864	78.16
359.075	63.83
359.287	55.64
359.498	115.03
359.709	37.2
359.921	43.35
360.132	51.54
360.344	57.68
360.555	69.97
360.766	20.82
360.977	43.35
361.189	94.55
361.4	-42.67
361.611	61.78
361.823	33.11
362.034	43.35
362.245	110.93
362.456	45.4
362.667	47.44
362.879	12.63
363.09	63.83
363.301	80.21
363.512	55.64
363.723	-9.9
363.935	72.02
364.146	49.49
364.357	-9.9
364.568	12.63
364.779	12.63
364.99	74.07
365.201	47.44
365.412	112.98
365.623	49.49
365.834	41.3
366.045	-11.95
366.256	119.12
366.467	45.4
366.678	18.77
366.889	55.64
367.1	106.84
367.311	57.68
367.522	20.82
367.733	29.01
367.944	59.73
368.155	-13.99
368.366	119.12
368.577	39.25
368.788	10.58
368.999	-11.95
369.209	47.44
369.42	31.06
369.631	143.7
369.842	59.73
370.053	24.92
370.264	102.74
370.474	24.92
370.685	100.69
370.896	29.01
371.107	117.08
371.317	35.16
371.528	-22.19
371.739	117.08
371.95	63.83
372.16	26.96
372.371	12.63
372.582	98.64
372.792	47.44
373.003	72.02
373.214	69.97
373.424	74.07
373.635	43.35
373.846	158.03
374.056	41.3
374.267	8.53
374.477	76.12
374.688	57.68
374.898	119.12
375.109	59.73
375.319	115.03
375.53	65.88
375.74	80.21
375.951	119.12
376.161	106.84
376.372	102.74
376.582	86.36
376.793	55.64
377.003	37.2
377.214	-3.75
377.424	74.07
377.635	43.35
377.845	37.2
378.055	106.84
378.266	-1.71
378.476	57.68
378.686	63.83
378.897	121.17
379.107	90.45
379.317	110.93
379.528	59.73
379.738	69.97
379.948	57.68
380.158	158.03
380.369	67.92
380.579	59.73
380.789	53.59
380.999	51.54
381.21	53.59
381.42	102.74
381.63	20.82
381.84	78.16
382.05	84.31
382.261	82.26
382.471	35.16
382.681	98.64
382.891	119.12
383.101	53.59
383.311	-32.43
383.521	53.59
383.731	61.78
383.941	108.88
384.151	78.16
384.361	104.79
384.571	51.54
384.781	12.63
384.991	39.25
385.201	94.55
385.411	100.69
385.621	76.12
385.831	76.12
386.041	86.36
386.251	72.02
386.461	67.92
386.671	-5.8
386.881	104.79
387.091	35.16
387.301	94.55
387.511	90.45
387.72	29.01
387.93	127.32
388.14	41.3
388.35	82.26
388.56	147.8
388.769	127.32
388.979	174.42
389.189	51.54
389.399	123.22
389.609	65.88
389.818	153.94
390.028	88.4
390.238	84.31
390.447	24.92
390.657	61.78
390.867	69.97
391.076	35.16
391.286	74.07
391.496	18.77
391.705	59.73
391.915	137.56
392.125	119.12
392.334	67.92
392.544	100.69
392.753	45.4
392.963	43.35
393.172	35.16
393.382	57.68
393.591	72.02
393.801	80.21
394.01	188.75
394.22	125.27
394.429	108.88
394.639	94.55
394.848	176.47
395.058	153.94
395.267	127.32
395.477	158.03
395.686	94.55
395.895	88.4
396.105	88.4
396.314	176.47
396.524	139.6
396.733	82.26
396.942	192.85
397.152	170.32
397.361	178.51
397.57	108.88
397.78	127.32
397.989	94.55
398.198	164.18
398.407	151.89
398.617	110.93
398.826	112.98
399.035	133.46
399.244	106.84
399.453	151.89
399.663	145.75
399.872	102.74
400.081	92.5
400.29	125.27
400.499	170.32
400.708	182.61
400.917	100.69
401.127	63.83
401.336	123.22
401.545	211.28
401.754	176.47
401.963	170.32
402.172	127.32
402.381	115.03
402.59	149.84
402.799	162.13
403.008	123.22
403.217	196.95
403.426	225.62
403.635	209.23
403.844	168.27
404.053	198.99
404.262	147.8
404.471	196.95
404.68	127.32
404.888	172.37
405.097	215.38
405.306	158.03
405.515	162.13
405.724	170.32
405.933	258.39
406.142	297.3
406.35	270.67
406.559	192.85
406.768	231.76
406.977	356.69
407.185	264.53
407.394	338.26
407.603	194.9
407.812	299.34
408.02	325.97
408.229	356.69
408.438	323.92
408.646	321.87
408.855	338.26
409.064	454.99
409.272	397.65
409.481	368.98
409.69	371.02
409.898	411.98
410.107	319.82
410.315	495.95
410.524	436.56
410.733	416.08
410.941	440.65
411.15	479.57
411.358	577.87
411.567	663.88
411.775	547.15
411.984	514.38
412.192	637.26
412.401	608.59
412.609	682.31
412.818	700.75
413.026	624.97
413.234	727.37
413.443	753.99
413.651	676.17
413.86	784.71
414.068	885.06
414.276	897.35
414.485	919.88
414.693	876.87
414.901	1063.24
415.11	966.98
415.318	966.98
415.526	1024.33
415.734	1122.63
415.943	1085.76
416.151	1204.55
416.359	1096
416.567	1304.9
416.776	1378.62
416.984	1343.81
417.192	1374.53
417.4	1294.66
417.608	1405.25
417.817	1462.59
418.025	1605.95
418.233	1605.95
418.441	1638.72
418.649	1790.27
418.857	1802.55
419.065	1820.99
419.273	1706.3
419.481	1898.81
419.689	2113.85
419.897	2111.8
420.105	2197.81
420.313	2257.2
420.521	2265.39
420.729	2365.75
420.937	2519.34
421.145	2693.42
421.353	2607.41
421.561	2806.06
421.769	2879.79
421.977	3029.29
422.185	2914.6
422.393	3193.12
422.601	3293.48
422.809	3133.73
423.017	3383.59
423.224	3449.12
423.432	3666.21
423.64	3629.34
423.848	3885.34
424.056	3764.51
424.263	4186.39
424.471	4122.9
424.679	4292.88
424.887	4442.39
425.094	4595.98
425.302	4552.98
425.51	4829.45
425.718	4909.32
425.925	4952.33
426.133	5087.5
426.341	5478.66
426.548	5744.89
426.756	5775.61
426.964	5714.17
427.171	6031.61
427.379	6224.12
427.586	6340.85
427.794	6541.55
428.001	6959.34
428.209	7053.55
428.417	6969.58
428.624	7553.25
428.832	7557.35
429.039	7598.31
429.247	7483.62
429.454	8337.62
429.662	8710.35
429.869	8255.7
430.076	8806.61
430.284	8573.14
430.491	8927.44
430.699	9466.05
430.906	9347.27
431.114	9633.99
431.321	9861.31
431.528	10023.1
431.736	10682.55
431.943	11176.11
432.15	10862.77
432.358	10979.5
432.565	11575.46
432.772	11860.13
432.979	12341.4
433.187	12368.02
433.394	12576.92
433.601	13363.34
433.808	13574.28
434.016	13424.78
434.223	13666.44
434.43	14633.08
434.637	14643.32
434.844	15253.61
435.052	15462.51
435.259	15415.4
435.466	15806.56
435.673	15296.62
435.88	16406.62
436.087	17238.09
436.294	17385.55
436.501	16867.41
436.708	17352.78
436.915	17926.21
437.122	18587.71
437.329	18825.27
437.537	19546.16
437.743	19642.41
437.95	19408.94
438.157	20547.61
438.364	21176.34
438.571	20746.26
438.778	21254.16
438.985	22996.98
439.192	22382.59
439.399	22861.82
439.606	22394.88
439.813	23816.17
440.02	25204.69
440.227	24690.65
440.433	24309.73
440.64	25565.14
440.847	25374.67
441.054	25690.06
441.261	27391.92
441.467	27029.43
441.674	27561.9
441.881	28528.55
442.088	28147.62
442.294	28473.25
442.501	29235.1
442.708	29689.74
442.914	31020.92
443.121	32372.58
443.328	30912.38
443.534	33550.17
443.741	32511.85
443.948	32145.26
444.154	34699.08
444.361	34154.32
444.568	34627.4
444.774	34359.11
444.981	35135.29
445.187	35766.07
445.394	37386.01
445.6	36896.55
445.807	40601.32
446.013	39218.94
446.22	39829.24
446.426	40822.5
446.633	41080.55
446.839	42884.81
447.046	41084.64
447.252	42782.41
447.459	43286.21
447.665	43331.26
447.871	45346.47
448.078	46794.38
448.284	44783.27
448.491	45653.66
448.697	47459.97
448.903	48467.57
449.11	48561.78
449.316	47943.29
449.522	48760.43
449.728	50093.66
449.935	50179.67
450.141	49847.9
450.347	51015.24
450.553	49978.97
450.76	50323.03
450.966	52033.08
451.172	51289.67
451.378	52696.63
451.584	51940.92
451.791	52893.23
451.997	52805.17
452.203	53763.62
452.409	54007.33
452.615	53308.97
452.821	51729.98
453.027	50511.44
453.233	54150.68
453.44	51820.09
453.646	52174.39
453.852	52538.93
454.058	53247.53
454.264	51486.28
454.47	52641.33
454.676	51517
454.882	53628.45
455.088	48854.64
455.294	49507.94
455.5	50175.58
455.705	50990.67
455.911	48701.04
456.117	47804.03
456.323	47302.28
456.529	44680.88
456.735	46837.39
456.941	45534.88
457.147	44959.4
457.352	43488.96
457.558	43089.6
457.764	43290.3
457.97	42168.02
458.176	41344.73
458.381	41477.85
458.587	39651.06
458.793	39450.36
458.999	37359.39
459.204	40259.31
459.41	39229.18
459.616	36462.38
459.821	36519.72
460.027	36579.11
460.233	35692.34
460.438	33754.96
460.644	34189.13
460.85	32259.95
461.055	32128.88
461.261	32194.41
461.466	29681.55
461.672	28739.49
461.878	31381.37
462.083	28592.03
462.289	28282.79
462.494	27828.14
462.7	26599.36
462.905	26085.32
463.111	27236.28
463.316	27031.48
463.522	26662.85
463.727	26638.27
463.932	26341.32
464.138	26341.32
464.343	26167.24
464.549	25808.84
464.754	26374.08
464.959	26202.05
465.165	26009.54
465.37	24815.58
465.575	24227.81
465.781	25145.3
465.986	25511.89
466.191	24426.46
466.397	23990.25
466.602	22800.38
466.807	23654.38
467.012	23672.81
467.218	23441.39
467.423	23275.51
467.628	23367.66
467.833	24698.84
468.038	23693.29
468.244	22740.99
468.449	23855.08
468.654	22861.82
468.859	22806.52
469.064	22880.25
469.269	21821.45
469.474	21843.98
469.679	22091.78
469.885	21743.63
470.09	22052.87
470.295	21876.74
470.5	21123.09
470.705	21374.99
470.91	21135.38
471.115	21125.14
471.32	21182.48
471.525	20926.49
471.73	20604.95
471.935	20520.99
472.139	19994.66
472.344	19920.93
472.549	19886.12
472.754	19595.31
472.959	18966.58
473.164	18767.93
473.369	18704.44
473.574	19200.05
473.778	19083.31
473.983	18837.56
474.188	18792.5
474.393	17797.19
474.598	18196.54
474.802	18061.38
475.007	17477.71
475.212	17977.41
475.417	17059.92
475.621	16887.89
475.826	17133.65
476.031	16961.62
476.235	16590.94
476.44	16685.14
476.645	16492.63
476.849	16640.09
477.054	16341.08
477.259	15951.97
477.463	16003.17
477.668	15552.62
477.872	15722.6
478.077	15460.46
478.282	15011.95
478.486	14966.9
478.691	14905.46
478.895	15063.15
479.1	14868.59
479.304	14903.41
479.509	14588.02
479.713	14979.18
479.918	14344.31
480.122	14284.92
480.326	14547.06
480.531	14063.74
480.735	14178.43
480.94	13981.82
481.144	14413.95
481.348	13754.5
481.553	14063.74
481.757	13643.91
481.961	13934.72
482.166	14022.78
482.37	13813.89
482.574	13723.78
482.778	13863.04
482.983	14121.09
483.187	13944.96
483.391	13803.65
483.595	13594.76
483.8	13695.11
484.004	13701.25
484.208	13850.75
484.412	13682.82
484.616	13901.95
484.821	13748.36
485.025	13414.54
485.229	13580.42
485.433	13697.16
485.637	13652.1
485.841	13752.45
486.045	13611.14
486.249	13641.86
486.453	13660.29
486.657	13607.05
486.861	13809.79
487.065	13377.67
487.269	13760.64
487.473	13445.26
487.677	13740.16
487.881	13852.8
488.085	13787.27
488.289	13496.46
488.493	13686.92
488.697	13746.31
488.901	13611.14
489.105	13639.81
489.309	13746.31
489.512	13721.73
489.716	13912.19
489.92	13904
490.124	13807.75
490.328	13949.06
490.531	13887.62
490.735	13977.73
490.939	13957.25
491.143	13957.25
491.346	13926.53
491.55	14151.81
491.754	14090.37
491.958	14069.89
492.161	14407.8
492.365	14540.92
492.569	14530.68
492.772	14536.82
492.976	14270.59
493.18	14565.5
493.383	14690.42
493.587	14776.44
493.79	15122.54
493.994	14706.8
494.197	15022.19
494.401	15071.34
494.605	15052.91
494.808	15382.63
495.012	15261.8
495.215	15380.59
495.419	15540.33
495.622	15677.54
495.825	15622.25
496.029	15896.67
496.232	16158.81
496.436	16236.64
496.639	16367.71
496.843	16134.24
497.046	16380
497.249	17102.93
497.453	16646.23
497.656	16842.84
497.859	17143.89
498.063	17340.49
498.266	17461.32
498.469	17344.59
498.673	17506.38
498.876	17885.25
499.079	18253.89
499.282	18131.01
499.485	18800.69
499.689	18507.83
499.892	18946.1
500.095	18866.23
500.298	19462.19
500.501	19019.83
500.705	19841.06
500.908	19955.75
501.111	19994.66
501.314	20262.94
501.517	20764.7
501.72	20799.51
501.923	20508.7
502.126	21032.98
502.329	21491.73
502.532	21465.1
502.735	21827.59
502.938	22020.1
503.141	22099.97
503.344	22505.47
503.547	22630.4
503.75	22861.82
503.953	23529.45
504.156	23066.61
504.359	23418.86
504.562	23670.76
504.765	23961.58
504.968	24444.9
505.17	24563.68
505.373	24651.74
505.576	24412.13
505.779	25249.75
505.982	25454.54
506.185	26044.36
506.387	26077.13
506.59	25966.54
506.793	26959.8
506.996	26843.07
507.198	27563.95
507.401	27414.45
507.604	27645.87
507.807	27994.03
508.009	28067.75
508.212	28501.92
508.415	29028.25
508.617	29200.28
508.82	29327.25
509.022	28862.36
509.225	29859.73
509.428	30041.99
509.63	30171.02
509.833	30205.83
510.035	30857.09
510.238	30629.76
510.44	31610.74
510.643	31776.62
510.845	32259.95
511.048	32223.08
511.25	32393.06
511.453	32372.58
511.655	33513.3
511.858	33062.75
512.06	33572.69
512.262	33781.59
512.465	33929.04
512.667	34266.95
512.87	34445.13
513.072	34946.88
513.274	35422.01
513.477	35682.1
513.679	36132.65
513.881	35796.79
514.084	36478.76
514.286	36599.59
514.488	36992.8
514.69	37750.55
514.893	37338.91
515.095	37787.41
515.297	38414.09
515.499	38248.21
515.701	38649.61
515.904	39227.13
516.106	39286.53
516.308	40333.04
516.51	40101.62
516.712	39976.69
516.914	40744.68
517.116	40947.43
517.318	41242.34
517.52	41541.34
517.722	41672.41
517.925	42032.85
518.127	42202.83
518.329	42594
518.531	42559.18
518.733	43099.84
518.935	43693.75
519.136	43607.74
519.338	44547.76
519.54	44359.34
519.742	44666.54
519.944	44742.31
520.146	45776.54
520.348	45635.23
520.55	46259.86
520.752	46046.87
520.954	46984.84
521.155	46573.2
521.357	47126.15
521.559	47543.94
521.761	47824.51
521.963	47648.38
522.164	48299.64
522.366	47951.48
522.568	48871.02
522.77	48537.2
522.971	49688.16
523.173	49122.92
523.375	49776.22
523.576	49518.18
523.778	49704.54
523.98	50400.85
524.181	51060.3
524.383	49991.26
524.584	50888.27
524.786	50929.23
524.988	50658.9
525.189	51406.4
525.391	51729.98
525.592	51867.2
525.794	51996.22
525.995	52002.36
526.197	52076.09
526.398	52098.62
526.6	52624.95
526.801	52604.47
527.003	52977.2
527.204	52555.32
527.406	53368.36
527.607	52842.03
527.808	53767.71
528.01	52696.63
528.211	53517.86
528.412	54478.36
528.614	53702.18
528.815	54048.28
529.016	54529.56
529.218	54060.57
529.419	54105.63
529.62	54537.75
529.822	54175.26
530.023	54646.29
530.224	54173.21
530.425	54038.04
530.626	53900.83
530.828	54449.69
531.029	55148.04
531.23	54341.14
531.431	54502.93
531.632	55021.07
531.833	54793.75
532.035	54908.43
532.236	54855.18
532.437	54910.48
532.638	54488.6
532.839	54982.16
533.04	55324.17
533.241	54287.9
533.442	55709.19
533.643	54973.97
533.844	55041.55
534.045	54898.19
534.246	54365.72
534.447	55336.46
534.648	54767.12
534.849	55455.24
535.05	54414.87
535.251	55283.21
535.451	54832.66
535.652	55227.91
535.853	55277.07
536.054	55211.53
536.255	55340.55
536.456	54994.45
536.657	55614.98
536.857	55080.46
537.058	54730.26
537.259	55217.67
537.46	54720.02
537.66	54758.93
537.861	54976.01
538.062	54961.68
538.263	55586.31
538.463	54885.9
538.664	54803.99
538.865	54693.39
539.065	55023.12
539.266	54564.37
539.466	55111.18
539.667	54865.42
539.868	55436.81
540.068	55266.83
540.269	54582.8
540.469	55227.91
540.67	54406.68
540.87	54638.1
541.071	54814.22
541.271	54863.38
541.472	54994.45
541.672	54748.69
541.873	54713.87
542.073	54130.2
542.274	55096.84
542.474	54607.38
542.675	54738.45
542.875	54941.2
543.075	54607.38
543.276	54138.4
543.476	55186.96
543.676	54265.37
543.877	54275.61
544.077	54236.7
544.277	54142.49
544.478	54384.15
544.678	54547.99
544.878	54476.31
545.078	54556.18
545.279	53798.43
545.479	54068.76
545.679	54431.25
545.879	54175.26
546.079	54308.38
546.28	53632.55
546.48	53919.26
546.68	54275.61
546.88	53937.69
547.08	54466.07
547.28	54232.6
547.48	54236.7
547.68	54375.96
547.88	53710.37
548.081	53992.99
548.281	54275.61
548.481	53988.89
548.681	53806.62
548.881	53589.54
549.081	54160.92
549.28	53616.16
549.48	54654.48
549.68	53927.45
549.88	54279.71
550.08	54042.14
550.28	53997.09
550.48	53478.95
550.68	54038.04
550.88	53616.16
551.08	53515.81
551.279	53614.12
551.479	53067.31
551.679	53384.74
551.879	53313.06
552.079	53683.75
552.278	53042.73
552.478	53536.29
552.678	53597.73
552.878	53202.47
553.077	53321.26
553.277	52741.68
553.477	53927.45
553.676	53650.98
553.876	53499.43
554.076	53196.33
554.275	52842.03
554.475	52614.71
554.674	53093.93
554.874	53351.98
555.074	53181.99
555.273	53179.95
555.473	53442.09
555.672	52905.52
555.872	52850.22
556.071	52790.83
556.271	53509.67
556.47	52796.98
556.67	52514.36
556.869	52432.44
557.068	52788.78
557.268	52336.18
557.467	52690.48
557.667	52393.53
557.866	52373.05
558.065	52321.85
558.265	52422.2
558.464	52080.19
558.663	52489.78
558.863	51963.45
559.062	52870.7
559.261	51875.39
559.461	52973.1
559.66	52182.59
559.859	52211.26
560.058	51310.15
560.258	52233.78
560.457	51242.57
560.656	52266.55
560.855	51562.05
561.054	51830.33
561.253	51459.65
561.453	51422.79
561.652	51613.25
561.851	51785.28
562.05	51650.11
562.249	51088.97
562.448	51424.84
562.647	51369.54
562.846	51099.21
563.045	51048.01
563.244	50777.68
563.443	51371.59
563.642	50824.78
563.841	50847.31
564.04	50697.81
564.239	51422.79
564.438	50191.96
564.637	50675.28
564.836	50957.9
565.035	50376.28
565.234	50163.29
565.432	50247.25
565.631	50396.76
565.83	50468.44
566.029	50001.5
566.228	50312.79
566.427	49913.44
566.625	49917.53
566.824	49913.44
567.023	49710.69
567.222	49122.92
567.42	50228.82
567.619	49344.1
567.818	49331.81
568.016	49491.55
568.215	49501.79
568.414	49208.93
568.612	49622.62
568.811	48930.41
569.01	49227.37
569.208	48580.21
569.407	49030.76
569.605	48287.35
569.804	49049.19
570.002	48701.04
570.201	48797.29
570.4	48866.92
570.598	48416.37
570.797	47922.81
570.995	48641.65
571.193	48115.32
571.392	48502.39
571.59	47935.1
571.789	47916.67
571.987	47830.65
572.186	48002.68
572.384	47672.96
572.582	47746.68
572.781	47914.62
572.979	46962.31
573.177	47634.05
573.376	47402.63
573.574	47386.24
573.772	47423.11
573.971	47249.03
574.169	46524.05
574.367	46579.34
574.565	47052.42
574.763	46872.2
574.962	47009.42
575.16	46276.24
575.358	46360.21
575.556	46229.14
575.754	46231.19
575.952	45878.94
576.151	46280.34
576.349	45491.87
576.547	45991.58
576.745	46057.11
576.943	46132.89
577.141	45899.42
577.339	45760.16
577.537	45268.64
577.735	45668
577.933	44803.75
578.131	45235.88
578.329	45315.75
578.527	44619.44
578.725	44836.52
578.923	45246.11
579.121	44535.47
579.319	44381.87
579.516	44799.66
579.714	44779.18
579.912	44517.04
580.11	44318.39
580.308	44076.72
580.506	44441.26
580.704	43468.48
580.901	44091.06
581.099	44682.92
581.297	43335.36
581.495	43413.18
581.692	43667.13
581.89	43118.28
582.088	43450.05
582.285	43368.13
582.483	43378.37
582.681	43488.96
582.878	43024.07
583.076	42393.29
583.274	43394.75
583.471	42376.91
583.669	43001.54
583.866	42319.57
584.064	42573.52
584.262	42020.56
584.459	42190.55
584.657	42030.8
584.854	42247.89
585.052	41803.48
585.249	41924.31
585.447	42012.37
585.644	41410.27
585.841	41799.38
586.039	41912.02
586.236	41314.01
586.434	41373.41
586.631	41234.14
586.828	41344.73
587.026	41033.44
587.223	41060.07
587.42	40527.59
587.618	40683.24
587.815	40423.15
588.012	40103.67
588.21	40263.41
588.407	40310.51
588.604	39905.01
588.801	39853.81
588.999	39876.34
589.196	39896.82
589.393	39614.2
589.59	39548.67
589.787	39288.57
589.984	39276.29
590.182	39216.89
590.379	39581.43
590.576	38960.9
590.773	38790.92
590.97	39020.29
591.167	38940.42
591.364	38598.41
591.561	38588.17
591.758	38260.49
591.955	38477.58
592.152	38444.81
592.349	37787.41
592.546	38387.47
592.743	38340.36
592.94	37725.97
593.137	37916.43
593.334	38098.7
593.531	37412.63
593.727	37459.74
593.924	37496.6
594.121	37187.36
594.318	37490.46
594.515	36679.46
594.712	37515.03
594.908	36869.92
595.105	36900.64
595.302	36327.21
595.499	36570.92
595.696	36642.6
595.892	36149.04
596.089	36558.63
596.286	36130.61
596.482	36136.75
596.679	36175.66
596.876	35811.12
597.072	35968.82
597.269	35981.1
597.466	35608.37
597.662	35471.16
597.859	35364.67
598.055	35499.83
598.252	35075.9
598.448	35376.95
598.645	35217.21
598.841	34651.97
599.038	34641.73
599.234	34668.36
599.431	34494.28
599.627	34639.68
599.824	34539.33
600.02	34504.52
600.217	34230.09
600.413	34127.69
600.609	33853.26
600.806	33503.06
601.002	33675.09
601.198	33722.19
601.395	33673.04
601.591	33474.39
601.787	33396.57
601.984	33312.6
602.18	33572.69
602.376	33062.75
602.572	33163.1
602.769	32853.86
602.965	32249.71
603.161	32923.49
603.357	32204.65
603.553	32448.36
603.75	32393.06
603.946	32464.74
604.142	32745.31
604.338	31874.93
604.534	32223.08
604.73	31672.18
604.926	32112.49
605.122	32186.22
605.318	31514.48
605.514	31672.18
605.71	31545.2
605.906	31559.54
606.102	31483.76
606.298	31346.55
606.494	31057.79
606.69	31465.33
606.886	31326.07
607.082	30908.29
607.278	31164.28
607.474	30361.48
607.67	30957.44
607.866	30545.8
608.062	31100.79
608.257	30728.06
608.453	30556.04
608.649	30766.98
608.845	30293.9
609.041	30273.42
609.236	30355.33
609.432	30424.97
609.628	30449.54
609.824	30402.44
610.019	30070.67
610.215	29732.75
610.411	30113.67
610.606	29947.79
610.802	29908.88
610.998	29919.12
611.193	30064.52
611.389	29679.5
611.584	29626.26
611.78	29353.88
611.976	29489.04
612.171	29788.05
612.367	29454.23
612.562	29368.21
612.758	28993.43
612.953	29159.32
613.149	29372.31
613.344	29183.9
613.539	29421.46
613.735	28970.91
613.93	29142.94
614.126	28985.24
614.321	29153.18
614.517	28983.2
614.712	28944.28
614.907	28616.61
615.103	28901.28
615.298	28618.66
615.493	28714.91
615.688	28385.19
615.884	28843.93
616.079	28135.34
616.274	28409.76
616.47	28643.23
616.665	28430.24
616.86	28125.1
617.055	28239.78
617.25	28008.36
617.445	28198.82
617.641	27389.88
617.836	27897.77
618.031	27578.29
618.226	28047.27
618.421	27817.9
618.616	27692.97
618.811	27187.13
619.006	27471.79
619.201	26918.84
619.396	27273.14
619.591	26914.75
619.786	27137.98
619.981	26752.96
620.176	27205.56
620.371	26746.81
620.566	27281.33
620.761	26245.06
620.956	26378.18
621.151	26052.55
621.346	26451.91
621.541	26046.41
621.735	26259.4
621.93	25499.6
622.125	25872.33
622.32	25372.63
622.515	25561.04
622.709	25399.25
622.904	25083.86
623.099	25204.69
623.294	24907.74
623.488	24788.96
623.683	24717.28
623.878	24393.7
624.072	24836.06
624.267	24236
624.462	24166.37
624.656	24004.58
624.851	23889.9
625.046	23928.81
625.24	23836.65
625.435	23404.53
625.629	23408.62
625.824	23027.7
626.018	23359.47
626.213	22835.19
626.407	23341.04
626.602	22648.83
626.796	22745.08
626.991	22845.43
627.185	22493.18
627.38	22411.26
627.574	22116.36
627.768	22089.73
627.963	22282.24
628.157	21696.52
628.352	21817.35
628.546	21436.43
628.74	21762.06
628.935	21250.07
629.129	21395.47
629.323	21090.32
629.517	20826.14
629.712	21239.83
629.906	20930.58
630.1	20529.18
630.294	20959.25
630.489	20774.94
630.683	20615.19
630.877	20142.11
631.071	20131.87
631.265	20371.49
631.459	19902.5
631.653	20070.44
631.848	19937.32
632.042	19812.39
632.236	19738.66
632.43	19392.56
632.624	19449.9
632.818	19492.91
633.012	19060.79
633.206	19021.88
633.4	19249.2
633.594	18980.92
633.788	19144.75
633.982	18688.06
634.176	18636.86
634.369	18448.44
634.563	18436.16
634.757	18427.96
634.951	18427.96
635.145	18323.52
635.339	18407.48
635.533	17997.89
635.726	18016.32
635.92	17567.82
636.114	18096.19
636.308	17789
636.501	17655.88
636.695	17600.58
636.889	17414.22
637.083	17227.85
637.276	17111.12
637.47	17375.31
637.664	17072.21
637.857	16982.1
638.051	16963.67
638.244	16799.83
638.438	16894.04
638.632	16674.9
638.825	16429.15
639.019	16449.63
639.212	16179.29
639.406	16255.07
639.599	16320.6
639.793	16470.11
639.986	15896.67
640.18	15960.16
640.373	15841.38
640.567	15669.35
640.76	15638.63
640.954	15270
641.147	15530.09
641.34	15528.04
641.534	15536.23
641.727	15128.69
641.92	15302.76
642.114	15251.56
642.307	15104.11
642.5	14995.57
642.694	14706.8
642.887	14758
643.08	15106.16
643.273	14710.9
643.467	14510.2
643.66	14446.71
643.853	14397.56
644.046	14293.12
644.239	14506.1
644.432	14207.1
644.626	13940.86
644.819	14035.07
645.012	14067.84
645.205	14133.37
645.398	14160
645.591	13697.16
645.784	13801.6
645.977	13795.46
646.17	13723.78
646.363	13576.33
646.556	13363.34
646.749	13340.81
646.942	13283.47
647.135	13031.57
647.328	13305.99
647.521	13023.37
647.714	12896.4
647.907	13064.33
648.099	13011.09
648.292	12933.26
648.485	12824.72
648.678	12599.45
648.871	12763.28
649.064	12523.67
649.256	12605.59
649.449	12406.94
649.642	12374.17
649.835	12318.87
650.027	12183.71
650.22	12320.92
650.413	12277.91
650.605	12214.43
650.798	11937.95
650.991	11925.66
651.183	11782.31
651.376	12046.49
651.568	11677.86
651.761	11833.5
651.954	11763.87
652.146	11559.08
652.339	11534.5
652.531	11595.94
652.724	11346.09
652.916	11186.35
653.109	11393.19
653.301	11387.05
653.494	11157.68
653.686	11126.96
653.879	11094.19
654.071	11077.8
654.263	10846.38
654.456	10887.34
654.648	10979.5
654.84	10758.32
655.033	10670.26
655.225	10612.92
655.417	10651.83
655.61	10619.06
655.802	10537.14
655.994	10338.49
656.186	10643.63
656.379	10401.97
656.571	10129.59
656.763	10215.61
656.955	10143.93
657.148	10172.6
657.34	10107.07
657.532	10059.96
657.724	10012.86
657.916	9910.46
658.108	9937.09
658.3	9773.25
658.492	9531.59
658.684	9783.49
658.876	9599.17
659.068	9726.14
659.26	9345.22
659.452	9468.1
659.644	9525.44
659.836	9574.6
660.028	9625.79
660.22	9414.85
660.412	9392.33
660.604	9240.78
660.796	9353.41
660.988	9087.18
661.18	9050.32
661.372	9257.16
661.563	9236.68
661.755	8935.63
661.947	8843.47
662.139	8681.68
662.331	8739.02
662.522	8878.29
662.714	8569.04
662.906	8657.11
663.097	8849.61
663.289	8612.05
663.481	8575.19
663.673	8573.14
663.864	8472.79
664.056	8380.63
664.247	8423.64
664.439	8212.7
664.631	8224.98
664.822	8276.18
665.014	8218.84
665.205	8028.38
665.397	8261.85
665.588	8251.61
665.78	7985.37
665.971	8057.05
666.163	8214.74
666.354	7747.81
666.546	7878.88
666.737	7825.63
666.929	7782.62
667.12	7868.64
667.311	7731.42
667.503	7715.04
667.694	7702.75
667.885	7741.66
668.077	7657.7
668.268	7540.96
668.459	7497.95
668.651	7432.42
668.842	7477.48
669.033	7487.72
669.224	7360.74
669.416	7297.25
669.607	7338.21
669.798	7358.69
669.989	7389.41
670.18	7147.75
670.371	7375.08
670.563	7131.37
670.754	7196.9
670.945	7178.47
671.136	6981.87
671.327	7041.26
671.518	6928.62
671.709	6797.55
671.9	6967.53
672.091	6969.58
672.282	6990.06
672.473	6828.27
672.664	6922.48
672.855	6785.26
673.046	6809.84
673.237	6678.77
673.428	6695.15
673.619	6695.15
673.809	6615.28
674	6725.87
674.191	6568.18
674.382	6719.73
674.573	6584.56
674.764	6543.6
674.954	6783.21
675.145	6457.59
675.336	6342.9
675.527	6562.03
675.717	6555.89
675.908	6174.97
676.099	6334.71
676.289	6369.52
676.48	6297.85
676.671	6277.37
676.861	6365.43
677.052	6195.45
677.243	6422.77
677.433	6021.37
677.624	6230.26
677.814	6074.62
678.005	6185.21
678.195	5998.84
678.386	6107.38
678.576	5978.36
678.767	5996.79
678.957	6045.95
679.148	5978.36
679.338	5994.75
679.529	6072.57
679.719	5912.83
679.909	5908.73
680.1	5945.59
680.29	5722.37
680.481	5822.72
680.671	5939.45
680.861	5839.1
681.052	5777.66
681.242	5771.52
681.432	5910.78
681.622	5605.63
681.813	5695.74
682.003	5945.59
682.193	5658.88
682.383	5869.82
682.573	5746.94
682.764	5658.88
682.954	5710.08
683.144	5714.17
683.334	5667.07
683.524	5640.45
683.714	5581.06
683.904	5701.89
684.094	5587.2
684.284	5536
684.474	5654.78
684.664	5511.43
684.854	5470.47
685.044	5269.76
685.234	5417.22
685.424	5490.95
685.614	5308.68
685.804	5314.82
685.994	5509.38
686.184	5437.7
686.374	5558.53
686.564	5126.41
686.753	5218.57
686.943	5171.46
687.133	5255.43
687.323	5148.93
687.513	5085.45
687.702	5107.98
687.892	5222.66
688.082	5118.22
688.272	5083.4
688.461	4983.05
688.651	5021.96
688.841	4940.04
689.03	5110.02
689.22	4894.99
689.41	4915.47
689.599	5021.96
689.789	4917.51
689.979	4800.78
690.168	4813.07
690.358	4755.72
690.547	4784.4
690.737	4727.05
690.926	4731.15
691.116	4565.26
691.305	4667.66
691.495	4663.57
691.684	4542.74
691.874	4473.11
692.063	4655.37
692.252	4638.99
692.442	4557.07
692.631	4526.35
692.82	4536.59
693.01	4612.37
693.199	4479.25
693.388	4260.12
693.578	4356.37
693.767	4393.23
693.956	4372.75
694.146	4317.46
694.335	4223.25
694.524	4319.51
694.713	4387.09
694.902	4331.8
695.092	4231.44
695.281	4262.16
695.47	4127
695.659	4165.91
695.848	4153.62
696.037	4110.61
696.226	4129.05
696.415	4098.33
696.604	4129.05
696.793	4024.6
696.982	4124.95
697.171	4102.42
697.36	4069.66
697.549	3954.97
697.738	4092.18
697.927	3930.39
698.116	3963.16
698.305	3946.78
698.494	3844.38
698.683	3911.96
698.872	3977.5
699.061	3942.68
699.25	3846.43
699.438	3768.6
699.627	3954.97
699.816	3914.01
700.005	3758.36
700.193	3795.23
700.382	3848.47
700.571	3883.29
700.76	3784.99
700.948	3647.77
701.137	3850.52
701.326	3830.04
701.514	3684.64
701.703	3680.54
701.892	3703.07
702.08	3725.6
702.269	3678.49
702.457	3713.31
702.646	3584.29
702.834	3610.91
703.023	3524.9
703.212	3619.1
703.4	3596.57
703.589	3555.62
703.777	3619.1
703.965	3526.94
704.154	3655.97
704.342	3617.05
704.531	3457.31
704.719	3602.72
704.907	3576.09
705.096	3453.22
705.284	3483.94
705.472	3533.09
705.661	3619.1
705.849	3475.74
706.037	3453.22
706.226	3524.9
706.414	3445.02
706.602	3402.02
706.79	3610.91
706.979	3361.06
707.167	3426.59
707.355	3373.35
707.543	3479.84
707.731	3508.51
707.919	3526.94
708.107	3504.42
708.296	3438.88
708.484	3430.69
708.672	3418.4
708.86	3393.83
709.048	3494.18
709.236	3193.12
709.424	3328.29
709.612	3361.06
709.8	3256.61
709.988	3402.02
710.176	3428.64
710.364	3346.72
710.551	3359.01
710.739	3316
710.927	3365.15
711.115	3320.1
711.303	3268.9
711.491	3324.19
711.679	3336.48
711.866	3281.19
712.054	3256.61
712.242	3203.36
712.43	3246.37
712.617	3324.19
712.805	3318.05
712.993	3307.81
713.181	3260.71
713.368	3297.57
713.556	3324.19
713.744	3246.37
713.931	3236.13
714.119	3221.8
714.306	3223.84
714.494	3199.27
714.682	3236.13
714.869	3162.41
715.057	3207.46
715.244	3156.26
715.432	3344.67
715.619	3148.07
715.807	3154.21
715.994	3205.41
716.182	3189.03
716.369	3186.98
716.556	3162.41
716.744	3146.02
716.931	3307.81
717.119	3133.73
717.306	3324.19
717.493	3311.91
717.681	3219.75
717.868	3191.08
718.055	3250.47
718.242	3178.79
718.43	3258.66
718.617	3223.84
718.804	3090.73
718.991	3213.6
719.179	3258.66
719.366	3168.55
719.553	3363.11
719.74	3076.39
719.927	3191.08
720.114	3203.36
720.301	3154.21
720.488	3076.39
720.676	3162.41
720.863	3150.12
721.05	3143.97
721.237	3137.83
721.424	3189.03
721.611	3098.92
721.798	3162.41
721.985	3107.11
722.172	3047.72
722.358	3088.68
722.545	3174.69
722.732	3080.49
722.919	3123.49
723.106	3254.56
723.293	3150.12
723.48	3166.5
723.667	3103.01
723.853	3174.69
724.04	3074.34
724.227	3223.84
724.414	3043.62
724.6	3139.88
724.787	3162.41
724.974	3203.36
725.161	3068.2
725.347	3115.3
725.534	3186.98
725.72	3189.03
725.907	3070.25
726.094	3148.07
726.28	3086.63
726.467	3041.57
726.653	3129.64
726.84	3113.25
727.027	3191.08
727.213	3066.15
727.4	3166.5
727.586	3070.25
727.773	3139.88
727.959	3197.22
728.145	3178.79
728.332	3225.89
728.518	3184.93
728.705	3154.21
728.891	3029.29
729.077	3191.08
729.264	3168.55
729.45	2902.31
729.636	3197.22
729.823	3123.49
730.009	3133.73
730.195	3051.81
730.382	3258.66
730.568	3139.88
730.754	3309.86
730.94	3092.77
731.126	3340.58
731.313	3229.99
731.499	3189.03
731.685	3219.75
731.871	3135.78
732.057	3217.7
732.243	3199.27
732.429	3250.47
732.615	3240.23
732.801	3406.11
732.987	3209.51
733.173	3252.52
733.359	3244.32
733.545	3162.41
733.731	3229.99
733.917	3234.08
734.103	3223.84
734.289	3361.06
734.475	3291.43
734.661	3258.66
734.847	3289.38
735.033	3238.18
735.219	3295.52
735.404	3260.71
735.59	3225.89
735.776	3189.03
735.962	3256.61
736.148	3322.15
736.333	3309.86
736.519	3299.62
736.705	3320.1
736.89	3234.08
737.076	3195.17
737.262	3162.41
737.447	3260.71
737.633	3209.51
737.819	3264.8
738.004	3318.05
738.19	3270.95
738.375	3254.56
738.561	3295.52
738.747	3334.43
738.932	3248.42
739.118	3223.84
739.303	3199.27
739.489	3252.52
739.674	3275.04
739.859	3270.95
740.045	3340.58
740.23	3305.76
740.416	3221.8
740.601	3346.72
740.786	3270.95
740.972	3100.97
741.157	3098.92
741.342	3207.46
741.528	3332.39
741.713	3420.45
741.898	3076.39
742.084	3236.13
742.269	3328.29
742.454	3250.47
742.639	3199.27
742.824	3201.32
743.01	3193.12
743.195	3178.79
743.38	3207.46
743.565	3080.49
743.75	3156.26
743.935	3129.64
744.12	3131.69
744.305	3098.92
744.49	3092.77
744.675	3219.75
744.86	3119.4
745.045	3092.77
745.23	3223.84
745.415	3051.81
745.6	3000.62
745.785	3070.25
745.97	3019.05
746.155	3105.06
746.34	3057.96
746.525	3000.62
746.71	3103.01
746.895	2918.7
747.079	3035.43
747.264	3057.96
747.449	3049.77
747.634	2990.38
747.819	2930.98
748.003	2849.07
748.188	2955.56
748.373	2926.89
748.557	2953.51
748.742	2818.35
748.927	2750.76
749.111	2873.64
749.296	2939.18
749.481	2949.42
749.665	2918.7
749.85	2662.7
750.034	2748.72
750.219	2752.81
750.404	2681.13
750.588	2748.72
750.773	2658.6
750.957	2801.96
751.141	2652.46
751.326	2679.08
751.51	2636.08
751.695	2607.41
751.879	2685.23
752.064	2640.17
752.248	2752.81
752.432	2767.15
752.617	2595.12
752.801	2623.79
752.985	2570.54
753.17	2591.02
753.354	2472.24
753.538	2500.91
753.722	2498.86
753.907	2509.1
754.091	2511.15
754.275	2425.14
754.459	2478.38
754.643	2345.27
754.828	2408.75
755.012	2535.73
755.196	2369.84
755.38	2443.57
755.564	2392.37
755.748	2285.87
755.932	2330.93
756.116	2371.89
756.3	2285.87
756.484	2261.3
756.668	2328.88
756.852	2138.42
757.036	2197.81
757.22	2269.49
757.404	2214.2
757.588	2193.72
757.772	2226.48
757.956	2283.83
758.14	2197.81
758.323	2091.32
758.507	2109.75
758.691	2042.17
758.875	2212.15
759.059	2171.19
759.242	2074.93
759.426	2093.37
759.61	1968.44
759.794	2126.13
759.977	2064.69
760.161	2070.84
760.345	2136.37
760.528	2060.6
760.712	2038.07
760.895	1976.63
761.079	1982.78
761.263	1952.06
761.446	1894.71
761.63	1976.63
761.813	2054.45
761.997	1939.77
762.18	1915.19
762.364	1894.71
762.547	1876.28
762.731	1947.96
762.914	1853.75
763.098	1759.55
763.281	1958.2
763.464	1888.57
763.648	1765.69
763.831	1884.47
764.015	1863.99
764.198	1814.84
764.381	1788.22
764.564	1841.47
764.748	1773.88
764.931	1814.84
765.114	1845.56
765.297	1777.98
765.481	1825.08
765.664	1794.36
765.847	1704.25
766.03	1784.12
766.213	1761.59
766.397	1765.69
766.58	1734.97
766.763	1790.27
766.946	1687.87
767.129	1849.66
767.312	1730.87
767.495	1722.68
767.678	1622.33
767.861	1657.15
768.044	1638.72
768.227	1741.11
768.41	1577.28
768.593	1640.76
768.776	1675.58
768.959	1767.74
769.142	1687.87
769.324	1577.28
769.507	1575.23
769.69	1622.33
769.873	1505.6
770.056	1708.35
770.239	1554.75
770.421	1610.04
770.604	1638.72
770.787	1468.73
770.97	1562.94
771.152	1454.4
771.335	1575.23
771.518	1489.21
771.7	1640.76
771.883	1427.78
772.066	1511.74
772.248	1452.35
772.431	1442.11
772.613	1538.37
772.796	1386.82
772.978	1468.73
773.161	1587.52
773.343	1481.02
773.526	1321.28
773.708	1376.58
773.891	1347.9
774.073	1446.21
774.256	1364.29
774.438	1429.82
774.621	1407.3
774.803	1335.62
774.985	1335.62
775.168	1450.3
775.35	1286.47
775.532	1390.91
775.715	1347.9
775.897	1278.27
776.079	1321.28
776.261	1257.79
776.444	1306.95
776.626	1306.95
776.808	1352
776.99	1216.83
777.173	1175.88
777.355	1249.6
777.537	1188.16
777.719	1286.47
777.901	1184.07
778.083	1075.52
778.265	1130.82
778.447	1255.75
778.629	1073.48
778.811	1182.02
778.993	1177.92
779.175	1192.26
779.357	1112.39
779.539	1053
779.721	1087.81
779.903	1085.76
780.085	1145.16
780.267	1087.81
780.449	1026.37
780.631	1018.18
780.812	1096
780.994	1073.48
781.176	989.51
781.358	948.55
781.54	1089.86
781.721	973.13
781.903	1026.37
782.085	1067.33
782.267	1028.42
782.448	909.64
782.63	938.31
782.812	1003.85
782.993	991.56
783.175	1018.18
783.357	969.03
783.538	880.97
783.72	876.87
783.901	868.68
784.083	887.11
784.264	887.11
784.446	868.68
784.627	897.35
784.809	842.06
784.99	880.97
785.172	807.24
785.353	809.29
785.535	797
785.716	819.53
785.897	815.43
786.079	733.51
786.26	764.23
786.441	825.67
786.623	786.76
786.804	749.9
786.985	854.34
787.167	756.04
787.348	702.79
787.529	753.99
787.71	768.33
787.891	753.99
788.073	657.74
788.254	708.94
788.435	762.19
788.616	700.75
788.797	719.18
788.978	768.33
789.159	641.36
789.34	676.17
789.522	612.68
789.703	676.17
789.884	690.51
790.065	682.31
790.246	690.51
790.427	639.31
790.607	663.88
790.788	682.31
790.969	571.72
791.15	610.64
791.331	657.74
791.512	563.53
791.693	637.26
791.874	596.3
792.054	600.4
792.235	606.54
792.416	618.83
792.597	534.86
792.778	649.55
792.958	663.88
793.139	647.5
793.32	581.96
793.5	524.62
793.681	559.44
793.862	508.24
794.042	532.81
794.223	532.81
794.404	487.76
794.584	479.57
794.765	514.38
794.945	559.44
795.126	577.87
795.306	602.44
795.487	545.1
795.667	514.38
795.848	545.1
796.028	491.85
796.209	502.09
796.389	514.38
796.57	493.9
796.75	452.94
796.93	518.48
797.111	512.33
797.291	541.01
797.471	528.72
797.652	461.13
797.832	467.28
798.012	528.72
798.192	465.23
798.373	510.29
798.553	454.99
798.733	454.99
798.913	493.9
799.093	448.85
799.274	481.61
799.454	407.89
799.634	534.86
799.814	485.71
799.994	516.43
800.174	444.75
800.354	440.65
800.534	471.37
800.714	360.78
800.894	319.82
801.074	356.69
801.254	346.45
801.434	434.51
801.614	387.41
801.794	411.98
801.974	1018.18
802.154	411.98
802.334	424.27
802.514	371.02
802.693	387.41
802.873	459.09
803.053	438.61
803.233	424.27
803.413	477.52
803.592	352.59
803.772	397.65
803.952	358.74
804.131	377.17
804.311	348.5
804.491	424.27
804.67	321.87
804.85	344.4
805.03	424.27
805.209	450.89
805.389	344.4
805.568	299.34
805.748	354.64
805.928	319.82
806.107	336.21
806.287	442.7
806.466	297.3
806.646	266.58
806.825	317.78
807.004	325.97
807.184	299.34
807.363	342.35
807.543	254.29
807.722	278.87
807.901	368.98
808.081	383.31
808.26	348.5
808.439	328.02
808.619	227.67
808.798	278.87
808.977	371.02
809.156	315.73
809.336	256.34
809.515	315.73
809.694	340.3
809.873	311.63
810.052	278.87
810.231	303.44
810.411	336.21
810.59	321.87
810.769	321.87
810.948	319.82
811.127	207.19
811.306	364.88
811.485	282.96
811.664	307.54
811.843	285.01
812.022	244.05
812.201	291.15
812.38	272.72
812.559	186.71
812.737	299.34
812.916	196.95
813.095	268.63
813.274	254.29
813.453	248.15
813.632	268.63
813.811	268.63
813.989	88.4
814.168	276.82
814.347	289.1
814.526	321.87
814.704	356.69
814.883	203.09
815.062	213.33
815.24	272.72
815.419	225.62
815.598	237.91
815.776	209.23
815.955	223.57
816.133	280.91
816.312	235.86
816.49	211.28
816.669	221.52
816.847	256.34
817.026	219.47
817.204	219.47
817.383	246.1
817.561	190.8
817.74	201.04
817.918	231.76
818.097	196.95
818.275	198.99
818.453	205.14
818.632	268.63
818.81	170.32
818.988	227.67
819.167	176.47
819.345	266.58
819.523	198.99
819.701	158.03
819.879	252.24
820.058	285.01
820.236	203.09
820.414	235.86
820.592	182.61
820.77	194.9
820.948	209.23
821.127	174.42
821.305	297.3
821.483	209.23
821.661	211.28
821.839	203.09
822.017	168.27
822.195	235.86
822.373	209.23
822.551	213.33
822.729	262.48
822.907	160.08
823.085	149.84
823.262	188.75
823.44	106.84
823.618	145.75
823.796	213.33
823.974	211.28
824.152	170.32
824.329	104.79
824.507	242
824.685	188.75
824.863	153.94
825.04	158.03
825.218	198.99
825.396	198.99
825.574	295.25
825.751	137.56
825.929	260.43
826.107	135.51
826.284	229.71
826.462	217.43
826.639	170.32
826.817	139.6
826.994	143.7
827.172	215.38
827.349	239.95
827.527	170.32
827.704	162.13
827.882	260.43
828.059	164.18
828.237	115.03
828.414	108.88
828.591	43.35
828.769	131.41
828.946	104.79
829.124	133.46
829.301	153.94
829.478	115.03
829.655	190.8
829.833	172.37
830.01	135.51
830.187	69.97
830.364	82.26
830.542	123.22
830.719	188.75
830.896	102.74
831.073	119.12
831.25	110.93
831.427	110.93
831.604	112.98
831.782	112.98
831.959	133.46
832.136	90.45
832.313	137.56
832.49	82.26
832.667	123.22
832.844	96.6
833.021	282.96
833.198	137.56
833.374	121.17
833.551	180.56
833.728	115.03
833.905	254.29
834.082	51.54
834.259	78.16
834.436	151.89
834.612	160.08
834.789	90.45
834.966	162.13
835.143	94.55
835.319	78.16
835.496	166.23
835.673	158.03
835.85	102.74
836.026	104.79
836.203	188.75
836.38	53.59
836.556	94.55
836.733	125.27
836.909	131.41
837.086	37.2
837.262	86.36
837.439	88.4
837.616	102.74
837.792	63.83
837.968	110.93
838.145	88.4
838.321	250.19
838.498	205.14
838.674	106.84
838.851	164.18
839.027	59.73
839.203	33.11
839.38	139.6
839.556	39.25
839.732	94.55
839.909	72.02
840.085	78.16
840.261	61.78
840.437	84.31
840.614	106.84
840.79	143.7
840.966	84.31
841.142	198.99
841.318	158.03
841.494	143.7
841.671	117.08
841.847	96.6
842.023	88.4
842.199	82.26
842.375	96.6
842.551	74.07
842.727	119.12
842.903	117.08
843.079	76.12
843.255	96.6
843.431	88.4
843.607	108.88
843.783	2.39
843.959	74.07
844.134	106.84
844.31	43.35
844.486	84.31
844.662	102.74
844.838	72.02
845.013	117.08
845.189	100.69
845.365	86.36
845.541	94.55
845.716	131.41
845.892	121.17
846.068	82.26
846.244	92.5
846.419	88.4
846.595	76.12
846.77	112.98
846.946	31.06
847.122	59.73
847.297	59.73
847.473	141.65
847.648	43.35
847.824	90.45
847.999	4.44
848.175	84.31
848.35	-24.23
848.526	112.98
848.701	37.2
848.876	72.02
849.052	59.73
849.227	26.96
849.403	82.26
849.578	76.12
849.753	29.01
849.929	76.12
850.104	43.35
850.279	69.97
850.454	63.83
850.63	47.44
850.805	104.79
850.98	14.68
851.155	-34.47
851.33	2.39
851.505	-38.57
851.681	112.98
851.856	47.44
852.031	47.44
852.206	26.96
852.381	14.68
852.556	-11.95
852.731	74.07
852.906	59.73
853.081	102.74
853.256	82.26
853.431	96.6
853.606	31.06
853.781	102.74
853.956	20.82
854.131	90.45
854.305	20.82
854.48	16.73
854.655	26.96
854.83	35.16
855.005	6.49
855.18	41.3
855.354	37.2
855.529	86.36
855.704	10.58
855.879	43.35
856.053	39.25
856.228	-22.19
856.403	22.87
856.577	20.82
856.752	22.87
856.926	106.84
857.101	20.82
857.276	-24.23
857.45	121.17
857.625	57.68
857.799	59.73
857.974	137.56
858.148	-9.9
858.323	14.68
858.497	69.97
858.672	-46.76
858.846	-5.8
859.02	31.06
859.195	16.73
859.369	22.87
859.543	59.73
859.718	69.97
859.892	53.59
860.066	84.31
860.241	31.06
860.415	78.16
860.589	16.73
860.763	12.63
860.938	51.54
861.112	78.16
861.286	-13.99
861.46	82.26
861.634	-13.99
861.808	37.2
861.982	12.63
862.157	10.58
862.331	12.63
862.505	-18.09
862.679	31.06
862.853	31.06
863.027	37.2
863.201	67.92
863.375	24.92
863.549	-22.19
863.722	8.53
863.896	55.64
864.07	35.16
864.244	24.92
864.418	67.92
864.592	-91.82
864.766	76.12
864.939	-20.14
865.113	18.77
865.287	41.3
865.461	-44.71
865.634	67.92
865.808	10.58
865.982	35.16
866.156	-7.85
866.329	6.49
866.503	53.59
866.676	51.54
866.85	-3.75
867.024	-3.75
867.197	72.02
867.371	67.92
867.544	4.44
867.718	20.82
867.891	-3.75
868.065	-26.28
868.238	67.92
868.412	26.96
868.585	-20.14
868.759	6.49
868.932	0.34
869.105	55.64
869.279	-36.52
869.452	-16.04
869.625	49.49
869.799	10.58
869.972	-5.8
870.145	82.26
870.319	20.82
870.492	43.35
870.665	45.4
870.838	-1.71
871.011	-30.38
871.185	22.87
871.358	47.44
871.531	39.25
871.704	-1.71
871.877	33.11
872.05	-69.29
872.223	-26.28
872.396	2.39
872.569	86.36
872.742	-28.33
872.915	51.54
873.088	-3.75
873.261	-18.09
873.434	24.92
873.607	53.59
873.78	49.49
873.953	-52.91
874.126	-28.33
874.299	8.53
874.471	61.78
874.644	37.2
874.817	61.78
874.99	39.25
875.163	-24.23
875.335	-24.23
875.508	14.68
875.681	61.78
875.853	24.92
876.026	-9.9
876.199	55.64
876.371	55.64
876.544	24.92
876.717	10.58
876.889	-3.75
877.062	43.35
877.234	-28.33
877.407	10.58
877.579	0.34
877.752	-5.8
877.924	29.01
878.097	65.88
878.269	121.17
878.442	-22.19
878.614	59.73
878.786	-5.8
878.959	35.16
879.131	125.27
879.303	-18.09
879.476	-30.38
879.648	31.06
879.82	-48.81
879.993	59.73
880.165	47.44
880.337	65.88
880.509	-46.76
880.681	-59.05
880.854	20.82
881.026	26.96
881.198	35.16
881.37	59.73
881.542	39.25
881.714	-44.71
881.886	16.73
882.058	51.54
882.23	37.2
882.402	24.92
882.574	8.53
882.746	-7.85
882.918	-24.23
883.09	-26.28
883.262	-5.8
883.434	31.06
883.606	10.58
883.778	-3.75
883.95	8.53
884.122	33.11
884.293	59.73
884.465	24.92
884.637	55.64
884.809	-46.76
884.98	8.53
885.152	-38.57
885.324	2.39
885.496	24.92
885.667	-57
885.839	10.58
886.011	0.34
886.182	37.2
886.354	-11.95
886.525	-42.67
886.697	4.44
886.869	-40.62
887.04	63.83
887.212	86.36
887.383	104.79
887.555	69.97
887.726	-1.71
887.897	-71.34
888.069	-38.57
888.24	-1.71
888.412	43.35
888.583	-28.33
888.754	-30.38
888.926	-42.67
889.097	-26.28
889.268	74.07
889.44	35.16
889.611	0.34
889.782	-63.15
889.953	24.92
890.125	39.25
890.296	6.49
890.467	33.11
890.638	4.44
890.809	16.73
890.98	-40.62
891.151	0.34
891.323	-13.99
891.494	82.26
891.665	-48.81
891.836	63.83
892.007	-34.47
892.178	-16.04
892.349	12.63
892.52	-59.05
892.691	-18.09
892.862	-48.81
893.032	-61.1
893.203	33.11
893.374	78.16
893.545	-7.85
893.716	-20.14
893.887	0.34
894.057	-11.95
894.228	22.87
894.399	-54.95
894.57	92.5
894.74	-40.62
894.911	102.74
895.082	67.92
895.253	-13.99
895.423	-16.04
895.594	43.35
895.764	22.87
895.935	14.68
896.106	14.68
896.276	-18.09
896.447	18.77
896.617	0.34
896.788	20.82
896.958	-83.63
897.129	8.53
897.299	-65.19
897.47	22.87
897.64	2.39
897.81	-42.67
897.981	82.26
898.151	-89.77
898.322	53.59
898.492	14.68
898.662	-30.38
898.832	-40.62
899.003	-77.48
899.173	43.35
899.343	-9.9
899.513	-48.81
