Data from USB4F104151__50__12-41-43-582.txt Node

Date: Fri Mar 14 12:41:43 EDT 2025
User: louis
Spectrometer: USB4F10415
Trigger mode: 4
Integration Time (sec): 3.000000E-2
Scans to average: 1
Electric dark correction enabled: true
Nonlinearity correction enabled: false
Boxcar width: 0
XAxis mode: Wavelengths
Number of Pixels in Spectrum: 3648
>>>>>Begin Spectral Data<<<<<
178.204	-136.7
178.424	-136.7
178.644	-136.7
178.864	-71.17
179.084	-138.75
179.304	-32.26
179.524	-17.92
179.744	-11.78
179.964	10.75
180.184	35.33
180.404	68.09
180.624	2.56
180.844	8.7
181.064	-40.45
181.283	16.9
181.503	-3.58
181.723	-36.35
181.943	-32.26
182.163	80.38
182.383	16.9
182.602	74.24
182.822	113.15
183.042	10.75
183.262	88.57
183.482	14.85
183.701	53.76
183.921	98.81
184.141	-60.93
184.361	27.14
184.58	18.94
184.8	55.81
185.02	49.66
185.239	104.96
185.459	-9.73
185.679	121.34
185.898	70.14
186.118	70.14
186.338	133.63
186.557	94.72
186.777	-13.82
186.997	-5.63
187.216	-26.11
187.436	135.68
187.655	43.52
187.875	59.9
188.095	-44.54
188.314	39.42
188.534	82.43
188.753	80.38
188.973	39.42
189.192	51.71
189.412	-75.26
189.631	96.77
189.851	27.14
190.07	82.43
190.29	37.38
190.509	12.8
190.729	102.91
190.948	72.19
191.168	182.78
191.387	78.33
191.607	25.09
191.826	37.38
192.045	-36.35
192.265	66.05
192.484	33.28
192.704	33.28
192.923	33.28
193.142	104.96
193.362	33.28
193.581	-32.26
193.8	43.52
194.02	125.44
194.239	-3.58
194.458	49.66
194.678	-15.87
194.897	78.33
195.116	78.33
195.335	-1.54
195.555	29.18
195.774	-19.97
195.993	98.81
196.212	25.09
196.432	-13.82
196.651	-1.54
196.87	31.23
197.089	-26.11
197.308	68.09
197.528	-13.82
197.747	-44.54
197.966	94.72
198.185	27.14
198.404	-3.58
198.623	20.99
198.842	23.04
199.062	111.1
199.281	104.96
199.5	31.23
199.719	31.23
199.938	70.14
200.157	74.24
200.376	61.95
200.595	76.29
200.814	39.42
201.033	51.71
201.252	55.81
201.471	76.29
201.69	90.62
201.909	0.51
202.128	33.28
202.347	49.66
202.566	6.66
202.785	57.86
203.004	-15.87
203.223	107.01
203.442	82.43
203.661	33.28
203.879	66.05
204.098	107.01
204.317	-5.63
204.536	80.38
204.755	33.28
204.974	10.75
205.193	39.42
205.411	76.29
205.63	109.05
205.849	45.57
206.068	-30.21
206.287	-7.68
206.505	86.53
206.724	20.99
206.943	4.61
207.162	61.95
207.381	31.23
207.599	12.8
207.818	35.33
208.037	37.38
208.255	-52.74
208.474	66.05
208.693	10.75
208.911	6.66
209.13	115.2
209.349	41.47
209.567	23.04
209.786	33.28
210.005	23.04
210.223	53.76
210.442	-28.16
210.661	59.9
210.879	-36.35
211.098	39.42
211.316	10.75
211.535	41.47
211.753	98.81
211.972	92.67
212.191	55.81
212.409	51.71
212.628	-11.78
212.846	20.99
213.065	-11.78
213.283	51.71
213.502	-42.5
213.72	33.28
213.938	68.09
214.157	0.51
214.375	76.29
214.594	49.66
214.812	20.99
215.031	68.09
215.249	23.04
215.467	86.53
215.686	68.09
215.904	98.81
216.122	10.75
216.341	104.96
216.559	12.8
216.778	152.06
216.996	55.81
217.214	41.47
217.432	53.76
217.651	27.14
217.869	70.14
218.087	88.57
218.306	-36.35
218.524	43.52
218.742	-7.68
218.96	88.57
219.179	43.52
219.397	80.38
219.615	96.77
219.833	94.72
220.051	-17.92
220.27	84.48
220.488	35.33
220.706	64
220.924	74.24
221.142	16.9
221.36	12.8
221.578	16.9
221.796	88.57
222.015	25.09
222.233	64
222.451	174.59
222.669	4.61
222.887	76.29
223.105	-26.11
223.323	80.38
223.541	27.14
223.759	-7.68
223.977	-1.54
224.195	53.76
224.413	41.47
224.631	104.96
224.849	72.19
225.067	78.33
225.285	-7.68
225.503	-38.4
225.721	-30.21
225.939	27.14
226.157	23.04
226.375	70.14
226.592	-3.58
226.81	41.47
227.028	20.99
227.246	156.16
227.464	-30.21
227.682	92.67
227.9	39.42
228.117	68.09
228.335	61.95
228.553	100.86
228.771	80.38
228.989	90.62
229.206	18.94
229.424	31.23
229.642	18.94
229.86	4.61
230.077	66.05
230.295	61.95
230.513	66.05
230.731	37.38
230.948	94.72
231.166	64
231.384	23.04
231.601	20.99
231.819	29.18
232.037	33.28
232.254	12.8
232.472	10.75
232.689	-46.59
232.907	-1.54
233.125	23.04
233.342	23.04
233.56	33.28
233.777	23.04
233.995	57.86
234.213	92.67
234.43	27.14
234.648	31.23
234.865	16.9
235.083	51.71
235.3	-9.73
235.518	109.05
235.735	86.53
235.953	68.09
236.17	-19.97
236.388	-5.63
236.605	35.33
236.822	33.28
237.04	4.61
237.257	70.14
237.475	-7.68
237.692	74.24
237.909	33.28
238.127	31.23
238.344	68.09
238.562	18.94
238.779	29.18
238.996	-34.3
239.214	20.99
239.431	16.9
239.648	20.99
239.865	23.04
240.083	66.05
240.3	-40.45
240.517	113.15
240.735	61.95
240.952	111.1
241.169	25.09
241.386	57.86
241.603	68.09
241.821	-28.16
242.038	14.85
242.255	51.71
242.472	-28.16
242.689	4.61
242.907	-28.16
243.124	102.91
243.341	29.18
243.558	-28.16
243.775	-15.87
243.992	-5.63
244.209	14.85
244.426	29.18
244.643	86.53
244.86	23.04
245.078	92.67
245.295	33.28
245.512	-5.63
245.729	10.75
245.946	92.67
246.163	14.85
246.38	43.52
246.597	41.47
246.814	-9.73
247.031	57.86
247.248	25.09
247.464	10.75
247.681	23.04
247.898	43.52
248.115	12.8
248.332	29.18
248.549	43.52
248.766	68.09
248.983	27.14
249.2	6.66
249.417	90.62
249.633	29.18
249.85	-13.82
250.067	16.9
250.284	-5.63
250.501	51.71
250.717	82.43
250.934	59.9
251.151	-71.17
251.368	41.47
251.585	70.14
251.801	104.96
252.018	6.66
252.235	43.52
252.451	12.8
252.668	59.9
252.885	-5.63
253.102	104.96
253.318	78.33
253.535	0.51
253.752	57.86
253.968	53.76
254.185	45.57
254.401	57.86
254.618	14.85
254.835	92.67
255.051	39.42
255.268	98.81
255.484	35.33
255.701	-38.4
255.917	57.86
256.134	-15.87
256.351	6.66
256.567	27.14
256.784	-3.58
257	66.05
257.217	121.34
257.433	47.62
257.65	51.71
257.866	8.7
258.082	49.66
258.299	-62.98
258.515	94.72
258.732	80.38
258.948	41.47
259.165	96.77
259.381	-11.78
259.597	41.47
259.814	135.68
260.03	0.51
260.246	43.52
260.463	-3.58
260.679	98.81
260.895	152.06
261.112	51.71
261.328	12.8
261.544	6.66
261.761	150.01
261.977	-15.87
262.193	-28.16
262.409	43.52
262.626	66.05
262.842	57.86
263.058	0.51
263.274	14.85
263.49	53.76
263.707	35.33
263.923	59.9
264.139	23.04
264.355	68.09
264.571	51.71
264.787	39.42
265.004	117.25
265.22	-5.63
265.436	49.66
265.652	-36.35
265.868	4.61
266.084	8.7
266.3	16.9
266.516	8.7
266.732	70.14
266.948	49.66
267.164	43.52
267.38	41.47
267.596	80.38
267.812	127.49
268.028	-26.11
268.244	-11.78
268.46	6.66
268.676	8.7
268.892	29.18
269.108	68.09
269.324	53.76
269.54	-34.3
269.756	74.24
269.972	82.43
270.188	39.42
270.403	0.51
270.619	25.09
270.835	25.09
271.051	57.86
271.267	35.33
271.483	23.04
271.698	39.42
271.914	117.25
272.13	25.09
272.346	35.33
272.562	10.75
272.777	92.67
272.993	61.95
273.209	-15.87
273.425	47.62
273.64	4.61
273.856	61.95
274.072	35.33
274.287	-5.63
274.503	82.43
274.719	61.95
274.934	49.66
275.15	-34.3
275.366	16.9
275.581	0.51
275.797	20.99
276.012	107.01
276.228	18.94
276.444	53.76
276.659	117.25
276.875	55.81
277.09	-5.63
277.306	6.66
277.521	37.38
277.737	164.35
277.952	96.77
278.168	47.62
278.383	45.57
278.599	61.95
278.814	47.62
279.03	64
279.245	76.29
279.461	49.66
279.676	84.48
279.892	-11.78
280.107	10.75
280.322	31.23
280.538	-36.35
280.753	20.99
280.969	0.51
281.184	20.99
281.399	74.24
281.615	-36.35
281.83	43.52
282.045	88.57
282.26	-24.06
282.476	-62.98
282.691	94.72
282.906	12.8
283.122	39.42
283.337	-75.26
283.552	39.42
283.767	-5.63
283.983	90.62
284.198	12.8
284.413	-1.54
284.628	-24.06
284.843	55.81
285.058	121.34
285.274	37.38
285.489	27.14
285.704	4.61
285.919	-15.87
286.134	35.33
286.349	35.33
286.564	61.95
286.779	94.72
286.995	-3.58
287.21	8.7
287.425	51.71
287.64	-3.58
287.855	33.28
288.07	4.61
288.285	10.75
288.5	10.75
288.715	20.99
288.93	-3.58
289.145	45.57
289.36	29.18
289.575	14.85
289.79	84.48
290.004	31.23
290.219	123.39
290.434	51.71
290.649	94.72
290.864	84.48
291.079	49.66
291.294	-7.68
291.509	31.23
291.724	33.28
291.938	72.19
292.153	43.52
292.368	-24.06
292.583	90.62
292.798	16.9
293.012	33.28
293.227	33.28
293.442	49.66
293.657	94.72
293.871	84.48
294.086	16.9
294.301	29.18
294.516	33.28
294.73	68.09
294.945	6.66
295.16	51.71
295.374	33.28
295.589	82.43
295.804	27.14
296.018	37.38
296.233	35.33
296.447	74.24
296.662	-48.64
296.877	53.76
297.091	82.43
297.306	-3.58
297.52	-28.16
297.735	74.24
297.949	100.86
298.164	41.47
298.378	49.66
298.593	-24.06
298.807	72.19
299.022	37.38
299.236	84.48
299.451	80.38
299.665	6.66
299.88	0.51
300.094	-13.82
300.309	70.14
300.523	4.61
300.737	12.8
300.952	43.52
301.166	29.18
301.381	-1.54
301.595	14.85
301.809	0.51
302.024	41.47
302.238	39.42
302.452	113.15
302.667	25.09
302.881	82.43
303.095	-9.73
303.309	57.86
303.524	64
303.738	31.23
303.952	23.04
304.166	-5.63
304.381	35.33
304.595	80.38
304.809	-42.5
305.023	74.24
305.237	31.23
305.452	125.44
305.666	158.21
305.88	51.71
306.094	31.23
306.308	39.42
306.522	86.53
306.736	90.62
306.95	-19.97
307.164	-7.68
307.379	57.86
307.593	107.01
307.807	51.71
308.021	20.99
308.235	4.61
308.449	47.62
308.663	86.53
308.877	104.96
309.091	27.14
309.305	98.81
309.519	-42.5
309.733	154.11
309.947	-1.54
310.161	160.25
310.374	37.38
310.588	41.47
310.802	-30.21
311.016	-36.35
311.23	35.33
311.444	39.42
311.658	64
311.872	100.86
312.085	117.25
312.299	72.19
312.513	43.52
312.727	55.81
312.941	10.75
313.154	197.12
313.368	82.43
313.582	66.05
313.796	-56.83
314.009	84.48
314.223	82.43
314.437	121.34
314.651	27.14
314.864	-5.63
315.078	4.61
315.292	-3.58
315.505	-11.78
315.719	41.47
315.933	68.09
316.146	4.61
316.36	-28.16
316.573	107.01
316.787	70.14
317.001	137.73
317.214	6.66
317.428	80.38
317.641	12.8
317.855	-5.63
318.068	100.86
318.282	41.47
318.495	47.62
318.709	125.44
318.922	25.09
319.136	51.71
319.349	47.62
319.563	23.04
319.776	20.99
319.99	20.99
320.203	51.71
320.417	-3.58
320.63	90.62
320.843	76.29
321.057	78.33
321.27	12.8
321.483	49.66
321.697	49.66
321.91	90.62
322.124	-26.11
322.337	16.9
322.55	68.09
322.763	53.76
322.977	35.33
323.19	64
323.403	0.51
323.617	27.14
323.83	76.29
324.043	0.51
324.256	25.09
324.469	-11.78
324.683	53.76
324.896	-50.69
325.109	31.23
325.322	41.47
325.535	25.09
325.748	49.66
325.962	-15.87
326.175	6.66
326.388	80.38
326.601	76.29
326.814	49.66
327.027	68.09
327.24	102.91
327.453	-1.54
327.666	-13.82
327.879	29.18
328.092	84.48
328.305	84.48
328.518	31.23
328.731	12.8
328.944	160.25
329.157	14.85
329.37	84.48
329.583	4.61
329.796	86.53
330.009	51.71
330.222	16.9
330.435	45.57
330.648	18.94
330.861	20.99
331.073	70.14
331.286	98.81
331.499	70.14
331.712	64
331.925	59.9
332.138	41.47
332.35	92.67
332.563	23.04
332.776	84.48
332.989	-9.73
333.202	-65.02
333.414	35.33
333.627	14.85
333.84	72.19
334.053	111.1
334.265	47.62
334.478	-11.78
334.691	-5.63
334.903	59.9
335.116	10.75
335.329	27.14
335.541	133.63
335.754	82.43
335.966	-15.87
336.179	0.51
336.392	47.62
336.604	47.62
336.817	76.29
337.029	39.42
337.242	27.14
337.454	86.53
337.667	57.86
337.88	31.23
338.092	23.04
338.305	98.81
338.517	27.14
338.729	104.96
338.942	66.05
339.154	27.14
339.367	37.38
339.579	57.86
339.792	-7.68
340.004	104.96
340.217	18.94
340.429	107.01
340.641	49.66
340.854	119.29
341.066	14.85
341.278	94.72
341.491	113.15
341.703	27.14
341.915	78.33
342.128	66.05
342.34	96.77
342.552	-7.68
342.764	55.81
342.977	20.99
343.189	20.99
343.401	68.09
343.613	6.66
343.826	78.33
344.038	12.8
344.25	18.94
344.462	47.62
344.674	43.52
344.886	4.61
345.099	45.57
345.311	43.52
345.523	2.56
345.735	-19.97
345.947	53.76
346.159	47.62
346.371	14.85
346.583	12.8
346.795	98.81
347.007	88.57
347.219	51.71
347.431	90.62
347.643	59.9
347.855	39.42
348.067	57.86
348.279	-1.54
348.491	70.14
348.703	8.7
348.915	41.47
349.127	16.9
349.339	49.66
349.551	47.62
349.763	137.73
349.975	23.04
350.187	66.05
350.399	57.86
350.61	31.23
350.822	78.33
351.034	66.05
351.246	33.28
351.458	14.85
351.669	27.14
351.881	88.57
352.093	-5.63
352.305	88.57
352.517	80.38
352.728	141.82
352.94	12.8
353.152	49.66
353.363	-24.06
353.575	70.14
353.787	154.11
353.999	125.44
354.21	94.72
354.422	43.52
354.633	111.1
354.845	-15.87
355.057	117.25
355.268	64
355.48	64
355.692	123.39
355.903	16.9
356.115	43.52
356.326	-38.4
356.538	66.05
356.749	92.67
356.961	119.29
357.172	41.47
357.384	0.51
357.595	92.67
357.807	27.14
358.018	37.38
358.23	96.77
358.441	94.72
358.653	33.28
358.864	96.77
359.075	18.94
359.287	82.43
359.498	74.24
359.709	20.99
359.921	16.9
360.132	80.38
360.344	111.1
360.555	20.99
360.766	49.66
360.977	-13.82
361.189	31.23
361.4	18.94
361.611	90.62
361.823	127.49
362.034	6.66
362.245	51.71
362.456	100.86
362.667	76.29
362.879	74.24
363.09	80.38
363.301	43.52
363.512	90.62
363.723	16.9
363.935	-13.82
364.146	121.34
364.357	147.97
364.568	61.95
364.779	61.95
364.99	18.94
365.201	53.76
365.412	88.57
365.623	20.99
365.834	102.91
366.045	94.72
366.256	49.66
366.467	25.09
366.678	18.94
366.889	92.67
367.1	68.09
367.311	45.57
367.522	29.18
367.733	68.09
367.944	137.73
368.155	23.04
368.366	133.63
368.577	107.01
368.788	88.57
368.999	41.47
369.209	37.38
369.42	115.2
369.631	96.77
369.842	107.01
370.053	76.29
370.264	47.62
370.474	27.14
370.685	-1.54
370.896	39.42
371.107	94.72
371.317	-3.58
371.528	29.18
371.739	121.34
371.95	78.33
372.16	92.67
372.371	76.29
372.582	31.23
372.792	25.09
373.003	4.61
373.214	16.9
373.424	123.39
373.635	39.42
373.846	115.2
374.056	41.47
374.267	41.47
374.477	88.57
374.688	0.51
374.898	25.09
375.109	86.53
375.319	39.42
375.53	141.82
375.74	80.38
375.951	76.29
376.161	94.72
376.372	84.48
376.582	68.09
376.793	70.14
377.003	53.76
377.214	4.61
377.424	37.38
377.635	78.33
377.845	-32.26
378.055	18.94
378.266	0.51
378.476	133.63
378.686	29.18
378.897	25.09
379.107	96.77
379.317	109.05
379.528	86.53
379.738	43.52
379.948	18.94
380.158	158.21
380.369	18.94
380.579	43.52
380.789	43.52
380.999	61.95
381.21	23.04
381.42	72.19
381.63	100.86
381.84	111.1
382.05	70.14
382.261	78.33
382.471	61.95
382.681	111.1
382.891	72.19
383.101	88.57
383.311	14.85
383.521	57.86
383.731	90.62
383.941	59.9
384.151	68.09
384.361	27.14
384.571	88.57
384.781	55.81
384.991	80.38
385.201	72.19
385.411	96.77
385.621	104.96
385.831	35.33
386.041	82.43
386.251	37.38
386.461	57.86
386.671	-1.54
386.881	70.14
387.091	59.9
387.301	139.77
387.511	147.97
387.72	53.76
387.93	104.96
388.14	-7.68
388.35	88.57
388.56	86.53
388.769	76.29
388.979	66.05
389.189	57.86
389.399	64
389.609	47.62
389.818	127.49
390.028	72.19
390.238	70.14
390.447	14.85
390.657	152.06
390.867	18.94
391.076	68.09
391.286	18.94
391.496	102.91
391.705	64
391.915	70.14
392.125	158.21
392.334	119.29
392.544	80.38
392.753	109.05
392.963	49.66
393.172	121.34
393.382	8.7
393.591	123.39
393.801	121.34
394.01	80.38
394.22	104.96
394.429	162.3
394.639	4.61
394.848	92.67
395.058	41.47
395.267	80.38
395.477	57.86
395.686	43.52
395.895	131.58
396.105	90.62
396.314	111.1
396.524	98.81
396.733	143.87
396.942	203.26
397.152	156.16
397.361	139.77
397.57	72.19
397.78	158.21
397.989	133.63
398.198	186.88
398.407	45.57
398.617	76.29
398.826	66.05
399.035	127.49
399.244	172.54
399.453	47.62
399.663	111.1
399.872	162.3
400.081	94.72
400.29	268.8
400.499	39.42
400.708	178.69
400.917	102.91
401.127	70.14
401.336	111.1
401.545	139.77
401.754	119.29
401.963	172.54
402.172	193.02
402.381	123.39
402.59	121.34
402.799	41.47
403.008	176.64
403.217	176.64
403.426	102.91
403.635	164.35
403.844	156.16
404.053	174.59
404.262	111.1
404.471	219.64
404.68	184.83
404.888	176.64
405.097	203.26
405.306	184.83
405.515	203.26
405.724	135.68
405.933	199.16
406.142	231.93
406.35	203.26
406.559	229.88
406.768	242.17
406.977	236.03
407.185	254.46
407.394	199.16
407.603	125.44
407.812	236.03
408.02	168.45
408.229	270.84
408.438	156.16
408.646	256.51
408.855	276.99
409.064	287.23
409.272	307.71
409.481	268.8
409.69	295.42
409.898	322.04
410.107	391.67
410.315	393.72
410.524	332.28
410.733	338.43
410.941	371.19
411.15	346.62
411.358	440.83
411.567	496.12
411.775	416.25
411.984	469.5
412.192	539.13
412.401	465.4
412.609	494.07
412.818	543.22
413.026	498.17
413.234	573.94
413.443	580.09
413.651	555.51
413.86	561.66
414.068	621.05
414.276	659.96
414.485	526.84
414.693	735.73
414.901	682.49
415.11	764.4
415.318	766.45
415.526	786.93
415.734	846.32
415.943	860.66
416.151	854.51
416.359	848.37
416.567	936.43
416.776	981.49
416.984	950.77
417.192	913.91
417.4	1098.22
417.608	1051.12
417.817	1047.02
418.025	1073.65
418.233	1245.68
418.441	1104.37
418.649	1262.06
418.857	1245.68
419.065	1337.84
419.273	1253.87
419.481	1374.7
419.689	1491.43
419.897	1638.89
420.105	1573.35
420.313	1634.79
420.521	1632.74
420.729	1677.8
420.937	1763.81
421.145	1909.22
421.353	1984.99
421.561	1976.8
421.769	1929.7
421.977	2132.45
422.185	1995.23
422.393	2228.7
422.601	2349.53
422.809	2329.05
423.017	2245.09
423.224	2404.83
423.432	2589.14
423.64	2589.14
423.848	2703.83
424.056	2658.78
424.263	2984.4
424.471	3000.79
424.679	2963.92
424.887	3135.95
425.094	3264.97
425.302	3369.42
425.51	3387.85
425.718	3424.72
425.925	3635.66
426.133	3674.57
426.341	3684.81
426.548	4032.96
426.756	3965.38
426.964	4090.31
427.171	4340.16
427.379	4438.46
427.586	4532.67
427.794	4663.74
428.001	4716.98
428.209	5208.5
428.417	4981.17
428.624	5302.7
428.832	5351.85
429.039	5231.02
429.247	5368.24
429.454	5747.11
429.662	6320.54
429.869	5786.02
430.076	6087.08
430.284	5941.67
430.491	6357.41
430.699	6498.72
430.906	6461.85
431.114	6726.04
431.321	6869.4
431.528	7127.44
431.736	7606.67
431.943	7840.14
432.15	7686.54
432.358	7950.73
432.565	8440.19
432.772	8204.67
432.979	8671.61
433.187	8479.1
433.394	8886.65
433.601	9404.78
433.808	9507.18
434.016	9433.46
434.223	9738.6
434.43	10522.98
434.637	10318.18
434.844	10832.22
435.052	11037.02
435.259	11075.93
435.466	11061.59
435.673	10805.6
435.88	11643.21
436.087	12259.65
436.294	12253.51
436.501	12126.53
436.708	12259.65
436.915	12796.22
437.122	12996.92
437.329	13320.5
437.537	13592.88
437.743	13934.89
437.95	13762.86
438.157	14340.39
438.364	15184.15
438.571	15151.38
438.778	14928.16
438.985	16599.3
439.192	15841.55
439.399	16138.51
439.606	16066.83
439.813	16750.85
440.02	17930.48
440.227	17608.95
440.433	17371.38
440.64	18043.12
440.847	17864.94
441.054	18247.91
441.261	19488.98
441.467	19290.33
441.674	19556.57
441.881	20170.96
442.088	20252.87
442.294	20017.36
442.501	20719.81
442.708	20988.1
442.914	22018.22
443.121	22907.04
443.328	22460.59
443.534	23761.05
443.741	23113.89
443.948	22874.27
444.154	24264.85
444.361	24412.3
444.568	24438.92
444.774	24486.03
444.981	24649.86
445.187	25434.24
445.394	26527.85
445.6	26257.52
445.807	28465.23
446.013	27496.54
446.22	28268.62
446.426	29020.23
446.633	29491.26
446.839	30371.89
447.046	28979.27
447.252	30392.37
447.459	30736.43
447.665	30455.86
447.871	31948.82
448.078	33619.97
448.284	31705.12
448.491	32903.18
448.697	33611.78
448.903	34838.51
449.11	34574.32
449.316	34119.67
449.522	34498.55
449.728	35250.15
449.935	35854.3
450.141	35852.25
450.347	36491.22
450.553	35571.68
450.76	36032.47
450.966	37285.83
451.172	36601.81
451.378	37343.17
451.584	36906.96
451.791	37885.89
451.997	38090.68
452.203	37889.98
452.409	38553.52
452.615	37760.96
452.821	36808.65
453.027	36282.33
453.233	38428.6
453.44	36761.55
453.646	37232.58
453.852	37517.25
454.058	38125.5
454.264	36822.99
454.47	37611.46
454.676	36624.34
454.882	38340.53
455.088	34545.65
455.294	34951.15
455.5	35815.39
455.705	36034.52
455.911	34813.93
456.117	33996.79
456.323	33398.79
456.529	31975.45
456.735	33026.06
456.941	32178.2
457.147	31903.77
457.352	30853.16
457.558	30357.55
457.764	30335.03
457.97	29956.15
458.176	29589.56
458.381	29368.38
458.587	27861.08
458.793	27607.13
458.999	26464.36
459.204	28344.4
459.41	27498.59
459.616	25856.12
459.821	25745.53
460.027	25931.89
460.233	24891.52
460.438	23726.23
460.644	24270.99
460.85	22925.47
461.055	22507.69
461.261	22460.59
461.466	20893.89
461.672	20324.55
461.878	21954.74
462.083	20256.97
462.289	20041.93
462.494	19781.84
462.7	19091.68
462.905	17989.87
463.111	18913.5
463.316	18991.33
463.522	18634.98
463.727	18903.26
463.932	18465
464.138	18407.66
464.343	18680.03
464.549	17944.81
464.754	18456.81
464.959	18385.13
465.165	18311.4
465.37	17731.83
465.575	17264.89
465.781	17965.29
465.986	17746.16
466.191	17254.65
466.397	16910.59
466.602	16216.33
466.807	16480.52
467.012	16664.83
467.218	16558.34
467.423	16304.39
467.628	16582.91
467.833	16974.08
468.038	16535.81
468.244	16179.47
468.449	16599.3
468.654	16130.31
468.859	16032.01
469.064	15919.37
469.269	15505.68
469.474	15280.41
469.679	15866.13
469.885	15479.06
470.09	15468.82
470.295	15257.88
470.5	14885.15
470.705	15077.66
470.91	14696.74
471.115	14620.96
471.32	14752.03
471.525	14702.88
471.73	14477.6
471.935	14442.79
472.139	13615.41
472.344	14149.93
472.549	14035.24
472.754	13726
472.959	13523.25
473.164	13224.25
473.369	13113.66
473.574	13486.39
473.778	13443.38
473.983	13173.05
474.188	13277.49
474.393	12595.52
474.598	12493.12
474.802	12450.11
475.007	12476.74
475.212	12677.44
475.417	12132.68
475.621	12056.9
475.826	12155.21
476.031	11678.03
476.235	11526.48
476.44	11686.22
476.645	11577.68
476.849	11731.28
477.054	11215.19
477.259	11286.87
477.463	11280.72
477.668	11039.06
477.872	11336.02
478.077	10793.31
478.282	10690.91
478.486	10420.58
478.691	10396
478.895	10535.26
479.1	10207.59
479.304	10498.4
479.509	10123.62
479.713	10185.06
479.918	10023.27
480.122	9765.23
480.326	10029.41
480.531	10049.89
480.735	9949.54
480.94	9697.64
481.144	10273.12
481.348	9709.93
481.553	9720.17
481.757	9603.44
481.961	9628.01
482.166	9830.76
482.37	9777.51
482.574	9597.29
482.778	9621.87
482.983	9703.79
483.187	9765.23
483.391	9648.49
483.595	9701.74
483.8	9441.65
484.004	9619.82
484.208	9722.22
484.412	9656.68
484.616	9601.39
484.821	9564.53
485.025	9607.53
485.229	9605.49
485.433	9451.89
485.637	9550.19
485.841	9494.9
486.045	9644.4
486.249	9818.47
486.453	9480.56
486.657	9709.93
486.861	9605.49
487.065	9376.11
487.269	9558.38
487.473	9609.58
487.677	9488.75
487.881	9664.88
488.085	9566.57
488.289	9603.44
488.493	9589.1
488.697	9675.12
488.901	9666.92
489.105	9546.09
489.309	9400.69
489.512	9750.89
489.716	9695.6
489.92	9783.66
490.124	9597.29
490.328	9789.8
490.531	9697.64
490.735	10025.32
490.939	9943.4
491.143	9750.89
491.346	9900.39
491.55	10037.61
491.754	9914.73
491.958	10076.52
492.161	9849.19
492.365	10191.2
492.569	10017.13
492.772	9851.24
492.976	10340.71
493.18	10156.39
493.383	10121.57
493.587	10469.73
493.79	10518.88
493.994	10430.82
494.197	10434.91
494.401	10756.44
494.605	10606.94
494.808	10645.85
495.012	10858.84
495.215	10699.1
495.419	10979.67
495.622	10864.99
495.825	10979.67
496.029	11108.69
496.232	10975.58
496.436	11157.85
496.639	11372.88
496.843	11477.33
497.046	11854.16
497.249	11725.13
497.453	11888.97
497.656	11825.48
497.859	11950.41
498.063	12046.66
498.266	12417.35
498.469	12390.72
498.673	12419.39
498.876	12527.94
499.079	12796.22
499.282	12755.26
499.485	12816.7
499.689	13056.31
499.892	13314.36
500.095	13504.82
500.298	13545.78
500.501	13427
500.705	14057.77
500.908	13803.82
501.111	14158.12
501.314	14324.01
501.517	14477.6
501.72	14461.22
501.923	14514.47
502.126	14989.6
502.329	15063.32
502.532	15282.45
502.735	15210.78
502.938	15495.44
503.141	15571.22
503.344	15843.6
503.547	15708.43
503.75	16230.66
503.953	16232.71
504.156	16281.86
504.359	16601.35
504.562	16582.91
504.765	16941.31
504.968	17293.56
505.17	17271.03
505.373	17299.7
505.576	17801.46
505.779	17703.15
505.982	17946.86
506.185	18196.71
506.387	18651.36
506.59	18342.12
506.793	18966.75
506.996	18944.22
507.198	19218.65
507.401	19443.93
507.604	19386.58
507.807	19925.2
508.009	19734.74
508.212	19876.05
508.415	20156.62
508.617	20420.81
508.82	20730.05
509.022	20603.08
509.225	21072.06
509.428	21176.51
509.63	21405.88
509.833	21319.87
510.035	21897.39
510.238	21907.63
510.44	22018.22
510.643	22450.35
510.845	22499.5
511.048	22415.53
511.25	22962.34
511.453	22890.66
511.655	23988.37
511.858	23427.23
512.06	23695.51
512.262	23937.17
512.465	23558.3
512.667	24430.73
512.87	24453.26
513.072	24625.29
513.274	24785.03
513.477	25215.1
513.679	25311.36
513.881	25245.82
514.084	25837.69
514.286	25409.66
514.488	25657.46
514.69	26855.53
514.893	26556.52
515.095	26847.33
515.297	27230.3
515.499	26912.87
515.701	27394.14
515.904	27615.32
516.106	27881.56
516.308	28016.72
516.51	28579.92
516.712	28280.91
516.914	28811.34
517.116	29411.39
517.318	28979.27
517.52	29202.5
517.722	29356.1
517.925	29714.49
518.127	30099.51
518.329	30335.03
518.531	30249.01
518.733	30859.31
518.935	30875.69
519.136	30748.71
519.338	31516.7
519.54	31553.57
519.742	31733.79
519.944	31889.43
520.146	32516.11
520.348	32204.82
520.55	32526.35
520.752	32614.41
520.954	33355.78
521.155	33077.26
521.357	33677.31
521.559	33464.32
521.761	33992.7
521.963	33982.46
522.164	34222.07
522.366	34349.04
522.568	34605.04
522.77	34844.65
522.971	35143.66
523.173	34662.38
523.375	35061.74
523.576	35602.4
523.778	35332.07
523.98	35733.47
524.181	35694.56
524.383	35786.72
524.584	36085.72
524.786	36184.02
524.988	35909.6
525.189	36495.32
525.391	36540.37
525.592	36732.88
525.794	37058.51
525.995	37124.04
526.197	37144.52
526.398	37150.67
526.6	37320.65
526.801	37748.67
527.003	37648.32
527.204	37357.51
527.406	37994.43
527.607	37822.4
527.808	38213.56
528.01	37746.62
528.211	37971.9
528.412	38758.32
528.614	38172.6
528.815	38602.67
529.016	38600.63
529.218	38461.37
529.419	38270.9
529.62	38586.29
529.822	38569.91
530.023	39137.19
530.224	38432.69
530.425	38803.38
530.626	38969.26
530.828	38410.17
531.029	39710.63
531.23	38848.43
531.431	38928.3
531.632	39198.63
531.833	39231.4
532.035	39049.13
532.236	38889.39
532.437	39317.42
532.638	38936.49
532.839	39178.15
533.04	39335.85
533.241	38811.57
533.442	39743.39
533.643	39241.64
533.844	39137.19
534.045	39581.6
534.246	38883.25
534.447	39417.77
534.648	39276.46
534.849	39243.69
535.05	38576.05
535.251	39301.03
535.451	39403.43
535.652	39643.04
535.853	39292.84
536.054	39595.94
536.255	39485.35
536.456	38989.74
536.657	40054.68
536.857	39180.2
537.058	39024.56
537.259	39692.19
537.46	39448.49
537.66	39004.08
537.861	39169.96
538.062	39167.91
538.263	39325.61
538.463	38838.19
538.664	38977.45
538.865	38918.06
539.065	38805.42
539.266	38594.48
539.466	39495.59
539.667	38674.35
539.868	39389.09
540.068	39249.83
540.269	39165.87
540.469	39335.85
540.67	38944.69
540.87	39198.63
541.071	38940.59
541.271	39270.31
541.472	38635.44
541.672	38938.54
541.873	38612.91
542.073	38684.59
542.274	38934.45
542.474	38739.89
542.675	38487.99
542.875	39215.02
543.075	38518.71
543.276	38477.75
543.476	38950.83
543.676	38758.32
543.877	39047.08
544.077	39141.29
544.277	38762.42
544.478	38631.35
544.678	38721.46
544.878	38352.82
545.078	38563.76
545.279	38563.76
545.479	38213.56
545.679	38819.76
545.879	38848.43
546.079	38780.85
546.28	38492.08
546.48	37965.76
546.68	38637.49
546.88	38600.63
547.08	38408.12
547.28	38373.3
547.48	37998.52
547.68	38457.27
547.88	38197.18
548.081	38143.93
548.281	38690.74
548.481	37971.9
548.681	38766.51
548.881	38160.31
549.081	38084.54
549.28	38213.56
549.48	38584.24
549.68	38559.67
549.88	38522.8
550.08	38168.51
550.28	38221.75
550.48	38193.08
550.68	38457.27
550.88	38037.44
551.08	38234.04
551.279	38352.82
551.479	38145.98
551.679	38332.34
551.879	38201.27
552.079	38213.56
552.278	38152.12
552.478	37662.66
552.678	38068.16
552.878	38485.94
553.077	37756.86
553.277	37750.72
553.477	38223.8
553.676	37965.76
553.876	38064.06
554.076	37861.31
554.275	37785.54
554.475	37455.81
554.674	37877.69
554.874	37992.38
555.074	37621.7
555.273	37795.78
555.473	37883.84
555.672	37644.23
555.872	37783.49
556.071	37789.63
556.271	38053.82
556.47	37572.55
556.67	37271.5
556.869	37595.07
557.068	37533.64
557.268	37652.42
557.467	37541.83
557.667	37468.1
557.866	36769.74
558.065	37517.25
558.265	37318.6
558.464	36943.82
558.663	37550.02
558.863	37042.12
559.062	37527.49
559.261	36933.58
559.461	37439.43
559.66	36822.99
559.859	36902.86
560.058	36622.29
560.258	36679.63
560.457	36220.89
560.656	37072.84
560.855	36448.21
561.054	36804.56
561.253	36200.41
561.453	36782.03
561.652	36732.88
561.851	36483.03
562.05	36642.77
562.249	36706.26
562.448	36399.06
562.647	36517.84
562.846	36478.93
563.045	36229.08
563.244	36087.77
563.443	36356.05
563.642	35866.59
563.841	36075.48
564.04	36048.86
564.239	36100.06
564.438	35856.35
564.637	35960.8
564.836	36061.15
565.035	35362.79
565.234	35870.68
565.432	35856.35
565.631	35575.78
565.83	35801.05
566.029	35377.12
566.228	35766.24
566.427	35432.42
566.625	35168.23
566.824	35217.38
567.023	35592.16
567.222	34959.34
567.42	35395.56
567.619	35078.12
567.818	35055.59
568.016	35260.39
568.215	35377.12
568.414	34869.23
568.612	35377.12
568.811	34844.65
569.01	34871.28
569.208	34445.3
569.407	34732.01
569.605	34508.79
569.804	34820.08
570.002	34553.84
570.201	34729.97
570.4	34301.94
570.598	34211.83
570.797	34299.89
570.995	34387.96
571.193	33685.5
571.392	34154.49
571.59	33675.26
571.789	34136.06
571.987	33976.31
572.186	33900.54
572.384	33558.53
572.582	33742.85
572.781	33869.82
572.979	33515.52
573.177	33552.38
573.376	34002.94
573.574	33417.22
573.772	33484.8
573.971	33499.14
574.169	33173.51
574.367	32989.19
574.565	33456.13
574.763	32978.95
574.962	32966.66
575.16	32612.37
575.358	32837.64
575.556	32460.82
575.754	32870.41
575.952	32489.49
576.151	32815.12
576.349	32632.85
576.547	32290.84
576.745	32471.06
576.943	32491.54
577.141	32462.86
577.339	32364.56
577.537	32180.24
577.735	32165.91
577.933	32530.45
578.131	32151.57
578.329	31615.01
578.527	31471.65
578.725	31686.68
578.923	31502.37
579.121	31512.61
579.319	31655.96
579.516	31637.53
579.714	31565.85
579.912	31186.98
580.11	31275.04
580.308	31537.18
580.506	31244.32
580.704	30793.77
580.901	31103.01
581.099	31369.25
581.297	31041.57
581.495	30951.46
581.692	30978.09
581.89	30617.64
582.088	30969.9
582.285	30765.1
582.483	30683.18
582.681	30668.84
582.878	30459.95
583.076	29986.87
583.274	30629.93
583.471	29945.91
583.669	30240.82
583.866	30066.74
584.064	29941.82
584.262	29411.39
584.459	30083.12
584.657	29284.42
584.854	29976.63
585.052	29417.54
585.249	29495.36
585.447	29378.62
585.644	29372.48
585.841	29108.29
586.039	29448.25
586.236	28983.37
586.434	28651.59
586.631	29120.58
586.828	29007.94
587.026	28936.26
587.223	29016.13
587.42	28792.9
587.618	29014.09
587.815	28643.4
588.012	28409.93
588.21	28342.35
588.407	28862.54
588.604	28203.09
588.801	28131.41
588.999	28094.55
589.196	28219.47
589.393	28125.27
589.59	28096.6
589.787	28016.72
589.984	27514.97
590.182	27742.3
590.379	27820.12
590.576	27467.87
590.773	27400.29
590.97	27377.76
591.167	27349.09
591.364	27007.08
591.561	27234.4
591.758	26970.21
591.955	27261.02
592.152	27095.14
592.349	27035.75
592.546	27066.47
592.743	26916.97
592.94	26701.93
593.137	26581.1
593.334	26830.95
593.531	26337.39
593.727	26083.44
593.924	26230.9
594.121	25874.55
594.318	26353.77
594.515	26103.92
594.712	26079.35
594.908	25948.28
595.105	25874.55
595.302	25802.87
595.499	25825.4
595.696	25766.01
595.892	25909.36
596.089	25839.73
596.286	25510.01
596.482	25591.93
596.679	25575.55
596.876	25456.76
597.072	25112.7
597.269	25645.18
597.466	24819.85
597.662	25139.33
597.859	24899.72
598.055	25145.47
598.252	24346.76
598.448	24825.99
598.645	24604.81
598.841	24365.2
599.038	24742.02
599.234	24338.57
599.431	24287.37
599.627	24137.87
599.824	24688.78
600.02	24088.72
600.217	24285.33
600.413	24000.66
600.609	23914.64
600.806	23898.26
601.002	23961.75
601.198	23511.19
601.395	23799.96
601.591	23208.09
601.787	23666.84
601.984	23455.9
602.18	23324.83
602.376	23169.18
602.572	23163.04
602.769	23158.94
602.965	22909.09
603.161	23007.39
603.357	23044.26
603.553	22952.1
603.75	22620.33
603.946	22886.56
604.142	22778.02
604.338	22327.47
604.534	22792.36
604.73	22608.04
604.926	22388.91
605.122	22343.85
605.318	22386.86
605.514	22323.37
605.71	22169.77
605.906	22268.08
606.102	22057.14
606.298	22255.79
606.494	22098.09
606.69	22081.71
606.886	22012.08
607.082	21907.63
607.278	22169.77
607.474	21743.8
607.67	21809.33
607.866	21332.15
608.062	21889.2
608.257	21469.37
608.453	21534.9
608.649	21745.84
608.845	21373.11
609.041	21618.87
609.236	21446.84
609.432	21696.69
609.628	21442.74
609.824	21358.78
610.019	21100.73
610.215	21450.94
610.411	21276.86
610.606	20891.84
610.802	21457.08
610.998	20773.06
611.193	20719.81
611.389	21004.48
611.584	20715.72
611.78	21131.45
611.976	20943.04
612.171	20641.99
612.367	20924.61
612.562	20742.34
612.758	20371.66
612.953	20603.08
613.149	20492.49
613.344	20254.92
613.539	20631.75
613.735	20601.03
613.93	20691.14
614.126	20412.62
614.321	20760.77
614.517	20328.65
614.712	20263.11
614.907	20248.78
615.103	20435.14
615.298	20003.02
615.493	20576.45
615.688	20050.13
615.884	20461.77
616.079	20164.81
616.274	20058.32
616.47	20078.8
616.665	20048.08
616.86	19759.31
617.055	19796.18
617.25	19640.53
617.445	19912.91
617.641	19382.49
617.836	19845.33
618.031	19495.13
618.226	19732.69
618.421	19206.36
618.616	19773.65
618.811	19267.8
619.006	19577.05
619.201	18895.07
619.396	19149.02
619.591	18954.46
619.786	19149.02
619.981	18618.6
620.176	18995.42
620.371	18764
620.566	18893.02
620.761	18417.89
620.956	18655.46
621.151	18385.13
621.346	18512.1
621.541	18335.98
621.735	18499.81
621.93	17924.33
622.125	18043.12
622.32	17862.9
622.515	17971.44
622.709	17922.29
622.904	18022.64
623.099	17809.65
623.294	17709.3
623.488	17565.94
623.683	17469.69
623.878	17051.9
624.072	17248.5
624.267	17209.59
624.462	16877.82
624.656	16775.42
624.851	16920.83
625.046	16941.31
625.24	16695.55
625.435	16400.65
625.629	16365.83
625.824	16410.89
626.018	16322.82
626.213	16240.9
626.407	16048.4
626.602	16023.82
626.796	16163.08
626.991	15974.67
627.185	15788.3
627.38	15997.2
627.574	15415.57
627.768	15386.9
627.963	15384.85
628.157	15434
628.352	15565.07
628.546	14893.34
628.74	15335.7
628.935	15104.28
629.129	15071.51
629.323	14817.57
629.517	14960.92
629.712	14629.15
629.906	14702.88
630.1	14481.7
630.294	14657.82
630.489	14547.23
630.683	14459.17
630.877	14197.03
631.071	14074.15
631.265	14223.65
631.459	14098.73
631.653	14137.64
631.848	14072.11
632.042	13832.49
632.236	13836.59
632.43	13758.77
632.624	13601.07
632.818	13566.26
633.012	13519.15
633.206	13482.29
633.4	13592.88
633.594	13375.8
633.788	13412.66
633.982	13283.64
634.176	13326.64
634.369	13236.53
634.563	12964.15
634.757	12767.55
634.951	12915
635.145	12763.45
635.339	12814.65
635.533	12626.24
635.726	12675.39
635.92	12556.61
636.114	12529.98
636.308	12403.01
636.501	12542.27
636.695	12661.05
636.889	12396.87
637.083	12069.19
637.276	12118.34
637.47	11870.54
637.664	12001.61
637.857	12151.11
638.051	12015.94
638.244	11555.15
638.438	11639.12
638.632	11714.89
638.825	11800.91
639.019	11686.22
639.212	11157.85
639.406	11524.43
639.599	11428.18
639.793	11262.29
639.986	11241.81
640.18	11221.33
640.373	11219.28
640.567	11108.69
640.76	11278.68
640.954	10785.12
641.147	10991.96
641.34	10887.51
641.534	11026.78
641.727	10695
641.92	10877.27
642.114	10688.86
642.307	10606.94
642.5	10410.34
642.694	10510.69
642.887	10426.72
643.08	10563.93
643.273	10420.58
643.467	10381.67
643.66	10162.53
643.853	10097
644.046	10070.37
644.239	9992.55
644.432	9945.45
644.626	9933.16
644.819	9951.59
645.012	9910.63
645.205	9945.45
645.398	9828.71
645.591	9722.22
645.784	9904.49
645.977	9585.01
646.17	9673.07
646.363	9705.84
646.556	9281.91
646.749	9513.33
646.942	9455.98
647.135	9144.69
647.328	9298.29
647.521	9247.09
647.714	9204.08
647.907	9275.76
648.099	9286
648.292	9107.83
648.485	9089.4
648.678	9052.53
648.871	9066.87
649.064	8851.83
649.256	9017.72
649.449	8835.45
649.642	8561.02
649.835	8737.15
650.027	8700.28
650.22	8536.45
650.413	8712.57
650.605	8620.41
650.798	8675.71
650.991	8327.55
651.183	8329.6
651.376	8401.28
651.568	8288.64
651.761	8159.62
651.954	8323.46
652.146	8145.28
652.339	8212.87
652.531	8130.95
652.724	8038.79
652.916	7940.49
653.109	8016.26
653.301	8085.89
653.494	7797.13
653.686	7682.44
653.879	7975.3
654.071	7754.12
654.263	7594.38
654.456	7747.98
654.648	7678.35
654.84	7592.33
655.033	7559.56
655.225	7438.73
655.417	7207.31
655.61	7551.37
655.802	7436.69
655.994	7483.79
656.186	7348.62
656.379	7385.49
656.571	7385.49
656.763	7129.49
656.955	7002.52
657.148	7289.23
657.34	7131.54
657.532	7031.19
657.724	7004.57
657.916	7055.76
658.108	6969.75
658.3	7012.76
658.492	6918.55
658.684	6785.43
658.876	6818.2
659.068	6924.69
659.26	6683.03
659.452	6672.79
659.644	6814.1
659.836	6949.27
660.028	6580.64
660.22	6531.48
660.412	6590.88
660.604	6416.8
660.796	6502.81
660.988	6437.28
661.18	6359.45
661.372	6314.4
661.563	6367.65
661.755	6293.92
661.947	6259.1
662.139	6300.06
662.331	6312.35
662.522	6158.75
662.714	6302.11
662.906	6197.67
663.097	6168.99
663.289	5937.57
663.481	6107.55
663.673	5956.01
663.864	6085.03
664.056	5876.13
664.247	5898.66
664.439	5951.91
664.631	5878.18
664.822	5925.29
665.014	5792.17
665.205	5771.69
665.397	5841.32
665.588	5890.47
665.78	5833.13
665.971	5720.49
666.163	5646.76
666.354	5548.46
666.546	5679.53
666.737	5523.88
666.929	5618.09
667.12	5597.61
667.311	5462.44
667.503	5331.37
667.694	5271.98
667.885	5570.99
668.077	5423.53
668.268	5335.47
668.459	5253.55
668.651	5411.25
668.842	5300.66
669.033	5360.05
669.224	5194.16
669.416	5362.09
669.607	5233.07
669.798	5194.16
669.989	5253.55
670.18	5165.49
670.371	5067.19
670.563	4972.98
670.754	5095.86
670.945	5020.08
671.136	5005.75
671.327	4940.21
671.518	5040.56
671.709	4911.54
671.9	5099.95
672.091	4970.93
672.282	4903.35
672.473	4889.01
672.664	4905.4
672.855	4864.44
673.046	4854.2
673.237	4817.33
673.428	4794.81
673.619	4944.31
673.809	4747.7
674	4784.57
674.191	4747.7
674.382	4669.88
674.573	4649.4
674.764	4676.02
674.954	4678.07
675.145	4747.7
675.336	4553.15
675.527	4526.52
675.717	4532.67
675.908	4600.25
676.099	4497.85
676.289	4536.76
676.48	4520.38
676.671	4501.95
676.861	4620.73
677.052	4393.4
677.243	4450.75
677.433	4393.4
677.624	4483.52
677.814	4336.06
678.005	4385.21
678.195	4372.93
678.386	4401.6
678.576	4497.85
678.767	4485.56
678.957	4317.63
679.148	4329.92
679.338	4219.33
679.529	4366.78
679.719	4256.19
679.909	4295.1
680.1	4303.29
680.29	4192.7
680.481	4264.38
680.671	4065.73
680.861	4272.57
681.052	4284.86
681.242	4090.31
681.432	4266.43
681.622	4159.94
681.813	4196.8
682.003	4207.04
682.193	4088.26
682.383	4082.11
682.573	4016.58
682.764	4067.78
682.954	4039.11
683.144	4161.98
683.334	3996.1
683.524	3879.36
683.714	4127.17
683.904	4051.39
684.094	4194.75
684.284	3922.37
684.474	3987.91
684.664	3992
684.854	3895.75
685.044	4161.98
685.234	3916.23
685.424	3871.17
685.614	3910.08
685.804	4065.73
685.994	3983.81
686.184	3842.5
686.374	3912.13
686.564	3994.05
686.753	3854.79
686.943	3865.03
687.133	3750.34
687.323	3695.05
687.513	3746.25
687.702	3811.78
687.892	3713.48
688.082	3674.57
688.272	3756.49
688.461	3699.14
688.651	3590.6
688.841	3535.31
689.03	3621.32
689.22	3598.79
689.41	3582.41
689.599	3611.08
689.789	3615.18
689.979	3598.79
690.168	3592.65
690.358	3529.16
690.547	3484.11
690.737	3537.35
690.926	3500.49
691.116	3531.21
691.305	3480.01
691.495	3463.63
691.684	3363.28
691.874	3424.72
692.063	3387.85
692.252	3373.52
692.442	3535.31
692.631	3181.01
692.82	3295.69
693.01	3334.61
693.199	3201.49
693.388	3178.96
693.578	3158.48
693.767	3273.17
693.956	3256.78
694.146	2998.74
694.335	3029.46
694.524	3109.33
694.713	3246.54
694.902	3138
695.092	3000.79
695.281	3086.8
695.47	3109.33
695.659	2906.58
695.848	2914.77
696.037	2824.66
696.226	2984.4
696.415	2826.71
696.604	3041.75
696.793	2861.52
696.982	2925.01
697.171	3039.7
697.36	2992.59
697.549	2949.59
697.738	2812.37
697.927	2750.93
698.116	2892.24
698.305	2763.22
698.494	2783.7
698.683	2906.58
698.872	2849.24
699.061	2861.52
699.25	2785.75
699.438	2800.09
699.627	2724.31
699.816	2834.9
700.005	2773.46
700.193	2736.6
700.382	2673.11
700.571	2843.09
700.76	2781.65
700.948	2730.45
701.137	2685.4
701.326	2718.17
701.514	2732.5
701.703	2683.35
701.892	2695.64
702.08	2763.22
702.269	2638.3
702.457	2662.87
702.646	2599.38
702.834	2597.34
703.023	2740.69
703.212	2583
703.4	2576.86
703.589	2554.33
703.777	2666.97
703.965	2578.9
704.154	2666.97
704.342	2546.14
704.531	2664.92
704.719	2619.86
704.907	2539.99
705.096	2535.9
705.284	2578.9
705.472	2499.03
705.661	2458.07
705.849	2580.95
706.037	2599.38
706.226	2482.65
706.414	2470.36
706.602	2408.92
706.79	2468.31
706.979	2509.27
707.167	2458.07
707.355	2402.78
707.543	2517.47
707.731	2484.7
707.919	2494.94
708.107	2453.98
708.296	2427.35
708.484	2384.35
708.672	2470.36
708.86	2433.5
709.048	2564.57
709.236	2462.17
709.424	2533.85
709.612	2539.99
709.8	2513.37
709.988	2365.92
710.176	2468.31
710.364	2392.54
710.551	2484.7
710.739	2406.88
710.927	2486.75
711.115	2433.5
711.303	2523.61
711.491	2386.4
711.679	2400.73
711.866	2447.83
712.054	2378.2
712.242	2394.59
712.43	2390.49
712.617	2505.18
712.805	2370.01
712.993	2384.35
713.181	2451.93
713.368	2343.39
713.556	2394.59
713.744	2306.52
713.931	2562.52
714.119	2400.73
714.306	2470.36
714.494	2408.92
714.682	2380.25
714.869	2308.57
715.057	2474.46
715.244	2355.68
715.432	2388.44
715.619	2400.73
715.807	2322.91
715.994	2351.58
716.182	2296.28
716.369	2357.72
716.556	2380.25
716.744	2271.71
716.931	2425.31
717.119	2327
717.306	2505.18
717.493	2404.83
717.681	2294.24
717.868	2357.72
718.055	2337.24
718.242	2333.15
718.43	2343.39
718.617	2468.31
718.804	2396.64
718.991	2388.44
719.179	2453.98
719.366	2388.44
719.553	2453.98
719.74	2386.4
719.927	2388.44
720.114	2468.31
720.301	2261.47
720.488	2279.9
720.676	2376.16
720.863	2380.25
721.05	2410.97
721.237	2458.07
721.424	2425.31
721.611	2363.87
721.798	2243.04
721.985	2398.68
722.172	2357.72
722.358	2427.35
722.545	2294.24
722.732	2406.88
722.919	2380.25
723.106	2394.59
723.293	2312.67
723.48	2415.07
723.667	2304.48
723.853	2486.75
724.04	2351.58
724.227	2367.96
724.414	2404.83
724.6	2445.79
724.787	2406.88
724.974	2462.17
725.161	2517.47
725.347	2296.28
725.534	2449.88
725.72	2466.27
725.907	2402.78
726.094	2357.72
726.28	2482.65
726.467	2306.52
726.653	2370.01
726.84	2472.41
727.027	2456.03
727.213	2370.01
727.4	2476.51
727.586	2484.7
727.773	2331.1
727.959	2548.19
728.145	2419.16
728.332	2402.78
728.518	2488.79
728.705	2365.92
728.891	2429.4
729.077	2451.93
729.264	2394.59
729.45	2456.03
729.636	2517.47
729.823	2392.54
730.009	2535.9
730.195	2501.08
730.382	2550.23
730.568	2537.95
730.754	2460.12
730.94	2378.2
731.126	2494.94
731.313	2501.08
731.499	2466.27
731.685	2484.7
731.871	2568.66
732.057	2517.47
732.243	2496.99
732.429	2558.42
732.615	2550.23
732.801	2597.34
732.987	2597.34
733.173	2529.75
733.359	2585.05
733.545	2505.18
733.731	2468.31
733.917	2558.42
734.103	2554.33
734.289	2673.11
734.475	2486.75
734.661	2599.38
734.847	2648.54
735.033	2525.66
735.219	2695.64
735.404	2738.65
735.59	2554.33
735.776	2652.63
735.962	2623.96
736.148	2648.54
736.333	2603.48
736.519	2615.77
736.705	2632.15
736.89	2644.44
737.076	2689.49
737.262	2511.32
737.447	2578.9
737.633	2587.1
737.819	2677.21
738.004	2693.59
738.19	2691.54
738.375	2613.72
738.561	2621.91
738.747	2716.12
738.932	2675.16
739.118	2681.3
739.303	2589.14
739.489	2646.49
739.674	2630.1
739.859	2726.36
740.045	2576.86
740.23	2595.29
740.416	2556.38
740.601	2699.73
740.786	2695.64
740.972	2591.19
741.157	2673.11
741.342	2654.68
741.528	2593.24
741.713	2626.01
741.898	2718.17
742.084	2583
742.269	2695.64
742.454	2597.34
742.639	2601.43
742.824	2580.95
743.01	2664.92
743.195	2695.64
743.38	2578.9
743.565	2562.52
743.75	2623.96
743.935	2519.51
744.12	2767.32
744.305	2666.97
744.49	2456.03
744.675	2542.04
744.86	2605.53
745.045	2560.47
745.23	2519.51
745.415	2617.82
745.6	2585.05
745.785	2566.62
745.97	2523.61
746.155	2531.8
746.34	2539.99
746.525	2564.57
746.71	2564.57
746.895	2517.47
747.079	2470.36
747.264	2396.64
747.449	2537.95
747.634	2464.22
747.819	2488.79
748.003	2478.55
748.188	2294.24
748.373	2398.68
748.557	2380.25
748.742	2380.25
748.927	2486.75
749.111	2453.98
749.296	2408.92
749.481	2488.79
749.665	2390.49
749.85	2327
750.034	2335.2
750.219	2413.02
750.404	2234.85
750.588	2353.63
750.773	2220.51
750.957	2206.17
751.141	2222.56
751.326	2466.27
751.51	2212.32
751.695	2253.28
751.879	2257.37
752.064	2324.96
752.248	2261.47
752.432	2173.41
752.617	2222.56
752.801	2187.74
752.985	2144.74
753.17	2161.12
753.354	2105.82
753.538	2263.52
753.722	2101.73
753.907	2009.57
754.091	2075.1
754.275	2095.58
754.459	1999.33
754.643	2046.43
754.828	2071.01
755.012	1911.27
755.196	2038.24
755.38	2034.14
755.564	2009.57
755.748	1903.07
755.932	2066.91
756.116	1886.69
756.3	1882.6
756.484	2023.91
756.668	1839.59
756.852	1915.36
757.036	1864.16
757.22	1925.6
757.404	1884.64
757.588	1937.89
757.772	1888.74
757.956	1792.48
758.14	1905.12
758.323	1841.64
758.507	1743.33
758.691	1866.21
758.875	1812.96
759.059	1763.81
759.242	1743.33
759.426	1731.05
759.61	1769.96
759.794	1685.99
759.977	1669.61
760.161	1698.28
760.345	1720.81
760.528	1753.57
760.712	1765.86
760.895	1800.68
761.079	1733.09
761.263	1665.51
761.446	1645.03
761.63	1663.46
761.813	1710.57
761.997	1620.46
762.18	1616.36
762.364	1538.54
762.547	1573.35
762.731	1630.7
762.914	1657.32
763.098	1563.11
763.281	1657.32
763.464	1528.3
763.648	1505.77
763.831	1571.3
764.015	1585.64
764.198	1522.15
764.381	1571.3
764.564	1616.36
764.748	1604.07
764.931	1632.74
765.114	1536.49
765.297	1413.61
765.481	1530.34
765.664	1602.02
765.847	1427.95
766.03	1530.34
766.213	1477.1
766.397	1577.45
766.58	1503.72
766.763	1499.63
766.946	1485.29
767.129	1450.47
767.312	1384.94
767.495	1466.86
767.678	1442.28
767.861	1429.99
768.044	1389.03
768.227	1434.09
768.41	1423.85
768.593	1458.67
768.776	1358.32
768.959	1423.85
769.142	1413.61
769.324	1356.27
769.507	1427.95
769.69	1395.18
769.873	1403.37
770.056	1376.75
770.239	1343.98
770.421	1399.27
770.604	1321.45
770.787	1327.6
770.97	1384.94
771.152	1233.39
771.335	1241.58
771.518	1296.88
771.7	1280.49
771.883	1249.77
772.066	1307.12
772.248	1217.01
772.431	1253.87
772.613	1276.4
772.796	1409.51
772.978	1282.54
773.161	1364.46
773.343	1257.96
773.526	1298.92
773.708	1253.87
773.891	1094.13
774.073	1190.38
774.256	1176.05
774.438	1202.67
774.621	1149.42
774.803	1239.53
774.985	1051.12
775.168	1223.15
775.35	1176.05
775.532	1135.09
775.715	1145.33
775.897	1085.94
776.079	1100.27
776.261	1114.61
776.444	1067.5
776.626	1110.51
776.808	1116.65
776.99	1067.5
777.173	1051.12
777.355	1001.97
777.537	1053.17
777.719	1024.5
777.901	1137.13
778.083	1036.78
778.265	971.25
778.447	1026.54
778.629	958.96
778.811	1065.46
778.993	1057.26
779.175	1004.02
779.357	1036.78
779.539	1004.02
779.721	997.87
779.903	1042.93
780.085	958.96
780.267	864.75
780.449	872.95
780.631	981.49
780.812	922.1
780.994	924.15
781.176	864.75
781.358	928.24
781.54	858.61
781.721	838.13
781.903	942.58
782.085	821.75
782.267	840.18
782.448	858.61
782.63	799.22
782.812	936.43
782.993	856.56
783.175	887.28
783.357	860.66
783.538	762.36
783.72	707.06
783.901	772.6
784.083	811.51
784.264	846.32
784.446	817.65
784.627	721.4
784.809	811.51
784.99	643.57
785.172	657.91
785.353	807.41
785.535	707.06
785.716	729.59
785.897	680.44
786.079	684.53
786.26	688.63
786.441	672.25
786.623	711.16
786.804	678.39
786.985	702.97
787.167	641.53
787.348	610.81
787.529	692.73
787.71	619
787.891	655.86
788.073	625.14
788.254	645.62
788.435	608.76
788.616	635.38
788.797	614.9
788.978	674.29
789.159	569.85
789.34	633.33
789.522	528.89
789.703	666.1
789.884	610.81
790.065	594.42
790.246	625.14
790.427	547.32
790.607	606.71
790.788	629.24
790.969	506.36
791.15	524.79
791.331	561.66
791.512	557.56
791.693	494.07
791.874	481.78
792.054	582.14
792.235	547.32
792.416	504.31
792.597	487.93
792.778	575.99
792.958	518.65
793.139	469.5
793.32	614.9
793.5	467.45
793.681	539.13
793.862	489.98
794.042	506.36
794.223	416.25
794.404	412.15
794.584	526.84
794.765	610.81
794.945	451.07
795.126	446.97
795.306	461.3
795.487	430.59
795.667	483.83
795.848	459.26
796.028	412.15
796.209	479.74
796.389	442.87
796.57	391.67
796.75	434.68
796.93	506.36
797.111	412.15
797.291	434.68
797.471	442.87
797.652	444.92
797.832	393.72
798.012	408.06
798.192	408.06
798.373	387.58
798.553	418.3
798.733	348.67
798.913	369.15
799.093	377.34
799.274	358.91
799.454	344.57
799.634	381.43
799.814	420.35
799.994	385.53
800.174	428.54
800.354	422.39
800.534	432.63
800.714	473.59
800.894	418.3
801.074	352.76
801.254	283.13
801.434	420.35
801.614	430.59
801.794	322.04
801.974	993.78
802.154	358.91
802.334	363
802.514	391.67
802.693	322.04
802.873	367.1
803.053	406.01
803.233	418.3
803.413	393.72
803.592	266.75
803.772	356.86
803.952	317.95
804.131	270.84
804.311	354.81
804.491	408.06
804.67	301.56
804.85	262.65
805.03	324.09
805.209	262.65
805.389	317.95
805.568	377.34
805.748	387.58
805.928	336.38
806.107	289.28
806.287	354.81
806.466	303.61
806.646	406.01
806.825	307.71
807.004	272.89
807.184	334.33
807.363	256.51
807.543	223.74
807.722	295.42
807.901	256.51
808.081	358.91
808.26	305.66
808.439	252.41
808.619	311.8
808.798	313.85
808.977	258.56
809.156	322.04
809.336	287.23
809.515	313.85
809.694	242.17
809.873	238.08
810.052	285.18
810.231	281.08
810.411	264.7
810.59	342.52
810.769	166.4
810.948	293.37
811.127	205.31
811.306	270.84
811.485	262.65
811.664	276.99
811.843	238.08
812.022	266.75
812.201	274.94
812.38	184.83
812.559	229.88
812.737	176.64
812.916	250.36
813.095	244.22
813.274	264.7
813.453	190.97
813.632	213.5
813.811	272.89
813.989	233.98
814.168	201.21
814.347	242.17
814.526	199.16
814.704	260.6
814.883	291.32
815.062	199.16
815.24	193.02
815.419	195.07
815.598	272.89
815.776	217.6
815.955	268.8
816.133	203.26
816.312	264.7
816.49	150.01
816.669	238.08
816.847	190.97
817.026	211.45
817.204	233.98
817.383	215.55
817.561	240.12
817.74	248.32
817.918	147.97
818.097	115.2
818.275	211.45
818.453	184.83
818.632	236.03
818.81	293.37
818.988	107.01
819.167	180.73
819.345	266.75
819.523	197.12
819.701	150.01
819.879	158.21
820.058	225.79
820.236	203.26
820.414	170.49
820.592	201.21
820.77	150.01
820.948	127.49
821.127	174.59
821.305	178.69
821.483	156.16
821.661	227.84
821.839	211.45
822.017	195.07
822.195	178.69
822.373	166.4
822.551	145.92
822.729	205.31
822.907	174.59
823.085	162.3
823.262	166.4
823.44	182.78
823.618	172.54
823.796	158.21
823.974	147.97
824.152	199.16
824.329	145.92
824.507	100.86
824.685	182.78
824.863	80.38
825.04	139.77
825.218	150.01
825.396	217.6
825.574	172.54
825.751	129.53
825.929	209.4
826.107	119.29
826.284	133.63
826.462	178.69
826.639	76.29
826.817	164.35
826.994	154.11
827.172	150.01
827.349	211.45
827.527	197.12
827.704	123.39
827.882	215.55
828.059	154.11
828.237	215.55
828.414	168.45
828.591	100.86
828.769	147.97
828.946	141.82
829.124	174.59
829.301	197.12
829.478	123.39
829.655	154.11
829.833	229.88
830.01	164.35
830.187	182.78
830.364	176.64
830.542	61.95
830.719	154.11
830.896	168.45
831.073	147.97
831.25	207.36
831.427	129.53
831.604	94.72
831.782	82.43
831.959	104.96
832.136	170.49
832.313	164.35
832.49	80.38
832.667	117.25
832.844	41.47
833.021	182.78
833.198	104.96
833.374	182.78
833.551	98.81
833.728	119.29
833.905	74.24
834.082	154.11
834.259	170.49
834.436	131.58
834.612	29.18
834.789	123.39
834.966	121.34
835.143	119.29
835.319	61.95
835.496	190.97
835.673	176.64
835.85	139.77
836.026	90.62
836.203	74.24
836.38	70.14
836.556	156.16
836.733	98.81
836.909	135.68
837.086	115.2
837.262	102.91
837.439	90.62
837.616	12.8
837.792	102.91
837.968	92.67
838.145	94.72
838.321	61.95
838.498	127.49
838.674	72.19
838.851	-13.82
839.027	125.44
839.203	88.57
839.38	164.35
839.556	82.43
839.732	90.62
839.909	117.25
840.085	55.81
840.261	76.29
840.437	74.24
840.614	-1.54
840.79	180.73
840.966	59.9
841.142	201.21
841.318	96.77
841.494	49.66
841.671	184.83
841.847	119.29
842.023	104.96
842.199	66.05
842.375	104.96
842.551	53.76
842.727	41.47
842.903	123.39
843.079	57.86
843.255	156.16
843.431	68.09
843.607	33.28
843.783	45.57
843.959	88.57
844.134	127.49
844.31	94.72
844.486	74.24
844.662	154.11
844.838	123.39
845.013	129.53
845.189	37.38
845.365	100.86
845.541	57.86
845.716	100.86
845.892	47.62
846.068	29.18
846.244	59.9
846.419	109.05
846.595	66.05
846.77	37.38
846.946	96.77
847.122	100.86
847.297	10.75
847.473	162.3
847.648	88.57
847.824	47.62
847.999	35.33
848.175	82.43
848.35	84.48
848.526	47.62
848.701	98.81
848.876	154.11
849.052	113.15
849.227	68.09
849.403	66.05
849.578	29.18
849.753	88.57
849.929	61.95
850.104	18.94
850.279	64
850.454	53.76
850.63	68.09
850.805	100.86
850.98	55.81
851.155	41.47
851.33	141.82
851.505	-17.92
851.681	133.63
851.856	51.71
852.031	35.33
852.206	16.9
852.381	18.94
852.556	90.62
852.731	70.14
852.906	88.57
853.081	94.72
853.256	61.95
853.431	64
853.606	0.51
853.781	-30.21
853.956	-52.74
854.131	39.42
854.305	35.33
854.48	70.14
854.655	37.38
854.83	23.04
855.005	29.18
855.18	51.71
855.354	39.42
855.529	-9.73
855.704	20.99
855.879	64
856.053	29.18
856.228	51.71
856.403	-11.78
856.577	66.05
856.752	-46.59
856.926	109.05
857.101	6.66
857.276	84.48
857.45	70.14
857.625	20.99
857.799	-13.82
857.974	59.9
858.148	20.99
858.323	0.51
858.497	6.66
858.672	16.9
858.846	78.33
859.02	129.53
859.195	115.2
859.369	20.99
859.543	82.43
859.718	55.81
859.892	18.94
860.066	53.76
860.241	4.61
860.415	68.09
860.589	-5.63
860.763	27.14
860.938	31.23
861.112	98.81
861.286	41.47
861.46	49.66
861.634	10.75
861.808	74.24
861.982	-1.54
862.157	12.8
862.331	64
862.505	-13.82
862.679	-15.87
862.853	25.09
863.027	-69.12
863.201	152.06
863.375	51.71
863.549	84.48
863.722	55.81
863.896	49.66
864.07	55.81
864.244	66.05
864.418	25.09
864.592	80.38
864.766	6.66
864.939	43.52
865.113	59.9
865.287	90.62
865.461	-36.35
865.634	113.15
865.808	35.33
865.982	59.9
866.156	-13.82
866.329	2.56
866.503	64
866.676	51.71
866.85	-19.97
867.024	27.14
867.197	88.57
867.371	100.86
867.544	35.33
867.718	18.94
867.891	6.66
868.065	53.76
868.238	37.38
868.412	107.01
868.585	57.86
868.759	96.77
868.932	37.38
869.105	64
869.279	29.18
869.452	0.51
869.625	41.47
869.799	-3.58
869.972	0.51
870.145	53.76
870.319	31.23
870.492	6.66
870.665	0.51
870.838	-17.92
871.011	0.51
871.185	27.14
871.358	31.23
871.531	94.72
871.704	12.8
871.877	4.61
872.05	0.51
872.223	4.61
872.396	35.33
872.569	88.57
872.742	-1.54
872.915	104.96
873.088	-9.73
873.261	49.66
873.434	-26.11
873.607	90.62
873.78	68.09
873.953	8.7
874.126	23.04
874.299	6.66
874.471	78.33
874.644	100.86
874.817	76.29
874.99	16.9
875.163	33.28
875.335	16.9
875.508	35.33
875.681	145.92
875.853	6.66
876.026	66.05
876.199	-7.68
876.371	49.66
876.544	-5.63
876.717	49.66
876.889	-15.87
877.062	43.52
877.234	-60.93
877.407	10.75
877.579	72.19
877.752	33.28
877.924	23.04
878.097	25.09
878.269	43.52
878.442	88.57
878.614	51.71
878.786	41.47
878.959	31.23
879.131	94.72
879.303	-42.5
879.476	-19.97
879.648	10.75
879.82	12.8
879.993	94.72
880.165	-1.54
880.337	0.51
880.509	76.29
880.681	-9.73
880.854	-50.69
881.026	96.77
881.198	98.81
881.37	0.51
881.542	66.05
881.714	29.18
881.886	-42.5
882.058	53.76
882.23	-13.82
882.402	14.85
882.574	39.42
882.746	115.2
882.918	-5.63
883.09	25.09
883.262	57.86
883.434	14.85
883.606	-1.54
883.778	-5.63
883.95	80.38
884.122	20.99
884.293	12.8
884.465	-17.92
884.637	90.62
884.809	-50.69
884.98	-11.78
885.152	-11.78
885.324	57.86
885.496	8.7
885.667	-38.4
885.839	0.51
886.011	37.38
886.182	6.66
886.354	18.94
886.525	14.85
886.697	31.23
886.869	-19.97
887.04	-22.02
887.212	-15.87
887.383	104.96
887.555	-28.16
887.726	45.57
887.897	-13.82
888.069	2.56
888.24	43.52
888.412	12.8
888.583	4.61
888.754	78.33
888.926	8.7
889.097	12.8
889.268	-44.54
889.44	16.9
889.611	-38.4
889.782	-26.11
889.953	-28.16
890.125	82.43
890.296	-36.35
890.467	41.47
890.638	-9.73
890.809	66.05
890.98	-3.58
891.151	47.62
891.323	6.66
891.494	8.7
891.665	-5.63
891.836	-5.63
892.007	-3.58
892.178	4.61
892.349	86.53
892.52	-5.63
892.691	51.71
892.862	16.9
893.032	-46.59
893.203	119.29
893.374	29.18
893.545	53.76
893.716	-5.63
893.887	88.57
894.057	4.61
894.228	-7.68
894.399	-7.68
894.57	68.09
894.74	23.04
894.911	43.52
895.082	66.05
895.253	45.57
895.423	6.66
895.594	33.28
895.764	-17.92
895.935	-1.54
896.106	57.86
896.276	53.76
896.447	0.51
896.617	14.85
896.788	-13.82
896.958	16.9
897.129	25.09
897.299	0.51
897.47	41.47
897.64	66.05
897.81	-19.97
897.981	90.62
898.151	-5.63
898.322	61.95
898.492	29.18
898.662	0.51
898.832	-19.97
899.003	8.7
899.173	53.76
899.343	4.61
899.513	-52.74
