Data from USB4F104151__76__12-42-21-798.txt Node

Date: Fri Mar 14 12:42:21 EDT 2025
User: louis
Spectrometer: USB4F10415
Trigger mode: 4
Integration Time (sec): 3.000000E-2
Scans to average: 1
Electric dark correction enabled: true
Nonlinearity correction enabled: false
Boxcar width: 0
XAxis mode: Wavelengths
Number of Pixels in Spectrum: 3648
>>>>>Begin Spectral Data<<<<<
178.204	-126.12
178.424	-126.12
178.644	-126.12
178.864	-162.98
179.084	-101.55
179.304	19.29
179.524	-15.53
179.744	-17.58
179.964	19.29
180.184	-19.63
180.404	-9.39
180.624	60.24
180.844	27.48
181.064	-60.59
181.283	-48.3
181.503	13.14
181.723	31.57
181.943	37.72
182.163	142.16
182.383	-21.67
182.602	64.34
182.822	93.01
183.042	37.72
183.262	68.44
183.482	-9.39
183.701	58.2
183.921	62.29
184.141	9.05
184.361	84.82
184.58	37.72
184.8	-15.53
185.02	7
185.239	105.3
185.459	58.2
185.679	125.78
185.898	11.09
186.118	101.2
186.338	35.67
186.557	58.2
186.777	88.92
186.997	54.1
187.216	13.14
187.436	52.05
187.655	72.53
187.875	45.91
188.095	74.58
188.314	103.25
188.534	4.95
188.753	33.62
188.973	74.58
189.192	80.72
189.412	33.62
189.631	29.52
189.851	64.34
190.07	148.31
190.29	68.44
190.509	54.1
190.729	19.29
190.948	31.57
191.168	131.92
191.387	7
191.607	13.14
191.826	68.44
192.045	39.76
192.265	17.24
192.484	27.48
192.704	52.05
192.923	-3.24
193.142	66.39
193.362	70.48
193.581	154.45
193.8	25.43
194.02	27.48
194.239	2.9
194.458	80.72
194.678	15.19
194.897	111.44
195.116	97.11
195.335	56.15
195.555	-21.67
195.774	62.29
195.993	45.91
196.212	84.82
196.432	-38.06
196.651	64.34
196.87	-19.63
197.089	123.73
197.308	62.29
197.528	76.63
197.747	27.48
197.966	66.39
198.185	146.26
198.404	54.1
198.623	-48.3
198.842	60.24
199.062	17.24
199.281	115.54
199.5	76.63
199.719	9.05
199.938	43.86
200.157	121.68
200.376	90.96
200.595	9.05
200.814	-27.82
201.033	39.76
201.252	129.88
201.471	90.96
201.69	68.44
201.909	64.34
202.128	123.73
202.347	121.68
202.566	86.87
202.785	50
203.004	29.52
203.223	68.44
203.442	41.81
203.661	7
203.879	101.2
204.098	68.44
204.317	2.9
204.536	119.64
204.755	50
204.974	52.05
205.193	45.91
205.411	64.34
205.63	66.39
205.849	56.15
206.068	9.05
206.287	70.48
206.505	133.97
206.724	103.25
206.943	-3.24
207.162	103.25
207.381	54.1
207.599	33.62
207.818	4.95
208.037	-13.48
208.255	19.29
208.474	54.1
208.693	37.72
208.911	103.25
209.13	66.39
209.349	-13.48
209.567	99.16
209.786	66.39
210.005	115.54
210.223	54.1
210.442	11.09
210.661	78.68
210.879	115.54
211.098	93.01
211.316	68.44
211.535	125.78
211.753	58.2
211.972	50
212.191	64.34
212.409	80.72
212.628	74.58
212.846	101.2
213.065	27.48
213.283	68.44
213.502	45.91
213.72	17.24
213.938	95.06
214.157	15.19
214.375	142.16
214.594	-7.34
214.812	113.49
215.031	95.06
215.249	107.35
215.467	-17.58
215.686	123.73
215.904	43.86
216.122	68.44
216.341	176.98
216.559	41.81
216.778	101.2
216.996	107.35
217.214	72.53
217.432	19.29
217.651	58.2
217.869	54.1
218.087	150.36
218.306	35.67
218.524	41.81
218.742	29.52
218.96	90.96
219.179	-15.53
219.397	52.05
219.615	86.87
219.833	109.4
220.051	19.29
220.27	123.73
220.488	-1.19
220.706	43.86
220.924	37.72
221.142	25.43
221.36	47.96
221.578	78.68
221.796	56.15
222.015	90.96
222.233	7
222.451	60.24
222.669	33.62
222.887	109.4
223.105	95.06
223.323	27.48
223.541	7
223.759	74.58
223.977	41.81
224.195	62.29
224.413	31.57
224.631	90.96
224.849	25.43
225.067	62.29
225.285	56.15
225.503	82.77
225.721	25.43
225.939	23.38
226.157	45.91
226.375	136.02
226.592	64.34
226.81	111.44
227.028	70.48
227.246	54.1
227.464	-62.63
227.682	101.2
227.9	45.91
228.117	70.48
228.335	82.77
228.553	105.3
228.771	-9.39
228.989	72.53
229.206	70.48
229.424	84.82
229.642	7
229.86	-31.91
230.077	86.87
230.295	43.86
230.513	82.77
230.731	19.29
230.948	84.82
231.166	78.68
231.384	-52.39
231.601	15.19
231.819	35.67
232.037	43.86
232.254	62.29
232.472	27.48
232.689	41.81
232.907	105.3
233.125	37.72
233.342	31.57
233.56	-13.48
233.777	-7.34
233.995	50
234.213	90.96
234.43	-11.43
234.648	19.29
234.865	27.48
235.083	66.39
235.3	15.19
235.518	80.72
235.735	115.54
235.953	41.81
236.17	111.44
236.388	7
236.605	31.57
236.822	152.4
237.04	117.59
237.257	179.03
237.475	11.09
237.692	78.68
237.909	58.2
238.127	47.96
238.344	13.14
238.562	0.85
238.779	-17.58
238.996	-5.29
239.214	58.2
239.431	7
239.648	64.34
239.865	41.81
240.083	86.87
240.3	33.62
240.517	-19.63
240.735	52.05
240.952	148.31
241.169	86.87
241.386	23.38
241.603	76.63
241.821	-40.11
242.038	60.24
242.255	4.95
242.472	23.38
242.689	76.63
242.907	11.09
243.124	7
243.341	72.53
243.558	-3.24
243.775	52.05
243.992	7
244.209	78.68
244.426	101.2
244.643	25.43
244.86	54.1
245.078	25.43
245.295	136.02
245.512	56.15
245.729	43.86
245.946	111.44
246.163	52.05
246.38	47.96
246.597	7
246.814	31.57
247.031	84.82
247.248	0.85
247.464	62.29
247.681	95.06
247.898	111.44
248.115	86.87
248.332	-38.06
248.549	68.44
248.766	64.34
248.983	117.59
249.2	21.33
249.417	35.67
249.633	23.38
249.85	72.53
250.067	109.4
250.284	-17.58
250.501	60.24
250.717	99.16
250.934	70.48
251.151	115.54
251.368	37.72
251.585	52.05
251.801	93.01
252.018	27.48
252.235	74.58
252.451	17.24
252.668	29.52
252.885	170.83
253.102	86.87
253.318	107.35
253.535	105.3
253.752	11.09
253.968	70.48
254.185	90.96
254.401	58.2
254.618	43.86
254.835	13.14
255.051	111.44
255.268	47.96
255.484	17.24
255.701	43.86
255.917	68.44
256.134	15.19
256.351	35.67
256.567	43.86
256.784	50
257	23.38
257.217	31.57
257.433	39.76
257.65	-15.53
257.866	31.57
258.082	-52.39
258.299	50
258.515	101.2
258.732	-31.91
258.948	58.2
259.165	41.81
259.381	90.96
259.597	45.91
259.814	-25.77
260.03	-7.34
260.246	43.86
260.463	103.25
260.679	76.63
260.895	80.72
261.112	47.96
261.328	0.85
261.544	25.43
261.761	70.48
261.977	29.52
262.193	21.33
262.409	7
262.626	88.92
262.842	-40.11
263.058	39.76
263.274	33.62
263.49	60.24
263.707	41.81
263.923	11.09
264.139	-15.53
264.355	60.24
264.571	80.72
264.787	52.05
265.004	56.15
265.22	50
265.436	47.96
265.652	21.33
265.868	86.87
266.084	-7.34
266.3	93.01
266.516	60.24
266.732	41.81
266.948	-13.48
267.164	117.59
267.38	21.33
267.596	70.48
267.812	74.58
268.028	93.01
268.244	58.2
268.46	62.29
268.676	35.67
268.892	13.14
269.108	-38.06
269.324	27.48
269.54	58.2
269.756	76.63
269.972	19.29
270.188	64.34
270.403	56.15
270.619	11.09
270.835	33.62
271.051	21.33
271.267	41.81
271.483	72.53
271.698	7
271.914	29.52
272.13	52.05
272.346	9.05
272.562	88.92
272.777	117.59
272.993	54.1
273.209	52.05
273.425	37.72
273.64	54.1
273.856	70.48
274.072	31.57
274.287	54.1
274.503	-21.67
274.719	58.2
274.934	29.52
275.15	19.29
275.366	80.72
275.581	66.39
275.797	70.48
276.012	56.15
276.228	39.76
276.444	35.67
276.659	146.26
276.875	39.76
277.09	11.09
277.306	45.91
277.521	119.64
277.737	19.29
277.952	19.29
278.168	56.15
278.383	19.29
278.599	-3.24
278.814	15.19
279.03	21.33
279.245	80.72
279.461	70.48
279.676	56.15
279.892	37.72
280.107	43.86
280.322	58.2
280.538	-7.34
280.753	9.05
280.969	86.87
281.184	62.29
281.399	62.29
281.615	76.63
281.83	45.91
282.045	37.72
282.26	84.82
282.476	-9.39
282.691	154.45
282.906	35.67
283.122	72.53
283.337	84.82
283.552	82.77
283.767	-5.29
283.983	76.63
284.198	9.05
284.413	76.63
284.628	19.29
284.843	45.91
285.058	45.91
285.274	68.44
285.489	13.14
285.704	2.9
285.919	82.77
286.134	-36.01
286.349	50
286.564	11.09
286.779	47.96
286.995	119.64
287.21	7
287.425	74.58
287.64	25.43
287.855	27.48
288.07	0.85
288.285	95.06
288.5	66.39
288.715	60.24
288.93	-21.67
289.145	29.52
289.36	31.57
289.575	25.43
289.79	21.33
290.004	2.9
290.219	113.49
290.434	58.2
290.649	41.81
290.864	142.16
291.079	21.33
291.294	60.24
291.509	-3.24
291.724	76.63
291.938	33.62
292.153	64.34
292.368	23.38
292.583	50
292.798	52.05
293.012	68.44
293.227	70.48
293.442	33.62
293.657	123.73
293.871	129.88
294.086	15.19
294.301	140.12
294.516	50
294.73	56.15
294.945	37.72
295.16	50
295.374	99.16
295.589	88.92
295.804	88.92
296.018	27.48
296.233	74.58
296.447	39.76
296.662	45.91
296.877	111.44
297.091	64.34
297.306	50
297.52	43.86
297.735	11.09
297.949	66.39
298.164	64.34
298.378	60.24
298.593	45.91
298.807	78.68
299.022	33.62
299.236	74.58
299.451	84.82
299.665	127.83
299.88	66.39
300.094	72.53
300.309	121.68
300.523	-48.3
300.737	86.87
300.952	64.34
301.166	107.35
301.381	37.72
301.595	31.57
301.809	31.57
302.024	74.58
302.238	35.67
302.452	133.97
302.667	60.24
302.881	17.24
303.095	66.39
303.309	-1.19
303.524	11.09
303.738	72.53
303.952	29.52
304.166	109.4
304.381	41.81
304.595	127.83
304.809	-54.44
305.023	105.3
305.237	111.44
305.452	37.72
305.666	86.87
305.88	127.83
306.094	60.24
306.308	47.96
306.522	88.92
306.736	54.1
306.95	56.15
307.164	74.58
307.379	58.2
307.593	158.55
307.807	121.68
308.021	29.52
308.235	35.67
308.449	23.38
308.663	64.34
308.877	183.12
309.091	9.05
309.305	62.29
309.519	-31.91
309.733	95.06
309.947	60.24
310.161	41.81
310.374	95.06
310.588	41.81
310.802	37.72
311.016	66.39
311.23	13.14
311.444	93.01
311.658	78.68
311.872	68.44
312.085	64.34
312.299	60.24
312.513	121.68
312.727	78.68
312.941	13.14
313.154	50
313.368	35.67
313.582	54.1
313.796	76.63
314.009	97.11
314.223	72.53
314.437	37.72
314.651	103.25
314.864	72.53
315.078	17.24
315.292	-1.19
315.505	-11.43
315.719	101.2
315.933	82.77
316.146	37.72
316.36	50
316.573	11.09
316.787	62.29
317.001	56.15
317.214	43.86
317.428	58.2
317.641	27.48
317.855	74.58
318.068	160.59
318.282	52.05
318.495	129.88
318.709	162.64
318.922	82.77
319.136	99.16
319.349	29.52
319.563	9.05
319.776	123.73
319.99	60.24
320.203	93.01
320.417	54.1
320.63	152.4
320.843	136.02
321.057	52.05
321.27	56.15
321.483	62.29
321.697	105.3
321.91	19.29
322.124	90.96
322.337	23.38
322.55	52.05
322.763	-56.49
322.977	70.48
323.19	43.86
323.403	4.95
323.617	111.44
323.83	86.87
324.043	17.24
324.256	2.9
324.469	64.34
324.683	129.88
324.896	45.91
325.109	-21.67
325.322	9.05
325.535	47.96
325.748	123.73
325.962	54.1
326.175	50
326.388	179.03
326.601	43.86
326.814	25.43
327.027	152.4
327.24	90.96
327.453	76.63
327.666	78.68
327.879	35.67
328.092	86.87
328.305	84.82
328.518	50
328.731	25.43
328.944	113.49
329.157	15.19
329.37	95.06
329.583	146.26
329.796	107.35
330.009	60.24
330.222	39.76
330.435	99.16
330.648	138.07
330.861	80.72
331.073	64.34
331.286	58.2
331.499	117.59
331.712	-11.43
331.925	66.39
332.138	84.82
332.35	90.96
332.563	11.09
332.776	113.49
332.989	11.09
333.202	72.53
333.414	60.24
333.627	23.38
333.84	84.82
334.053	86.87
334.265	45.91
334.478	41.81
334.691	64.34
334.903	64.34
335.116	-9.39
335.329	0.85
335.541	50
335.754	154.45
335.966	19.29
336.179	60.24
336.392	93.01
336.604	115.54
336.817	78.68
337.029	154.45
337.242	41.81
337.454	86.87
337.667	11.09
337.88	119.64
338.092	76.63
338.305	129.88
338.517	37.72
338.729	76.63
338.942	43.86
339.154	-11.43
339.367	50
339.579	97.11
339.792	90.96
340.004	13.14
340.217	101.2
340.429	68.44
340.641	78.68
340.854	68.44
341.066	84.82
341.278	74.58
341.491	148.31
341.703	86.87
341.915	17.24
342.128	148.31
342.34	62.29
342.552	142.16
342.764	-21.67
342.977	80.72
343.189	19.29
343.401	86.87
343.613	7
343.826	-7.34
344.038	41.81
344.25	15.19
344.462	76.63
344.674	27.48
344.886	72.53
345.099	86.87
345.311	84.82
345.523	88.92
345.735	4.95
345.947	90.96
346.159	90.96
346.371	74.58
346.583	70.48
346.795	93.01
347.007	23.38
347.219	64.34
347.431	68.44
347.643	129.88
347.855	9.05
348.067	95.06
348.279	15.19
348.491	101.2
348.703	54.1
348.915	86.87
349.127	-31.91
349.339	109.4
349.551	41.81
349.763	129.88
349.975	86.87
350.187	111.44
350.399	74.58
350.61	111.44
350.822	29.52
351.034	82.77
351.246	115.54
351.458	127.83
351.669	90.96
351.881	129.88
352.093	103.25
352.305	86.87
352.517	54.1
352.728	52.05
352.94	76.63
353.152	86.87
353.363	-13.48
353.575	9.05
353.787	93.01
353.999	80.72
354.21	121.68
354.422	25.43
354.633	11.09
354.845	-7.34
355.057	29.52
355.268	56.15
355.48	125.78
355.692	74.58
355.903	66.39
356.115	70.48
356.326	-11.43
356.538	103.25
356.749	95.06
356.961	56.15
357.172	39.76
357.384	2.9
357.595	82.77
357.807	37.72
358.018	29.52
358.23	64.34
358.441	133.97
358.653	113.49
358.864	37.72
359.075	105.3
359.287	56.15
359.498	64.34
359.709	105.3
359.921	84.82
360.132	70.48
360.344	23.38
360.555	39.76
360.766	54.1
360.977	103.25
361.189	127.83
361.4	-1.19
361.611	144.21
361.823	56.15
362.034	93.01
362.245	-15.53
362.456	35.67
362.667	19.29
362.879	39.76
363.09	80.72
363.301	52.05
363.512	-29.87
363.723	45.91
363.935	19.29
364.146	41.81
364.357	60.24
364.568	21.33
364.779	-54.44
364.99	97.11
365.201	29.52
365.412	90.96
365.623	25.43
365.834	86.87
366.045	50
366.256	90.96
366.467	72.53
366.678	93.01
366.889	45.91
367.1	82.77
367.311	142.16
367.522	4.95
367.733	56.15
367.944	115.54
368.155	-1.19
368.366	97.11
368.577	107.35
368.788	121.68
368.999	90.96
369.209	121.68
369.42	144.21
369.631	131.92
369.842	105.3
370.053	35.67
370.264	103.25
370.474	117.59
370.685	-5.29
370.896	103.25
371.107	80.72
371.317	74.58
371.528	66.39
371.739	43.86
371.95	70.48
372.16	152.4
372.371	76.63
372.582	64.34
372.792	105.3
373.003	78.68
373.214	66.39
373.424	191.31
373.635	99.16
373.846	138.07
374.056	99.16
374.267	119.64
374.477	117.59
374.688	111.44
374.898	56.15
375.109	125.78
375.319	58.2
375.53	64.34
375.74	64.34
375.951	84.82
376.161	43.86
376.372	133.97
376.582	93.01
376.793	11.09
377.003	74.58
377.214	93.01
377.424	144.21
377.635	111.44
377.845	58.2
378.055	70.48
378.266	70.48
378.476	21.33
378.686	50
378.897	45.91
379.107	66.39
379.317	76.63
379.528	119.64
379.738	76.63
379.948	35.67
380.158	84.82
380.369	25.43
380.579	4.95
380.789	52.05
380.999	74.58
381.21	131.92
381.42	123.73
381.63	4.95
381.84	117.59
382.05	140.12
382.261	140.12
382.471	117.59
382.681	54.1
382.891	183.12
383.101	52.05
383.311	68.44
383.521	68.44
383.731	43.86
383.941	103.25
384.151	90.96
384.361	43.86
384.571	119.64
384.781	33.62
384.991	129.88
385.201	72.53
385.411	113.49
385.621	31.57
385.831	47.96
386.041	64.34
386.251	99.16
386.461	133.97
386.671	47.96
386.881	160.59
387.091	50
387.301	37.72
387.511	119.64
387.72	70.48
387.93	54.1
388.14	99.16
388.35	-13.48
388.56	125.78
388.769	107.35
388.979	52.05
389.189	136.02
389.399	154.45
389.609	127.83
389.818	148.31
390.028	33.62
390.238	47.96
390.447	136.02
390.657	129.88
390.867	187.22
391.076	35.67
391.286	39.76
391.496	90.96
391.705	43.86
391.915	111.44
392.125	148.31
392.334	129.88
392.544	88.92
392.753	115.54
392.963	113.49
393.172	47.96
393.382	4.95
393.591	113.49
393.801	41.81
394.01	-7.34
394.22	101.2
394.429	109.4
394.639	86.87
394.848	172.88
395.058	0.85
395.267	86.87
395.477	138.07
395.686	136.02
395.895	183.12
396.105	166.74
396.314	115.54
396.524	176.98
396.733	158.55
396.942	174.93
397.152	99.16
397.361	207.7
397.57	117.59
397.78	136.02
397.989	86.87
398.198	244.56
398.407	129.88
398.617	150.36
398.826	125.78
399.035	136.02
399.244	152.4
399.453	144.21
399.663	154.45
399.872	191.31
400.081	144.21
400.29	242.51
400.499	84.82
400.708	170.83
400.917	129.88
401.127	152.4
401.336	133.97
401.545	224.08
401.754	162.64
401.963	179.03
402.172	131.92
402.381	140.12
402.59	82.77
402.799	224.08
403.008	269.14
403.217	209.75
403.426	164.69
403.635	133.97
403.844	162.64
404.053	217.94
404.262	228.18
404.471	158.55
404.68	158.55
404.888	199.51
405.097	205.65
405.306	262.99
405.515	185.17
405.724	217.94
405.933	275.28
406.142	330.58
406.35	256.85
406.559	228.18
406.768	283.47
406.977	277.33
407.185	271.19
407.394	262.99
407.603	275.28
407.812	219.99
408.02	230.23
408.229	250.71
408.438	328.53
408.646	326.48
408.855	324.43
409.064	310.1
409.272	285.52
409.481	381.78
409.69	392.02
409.898	381.78
410.107	371.54
410.315	420.69
410.524	387.92
410.733	480.08
410.941	381.78
411.15	459.6
411.358	461.65
411.567	545.61
411.775	527.18
411.984	602.96
412.192	488.27
412.401	570.19
412.609	707.4
412.818	623.44
413.026	656.2
413.234	709.45
413.443	668.49
413.651	715.59
413.86	707.4
414.068	772.94
414.276	791.37
414.485	863.05
414.693	828.23
414.901	953.16
415.11	959.3
415.318	873.29
415.526	1024.84
415.734	1073.99
415.943	1067.85
416.151	1139.52
416.359	1049.41
416.567	1078.08
416.776	1198.92
416.984	1209.15
417.192	1274.69
417.4	1286.98
417.608	1342.27
417.817	1356.61
418.025	1381.18
418.233	1491.77
418.441	1504.06
418.649	1477.44
418.857	1663.8
419.065	1635.13
419.273	1700.67
419.481	1678.14
419.689	1764.15
419.897	1821.5
420.105	1887.03
420.313	1997.62
420.521	2116.41
420.729	2048.82
420.937	2224.95
421.145	2276.15
421.353	2212.66
421.561	2360.11
421.769	2550.57
421.977	2591.53
422.185	2552.62
422.393	2773.8
422.601	2837.29
422.809	3023.66
423.017	2792.23
423.224	3013.42
423.432	3148.58
423.64	3136.29
423.848	3474.21
424.056	3386.15
424.263	3586.85
424.471	3580.7
424.679	3746.59
424.887	3724.06
425.094	3957.53
425.302	3963.67
425.51	4305.68
425.718	4367.12
425.925	4332.31
426.133	4453.14
426.341	4690.7
426.548	5045
426.756	5022.47
426.964	5020.42
427.171	5356.29
427.379	5532.42
427.586	5403.39
427.794	5786.37
428.001	5946.11
428.209	6181.62
428.417	6263.54
428.624	6634.22
428.832	6707.95
429.039	6523.63
429.247	6787.82
429.454	7150.31
429.662	7619.3
429.869	7260.9
430.076	7738.08
430.284	7426.79
430.491	7901.92
430.699	8243.93
430.906	8235.74
431.114	8393.43
431.321	8807.12
431.528	8934.09
431.736	9183.95
431.943	9855.68
432.15	9409.22
432.358	9704.13
432.565	10025.66
432.772	10048.19
432.979	10830.51
433.187	10834.61
433.394	10721.97
433.601	11571.88
433.808	11645.6
434.016	11637.41
434.223	12233.37
434.43	12925.58
434.637	12323.48
434.844	13154.96
435.052	13535.88
435.259	13650.57
435.466	13720.2
435.673	13570.69
435.88	14277.24
436.087	15270.51
436.294	15383.15
436.501	14711.41
436.708	15121.01
436.915	15688.29
437.122	16259.68
437.329	16351.84
437.537	16820.82
437.743	17226.32
437.95	16906.84
438.157	17914.44
438.364	18301.5
438.571	18307.65
438.778	18479.68
438.985	20212.26
439.192	19313.2
439.399	19886.63
439.606	19505.71
439.813	20800.02
440.02	21977.61
440.227	21570.06
440.433	21103.12
440.64	22073.86
440.847	21600.78
441.054	22151.68
441.261	23755.24
441.467	23548.4
441.674	23826.92
441.881	24998.36
442.088	24883.67
442.294	24689.12
442.501	25348.56
442.708	25762.25
442.914	26571.2
443.121	27867.56
443.328	27255.22
443.534	29112.73
443.741	28289.45
443.948	27847.08
444.154	29778.32
444.361	29837.71
444.568	30073.23
444.774	30114.19
444.981	30548.36
445.187	31252.86
445.394	32375.14
445.6	32438.63
445.807	35055.93
446.013	33483.09
446.22	34365.77
446.426	35701.04
446.633	35574.07
446.839	37026.08
447.046	35707.19
447.252	37859.6
447.459	37814.55
447.665	37486.87
447.871	39258.37
448.078	41134.31
448.284	38983.94
448.491	40005.87
448.697	41414.88
448.903	42260.69
449.11	42135.76
449.316	41683.16
449.522	42358.99
449.728	43391.17
449.935	43565.24
450.141	43688.12
450.347	44228.79
450.553	43505.85
450.76	44132.53
450.966	45179.04
451.172	45099.17
451.378	46420.11
451.584	45082.79
451.791	46184.6
451.997	45936.79
452.203	46835.85
452.409	46979.21
452.615	46825.61
452.821	45138.08
453.027	44515.5
453.233	47212.68
453.44	45680.8
453.646	45727.9
453.852	45996.18
454.058	46985.35
454.264	45285.54
454.47	46387.35
454.676	45164.71
454.882	46704.78
455.088	42592.46
455.294	43346.11
455.5	44032.18
455.705	44521.65
455.911	42397.9
456.117	41973.97
456.323	41146.59
456.529	39381.24
456.735	41107.68
456.941	39723.26
457.147	39379.2
457.352	37875.99
457.558	37794.07
457.764	38021.39
457.97	36876.58
458.176	36100.4
458.381	36616.49
458.587	34396.49
458.793	34761.03
458.999	32688.48
459.204	35113.28
459.41	34083.15
459.616	32043.37
459.821	31826.29
460.027	31574.39
460.233	31248.76
460.438	29559.19
460.644	30054.79
460.85	28406.18
461.055	28015.02
461.261	27918.76
461.466	26032.58
461.672	25311.7
461.878	26806.72
462.083	25229.78
462.289	24707.55
462.494	24603.1
462.7	23437.81
462.905	22684.16
463.111	23214.58
463.316	23583.21
463.522	23355.89
463.727	22936.06
463.932	22766.07
464.138	23050.74
464.343	22985.21
464.549	22096.39
464.754	22960.63
464.959	22893.05
465.165	22534.65
465.37	21862.92
465.575	21223.95
465.781	22110.72
465.986	22100.48
466.191	21434.89
466.397	20900.37
466.602	19847.72
466.807	20640.28
467.012	20703.77
467.218	20521.5
467.423	20175.39
467.628	20345.37
467.833	21400.08
468.038	20408.86
468.244	19997.22
468.449	20951.57
468.654	20007.46
468.859	19954.21
469.064	19876.39
469.269	18989.62
469.474	19110.45
469.679	19466.8
469.885	18942.52
470.09	19184.18
470.295	18936.37
470.5	18672.18
470.705	18627.13
470.91	18502.2
471.115	18055.75
471.32	18418.24
471.525	18358.85
471.73	17758.79
471.935	18123.33
472.139	17195.6
472.344	17576.52
472.549	17357.39
472.754	17007.19
472.959	16601.69
473.164	16274.01
473.369	15977.06
473.574	16869.97
473.778	16417.37
473.983	16663.13
474.188	16374.36
474.393	15751.78
474.598	15762.02
474.802	15538.79
475.007	15432.3
475.212	15805.03
475.417	15112.81
475.621	14959.22
475.826	15104.62
476.031	14887.54
476.235	14295.68
476.44	14543.48
476.645	14561.91
476.849	14348.92
477.054	14338.68
477.259	13976.19
477.463	13914.75
477.668	13505.16
477.872	13662.85
478.077	13658.76
478.282	13304.46
478.486	13224.59
478.691	13142.67
478.895	13066.89
479.1	12987.02
479.304	13013.65
479.509	12569.24
479.713	12970.64
479.918	12565.14
480.122	12401.3
480.326	12397.21
480.531	12477.08
480.735	12421.78
480.94	12315.29
481.144	12565.14
481.348	12094.11
481.553	12139.16
481.757	11895.46
481.961	12126.88
482.166	12415.64
482.37	12090.01
482.574	11897.5
482.778	11952.8
482.983	12151.45
483.187	12137.12
483.391	12495.51
483.595	12229.27
483.8	11963.04
484.004	12044.96
484.208	11903.65
484.412	11985.57
484.616	11952.8
484.821	11883.17
485.025	11801.25
485.229	11895.46
485.433	11860.64
485.637	11952.8
485.841	12004
486.045	12014.24
486.249	11848.35
486.453	11901.6
486.657	12108.44
486.861	12036.77
487.065	11553.45
487.269	11944.61
487.473	11698.85
487.677	12202.65
487.881	12067.49
488.085	11944.61
488.289	12090.01
488.493	12026.53
488.697	12030.62
488.901	12051.1
489.105	11731.62
489.309	12190.36
489.512	12143.26
489.716	12268.19
489.92	12028.57
490.124	12110.49
490.328	12442.26
490.531	12079.77
490.735	12264.09
490.939	12386.97
491.143	12300.95
491.346	12315.29
491.55	12405.4
491.754	12401.3
491.958	12718.74
492.161	12587.67
492.365	12446.36
492.569	12360.34
492.772	12602.01
492.976	12667.54
493.18	12651.16
493.383	12771.99
493.587	12970.64
493.79	12939.92
493.994	13007.5
494.197	13048.46
494.401	13075.09
494.605	13089.42
494.808	13367.95
495.012	13472.39
495.215	13535.88
495.419	13597.32
495.622	13689.48
495.825	13703.81
496.029	13728.39
496.232	14039.68
496.436	13961.86
496.639	14224
496.843	14402.17
497.046	14611.06
497.249	14856.82
497.453	14787.19
497.656	14977.65
497.859	15143.53
498.063	15231.6
498.266	15305.32
498.469	15389.29
498.673	15460.97
498.876	15596.14
499.079	15858.28
499.282	15753.83
499.485	16204.38
499.689	16188
499.892	16616.02
500.095	16808.53
500.298	16845.4
500.501	16714.33
500.705	17015.38
500.908	17300.05
501.111	17609.29
501.314	17758.79
501.517	17822.28
501.72	18442.81
501.923	17723.97
502.126	18647.61
502.329	18631.23
502.532	18688.57
502.735	18971.19
502.938	19366.45
503.141	19298.86
503.344	19747.37
503.547	19796.52
503.75	19948.07
503.953	20482.59
504.156	20720.15
504.359	20455.97
504.562	20679.19
504.765	21162.51
504.968	21502.48
505.17	21709.32
505.373	21670.41
505.576	21930.5
505.779	22166.02
505.982	22497.79
506.185	22829.56
506.387	22741.5
506.59	22970.87
506.793	23261.68
506.996	23263.73
507.198	24101.35
507.401	23896.55
507.604	24238.56
507.807	24717.79
508.009	24650.21
508.212	24941.02
508.415	25047.51
508.617	25403.86
508.82	25405.91
509.022	25565.65
509.225	26057.16
509.428	26180.04
509.63	26569.15
509.833	26534.34
510.035	27574.7
510.238	27287.99
510.44	27468.21
510.643	27779.5
510.845	27730.35
511.048	27972.01
511.25	28371.36
511.453	28619.17
511.655	29952.4
511.858	29587.86
512.06	29313.43
512.262	29774.22
512.465	29559.19
512.667	30157.19
512.87	30409.09
513.072	30237.06
513.274	31242.62
513.477	31404.41
513.679	31805.81
513.881	31744.37
514.084	31842.67
514.286	32184.68
514.488	32409.96
514.69	33339.74
514.893	33268.06
515.095	33368.41
515.297	33730.9
515.499	34066.77
515.701	34117.96
515.904	34408.78
516.106	34494.79
516.308	34931.01
516.51	35160.38
516.712	35201.34
516.914	35301.69
517.116	36073.77
517.318	36268.33
517.52	36475.18
517.722	37079.33
517.925	37136.67
518.127	37173.53
518.329	37482.78
518.531	37509.4
518.733	38433.03
518.935	38496.52
519.136	38469.9
519.338	38799.62
519.54	39176.45
519.742	39321.85
519.944	39481.59
520.146	40464.62
520.348	40304.88
520.55	40055.03
520.752	40452.33
520.954	41330.91
521.155	40741.1
521.357	41509.08
521.559	41677.02
521.761	42174.67
521.963	41943.25
522.164	42152.15
522.366	42584.27
522.568	42866.89
522.77	42909.89
522.971	43983.03
523.173	43018.44
523.375	43354.3
523.576	43657.4
523.778	43655.36
523.98	44277.94
524.181	44023.99
524.383	44363.95
524.584	45179.04
524.786	44630.19
524.988	44624.04
525.189	45273.25
525.391	45760.67
525.592	45555.87
525.794	45983.9
525.995	45764.76
526.197	46043.29
526.398	45668.51
526.6	46450.83
526.801	46504.08
527.003	46440.59
527.204	46514.32
527.406	47014.02
527.607	46563.47
527.808	47169.67
528.01	46409.87
528.211	47145.09
528.412	47775.87
528.614	48064.63
528.815	47544.45
529.016	47988.86
529.218	47167.62
529.419	47802.49
529.62	47456.39
529.822	47548.54
530.023	47767.68
530.224	47831.16
530.425	48169.08
530.626	47716.48
530.828	47825.02
531.029	48939.11
531.23	47806.59
531.431	47743.1
531.632	48195.7
531.833	48562.29
532.035	48302.2
532.236	48523.38
532.437	48828.52
532.638	48177.27
532.839	48619.63
533.04	48349.3
533.241	48177.27
533.442	48912.49
533.643	48461.94
533.844	48486.51
534.045	48347.25
534.246	48171.13
534.447	48740.46
534.648	48289.91
534.849	48550
535.05	48332.92
535.251	48320.63
535.451	48357.49
535.652	48662.64
535.853	48431.22
536.054	48857.2
536.255	48629.87
536.456	48656.49
536.657	48668.78
536.857	48154.74
537.058	48031.86
537.259	48533.62
537.46	48408.69
537.66	47900.79
537.861	48375.92
538.062	47870.07
538.263	48580.72
538.463	48384.12
538.664	48472.18
538.865	48304.24
539.065	48812.14
539.266	47902.84
539.466	48871.53
539.667	48001.14
539.868	48885.87
540.068	48234.61
540.269	48277.62
540.469	48531.57
540.67	48334.96
540.87	48203.89
541.071	48244.85
541.271	48476.27
541.472	48349.3
541.672	48066.68
541.873	48029.82
542.073	47300.74
542.274	48490.61
542.474	47937.66
542.675	47769.72
542.875	48437.36
543.075	47990.91
543.276	47607.93
543.476	47794.3
543.676	47804.54
543.877	48081.02
544.077	47814.78
544.277	48113.78
544.478	47974.52
544.678	48097.4
544.878	47515.78
545.078	47831.16
545.279	47423.62
545.479	47566.98
545.679	47839.36
545.879	47876.22
546.079	47384.71
546.28	47650.94
546.48	47464.58
546.68	47775.87
546.88	48042.1
547.08	47962.23
547.28	47485.06
547.48	47081.61
547.68	47583.36
547.88	47317.12
548.081	47620.22
548.281	47278.21
548.481	47302.79
548.681	47784.06
548.881	47526.02
549.081	47646.85
549.28	47216.77
549.48	47521.92
549.68	47022.22
549.88	47894.65
550.08	47018.12
550.28	47753.34
550.48	47233.16
550.68	47483.01
550.88	46870.67
551.08	47208.58
551.279	47130.76
551.479	47065.22
551.679	47444.1
551.879	46928.01
552.079	47743.1
552.278	47112.33
552.478	47265.92
552.678	46854.28
552.878	47245.44
553.077	46704.78
553.277	46692.49
553.477	47589.5
553.676	46741.64
553.876	46903.43
554.076	46581.9
554.275	46674.06
554.475	46284.95
554.674	47126.66
554.874	46880.91
555.074	46577.81
555.273	46370.96
555.473	46876.81
555.672	46268.56
555.872	46639.25
556.071	46659.73
556.271	46727.31
556.47	46489.74
556.67	46186.64
556.869	46102.68
557.068	46495.89
557.268	46057.62
557.467	46303.38
557.667	46583.95
557.866	46569.61
558.065	46428.3
558.265	45901.98
558.464	46178.45
558.663	46538.9
558.863	45828.25
559.062	46364.82
559.261	45693.08
559.461	46389.39
559.66	45701.28
559.859	45869.21
560.058	45435.04
560.258	45967.51
560.457	45695.13
560.656	46362.77
560.855	45723.8
561.054	45865.11
561.253	44931.24
561.453	45500.58
561.652	45502.62
561.851	45471.9
562.05	45140.13
562.249	45248.67
562.448	45602.97
562.647	45228.2
562.846	45088.93
563.045	45355.17
563.244	44499.12
563.443	45222.05
563.642	44898.47
563.841	44968.1
564.04	44626.09
564.239	45322.4
564.438	44781.74
564.637	44497.07
564.836	44581.04
565.035	44161.2
565.234	44503.21
565.432	44325.04
565.631	44034.23
565.83	44361.9
566.029	43903.16
566.228	44265.65
566.427	43942.07
566.625	43878.58
566.824	43468.99
567.023	44040.37
567.222	43698.36
567.42	44105.91
567.619	43608.25
567.818	43698.36
568.016	43821.24
568.215	43710.65
568.414	43110.6
568.612	43841.72
568.811	43305.15
569.01	43544.76
569.208	43055.3
569.407	43038.92
569.605	42819.78
569.804	43241.67
570.002	42639.56
570.201	43030.72
570.4	42694.86
570.598	42819.78
570.797	42993.86
570.995	42725.58
571.193	42090.71
571.392	42549.45
571.59	42338.51
571.789	42430.67
571.987	42141.91
572.186	41787.61
572.384	42004.69
572.582	42033.36
572.781	42254.54
572.979	41427.17
573.177	42062.04
573.376	41642.2
573.574	41199.84
573.772	41953.49
573.971	41873.62
574.169	41144.55
574.367	41154.79
574.565	41449.69
574.763	41314.53
574.962	41326.81
575.16	40911.08
575.358	40814.82
575.556	40444.14
575.754	41146.59
575.952	40511.72
576.151	40888.55
576.349	40083.7
576.547	40304.88
576.745	40628.46
576.943	40159.47
577.141	40470.76
577.339	40171.76
577.537	40177.9
577.735	39835.89
577.933	39665.91
578.131	40102.13
578.329	39850.23
578.527	39579.9
578.725	39569.66
578.923	39762.17
579.121	39321.85
579.319	39041.28
579.516	39207.17
579.714	39307.52
579.912	39172.35
580.11	39004.42
580.308	39119.1
580.506	38887.68
580.704	38392.08
580.901	39006.47
581.099	38985.99
581.297	38519.05
581.495	38453.51
581.692	39020.8
581.89	38119.7
582.088	38750.47
582.285	38416.65
582.483	38166.8
582.681	38189.33
582.878	38127.89
583.076	38023.44
583.274	38052.11
583.471	37130.53
583.669	37669.14
583.866	37263.64
584.064	37925.14
584.262	36770.08
584.459	37341.47
584.657	37597.46
584.854	37415.19
585.052	36393.26
585.249	37073.18
585.447	36950.31
585.644	36251.95
585.841	36954.4
586.039	37118.24
586.236	36342.06
586.434	36438.31
586.631	36383.02
586.828	36204.84
587.026	36260.14
587.223	36217.13
587.42	36051.25
587.618	36036.91
587.815	35574.07
588.012	35535.16
588.21	35547.45
588.407	36186.41
588.604	35600.69
588.801	34951.49
588.999	35342.65
589.196	35236.16
589.393	34982.21
589.59	34959.68
589.787	34718.02
589.984	34685.25
590.182	34593.09
590.379	34793.79
590.576	34439.5
590.773	34591.05
590.97	34185.55
591.167	34449.74
591.364	34040.14
591.561	33997.13
591.758	33591.64
591.955	33519.96
592.152	34283.85
592.349	33597.78
592.546	33796.43
592.743	33667.41
592.94	33433.94
593.137	33565.01
593.334	33339.74
593.531	32899.42
593.727	32940.38
593.924	33214.81
594.121	32995.68
594.318	33257.82
594.515	32364.9
594.712	33128.8
594.908	32133.48
595.105	32541.03
595.302	32055.66
595.499	32418.15
595.696	32086.38
595.892	31830.38
596.089	31930.73
596.286	32166.25
596.482	31752.56
596.679	31865.2
596.876	31523.19
597.072	31594.87
597.269	31752.56
597.466	31279.48
597.662	31291.77
597.859	31357.3
598.055	31201.66
598.252	31109.5
598.448	31035.77
598.645	30808.45
598.841	30833.02
599.038	30755.2
599.234	30566.79
599.431	30245.26
599.627	30435.72
599.824	30396.81
600.02	30128.52
600.217	30450.05
600.413	29999.5
600.609	29884.81
600.806	29964.68
601.002	30159.24
601.198	29698.45
601.395	29491.6
601.591	29360.53
601.787	29788.56
601.984	29727.12
602.18	29757.84
602.376	29092.25
602.572	29084.06
602.769	28866.97
602.965	28864.92
603.161	29170.07
603.357	29024.67
603.553	28559.78
603.75	28621.22
603.946	28170.66
604.142	28703.14
604.338	28311.97
604.534	28281.25
604.73	28029.35
604.926	28205.48
605.122	28275.11
605.318	28232.1
605.514	27816.36
605.71	28156.33
605.906	27621.81
606.102	27740.59
606.298	27388.34
606.494	27881.9
606.69	27914.67
606.886	27400.63
607.082	27126.2
607.278	27500.98
607.474	27150.78
607.67	27414.96
607.866	26970.55
608.062	27109.82
608.257	27011.51
608.453	27017.66
608.649	27193.78
608.845	26593.73
609.041	26765.76
609.236	26905.02
609.432	26874.3
609.628	26485.19
609.824	26784.19
610.019	26192.33
610.215	26339.78
610.411	26577.34
610.606	26208.71
610.802	26405.31
610.998	26245.57
611.193	26378.69
611.389	26241.48
611.584	26044.87
611.78	26005.96
611.976	25934.28
612.171	26202.57
612.367	25901.51
612.562	26028.49
612.758	25647.57
612.953	25975.24
613.149	25807.31
613.344	25536.98
613.539	26188.23
613.735	25635.28
613.93	25616.85
614.126	25573.84
614.321	25895.37
614.517	25440.72
614.712	25369.04
614.907	25326.03
615.103	25432.53
615.298	25158.1
615.493	25641.42
615.688	25033.18
615.884	25622.99
616.079	24859.1
616.274	25283.03
616.47	24867.29
616.665	25022.94
616.86	24879.58
617.055	25194.96
617.25	24885.72
617.445	24666.59
617.641	24525.28
617.836	24973.78
618.031	24183.27
618.226	24631.77
618.421	24410.59
618.616	24588.77
618.811	24181.22
619.006	24240.61
619.201	23738.86
619.396	24091.11
619.591	23489.01
619.786	24234.47
619.981	23333.36
620.176	23505.39
620.371	23462.38
620.566	23400.94
620.761	23263.73
620.956	23314.93
621.151	22989.3
621.346	22934.01
621.541	22870.52
621.735	23132.66
621.93	22839.8
622.125	22737.4
622.32	22206.98
622.515	22571.52
622.709	22008.33
622.904	21924.36
623.099	22338.05
623.294	22039.05
623.488	21623.31
623.683	21924.36
623.878	21637.64
624.072	21740.04
624.267	21611.02
624.462	21262.86
624.656	20859.42
624.851	21117.46
625.046	20879.89
625.24	20910.61
625.435	20781.59
625.629	20783.64
625.824	20523.55
626.018	20703.77
626.213	20132.39
626.407	20367.9
626.602	19796.52
626.796	20042.28
626.991	20007.46
627.185	20208.16
627.38	19933.73
627.574	19458.6
627.768	19681.83
627.963	19026.48
628.157	19360.3
628.352	19610.15
628.546	19085.87
628.74	19122.74
628.935	18731.58
629.129	19032.63
629.323	18721.34
629.517	18655.8
629.712	18682.42
629.906	18541.11
630.1	18317.89
630.294	18463.29
630.489	18190.91
630.683	18395.71
630.877	17926.72
631.071	17996.35
631.265	17994.31
631.459	17746.5
631.653	17654.34
631.848	17728.07
632.042	17404.49
632.236	17207.89
632.43	17406.54
632.624	17300.05
632.818	16929.36
633.012	16820.82
633.206	16771.67
633.4	17048.15
633.594	16745.05
633.788	16740.95
633.982	16597.59
634.176	16536.15
634.369	16530.01
634.563	16499.29
634.757	16253.53
634.951	16153.18
635.145	15862.37
635.339	16329.31
635.533	15905.38
635.726	15964.77
635.92	15848.04
636.114	15827.56
636.308	15741.54
636.501	15770.21
636.695	15628.9
636.889	15329.9
637.083	15164.01
637.276	15049.33
637.47	15157.87
637.664	14994.03
637.857	14774.9
638.051	14979.7
638.244	14828.15
638.438	14961.27
638.632	14639.73
638.825	14484.09
639.019	14510.71
639.212	14576.25
639.406	14303.87
639.599	14396.03
639.793	14568.06
639.986	14191.23
640.18	14172.8
640.373	14170.75
640.567	13806.21
640.76	13900.42
640.954	13853.31
641.147	13757.06
641.34	13728.39
641.534	13767.3
641.727	13791.87
641.92	13427.34
642.114	13560.45
642.307	13539.97
642.5	13267.59
642.694	13097.61
642.887	12851.86
643.08	13159.05
643.273	13175.44
643.467	12878.48
643.66	12898.96
643.853	12829.33
644.046	12745.36
644.239	12679.83
644.432	12311.19
644.626	12536.47
644.819	12507.8
645.012	12610.2
645.205	12384.92
645.398	12327.58
645.591	12335.77
645.784	12216.99
645.977	12202.65
646.17	12202.65
646.363	11793.06
646.556	11729.57
646.749	12124.83
646.942	11897.5
647.135	11807.39
647.328	11567.78
647.521	11588.26
647.714	11426.47
647.907	11360.94
648.099	11498.15
648.292	11360.94
648.485	11313.83
648.678	11262.63
648.871	11207.34
649.064	11188.91
649.256	11319.98
649.449	10943.15
649.642	11121.32
649.835	10693.3
650.027	10861.23
650.22	10844.85
650.413	10795.7
650.605	10871.47
650.798	10609.33
650.991	10463.93
651.183	10508.98
651.376	10277.56
651.568	10367.67
651.761	10351.29
651.954	10496.69
652.146	10265.27
652.339	10070.72
652.531	10160.83
652.724	10007.23
652.916	10128.06
653.109	9956.03
653.301	9726.66
653.494	10042.04
653.686	9878.21
653.879	9837.25
654.071	9708.23
654.263	9767.62
654.456	9677.51
654.648	9767.62
654.84	9503.43
655.033	9757.38
655.225	9474.76
655.417	9341.64
655.61	9419.46
655.802	9403.08
655.994	9190.09
656.186	9286.34
656.379	9181.9
656.571	9038.54
656.763	9216.71
656.955	9104.07
657.148	9245.38
657.34	8966.86
657.532	9005.77
657.724	8884.94
657.916	8850.13
658.108	8739.54
658.3	8776.4
658.492	8641.23
658.684	8458.96
658.876	8671.95
659.068	8297.17
659.26	8504.02
659.452	8266.46
659.644	8456.92
659.836	8411.86
660.028	8516.31
660.22	8094.43
660.412	8344.28
660.604	8217.3
660.796	8162.01
660.988	8340.18
661.18	8172.25
661.372	7877.34
661.563	8168.15
661.755	8069.85
661.947	7846.62
662.139	7901.92
662.331	7836.38
662.522	7879.39
662.714	7793.37
662.906	7680.74
663.097	7602.91
663.289	7584.48
663.481	7647.97
663.673	7531.23
663.864	7445.22
664.056	7609.06
664.247	7416.55
664.439	7424.74
664.631	7480.04
664.822	7447.27
665.014	7383.78
665.205	7367.4
665.397	7248.61
665.588	7152.36
665.78	7316.2
665.971	7138.02
666.163	7107.3
666.354	7127.78
666.546	7070.44
666.737	7006.95
666.929	7056.11
667.12	6914.8
667.311	6949.61
667.503	6853.36
667.694	6896.36
667.885	6697.71
668.077	6757.1
668.268	6900.46
668.459	6671.09
668.651	6644.46
668.842	6695.66
669.033	6517.49
669.224	6693.62
669.416	6677.23
669.607	6517.49
669.798	6413.04
669.989	6599.41
670.18	6441.72
670.371	6404.85
670.563	6431.48
670.754	6460.15
670.945	6329.08
671.136	6238.97
671.327	6353.65
671.518	6267.64
671.709	6167.29
671.9	6454
672.091	6247.16
672.282	6249.21
672.473	6105.85
672.664	6089.46
672.855	6083.32
673.046	6083.32
673.237	6202.1
673.428	5892.86
673.619	5933.82
673.809	5978.87
674	6042.36
674.191	6079.22
674.382	5823.23
674.573	5909.24
674.764	5878.52
674.954	5942.01
675.145	5847.8
675.336	5675.77
675.527	5939.96
675.717	5874.43
675.908	5632.77
676.099	5810.94
676.289	5735.17
676.48	5657.34
676.671	5567.23
676.861	5620.48
677.052	5628.67
677.243	5581.57
677.433	5505.79
677.624	5767.93
677.814	5409.54
678.005	5534.46
678.195	5614.34
678.386	5544.7
678.576	5450.5
678.767	5544.7
678.957	5626.62
679.148	5489.41
679.338	5333.76
679.529	5427.97
679.719	5255.94
679.909	5470.98
680.1	5413.63
680.29	5161.73
680.481	5272.32
680.671	5262.09
680.861	5321.48
681.052	5255.94
681.242	5065.48
681.432	5276.42
681.622	5088.01
681.813	5131.02
682.003	5262.09
682.193	5124.87
682.383	5286.66
682.573	5137.16
682.764	5223.17
682.954	5047.05
683.144	5077.77
683.334	5065.48
683.524	4954.89
683.714	5098.25
683.904	4911.88
684.094	5096.2
684.284	4981.51
684.474	5069.58
684.664	4999.95
684.854	5053.19
685.044	4981.51
685.234	4913.93
685.424	5036.81
685.614	4864.78
685.804	4694.8
685.994	4879.11
686.184	4852.49
686.374	4819.72
686.564	4850.44
686.753	4715.28
686.943	4688.65
687.133	4702.99
687.323	4649.74
687.513	4760.33
687.702	4674.32
687.892	4496.14
688.082	4602.64
688.272	4582.16
688.461	4612.88
688.651	4539.15
688.841	4487.95
689.03	4608.78
689.22	4498.19
689.41	4440.85
689.599	4463.38
689.789	4401.94
689.979	4336.4
690.168	4360.98
690.358	4215.57
690.547	4377.36
690.737	4283.16
690.926	4295.44
691.116	4291.35
691.305	4207.38
691.495	4266.77
691.684	4205.33
691.874	4225.81
692.063	4293.4
692.252	4029.21
692.442	4162.33
692.631	4033.3
692.82	3965.72
693.01	3951.39
693.199	3910.43
693.388	3930.91
693.578	3906.33
693.767	3918.62
693.956	3801.88
694.146	3894.04
694.335	3758.88
694.524	3812.12
694.713	3810.08
694.902	3857.18
695.092	3805.98
695.281	3722.01
695.47	3726.11
695.659	3734.3
695.848	3822.36
696.037	3617.57
696.226	3699.48
696.415	3615.52
696.604	3754.78
696.793	3584.8
696.982	3601.18
697.171	3435.3
697.36	3691.29
697.549	3461.92
697.738	3502.88
697.927	3580.7
698.116	3443.49
698.305	3592.99
698.494	3404.58
698.683	3400.48
698.872	3423.01
699.061	3431.2
699.25	3423.01
699.438	3380
699.627	3425.06
699.816	3429.15
700.005	3355.43
700.193	3248.93
700.382	3353.38
700.571	3457.82
700.76	3396.39
700.948	3418.91
701.137	3353.38
701.326	3402.53
701.514	3207.97
701.703	3353.38
701.892	3300.13
702.08	3326.75
702.269	3255.08
702.457	3144.49
702.646	3146.53
702.834	3113.77
703.023	3093.29
703.212	3187.49
703.4	3228.45
703.589	3091.24
703.777	3220.26
703.965	3040.04
704.154	3150.63
704.342	3187.49
704.531	3093.29
704.719	3101.48
704.907	3181.35
705.096	2978.6
705.284	3126.05
705.472	3148.58
705.661	3003.18
705.849	3074.85
706.037	3033.9
706.226	2960.17
706.414	3013.42
706.602	3033.9
706.79	2919.21
706.979	3027.75
707.167	3107.62
707.355	3117.86
707.543	3040.04
707.731	3105.57
707.919	3050.28
708.107	2923.3
708.296	3064.61
708.484	2898.73
708.672	2911.02
708.86	2857.77
709.048	3019.56
709.236	2865.96
709.424	2935.59
709.612	2933.54
709.8	2896.68
709.988	2839.34
710.176	2925.35
710.364	3009.32
710.551	3003.18
710.739	2865.96
710.927	2902.83
711.115	2904.87
711.303	2878.25
711.491	2927.4
711.679	2767.66
711.866	2902.83
712.054	2800.43
712.242	2857.77
712.43	2884.39
712.617	2859.82
712.805	2929.45
712.993	2951.98
713.181	2841.39
713.368	2906.92
713.556	2911.02
713.744	2820.91
713.931	2923.3
714.119	2861.87
714.306	2921.26
714.494	2820.91
714.682	2798.38
714.869	2818.86
715.057	2822.95
715.244	2726.7
715.432	2827.05
715.619	2730.8
715.807	2890.54
715.994	2837.29
716.182	2861.87
716.369	2888.49
716.556	2722.6
716.744	2749.23
716.931	2622.25
717.119	2804.52
717.306	2888.49
717.493	2806.57
717.681	2792.23
717.868	2786.09
718.055	2741.04
718.242	2722.6
718.43	2818.86
718.617	2818.86
718.804	2769.71
718.991	2710.32
719.179	2814.76
719.366	2798.38
719.553	2761.52
719.74	2763.56
719.927	2773.8
720.114	2743.08
720.301	2698.03
720.488	2689.84
720.676	2736.94
720.863	2788.14
721.05	2773.8
721.237	2767.66
721.424	2841.39
721.611	2816.81
721.798	2609.97
721.985	2685.74
722.172	2710.32
722.358	2812.71
722.545	2831.15
722.732	2693.93
722.919	2845.48
723.106	2775.85
723.293	2781.99
723.48	2845.48
723.667	2736.94
723.853	2798.38
724.04	2767.66
724.227	2810.67
724.414	2794.28
724.6	2716.46
724.787	2904.87
724.974	2759.47
725.161	2829.1
725.347	2741.04
725.534	2761.52
725.72	2769.71
725.907	2769.71
726.094	2849.58
726.28	2859.82
726.467	2878.25
726.653	2767.66
726.84	2853.67
727.027	2814.76
727.213	2802.47
727.4	2771.76
727.586	2790.19
727.773	2859.82
727.959	2755.37
728.145	2853.67
728.332	2634.54
728.518	2837.29
728.705	2784.04
728.891	2706.22
729.077	2861.87
729.264	2927.4
729.45	2810.67
729.636	2962.22
729.823	2831.15
730.009	2859.82
730.195	2781.99
730.382	2933.54
730.568	2822.95
730.754	2863.91
730.94	2915.11
731.126	2814.76
731.313	2958.12
731.499	2935.59
731.685	2954.02
731.871	2837.29
732.057	2831.15
732.243	2851.63
732.429	2868.01
732.615	2951.98
732.801	2931.5
732.987	3005.22
733.173	2794.28
733.359	2941.74
733.545	2880.3
733.731	2870.06
733.917	2841.39
734.103	2890.54
734.289	2906.92
734.475	2929.45
734.661	3021.61
734.847	2941.74
735.033	3021.61
735.219	3005.22
735.404	2915.11
735.59	2745.13
735.776	2949.93
735.962	2956.07
736.148	2956.07
736.333	2904.87
736.519	2861.87
736.705	2921.26
736.89	2935.59
737.076	2931.5
737.262	2962.22
737.447	2888.49
737.633	2929.45
737.819	2947.88
738.004	2962.22
738.19	2890.54
738.375	2880.3
738.561	2917.16
738.747	3015.46
738.932	2974.5
739.118	3019.56
739.303	2937.64
739.489	2935.59
739.674	2964.26
739.859	2994.98
740.045	2923.3
740.23	2968.36
740.416	2806.57
740.601	3068.71
740.786	2843.43
740.972	2841.39
741.157	2954.02
741.342	2839.34
741.528	2939.69
741.713	3005.22
741.898	2898.73
742.084	2890.54
742.269	3060.52
742.454	3001.13
742.639	2865.96
742.824	2820.91
743.01	2911.02
743.195	2933.54
743.38	2992.94
743.565	2915.11
743.75	2904.87
743.935	2884.39
744.12	2894.63
744.305	2884.39
744.49	2857.77
744.675	2843.43
744.86	2937.64
745.045	2818.86
745.23	2822.95
745.415	2798.38
745.6	2677.55
745.785	2685.74
745.97	2908.97
746.155	2753.32
746.34	2859.82
746.525	2673.45
746.71	2818.86
746.895	2804.52
747.079	2710.32
747.264	2808.62
747.449	2732.84
747.634	2603.82
747.819	2702.12
748.003	2796.33
748.188	2700.08
748.373	2642.73
748.557	2765.61
748.742	2587.44
748.927	2698.03
749.111	2614.06
749.296	2679.6
749.481	2562.86
749.665	2458.42
749.85	2540.33
750.034	2616.11
750.219	2517.81
750.404	2569.01
750.588	2585.39
750.773	2452.27
750.957	2458.42
751.141	2435.89
751.326	2360.11
751.51	2513.71
751.695	2454.32
751.879	2482.99
752.064	2458.42
752.248	2444.08
752.432	2439.98
752.617	2356.02
752.801	2288.43
752.985	2376.5
753.17	2476.85
753.354	2364.21
753.538	2413.36
753.722	2233.14
753.907	2272.05
754.091	2198.32
754.275	2261.81
754.459	2300.72
754.643	2124.6
754.828	2315.06
755.012	2304.82
755.196	2227
755.38	2263.86
755.564	2138.93
755.748	2143.03
755.932	2222.9
756.116	2206.52
756.3	2196.28
756.484	2136.88
756.668	2042.68
756.852	1997.62
757.036	2194.23
757.22	2052.92
757.404	1948.47
757.588	2116.41
757.772	2038.58
757.956	2083.64
758.14	2159.41
758.323	1979.19
758.507	1960.76
758.691	1977.14
758.875	2071.35
759.059	1995.57
759.242	1891.13
759.426	1989.43
759.61	1919.8
759.794	1911.61
759.977	1915.7
760.161	1932.09
760.345	1893.18
760.528	1936.18
760.712	1837.88
760.895	1874.74
761.079	1835.83
761.263	1815.35
761.446	1764.15
761.63	1743.67
761.813	1817.4
761.997	1792.83
762.18	1809.21
762.364	1837.88
762.547	1702.72
762.731	1815.35
762.914	1829.69
763.098	1706.81
763.281	1760.06
763.464	1696.57
763.648	1710.91
763.831	1766.2
764.015	1649.47
764.198	1672
764.381	1710.91
764.564	1717.05
764.748	1723.2
764.931	1702.72
765.114	1692.48
765.297	1704.76
765.481	1631.04
765.664	1672
765.847	1694.52
766.03	1753.91
766.213	1665.85
766.397	1585.98
766.58	1616.7
766.763	1618.75
766.946	1585.98
767.129	1659.71
767.312	1583.93
767.495	1555.26
767.678	1608.51
767.861	1612.6
768.044	1588.03
768.227	1631.04
768.41	1577.79
768.593	1585.98
768.776	1600.32
768.959	1553.21
769.142	1540.93
769.324	1454.91
769.507	1465.15
769.69	1508.16
769.873	1454.91
770.056	1549.12
770.239	1608.51
770.421	1553.21
770.604	1497.92
770.787	1495.87
770.97	1596.22
771.152	1540.93
771.335	1485.63
771.518	1366.85
771.7	1432.38
771.883	1413.95
772.066	1280.83
772.248	1416
772.431	1428.29
772.613	1336.13
772.796	1360.7
772.978	1323.84
773.161	1387.33
773.343	1266.5
773.526	1346.37
773.708	1243.97
773.891	1321.79
774.073	1348.42
774.256	1299.27
774.438	1346.37
774.621	1307.46
774.803	1315.65
774.985	1282.88
775.168	1309.51
775.35	1252.16
775.532	1278.79
775.715	1272.64
775.897	1129.28
776.079	1207.11
776.261	1168.2
776.444	1151.81
776.626	1260.35
776.808	1119.04
776.99	1125.19
777.173	1248.07
777.355	1209.15
777.537	1141.57
777.719	1094.47
777.901	1112.9
778.083	1178.44
778.265	1076.04
778.447	1157.96
778.629	1178.44
778.811	1123.14
778.993	1108.8
779.175	975.69
779.357	1104.71
779.539	1047.37
779.721	975.69
779.903	1110.85
780.085	1028.93
780.267	1014.6
780.449	1008.45
780.631	1043.27
780.812	1094.47
780.994	920.39
781.176	957.25
781.358	914.25
781.54	852.81
781.721	977.73
781.903	992.07
782.085	918.34
782.267	879.43
782.448	895.82
782.63	973.64
782.812	947.01
782.993	840.52
783.175	848.71
783.357	824.14
783.538	875.34
783.72	865.1
783.901	797.51
784.083	891.72
784.264	822.09
784.446	844.62
784.627	826.18
784.809	957.25
784.99	797.51
785.172	850.76
785.353	803.66
785.535	783.18
785.716	887.62
785.897	867.14
786.079	772.94
786.26	789.32
786.441	781.13
786.623	688.97
786.804	715.59
786.985	772.94
787.167	803.66
787.348	709.45
787.529	750.41
787.71	785.23
787.891	746.31
788.073	682.83
788.254	705.35
788.435	734.03
788.616	707.4
788.797	590.67
788.978	723.79
789.159	734.03
789.34	615.24
789.522	641.87
789.703	602.96
789.884	688.97
790.065	654.16
790.246	760.65
790.427	770.89
790.607	707.4
790.788	666.44
790.969	670.54
791.15	564.04
791.331	666.44
791.512	564.04
791.693	557.9
791.874	545.61
792.054	674.64
792.235	605
792.416	559.95
792.597	562
792.778	541.52
792.958	621.39
793.139	607.05
793.32	500.56
793.5	478.03
793.681	654.16
793.862	615.24
794.042	555.85
794.223	516.94
794.404	551.76
794.584	549.71
794.765	533.33
794.945	525.13
795.126	482.13
795.306	521.04
795.487	463.69
795.667	480.08
795.848	459.6
796.028	381.78
796.209	518.99
796.389	498.51
796.57	471.89
796.75	461.65
796.93	461.65
797.111	437.07
797.291	557.9
797.471	400.21
797.652	451.41
797.832	443.21
798.012	510.8
798.192	516.94
798.373	453.45
798.553	496.46
798.733	414.54
798.913	492.37
799.093	469.84
799.274	473.93
799.454	496.46
799.634	506.7
799.814	463.69
799.994	482.13
800.174	445.26
800.354	412.5
800.534	336.72
800.714	461.65
800.894	375.63
801.074	353.1
801.254	445.26
801.434	453.45
801.614	424.78
801.794	396.11
801.974	1055.56
802.154	482.13
802.334	402.26
802.514	373.58
802.693	439.12
802.873	346.96
803.053	473.93
803.233	373.58
803.413	426.83
803.592	346.96
803.772	392.02
803.952	340.82
804.131	310.1
804.311	406.35
804.491	500.56
804.67	357.2
804.85	349.01
805.03	392.02
805.209	363.34
805.389	361.3
805.568	373.58
805.748	359.25
805.928	373.58
806.107	324.43
806.287	346.96
806.466	342.86
806.646	232.27
806.825	289.62
807.004	287.57
807.184	430.93
807.363	365.39
807.543	375.63
807.722	312.14
807.901	392.02
808.081	404.3
808.26	195.41
808.439	353.1
808.619	308.05
808.798	314.19
808.977	351.06
809.156	236.37
809.336	332.62
809.515	242.51
809.694	275.28
809.873	340.82
810.052	334.67
810.231	318.29
810.411	293.71
810.59	312.14
810.769	273.23
810.948	293.71
811.127	273.23
811.306	314.19
811.485	234.32
811.664	353.1
811.843	308.05
812.022	260.95
812.201	230.23
812.38	230.23
812.559	250.71
812.737	361.3
812.916	289.62
813.095	260.95
813.274	222.03
813.453	316.24
813.632	260.95
813.811	297.81
813.989	289.62
814.168	303.95
814.347	240.47
814.526	283.47
814.704	291.66
814.883	328.53
815.062	211.79
815.24	277.33
815.419	215.89
815.598	211.79
815.776	228.18
815.955	310.1
816.133	197.46
816.312	176.98
816.49	269.14
816.669	228.18
816.847	250.71
817.026	217.94
817.204	211.79
817.383	279.38
817.561	197.46
817.74	312.14
817.918	258.9
818.097	183.12
818.275	172.88
818.453	215.89
818.632	183.12
818.81	283.47
818.988	230.23
819.167	201.55
819.345	308.05
819.523	174.93
819.701	213.84
819.879	211.79
820.058	244.56
820.236	234.32
820.414	281.43
820.592	191.31
820.77	193.36
820.948	260.95
821.127	267.09
821.305	183.12
821.483	244.56
821.661	228.18
821.839	215.89
822.017	291.66
822.195	193.36
822.373	203.6
822.551	232.27
822.729	164.69
822.907	179.03
823.085	195.41
823.262	189.27
823.44	213.84
823.618	160.59
823.796	144.21
823.974	201.55
824.152	154.45
824.329	222.03
824.507	179.03
824.685	179.03
824.863	129.88
825.04	267.09
825.218	166.74
825.396	195.41
825.574	176.98
825.751	201.55
825.929	213.84
826.107	164.69
826.284	174.93
826.462	164.69
826.639	129.88
826.817	170.83
826.994	183.12
827.172	150.36
827.349	244.56
827.527	203.6
827.704	217.94
827.882	211.79
828.059	117.59
828.237	168.79
828.414	209.75
828.591	193.36
828.769	222.03
828.946	107.35
829.124	201.55
829.301	191.31
829.478	146.26
829.655	176.98
829.833	142.16
830.01	109.4
830.187	201.55
830.364	166.74
830.542	199.51
830.719	158.55
830.896	142.16
831.073	90.96
831.25	193.36
831.427	248.66
831.604	197.46
831.782	84.82
831.959	146.26
832.136	148.31
832.313	101.2
832.49	86.87
832.667	146.26
832.844	111.44
833.021	142.16
833.198	162.64
833.374	95.06
833.551	150.36
833.728	93.01
833.905	76.63
834.082	129.88
834.259	109.4
834.436	174.93
834.612	86.87
834.789	187.22
834.966	181.07
835.143	117.59
835.319	97.11
835.496	86.87
835.673	107.35
835.85	136.02
836.026	99.16
836.203	127.83
836.38	160.59
836.556	172.88
836.733	117.59
836.909	187.22
837.086	97.11
837.262	66.39
837.439	152.4
837.616	97.11
837.792	111.44
837.968	148.31
838.145	99.16
838.321	174.93
838.498	140.12
838.674	123.73
838.851	82.77
839.027	80.72
839.203	129.88
839.38	109.4
839.556	72.53
839.732	99.16
839.909	76.63
840.085	107.35
840.261	19.29
840.437	58.2
840.614	111.44
840.79	103.25
840.966	107.35
841.142	115.54
841.318	47.96
841.494	99.16
841.671	103.25
841.847	82.77
842.023	133.97
842.199	19.29
842.375	72.53
842.551	105.3
842.727	56.15
842.903	131.92
843.079	174.93
843.255	125.78
843.431	72.53
843.607	68.44
843.783	115.54
843.959	158.55
844.134	50
844.31	97.11
844.486	136.02
844.662	43.86
844.838	127.83
845.013	133.97
845.189	133.97
845.365	191.31
845.541	23.38
845.716	68.44
845.892	97.11
846.068	70.48
846.244	129.88
846.419	191.31
846.595	41.81
846.77	66.39
846.946	129.88
847.122	45.91
847.297	84.82
847.473	64.34
847.648	0.85
847.824	136.02
847.999	47.96
848.175	125.78
848.35	72.53
848.526	72.53
848.701	103.25
848.876	111.44
849.052	97.11
849.227	66.39
849.403	52.05
849.578	25.43
849.753	25.43
849.929	164.69
850.104	72.53
850.279	4.95
850.454	80.72
850.63	119.64
850.805	84.82
850.98	68.44
851.155	113.49
851.33	121.68
851.505	41.81
851.681	95.06
851.856	62.29
852.031	47.96
852.206	117.59
852.381	41.81
852.556	50
852.731	127.83
852.906	86.87
853.081	127.83
853.256	133.97
853.431	72.53
853.606	54.1
853.781	0.85
853.956	-7.34
854.131	29.52
854.305	39.76
854.48	0.85
854.655	140.12
854.83	133.97
855.005	56.15
855.18	60.24
855.354	68.44
855.529	117.59
855.704	68.44
855.879	93.01
856.053	31.57
856.228	56.15
856.403	-15.53
856.577	107.35
856.752	101.2
856.926	43.86
857.101	78.68
857.276	97.11
857.45	-3.24
857.625	93.01
857.799	74.58
857.974	121.68
858.148	99.16
858.323	93.01
858.497	2.9
858.672	86.87
858.846	45.91
859.02	117.59
859.195	19.29
859.369	-1.19
859.543	56.15
859.718	43.86
859.892	105.3
860.066	33.62
860.241	62.29
860.415	11.09
860.589	66.39
860.763	31.57
860.938	17.24
861.112	97.11
861.286	86.87
861.46	23.38
861.634	136.02
861.808	95.06
861.982	93.01
862.157	52.05
862.331	-3.24
862.505	27.48
862.679	105.3
862.853	111.44
863.027	68.44
863.201	125.78
863.375	29.52
863.549	84.82
863.722	58.2
863.896	111.44
864.07	97.11
864.244	19.29
864.418	76.63
864.592	-15.53
864.766	95.06
864.939	97.11
865.113	-11.43
865.287	113.49
865.461	52.05
865.634	101.2
865.808	86.87
865.982	68.44
866.156	27.48
866.329	-23.72
866.503	56.15
866.676	82.77
866.85	105.3
867.024	41.81
867.197	23.38
867.371	27.48
867.544	4.95
867.718	72.53
867.891	45.91
868.065	45.91
868.238	52.05
868.412	148.31
868.585	19.29
868.759	54.1
868.932	78.68
869.105	86.87
869.279	68.44
869.452	21.33
869.625	107.35
869.799	54.1
869.972	-38.06
870.145	72.53
870.319	58.2
870.492	78.68
870.665	13.14
870.838	52.05
871.011	-25.77
871.185	-11.43
871.358	13.14
871.531	47.96
871.704	21.33
871.877	47.96
872.05	-3.24
872.223	4.95
872.396	113.49
872.569	86.87
872.742	93.01
872.915	19.29
873.088	41.81
873.261	15.19
873.434	82.77
873.607	-3.24
873.78	43.86
873.953	88.92
874.126	64.34
874.299	60.24
874.471	-13.48
874.644	58.2
874.817	109.4
874.99	78.68
875.163	78.68
875.335	50
875.508	2.9
875.681	76.63
875.853	43.86
876.026	64.34
876.199	45.91
876.371	50
876.544	23.38
876.717	95.06
876.889	-31.91
877.062	50
877.234	107.35
877.407	47.96
877.579	70.48
877.752	95.06
877.924	70.48
878.097	50
878.269	35.67
878.442	17.24
878.614	-50.35
878.786	43.86
878.959	86.87
879.131	13.14
879.303	-17.58
879.476	56.15
879.648	29.52
879.82	62.29
879.993	21.33
880.165	2.9
880.337	-21.67
880.509	86.87
880.681	-9.39
880.854	41.81
881.026	11.09
881.198	66.39
881.37	39.76
881.542	45.91
881.714	17.24
881.886	-13.48
882.058	27.48
882.23	50
882.402	19.29
882.574	68.44
882.746	17.24
882.918	90.96
883.09	103.25
883.262	76.63
883.434	29.52
883.606	-23.72
883.778	25.43
883.95	176.98
884.122	9.05
884.293	11.09
884.465	15.19
884.637	-3.24
884.809	-13.48
884.98	54.1
885.152	47.96
885.324	64.34
885.496	2.9
885.667	0.85
885.839	31.57
886.011	47.96
886.182	74.58
886.354	31.57
886.525	70.48
886.697	60.24
886.869	9.05
887.04	-1.19
887.212	25.43
887.383	74.58
887.555	93.01
887.726	-23.72
887.897	47.96
888.069	52.05
888.24	19.29
888.412	70.48
888.583	54.1
888.754	60.24
888.926	-19.63
889.097	54.1
889.268	-13.48
889.44	103.25
889.611	-25.77
889.782	2.9
889.953	64.34
890.125	78.68
890.296	47.96
890.467	-15.53
890.638	13.14
890.809	50
890.98	-60.59
891.151	-46.25
891.323	-25.77
891.494	15.19
891.665	9.05
891.836	33.62
892.007	43.86
892.178	31.57
892.349	88.92
892.52	15.19
892.691	31.57
892.862	0.85
893.032	15.19
893.203	27.48
893.374	-21.67
893.545	60.24
893.716	88.92
893.887	56.15
894.057	2.9
894.228	33.62
894.399	13.14
894.57	4.95
894.74	29.52
894.911	-5.29
895.082	11.09
895.253	4.95
895.423	-54.44
895.594	64.34
895.764	52.05
895.935	43.86
896.106	9.05
896.276	37.72
896.447	-31.91
896.617	-25.77
896.788	25.43
896.958	41.81
897.129	95.06
897.299	-23.72
897.47	-9.39
897.64	101.2
897.81	15.19
897.981	17.24
898.151	64.34
898.322	103.25
898.492	56.15
898.662	47.96
898.832	35.67
899.003	66.39
899.173	45.91
899.343	60.24
899.513	23.38
