Data from USB4F104151__2__12-40-51-598.txt Node

Date: Fri Mar 14 12:40:51 EDT 2025
User: louis
Spectrometer: USB4F10415
Trigger mode: 4
Integration Time (sec): 3.000000E-2
Scans to average: 1
Electric dark correction enabled: true
Nonlinearity correction enabled: false
Boxcar width: 0
XAxis mode: Wavelengths
Number of Pixels in Spectrum: 3648
>>>>>Begin Spectral Data<<<<<
178.204	-107.01
178.424	-107.01
178.644	-107.01
178.864	-123.39
179.084	-57.86
179.304	-72.19
179.524	15.87
179.744	-8.7
179.964	52.74
180.184	-68.09
180.404	-2.56
180.624	1.54
180.844	71.17
181.064	-25.09
181.283	13.82
181.503	13.82
181.723	7.68
181.943	19.97
182.163	93.69
182.383	-29.18
182.602	89.6
182.822	-8.7
183.042	22.02
183.262	5.63
183.482	22.02
183.701	9.73
183.921	83.45
184.141	9.73
184.361	24.06
184.58	46.59
184.8	17.92
185.02	-64
185.239	38.4
185.459	17.92
185.679	26.11
185.898	28.16
186.118	56.83
186.338	15.87
186.557	-2.56
186.777	-6.66
186.997	-49.66
187.216	13.82
187.436	105.98
187.655	48.64
187.875	65.02
188.095	91.65
188.314	124.41
188.534	118.27
188.753	40.45
188.973	54.78
189.192	46.59
189.412	15.87
189.631	22.02
189.851	105.98
190.07	52.74
190.29	-64
190.509	22.02
190.729	-2.56
190.948	17.92
191.168	146.94
191.387	42.5
191.607	42.5
191.826	54.78
192.045	-12.8
192.265	56.83
192.484	-12.8
192.704	15.87
192.923	-25.09
193.142	75.26
193.362	97.79
193.581	81.41
193.8	17.92
194.02	52.74
194.239	69.12
194.458	-6.66
194.678	19.97
194.897	99.84
195.116	89.6
195.335	-20.99
195.555	73.21
195.774	65.02
195.993	116.22
196.212	9.73
196.432	19.97
196.651	38.4
196.87	22.02
197.089	85.5
197.308	67.07
197.528	28.16
197.747	54.78
197.966	40.45
198.185	97.79
198.404	85.5
198.623	9.73
198.842	-18.94
199.062	65.02
199.281	28.16
199.5	69.12
199.719	36.35
199.938	38.4
200.157	75.26
200.376	54.78
200.595	136.7
200.814	136.7
201.033	81.41
201.252	91.65
201.471	-16.9
201.69	89.6
201.909	56.83
202.128	42.5
202.347	73.21
202.566	19.97
202.785	105.98
203.004	15.87
203.223	110.08
203.442	-68.09
203.661	24.06
203.879	34.3
204.098	30.21
204.317	-29.18
204.536	32.26
204.755	130.56
204.974	-0.51
205.193	93.69
205.411	108.03
205.63	48.64
205.849	60.93
206.068	42.5
206.287	75.26
206.505	75.26
206.724	52.74
206.943	44.54
207.162	73.21
207.381	26.11
207.599	-27.14
207.818	-4.61
208.037	40.45
208.255	24.06
208.474	-6.66
208.693	24.06
208.911	97.79
209.13	44.54
209.349	32.26
209.567	67.07
209.786	71.17
210.005	38.4
210.223	24.06
210.442	50.69
210.661	54.78
210.879	40.45
211.098	34.3
211.316	7.68
211.535	40.45
211.753	-0.51
211.972	93.69
212.191	73.21
212.409	-41.47
212.628	26.11
212.846	19.97
213.065	60.93
213.283	130.56
213.502	38.4
213.72	54.78
213.938	85.5
214.157	-12.8
214.375	79.36
214.594	5.63
214.812	22.02
215.031	-0.51
215.249	52.74
215.467	17.92
215.686	9.73
215.904	116.22
216.122	30.21
216.341	81.41
216.559	17.92
216.778	79.36
216.996	50.69
217.214	65.02
217.432	40.45
217.651	30.21
217.869	32.26
218.087	5.63
218.306	95.74
218.524	103.93
218.742	28.16
218.96	99.84
219.179	40.45
219.397	7.68
219.615	99.84
219.833	28.16
220.051	-25.09
220.27	62.98
220.488	40.45
220.706	46.59
220.924	89.6
221.142	77.31
221.36	89.6
221.578	-43.52
221.796	116.22
222.015	24.06
222.233	101.89
222.451	32.26
222.669	48.64
222.887	97.79
223.105	60.93
223.323	48.64
223.541	54.78
223.759	7.68
223.977	46.59
224.195	26.11
224.413	-39.42
224.631	91.65
224.849	42.5
225.067	38.4
225.285	58.88
225.503	54.78
225.721	-14.85
225.939	67.07
226.157	-45.57
226.375	130.56
226.592	46.59
226.81	81.41
227.028	71.17
227.246	116.22
227.464	71.17
227.682	32.26
227.9	46.59
228.117	87.55
228.335	40.45
228.553	73.21
228.771	24.06
228.989	75.26
229.206	67.07
229.424	54.78
229.642	65.02
229.86	-14.85
230.077	112.13
230.295	19.97
230.513	50.69
230.731	-6.66
230.948	105.98
231.166	36.35
231.384	5.63
231.601	58.88
231.819	48.64
232.037	50.69
232.254	34.3
232.472	-53.76
232.689	-78.33
232.907	110.08
233.125	24.06
233.342	42.5
233.56	1.54
233.777	69.12
233.995	28.16
234.213	91.65
234.43	44.54
234.648	75.26
234.865	44.54
235.083	97.79
235.3	101.89
235.518	101.89
235.735	161.28
235.953	52.74
236.17	9.73
236.388	93.69
236.605	-14.85
236.822	73.21
237.04	52.74
237.257	15.87
237.475	48.64
237.692	89.6
237.909	71.17
238.127	73.21
238.344	46.59
238.562	22.02
238.779	38.4
238.996	-53.76
239.214	38.4
239.431	42.5
239.648	24.06
239.865	-39.42
240.083	54.78
240.3	-23.04
240.517	52.74
240.735	91.65
240.952	71.17
241.169	40.45
241.386	62.98
241.603	48.64
241.821	-33.28
242.038	52.74
242.255	79.36
242.472	73.21
242.689	83.45
242.907	24.06
243.124	56.83
243.341	54.78
243.558	52.74
243.775	50.69
243.992	3.58
244.209	19.97
244.426	44.54
244.643	75.26
244.86	-18.94
245.078	1.54
245.295	15.87
245.512	95.74
245.729	-16.9
245.946	42.5
246.163	32.26
246.38	42.5
246.597	30.21
246.814	32.26
247.031	89.6
247.248	58.88
247.464	19.97
247.681	89.6
247.898	85.5
248.115	138.75
248.332	69.12
248.549	71.17
248.766	46.59
248.983	105.98
249.2	19.97
249.417	99.84
249.633	50.69
249.85	32.26
250.067	87.55
250.284	60.93
250.501	52.74
250.717	40.45
250.934	-2.56
251.151	5.63
251.368	-53.76
251.585	105.98
251.801	28.16
252.018	-49.66
252.235	146.94
252.451	3.58
252.668	-23.04
252.885	58.88
253.102	48.64
253.318	-25.09
253.535	-10.75
253.752	24.06
253.968	71.17
254.185	-8.7
254.401	15.87
254.618	97.79
254.835	17.92
255.051	128.51
255.268	103.93
255.484	42.5
255.701	9.73
255.917	69.12
256.134	34.3
256.351	105.98
256.567	-16.9
256.784	-16.9
257	-23.04
257.217	95.74
257.433	65.02
257.65	67.07
257.866	128.51
258.082	-20.99
258.299	32.26
258.515	114.17
258.732	60.93
258.948	22.02
259.165	30.21
259.381	28.16
259.597	-8.7
259.814	-35.33
260.03	44.54
260.246	87.55
260.463	65.02
260.679	60.93
260.895	34.3
261.112	3.58
261.328	95.74
261.544	83.45
261.761	46.59
261.977	-53.76
262.193	9.73
262.409	77.31
262.626	-2.56
262.842	1.54
263.058	58.88
263.274	71.17
263.49	85.5
263.707	69.12
263.923	81.41
264.139	11.78
264.355	7.68
264.571	-27.14
264.787	112.13
265.004	58.88
265.22	50.69
265.436	11.78
265.652	103.93
265.868	38.4
266.084	24.06
266.3	52.74
266.516	120.32
266.732	67.07
266.948	81.41
267.164	46.59
267.38	28.16
267.596	48.64
267.812	52.74
268.028	58.88
268.244	-8.7
268.46	48.64
268.676	3.58
268.892	3.58
269.108	48.64
269.324	62.98
269.54	69.12
269.756	83.45
269.972	-6.66
270.188	83.45
270.403	15.87
270.619	34.3
270.835	62.98
271.051	89.6
271.267	58.88
271.483	26.11
271.698	116.22
271.914	99.84
272.13	19.97
272.346	40.45
272.562	60.93
272.777	116.22
272.993	58.88
273.209	77.31
273.425	83.45
273.64	34.3
273.856	52.74
274.072	1.54
274.287	32.26
274.503	85.5
274.719	52.74
274.934	91.65
275.15	1.54
275.366	81.41
275.581	28.16
275.797	110.08
276.012	65.02
276.228	7.68
276.444	-39.42
276.659	126.46
276.875	40.45
277.09	40.45
277.306	34.3
277.521	58.88
277.737	95.74
277.952	62.98
278.168	95.74
278.383	71.17
278.599	56.83
278.814	56.83
279.03	73.21
279.245	65.02
279.461	42.5
279.676	65.02
279.892	-45.57
280.107	58.88
280.322	38.4
280.538	83.45
280.753	17.92
280.969	30.21
281.184	69.12
281.399	101.89
281.615	-10.75
281.83	38.4
282.045	-66.05
282.26	-6.66
282.476	73.21
282.691	24.06
282.906	79.36
283.122	97.79
283.337	-23.04
283.552	97.79
283.767	-2.56
283.983	83.45
284.198	42.5
284.413	32.26
284.628	-29.18
284.843	1.54
285.058	71.17
285.274	22.02
285.489	-14.85
285.704	79.36
285.919	30.21
286.134	67.07
286.349	118.27
286.564	58.88
286.779	77.31
286.995	32.26
287.21	-66.05
287.425	48.64
287.64	13.82
287.855	105.98
288.07	56.83
288.285	67.07
288.5	44.54
288.715	44.54
288.93	-2.56
289.145	40.45
289.36	15.87
289.575	157.18
289.79	58.88
290.004	28.16
290.219	91.65
290.434	-14.85
290.649	28.16
290.864	103.93
291.079	69.12
291.294	99.84
291.509	79.36
291.724	58.88
291.938	-8.7
292.153	130.56
292.368	7.68
292.583	85.5
292.798	36.35
293.012	34.3
293.227	67.07
293.442	30.21
293.657	56.83
293.871	77.31
294.086	-18.94
294.301	87.55
294.516	73.21
294.73	11.78
294.945	9.73
295.16	58.88
295.374	50.69
295.589	60.93
295.804	40.45
296.018	54.78
296.233	75.26
296.447	99.84
296.662	85.5
296.877	77.31
297.091	97.79
297.306	26.11
297.52	58.88
297.735	75.26
297.949	87.55
298.164	83.45
298.378	17.92
298.593	24.06
298.807	22.02
299.022	52.74
299.236	40.45
299.451	89.6
299.665	1.54
299.88	87.55
300.094	71.17
300.309	46.59
300.523	69.12
300.737	85.5
300.952	19.97
301.166	56.83
301.381	118.27
301.595	-12.8
301.809	65.02
302.024	91.65
302.238	17.92
302.452	30.21
302.667	5.63
302.881	77.31
303.095	46.59
303.309	118.27
303.524	13.82
303.738	56.83
303.952	32.26
304.166	134.65
304.381	7.68
304.595	93.69
304.809	3.58
305.023	67.07
305.237	42.5
305.452	58.88
305.666	36.35
305.88	9.73
306.094	73.21
306.308	91.65
306.522	99.84
306.736	42.5
306.95	120.32
307.164	-16.9
307.379	17.92
307.593	56.83
307.807	38.4
308.021	132.61
308.235	73.21
308.449	28.16
308.663	46.59
308.877	120.32
309.091	91.65
309.305	38.4
309.519	-12.8
309.733	32.26
309.947	42.5
310.161	103.93
310.374	-29.18
310.588	73.21
310.802	-18.94
311.016	91.65
311.23	5.63
311.444	85.5
311.658	54.78
311.872	83.45
312.085	60.93
312.299	120.32
312.513	44.54
312.727	-12.8
312.941	-29.18
313.154	60.93
313.368	54.78
313.582	62.98
313.796	9.73
314.009	19.97
314.223	-10.75
314.437	34.3
314.651	54.78
314.864	30.21
315.078	-31.23
315.292	40.45
315.505	34.3
315.719	32.26
315.933	83.45
316.146	-35.33
316.36	56.83
316.573	163.33
316.787	93.69
317.001	24.06
317.214	40.45
317.428	116.22
317.641	28.16
317.855	9.73
318.068	-12.8
318.282	60.93
318.495	95.74
318.709	73.21
318.922	89.6
319.136	177.66
319.349	120.32
319.563	34.3
319.776	52.74
319.99	85.5
320.203	65.02
320.417	71.17
320.63	42.5
320.843	103.93
321.057	60.93
321.27	48.64
321.483	75.26
321.697	95.74
321.91	30.21
322.124	83.45
322.337	73.21
322.55	73.21
322.763	42.5
322.977	148.99
323.19	17.92
323.403	77.31
323.617	-16.9
323.83	93.69
324.043	50.69
324.256	56.83
324.469	13.82
324.683	73.21
324.896	44.54
325.109	46.59
325.322	13.82
325.535	5.63
325.748	58.88
325.962	-6.66
326.175	54.78
326.388	105.98
326.601	69.12
326.814	32.26
327.027	128.51
327.24	54.78
327.453	-6.66
327.666	52.74
327.879	58.88
328.092	48.64
328.305	71.17
328.518	56.83
328.731	30.21
328.944	67.07
329.157	95.74
329.37	73.21
329.583	77.31
329.796	202.24
330.009	28.16
330.222	24.06
330.435	120.32
330.648	24.06
330.861	52.74
331.073	93.69
331.286	75.26
331.499	40.45
331.712	32.26
331.925	87.55
332.138	40.45
332.35	75.26
332.563	122.37
332.776	67.07
332.989	60.93
333.202	-4.61
333.414	95.74
333.627	3.58
333.84	54.78
334.053	120.32
334.265	103.93
334.478	-47.62
334.691	75.26
334.903	112.13
335.116	36.35
335.329	52.74
335.541	-10.75
335.754	136.7
335.966	5.63
336.179	54.78
336.392	46.59
336.604	15.87
336.817	38.4
337.029	73.21
337.242	17.92
337.454	73.21
337.667	38.4
337.88	71.17
338.092	42.5
338.305	75.26
338.517	75.26
338.729	42.5
338.942	110.08
339.154	58.88
339.367	-39.42
339.579	120.32
339.792	44.54
340.004	44.54
340.217	60.93
340.429	44.54
340.641	54.78
340.854	87.55
341.066	40.45
341.278	140.8
341.491	19.97
341.703	81.41
341.915	130.56
342.128	83.45
342.34	140.8
342.552	44.54
342.764	89.6
342.977	3.58
343.189	40.45
343.401	19.97
343.613	26.11
343.826	60.93
344.038	69.12
344.25	62.98
344.462	65.02
344.674	75.26
344.886	81.41
345.099	58.88
345.311	169.47
345.523	118.27
345.735	9.73
345.947	116.22
346.159	26.11
346.371	83.45
346.583	62.98
346.795	173.57
347.007	58.88
347.219	67.07
347.431	-23.04
347.643	95.74
347.855	56.83
348.067	89.6
348.279	-4.61
348.491	87.55
348.703	73.21
348.915	-29.18
349.127	46.59
349.339	105.98
349.551	52.74
349.763	28.16
349.975	62.98
350.187	65.02
350.399	58.88
350.61	118.27
350.822	108.03
351.034	71.17
351.246	93.69
351.458	50.69
351.669	103.93
351.881	130.56
352.093	105.98
352.305	83.45
352.517	97.79
352.728	105.98
352.94	95.74
353.152	62.98
353.363	-14.85
353.575	3.58
353.787	112.13
353.999	69.12
354.21	144.89
354.422	40.45
354.633	30.21
354.845	58.88
355.057	97.79
355.268	118.27
355.48	85.5
355.692	83.45
355.903	19.97
356.115	120.32
356.326	73.21
356.538	75.26
356.749	148.99
356.961	118.27
357.172	11.78
357.384	5.63
357.595	42.5
357.807	101.89
358.018	-2.56
358.23	65.02
358.441	73.21
358.653	99.84
358.864	44.54
359.075	67.07
359.287	132.61
359.498	73.21
359.709	83.45
359.921	110.08
360.132	101.89
360.344	128.51
360.555	85.5
360.766	5.63
360.977	69.12
361.189	161.28
361.4	52.74
361.611	81.41
361.823	103.93
362.034	36.35
362.245	3.58
362.456	91.65
362.667	60.93
362.879	3.58
363.09	97.79
363.301	81.41
363.512	73.21
363.723	15.87
363.935	77.31
364.146	91.65
364.357	87.55
364.568	-8.7
364.779	-14.85
364.99	187.9
365.201	1.54
365.412	15.87
365.623	22.02
365.834	62.98
366.045	40.45
366.256	67.07
366.467	38.4
366.678	11.78
366.889	116.22
367.1	65.02
367.311	140.8
367.522	32.26
367.733	60.93
367.944	93.69
368.155	36.35
368.366	93.69
368.577	77.31
368.788	146.94
368.999	83.45
369.209	46.59
369.42	146.94
369.631	169.47
369.842	83.45
370.053	85.5
370.264	97.79
370.474	67.07
370.685	75.26
370.896	73.21
371.107	89.6
371.317	103.93
371.528	-29.18
371.739	60.93
371.95	71.17
372.16	19.97
372.371	56.83
372.582	52.74
372.792	99.84
373.003	101.89
373.214	99.84
373.424	116.22
373.635	32.26
373.846	77.31
374.056	110.08
374.267	161.28
374.477	52.74
374.688	50.69
374.898	93.69
375.109	99.84
375.319	114.17
375.53	50.69
375.74	163.33
375.951	118.27
376.161	13.82
376.372	85.5
376.582	48.64
376.793	99.84
377.003	54.78
377.214	118.27
377.424	62.98
377.635	101.89
377.845	75.26
378.055	116.22
378.266	36.35
378.476	54.78
378.686	34.3
378.897	50.69
379.107	175.61
379.317	50.69
379.528	79.36
379.738	36.35
379.948	73.21
380.158	69.12
380.369	83.45
380.579	38.4
380.789	140.8
380.999	97.79
381.21	91.65
381.42	132.61
381.63	15.87
381.84	134.65
382.05	138.75
382.261	138.75
382.471	83.45
382.681	128.51
382.891	58.88
383.101	103.93
383.311	85.5
383.521	81.41
383.731	130.56
383.941	77.31
384.151	116.22
384.361	77.31
384.571	-0.51
384.781	36.35
384.991	130.56
385.201	136.7
385.411	24.06
385.621	73.21
385.831	60.93
386.041	153.09
386.251	69.12
386.461	114.17
386.671	79.36
386.881	22.02
387.091	87.55
387.301	65.02
387.511	91.65
387.72	138.75
387.93	101.89
388.14	108.03
388.35	114.17
388.56	114.17
388.769	101.89
388.979	108.03
389.189	75.26
389.399	62.98
389.609	75.26
389.818	175.61
390.028	56.83
390.238	120.32
390.447	73.21
390.657	83.45
390.867	114.17
391.076	77.31
391.286	181.76
391.496	67.07
391.705	22.02
391.915	118.27
392.125	58.88
392.334	34.3
392.544	110.08
392.753	32.26
392.963	58.88
393.172	77.31
393.382	65.02
393.591	192
393.801	132.61
394.01	157.18
394.22	89.6
394.429	36.35
394.639	177.66
394.848	183.81
395.058	99.84
395.267	79.36
395.477	153.09
395.686	138.75
395.895	124.41
396.105	189.95
396.314	146.94
396.524	204.28
396.733	97.79
396.942	116.22
397.152	155.13
397.361	171.52
397.57	140.8
397.78	220.67
397.989	155.13
398.198	179.71
398.407	77.31
398.617	103.93
398.826	192
399.035	108.03
399.244	40.45
399.453	73.21
399.663	124.41
399.872	161.28
400.081	118.27
400.29	163.33
400.499	114.17
400.708	134.65
400.917	155.13
401.127	130.56
401.336	148.99
401.545	253.44
401.754	126.46
401.963	189.95
402.172	136.7
402.381	114.17
402.59	148.99
402.799	171.52
403.008	148.99
403.217	196.09
403.426	204.28
403.635	112.13
403.844	161.28
404.053	171.52
404.262	189.95
404.471	282.11
404.68	220.67
404.888	163.33
405.097	198.14
405.306	198.14
405.515	173.57
405.724	159.23
405.933	189.95
406.142	220.67
406.35	214.52
406.559	249.34
406.768	251.39
406.977	312.83
407.185	278.01
407.394	286.2
407.603	237.05
407.812	316.92
408.02	314.88
408.229	364.03
408.438	253.44
408.646	282.11
408.855	288.25
409.064	343.55
409.272	327.16
409.481	394.75
409.69	396.79
409.898	421.37
410.107	423.42
410.315	353.79
410.524	458.23
410.733	419.32
410.941	450.04
411.15	425.47
411.358	574.97
411.567	505.34
411.775	634.36
411.984	513.53
412.192	534.01
412.401	564.73
412.609	640.5
412.818	667.13
413.026	681.46
413.234	759.28
413.443	620.02
413.651	695.8
413.86	747
414.068	847.35
414.276	847.35
414.485	814.58
414.693	884.21
414.901	888.31
415.11	857.59
415.318	894.45
415.526	890.35
415.734	990.7
415.943	1009.14
416.151	1103.34
416.359	1080.82
416.567	1107.44
416.776	1236.46
416.984	1228.27
417.192	1211.89
417.4	1424.87
417.608	1242.61
417.817	1314.28
418.025	1400.3
418.233	1521.13
418.441	1445.35
418.649	1549.8
418.857	1633.77
419.065	1664.49
419.273	1621.48
419.481	1711.59
419.689	1736.17
419.897	1852.9
420.105	2029.03
420.313	2026.98
420.521	2203.1
420.729	2080.22
420.937	2325.98
421.145	2354.65
421.353	2377.18
421.561	2457.05
421.769	2557.4
421.977	2760.15
422.185	2733.53
422.393	2719.19
422.601	3048.91
422.809	3014.1
423.017	3065.3
423.224	3253.71
423.432	3229.13
423.64	3335.63
423.848	3685.83
424.056	3532.23
424.263	3669.45
424.471	3745.22
424.679	3835.33
424.887	4085.19
425.094	4171.2
425.302	4191.68
425.51	4191.68
425.718	4533.69
425.925	4609.47
426.133	4801.97
426.341	4926.9
426.548	5139.89
426.756	5184.94
426.964	5324.21
427.171	5428.65
427.379	5711.27
427.586	5737.9
427.794	5973.41
428.001	6075.81
428.209	6645.15
428.417	6413.73
428.624	6667.67
428.832	6780.31
429.039	6845.85
429.247	6876.57
429.454	7404.94
429.662	7691.66
429.869	7458.19
430.076	7976.33
430.284	7863.69
430.491	7984.52
430.699	8451.46
430.906	8588.67
431.114	8654.2
431.321	8967.54
431.528	9131.38
431.736	9618.8
431.943	10229.09
432.15	9880.94
432.358	10026.34
432.565	10538.34
432.772	10585.44
432.979	11167.06
433.187	11038.04
433.394	11144.53
433.601	11933
433.808	11922.76
434.016	11949.39
434.223	12518.72
434.43	13192.5
434.637	13204.79
434.844	13946.16
435.052	14292.26
435.259	14011.69
435.466	14361.89
435.673	14089.51
435.88	14951.71
436.087	15742.22
436.294	15822.09
436.501	15291.67
436.708	15734.03
436.915	16506.12
437.122	17079.55
437.329	16815.36
437.537	17569.01
437.743	17718.51
437.95	17491.19
438.157	18412.78
438.364	19154.14
438.571	19209.43
438.778	19291.35
438.985	21023.94
439.192	20135.12
439.399	20800.71
439.606	20401.35
439.813	21753.01
440.02	22678.69
440.227	22428.84
440.433	22099.12
440.64	22842.53
440.847	22678.69
441.054	23221.41
441.261	24900.74
441.467	24370.32
441.674	25328.77
441.881	25959.54
442.088	25975.92
442.294	25502.84
442.501	26360.94
442.708	27044.96
442.914	28148.82
443.121	29201.47
443.328	28286.03
443.534	30223.41
443.741	29735.99
443.948	29185.09
444.154	31632.41
444.361	31061.03
444.568	31407.14
444.774	31300.64
444.981	31675.42
445.187	32525.33
445.394	34122.74
445.6	33563.65
445.807	36684.75
446.013	35230.69
446.22	35894.24
446.426	36936.65
446.633	37725.12
446.839	38769.58
447.046	37221.32
447.252	39457.7
447.459	39328.68
447.665	39093.16
447.871	40981.39
448.078	42552.18
448.284	40645.52
448.491	41681.8
448.697	43557.74
448.903	44194.65
449.11	44358.49
449.316	43807.59
449.522	44247.9
449.728	45394.76
449.935	45972.29
450.141	45761.35
450.347	46971.7
450.553	45499.21
450.76	45828.93
450.966	47117.11
451.172	46904.12
451.378	48120.61
451.584	47297.33
451.791	47909.67
451.997	47983.4
452.203	48798.49
452.409	48929.56
452.615	48552.73
452.821	47252.27
453.027	46723.9
453.233	49029.91
453.44	47381.29
453.646	47479.6
453.852	47491.88
454.058	48933.65
454.264	46932.79
454.47	48421.66
454.676	46861.11
454.882	48603.93
455.088	44663.64
455.294	44807
455.5	45400.91
455.705	46433.08
455.911	44397.4
456.117	43330.41
456.323	42838.9
456.529	40926.1
456.735	42892.15
456.941	41276.3
457.147	41061.26
457.352	39814.05
457.558	39025.58
457.764	39472.04
457.97	38556.6
458.176	38036.41
458.381	37809.09
458.587	35894.24
458.793	35492.83
458.999	33975.29
459.204	36357.08
459.41	35498.98
459.616	33104.9
459.821	33227.78
460.027	33051.66
460.233	32496.66
460.438	30940.2
460.644	31355.94
460.85	29463.61
461.055	29434.94
461.261	29373.5
461.466	27171.94
461.672	26440.81
461.878	27956.31
462.083	26270.83
462.289	25478.27
462.494	25498.75
462.7	24378.51
462.905	23641.24
463.111	24341.64
463.316	24657.03
463.522	24218.77
463.727	24374.41
463.932	23944.34
464.138	23790.74
464.343	23989.39
464.549	23248.03
464.754	24394.89
464.959	23680.15
465.165	23651.48
465.37	22598.82
465.575	22138.03
465.781	22953.12
465.986	23184.54
466.191	22363.31
466.397	22037.68
466.602	20628.68
466.807	21787.83
467.012	21540.02
467.218	21564.6
467.423	21118.14
467.628	21267.64
467.833	22181.04
468.038	21599.41
468.244	20554.95
468.449	21707.96
468.654	21109.95
468.859	20681.92
469.064	20716.74
469.269	19815.63
469.474	20008.14
469.679	20403.4
469.885	19815.63
470.09	20133.07
470.295	20061.39
470.5	19528.92
470.705	19725.52
470.91	19209.43
471.115	19166.43
471.32	19322.07
471.525	19248.35
471.73	18488.55
471.935	18648.29
472.139	18048.24
472.344	18250.99
472.549	18175.21
472.754	17736.95
472.959	17425.65
473.164	17382.65
473.369	16917.76
473.574	17507.57
473.778	17433.85
473.983	17595.64
474.188	17255.67
474.393	16663.81
474.598	16538.88
474.802	16225.54
475.007	16282.89
475.212	16153.87
475.417	15854.86
475.621	15787.28
475.826	15787.28
476.031	15244.57
476.235	15336.73
476.44	15330.58
476.645	15127.83
476.849	15140.12
477.054	15011.1
477.259	14503.2
477.463	14714.14
477.668	14155.05
477.872	14662.94
478.077	14028.07
478.282	13745.45
478.486	13757.74
478.691	13688.11
478.895	13770.03
479.1	13616.43
479.304	13649.2
479.509	13071.67
479.713	13532.47
479.918	13090.1
480.122	13028.67
480.326	13145.4
480.531	12965.18
480.735	12995.9
480.94	12733.76
481.144	13075.77
481.348	12625.22
481.553	12748.09
481.757	12576.06
481.961	12666.17
482.166	12827.96
482.37	12715.33
482.574	12422.47
482.778	12590.4
482.983	12850.49
483.187	12643.65
483.391	12809.53
483.595	12496.19
483.8	12625.22
484.004	12625.22
484.208	12731.71
484.412	12522.82
484.616	12625.22
484.821	12612.93
485.025	12381.51
485.229	12641.6
485.433	12664.13
485.637	12647.74
485.841	12721.47
486.045	12444.99
486.249	12649.79
486.453	12541.25
486.657	12549.44
486.861	12518.72
487.065	12549.44
487.269	12569.92
487.473	12313.92
487.677	12498.24
487.881	12635.46
488.085	12455.23
488.289	12510.53
488.493	12318.02
488.697	12473.67
488.901	12744
489.105	12819.77
489.309	12827.96
489.512	12531.01
489.716	12606.78
489.92	12442.95
490.124	12637.5
490.328	12913.98
490.531	12774.72
490.735	12807.48
490.939	12813.63
491.143	12858.68
491.346	12721.47
491.55	13024.57
491.754	12979.51
491.958	13188.41
492.161	13260.09
492.365	13192.5
492.569	13120.82
492.772	13032.76
492.976	13237.56
493.18	13337.91
493.383	13690.16
493.587	13653.3
493.79	13821.23
493.994	13514.03
494.197	13827.37
494.401	13767.98
494.605	13847.85
494.808	14210.34
495.012	14189.86
495.215	14103.85
495.419	14196.01
495.622	14208.3
495.825	14533.92
496.029	14533.92
496.232	14994.72
496.436	14652.7
496.639	15017.24
496.843	15127.83
497.046	15279.38
497.249	15508.76
497.453	15623.44
497.656	15805.71
497.859	15617.3
498.063	15957.26
498.266	16250.12
498.469	16442.63
498.673	16532.74
498.876	16475.4
499.079	16932.09
499.282	16782.59
499.485	17081.6
499.689	17341.69
499.892	17642.74
500.095	17419.51
500.298	18361.58
500.501	17919.21
500.705	18130.16
500.908	18230.51
501.111	18679.01
501.314	18812.13
501.517	18799.84
501.72	19297.5
501.923	19043.55
502.126	19825.87
502.329	20114.64
502.532	19997.9
502.735	19950.8
502.938	20663.49
503.141	20479.18
503.344	20765.89
503.547	20831.43
503.75	20987.07
503.953	21640.37
504.156	21892.27
504.359	21910.71
504.562	21984.43
504.765	22613.16
504.968	22770.85
505.17	22742.18
505.373	22985.89
505.576	23686.29
505.779	23649.43
505.982	23831.7
506.185	24229.01
506.387	24331.4
506.59	24343.69
506.793	24931.46
506.996	24575.11
507.198	25662.58
507.401	25478.27
507.604	26008.69
507.807	26268.78
508.009	26262.64
508.212	26512.49
508.415	26604.65
508.617	27374.69
508.82	27405.41
509.022	27417.69
509.225	27901.01
509.428	28200.02
509.63	28433.49
509.833	28548.17
510.035	29385.79
510.238	28699.72
510.44	29363.26
510.643	29862.97
510.845	29934.65
511.048	29869.11
511.25	30035
511.453	30614.57
511.655	31374.37
511.858	31056.93
512.06	31822.87
512.262	31730.72
512.465	31994.9
512.667	31978.52
512.87	32541.71
513.072	32805.9
513.274	33106.95
513.477	33571.84
513.679	33666.05
513.881	34036.73
514.084	34444.27
514.286	34884.59
514.488	34696.17
514.69	35597.28
514.893	35519.46
515.095	35646.43
515.297	36125.66
515.499	36619.22
515.701	36852.69
515.904	37282.76
516.106	37303.24
516.308	37284.81
516.51	38058.94
516.712	38190.01
516.914	38558.64
517.116	38865.84
517.318	39394.21
517.52	39560.1
517.722	39404.45
517.925	40182.68
518.127	40371.1
518.329	40606.61
518.531	40375.19
518.733	41487.24
518.935	41540.49
519.136	41192.33
519.338	42060.67
519.54	42476.41
519.742	42515.32
519.944	42777.46
520.146	43377.51
520.348	43295.6
520.55	43688.81
520.752	43514.73
520.954	44235.61
521.155	44170.08
521.357	45032.27
521.559	45417.29
521.761	45476.68
521.963	45671.24
522.164	45906.76
522.366	45900.61
522.568	46117.7
522.77	46564.15
522.971	47274.8
523.173	46424.89
523.375	47448.88
523.576	47088.43
523.778	47446.83
523.98	48259.87
524.181	48274.21
524.383	48583.45
524.584	48800.54
524.786	48556.83
524.988	48786.2
525.189	49056.53
525.391	49267.47
525.592	49634.06
525.794	49679.11
525.995	49853.19
526.197	50092.8
526.398	50109.19
526.6	50670.33
526.801	50412.29
527.003	50592.51
527.204	50967.29
527.406	51499.76
527.607	51061.49
527.808	52087.53
528.01	50789.11
528.211	51641.07
528.412	52394.72
528.614	51849.96
528.815	52124.39
529.016	52189.92
529.218	51813.1
529.419	52114.15
529.62	51915.5
529.822	52169.44
530.023	52663
530.224	52404.96
530.425	52654.81
530.626	52214.5
530.828	52042.47
531.029	53428.94
531.23	52521.69
531.431	52681.44
531.632	52947.67
531.833	53048.02
532.035	52824.79
532.236	53293.78
532.437	53347.03
532.638	52935.38
532.839	52882.14
533.04	53312.21
533.241	52562.65
533.442	53500.62
533.643	52959.96
533.844	53287.63
534.045	53605.07
534.246	52751.07
534.447	53693.13
534.648	53281.49
534.849	53643.98
535.05	52982.49
535.251	53336.79
535.451	52878.04
535.652	53639.89
535.853	53299.92
536.054	53189.33
536.255	53410.51
536.456	53349.07
536.657	53951.18
536.857	53027.54
537.058	53574.35
537.259	53582.54
537.46	53566.16
537.66	53447.38
537.861	53379.79
538.062	53052.12
538.263	53697.23
538.463	53420.75
538.664	53412.56
538.865	53517.01
539.065	53437.14
539.266	53226.2
539.466	53734.09
539.667	53439.18
539.868	53779.15
540.068	53408.47
540.269	53267.16
540.469	53693.13
540.67	52923.1
540.87	53220.05
541.071	53209.81
541.271	53361.36
541.472	53603.02
541.672	53101.27
541.873	53349.07
542.073	52699.87
542.274	53582.54
542.474	53263.06
542.675	52886.23
542.875	53439.18
543.075	53103.32
543.276	52630.24
543.476	53408.47
543.676	53187.28
543.877	53416.66
544.077	53027.54
544.277	53144.28
544.478	52964.06
544.678	53175
544.878	53156.56
545.078	53527.25
545.279	53070.55
545.479	52875.99
545.679	53156.56
545.879	53459.66
546.079	52882.14
546.28	52820.7
546.48	52558.56
546.68	53361.36
546.88	52699.87
547.08	53076.69
547.28	53017.3
547.48	52572.89
547.68	52832.99
547.88	52636.38
548.081	53084.89
548.281	52857.56
548.481	52695.77
548.681	53117.65
548.881	53111.51
549.081	52919
549.28	52824.79
549.48	52943.58
549.68	52863.71
549.88	53201.62
550.08	52744.92
550.28	52781.79
550.48	52740.83
550.68	53332.69
550.88	52443.87
551.08	52738.78
551.279	53148.37
551.479	52554.46
551.679	53062.36
551.879	53140.18
552.079	52835.03
552.278	52601.57
552.478	52703.96
552.678	53027.54
552.878	53058.26
553.077	52560.61
553.277	52304.61
553.477	53160.66
553.676	52538.08
553.876	52531.93
554.076	52591.33
554.275	52826.84
554.475	52314.85
554.674	52607.71
554.874	52652.76
555.074	52206.31
555.273	52812.51
555.473	52202.21
555.672	52663
555.872	52230.88
556.071	52304.61
556.271	53060.31
556.47	52194.02
556.67	52011.75
556.869	52095.72
557.068	52734.68
557.268	52130.53
557.467	52280.03
557.667	51772.14
557.866	51819.24
558.065	52013.8
558.265	51964.65
558.464	51940.07
558.663	52337.38
558.863	51651.31
559.062	52165.35
559.261	51264.24
559.461	52265.7
559.66	51669.74
559.859	51641.07
560.058	51387.12
560.258	51759.85
560.457	50881.27
560.656	51835.63
560.855	51475.18
561.054	51757.8
561.253	50887.42
561.453	51129.08
561.652	51354.35
561.851	51536.62
562.05	51512.05
562.249	50617.08
562.448	51524.33
562.647	51354.35
562.846	51233.52
563.045	51153.65
563.244	50658.04
563.443	51423.98
563.642	50862.84
563.841	50862.84
564.04	50703.1
564.239	50916.09
564.438	50543.36
564.637	50600.7
564.836	50445.05
565.035	49879.81
565.234	50293.5
565.432	50346.75
565.631	50455.29
565.83	50557.69
566.029	49701.64
566.228	50107.14
566.427	50342.66
566.625	49664.78
566.824	48980.76
567.023	49814.28
567.222	49093.39
567.42	50330.37
567.619	49638.15
567.818	49713.93
568.016	49158.93
568.215	50055.94
568.414	49285.9
568.612	49437.45
568.811	49359.63
569.01	49085.2
569.208	48632.6
569.407	49212.18
569.605	48589.59
569.804	48950.04
570.002	48831.25
570.201	48837.4
570.4	48446.24
570.598	48120.61
570.797	48251.68
570.995	48542.49
571.193	47682.34
571.392	48716.57
571.59	47721.26
571.789	47948.58
571.987	47786.79
572.186	47946.53
572.384	47356.72
572.582	48241.44
572.781	47870.76
572.979	47461.16
573.177	47139.63
573.376	47776.55
573.574	47266.61
573.772	47444.78
573.971	47493.93
574.169	47031.09
574.367	46803.77
574.565	47676.2
574.763	47319.85
574.962	46582.59
575.16	46558.01
575.358	46869.3
575.556	45863.75
575.754	46971.7
575.952	46129.98
576.151	46680.89
576.349	45945.67
576.547	46168.9
576.745	46349.12
576.943	46299.97
577.141	45826.88
577.339	46179.14
577.537	45689.67
577.735	45648.71
577.933	45501.26
578.131	45652.81
578.329	45642.57
578.527	45253.45
578.725	45538.12
578.923	45097.81
579.121	44850
579.319	45106
579.516	45280.08
579.714	44854.1
579.912	44997.46
580.11	44716.89
580.308	45019.99
580.506	44637.01
580.704	43993.95
580.901	45036.37
581.099	44942.16
581.297	43985.76
581.495	43981.66
581.692	44237.66
581.89	43537.26
582.088	44049.25
582.285	43989.86
582.483	44039.01
582.681	43512.68
582.878	43195.24
583.076	43072.37
583.274	43449.19
583.471	42818.42
583.669	43533.16
583.866	42492.79
584.064	43232.11
584.262	42652.53
584.459	43168.62
584.657	42900.34
584.854	42705.78
585.052	41913.22
585.249	42838.9
585.447	42449.78
585.644	41833.35
585.841	41982.85
586.039	42746.74
586.236	42036.09
586.434	41462.66
586.631	41874.31
586.828	41612.17
587.026	41421.7
587.223	41718.66
587.42	41386.89
587.618	41589.64
587.815	40891.28
588.012	41048.97
588.21	40676.24
588.407	41081.74
588.604	40936.34
588.801	40657.81
588.999	40883.09
589.196	40522.65
589.393	40346.52
589.59	40113.05
589.787	40309.66
589.984	40170.4
590.182	39787.42
590.379	40254.36
590.576	39814.05
590.773	40057.76
590.97	39312.3
591.167	39719.84
591.364	39343.02
591.561	39435.17
591.758	39021.48
591.955	39101.36
592.152	39480.23
592.349	39390.12
592.546	39123.88
592.743	38845.36
592.94	38491.06
593.137	38632.37
593.334	38726.58
593.531	38046.65
593.727	38415.29
593.924	38257.59
594.121	37729.22
594.318	38173.63
594.515	37618.63
594.712	38325.18
594.908	37749.7
595.105	38194.11
595.302	37417.93
595.499	37950.4
595.696	37624.77
595.892	37387.21
596.089	37389.25
596.286	37757.89
596.482	37153.74
596.679	37059.53
596.876	37157.83
597.072	36525.01
597.269	36586.45
597.466	36705.23
597.662	36432.85
597.859	36240.34
598.055	36408.28
598.252	36271.06
598.448	36299.73
598.645	36088.79
598.841	35728.35
599.038	36045.79
599.234	35783.65
599.431	35550.18
599.627	35648.48
599.824	35787.74
600.02	35439.59
600.217	35443.68
600.413	34843.63
600.609	34907.12
600.806	34835.44
601.002	35040.23
601.198	34626.54
601.395	34511.86
601.591	34991.08
601.787	34712.56
601.984	34685.93
602.18	34792.43
602.376	34474.99
602.572	33997.82
602.769	34245.62
602.965	33715.2
603.161	34014.2
603.357	33569.79
603.553	33735.68
603.75	33743.87
603.946	33143.81
604.142	33326.08
604.338	33053.7
604.534	33489.92
604.73	33240.07
604.926	32953.35
605.122	32930.83
605.318	32879.63
605.514	32873.48
605.71	32752.65
605.906	32793.61
606.102	32472.08
606.298	32615.44
606.494	32551.95
606.69	32353.3
606.886	32076.82
607.082	31878.17
607.278	32154.65
607.474	31892.51
607.67	32320.53
607.866	31478.82
608.062	32152.6
608.257	32017.43
608.453	31601.69
608.649	31728.67
608.845	31611.93
609.041	31837.21
609.236	31765.53
609.432	31355.94
609.628	31689.76
609.824	31466.53
610.019	31056.93
610.215	31491.1
610.411	31505.44
610.606	31093.8
610.802	31112.23
610.998	31181.86
611.193	31171.62
611.389	30802.99
611.584	30503.98
611.78	30874.66
611.976	31005.73
612.171	30716.97
612.367	30458.93
612.562	30395.44
612.758	30366.77
612.953	30286.9
613.149	30610.48
613.344	30139.44
613.539	30893.1
613.735	30270.51
613.93	30336.05
614.126	30546.99
614.321	30383.15
614.517	30225.46
614.712	30334
614.907	29770.81
615.103	30311.47
615.298	29942.84
615.493	30508.08
615.688	29682.75
615.884	30219.31
616.079	29641.79
616.274	29830.2
616.47	29566.01
616.665	29576.25
616.86	29684.8
617.055	29588.54
617.25	29176.9
617.445	29480
617.641	29242.43
617.836	29500.48
618.031	29011.01
618.226	29293.63
618.421	29029.45
618.616	29205.57
618.811	28576.84
619.006	28990.53
619.201	28443.73
619.396	28548.17
619.591	28044.37
619.786	28660.81
619.981	27944.02
620.176	28636.24
620.371	27794.52
620.566	28073.04
620.761	27909.21
620.956	27728.98
621.151	27491.42
621.346	27499.61
621.541	27155.55
621.735	27507.8
621.93	27024.48
622.125	27307.1
622.32	26690.66
622.515	26702.95
622.709	26766.44
622.904	26776.68
623.099	26618.99
623.294	26346.61
623.488	26063.99
623.683	26006.64
623.878	25732.22
624.072	25836.66
624.267	25558.14
624.462	25554.04
624.656	25461.88
624.851	25244.8
625.046	25058.43
625.24	25066.63
625.435	24798.34
625.629	24712.33
625.824	24362.12
626.018	24503.43
626.213	24216.72
626.407	24353.93
626.602	23764.12
626.796	24345.74
626.991	23970.96
627.185	23901.33
627.38	23631
627.574	23452.83
627.768	23317.66
627.963	23366.81
628.157	22938.79
628.352	23112.86
628.546	22594.73
628.74	22912.16
628.935	22678.69
629.129	22641.83
629.323	22373.55
629.517	22379.69
629.712	22328.49
629.906	21892.27
630.1	21886.13
630.294	21925.04
630.489	21667
630.683	21873.84
630.877	21185.72
631.071	21359.8
631.265	21517.5
631.459	21021.89
631.653	21095.61
631.848	21013.7
632.042	20890.82
632.236	20964.54
632.43	20659.4
632.624	20759.75
632.818	20765.89
633.012	20227.28
633.206	20407.5
633.4	20237.52
633.594	20126.92
633.788	19698.9
633.982	19856.59
634.176	19764.43
634.369	19729.62
634.563	19694.8
634.757	19360.98
634.951	19475.67
635.145	19440.86
635.339	19358.94
635.533	19248.35
635.726	19016.93
635.92	18719.97
636.114	18715.87
636.308	18605.28
636.501	18943.2
636.695	18574.56
636.889	18607.33
637.083	18425.06
637.276	18384.1
637.47	18173.16
637.664	18273.51
637.857	18091.24
638.051	18040.04
638.244	17829.1
638.438	17761.52
638.632	17788.14
638.825	17845.49
639.019	17415.41
639.212	17315.06
639.406	17374.45
639.599	17337.59
639.793	17331.45
639.986	17050.88
640.18	17278.2
640.373	16964.86
640.567	16667.91
640.76	16770.3
640.954	16596.23
641.147	16585.99
641.34	16641.28
641.534	16557.32
641.727	16649.47
641.92	16391.43
642.114	16094.47
642.307	16135.43
642.5	16184.59
642.694	15912.21
642.887	15826.19
643.08	15983.88
643.273	15809.81
643.467	15824.14
643.66	15467.8
643.853	15502.61
644.046	15265.05
644.239	15357.21
644.432	15310.1
644.626	15179.03
644.819	15267.1
645.012	14953.76
645.205	14734.62
645.398	14970.14
645.591	14982.43
645.784	14673.18
645.977	14662.94
646.17	14652.7
646.363	14581.03
646.556	14626.08
646.749	14374.18
646.942	14482.72
647.135	14345.51
647.328	14206.25
647.521	13956.4
647.714	13962.54
647.907	13798.7
648.099	13759.79
648.292	13659.44
648.485	13722.93
648.678	13550.9
648.871	13602.1
649.064	13354.29
649.256	13305.14
649.449	13319.48
649.642	13114.68
649.835	12967.23
650.027	13358.39
650.22	13141.3
650.413	13229.37
650.605	13051.19
650.798	12909.88
650.991	12711.23
651.183	12764.48
651.376	12737.85
651.568	12741.95
651.761	12547.39
651.954	12514.63
652.146	12588.35
652.339	12494.15
652.531	12365.12
652.724	12338.5
652.916	11896.14
653.109	12025.16
653.301	12254.53
653.494	12113.22
653.686	12025.16
653.879	11949.39
654.071	11984.2
654.263	11609.42
654.456	11812.17
654.648	11783.5
654.84	11345.23
655.033	11812.17
655.225	11556.18
655.417	11330.9
655.61	11429.2
655.802	11332.95
655.994	10990.94
656.186	11367.76
656.379	11199.83
656.571	11128.15
656.763	10925.4
656.955	11017.56
657.148	11021.66
657.34	10917.21
657.532	10712.41
657.724	10825.05
657.916	10841.43
658.108	10777.95
658.3	10380.64
658.492	10710.36
658.684	10368.35
658.876	10403.17
659.068	10437.98
659.26	9944.42
659.452	10245.48
659.644	10253.67
659.836	10067.3
660.028	10108.26
660.22	9993.58
660.412	9936.23
660.604	9698.67
660.796	9889.13
660.988	9796.97
661.18	9891.18
661.372	9641.32
661.563	9858.41
661.755	9684.33
661.947	9696.62
662.139	9522.54
662.331	9487.73
662.522	9467.25
662.714	9422.19
662.906	9342.32
663.097	9305.46
663.289	9274.74
663.481	9164.15
663.673	9184.63
663.864	9205.11
664.056	8902.01
664.247	8797.56
664.439	8990.07
664.631	9065.85
664.822	8912.25
665.014	8727.93
665.205	8854.9
665.397	8873.34
665.588	8953.21
665.78	8693.12
665.971	8596.86
666.163	8748.41
666.354	8680.83
666.546	8635.77
666.737	8478.08
666.929	8312.19
667.12	8562.05
667.311	8357.25
667.503	8232.32
667.694	8410.5
667.885	8146.31
668.077	8299.91
668.268	8277.38
668.459	8246.66
668.651	8029.57
668.842	8091.01
669.033	7925.13
669.224	7933.32
669.416	7996.81
669.607	7990.66
669.798	7839.11
669.989	7974.28
670.18	7953.8
670.371	7843.21
670.563	7816.58
670.754	7945.61
670.945	7609.74
671.136	7585.16
671.327	7673.23
671.518	7587.21
671.709	7507.34
671.9	7515.53
672.091	7523.73
672.282	7466.38
672.473	7468.43
672.664	7314.83
672.855	7396.75
673.046	7382.42
673.237	7396.75
673.428	7325.07
673.619	7323.02
673.809	7107.99
674	7114.13
674.191	7155.09
674.382	7169.43
674.573	7142.8
674.764	7030.16
674.954	7245.2
675.145	6956.44
675.336	6966.68
675.527	6927.77
675.717	6868.38
675.908	6847.9
676.099	6788.5
676.289	6913.43
676.48	6821.27
676.671	6759.83
676.861	6843.8
677.052	6841.75
677.243	6622.62
677.433	6727.07
677.624	6774.17
677.814	6745.5
678.005	6864.28
678.195	6561.18
678.386	6729.11
678.576	6624.67
678.767	6358.43
678.957	6503.84
679.148	6620.57
679.338	6618.52
679.529	6536.6
679.719	6362.53
679.909	6579.61
680.1	6448.54
680.29	6462.88
680.481	6493.6
680.671	6409.63
680.861	6348.19
681.052	6452.64
681.242	6278.56
681.432	6309.28
681.622	6333.86
681.813	6374.81
682.003	6241.7
682.193	6217.12
682.383	6262.18
682.573	6200.74
682.764	6116.77
682.954	6151.59
683.144	6041
683.334	6258.08
683.524	6139.3
683.714	6053.28
683.904	5957.03
684.094	5977.51
684.284	5944.74
684.474	6055.33
684.664	5907.88
684.854	5938.6
685.044	6180.26
685.234	5893.54
685.424	5924.26
685.614	5926.31
685.804	5940.65
685.994	5815.72
686.184	5756.33
686.374	5789.1
686.564	5797.29
686.753	5844.39
686.943	5733.8
687.133	5758.38
687.323	5653.93
687.513	5721.51
687.702	5625.26
687.892	5672.36
688.082	5580.2
688.272	5477.8
688.461	5455.28
688.651	5578.15
688.841	5361.07
689.03	5406.13
689.22	5410.22
689.41	5352.88
689.599	5275.06
689.789	5330.35
689.979	5330.35
690.168	5375.41
690.358	5195.18
690.547	5146.03
690.737	5377.45
690.926	5162.42
691.116	5117.36
691.305	5195.18
691.495	5313.97
691.684	5023.16
691.874	5217.71
692.063	5105.07
692.252	5039.54
692.442	5004.72
692.631	4957.62
692.82	4965.81
693.01	5002.68
693.199	5010.87
693.388	4842.93
693.578	4771.26
693.767	4883.89
693.956	4851.13
694.146	4861.37
694.335	4765.11
694.524	4791.73
694.713	4668.86
694.902	4765.11
695.092	4644.28
695.281	4689.34
695.47	4720.06
695.659	4576.7
695.848	4599.23
696.037	4531.64
696.226	4605.37
696.415	4670.9
696.604	4761.02
696.793	4486.59
696.982	4531.64
697.171	4586.94
697.36	4511.16
697.549	4365.76
697.738	4349.37
697.927	4484.54
698.116	4378.05
698.305	4312.51
698.494	4236.74
698.683	4359.61
698.872	4320.7
699.061	4484.54
699.25	4382.14
699.438	4466.11
699.627	4296.13
699.816	4310.46
700.005	4169.15
700.193	4148.67
700.382	4208.06
700.571	4224.45
700.76	4011.46
700.948	4423.1
701.137	4197.82
701.326	4130.24
701.514	4105.67
701.703	4236.74
701.892	4072.9
702.08	4181.44
702.269	4107.71
702.457	4150.72
702.646	4197.82
702.834	4109.76
703.023	4021.7
703.212	4189.63
703.4	4126.15
703.589	3896.77
703.777	3964.36
703.965	3954.12
704.154	4019.65
704.342	3978.69
704.531	4087.23
704.719	4007.36
704.907	3976.64
705.096	3898.82
705.284	3884.48
705.472	3927.49
705.661	3882.44
705.849	3937.73
706.037	4005.31
706.226	3851.72
706.414	3954.12
706.602	3777.99
706.79	3964.36
706.979	3759.56
707.167	3864.01
707.355	3790.28
707.543	4001.22
707.731	3712.46
707.919	4011.46
708.107	3843.53
708.296	3904.96
708.484	3868.1
708.672	3806.66
708.86	3671.5
709.048	3874.24
709.236	3831.24
709.424	3833.29
709.612	3771.85
709.8	3831.24
709.988	3630.54
710.176	3796.42
710.364	3712.46
710.551	3700.17
710.739	3581.39
710.927	3743.17
711.115	3612.1
711.303	3675.59
711.491	3749.32
711.679	3638.73
711.866	3632.58
712.054	3550.67
712.242	3558.86
712.43	3534.28
712.617	3665.35
712.805	3769.8
712.993	3665.35
713.181	3495.37
713.368	3673.54
713.556	3638.73
713.744	3446.22
713.931	3685.83
714.119	3567.05
714.306	3515.85
714.494	3538.38
714.682	3526.09
714.869	3417.55
715.057	3519.95
715.244	3597.77
715.432	3483.08
715.619	3325.39
715.807	3528.14
715.994	3425.74
716.182	3481.03
716.369	3558.86
716.556	3491.27
716.744	3499.47
716.931	3495.37
717.119	3429.84
717.306	3311.05
717.493	3446.22
717.681	3458.51
717.868	3501.51
718.055	3472.84
718.242	3401.16
718.43	3452.36
718.617	3435.98
718.804	3466.7
718.991	3407.31
719.179	3331.53
719.366	3384.78
719.553	3259.85
719.74	3474.89
719.927	3335.63
720.114	3460.56
720.301	3388.88
720.488	3360.2
720.676	3249.61
720.863	3274.19
721.05	3435.98
721.237	3384.78
721.424	3433.93
721.611	3395.02
721.798	3288.53
721.985	3358.16
722.172	3274.19
722.358	3317.2
722.545	3249.61
722.732	3139.02
722.919	3317.2
723.106	3274.19
723.293	3280.33
723.48	3225.04
723.667	3309.01
723.853	3311.05
724.04	3268.05
724.227	3417.55
724.414	3435.98
724.6	3175.89
724.787	3378.64
724.974	3352.01
725.161	3366.35
725.347	3266
725.534	3349.96
725.72	3413.45
725.907	3235.28
726.094	3360.2
726.28	3313.1
726.467	3231.18
726.653	3384.78
726.84	3220.94
727.027	3255.76
727.213	3311.05
727.4	3427.79
727.586	3292.62
727.773	3227.09
727.959	3143.12
728.145	3108.3
728.332	3294.67
728.518	3220.94
728.705	3227.09
728.891	3147.22
729.077	3159.5
729.264	3315.15
729.45	3272.14
729.636	3288.53
729.823	3165.65
730.009	3356.11
730.195	3341.77
730.382	3229.13
730.568	3214.8
730.754	3253.71
730.94	3403.21
731.126	3411.4
731.313	3177.94
731.499	3184.08
731.685	3300.81
731.871	3204.56
732.057	3284.43
732.243	3266
732.429	3319.25
732.615	3360.2
732.801	3292.62
732.987	3304.91
733.173	3198.42
733.359	3229.13
733.545	3229.13
733.731	3231.18
733.917	3331.53
734.103	3270.09
734.289	3276.24
734.475	3188.18
734.661	3229.13
734.847	3323.34
735.033	3237.33
735.219	3196.37
735.404	3251.66
735.59	3276.24
735.776	3266
735.962	3263.95
736.148	3261.9
736.333	3272.14
736.519	3161.55
736.705	3192.27
736.89	3175.89
737.076	3284.43
737.262	3214.8
737.447	3136.98
737.633	3286.48
737.819	3165.65
738.004	3212.75
738.19	3276.24
738.375	3266
738.561	3245.52
738.747	3245.52
738.932	3204.56
739.118	3294.67
739.303	3218.89
739.489	3175.89
739.674	3184.08
739.859	3175.89
740.045	3175.89
740.23	3179.98
740.416	3077.59
740.601	3167.7
740.786	3130.83
740.972	3134.93
741.157	3202.51
741.342	3163.6
741.528	3155.41
741.713	3050.96
741.898	3163.6
742.084	3057.11
742.269	3124.69
742.454	3134.93
742.639	3048.91
742.824	3167.7
743.01	3050.96
743.195	3100.11
743.38	3067.35
743.565	3098.06
743.75	3012.05
743.935	2979.28
744.12	3059.15
744.305	2840.02
744.49	3120.59
744.675	3014.1
744.86	3087.82
745.045	3059.15
745.23	2964.95
745.415	3003.86
745.6	2948.56
745.785	2891.22
745.97	3059.15
746.155	2883.03
746.34	2942.42
746.525	2844.12
746.71	2983.38
746.895	2778.58
747.079	2979.28
747.264	3010
747.449	2874.84
747.634	2932.18
747.819	2631.13
748.003	2719.19
748.188	2717.14
748.373	2778.58
748.557	2878.93
748.742	2690.52
748.927	2690.52
749.111	2797.01
749.296	2727.38
749.481	2667.99
749.665	2528.73
749.85	2692.57
750.034	2694.61
750.219	2551.26
750.404	2608.6
750.588	2635.22
750.773	2524.63
750.957	2618.84
751.141	2577.88
751.326	2618.84
751.51	2598.36
751.695	2602.46
751.879	2555.35
752.064	2481.63
752.248	2465.24
752.432	2596.31
752.617	2440.67
752.801	2514.39
752.985	2424.28
753.17	2401.76
753.354	2452.95
753.538	2459.1
753.722	2403.8
753.907	2399.71
754.091	2274.78
754.275	2237.92
754.459	2344.41
754.643	2199.01
754.828	2276.83
755.012	2340.32
755.196	2409.95
755.38	2282.97
755.564	2137.57
755.748	2227.68
755.932	2262.49
756.116	2217.44
756.3	2182.62
756.484	2182.62
756.668	2125.28
756.852	2131.42
757.036	1994.21
757.22	2211.29
757.404	2137.57
757.588	2024.93
757.772	2137.57
757.956	2090.46
758.14	2008.55
758.323	2000.35
758.507	2067.94
758.691	2031.07
758.875	1940.96
759.059	2010.59
759.242	1834.47
759.426	2045.41
759.61	1857
759.794	1926.63
759.977	2004.45
760.161	2010.59
760.345	1926.63
760.528	1881.57
760.712	1865.19
760.895	1857
761.079	1871.33
761.263	1895.91
761.446	1848.8
761.63	1920.48
761.813	1824.23
761.997	1832.42
762.18	1832.42
762.364	1820.13
762.547	1822.18
762.731	1738.21
762.914	1826.28
763.098	1678.82
763.281	1793.51
763.464	1768.93
763.648	1799.65
763.831	1795.56
764.015	1740.26
764.198	1738.21
764.381	1822.18
764.564	1697.25
764.748	1619.43
764.931	1717.73
765.114	1820.13
765.297	1752.55
765.481	1676.77
765.664	1678.82
765.847	1533.42
766.03	1713.64
766.213	1598.95
766.397	1658.34
766.58	1615.34
766.763	1555.94
766.946	1588.71
767.129	1641.96
767.312	1631.72
767.495	1699.3
767.678	1639.91
767.861	1615.34
768.044	1627.62
768.227	1687.01
768.41	1607.14
768.593	1545.7
768.776	1572.33
768.959	1578.47
769.142	1533.42
769.324	1555.94
769.507	1560.04
769.69	1535.46
769.873	1463.79
770.056	1549.8
770.239	1590.76
770.421	1523.18
770.604	1435.11
770.787	1500.65
770.97	1469.93
771.152	1482.22
771.335	1445.35
771.518	1504.75
771.7	1533.42
771.883	1435.11
772.066	1398.25
772.248	1457.64
772.431	1408.49
772.613	1469.93
772.796	1353.2
772.978	1441.26
773.161	1365.48
773.343	1383.91
773.526	1359.34
773.708	1347.05
773.891	1400.3
774.073	1326.57
774.256	1334.76
774.438	1367.53
774.621	1289.71
774.803	1299.95
774.985	1183.21
775.168	1330.67
775.35	1299.95
775.532	1316.33
775.715	1271.28
775.897	1254.89
776.079	1203.69
776.261	1230.32
776.444	1242.61
776.626	1228.27
776.808	1222.13
776.99	1285.61
777.173	1226.22
777.355	1279.47
777.537	1197.55
777.719	1121.77
777.901	1142.25
778.083	1134.06
778.265	1091.06
778.447	1089.01
778.629	1099.25
778.811	1172.97
778.993	1121.77
779.175	1082.86
779.357	1064.43
779.539	1023.47
779.721	962.03
779.903	1097.2
780.085	1179.12
780.267	1078.77
780.449	1064.43
780.631	1029.62
780.812	1035.76
780.994	1041.9
781.176	1058.29
781.358	1009.14
781.54	990.7
781.721	968.18
781.903	912.88
782.085	927.22
782.267	927.22
782.448	900.59
782.63	916.98
782.812	980.47
782.993	837.11
783.175	876.02
783.357	886.26
783.538	996.85
783.72	937.46
783.901	796.15
784.083	914.93
784.264	802.29
784.446	814.58
784.627	769.52
784.809	802.29
784.99	878.07
785.172	716.28
785.353	871.92
785.535	880.11
785.716	753.14
785.897	722.42
786.079	787.96
786.26	820.72
786.441	783.86
786.623	693.75
786.804	794.1
786.985	767.48
787.167	779.76
787.348	712.18
787.529	718.33
787.71	808.44
787.891	701.94
788.073	701.94
788.254	689.65
788.435	697.85
788.616	710.13
788.797	589.3
788.978	652.79
789.159	660.98
789.34	714.23
789.522	708.09
789.703	624.12
789.884	656.89
790.065	640.5
790.246	744.95
790.427	622.07
790.607	693.75
790.788	747
790.969	609.78
791.15	620.02
791.331	572.92
791.512	613.88
791.693	550.39
791.874	630.26
792.054	630.26
792.235	646.65
792.416	605.69
792.597	540.15
792.778	638.45
792.958	536.06
793.139	603.64
793.32	570.87
793.5	560.63
793.681	605.69
793.862	689.65
794.042	636.41
794.223	480.76
794.404	527.86
794.584	482.81
794.765	515.58
794.945	529.91
795.126	570.87
795.306	552.44
795.487	519.67
795.667	574.97
795.848	476.66
796.028	501.24
796.209	488.95
796.389	511.48
796.57	507.38
796.75	531.96
796.93	433.66
797.111	388.6
797.291	495.1
797.471	529.91
797.652	460.28
797.832	468.47
798.012	491
798.192	439.8
798.373	425.47
798.553	431.61
798.733	441.85
798.913	413.18
799.093	482.81
799.274	425.47
799.454	435.71
799.634	568.82
799.814	407.03
799.994	542.2
800.174	419.32
800.354	519.67
800.534	419.32
800.714	447.99
800.894	335.35
801.074	476.66
801.254	396.79
801.434	421.37
801.614	409.08
801.794	390.65
801.974	1097.2
802.154	368.12
802.334	388.6
802.514	396.79
802.693	439.8
802.873	386.55
803.053	370.17
803.233	415.23
803.413	357.88
803.592	376.31
803.772	411.13
803.952	388.6
804.131	392.7
804.311	361.98
804.491	415.23
804.67	325.12
804.85	392.7
805.03	409.08
805.209	478.71
805.389	370.17
805.568	251.39
805.748	302.59
805.928	247.29
806.107	376.31
806.287	370.17
806.466	302.59
806.646	351.74
806.825	318.97
807.004	261.63
807.184	421.37
807.363	427.51
807.543	337.4
807.722	310.78
807.901	357.88
808.081	347.64
808.26	269.82
808.439	343.55
808.619	278.01
808.798	323.07
808.977	228.86
809.156	394.75
809.336	288.25
809.515	376.31
809.694	325.12
809.873	296.44
810.052	288.25
810.231	392.7
810.411	292.35
810.59	302.59
810.769	329.21
810.948	294.4
811.127	222.72
811.306	292.35
811.485	310.78
811.664	402.94
811.843	275.96
812.022	282.11
812.201	312.83
812.38	378.36
812.559	280.06
812.737	255.48
812.916	292.35
813.095	261.63
813.274	314.88
813.453	286.2
813.632	329.21
813.811	286.2
813.989	220.67
814.168	294.4
814.347	224.76
814.526	175.61
814.704	366.07
814.883	310.78
815.062	206.33
815.24	245.24
815.419	224.76
815.598	271.87
815.776	226.81
815.955	275.96
816.133	247.29
816.312	318.97
816.49	167.42
816.669	204.28
816.847	251.39
817.026	235
817.204	263.68
817.383	202.24
817.561	306.68
817.74	251.39
817.918	230.91
818.097	247.29
818.275	185.85
818.453	290.3
818.632	269.82
818.81	235
818.988	255.48
819.167	167.42
819.345	196.09
819.523	261.63
819.701	138.75
819.879	198.14
820.058	210.43
820.236	278.01
820.414	206.33
820.592	249.34
820.77	235
820.948	218.62
821.127	71.17
821.305	220.67
821.483	132.61
821.661	265.72
821.839	206.33
822.017	134.65
822.195	181.76
822.373	323.07
822.551	130.56
822.729	251.39
822.907	130.56
823.085	261.63
823.262	185.85
823.44	151.04
823.618	177.66
823.796	230.91
823.974	157.18
824.152	159.23
824.329	132.61
824.507	151.04
824.685	251.39
824.863	159.23
825.04	155.13
825.218	179.71
825.396	185.85
825.574	112.13
825.751	222.72
825.929	214.52
826.107	177.66
826.284	138.75
826.462	177.66
826.639	161.28
826.817	153.09
826.994	206.33
827.172	116.22
827.349	192
827.527	167.42
827.704	165.37
827.882	175.61
828.059	206.33
828.237	173.57
828.414	169.47
828.591	83.45
828.769	245.24
828.946	165.37
829.124	163.33
829.301	198.14
829.478	181.76
829.655	130.56
829.833	130.56
830.01	116.22
830.187	189.95
830.364	200.19
830.542	167.42
830.719	181.76
830.896	110.08
831.073	151.04
831.25	148.99
831.427	105.98
831.604	138.75
831.782	185.85
831.959	136.7
832.136	50.69
832.313	175.61
832.49	130.56
832.667	97.79
832.844	183.81
833.021	177.66
833.198	132.61
833.374	157.18
833.551	15.87
833.728	202.24
833.905	108.03
834.082	122.37
834.259	124.41
834.436	122.37
834.612	132.61
834.789	108.03
834.966	97.79
835.143	153.09
835.319	87.55
835.496	85.5
835.673	118.27
835.85	130.56
836.026	103.93
836.203	171.52
836.38	169.47
836.556	163.33
836.733	126.46
836.909	171.52
837.086	110.08
837.262	22.02
837.439	148.99
837.616	93.69
837.792	81.41
837.968	183.81
838.145	140.8
838.321	126.46
838.498	132.61
838.674	181.76
838.851	153.09
839.027	171.52
839.203	124.41
839.38	146.94
839.556	105.98
839.732	108.03
839.909	148.99
840.085	157.18
840.261	67.07
840.437	130.56
840.614	79.36
840.79	128.51
840.966	124.41
841.142	189.95
841.318	87.55
841.494	95.74
841.671	130.56
841.847	75.26
842.023	136.7
842.199	93.69
842.375	148.99
842.551	81.41
842.727	56.83
842.903	177.66
843.079	3.58
843.255	148.99
843.431	93.69
843.607	97.79
843.783	-0.51
843.959	118.27
844.134	85.5
844.31	118.27
844.486	91.65
844.662	97.79
844.838	40.45
845.013	75.26
845.189	151.04
845.365	67.07
845.541	151.04
845.716	89.6
845.892	122.37
846.068	69.12
846.244	69.12
846.419	105.98
846.595	-16.9
846.77	32.26
846.946	153.09
847.122	103.93
847.297	83.45
847.473	202.24
847.648	40.45
847.824	44.54
847.999	-8.7
848.175	30.21
848.35	56.83
848.526	114.17
848.701	89.6
848.876	144.89
849.052	77.31
849.227	91.65
849.403	67.07
849.578	101.89
849.753	-35.33
849.929	52.74
850.104	-2.56
850.279	130.56
850.454	83.45
850.63	132.61
850.805	56.83
850.98	36.35
851.155	91.65
851.33	75.26
851.505	48.64
851.681	132.61
851.856	81.41
852.031	81.41
852.206	54.78
852.381	120.32
852.556	126.46
852.731	101.89
852.906	69.12
853.081	71.17
853.256	44.54
853.431	140.8
853.606	52.74
853.781	67.07
853.956	97.79
854.131	81.41
854.305	30.21
854.48	81.41
854.655	87.55
854.83	85.5
855.005	17.92
855.18	79.36
855.354	120.32
855.529	91.65
855.704	97.79
855.879	58.88
856.053	7.68
856.228	71.17
856.403	34.3
856.577	75.26
856.752	24.06
856.926	54.78
857.101	19.97
857.276	30.21
857.45	52.74
857.625	110.08
857.799	15.87
857.974	91.65
858.148	19.97
858.323	40.45
858.497	24.06
858.672	15.87
858.846	24.06
859.02	15.87
859.195	44.54
859.369	44.54
859.543	85.5
859.718	83.45
859.892	38.4
860.066	69.12
860.241	-33.28
860.415	103.93
860.589	34.3
860.763	54.78
860.938	73.21
861.112	42.5
861.286	-29.18
861.46	114.17
861.634	81.41
861.808	71.17
861.982	-4.61
862.157	48.64
862.331	11.78
862.505	52.74
862.679	71.17
862.853	93.69
863.027	-51.71
863.201	138.75
863.375	46.59
863.549	9.73
863.722	77.31
863.896	118.27
864.07	69.12
864.244	-29.18
864.418	7.68
864.592	1.54
864.766	26.11
864.939	71.17
865.113	-90.62
865.287	97.79
865.461	-6.66
865.634	-59.9
865.808	-53.76
865.982	-68.09
866.156	62.98
866.329	36.35
866.503	11.78
866.676	60.93
866.85	103.93
867.024	7.68
867.197	13.82
867.371	77.31
867.544	93.69
867.718	24.06
867.891	73.21
868.065	5.63
868.238	124.41
868.412	67.07
868.585	73.21
868.759	42.5
868.932	9.73
869.105	-18.94
869.279	65.02
869.452	22.02
869.625	67.07
869.799	24.06
869.972	32.26
870.145	9.73
870.319	97.79
870.492	54.78
870.665	95.74
870.838	3.58
871.011	1.54
871.185	5.63
871.358	7.68
871.531	101.89
871.704	13.82
871.877	71.17
872.05	5.63
872.223	50.69
872.396	36.35
872.569	-2.56
872.742	30.21
872.915	26.11
873.088	9.73
873.261	42.5
873.434	38.4
873.607	46.59
873.78	81.41
873.953	19.97
874.126	28.16
874.299	26.11
874.471	69.12
874.644	26.11
874.817	32.26
874.99	134.65
875.163	-57.86
875.335	65.02
875.508	7.68
875.681	97.79
875.853	50.69
876.026	-33.28
876.199	-27.14
876.371	32.26
876.544	101.89
876.717	3.58
876.889	11.78
877.062	65.02
877.234	-33.28
877.407	26.11
877.579	-33.28
877.752	83.45
877.924	-4.61
878.097	56.83
878.269	-31.23
878.442	15.87
878.614	15.87
878.786	65.02
878.959	19.97
879.131	34.3
879.303	9.73
879.476	56.83
879.648	58.88
879.82	7.68
879.993	48.64
880.165	19.97
880.337	-47.62
880.509	46.59
880.681	11.78
880.854	5.63
881.026	-12.8
881.198	93.69
881.37	24.06
881.542	17.92
881.714	50.69
881.886	-76.29
882.058	-27.14
882.23	36.35
882.402	-18.94
882.574	73.21
882.746	50.69
882.918	30.21
883.09	28.16
883.262	44.54
883.434	40.45
883.606	-31.23
883.778	19.97
883.95	91.65
884.122	1.54
884.293	103.93
884.465	7.68
884.637	58.88
884.809	38.4
884.98	36.35
885.152	50.69
885.324	97.79
885.496	56.83
885.667	34.3
885.839	40.45
886.011	-16.9
886.182	69.12
886.354	105.98
886.525	48.64
886.697	50.69
886.869	17.92
887.04	7.68
887.212	50.69
887.383	42.5
887.555	56.83
887.726	62.98
887.897	-29.18
888.069	60.93
888.24	7.68
888.412	17.92
888.583	-25.09
888.754	65.02
888.926	5.63
889.097	34.3
889.268	13.82
889.44	-6.66
889.611	15.87
889.782	77.31
889.953	-18.94
890.125	60.93
890.296	-8.7
890.467	-0.51
890.638	-25.09
890.809	56.83
890.98	-12.8
891.151	11.78
891.323	17.92
891.494	-45.57
891.665	38.4
891.836	13.82
892.007	38.4
892.178	44.54
892.349	3.58
892.52	50.69
892.691	93.69
892.862	-8.7
893.032	-14.85
893.203	24.06
893.374	48.64
893.545	36.35
893.716	79.36
893.887	-27.14
894.057	30.21
894.228	19.97
894.399	19.97
894.57	19.97
894.74	-31.23
894.911	32.26
895.082	-14.85
895.253	32.26
895.423	-27.14
895.594	-4.61
895.764	-23.04
895.935	36.35
896.106	-51.71
896.276	19.97
896.447	-12.8
896.617	-6.66
896.788	1.54
896.958	-45.57
897.129	-18.94
897.299	87.55
897.47	116.22
897.64	36.35
897.81	-27.14
897.981	5.63
898.151	-43.52
898.322	-0.51
898.492	26.11
898.662	46.59
898.832	-49.66
899.003	42.5
899.173	24.06
899.343	22.02
899.513	-8.7
