Data from USB4F104151__31__12-41-14-034.txt Node

Date: Fri Mar 14 12:41:14 EDT 2025
User: louis
Spectrometer: USB4F10415
Trigger mode: 4
Integration Time (sec): 3.000000E-2
Scans to average: 1
Electric dark correction enabled: true
Nonlinearity correction enabled: false
Boxcar width: 0
XAxis mode: Wavelengths
Number of Pixels in Spectrum: 3648
>>>>>Begin Spectral Data<<<<<
178.204	-170.49
178.424	-170.49
178.644	-170.49
178.864	-137.73
179.084	-150.01
179.304	38.4
179.524	-51.71
179.744	11.78
179.964	-55.81
180.184	1.54
180.404	-0.51
180.624	50.69
180.844	-31.23
181.064	-53.76
181.283	24.06
181.503	11.78
181.723	54.78
181.943	-12.8
182.163	110.08
182.383	50.69
182.602	38.4
182.822	54.78
183.042	97.79
183.262	3.58
183.482	93.69
183.701	54.78
183.921	34.3
184.141	-16.9
184.361	44.54
184.58	26.11
184.8	124.41
185.02	19.97
185.239	87.55
185.459	62.98
185.679	65.02
185.898	15.87
186.118	69.12
186.338	-0.51
186.557	71.17
186.777	1.54
186.997	30.21
187.216	-6.66
187.436	3.58
187.655	-4.61
187.875	56.83
188.095	108.03
188.314	114.17
188.534	75.26
188.753	48.64
188.973	75.26
189.192	48.64
189.412	75.26
189.631	17.92
189.851	-39.42
190.07	110.08
190.29	24.06
190.509	40.45
190.729	-12.8
190.948	73.21
191.168	97.79
191.387	91.65
191.607	30.21
191.826	77.31
192.045	81.41
192.265	-6.66
192.484	26.11
192.704	42.5
192.923	5.63
193.142	54.78
193.362	42.5
193.581	73.21
193.8	-14.85
194.02	-14.85
194.239	58.88
194.458	34.3
194.678	-4.61
194.897	69.12
195.116	40.45
195.335	9.73
195.555	42.5
195.774	-12.8
195.993	71.17
196.212	34.3
196.432	42.5
196.651	13.82
196.87	81.41
197.089	48.64
197.308	95.74
197.528	87.55
197.747	32.26
197.966	-27.14
198.185	65.02
198.404	42.5
198.623	105.98
198.842	-39.42
199.062	116.22
199.281	75.26
199.5	-66.05
199.719	-14.85
199.938	97.79
200.157	73.21
200.376	5.63
200.595	26.11
200.814	-31.23
201.033	46.59
201.252	65.02
201.471	-14.85
201.69	48.64
201.909	36.35
202.128	-10.75
202.347	9.73
202.566	48.64
202.785	-12.8
203.004	44.54
203.223	97.79
203.442	-12.8
203.661	34.3
203.879	87.55
204.098	34.3
204.317	-47.62
204.536	120.32
204.755	62.98
204.974	38.4
205.193	44.54
205.411	71.17
205.63	26.11
205.849	85.5
206.068	48.64
206.287	79.36
206.505	-59.9
206.724	-55.81
206.943	58.88
207.162	50.69
207.381	1.54
207.599	3.58
207.818	-35.33
208.037	-18.94
208.255	11.78
208.474	87.55
208.693	34.3
208.911	48.64
209.13	46.59
209.349	40.45
209.567	7.68
209.786	77.31
210.005	42.5
210.223	3.58
210.442	-14.85
210.661	36.35
210.879	15.87
211.098	15.87
211.316	-14.85
211.535	40.45
211.753	22.02
211.972	58.88
212.191	75.26
212.409	28.16
212.628	73.21
212.846	67.07
213.065	44.54
213.283	112.13
213.502	9.73
213.72	17.92
213.938	38.4
214.157	9.73
214.375	40.45
214.594	56.83
214.812	30.21
215.031	13.82
215.249	65.02
215.467	58.88
215.686	67.07
215.904	28.16
216.122	-16.9
216.341	50.69
216.559	138.75
216.778	71.17
216.996	-8.7
217.214	-31.23
217.432	36.35
217.651	42.5
217.869	9.73
218.087	-4.61
218.306	52.74
218.524	79.36
218.742	11.78
218.96	36.35
219.179	38.4
219.397	46.59
219.615	130.56
219.833	13.82
220.051	3.58
220.27	13.82
220.488	15.87
220.706	-6.66
220.924	65.02
221.142	-33.28
221.36	40.45
221.578	1.54
221.796	44.54
222.015	13.82
222.233	-10.75
222.451	65.02
222.669	-68.09
222.887	9.73
223.105	-35.33
223.323	48.64
223.541	-39.42
223.759	15.87
223.977	65.02
224.195	36.35
224.413	26.11
224.631	30.21
224.849	71.17
225.067	17.92
225.285	-14.85
225.503	28.16
225.721	-55.81
225.939	97.79
226.157	103.93
226.375	75.26
226.592	52.74
226.81	-10.75
227.028	-2.56
227.246	97.79
227.464	-33.28
227.682	54.78
227.9	97.79
228.117	-0.51
228.335	56.83
228.553	136.7
228.771	-10.75
228.989	93.69
229.206	26.11
229.424	-12.8
229.642	24.06
229.86	-20.99
230.077	103.93
230.295	30.21
230.513	77.31
230.731	50.69
230.948	48.64
231.166	116.22
231.384	52.74
231.601	7.68
231.819	42.5
232.037	38.4
232.254	54.78
232.472	32.26
232.689	-70.14
232.907	83.45
233.125	32.26
233.342	-18.94
233.56	19.97
233.777	69.12
233.995	73.21
234.213	11.78
234.43	46.59
234.648	9.73
234.865	36.35
235.083	-16.9
235.3	-10.75
235.518	38.4
235.735	99.84
235.953	-35.33
236.17	-31.23
236.388	93.69
236.605	13.82
236.822	110.08
237.04	22.02
237.257	103.93
237.475	-2.56
237.692	69.12
237.909	73.21
238.127	50.69
238.344	-12.8
238.562	62.98
238.779	15.87
238.996	1.54
239.214	17.92
239.431	67.07
239.648	-6.66
239.865	19.97
240.083	105.98
240.3	30.21
240.517	-27.14
240.735	40.45
240.952	99.84
241.169	77.31
241.386	-4.61
241.603	-8.7
241.821	1.54
242.038	54.78
242.255	15.87
242.472	40.45
242.689	75.26
242.907	62.98
243.124	-20.99
243.341	28.16
243.558	95.74
243.775	46.59
243.992	-27.14
244.209	38.4
244.426	-39.42
244.643	-0.51
244.86	28.16
245.078	30.21
245.295	81.41
245.512	17.92
245.729	36.35
245.946	13.82
246.163	114.17
246.38	85.5
246.597	28.16
246.814	22.02
247.031	67.07
247.248	67.07
247.464	1.54
247.681	24.06
247.898	77.31
248.115	93.69
248.332	-20.99
248.549	56.83
248.766	73.21
248.983	-18.94
249.2	38.4
249.417	26.11
249.633	11.78
249.85	44.54
250.067	-12.8
250.284	-12.8
250.501	48.64
250.717	93.69
250.934	-57.86
251.151	19.97
251.368	93.69
251.585	28.16
251.801	99.84
252.018	26.11
252.235	58.88
252.451	28.16
252.668	-41.47
252.885	73.21
253.102	11.78
253.318	124.41
253.535	-6.66
253.752	-31.23
253.968	79.36
254.185	1.54
254.401	24.06
254.618	26.11
254.835	-14.85
255.051	108.03
255.268	36.35
255.484	54.78
255.701	24.06
255.917	124.41
256.134	46.59
256.351	46.59
256.567	19.97
256.784	15.87
257	13.82
257.217	17.92
257.433	62.98
257.65	22.02
257.866	122.37
258.082	83.45
258.299	9.73
258.515	24.06
258.732	-57.86
258.948	15.87
259.165	153.09
259.381	-4.61
259.597	52.74
259.814	34.3
260.03	38.4
260.246	-61.95
260.463	3.58
260.679	83.45
260.895	9.73
261.112	73.21
261.328	40.45
261.544	34.3
261.761	40.45
261.977	54.78
262.193	-57.86
262.409	32.26
262.626	-18.94
262.842	17.92
263.058	-4.61
263.274	97.79
263.49	36.35
263.707	83.45
263.923	17.92
264.139	-18.94
264.355	46.59
264.571	34.3
264.787	38.4
265.004	30.21
265.22	93.69
265.436	11.78
265.652	7.68
265.868	65.02
266.084	32.26
266.3	26.11
266.516	24.06
266.732	87.55
266.948	60.93
267.164	-18.94
267.38	99.84
267.596	26.11
267.812	60.93
268.028	48.64
268.244	7.68
268.46	40.45
268.676	87.55
268.892	-4.61
269.108	17.92
269.324	-8.7
269.54	-47.62
269.756	105.98
269.972	13.82
270.188	-6.66
270.403	13.82
270.619	9.73
270.835	54.78
271.051	81.41
271.267	-0.51
271.483	38.4
271.698	101.89
271.914	-23.04
272.13	44.54
272.346	17.92
272.562	75.26
272.777	75.26
272.993	95.74
273.209	36.35
273.425	101.89
273.64	-8.7
273.856	81.41
274.072	30.21
274.287	40.45
274.503	24.06
274.719	56.83
274.934	46.59
275.15	-14.85
275.366	-6.66
275.581	40.45
275.797	46.59
276.012	48.64
276.228	19.97
276.444	38.4
276.659	73.21
276.875	42.5
277.09	-10.75
277.306	48.64
277.521	91.65
277.737	65.02
277.952	83.45
278.168	60.93
278.383	-10.75
278.599	36.35
278.814	19.97
279.03	77.31
279.245	11.78
279.461	15.87
279.676	60.93
279.892	-29.18
280.107	40.45
280.322	17.92
280.538	73.21
280.753	46.59
280.969	48.64
281.184	40.45
281.399	42.5
281.615	40.45
281.83	71.17
282.045	11.78
282.26	26.11
282.476	-2.56
282.691	26.11
282.906	11.78
283.122	67.07
283.337	42.5
283.552	67.07
283.767	5.63
283.983	103.93
284.198	93.69
284.413	69.12
284.628	-2.56
284.843	42.5
285.058	83.45
285.274	50.69
285.489	79.36
285.704	38.4
285.919	24.06
286.134	54.78
286.349	-14.85
286.564	83.45
286.779	112.13
286.995	46.59
287.21	3.58
287.425	24.06
287.64	30.21
287.855	97.79
288.07	-16.9
288.285	-12.8
288.5	85.5
288.715	91.65
288.93	48.64
289.145	-4.61
289.36	73.21
289.575	69.12
289.79	56.83
290.004	9.73
290.219	93.69
290.434	3.58
290.649	7.68
290.864	52.74
291.079	-39.42
291.294	3.58
291.509	54.78
291.724	17.92
291.938	99.84
292.153	99.84
292.368	36.35
292.583	11.78
292.798	1.54
293.012	91.65
293.227	48.64
293.442	81.41
293.657	91.65
293.871	99.84
294.086	7.68
294.301	67.07
294.516	93.69
294.73	97.79
294.945	54.78
295.16	-2.56
295.374	54.78
295.589	83.45
295.804	-0.51
296.018	56.83
296.233	89.6
296.447	46.59
296.662	-45.57
296.877	-43.52
297.091	110.08
297.306	60.93
297.52	15.87
297.735	42.5
297.949	-53.76
298.164	60.93
298.378	34.3
298.593	9.73
298.807	42.5
299.022	32.26
299.236	73.21
299.451	22.02
299.665	9.73
299.88	44.54
300.094	11.78
300.309	-12.8
300.523	130.56
300.737	17.92
300.952	58.88
301.166	58.88
301.381	-14.85
301.595	32.26
301.809	40.45
302.024	-14.85
302.238	-20.99
302.452	85.5
302.667	34.3
302.881	116.22
303.095	44.54
303.309	65.02
303.524	30.21
303.738	-18.94
303.952	-29.18
304.166	65.02
304.381	30.21
304.595	148.99
304.809	75.26
305.023	120.32
305.237	91.65
305.452	11.78
305.666	-12.8
305.88	22.02
306.094	42.5
306.308	75.26
306.522	44.54
306.736	73.21
306.95	71.17
307.164	-31.23
307.379	65.02
307.593	108.03
307.807	36.35
308.021	38.4
308.235	110.08
308.449	-39.42
308.663	34.3
308.877	79.36
309.091	26.11
309.305	52.74
309.519	-8.7
309.733	99.84
309.947	-10.75
310.161	46.59
310.374	79.36
310.588	93.69
310.802	-2.56
311.016	32.26
311.23	1.54
311.444	-18.94
311.658	77.31
311.872	99.84
312.085	75.26
312.299	-45.57
312.513	83.45
312.727	54.78
312.941	67.07
313.154	-12.8
313.368	-4.61
313.582	50.69
313.796	19.97
314.009	30.21
314.223	67.07
314.437	34.3
314.651	28.16
314.864	99.84
315.078	40.45
315.292	-47.62
315.505	36.35
315.719	-10.75
315.933	62.98
316.146	46.59
316.36	28.16
316.573	99.84
316.787	13.82
317.001	130.56
317.214	122.37
317.428	19.97
317.641	85.5
317.855	7.68
318.068	17.92
318.282	71.17
318.495	93.69
318.709	97.79
318.922	15.87
319.136	110.08
319.349	40.45
319.563	38.4
319.776	46.59
319.99	19.97
320.203	-31.23
320.417	112.13
320.63	22.02
320.843	71.17
321.057	11.78
321.27	5.63
321.483	77.31
321.697	177.66
321.91	48.64
322.124	85.5
322.337	7.68
322.55	48.64
322.763	11.78
322.977	118.27
323.19	17.92
323.403	9.73
323.617	34.3
323.83	91.65
324.043	28.16
324.256	22.02
324.469	19.97
324.683	89.6
324.896	28.16
325.109	50.69
325.322	1.54
325.535	46.59
325.748	54.78
325.962	-41.47
326.175	103.93
326.388	73.21
326.601	-2.56
326.814	91.65
327.027	50.69
327.24	120.32
327.453	-14.85
327.666	65.02
327.879	19.97
328.092	30.21
328.305	42.5
328.518	38.4
328.731	3.58
328.944	32.26
329.157	9.73
329.37	83.45
329.583	151.04
329.796	132.61
330.009	36.35
330.222	-25.09
330.435	48.64
330.648	-8.7
330.861	110.08
331.073	19.97
331.286	54.78
331.499	34.3
331.712	-8.7
331.925	46.59
332.138	26.11
332.35	93.69
332.563	-16.9
332.776	50.69
332.989	15.87
333.202	65.02
333.414	42.5
333.627	50.69
333.84	81.41
334.053	83.45
334.265	-6.66
334.478	32.26
334.691	38.4
334.903	77.31
335.116	-2.56
335.329	110.08
335.541	118.27
335.754	26.11
335.966	67.07
336.179	40.45
336.392	58.88
336.604	99.84
336.817	56.83
337.029	81.41
337.242	85.5
337.454	54.78
337.667	38.4
337.88	67.07
338.092	15.87
338.305	56.83
338.517	-33.28
338.729	13.82
338.942	101.89
339.154	-25.09
339.367	46.59
339.579	56.83
339.792	-8.7
340.004	87.55
340.217	46.59
340.429	50.69
340.641	-2.56
340.854	77.31
341.066	52.74
341.278	13.82
341.491	65.02
341.703	38.4
341.915	5.63
342.128	169.47
342.34	44.54
342.552	32.26
342.764	1.54
342.977	17.92
343.189	60.93
343.401	138.75
343.613	-25.09
343.826	71.17
344.038	13.82
344.25	120.32
344.462	-0.51
344.674	9.73
344.886	-20.99
345.099	75.26
345.311	58.88
345.523	44.54
345.735	-2.56
345.947	105.98
346.159	83.45
346.371	81.41
346.583	48.64
346.795	71.17
347.007	30.21
347.219	93.69
347.431	85.5
347.643	19.97
347.855	38.4
348.067	112.13
348.279	-25.09
348.491	69.12
348.703	-37.38
348.915	75.26
349.127	60.93
349.339	34.3
349.551	-2.56
349.763	28.16
349.975	65.02
350.187	17.92
350.399	71.17
350.61	126.46
350.822	60.93
351.034	-14.85
351.246	32.26
351.458	130.56
351.669	13.82
351.881	1.54
352.093	81.41
352.305	108.03
352.517	19.97
352.728	103.93
352.94	110.08
353.152	-2.56
353.363	-25.09
353.575	105.98
353.787	85.5
353.999	26.11
354.21	81.41
354.422	91.65
354.633	19.97
354.845	114.17
355.057	95.74
355.268	32.26
355.48	103.93
355.692	36.35
355.903	32.26
356.115	-6.66
356.326	-12.8
356.538	134.65
356.749	60.93
356.961	148.99
357.172	83.45
357.384	77.31
357.595	161.28
357.807	42.5
358.018	34.3
358.23	9.73
358.441	75.26
358.653	81.41
358.864	99.84
359.075	-6.66
359.287	13.82
359.498	128.51
359.709	5.63
359.921	-33.28
360.132	126.46
360.344	19.97
360.555	-47.62
360.766	32.26
360.977	7.68
361.189	93.69
361.4	-12.8
361.611	85.5
361.823	62.98
362.034	36.35
362.245	-20.99
362.456	7.68
362.667	44.54
362.879	7.68
363.09	65.02
363.301	42.5
363.512	38.4
363.723	32.26
363.935	48.64
364.146	110.08
364.357	24.06
364.568	79.36
364.779	-8.7
364.99	89.6
365.201	89.6
365.412	85.5
365.623	-33.28
365.834	91.65
366.045	65.02
366.256	34.3
366.467	148.99
366.678	67.07
366.889	81.41
367.1	26.11
367.311	-2.56
367.522	79.36
367.733	44.54
367.944	32.26
368.155	13.82
368.366	118.27
368.577	56.83
368.788	97.79
368.999	40.45
369.209	65.02
369.42	93.69
369.631	138.75
369.842	73.21
370.053	81.41
370.264	83.45
370.474	50.69
370.685	105.98
370.896	105.98
371.107	42.5
371.317	93.69
371.528	36.35
371.739	17.92
371.95	34.3
372.16	69.12
372.371	-53.76
372.582	58.88
372.792	44.54
373.003	87.55
373.214	103.93
373.424	32.26
373.635	-27.14
373.846	108.03
374.056	62.98
374.267	56.83
374.477	93.69
374.688	50.69
374.898	52.74
375.109	93.69
375.319	40.45
375.53	54.78
375.74	46.59
375.951	83.45
376.161	103.93
376.372	124.41
376.582	60.93
376.793	42.5
377.003	32.26
377.214	81.41
377.424	24.06
377.635	99.84
377.845	85.5
378.055	105.98
378.266	-29.18
378.476	122.37
378.686	52.74
378.897	89.6
379.107	157.18
379.317	52.74
379.528	26.11
379.738	65.02
379.948	38.4
380.158	79.36
380.369	30.21
380.579	26.11
380.789	93.69
380.999	136.7
381.21	77.31
381.42	105.98
381.63	30.21
381.84	95.74
382.05	44.54
382.261	151.04
382.471	95.74
382.681	83.45
382.891	144.89
383.101	99.84
383.311	42.5
383.521	11.78
383.731	26.11
383.941	28.16
384.151	19.97
384.361	60.93
384.571	32.26
384.781	108.03
384.991	157.18
385.201	122.37
385.411	122.37
385.621	85.5
385.831	34.3
386.041	87.55
386.251	42.5
386.461	103.93
386.671	-29.18
386.881	48.64
387.091	26.11
387.301	34.3
387.511	93.69
387.72	56.83
387.93	99.84
388.14	-6.66
388.35	-0.51
388.56	69.12
388.769	103.93
388.979	110.08
389.189	32.26
389.399	-20.99
389.609	108.03
389.818	44.54
390.028	103.93
390.238	83.45
390.447	95.74
390.657	42.5
390.867	28.16
391.076	58.88
391.286	112.13
391.496	114.17
391.705	62.98
391.915	101.89
392.125	13.82
392.334	36.35
392.544	167.42
392.753	30.21
392.963	112.13
393.172	81.41
393.382	77.31
393.591	83.45
393.801	17.92
394.01	116.22
394.22	69.12
394.429	81.41
394.639	77.31
394.848	108.03
395.058	77.31
395.267	89.6
395.477	26.11
395.686	75.26
395.895	194.05
396.105	157.18
396.314	159.23
396.524	42.5
396.733	120.32
396.942	81.41
397.152	151.04
397.361	83.45
397.57	138.75
397.78	22.02
397.989	142.85
398.198	91.65
398.407	77.31
398.617	89.6
398.826	126.46
399.035	161.28
399.244	83.45
399.453	103.93
399.663	128.51
399.872	93.69
400.081	148.99
400.29	163.33
400.499	142.85
400.708	165.37
400.917	81.41
401.127	108.03
401.336	65.02
401.545	171.52
401.754	155.13
401.963	105.98
402.172	171.52
402.381	126.46
402.59	126.46
402.799	196.09
403.008	159.23
403.217	138.75
403.426	275.96
403.635	214.52
403.844	112.13
404.053	136.7
404.262	140.8
404.471	208.38
404.68	210.43
404.888	105.98
405.097	114.17
405.306	89.6
405.515	210.43
405.724	108.03
405.933	142.85
406.142	216.57
406.35	177.66
406.559	159.23
406.768	151.04
406.977	226.81
407.185	286.2
407.394	208.38
407.603	202.24
407.812	263.68
408.02	278.01
408.229	306.68
408.438	247.29
408.646	273.92
408.855	308.73
409.064	349.69
409.272	321.02
409.481	390.65
409.69	243.2
409.898	347.64
410.107	361.98
410.315	357.88
410.524	364.03
410.733	325.12
410.941	353.79
411.15	519.67
411.358	447.99
411.567	523.77
411.775	464.38
411.984	617.97
412.192	468.47
412.401	515.58
412.609	523.77
412.818	601.59
413.026	605.69
413.234	542.2
413.443	654.84
413.651	683.51
413.86	658.93
414.068	810.48
414.276	753.14
414.485	714.23
414.693	802.29
414.901	841.2
415.11	796.15
415.318	806.39
415.526	943.6
415.734	935.41
415.943	912.88
416.151	943.6
416.359	976.37
416.567	994.8
416.776	1103.34
416.984	1244.65
417.192	1095.15
417.4	1263.08
417.608	1121.77
417.817	1160.69
418.025	1379.82
418.233	1476.07
418.441	1349.1
418.649	1443.31
418.857	1476.07
419.065	1482.22
419.273	1467.88
419.481	1584.62
419.689	1658.34
419.897	1793.51
420.105	1848.8
420.313	1816.04
420.521	1953.25
420.729	1990.11
420.937	1998.31
421.145	2059.74
421.353	2162.14
421.561	2325.98
421.769	2409.95
421.977	2475.48
422.185	2409.95
422.393	2500.06
422.601	2739.67
422.809	2811.35
423.017	2643.42
423.224	2862.55
423.432	2958.8
423.64	2948.56
423.848	3259.85
424.056	3206.61
424.263	3366.35
424.471	3468.75
424.679	3452.36
424.887	3628.49
425.094	3812.81
425.302	3814.85
425.51	3884.48
425.718	4191.68
425.925	4183.49
426.133	4267.45
426.341	4416.96
426.548	4664.76
426.756	4677.05
426.964	4758.97
427.171	5121.46
427.379	5242.29
427.586	5174.71
427.794	5469.61
428.001	5719.46
428.209	5979.56
428.417	5938.6
428.624	6086.05
428.832	6067.62
429.039	6065.57
429.247	6182.31
429.454	6643.1
429.662	7173.52
429.869	6845.85
430.076	7361.94
430.284	7196.05
430.491	7441.81
430.699	7771.53
430.906	7718.28
431.114	7804.3
431.321	8207.75
431.528	8213.89
431.736	8988.02
431.943	9272.69
432.15	9022.84
432.358	9112.95
432.565	9641.32
432.772	9629.04
432.979	10009.96
433.187	10319.2
433.394	10300.77
433.601	11103.57
433.808	11187.54
434.016	11070.81
434.223	11443.54
434.43	12223.81
434.637	11722.06
434.844	12496.19
435.052	13018.43
435.259	12680.51
435.466	13020.47
435.673	12649.79
435.88	13507.89
436.087	14249.25
436.294	14335.27
436.501	13944.11
436.708	14234.92
436.915	14882.08
437.122	15238.42
437.329	15482.13
437.537	15961.36
437.743	16203.02
437.95	15942.92
438.157	16663.81
438.364	17358.07
438.571	17386.74
438.778	17425.65
438.985	19131.61
439.192	18511.08
439.399	18978.01
439.606	18547.94
439.813	19571.93
440.02	21011.65
440.227	20399.3
440.433	20157.64
440.64	21052.61
440.847	20638.92
441.054	21431.48
441.261	22451.37
441.467	22600.87
441.674	22754.47
441.881	23438.49
442.088	23415.96
442.294	23297.18
442.501	24073.36
442.708	24595.59
442.914	25445.5
443.121	26588.27
443.328	25756.79
443.534	27978.84
443.741	26715.24
443.948	26752.1
444.154	28496.97
444.361	28175.44
444.568	28664.91
444.774	28329.04
444.981	28863.56
445.187	29393.98
445.394	31091.75
445.6	30331.95
445.807	33311.75
446.013	32119.83
446.22	32644.11
446.426	33795.07
446.633	33883.13
446.839	35441.64
447.046	33670.14
447.252	35570.66
447.459	35931.1
447.665	35576.8
447.871	37532.61
448.078	39347.11
448.284	37055.43
448.491	38026.17
448.697	39594.92
448.903	40500.12
449.11	40307.61
449.316	39353.26
449.522	39910.3
449.728	41067.41
449.935	41722.76
450.141	41573.25
450.347	42331
450.553	41063.31
450.76	41599.88
450.966	43223.92
451.172	43002.74
451.378	43555.69
451.584	42869.62
451.791	43713.38
451.997	43432.81
452.203	44626.78
452.409	44493.66
452.615	44168.03
452.821	42613.62
453.027	42261.37
453.233	44346.2
453.44	42892.15
453.646	43563.88
453.852	43311.98
454.058	43989.86
454.264	42597.24
454.47	43555.69
454.676	42523.51
454.882	43860.83
455.088	39967.65
455.294	40541.08
455.5	41431.94
455.705	41804.67
455.911	39969.69
456.117	39199.66
456.323	38968.24
456.529	36856.78
456.735	38542.26
456.941	37450.69
457.147	36764.62
457.352	35685.34
457.558	35298.28
457.764	35486.69
457.97	34610.16
458.176	33917.95
458.381	33827.84
458.587	32201.75
458.793	32406.55
458.999	30561.33
459.204	32930.83
459.41	31962.14
459.616	29977.65
459.821	29731.9
460.027	29436.99
460.233	29064.26
460.438	27636.83
460.644	28187.73
460.85	26920.04
461.055	26477.68
461.261	26297.45
461.466	24235.15
461.672	23628.95
461.878	25259.13
462.083	23782.55
462.289	23237.79
462.494	22723.75
462.7	21894.32
462.905	21271.74
463.111	22019.25
463.316	21859.51
463.522	21787.83
463.727	21871.79
463.932	21882.03
464.138	21478.58
464.343	22027.44
464.549	21167.29
464.754	21750.96
464.959	21779.64
465.165	21318.84
465.37	20581.57
465.575	20032.72
465.781	20847.81
465.986	20692.16
466.191	20253.9
466.397	19729.62
466.602	18695.39
466.807	19471.57
467.012	19399.9
467.218	19365.08
467.423	18914.53
467.628	19133.66
467.833	19987.66
468.038	19213.53
468.244	18699.49
468.449	19576.02
468.654	19094.75
468.859	18863.33
469.064	18629.86
469.269	18056.43
469.474	18099.44
469.679	18445.54
469.885	18048.24
470.09	18285.8
470.295	17710.32
470.5	17542.39
470.705	17652.98
470.91	17327.35
471.115	17210.62
471.32	17581.3
471.525	17245.43
471.73	16786.69
471.935	16729.34
472.139	16416.01
472.344	16469.25
472.549	16536.84
472.754	16465.16
472.959	16037.13
473.164	15602.96
473.369	15326.49
473.574	15852.81
473.778	15756.56
473.983	15660.31
474.188	15320.34
474.393	14812.45
474.598	14851.36
474.802	14724.38
475.007	14787.87
475.212	14718.24
475.417	14038.31
475.621	14298.41
475.826	14204.2
476.031	13837.61
476.235	13442.35
476.44	13845.8
476.645	13608.24
476.849	13626.67
477.054	13407.54
477.259	13278.52
477.463	13425.97
477.668	12899.64
477.872	13167.93
478.077	12836.16
478.282	12467.52
478.486	12608.83
478.691	12313.92
478.895	12285.25
479.1	12246.34
479.304	12197.19
479.509	11791.69
479.713	12057.93
479.918	11879.75
480.122	11627.85
480.326	11924.81
480.531	11830.6
480.735	11576.66
480.94	11572.56
481.144	11828.56
481.348	11433.3
481.553	11578.7
481.757	11253.08
481.961	11748.68
482.166	11670.86
482.37	11572.56
482.574	11203.93
482.778	11582.8
482.983	11492.69
483.187	11541.84
483.391	11523.41
483.595	11478.35
483.8	11189.59
484.004	11322.71
484.208	11672.91
484.412	11214.16
484.616	11582.8
484.821	11511.12
485.025	11203.93
485.229	11625.81
485.433	11324.76
485.637	11507.02
485.841	11439.44
486.045	11378
486.249	11406.67
486.453	11335
486.657	11300.18
486.861	11480.4
487.065	11312.47
487.269	11537.74
487.473	11255.12
487.677	11386.19
487.881	11513.17
488.085	11439.44
488.289	11425.11
488.493	11599.18
488.697	11525.46
488.901	11429.2
489.105	11560.27
489.309	11365.71
489.512	11679.05
489.716	11486.54
489.92	11681.1
490.124	11609.42
490.328	11896.14
490.531	11550.03
490.735	11806.03
490.939	11783.5
491.143	11687.25
491.346	11570.51
491.55	11877.71
491.754	11783.5
491.958	11904.33
492.161	11795.79
492.365	12047.69
492.569	12143.94
492.772	12186.95
492.976	12059.98
493.18	12068.17
493.383	12291.4
493.587	12504.39
493.79	12576.06
493.994	12324.16
494.197	12582.21
494.401	12676.41
494.605	12688.7
494.808	12703.04
495.012	12916.03
495.215	13008.19
495.419	13014.33
495.622	12819.77
495.825	13106.49
496.029	13321.52
496.232	13788.46
496.436	13262.13
496.639	13802.8
496.843	13579.57
497.046	14077.23
497.249	13976.87
497.453	14273.83
497.656	14372.13
497.859	14363.94
498.063	14568.74
498.266	14632.22
498.469	14564.64
498.673	14966.04
498.876	14998.81
499.079	15330.58
499.282	15328.53
499.485	15674.64
499.689	15748.37
499.892	16237.83
500.095	15908.11
500.298	16504.07
500.501	16037.13
500.705	16352.52
500.908	17009.92
501.111	16993.53
501.314	17169.66
501.517	17347.83
501.72	17683.7
501.923	17132.79
502.126	17861.87
502.329	17984.75
502.532	18074.86
502.735	18179.31
502.938	18466.02
503.141	18570.47
503.344	19158.24
503.547	18777.31
503.75	19297.5
503.953	19461.34
504.156	19872.98
504.359	20057.29
504.562	19918.03
504.765	20262.09
504.968	20628.68
505.17	20819.14
505.373	20634.82
505.576	21155.01
505.779	21378.23
505.982	21480.63
506.185	21845.17
506.387	21834.93
506.59	21847.22
506.793	22727.85
506.996	22314.16
507.198	23243.93
507.401	22635.69
507.604	23213.21
507.807	23749.78
508.009	23913.62
508.212	23563.42
508.415	24237.2
508.617	24431.76
508.82	24611.98
509.022	24857.73
509.225	25244.8
509.428	25664.63
509.63	25416.83
509.833	25627.77
510.035	26207.34
510.238	25926.77
510.44	26389.61
510.643	26766.44
510.845	27155.55
511.048	26917.99
511.25	27180.13
511.453	27520.09
511.655	28429.39
511.858	28179.54
512.06	28042.32
512.262	28626
512.465	28601.42
512.667	29191.23
512.87	29324.35
513.072	29436.99
513.274	29688.89
513.477	30032.95
513.679	30399.54
513.881	30389.3
514.084	30596.14
514.286	30880.81
514.488	31079.46
514.69	32156.69
514.893	31892.51
515.095	31947.8
515.297	32177.17
515.499	32490.51
515.701	32644.11
515.904	33041.42
516.106	33516.54
516.308	33625.09
516.51	33817.6
516.712	33913.85
516.914	34292.72
517.116	34896.88
517.318	34690.03
517.52	35171.3
517.722	35232.74
517.925	35941.34
518.127	36043.74
518.329	36301.78
518.531	36068.31
518.733	36498.39
518.935	36887.5
519.136	36953.04
519.338	37192.65
519.54	37563.33
519.742	37968.83
519.944	37766.08
520.146	38591.41
520.348	38652.85
520.55	38687.67
520.752	38749.1
520.954	39596.96
521.155	39144.36
521.357	39682.98
521.559	40278.94
521.761	40479.64
521.963	40256.41
522.164	40825.75
522.366	41091.98
522.568	41169.8
522.77	41347.98
522.971	41837.44
523.173	41702.28
523.375	42056.57
523.576	41716.61
523.778	41950.08
523.98	42818.42
524.181	42498.94
524.383	42701.68
524.584	43363.18
524.786	43211.63
524.988	43019.12
525.189	43297.64
525.391	43760.48
525.592	43711.33
525.794	43750.24
525.995	44247.9
526.197	44305.24
526.398	43826.02
526.6	44489.56
526.801	44448.6
527.003	44536.66
527.204	44708.69
527.406	45116.24
527.607	44702.55
527.808	45259.6
528.01	44694.36
528.211	44989.27
528.412	45892.42
528.614	45136.72
528.815	45546.31
529.016	45740.87
529.218	45132.62
529.419	46039.87
529.62	45583.18
529.822	45695.81
530.023	45804.36
530.224	45740.87
530.425	45816.64
530.626	45833.03
530.828	45759.3
531.029	46607.16
531.23	45742.92
531.431	45964.1
531.632	46072.64
531.833	46246.72
532.035	46136.13
532.236	46207.81
532.437	46428.99
532.638	46136.13
532.839	46256.96
533.04	46404.41
533.241	45863.75
533.442	46881.59
533.643	46664.5
533.844	46418.75
534.045	46486.33
534.246	46029.63
534.447	46795.57
534.648	46336.83
534.849	46771
535.05	45953.86
535.251	46398.27
535.451	46201.66
535.652	46515
535.853	46160.7
536.054	46562.11
536.255	46521.15
536.456	46058.31
536.657	46889.78
536.857	46717.75
537.058	45949.76
537.259	46932.79
537.46	46474.04
537.66	46113.6
537.861	46127.94
538.062	46318.4
538.263	46541.63
538.463	46246.72
538.664	46338.88
538.865	46578.49
539.065	46742.33
539.266	45626.18
539.466	46488.38
539.667	45656.9
539.868	46379.84
540.068	46054.21
540.269	46197.57
540.469	46574.39
540.67	46119.74
540.87	46086.98
541.071	46240.57
541.271	46459.71
541.472	46013.25
541.672	45898.56
541.873	45929.28
542.073	45663.05
542.274	46568.25
542.474	45779.78
542.675	45669.19
542.875	46727.99
543.075	45937.48
543.276	45677.38
543.476	46115.65
543.676	45896.52
543.877	46199.62
544.077	46080.83
544.277	45919.04
544.478	45947.71
544.678	45966.15
544.878	45501.26
545.078	45894.47
545.279	45624.14
545.479	45511.5
545.679	45636.42
545.879	45650.76
546.079	46095.17
546.28	46000.96
546.48	45613.9
546.68	45830.98
546.88	45419.34
547.08	45677.38
547.28	45165.39
547.48	45308.75
547.68	45316.94
547.88	45417.29
548.081	45988.67
548.281	45050.7
548.481	45058.9
548.681	45886.28
548.881	45155.15
549.081	45476.68
549.28	45247.31
549.48	45423.43
549.68	44919.63
549.88	45761.35
550.08	45103.95
550.28	45235.02
550.48	45247.31
550.68	45609.8
550.88	45284.17
551.08	44911.44
551.279	45255.5
551.479	45026.13
551.679	45396.81
551.879	45402.96
552.079	45218.64
552.278	45290.32
552.478	44759.89
552.678	45267.79
552.878	45407.05
553.077	45228.88
553.277	44573.53
553.477	45613.9
553.676	44759.89
553.876	44985.17
554.076	44727.13
554.275	44700.5
554.475	44344.16
554.674	45022.03
554.874	44927.83
555.074	44659.54
555.273	44776.28
555.473	44972.88
555.672	44393.31
555.872	44548.95
556.071	44745.56
556.271	44923.73
556.47	44553.05
556.67	44039.01
556.869	44315.48
557.068	44669.78
557.268	44368.73
557.467	44327.77
557.667	44221.28
557.866	44372.83
558.065	43973.47
558.265	44428.12
558.464	44086.11
558.663	43981.66
558.863	43721.57
559.062	44677.97
559.261	44159.84
559.461	44350.3
559.66	43449.19
559.859	44145.5
560.058	43680.61
560.258	43971.43
560.457	43428.71
560.656	44043.1
560.855	43127.66
561.054	43916.13
561.253	43248.49
561.453	43418.47
561.652	43772.77
561.851	43875.17
562.05	43467.62
562.249	43268.97
562.448	43406.19
562.647	43553.64
562.846	43301.74
563.045	43551.59
563.244	43010.93
563.443	43539.3
563.642	42404.73
563.841	43289.45
564.04	42797.94
564.239	43150.19
564.438	42314.62
564.637	42957.68
564.836	42728.31
565.035	42367.87
565.234	42849.14
565.432	42617.72
565.631	42242.94
565.83	42795.89
566.029	42255.23
566.228	42136.45
566.427	42195.84
566.625	42167.16
566.824	41968.51
567.023	42761.08
567.222	41814.91
567.42	42359.67
567.619	41614.21
567.818	41921.41
568.016	41874.31
568.215	41864.07
568.414	41712.52
568.612	42132.35
568.811	41661.32
569.01	41905.02
569.208	41067.41
569.407	41624.45
569.605	41446.28
569.804	41835.39
570.002	41081.74
570.201	41040.78
570.4	40956.82
570.598	41059.21
570.797	40590.23
570.995	41192.33
571.193	40672.15
571.392	40688.53
571.59	40526.74
571.789	40676.24
571.987	40813.46
572.186	40739.73
572.384	40285.08
572.582	40336.28
572.781	40838.03
572.979	40135.58
573.177	40262.55
573.376	40565.65
573.574	39519.14
573.772	40178.59
573.971	39861.15
574.169	39820.19
574.367	40000.41
574.565	40235.93
574.763	39889.82
574.962	39693.22
575.16	39283.62
575.358	39644.07
575.556	39304.1
575.754	39662.5
575.952	38996.91
576.151	39519.14
576.349	39062.44
576.547	39351.21
576.745	38640.56
576.943	38886.32
577.141	38730.67
577.339	38876.08
577.537	38417.33
577.735	38515.64
577.933	38245.3
578.131	38423.48
578.329	38237.11
578.527	38290.36
578.725	38276.02
578.923	38327.22
579.121	38114.23
579.319	37700.54
579.516	38253.5
579.714	38147
579.912	37757.89
580.11	37503.94
580.308	37747.65
580.506	37624.77
580.704	36940.75
580.901	37669.83
581.099	37352.39
581.297	37325.77
581.495	37100.49
581.692	37327.81
581.89	37104.59
582.088	37034.95
582.285	36608.98
582.483	37260.23
582.681	36709.33
582.878	36996.04
583.076	35967.96
583.274	36584.4
583.471	36334.55
583.669	36099.03
583.866	36119.51
584.064	36305.88
584.262	35556.32
584.459	36271.06
584.657	35808.22
584.854	35982.3
585.052	35353.57
585.249	35658.72
585.447	35793.89
585.644	35224.55
585.841	35406.82
586.039	35361.76
586.236	35240.93
586.434	35445.73
586.631	34921.45
586.828	34778.09
587.026	35230.69
587.223	34919.4
587.42	34884.59
587.618	34737.13
587.815	34298.87
588.012	34474.99
588.21	34282.48
588.407	34614.26
588.604	34235.38
588.801	34057.21
588.999	33995.77
589.196	33715.2
589.393	33459.2
589.59	33885.18
589.787	33799.16
589.984	33516.54
590.182	33170.44
590.379	33721.34
590.576	33274.88
590.773	33379.33
590.97	32807.95
591.167	33393.67
591.364	32750.6
591.561	32836.62
591.758	32590.86
591.955	32830.48
592.152	32826.38
592.349	32343.06
592.546	32697.36
592.743	32302.1
592.94	32158.74
593.137	32416.79
593.334	32091.16
593.531	31949.85
593.727	32058.39
593.924	31896.6
594.121	31570.97
594.318	31800.35
594.515	31470.62
594.712	31876.12
594.908	31513.63
595.105	31536.16
595.302	31507.49
595.499	31386.66
595.696	30850.09
595.892	31067.17
596.089	31173.67
596.286	30921.77
596.482	30852.14
596.679	30839.85
596.876	30460.98
597.072	30600.24
597.269	30661.68
597.466	30366.77
597.662	30104.63
597.859	30049.33
598.055	30391.34
598.252	29912.12
598.448	30082.1
598.645	29838.39
598.841	29705.27
599.038	29936.7
599.234	29527.1
599.431	29314.11
599.627	29174.85
599.824	29246.53
600.02	29320.26
600.217	29127.75
600.413	29078.6
600.609	29273.15
600.806	28984.39
601.002	29289.54
601.198	28820.55
601.395	28548.17
601.591	28464.21
601.787	28748.87
601.984	28234.83
602.18	28736.59
602.376	28343.38
602.572	28275.79
602.769	28507.21
602.965	28099.67
603.161	28195.92
603.357	27692.12
603.553	27542.62
603.75	27649.11
603.946	27415.65
604.142	27890.77
604.338	27227.23
604.534	27903.06
604.73	27180.13
604.926	27096.16
605.122	27401.31
605.318	27325.54
605.514	26881.13
605.71	26958.95
605.906	27153.51
606.102	26618.99
606.298	26791.02
606.494	26584.17
606.69	26985.57
606.886	26690.66
607.082	26176.62
607.278	26430.57
607.474	26283.12
607.67	26160.24
607.866	26076.27
608.062	26911.85
608.257	26246.26
608.453	26182.77
608.649	26483.82
608.845	25947.25
609.041	26090.61
609.236	26233.97
609.432	25678.97
609.628	25975.92
609.824	25660.54
610.019	25916.53
610.215	25930.87
610.411	25783.41
610.606	25429.12
610.802	25633.91
610.998	25756.79
611.193	25420.92
611.389	25314.43
611.584	25261.18
611.78	25101.44
611.976	25324.67
612.171	25396.35
612.367	25166.98
612.562	25068.67
612.758	24915.08
612.953	24921.22
613.149	25357.44
613.344	24835.21
613.539	25115.78
613.735	24831.11
613.93	24722.57
614.126	24824.97
614.321	25029.76
614.517	25089.15
614.712	24806.53
614.907	24417.42
615.103	24712.33
615.298	24548.49
615.493	24845.44
615.688	24442
615.884	24697.99
616.079	24556.68
616.274	24509.58
616.47	24306.83
616.665	24319.12
616.86	24122.51
617.055	24378.51
617.25	24149.14
617.445	24407.18
617.641	23606.42
617.836	23911.57
618.031	23428.25
618.226	24009.87
618.421	23631
618.616	23762.07
618.811	23596.18
619.006	23831.7
619.201	23518.36
619.396	23282.84
619.591	22903.97
619.786	23291.04
619.981	22871.2
620.176	23067.81
620.371	22678.69
620.566	22731.94
620.761	22762.66
620.956	22654.12
621.151	22330.54
621.346	22439.08
621.541	22254.76
621.735	22258.86
621.93	21927.09
622.125	22187.18
622.32	21341.37
622.515	21802.16
622.709	21611.7
622.904	21781.68
623.099	21202.11
623.294	21324.99
623.488	21230.78
623.683	21394.62
623.878	20716.74
624.072	20931.78
624.267	20858.05
624.462	20528.33
624.656	20655.3
624.851	20421.83
625.046	20325.58
625.24	20405.45
625.435	20024.53
625.629	20053.2
625.824	20069.58
626.018	20112.59
626.213	19322.07
626.407	20090.06
626.602	19266.78
626.796	19354.84
626.991	19264.73
627.185	19471.57
627.38	19041.5
627.574	18961.63
627.768	19168.48
627.963	18732.26
628.157	18775.27
628.352	18709.73
628.546	18316.52
628.74	18605.28
628.935	18220.27
629.129	18488.55
629.323	18105.58
629.517	17939.69
629.712	17827.06
629.906	17911.02
630.1	17632.5
630.294	17695.99
630.489	17480.95
630.683	17888.5
630.877	17341.69
631.071	17403.13
631.265	17300.73
631.459	16860.41
631.653	17147.13
631.848	17169.66
632.042	16663.81
632.236	17022.2
632.43	16721.15
632.624	16588.03
632.818	16391.43
633.012	16313.61
633.206	16547.08
633.4	16516.36
633.594	16286.98
633.788	16252.17
633.982	16125.19
634.176	15746.32
634.369	15949.07
634.563	15842.57
634.757	15842.57
634.951	15912.21
635.145	15596.82
635.339	15633.68
635.533	15297.81
635.726	15324.44
635.92	15340.82
636.114	15492.37
636.308	14882.08
636.501	15031.58
636.695	15099.16
636.889	14849.31
637.083	14724.38
637.276	14855.45
637.47	14732.58
637.664	14789.92
637.857	14705.95
638.051	14658.85
638.244	14302.5
638.438	14566.69
638.632	14087.47
638.825	14177.58
639.019	14138.66
639.212	13866.28
639.406	14103.85
639.599	14011.69
639.793	14077.23
639.986	13651.25
640.18	13823.28
640.373	13692.21
640.567	13552.95
640.76	13462.83
640.954	13147.45
641.147	13270.33
641.34	13325.62
641.534	13358.39
641.727	13024.57
641.92	13178.17
642.114	12866.88
642.307	12770.62
642.5	12948.79
642.694	12694.85
642.887	12492.1
643.08	12506.43
643.273	12600.64
643.467	12453.19
643.66	12354.88
643.853	12510.53
644.046	12000.58
644.239	12252.49
644.432	12236.1
644.626	11933
644.819	12156.23
645.012	12064.07
645.205	11924.81
645.398	11896.14
645.591	11668.81
645.784	11711.82
645.977	11656.53
646.17	11605.33
646.363	11533.65
646.556	11513.17
646.749	11584.85
646.942	11396.43
647.135	11367.76
647.328	11513.17
647.521	11169.11
647.714	11167.06
647.907	11494.74
648.099	11124.05
648.292	11246.93
648.485	11079
648.678	10700.12
648.871	10814.81
649.064	10806.62
649.256	10863.96
649.449	10810.72
649.642	10601.82
649.835	10577.25
650.027	10272.1
650.22	10437.98
650.413	10372.45
650.605	10259.81
650.798	10372.45
650.991	10311.01
651.183	10257.76
651.376	10095.97
651.568	10134.89
651.761	10014.06
651.954	10171.75
652.146	9833.83
652.339	9831.79
652.531	9958.76
652.724	9975.14
652.916	9626.99
653.109	9686.38
653.301	9651.56
653.494	9702.76
653.686	9358.71
653.879	9762.16
654.071	9315.7
654.263	9463.15
654.456	9291.12
654.648	9192.82
654.84	9086.33
655.033	9137.52
655.225	9096.57
655.417	9225.59
655.61	9020.79
655.802	8947.06
655.994	8789.37
656.186	9063.8
656.379	8897.91
656.571	8840.57
656.763	8801.66
656.955	8689.02
657.148	8705.4
657.34	8779.13
657.532	8504.7
657.724	8562.05
657.916	8471.93
658.108	8625.53
658.3	8349.06
658.492	8537.47
658.684	8402.3
658.876	8207.75
659.068	8306.05
659.26	8160.64
659.452	8256.9
659.644	8320.39
659.836	8125.83
660.028	8111.49
660.22	7945.61
660.412	7910.79
660.604	7749
660.796	7986.57
660.988	7818.63
661.18	7796.11
661.372	7736.71
661.563	7925.13
661.755	7730.57
661.947	7708.04
662.139	7417.23
662.331	7589.26
662.522	7372.18
662.714	7411.09
662.906	7462.29
663.097	7374.22
663.289	7474.57
663.481	7314.83
663.673	7339.41
663.864	7232.91
664.056	7155.09
664.247	7181.71
664.439	7028.12
664.631	7112.08
664.822	7028.12
665.014	7110.04
665.205	6800.79
665.397	7132.56
665.588	6882.71
665.78	6722.97
665.971	6784.41
666.163	6774.17
666.354	6815.13
666.546	6665.63
666.737	6794.65
666.929	6759.83
667.12	6823.32
667.311	6591.9
667.503	6591.9
667.694	6682.01
667.885	6684.06
668.077	6473.12
668.268	6589.85
668.459	6409.63
668.651	6350.24
668.842	6323.62
669.033	6337.95
669.224	6231.46
669.416	6452.64
669.607	6301.09
669.798	6309.28
669.989	6139.3
670.18	6233.5
670.371	5985.7
670.563	6034.85
670.754	6129.06
670.945	6041
671.136	5989.8
671.327	6139.3
671.518	5907.88
671.709	5850.53
671.9	5944.74
672.091	5868.97
672.282	5850.53
672.473	5739.94
672.664	5709.22
672.855	5793.19
673.046	5725.61
673.237	5692.84
673.428	5655.98
673.619	5590.44
673.809	5617.07
674	5705.13
674.191	5658.03
674.382	5524.91
674.573	5529
674.764	5412.27
674.954	5698.99
675.145	5346.73
675.336	5451.18
675.527	5379.5
675.717	5559.72
675.908	5217.71
676.099	5418.41
676.289	5320.11
676.48	5367.21
676.671	5223.86
676.861	5242.29
677.052	5236.14
677.243	5152.18
677.433	5283.25
677.624	5193.14
677.814	5162.42
678.005	5186.99
678.195	5141.94
678.386	5207.47
678.576	5111.22
678.767	5090.74
678.957	5002.68
679.148	4986.29
679.338	4955.57
679.529	5133.75
679.719	4947.38
679.909	5017.01
680.1	4867.51
680.29	4816.31
680.481	4838.84
680.671	4912.57
680.861	4785.59
681.052	4824.5
681.242	4816.31
681.432	4953.52
681.622	4767.16
681.813	4855.22
682.003	4779.45
682.193	4791.73
682.383	4869.56
682.573	4773.3
682.764	4758.97
682.954	4695.48
683.144	4601.27
683.334	4685.24
683.524	4539.83
683.714	4683.19
683.904	4570.55
684.094	4656.57
684.284	4550.07
684.474	4435.39
684.664	4502.97
684.854	4486.59
685.044	4476.35
685.234	4476.35
685.424	4345.28
685.614	4472.25
685.804	4435.39
685.994	4457.92
686.184	4390.33
686.374	4466.11
686.564	4318.65
686.753	4216.26
686.943	4335.04
687.133	4281.79
687.323	4249.02
687.513	4199.87
687.702	4259.26
687.892	4263.36
688.082	4072.9
688.272	4296.13
688.461	3999.17
688.651	4042.18
688.841	4083.14
689.03	4093.38
689.22	3966.4
689.41	4072.9
689.599	4011.46
689.789	4029.89
689.979	4003.27
690.168	3956.16
690.358	3909.06
690.547	3810.76
690.737	3849.67
690.926	3802.57
691.116	3794.37
691.305	3898.82
691.495	3843.53
691.684	3806.66
691.874	3823.05
692.063	3767.75
692.252	3698.12
692.442	3771.85
692.631	3669.45
692.82	3646.92
693.01	3603.91
693.199	3706.31
693.388	3579.34
693.578	3567.05
693.767	3528.14
693.956	3538.38
694.146	3407.31
694.335	3515.85
694.524	3503.56
694.713	3448.27
694.902	3435.98
695.092	3390.92
695.281	3378.64
695.47	3493.32
695.659	3382.73
695.848	3392.97
696.037	3395.02
696.226	3139.02
696.415	3261.9
696.604	3313.1
696.793	3329.49
696.982	3239.37
697.171	3311.05
697.36	3360.2
697.549	3259.85
697.738	3247.57
697.927	3112.4
698.116	3331.53
698.305	3202.51
698.494	3093.97
698.683	3179.98
698.872	3130.83
699.061	3096.02
699.25	3153.36
699.438	3106.26
699.627	3016.15
699.816	3048.91
700.005	2926.04
700.193	3059.15
700.382	3073.49
700.571	3126.74
700.76	2954.71
700.948	3038.67
701.137	2979.28
701.326	3020.24
701.514	3030.48
701.703	2979.28
701.892	3036.63
702.08	3001.81
702.269	3024.34
702.457	2842.07
702.646	2983.38
702.834	2872.79
703.023	2977.23
703.212	2823.64
703.4	2876.88
703.589	2749.91
703.777	2883.03
703.965	2803.16
704.154	2829.78
704.342	2852.31
704.531	2756.05
704.719	2792.92
704.907	2919.89
705.096	2737.62
705.284	2807.25
705.472	2778.58
705.661	2653.66
705.849	2741.72
706.037	2776.53
706.226	2684.38
706.414	2657.75
706.602	2751.96
706.79	2803.16
706.979	2743.77
707.167	2663.9
707.355	2694.61
707.543	2737.62
707.731	2741.72
707.919	2655.7
708.107	2629.08
708.296	2610.65
708.484	2530.78
708.672	2719.19
708.86	2596.31
709.048	2604.5
709.236	2510.3
709.424	2598.36
709.612	2629.08
709.8	2706.9
709.988	2684.38
710.176	2538.97
710.364	2610.65
710.551	2633.18
710.739	2647.51
710.927	2565.59
711.115	2547.16
711.303	2541.02
711.491	2622.94
711.679	2567.64
711.866	2567.64
712.054	2600.41
712.242	2520.54
712.43	2563.54
712.617	2450.91
712.805	2500.06
712.993	2448.86
713.181	2532.83
713.368	2426.33
713.556	2489.82
713.744	2573.78
713.931	2616.79
714.119	2557.4
714.306	2512.35
714.494	2516.44
714.682	2500.06
714.869	2493.91
715.057	2463.19
715.244	2285.02
715.432	2399.71
715.619	2328.03
715.807	2473.43
715.994	2393.56
716.182	2393.56
716.369	2426.33
716.556	2368.99
716.744	2399.71
716.931	2432.47
717.119	2280.93
717.306	2321.88
717.493	2358.75
717.681	2467.29
717.868	2381.28
718.055	2368.99
718.242	2330.08
718.43	2420.19
718.617	2455
718.804	2383.32
718.991	2467.29
719.179	2375.13
719.366	2199.01
719.553	2332.12
719.74	2239.97
719.927	2297.31
720.114	2338.27
720.301	2250.21
720.488	2289.12
720.676	2184.67
720.863	2432.47
721.05	2457.05
721.237	2174.43
721.424	2264.54
721.611	2356.7
721.798	2233.82
721.985	2270.69
722.172	2282.97
722.358	2260.45
722.545	2233.82
722.732	2321.88
722.919	2293.21
723.106	2209.25
723.293	2276.83
723.48	2227.68
723.667	2299.36
723.853	2201.05
724.04	2315.74
724.227	2299.36
724.414	2272.73
724.6	2151.9
724.787	2299.36
724.974	2211.29
725.161	2233.82
725.347	2145.76
725.534	2256.35
725.72	2219.49
725.907	2274.78
726.094	2199.01
726.28	2291.17
726.467	2137.57
726.653	2135.52
726.84	2237.92
727.027	2360.8
727.213	2158.05
727.4	2194.91
727.586	2297.31
727.773	2233.82
727.959	2297.31
728.145	2174.43
728.332	2268.64
728.518	2149.86
728.705	2184.67
728.891	2203.1
729.077	2262.49
729.264	2194.91
729.45	2325.98
729.636	2254.3
729.823	2307.55
730.009	2323.93
730.195	2289.12
730.382	2307.55
730.568	2289.12
730.754	2317.79
730.94	2235.87
731.126	2274.78
731.313	2233.82
731.499	2213.34
731.685	2334.17
731.871	2168.29
732.057	2207.2
732.243	2321.88
732.429	2229.73
732.615	2203.1
732.801	2252.25
732.987	2162.14
733.173	2242.01
733.359	2170.33
733.545	2184.67
733.731	2188.77
733.917	2158.05
734.103	2301.4
734.289	2305.5
734.475	2147.81
734.661	2242.01
734.847	2237.92
735.033	2250.21
735.219	2231.77
735.404	2237.92
735.59	2231.77
735.776	2295.26
735.962	2196.96
736.148	2260.45
736.333	2274.78
736.519	2213.34
736.705	2166.24
736.89	2153.95
737.076	2217.44
737.262	2186.72
737.447	2199.01
737.633	2178.53
737.819	2260.45
738.004	2194.91
738.19	2231.77
738.375	2192.86
738.561	2334.17
738.747	2237.92
738.932	2098.66
739.118	2209.25
739.303	2274.78
739.489	2270.69
739.674	2178.53
739.859	2205.15
740.045	2207.2
740.23	2194.91
740.416	2184.67
740.601	2287.07
740.786	2194.91
740.972	2137.57
741.157	2266.59
741.342	2270.69
741.528	2143.71
741.713	2221.53
741.898	2094.56
742.084	2196.96
742.269	2211.29
742.454	2104.8
742.639	2160.1
742.824	2139.62
743.01	2252.25
743.195	2317.79
743.38	2086.37
743.565	2168.29
743.75	2049.5
743.935	2153.95
744.12	2108.9
744.305	2078.18
744.49	2051.55
744.675	2108.9
744.86	2039.26
745.045	2156
745.23	2002.4
745.415	2012.64
745.6	2039.26
745.785	2022.88
745.97	2094.56
746.155	2029.03
746.34	1994.21
746.525	2012.64
746.71	2033.12
746.895	1949.15
747.079	2018.79
747.264	1930.72
747.449	2051.55
747.634	1918.43
747.819	1934.82
748.003	2014.69
748.188	2012.64
748.373	2000.35
748.557	1914.34
748.742	2043.36
748.927	2049.5
749.111	1957.35
749.296	1908.19
749.481	1900
749.665	1848.8
749.85	1768.93
750.034	1914.34
750.219	1830.37
750.404	1879.52
750.588	1830.37
750.773	1848.8
750.957	1865.19
751.141	1842.66
751.326	1803.75
751.51	1857
751.695	1816.04
751.879	1793.51
752.064	1854.95
752.248	1725.93
752.432	1773.03
752.617	1818.08
752.801	1779.17
752.985	1711.59
753.17	1809.89
753.354	1678.82
753.538	1732.07
753.722	1742.31
753.907	1695.21
754.091	1598.95
754.275	1676.77
754.459	1619.43
754.643	1660.39
754.828	1670.63
755.012	1572.33
755.196	1508.84
755.38	1537.51
755.564	1514.98
755.748	1541.61
755.932	1635.82
756.116	1549.8
756.3	1494.51
756.484	1564.14
756.668	1529.32
756.852	1506.79
757.036	1490.41
757.22	1404.39
757.404	1500.65
757.588	1492.46
757.772	1457.64
757.956	1537.51
758.14	1517.03
758.323	1328.62
758.507	1424.87
758.691	1410.54
758.875	1426.92
759.059	1428.97
759.242	1435.11
759.426	1353.2
759.61	1414.63
759.794	1414.63
759.977	1480.17
760.161	1502.7
760.345	1359.34
760.528	1426.92
760.712	1416.68
760.895	1269.23
761.079	1371.63
761.263	1258.99
761.446	1342.96
761.63	1304.04
761.813	1334.76
761.997	1330.67
762.18	1355.24
762.364	1271.28
762.547	1293.8
762.731	1310.19
762.914	1289.71
763.098	1187.31
763.281	1306.09
763.464	1297.9
763.648	1279.47
763.831	1285.61
764.015	1244.65
764.198	1365.48
764.381	1189.36
764.564	1273.32
764.748	1203.69
764.931	1183.21
765.114	1215.98
765.297	1256.94
765.481	1179.12
765.664	1230.32
765.847	1265.13
766.03	1183.21
766.213	1162.73
766.397	1140.21
766.58	1160.69
766.763	1228.27
766.946	1201.65
767.129	1256.94
767.312	1220.08
767.495	1215.98
767.678	1154.54
767.861	1107.44
768.044	1125.87
768.227	1218.03
768.41	1113.58
768.593	1154.54
768.776	1111.54
768.959	1146.35
769.142	1132.01
769.324	1213.93
769.507	1086.96
769.69	1129.97
769.873	1080.82
770.056	1105.39
770.239	1119.73
770.421	1166.83
770.604	1125.87
770.787	1123.82
770.97	1095.15
771.152	1033.71
771.335	1144.3
771.518	1015.28
771.7	1105.39
771.883	1132.01
772.066	990.7
772.248	1015.28
772.431	994.8
772.613	1009.14
772.796	1029.62
772.978	976.37
773.161	1097.2
773.343	914.93
773.526	970.23
773.708	949.75
773.891	923.12
774.073	892.4
774.256	959.99
774.438	1013.23
774.621	865.78
774.803	847.35
774.985	935.41
775.168	886.26
775.35	937.46
775.532	904.69
775.715	1025.52
775.897	851.44
776.079	820.72
776.261	982.51
776.444	863.73
776.626	824.82
776.808	884.21
776.99	857.59
777.173	910.83
777.355	833.01
777.537	833.01
777.719	814.58
777.901	939.51
778.083	794.1
778.265	822.77
778.447	794.1
778.629	728.56
778.811	767.48
778.993	802.29
779.175	853.49
779.357	798.2
779.539	728.56
779.721	849.4
779.903	867.83
780.085	755.19
780.267	779.76
780.449	751.09
780.631	722.42
780.812	753.14
780.994	740.85
781.176	787.96
781.358	747
781.54	740.85
781.721	755.19
781.903	767.48
782.085	654.84
782.267	693.75
782.448	648.69
782.63	724.47
782.812	630.26
782.993	703.99
783.175	749.04
783.357	652.79
783.538	583.16
783.72	644.6
783.901	697.85
784.083	617.97
784.264	640.5
784.446	579.06
784.627	593.4
784.809	529.91
784.99	546.3
785.172	722.42
785.353	642.55
785.535	558.58
785.716	488.95
785.897	529.91
786.079	564.73
786.26	570.87
786.441	509.43
786.623	493.05
786.804	540.15
786.985	574.97
787.167	474.62
787.348	491
787.529	513.53
787.71	552.44
787.891	550.39
788.073	493.05
788.254	534.01
788.435	634.36
788.616	497.14
788.797	552.44
788.978	452.09
789.159	493.05
789.34	570.87
789.522	495.1
789.703	499.19
789.884	493.05
790.065	486.9
790.246	529.91
790.427	402.94
790.607	452.09
790.788	531.96
790.969	486.9
791.15	484.86
791.331	404.99
791.512	404.99
791.693	404.99
791.874	421.37
792.054	470.52
792.235	468.47
792.416	493.05
792.597	402.94
792.778	384.51
792.958	470.52
793.139	419.32
793.32	505.34
793.5	452.09
793.681	437.75
793.862	415.23
794.042	435.71
794.223	359.93
794.404	400.89
794.584	339.45
794.765	464.38
794.945	347.64
795.126	376.31
795.306	431.61
795.487	425.47
795.667	396.79
795.848	263.68
796.028	312.83
796.209	368.12
796.389	421.37
796.57	316.92
796.75	331.26
796.93	390.65
797.111	392.7
797.291	292.35
797.471	439.8
797.652	286.2
797.832	308.73
798.012	298.49
798.192	253.44
798.373	327.16
798.553	345.59
798.733	296.44
798.913	357.88
799.093	269.82
799.274	458.23
799.454	417.27
799.634	329.21
799.814	314.88
799.994	304.64
800.174	280.06
800.354	318.97
800.534	306.68
800.714	284.16
800.894	202.24
801.074	257.53
801.254	325.12
801.434	353.79
801.614	292.35
801.794	235
801.974	939.51
802.154	321.02
802.334	288.25
802.514	282.11
802.693	280.06
802.873	224.76
803.053	235
803.233	329.21
803.413	280.06
803.592	179.71
803.772	284.16
803.952	273.92
804.131	204.28
804.311	288.25
804.491	261.63
804.67	183.81
804.85	292.35
805.03	282.11
805.209	263.68
805.389	243.2
805.568	263.68
805.748	294.4
805.928	275.96
806.107	329.21
806.287	253.44
806.466	265.72
806.646	232.96
806.825	232.96
807.004	290.3
807.184	249.34
807.363	220.67
807.543	192
807.722	192
807.901	267.77
808.081	237.05
808.26	187.9
808.439	253.44
808.619	232.96
808.798	218.62
808.977	245.24
809.156	269.82
809.336	146.94
809.515	255.48
809.694	230.91
809.873	263.68
810.052	220.67
810.231	273.92
810.411	181.76
810.59	179.71
810.769	128.51
810.948	230.91
811.127	114.17
811.306	214.52
811.485	151.04
811.664	226.81
811.843	226.81
812.022	179.71
812.201	155.13
812.38	261.63
812.559	230.91
812.737	222.72
812.916	216.57
813.095	185.85
813.274	253.44
813.453	220.67
813.632	187.9
813.811	200.19
813.989	140.8
814.168	169.47
814.347	171.52
814.526	208.38
814.704	177.66
814.883	218.62
815.062	218.62
815.24	226.81
815.419	165.37
815.598	230.91
815.776	173.57
815.955	214.52
816.133	118.27
816.312	155.13
816.49	167.42
816.669	235
816.847	255.48
817.026	222.72
817.204	165.37
817.383	146.94
817.561	97.79
817.74	161.28
817.918	124.41
818.097	140.8
818.275	73.21
818.453	163.33
818.632	159.23
818.81	124.41
818.988	169.47
819.167	161.28
819.345	163.33
819.523	112.13
819.701	187.9
819.879	226.81
820.058	67.07
820.236	71.17
820.414	216.57
820.592	177.66
820.77	185.85
820.948	163.33
821.127	165.37
821.305	177.66
821.483	126.46
821.661	171.52
821.839	163.33
822.017	161.28
822.195	126.46
822.373	245.24
822.551	122.37
822.729	183.81
822.907	157.18
823.085	167.42
823.262	89.6
823.44	200.19
823.618	169.47
823.796	130.56
823.974	157.18
824.152	103.93
824.329	65.02
824.507	101.89
824.685	62.98
824.863	95.74
825.04	153.09
825.218	189.95
825.396	79.36
825.574	146.94
825.751	134.65
825.929	181.76
826.107	116.22
826.284	110.08
826.462	173.57
826.639	83.45
826.817	161.28
826.994	128.51
827.172	142.85
827.349	269.82
827.527	126.46
827.704	140.8
827.882	192
828.059	83.45
828.237	95.74
828.414	163.33
828.591	71.17
828.769	73.21
828.946	71.17
829.124	95.74
829.301	214.52
829.478	62.98
829.655	161.28
829.833	101.89
830.01	103.93
830.187	163.33
830.364	71.17
830.542	54.78
830.719	140.8
830.896	114.17
831.073	204.28
831.25	155.13
831.427	210.43
831.604	171.52
831.782	132.61
831.959	171.52
832.136	132.61
832.313	108.03
832.49	153.09
832.667	32.26
832.844	56.83
833.021	89.6
833.198	95.74
833.374	130.56
833.551	46.59
833.728	69.12
833.905	122.37
834.082	48.64
834.259	153.09
834.436	173.57
834.612	79.36
834.789	155.13
834.966	120.32
835.143	75.26
835.319	56.83
835.496	97.79
835.673	126.46
835.85	99.84
836.026	44.54
836.203	206.33
836.38	77.31
836.556	32.26
836.733	48.64
836.909	142.85
837.086	58.88
837.262	54.78
837.439	58.88
837.616	-14.85
837.792	112.13
837.968	42.5
838.145	26.11
838.321	85.5
838.498	144.89
838.674	83.45
838.851	65.02
839.027	50.69
839.203	124.41
839.38	124.41
839.556	-0.51
839.732	75.26
839.909	134.65
840.085	99.84
840.261	24.06
840.437	77.31
840.614	89.6
840.79	103.93
840.966	69.12
841.142	71.17
841.318	-61.95
841.494	1.54
841.671	95.74
841.847	91.65
842.023	65.02
842.199	75.26
842.375	101.89
842.551	-18.94
842.727	3.58
842.903	75.26
843.079	-25.09
843.255	99.84
843.431	118.27
843.607	42.5
843.783	-4.61
843.959	108.03
844.134	11.78
844.31	11.78
844.486	48.64
844.662	50.69
844.838	159.23
845.013	54.78
845.189	118.27
845.365	48.64
845.541	-16.9
845.716	122.37
845.892	87.55
846.068	32.26
846.244	-68.09
846.419	48.64
846.595	-0.51
846.77	-23.04
846.946	62.98
847.122	19.97
847.297	13.82
847.473	103.93
847.648	69.12
847.824	22.02
847.999	-14.85
848.175	5.63
848.35	34.3
848.526	75.26
848.701	42.5
848.876	79.36
849.052	54.78
849.227	-2.56
849.403	56.83
849.578	7.68
849.753	22.02
849.929	38.4
850.104	62.98
850.279	71.17
850.454	32.26
850.63	62.98
850.805	54.78
850.98	103.93
851.155	15.87
851.33	101.89
851.505	91.65
851.681	81.41
851.856	71.17
852.031	95.74
852.206	93.69
852.381	40.45
852.556	50.69
852.731	126.46
852.906	89.6
853.081	50.69
853.256	58.88
853.431	77.31
853.606	-35.33
853.781	56.83
853.956	-45.57
854.131	69.12
854.305	-8.7
854.48	38.4
854.655	1.54
854.83	7.68
855.005	-18.94
855.18	67.07
855.354	34.3
855.529	124.41
855.704	30.21
855.879	105.98
856.053	-27.14
856.228	34.3
856.403	-14.85
856.577	48.64
856.752	44.54
856.926	42.5
857.101	-18.94
857.276	38.4
857.45	5.63
857.625	48.64
857.799	110.08
857.974	1.54
858.148	15.87
858.323	40.45
858.497	-27.14
858.672	15.87
858.846	50.69
859.02	73.21
859.195	81.41
859.369	44.54
859.543	69.12
859.718	40.45
859.892	46.59
860.066	60.93
860.241	-49.66
860.415	-45.57
860.589	-4.61
860.763	-31.23
860.938	-2.56
861.112	15.87
861.286	28.16
861.46	105.98
861.634	7.68
861.808	69.12
861.982	65.02
862.157	71.17
862.331	36.35
862.505	-37.38
862.679	-49.66
862.853	-59.9
863.027	1.54
863.201	50.69
863.375	-16.9
863.549	54.78
863.722	-14.85
863.896	87.55
864.07	34.3
864.244	-0.51
864.418	44.54
864.592	48.64
864.766	-6.66
864.939	11.78
865.113	69.12
865.287	58.88
865.461	-59.9
865.634	65.02
865.808	5.63
865.982	34.3
866.156	-37.38
866.329	60.93
866.503	28.16
866.676	28.16
866.85	62.98
867.024	-29.18
867.197	1.54
867.371	83.45
867.544	5.63
867.718	36.35
867.891	60.93
868.065	5.63
868.238	-43.52
868.412	7.68
868.585	-0.51
868.759	1.54
868.932	13.82
869.105	-2.56
869.279	58.88
869.452	7.68
869.625	26.11
869.799	-10.75
869.972	-41.47
870.145	24.06
870.319	101.89
870.492	22.02
870.665	-68.09
870.838	36.35
871.011	-14.85
871.185	54.78
871.358	-47.62
871.531	89.6
871.704	65.02
871.877	13.82
872.05	46.59
872.223	-27.14
872.396	28.16
872.569	40.45
872.742	-6.66
872.915	26.11
873.088	79.36
873.261	-8.7
873.434	44.54
873.607	-41.47
873.78	9.73
873.953	79.36
874.126	-33.28
874.299	-4.61
874.471	36.35
874.644	32.26
874.817	15.87
874.99	-18.94
875.163	42.5
875.335	-57.86
875.508	-31.23
875.681	24.06
875.853	48.64
876.026	3.58
876.199	65.02
876.371	-12.8
876.544	-29.18
876.717	-37.38
876.889	5.63
877.062	22.02
877.234	38.4
877.407	-59.9
877.579	26.11
877.752	1.54
877.924	26.11
878.097	58.88
878.269	-45.57
878.442	108.03
878.614	52.74
878.786	122.37
878.959	-31.23
879.131	15.87
879.303	-0.51
879.476	-2.56
879.648	1.54
879.82	44.54
879.993	58.88
880.165	-20.99
880.337	13.82
880.509	22.02
880.681	3.58
880.854	-16.9
881.026	38.4
881.198	58.88
881.37	-6.66
881.542	-2.56
881.714	17.92
881.886	36.35
882.058	-49.66
882.23	1.54
882.402	-4.61
882.574	-2.56
882.746	40.45
882.918	67.07
883.09	15.87
883.262	1.54
883.434	9.73
883.606	93.69
883.778	38.4
883.95	54.78
884.122	-47.62
884.293	30.21
884.465	-16.9
884.637	3.58
884.809	-61.95
884.98	-4.61
885.152	32.26
885.324	-8.7
885.496	5.63
885.667	-18.94
885.839	-4.61
886.011	36.35
886.182	13.82
886.354	28.16
886.525	3.58
886.697	116.22
886.869	-47.62
887.04	42.5
887.212	60.93
887.383	48.64
887.555	-20.99
887.726	50.69
887.897	-51.71
888.069	-31.23
888.24	116.22
888.412	-4.61
888.583	-10.75
888.754	50.69
888.926	-55.81
889.097	1.54
889.268	-16.9
889.44	-37.38
889.611	5.63
889.782	26.11
889.953	-6.66
890.125	28.16
890.296	-53.76
890.467	-25.09
890.638	9.73
890.809	-2.56
890.98	7.68
891.151	-8.7
891.323	-20.99
891.494	-33.28
891.665	28.16
891.836	-10.75
892.007	-12.8
892.178	5.63
892.349	-14.85
892.52	52.74
892.691	-27.14
892.862	65.02
893.032	9.73
893.203	9.73
893.374	-4.61
893.545	28.16
893.716	19.97
893.887	-8.7
894.057	-59.9
894.228	17.92
894.399	-55.81
894.57	-94.72
894.74	9.73
894.911	30.21
895.082	58.88
895.253	7.68
895.423	44.54
895.594	28.16
895.764	-2.56
895.935	24.06
896.106	-16.9
896.276	-6.66
896.447	1.54
896.617	50.69
896.788	-49.66
896.958	40.45
897.129	-10.75
897.299	52.74
897.47	5.63
897.64	79.36
897.81	-27.14
897.981	-2.56
898.151	7.68
898.322	11.78
898.492	-35.33
898.662	-49.66
898.832	-35.33
899.003	-29.18
899.173	17.92
899.343	-49.66
899.513	-41.47
