Data from USB4F104151__29__12-41-13-345.txt Node

Date: Fri Mar 14 12:41:13 EDT 2025
User: louis
Spectrometer: USB4F10415
Trigger mode: 4
Integration Time (sec): 3.000000E-2
Scans to average: 1
Electric dark correction enabled: true
Nonlinearity correction enabled: false
Boxcar width: 0
XAxis mode: Wavelengths
Number of Pixels in Spectrum: 3648
>>>>>Begin Spectral Data<<<<<
178.204	-199.51
178.424	-199.51
178.644	-199.51
178.864	-179.03
179.084	-138.07
179.304	-37.72
179.524	-88.92
179.744	-17.24
179.964	76.97
180.184	-60.24
180.404	52.39
180.624	23.72
180.844	5.29
181.064	-41.81
181.283	74.92
181.503	-41.81
181.723	54.44
181.943	15.53
182.163	107.69
182.383	15.53
182.602	54.44
182.822	-17.24
183.042	68.78
183.262	-4.95
183.482	3.24
183.701	-37.72
183.921	52.39
184.141	-52.05
184.361	5.29
184.58	-29.52
184.8	85.16
185.02	9.39
185.239	25.77
185.459	-7
185.679	66.73
185.898	-52.05
186.118	33.96
186.338	52.39
186.557	31.91
186.777	-86.87
186.997	11.43
187.216	-43.86
187.436	44.2
187.655	-4.95
187.875	42.15
188.095	5.29
188.314	44.2
188.534	31.91
188.753	-66.39
188.973	-9.05
189.192	70.83
189.412	-2.9
189.631	62.63
189.851	19.63
190.07	40.11
190.29	3.24
190.509	25.77
190.729	-25.43
190.948	-13.14
191.168	154.79
191.387	46.25
191.607	-23.38
191.826	-33.62
192.045	-64.34
192.265	58.54
192.484	17.58
192.704	15.53
192.923	-54.1
193.142	56.49
193.362	15.53
193.581	36.01
193.8	38.06
194.02	13.48
194.239	74.92
194.458	5.29
194.678	3.24
194.897	9.39
195.116	15.53
195.335	36.01
195.555	23.72
195.774	3.24
195.993	-9.05
196.212	27.82
196.432	11.43
196.651	33.96
196.87	-72.53
197.089	68.78
197.308	105.64
197.528	5.29
197.747	31.91
197.966	60.59
198.185	83.11
198.404	-19.29
198.623	68.78
198.842	-25.43
199.062	-33.62
199.281	-13.14
199.5	-95.06
199.719	44.2
199.938	44.2
200.157	-23.38
200.376	-35.67
200.595	9.39
200.814	-7
201.033	-35.67
201.252	50.35
201.471	42.15
201.69	62.63
201.909	36.01
202.128	-56.15
202.347	44.2
202.566	-9.05
202.785	-41.81
203.004	-54.1
203.223	119.98
203.442	66.73
203.661	-19.29
203.879	-15.19
204.098	13.48
204.317	-0.85
204.536	126.12
204.755	-19.29
204.974	29.87
205.193	5.29
205.411	66.73
205.63	44.2
205.849	23.72
206.068	74.92
206.287	44.2
206.505	124.07
206.724	-45.91
206.943	48.3
207.162	1.19
207.381	-37.72
207.599	-43.86
207.818	-4.95
208.037	-4.95
208.255	-37.72
208.474	1.19
208.693	-35.67
208.911	50.35
209.13	9.39
209.349	15.53
209.567	83.11
209.786	23.72
210.005	48.3
210.223	25.77
210.442	36.01
210.661	-0.85
210.879	-9.05
211.098	36.01
211.316	13.48
211.535	40.11
211.753	-37.72
211.972	48.3
212.191	64.68
212.409	-25.43
212.628	25.77
212.846	1.19
213.065	-21.33
213.283	-0.85
213.502	7.34
213.72	23.72
213.938	11.43
214.157	-56.15
214.375	-0.85
214.594	33.96
214.812	62.63
215.031	-0.85
215.249	-17.24
215.467	-13.14
215.686	-7
215.904	97.45
216.122	-35.67
216.341	29.87
216.559	54.44
216.778	29.87
216.996	66.73
217.214	-41.81
217.432	11.43
217.651	17.58
217.869	-50
218.087	83.11
218.306	-7
218.524	42.15
218.742	21.67
218.96	87.21
219.179	-23.38
219.397	9.39
219.615	122.02
219.833	33.96
220.051	87.21
220.27	13.48
220.488	40.11
220.706	-0.85
220.924	27.82
221.142	48.3
221.36	19.63
221.578	56.49
221.796	31.91
222.015	11.43
222.233	-11.09
222.451	103.59
222.669	-33.62
222.887	15.53
223.105	-17.24
223.323	-13.14
223.541	-29.52
223.759	-11.09
223.977	-19.29
224.195	76.97
224.413	74.92
224.631	-29.52
224.849	54.44
225.067	11.43
225.285	3.24
225.503	25.77
225.721	-19.29
225.939	81.07
226.157	-2.9
226.375	99.5
226.592	-17.24
226.81	113.83
227.028	17.58
227.246	79.02
227.464	85.16
227.682	44.2
227.9	42.15
228.117	9.39
228.335	54.44
228.553	-15.19
228.771	-9.05
228.989	-9.05
229.206	-13.14
229.424	-33.62
229.642	1.19
229.86	-11.09
230.077	91.31
230.295	31.91
230.513	91.31
230.731	-13.14
230.948	15.53
231.166	-17.24
231.384	17.58
231.601	42.15
231.819	5.29
232.037	27.82
232.254	76.97
232.472	-21.33
232.689	-2.9
232.907	81.07
233.125	-25.43
233.342	-21.33
233.56	5.29
233.777	-33.62
233.995	50.35
234.213	76.97
234.43	42.15
234.648	21.67
234.865	-80.72
235.083	11.43
235.3	48.3
235.518	19.63
235.735	70.83
235.953	27.82
236.17	-27.48
236.388	52.39
236.605	21.67
236.822	76.97
237.04	48.3
237.257	-11.09
237.475	-23.38
237.692	-21.33
237.909	11.43
238.127	-68.44
238.344	64.68
238.562	25.77
238.779	-58.2
238.996	-9.05
239.214	-11.09
239.431	29.87
239.648	91.31
239.865	72.87
240.083	48.3
240.3	-19.29
240.517	-31.57
240.735	70.83
240.952	29.87
241.169	60.59
241.386	70.83
241.603	3.24
241.821	-90.96
242.038	72.87
242.255	19.63
242.472	-9.05
242.689	17.58
242.907	62.63
243.124	52.39
243.341	-64.34
243.558	-11.09
243.775	-33.62
243.992	-15.19
244.209	1.19
244.426	74.92
244.643	-9.05
244.86	19.63
245.078	38.06
245.295	7.34
245.512	42.15
245.729	23.72
245.946	42.15
246.163	25.77
246.38	109.74
246.597	-17.24
246.814	97.45
247.031	-19.29
247.248	19.63
247.464	-15.19
247.681	-0.85
247.898	42.15
248.115	40.11
248.332	-54.1
248.549	74.92
248.766	93.35
248.983	9.39
249.2	44.2
249.417	97.45
249.633	40.11
249.85	42.15
250.067	25.77
250.284	40.11
250.501	52.39
250.717	54.44
250.934	-21.33
251.151	-23.38
251.368	-9.05
251.585	15.53
251.801	19.63
252.018	-31.57
252.235	89.26
252.451	42.15
252.668	25.77
252.885	72.87
253.102	68.78
253.318	11.43
253.535	33.96
253.752	25.77
253.968	27.82
254.185	-45.91
254.401	-17.24
254.618	40.11
254.835	-35.67
255.051	15.53
255.268	36.01
255.484	36.01
255.701	91.31
255.917	36.01
256.134	-15.19
256.351	27.82
256.567	5.29
256.784	46.25
257	-52.05
257.217	76.97
257.433	44.2
257.65	62.63
257.866	25.77
258.082	-9.05
258.299	-50
258.515	-17.24
258.732	1.19
258.948	5.29
259.165	29.87
259.381	27.82
259.597	11.43
259.814	-47.96
260.03	9.39
260.246	44.2
260.463	81.07
260.679	27.82
260.895	23.72
261.112	19.63
261.328	9.39
261.544	56.49
261.761	81.07
261.977	-13.14
262.193	-60.24
262.409	93.35
262.626	-37.72
262.842	42.15
263.058	-2.9
263.274	-93.01
263.49	13.48
263.707	19.63
263.923	87.21
264.139	68.78
264.355	33.96
264.571	74.92
264.787	1.19
265.004	83.11
265.22	-4.95
265.436	33.96
265.652	-76.63
265.868	38.06
266.084	17.58
266.3	62.63
266.516	-43.86
266.732	-54.1
266.948	119.98
267.164	107.69
267.38	-17.24
267.596	-17.24
267.812	52.39
268.028	33.96
268.244	9.39
268.46	56.49
268.676	5.29
268.892	74.92
269.108	-47.96
269.324	60.59
269.54	68.78
269.756	79.02
269.972	29.87
270.188	79.02
270.403	-33.62
270.619	81.07
270.835	19.63
271.051	56.49
271.267	95.4
271.483	66.73
271.698	-13.14
271.914	31.91
272.13	-68.44
272.346	-2.9
272.562	7.34
272.777	85.16
272.993	-9.05
273.209	25.77
273.425	81.07
273.64	15.53
273.856	38.06
274.072	46.25
274.287	48.3
274.503	52.39
274.719	46.25
274.934	11.43
275.15	-13.14
275.366	38.06
275.581	-27.48
275.797	25.77
276.012	58.54
276.228	56.49
276.444	1.19
276.659	11.43
276.875	27.82
277.09	36.01
277.306	11.43
277.521	9.39
277.737	31.91
277.952	42.15
278.168	40.11
278.383	40.11
278.599	-0.85
278.814	40.11
279.03	23.72
279.245	42.15
279.461	7.34
279.676	-52.05
279.892	-17.24
280.107	-37.72
280.322	25.77
280.538	130.22
280.753	29.87
280.969	13.48
281.184	36.01
281.399	91.31
281.615	19.63
281.83	60.59
282.045	-50
282.26	27.82
282.476	52.39
282.691	81.07
282.906	56.49
283.122	-21.33
283.337	7.34
283.552	91.31
283.767	56.49
283.983	76.97
284.198	-11.09
284.413	56.49
284.628	-45.91
284.843	50.35
285.058	60.59
285.274	-37.72
285.489	11.43
285.704	-21.33
285.919	-19.29
286.134	-21.33
286.349	15.53
286.564	11.43
286.779	124.07
286.995	-13.14
287.21	-37.72
287.425	-19.29
287.64	72.87
287.855	7.34
288.07	-7
288.285	-0.85
288.5	-13.14
288.715	-27.48
288.93	-60.24
289.145	15.53
289.36	31.91
289.575	-4.95
289.79	50.35
290.004	52.39
290.219	13.48
290.434	40.11
290.649	38.06
290.864	-4.95
291.079	-29.52
291.294	-13.14
291.509	60.59
291.724	-4.95
291.938	1.19
292.153	42.15
292.368	31.91
292.583	119.98
292.798	-25.43
293.012	56.49
293.227	-17.24
293.442	48.3
293.657	17.58
293.871	60.59
294.086	42.15
294.301	101.55
294.516	66.73
294.73	21.67
294.945	29.87
295.16	40.11
295.374	11.43
295.589	-4.95
295.804	29.87
296.018	58.54
296.233	36.01
296.447	23.72
296.662	-19.29
296.877	31.91
297.091	3.24
297.306	-52.05
297.52	-4.95
297.735	70.83
297.949	60.59
298.164	9.39
298.378	29.87
298.593	-13.14
298.807	62.63
299.022	68.78
299.236	50.35
299.451	15.53
299.665	-23.38
299.88	40.11
300.094	9.39
300.309	33.96
300.523	58.54
300.737	46.25
300.952	-9.05
301.166	-66.39
301.381	1.19
301.595	70.83
301.809	74.92
302.024	-19.29
302.238	-7
302.452	-17.24
302.667	81.07
302.881	60.59
303.095	11.43
303.309	62.63
303.524	-39.76
303.738	-11.09
303.952	9.39
304.166	46.25
304.381	-17.24
304.595	115.88
304.809	-25.43
305.023	9.39
305.237	-4.95
305.452	56.49
305.666	124.07
305.88	19.63
306.094	11.43
306.308	-0.85
306.522	15.53
306.736	-50
306.95	68.78
307.164	-0.85
307.379	85.16
307.593	25.77
307.807	56.49
308.021	3.24
308.235	50.35
308.449	-54.1
308.663	-27.48
308.877	105.64
309.091	107.69
309.305	87.21
309.519	-25.43
309.733	-2.9
309.947	-15.19
310.161	13.48
310.374	40.11
310.588	62.63
310.802	91.31
311.016	5.29
311.23	50.35
311.444	-60.24
311.658	-33.62
311.872	11.43
312.085	64.68
312.299	52.39
312.513	54.44
312.727	68.78
312.941	68.78
313.154	29.87
313.368	25.77
313.582	-2.9
313.796	52.39
314.009	1.19
314.223	91.31
314.437	19.63
314.651	48.3
314.864	-0.85
315.078	15.53
315.292	19.63
315.505	13.48
315.719	33.96
315.933	11.43
316.146	15.53
316.36	33.96
316.573	97.45
316.787	93.35
317.001	42.15
317.214	3.24
317.428	38.06
317.641	-62.29
317.855	42.15
318.068	38.06
318.282	38.06
318.495	31.91
318.709	87.21
318.922	46.25
319.136	62.63
319.349	64.68
319.563	-19.29
319.776	-7
319.99	-29.52
320.203	-4.95
320.417	-27.48
320.63	83.11
320.843	97.45
321.057	23.72
321.27	46.25
321.483	122.02
321.697	74.92
321.91	-7
322.124	66.73
322.337	95.4
322.55	-25.43
322.763	-37.72
322.977	36.01
323.19	-50
323.403	54.44
323.617	68.78
323.83	9.39
324.043	-64.34
324.256	33.96
324.469	3.24
324.683	7.34
324.896	7.34
325.109	72.87
325.322	-7
325.535	25.77
325.748	62.63
325.962	-56.15
326.175	-19.29
326.388	124.07
326.601	23.72
326.814	-13.14
327.027	-21.33
327.24	74.92
327.453	-29.52
327.666	21.67
327.879	44.2
328.092	111.78
328.305	-23.38
328.518	3.24
328.731	27.82
328.944	23.72
329.157	33.96
329.37	-17.24
329.583	19.63
329.796	111.78
330.009	-23.38
330.222	60.59
330.435	58.54
330.648	9.39
330.861	93.35
331.073	31.91
331.286	44.2
331.499	27.82
331.712	9.39
331.925	56.49
332.138	87.21
332.35	42.15
332.563	-29.52
332.776	46.25
332.989	58.54
333.202	11.43
333.414	17.58
333.627	54.44
333.84	-25.43
334.053	15.53
334.265	-13.14
334.478	-27.48
334.691	56.49
334.903	3.24
335.116	-45.91
335.329	-29.52
335.541	68.78
335.754	48.3
335.966	46.25
336.179	36.01
336.392	-17.24
336.604	40.11
336.817	87.21
337.029	119.98
337.242	-21.33
337.454	72.87
337.667	5.29
337.88	156.84
338.092	23.72
338.305	66.73
338.517	31.91
338.729	19.63
338.942	70.83
339.154	-19.29
339.367	21.67
339.579	54.44
339.792	-4.95
340.004	83.11
340.217	64.68
340.429	42.15
340.641	-58.2
340.854	27.82
341.066	74.92
341.278	50.35
341.491	72.87
341.703	81.07
341.915	-9.05
342.128	46.25
342.34	21.67
342.552	70.83
342.764	87.21
342.977	93.35
343.189	25.77
343.401	68.78
343.613	7.34
343.826	13.48
344.038	-31.57
344.25	15.53
344.462	15.53
344.674	17.58
344.886	-50
345.099	58.54
345.311	17.58
345.523	36.01
345.735	31.91
345.947	17.58
346.159	44.2
346.371	60.59
346.583	1.19
346.795	134.31
347.007	85.16
347.219	9.39
347.431	-2.9
347.643	64.68
347.855	50.35
348.067	76.97
348.279	5.29
348.491	15.53
348.703	42.15
348.915	7.34
349.127	17.58
349.339	70.83
349.551	-13.14
349.763	60.59
349.975	33.96
350.187	83.11
350.399	56.49
350.61	27.82
350.822	-7
351.034	44.2
351.246	-35.67
351.458	66.73
351.669	58.54
351.881	62.63
352.093	31.91
352.305	124.07
352.517	85.16
352.728	21.67
352.94	27.82
353.152	-19.29
353.363	5.29
353.575	-15.19
353.787	25.77
353.999	91.31
354.21	93.35
354.422	13.48
354.633	-9.05
354.845	70.83
355.057	27.82
355.268	19.63
355.48	74.92
355.692	79.02
355.903	-17.24
356.115	58.54
356.326	-45.91
356.538	27.82
356.749	93.35
356.961	25.77
357.172	85.16
357.384	87.21
357.595	113.83
357.807	23.72
358.018	21.67
358.23	95.4
358.441	48.3
358.653	95.4
358.864	58.54
359.075	42.15
359.287	42.15
359.498	56.49
359.709	19.63
359.921	-13.14
360.132	44.2
360.344	42.15
360.555	19.63
360.766	25.77
360.977	5.29
361.189	101.55
361.4	85.16
361.611	27.82
361.823	70.83
362.034	119.98
362.245	29.87
362.456	76.97
362.667	64.68
362.879	25.77
363.09	62.63
363.301	50.35
363.512	50.35
363.723	128.17
363.935	31.91
364.146	23.72
364.357	50.35
364.568	70.83
364.779	23.72
364.99	117.93
365.201	31.91
365.412	56.49
365.623	42.15
365.834	29.87
366.045	-4.95
366.256	62.63
366.467	70.83
366.678	19.63
366.889	23.72
367.1	40.11
367.311	70.83
367.522	11.43
367.733	79.02
367.944	33.96
368.155	83.11
368.366	156.84
368.577	95.4
368.788	81.07
368.999	56.49
369.209	-25.43
369.42	13.48
369.631	60.59
369.842	64.68
370.053	50.35
370.264	17.58
370.474	38.06
370.685	7.34
370.896	-47.96
371.107	15.53
371.317	56.49
371.528	36.01
371.739	124.07
371.95	48.3
372.16	111.78
372.371	-7
372.582	1.19
372.792	109.74
373.003	89.26
373.214	74.92
373.424	48.3
373.635	44.2
373.846	5.29
374.056	23.72
374.267	-27.48
374.477	56.49
374.688	25.77
374.898	31.91
375.109	74.92
375.319	99.5
375.53	142.5
375.74	119.98
375.951	29.87
376.161	97.45
376.372	83.11
376.582	85.16
376.793	68.78
377.003	46.25
377.214	40.11
377.424	-9.05
377.635	58.54
377.845	-25.43
378.055	60.59
378.266	-17.24
378.476	23.72
378.686	42.15
378.897	95.4
379.107	-7
379.317	48.3
379.528	19.63
379.738	17.58
379.948	31.91
380.158	79.02
380.369	-13.14
380.579	91.31
380.789	29.87
380.999	72.87
381.21	97.45
381.42	146.6
381.63	64.68
381.84	5.29
382.05	25.77
382.261	9.39
382.471	126.12
382.681	130.22
382.891	25.77
383.101	72.87
383.311	-29.52
383.521	124.07
383.731	40.11
383.941	38.06
384.151	-45.91
384.361	89.26
384.571	-2.9
384.781	13.48
384.991	60.59
385.201	101.55
385.411	109.74
385.621	48.3
385.831	74.92
386.041	46.25
386.251	-0.85
386.461	19.63
386.671	3.24
386.881	68.78
387.091	64.68
387.301	-2.9
387.511	9.39
387.72	25.77
387.93	3.24
388.14	-13.14
388.35	101.55
388.56	150.7
388.769	46.25
388.979	87.21
389.189	-0.85
389.399	44.2
389.609	13.48
389.818	52.39
390.028	99.5
390.238	117.93
390.447	19.63
390.657	36.01
390.867	97.45
391.076	50.35
391.286	-0.85
391.496	40.11
391.705	40.11
391.915	119.98
392.125	103.59
392.334	21.67
392.544	46.25
392.753	58.54
392.963	60.59
393.172	-13.14
393.382	46.25
393.591	85.16
393.801	87.21
394.01	76.97
394.22	154.79
394.429	97.45
394.639	64.68
394.848	134.31
395.058	25.77
395.267	95.4
395.477	97.45
395.686	134.31
395.895	134.31
396.105	115.88
396.314	134.31
396.524	142.5
396.733	60.59
396.942	107.69
397.152	56.49
397.361	165.03
397.57	91.31
397.78	105.64
397.989	62.63
398.198	156.84
398.407	70.83
398.617	70.83
398.826	95.4
399.035	79.02
399.244	107.69
399.453	150.7
399.663	91.31
399.872	148.65
400.081	68.78
400.29	236.71
400.499	101.55
400.708	216.23
400.917	109.74
401.127	81.07
401.336	89.26
401.545	140.46
401.754	162.98
401.963	171.18
402.172	117.93
402.381	101.55
402.59	156.84
402.799	83.11
403.008	117.93
403.217	162.98
403.426	132.26
403.635	142.5
403.844	160.94
404.053	128.17
404.262	193.7
404.471	214.18
404.68	193.7
404.888	224.42
405.097	177.32
405.306	91.31
405.515	246.95
405.724	119.98
405.933	224.42
406.142	212.14
406.35	197.8
406.559	197.8
406.768	208.04
406.977	185.51
407.185	314.53
407.394	226.47
407.603	148.65
407.812	292.01
408.02	273.57
408.229	249
408.438	292.01
408.646	267.43
408.855	222.38
409.064	238.76
409.272	320.68
409.481	412.84
409.69	242.85
409.898	337.06
410.107	382.12
410.315	388.26
410.524	361.64
410.733	445.6
410.941	328.87
411.15	359.59
411.358	478.37
411.567	466.08
411.775	531.62
411.984	486.56
412.192	480.42
412.401	496.8
412.609	541.86
412.818	636.06
413.026	533.67
413.234	617.63
413.443	668.83
413.651	560.29
413.86	617.63
414.068	717.98
414.276	664.74
414.485	797.85
414.693	865.44
414.901	799.9
415.11	916.64
415.318	801.95
415.526	949.4
415.734	877.73
415.943	910.49
416.151	1082.52
416.359	1008.8
416.567	1000.6
416.776	1082.52
416.984	1174.68
417.192	1096.86
417.4	1156.25
417.608	1127.58
417.817	1242.26
418.025	1367.19
418.233	1477.78
418.441	1334.42
418.649	1381.53
418.857	1500.31
419.065	1559.7
419.273	1559.7
419.481	1676.43
419.689	1705.1
419.897	1875.09
420.105	1901.71
420.313	1895.57
420.521	1952.91
420.729	1985.68
420.937	2034.83
421.145	2049.16
421.353	2253.96
421.561	2251.91
421.769	2374.79
421.977	2503.81
422.185	2434.18
422.393	2575.49
422.601	2776.19
422.809	2698.37
423.017	2862.21
423.224	2935.93
423.432	3054.72
423.64	3042.43
423.848	3355.77
424.056	3249.27
424.263	3552.37
424.471	3525.75
424.679	3628.15
424.887	3712.11
425.094	3906.67
425.302	4095.08
425.51	3863.66
425.718	4168.81
425.925	4297.83
426.133	4330.6
426.341	4482.15
426.548	4901.98
426.756	4811.87
426.964	4912.22
427.171	5071.97
427.379	5438.55
427.586	5215.32
427.794	5579.86
428.001	5749.84
428.209	6075.47
428.417	5809.23
428.624	6370.38
428.832	6521.93
429.039	6345.8
429.247	6294.6
429.454	6949.95
429.662	7402.55
429.869	6833.22
430.076	7431.23
430.284	7492.66
430.491	7486.52
430.699	7916.59
430.906	7920.69
431.114	8057.9
431.321	8336.43
431.528	8668.2
431.736	9188.38
431.943	9466.91
432.15	9227.29
432.358	9280.54
432.565	9884.69
432.772	9921.56
432.979	10249.23
433.187	10581
433.394	10456.08
433.601	11213.82
433.808	11281.41
434.016	11174.91
434.223	11686.9
434.43	12258.29
434.637	12454.89
434.844	12938.21
435.052	13265.89
435.259	13083.62
435.466	13132.77
435.673	13177.83
435.88	14240.72
436.087	14640.08
436.294	14908.36
436.501	14414.8
436.708	14908.36
436.915	15338.43
437.122	15862.71
437.329	15782.84
437.537	16530.35
437.743	16473.01
437.95	16565.17
438.157	17343.39
438.364	17992.6
438.571	17841.05
438.778	17959.83
438.985	19737.47
439.192	18862.99
439.399	19598.21
439.606	19215.24
439.813	20286.33
440.02	21455.72
440.227	21033.83
440.433	20671.34
440.64	21404.52
440.847	21044.07
441.054	22104.92
441.261	23452.48
441.467	23216.97
441.674	23401.29
441.881	24441.65
442.088	24472.37
442.294	23829.31
442.501	24570.68
442.708	25230.12
442.914	26411.8
443.121	27523.85
443.328	26592.02
443.534	28594.93
443.741	27853.57
443.948	27226.89
444.154	29319.92
444.361	28947.18
444.568	29729.51
444.774	29434.6
444.981	29393.64
445.187	30175.97
445.394	31658.7
445.6	31412.94
445.807	34495.13
446.013	32957.11
446.22	33632.94
446.426	34912.92
446.633	35160.72
446.839	36184.71
447.046	34388.64
447.252	36522.62
447.459	36590.2
447.665	36375.17
447.871	38261.35
448.078	40241.73
448.284	38283.87
448.491	39238.23
448.697	40563.26
448.903	40897.08
449.11	41312.82
449.316	40577.6
449.522	41513.52
449.728	42250.79
449.935	43049.5
450.141	42752.54
450.347	43674.13
450.553	42496.55
450.76	42656.29
450.966	44288.52
451.172	43672.08
451.378	44884.48
451.584	43784.72
451.791	44894.72
451.997	44841.47
452.203	45339.13
452.409	45769.2
452.615	45111.8
452.821	43631.12
453.027	43188.76
453.233	45486.58
453.44	43665.94
453.646	44567.04
453.852	44493.32
454.058	45099.51
454.264	43696.66
454.47	44900.86
454.676	43768.33
454.882	45363.7
455.088	41499.19
455.294	41708.08
455.5	42435.11
455.705	42897.95
455.911	41144.89
456.117	40407.62
456.323	39643.73
456.529	37739.11
456.735	39608.91
456.941	38402.66
457.147	37857.9
457.352	36539.01
457.558	36338.3
457.764	36252.29
457.97	35283.6
458.176	34906.77
458.381	35213.97
458.587	33125.04
458.793	33237.68
458.999	31283.92
459.204	33952.42
459.41	32619.19
459.616	30767.83
459.821	30603.99
460.027	30728.92
460.233	29815.52
460.438	28504.82
460.644	28842.74
460.85	27372.3
461.055	27362.06
461.261	26972.94
461.466	24959.79
461.672	24257.34
461.878	26112.8
462.083	24431.41
462.289	23720.77
462.494	23610.18
462.7	22727.5
462.905	21900.12
463.111	22737.74
463.316	22684.5
463.522	22356.82
463.727	22631.25
463.932	22397.78
464.138	21863.26
464.343	22279
464.549	21406.56
464.754	22508.37
464.959	22090.59
465.165	22072.15
465.37	20947.82
465.575	20507.51
465.781	21609.31
465.986	21361.51
466.191	20753.26
466.397	20151.16
466.602	19383.17
466.807	19835.77
467.012	19876.73
467.218	19884.92
467.423	19301.25
467.628	19680.13
467.833	20525.94
468.038	19698.56
468.244	19307.4
468.449	19811.2
468.654	19153.8
468.859	19217.29
469.064	19010.44
469.269	18492.3
469.474	18529.17
469.679	19008.39
469.885	18586.51
470.09	18637.71
470.295	18373.52
470.5	18025.37
470.705	18246.55
470.91	17628.06
471.115	17836.95
471.32	18121.62
471.525	17712.03
471.73	17423.26
471.935	17134.5
472.139	16769.96
472.344	16815.02
472.549	16690.09
472.754	16761.77
472.959	16319.41
473.164	16024.5
473.369	15860.66
473.574	16321.46
473.778	16214.96
473.983	15758.27
474.188	15803.32
474.393	15035.33
474.598	15205.31
474.802	15317.95
475.007	15014.85
475.212	15270.85
475.417	14369.74
475.621	14484.43
475.826	14549.96
476.031	14308.3
476.235	13882.33
476.44	14285.78
476.645	13890.52
476.849	14064.6
477.054	13814.74
477.259	13595.61
477.463	13706.2
477.668	13118.43
477.872	13323.23
478.077	13126.63
478.282	12848.1
478.486	12719.08
478.691	12526.57
478.895	12837.86
479.1	12581.87
479.304	12706.79
479.509	12188.66
479.713	12393.45
479.918	12284.91
480.122	11897.85
480.326	12192.75
480.531	12125.17
480.735	12041.2
480.94	11781.11
481.144	12334.06
481.348	11721.72
481.553	11772.92
481.757	11641.85
481.961	11856.89
482.166	12108.79
482.37	11820.02
482.574	11580.41
482.778	11815.93
482.983	11979.76
483.187	11723.77
483.391	11783.16
483.595	11803.64
483.8	11478.01
484.004	11727.86
484.208	11897.85
484.412	11613.18
484.616	11641.85
484.821	11727.86
485.025	11676.66
485.229	11734.01
485.433	11656.18
485.637	11527.16
485.841	11609.08
486.045	11516.92
486.249	11639.8
486.453	11695.1
486.657	11672.57
486.861	11891.7
487.065	11363.33
487.269	11607.03
487.473	11535.35
487.677	11621.37
487.881	11695.1
488.085	11719.67
488.289	11594.75
488.493	11617.27
488.697	11963.38
488.901	11860.98
489.105	11699.19
489.309	11805.69
489.512	11789.3
489.716	11959.28
489.92	11863.03
490.124	11867.13
490.328	11918.32
490.531	11912.18
490.735	12041.2
490.939	12104.69
491.143	12108.79
491.346	11990
491.55	12221.42
491.754	12211.18
491.958	12110.83
492.161	12280.82
492.365	12243.95
492.569	12145.65
492.772	12301.29
492.976	12313.58
493.18	12512.24
493.383	12663.79
493.587	12442.6
493.79	12616.68
493.994	12590.06
494.197	12831.72
494.401	12970.98
494.605	12913.64
494.808	13114.34
495.012	13186.02
495.215	13079.52
495.419	13566.94
495.622	13319.14
495.825	13448.16
496.029	13583.32
496.232	13790.17
496.436	13759.45
496.639	14003.16
496.843	13913.05
497.046	14185.43
497.249	14560.2
497.453	14451.66
497.656	14721.99
497.859	14681.03
498.063	14910.41
498.266	15033.29
498.469	15125.44
498.673	15184.83
498.876	15393.73
499.079	15541.18
499.282	15600.57
499.485	15879.1
499.689	16143.28
499.892	16391.09
500.095	16331.7
500.298	16679.85
500.501	16561.07
500.705	17257.38
500.908	17253.28
501.111	17458.08
501.314	17630.11
501.517	17359.78
501.72	17916.83
501.923	17734.56
502.126	18092.95
502.329	18488.21
502.532	18371.47
502.735	18584.46
502.938	19196.81
503.141	19104.65
503.344	19303.3
503.547	19489.67
503.75	19817.34
503.953	20087.67
504.156	20112.25
504.359	20253.56
504.562	20392.82
504.765	20677.49
504.968	20933.48
505.17	21439.33
505.373	21371.75
505.576	21683.04
505.779	21601.12
505.982	21871.45
506.185	22516.56
506.387	22698.83
506.59	22678.35
506.793	23028.56
506.996	23012.17
507.198	23565.12
507.401	23696.19
507.604	23675.71
507.807	24445.75
508.009	24218.43
508.212	24714.03
508.415	24871.73
508.617	25170.73
508.82	25033.52
509.022	24847.15
509.225	25766.69
509.428	25801.5
509.63	25881.38
509.833	26372.89
510.035	26790.67
510.238	26694.42
510.44	26934.03
510.643	27095.82
510.845	27730.69
511.048	27529.99
511.25	27828.99
511.453	28369.66
511.655	29027.06
511.858	28629.75
512.06	28926.71
512.262	29139.69
512.465	28947.18
512.667	29768.42
512.87	30036.7
513.072	30354.14
513.274	30907.09
513.477	30528.22
513.679	30927.57
513.881	31218.38
514.084	31550.15
514.286	31576.78
514.488	31847.11
514.69	32805.56
514.893	32727.74
515.095	32651.96
515.297	32830.13
515.499	33155.76
515.701	33594.03
515.904	33913.51
516.106	34056.87
516.308	34644.63
516.51	34839.19
516.712	34724.5
516.914	35070.61
517.116	35998.34
517.318	35721.87
517.52	35752.59
517.722	36106.88
517.925	36483.71
518.127	36608.64
518.329	37311.09
518.531	36610.68
518.733	37724.78
518.935	37597.8
519.136	37759.59
519.338	38412.9
519.54	38386.27
519.742	38861.4
519.944	38773.34
520.146	39701.07
520.348	39754.32
520.55	39776.84
520.752	39629.39
520.954	40761.92
521.155	39809.61
521.357	40751.68
521.559	40997.43
521.761	41837.1
521.963	41386.55
522.164	41464.37
522.366	41792.04
522.568	41859.63
522.77	42246.69
522.971	42684.96
523.173	42529.31
523.375	42914.33
523.576	42859.04
523.778	42717.73
523.98	43604.5
524.181	43719.18
524.383	43858.45
524.584	43643.41
524.786	44216.84
524.988	44020.23
525.189	44280.33
525.391	44780.03
525.592	44950.01
525.794	44931.58
525.995	45085.18
526.197	44950.01
526.398	45343.22
526.6	45605.36
526.801	45521.4
527.003	45453.81
527.204	45746.67
527.406	46111.21
527.607	45531.64
527.808	46449.13
528.01	45244.92
528.211	46191.08
528.412	46526.95
528.614	46690.79
528.815	46526.95
529.016	47376.86
529.218	46809.57
529.419	46762.47
529.62	47206.87
529.822	46821.86
530.023	46957.02
530.224	46836.19
530.425	46801.38
530.626	46850.53
530.828	46674.4
531.029	47546.84
531.23	46553.57
531.431	47194.59
531.632	47309.27
531.833	47395.29
532.035	46954.97
532.236	47045.08
532.437	47417.82
532.638	47020.51
532.839	47145.44
533.04	47876.56
533.241	46721.51
533.442	48107.98
533.643	47569.36
533.844	47499.73
534.045	47768.02
534.246	47088.09
534.447	47923.66
534.648	47710.67
534.849	47604.18
535.05	46971.36
535.251	47479.25
535.451	47159.77
535.652	47901.14
535.853	47354.33
536.054	47862.22
536.255	47710.67
536.456	47399.38
536.657	47772.11
536.857	47348.18
537.058	47292.89
537.259	47690.19
537.46	47051.23
537.66	47311.32
537.861	47649.24
538.062	47311.32
538.263	47423.96
538.463	47313.37
538.664	47589.84
538.865	47251.93
539.065	47628.76
539.266	47184.35
539.466	47679.96
539.667	46787.04
539.868	47628.76
540.068	46801.38
540.269	47487.45
540.469	47360.47
540.67	46973.41
540.87	46701.03
541.071	46995.93
541.271	47634.9
541.472	47204.83
541.672	47014.37
541.873	46952.93
542.073	46428.65
542.274	47567.32
542.474	46805.47
542.675	46709.22
542.875	47477.21
543.075	46967.26
543.276	46391.78
543.476	47344.09
543.676	46916.06
543.877	47178.2
544.077	46977.5
544.277	46694.88
544.478	46668.26
544.678	46879.2
544.878	46940.64
545.078	46719.46
545.279	46453.22
545.479	46924.25
545.679	47129.05
545.879	46414.31
546.079	46758.37
546.28	46703.07
546.48	46139.88
546.68	46844.38
546.88	46670.31
547.08	46633.44
547.28	46576.1
547.48	46297.58
547.68	46641.63
547.88	46279.14
548.081	46666.21
548.281	46592.48
548.481	46377.45
548.681	46758.37
548.881	45881.84
549.081	46615.01
549.28	46363.11
549.48	46823.9
549.68	46598.63
549.88	46905.82
550.08	46375.4
550.28	46639.59
550.48	46285.29
550.68	46596.58
550.88	46021.1
551.08	46504.42
551.279	46741.99
551.479	45842.93
551.679	46287.34
551.879	45679.09
552.079	46078.44
552.278	45920.75
552.478	46361.06
552.678	46391.78
552.878	46473.7
553.077	45646.32
553.277	45531.64
553.477	46774.75
553.676	46268.9
553.876	45963.76
554.076	45832.69
554.275	45267.45
554.475	45163
554.674	45564.4
554.874	45797.87
555.074	45464.05
555.273	46019.05
555.473	46485.99
555.672	45216.25
555.872	45429.24
556.071	45394.42
556.271	45926.89
556.47	45181.43
556.67	45365.75
556.869	45531.64
557.068	45240.82
557.268	45324.79
557.467	45345.27
557.667	45367.8
557.866	45296.12
558.065	45234.68
558.265	45074.94
558.464	44769.79
558.663	45330.93
558.863	44947.96
559.062	45414.9
559.261	44857.85
559.461	45468.15
559.66	44511.75
559.859	44753.41
560.058	44644.87
560.258	45089.27
560.457	44550.66
560.656	44892.67
560.855	44442.12
561.054	44771.84
561.253	44499.46
561.453	44544.51
561.652	44993.02
561.851	44784.13
562.05	44366.34
562.249	44139.02
562.448	44374.53
562.647	44540.42
562.846	44315.14
563.045	44485.12
563.244	43758.09
563.443	44972.54
563.642	43928.08
563.841	44110.35
564.04	44044.81
564.239	44466.69
564.438	43598.35
564.637	43858.45
564.836	44112.39
565.035	43223.58
565.234	43565.59
565.432	43444.76
565.631	43098.65
565.83	43764.24
566.029	43467.28
566.228	43311.64
566.427	43268.63
566.625	43350.55
566.824	42678.82
567.023	43287.06
567.222	42590.75
567.42	43502.1
567.619	42881.56
567.818	42807.84
568.016	42807.84
568.215	43082.27
568.414	42445.35
568.612	42871.32
568.811	42537.51
569.01	42805.79
569.208	42086.95
569.407	42431.01
569.605	42082.86
569.804	42856.99
570.002	41886.25
570.201	42742.3
570.4	41701.93
570.598	41882.16
570.797	41511.47
570.995	42258.98
571.193	41206.33
571.392	42027.56
571.59	41558.58
571.789	41757.23
571.987	41626.16
572.186	41314.87
572.384	41105.98
572.582	41849.39
572.781	41462.32
572.979	41255.48
573.177	41392.69
573.376	40987.19
573.574	41050.68
573.772	41474.61
573.971	40702.53
574.169	40770.11
574.367	40759.87
574.565	40915.51
574.763	40618.56
574.962	40469.06
575.16	40030.79
575.358	40507.97
575.556	40405.57
575.754	40575.55
575.952	39703.12
576.151	40249.92
576.349	39789.13
576.547	40000.07
576.745	40141.38
576.943	39805.52
577.141	39973.45
577.339	39916.11
577.537	39422.55
577.735	39301.71
577.933	39393.87
578.131	39084.63
578.329	39465.55
578.527	38896.22
578.725	38836.83
578.923	39352.91
579.121	38627.93
579.319	38990.42
579.516	38873.69
579.714	38548.06
579.912	38642.27
580.11	38521.44
580.308	38466.14
580.506	38488.67
580.704	37937.77
580.901	38300.26
581.099	38699.61
581.297	37581.42
581.495	38025.83
581.692	37913.19
581.89	37606
582.088	37884.52
582.285	37603.95
582.483	38025.83
582.681	37644.91
582.878	37190.26
583.076	37141.11
583.274	37184.12
583.471	37034.61
583.669	37395.06
583.866	36721.27
584.064	37180.02
584.262	36776.57
584.459	37030.52
584.657	36594.3
584.854	36563.58
585.052	36037.25
585.249	36659.84
585.447	36774.52
585.644	36022.92
585.841	36459.13
586.039	36321.92
586.236	35768.97
586.434	35801.74
586.631	35797.64
586.828	36131.46
587.026	35771.02
587.223	35605.13
587.42	35369.61
587.618	35406.48
587.815	35410.57
588.012	34933.4
588.21	35072.66
588.407	35349.14
588.604	34994.84
588.801	34765.46
588.999	35189.39
589.196	34964.12
589.393	34876.05
589.59	34486.94
589.787	34509.47
589.984	34607.77
590.182	34140.83
590.379	34337.44
590.576	33866.41
590.773	34038.44
590.97	33657.51
591.167	33778.34
591.364	33471.15
591.561	33782.44
591.758	33372.85
591.955	33112.75
592.152	33438.38
592.349	33460.91
592.546	33331.89
592.743	33229.49
592.94	32875.19
593.137	33114.8
593.334	33073.84
593.531	32459.45
593.727	32981.68
593.924	32561.85
594.121	32318.14
594.318	32586.43
594.515	32238.27
594.712	32506.55
594.908	32105.15
595.105	32219.84
595.302	31705.8
595.499	32021.19
595.696	31488.71
595.892	31724.23
596.089	32225.98
596.286	31591.11
596.482	31441.61
596.679	31558.35
596.876	31685.32
597.072	31259.34
597.269	30780.12
597.466	31240.91
597.662	30733.01
597.859	30759.64
598.055	30753.49
598.252	30890.71
598.448	30778.07
598.645	30266.08
598.841	30130.91
599.038	30370.52
599.234	30405.34
599.431	30171.87
599.627	29874.91
599.824	29881.06
600.02	29909.73
600.217	29891.3
600.413	29594.34
600.609	29754.08
600.806	29475.56
601.002	29557.48
601.198	29569.77
601.395	28912.37
601.591	29518.57
601.787	29307.63
601.984	29174.51
602.18	29405.93
602.376	29176.56
602.572	28836.59
602.769	28781.3
602.965	28744.44
603.161	28861.17
603.357	28437.24
603.553	28367.61
603.75	28523.26
603.946	28271.36
604.142	27976.45
604.338	27855.62
604.534	28201.72
604.73	28115.71
604.926	27960.06
605.122	27935.49
605.318	27478.79
605.514	27351.82
605.71	27589.38
605.906	27323.15
606.102	27568.9
606.298	27271.95
606.494	27335.43
606.69	27472.65
606.886	27308.81
607.082	27208.46
607.278	27194.12
607.474	26643.22
607.67	26897.17
607.866	26366.74
608.062	26934.03
608.257	26641.17
608.453	26764.05
608.649	26858.26
608.845	26520.34
609.041	26587.92
609.236	26700.56
609.432	26479.38
609.628	26346.26
609.824	26362.65
610.019	26387.22
610.215	26493.72
610.411	26393.37
610.606	25965.34
610.802	26178.33
610.998	26104.6
611.193	26200.86
611.389	25901.86
611.584	26137.37
611.78	25762.59
611.976	26157.85
612.171	25887.52
612.367	25940.77
612.562	25944.86
612.758	25611.04
612.953	25494.31
613.149	25742.11
613.344	25309.99
613.539	25791.27
613.735	25527.08
613.93	25488.17
614.126	25236.27
614.321	25864.99
614.517	25414.44
614.712	25074.48
614.907	25068.33
615.103	24939.31
615.298	24943.41
615.493	25293.61
615.688	24884.01
615.884	25299.75
616.079	24830.77
616.274	25027.37
616.47	24820.53
616.665	25121.58
616.86	24570.68
617.055	24630.07
617.25	24580.92
617.445	24867.63
617.641	24179.51
617.836	24515.38
618.031	24443.7
618.226	24408.89
618.421	24269.62
618.616	24453.94
618.811	24044.35
619.006	24539.96
619.201	23335.75
619.396	23956.29
619.591	23423.81
619.786	23987
619.981	23413.57
620.176	23434.05
620.371	23153.48
620.566	23403.33
620.761	23143.24
620.956	23503.68
621.151	22641.49
621.346	22944.59
621.541	22600.53
621.735	22944.59
621.93	22541.14
622.125	22727.5
622.32	21980
622.515	22399.83
622.709	22272.85
622.904	22121.31
623.099	21791.58
623.294	21875.55
623.488	21650.27
623.683	21910.36
623.878	21173.1
624.072	21515.11
624.267	21508.96
624.462	21263.21
624.656	21216.1
624.851	21039.98
625.046	20644.72
625.24	20888.43
625.435	20509.55
625.629	20642.67
625.824	20700.01
626.018	20315
626.213	19798.91
626.407	19954.55
626.602	19725.18
626.796	19846.01
626.991	19962.75
627.185	19598.21
627.38	19669.89
627.574	19223.43
627.768	19407.75
627.963	19389.31
628.157	19149.7
628.352	19209.09
628.546	18785.16
628.74	18914.19
628.935	18625.42
629.129	18525.07
629.323	18348.95
629.517	18318.23
629.712	18549.65
629.906	18432.91
630.1	18092.95
630.294	18064.28
630.489	18226.07
630.683	18056.09
630.877	17494.94
631.071	17501.09
631.265	17529.76
631.459	17496.99
631.653	17478.56
631.848	17261.48
632.042	17255.33
632.236	17267.62
632.43	16950.18
632.624	17281.95
632.818	16901.03
633.012	16964.52
633.206	16559.02
633.4	16792.49
633.594	16552.88
633.788	16509.87
633.982	16671.66
634.176	16427.95
634.369	15887.29
634.563	16307.12
634.757	16171.96
634.951	15958.97
635.145	16010.17
635.339	15924.15
635.533	15793.08
635.726	15762.36
635.92	15700.92
636.114	15412.16
636.308	15330.24
636.501	15780.79
636.695	15233.99
636.889	15444.93
637.083	15070.15
637.276	15147.97
637.47	15147.97
637.664	14855.11
637.857	15072.2
638.051	14920.65
638.244	14496.72
638.438	14588.88
638.632	14613.45
638.825	14449.61
639.019	14474.19
639.212	14185.43
639.406	14066.64
639.599	14377.94
639.793	14492.62
639.986	13896.66
640.18	14052.31
640.373	13728.73
640.567	13636.57
640.76	13794.26
640.954	13771.74
641.147	13747.16
641.34	13298.66
641.534	13583.32
641.727	13407.2
641.92	13224.93
642.114	13241.31
642.307	13364.19
642.5	13153.25
642.694	12952.55
642.887	13075.43
643.08	12948.45
643.273	12942.31
643.467	12917.73
643.66	12889.06
643.853	12547.05
644.046	12481.52
644.239	12624.87
644.432	12637.16
644.626	12344.3
644.819	12444.65
645.012	12442.6
645.205	12458.99
645.398	12495.85
645.591	12096.5
645.784	12164.08
645.977	11969.52
646.17	12237.81
646.363	11817.97
646.556	11715.58
646.749	11875.32
646.942	11944.95
647.135	11809.78
647.328	11662.33
647.521	11598.84
647.714	11426.81
647.907	11338.75
648.099	11172.86
648.292	11412.48
648.485	11258.88
648.678	10802.18
648.871	11158.53
649.064	11136
649.256	10978.31
649.449	11088.9
649.642	10955.78
649.835	10615.82
650.027	10736.65
650.22	10617.86
650.413	10619.91
650.605	10630.15
650.798	10646.54
650.991	10560.52
651.183	10365.96
651.376	10370.06
651.568	10433.55
651.761	10372.11
651.954	10177.55
652.146	10107.92
652.339	10177.55
652.531	10210.32
652.724	9794.58
652.916	9901.08
653.109	9868.31
653.301	10019.86
653.494	9944.08
653.686	9681.94
653.879	9772.05
654.071	9659.42
654.263	9587.74
654.456	9479.19
654.648	9546.78
654.84	9423.9
655.033	9511.96
655.225	9434.14
655.417	9169.95
655.61	9296.92
655.802	9350.17
655.994	9206.81
656.186	9198.62
656.379	9155.61
656.571	9233.44
656.763	8961.06
656.955	9073.7
657.148	8811.56
657.34	8756.26
657.532	8836.13
657.724	8780.84
657.916	8860.71
658.108	8690.73
658.3	8596.52
658.492	8641.57
658.684	8492.07
658.876	8492.07
659.068	8510.5
659.26	8299.56
659.452	8348.72
659.644	8309.8
659.836	8092.72
660.028	8260.65
660.22	8139.82
660.412	8021.04
660.604	8125.49
660.796	8018.99
660.988	8062
661.18	7894.07
661.372	8018.99
661.563	7879.73
661.755	7982.13
661.947	7646.26
662.139	7771.19
662.331	7779.38
662.522	7619.64
662.714	7713.84
662.906	7554.1
663.097	7412.79
663.289	7676.98
663.481	7564.34
663.673	7558.2
663.864	7359.55
664.056	7396.41
664.247	7367.74
664.439	7173.18
664.631	7388.22
664.822	7300.16
665.014	7275.58
665.205	7068.73
665.397	7023.68
665.588	7113.79
665.78	6968.38
665.971	7134.27
666.163	7158.85
666.354	7068.73
666.546	6949.95
666.737	6872.13
666.929	6767.68
667.12	6835.27
667.311	6827.07
667.503	6644.81
667.694	6843.46
667.885	6569.03
668.077	6585.41
668.268	6536.26
668.459	6671.43
668.651	6491.21
668.842	6562.89
669.033	6554.69
669.224	6364.23
669.416	6560.84
669.607	6548.55
669.798	6347.85
669.989	6302.79
670.18	6290.51
670.371	6290.51
670.563	6155.34
670.754	6206.54
670.945	6034.51
671.136	6065.23
671.327	6069.33
671.518	5966.93
671.709	6038.61
671.9	6009.93
672.091	6087.76
672.282	5987.41
672.473	5958.74
672.664	5938.26
672.855	5680.21
673.046	5909.58
673.237	6104.14
673.428	5844.05
673.619	5774.42
673.809	5739.6
674	5694.55
674.191	5743.7
674.382	5700.69
674.573	5819.47
674.764	5712.98
674.954	5727.32
675.145	5692.5
675.336	5540.95
675.527	5569.62
675.717	5651.54
675.908	5395.54
676.099	5629.01
676.289	5413.98
676.48	5418.07
676.671	5239.9
676.861	5411.93
677.052	5338.2
677.243	5282.91
677.433	5325.91
677.624	5344.35
677.814	5254.23
678.005	5215.32
678.195	5364.82
678.386	5284.95
678.576	5270.62
678.767	5129.31
678.957	5149.79
679.148	5203.04
679.338	5086.3
679.529	5180.51
679.719	5129.31
679.909	5092.44
680.1	4957.28
680.29	5000.29
680.481	4928.61
680.671	5028.96
680.861	4863.07
681.052	5028.96
681.242	4908.13
681.432	5002.33
681.622	4680.8
681.813	4914.27
682.003	4828.26
682.193	4838.5
682.383	4858.98
682.573	4777.06
682.764	4949.09
682.954	4768.87
683.144	4807.78
683.334	4852.83
683.524	4686.95
683.714	4906.08
683.904	4770.91
684.094	4719.71
684.284	4549.73
684.474	4709.47
684.664	4727.91
684.854	4725.86
685.044	4590.69
685.234	4478.05
685.424	4502.63
685.614	4570.21
685.804	4574.31
685.994	4605.03
686.184	4510.82
686.374	4607.08
686.564	4551.78
686.753	4455.53
686.943	4377.7
687.133	4611.17
687.323	4267.11
687.513	4435.05
687.702	4267.11
687.892	4222.06
688.082	4430.95
688.272	4392.04
688.461	4260.97
688.651	4244.59
688.841	4203.63
689.03	3966.06
689.22	4047.98
689.41	4060.27
689.599	3992.69
689.789	4037.74
689.979	3980.4
690.168	4009.07
690.358	4019.31
690.547	4052.08
690.737	3966.06
690.926	3961.97
691.116	3779.7
691.305	3853.42
691.495	3814.51
691.684	3765.36
691.874	3896.43
692.063	3902.58
692.252	3802.22
692.442	3732.59
692.631	3740.79
692.82	3798.13
693.01	3673.2
693.199	3626.1
693.388	3673.2
693.578	3560.56
693.767	3755.12
693.956	3617.91
694.146	3579
694.335	3687.54
694.524	3654.77
694.713	3548.28
694.902	3570.8
695.092	3564.66
695.281	3601.52
695.47	3392.63
695.659	3392.63
695.848	3441.78
696.037	3275.9
696.226	3429.49
696.415	3402.87
696.604	3474.55
696.793	3423.35
696.982	3279.99
697.171	3298.42
697.36	3314.81
697.549	3222.65
697.738	3380.34
697.927	3214.46
698.116	3228.79
698.305	3378.3
698.494	3185.79
698.683	3290.23
698.872	3181.69
699.061	3187.83
699.25	3216.51
699.438	3171.45
699.627	3079.29
699.816	3058.81
700.005	3118.2
700.193	3220.6
700.382	3183.74
700.571	3155.07
700.76	3095.68
700.948	3193.98
701.137	3112.06
701.326	3091.58
701.514	2974.85
701.703	2970.75
701.892	2974.85
702.08	2997.37
702.269	3013.76
702.457	3013.76
702.646	3060.86
702.834	2935.93
703.023	2921.6
703.212	2956.41
703.4	2915.45
703.589	2874.49
703.777	2948.22
703.965	2917.5
704.154	3032.19
704.342	2804.86
704.531	2942.08
704.719	2792.58
704.907	2878.59
705.096	2798.72
705.284	2817.15
705.472	2894.97
705.661	2774.14
705.849	2886.78
706.037	2854.02
706.226	2772.1
706.414	2905.21
706.602	2753.66
706.79	2806.91
706.979	2724.99
707.167	2677.89
707.355	2679.94
707.543	2667.65
707.731	2761.86
707.919	2692.23
708.107	2645.12
708.296	2655.36
708.484	2755.71
708.672	2733.18
708.86	2663.55
709.048	2636.93
709.236	2567.3
709.424	2720.9
709.612	2671.75
709.8	2509.96
709.988	2563.2
710.176	2671.75
710.364	2708.61
710.551	2667.65
710.739	2540.68
710.927	2540.68
711.115	2675.84
711.303	2587.78
711.491	2563.2
711.679	2632.83
711.866	2659.46
712.054	2649.22
712.242	2632.83
712.43	2710.66
712.617	2606.21
712.805	2485.38
712.993	2475.14
713.181	2520.2
713.368	2614.4
713.556	2522.24
713.744	2405.51
713.931	2567.3
714.119	2614.4
714.306	2575.49
714.494	2438.28
714.682	2595.97
714.869	2462.85
715.057	2530.44
715.244	2462.85
715.432	2487.43
715.619	2477.19
715.807	2399.37
715.994	2485.38
716.182	2509.96
716.369	2407.56
716.556	2481.28
716.744	2464.9
716.931	2262.15
717.119	2471.04
717.306	2399.37
717.493	2548.87
717.681	2397.32
717.868	2430.09
718.055	2415.75
718.242	2489.48
718.43	2385.03
718.617	2329.74
718.804	2395.27
718.991	2385.03
719.179	2399.37
719.366	2307.21
719.553	2425.99
719.74	2380.93
719.927	2350.21
720.114	2378.89
720.301	2411.65
720.488	2358.41
720.676	2237.58
720.863	2290.82
721.05	2409.61
721.237	2364.55
721.424	2362.5
721.611	2378.89
721.798	2346.12
721.985	2335.88
722.172	2274.44
722.358	2268.3
722.545	2237.58
722.732	2401.41
722.919	2276.49
723.106	2313.35
723.293	2219.14
723.48	2352.26
723.667	2292.87
723.853	2221.19
724.04	2378.89
724.227	2358.41
724.414	2272.39
724.6	2333.83
724.787	2290.82
724.974	2307.21
725.161	2372.74
725.347	2260.1
725.534	2196.62
725.72	2217.1
725.907	2270.34
726.094	2350.21
726.28	2258.06
726.467	2276.49
726.653	2202.76
726.84	2233.48
727.027	2337.93
727.213	2206.86
727.4	2356.36
727.586	2270.34
727.773	2253.96
727.959	2270.34
728.145	2391.17
728.332	2237.58
728.518	2364.55
728.705	2296.97
728.891	2241.67
729.077	2219.14
729.264	2256.01
729.45	2323.59
729.636	2270.34
729.823	2313.35
730.009	2354.31
730.195	2256.01
730.382	2217.1
730.568	2301.06
730.754	2284.68
730.94	2307.21
731.126	2380.93
731.313	2233.48
731.499	2329.74
731.685	2241.67
731.871	2260.1
732.057	2292.87
732.243	2223.24
732.429	2223.24
732.615	2290.82
732.801	2319.5
732.987	2180.23
733.173	2331.78
733.359	2282.63
733.545	2196.62
733.731	2143.37
733.917	2319.5
734.103	2098.31
734.289	2358.41
734.475	2272.39
734.661	2284.68
734.847	2380.93
735.033	2303.11
735.219	2344.07
735.404	2282.63
735.59	2247.82
735.776	2278.54
735.962	2323.59
736.148	2198.67
736.333	2249.86
736.519	2296.97
736.705	2253.96
736.89	2276.49
737.076	2319.5
737.262	2198.67
737.447	2397.32
737.633	2260.1
737.819	2249.86
738.004	2280.58
738.19	2370.69
738.375	2307.21
738.561	2321.54
738.747	2317.45
738.932	2221.19
739.118	2268.3
739.303	2213
739.489	2327.69
739.674	2176.14
739.859	2161.8
740.045	2305.16
740.23	2151.56
740.416	2210.95
740.601	2176.14
740.786	2319.5
740.972	2215.05
741.157	2256.01
741.342	2225.29
741.528	2223.24
741.713	2241.67
741.898	2141.32
742.084	2159.75
742.269	2149.51
742.454	2131.08
742.639	2307.21
742.824	2262.15
743.01	2180.23
743.195	2274.44
743.38	2206.86
743.565	2176.14
743.75	2223.24
743.935	2106.51
744.12	2249.86
744.305	2077.83
744.49	2100.36
744.675	2120.84
744.86	2069.64
745.045	2047.12
745.23	2024.59
745.415	2131.08
745.6	2167.95
745.785	2002.06
745.97	2038.92
746.155	2086.03
746.34	2118.79
746.525	2069.64
746.71	2124.94
746.895	2059.4
747.079	2104.46
747.264	2026.64
747.449	2043.02
747.634	2012.3
747.819	1961.1
748.003	2049.16
748.188	2008.2
748.373	1993.87
748.557	1936.53
748.742	1924.24
748.927	1993.87
749.111	2000.01
749.296	1934.48
749.481	1895.57
749.665	1973.39
749.85	1821.84
750.034	1952.91
750.219	1948.81
750.404	1889.42
750.588	1942.67
750.773	1932.43
750.957	1834.13
751.141	1799.31
751.326	1914
751.51	1811.6
751.695	1821.84
751.879	1823.89
752.064	1827.98
752.248	1770.64
752.432	1801.36
752.617	1836.17
752.801	1756.3
752.985	1723.54
753.17	1766.54
753.354	1701.01
753.538	1733.78
753.722	1752.21
753.907	1627.28
754.091	1551.51
754.275	1664.15
754.459	1713.3
754.643	1662.1
754.828	1680.53
755.012	1684.62
755.196	1596.56
755.38	1653.91
755.564	1524.88
755.748	1633.43
755.932	1621.14
756.116	1561.75
756.3	1617.04
756.484	1614.99
756.668	1533.08
756.852	1539.22
757.036	1569.94
757.22	1467.54
757.404	1479.83
757.588	1475.73
757.772	1504.4
757.956	1367.19
758.14	1535.12
758.323	1440.92
758.507	1479.83
758.691	1453.2
758.875	1483.92
759.059	1494.16
759.242	1424.53
759.426	1545.36
759.61	1393.81
759.794	1363.09
759.977	1420.44
760.161	1492.12
760.345	1369.24
760.528	1354.9
760.712	1359
760.895	1340.57
761.079	1342.61
761.263	1373.33
761.446	1440.92
761.63	1356.95
761.813	1385.62
761.997	1361.05
762.18	1342.61
762.364	1313.94
762.547	1299.61
762.731	1250.46
762.914	1315.99
763.098	1346.71
763.281	1281.18
763.464	1369.24
763.648	1193.11
763.831	1301.65
764.015	1303.7
764.198	1160.34
764.381	1246.36
764.564	1248.41
764.748	1213.59
764.931	1256.6
765.114	1287.32
765.297	1184.92
765.481	1238.17
765.664	1258.65
765.847	1137.82
766.03	1240.22
766.213	1180.82
766.397	1205.4
766.58	1156.25
766.763	1129.63
766.946	1160.34
767.129	1238.17
767.312	1090.71
767.495	1240.22
767.678	1211.54
767.861	1246.36
768.044	1131.67
768.227	1107.1
768.41	1119.39
768.593	1105.05
768.776	1146.01
768.959	1127.58
769.142	1201.3
769.324	1193.11
769.507	1117.34
769.69	1160.34
769.873	1092.76
770.056	1137.82
770.239	1191.06
770.421	1068.19
770.604	1016.99
770.787	1045.66
770.97	1131.67
771.152	924.83
771.335	1047.71
771.518	1051.8
771.7	1090.71
771.883	1092.76
772.066	1084.57
772.248	998.56
772.431	1041.56
772.613	1115.29
772.796	1002.65
772.978	1047.71
773.161	1105.05
773.343	1053.85
773.526	969.88
773.708	992.41
773.891	1004.7
774.073	953.5
774.256	928.92
774.438	984.22
774.621	869.53
774.803	828.57
774.985	916.64
775.168	890.01
775.35	935.07
775.532	959.64
775.715	842.91
775.897	967.84
776.079	933.02
776.261	980.12
776.444	916.64
776.626	844.96
776.808	910.49
776.99	912.54
777.173	849.05
777.355	797.85
777.537	896.16
777.719	867.49
777.901	851.1
778.083	763.04
778.265	773.28
778.447	857.25
778.629	836.77
778.811	787.61
778.993	783.52
779.175	885.92
779.357	801.95
779.539	797.85
779.721	793.76
779.903	808.09
780.085	750.75
780.267	756.9
780.449	736.42
780.631	740.51
780.812	662.69
780.994	713.89
781.176	670.88
781.358	693.41
781.54	742.56
781.721	754.85
781.903	771.23
782.085	683.17
782.267	670.88
782.448	660.64
782.63	703.65
782.812	634.02
782.993	599.2
783.175	642.21
783.357	642.21
783.538	664.74
783.72	634.02
783.901	597.15
784.083	623.78
784.264	672.93
784.446	519.33
784.627	619.68
784.809	586.91
784.99	619.68
785.172	662.69
785.353	627.87
785.535	615.59
785.716	523.43
785.897	588.96
786.079	545.95
786.26	543.91
786.441	580.77
786.623	523.43
786.804	574.63
786.985	566.43
787.167	593.06
787.348	533.67
787.529	480.42
787.71	513.19
787.891	543.91
788.073	494.76
788.254	457.89
788.435	537.76
788.616	492.71
788.797	476.32
788.978	496.8
789.159	548
789.34	457.89
789.522	537.76
789.703	451.75
789.884	484.52
790.065	349.35
790.246	490.66
790.427	390.31
790.607	476.32
790.788	537.76
790.969	525.47
791.15	449.7
791.331	425.12
791.512	390.31
791.693	382.12
791.874	394.4
792.054	511.14
792.235	435.36
792.416	429.22
792.597	400.55
792.778	402.6
792.958	455.84
793.139	398.5
793.32	500.9
793.5	423.08
793.681	396.45
793.862	421.03
794.042	416.93
794.223	347.3
794.404	300.2
794.584	314.53
794.765	427.17
794.945	361.64
795.126	404.64
795.306	375.97
795.487	363.69
795.667	359.59
795.848	345.25
796.028	412.84
796.209	369.83
796.389	431.27
796.57	357.54
796.75	328.87
796.93	351.4
797.111	339.11
797.291	240.81
797.471	357.54
797.652	423.08
797.832	347.3
798.012	312.49
798.192	318.63
798.373	318.63
798.553	437.41
798.733	371.88
798.913	265.38
799.093	322.73
799.274	337.06
799.454	353.45
799.634	369.83
799.814	308.39
799.994	445.6
800.174	271.53
800.354	326.82
800.534	255.14
800.714	273.57
800.894	281.77
801.074	232.62
801.254	277.67
801.434	371.88
801.614	339.11
801.794	285.86
801.974	939.16
802.154	279.72
802.334	294.05
802.514	253.09
802.693	320.68
802.873	289.96
803.053	273.57
803.233	300.2
803.413	320.68
803.592	263.33
803.772	195.75
803.952	337.06
804.131	197.8
804.311	304.29
804.491	361.64
804.67	277.67
804.85	156.84
805.03	165.03
805.209	214.18
805.389	255.14
805.568	318.63
805.748	257.19
805.928	267.43
806.107	273.57
806.287	275.62
806.466	230.57
806.646	154.79
806.825	193.7
807.004	222.38
807.184	205.99
807.363	255.14
807.543	230.57
807.722	191.66
807.901	341.16
808.081	191.66
808.26	214.18
808.439	193.7
808.619	189.61
808.798	226.47
808.977	261.29
809.156	203.94
809.336	158.89
809.515	179.37
809.694	101.55
809.873	238.76
810.052	216.23
810.231	308.39
810.411	212.14
810.59	201.9
810.769	214.18
810.948	298.15
811.127	132.26
811.306	318.63
811.485	173.22
811.664	240.81
811.843	189.61
812.022	193.7
812.201	199.85
812.38	212.14
812.559	228.52
812.737	146.6
812.916	105.64
813.095	189.61
813.274	107.69
813.453	265.38
813.632	181.42
813.811	240.81
813.989	124.07
814.168	162.98
814.347	230.57
814.526	173.22
814.704	160.94
814.883	181.42
815.062	99.5
815.24	214.18
815.419	214.18
815.598	148.65
815.776	171.18
815.955	97.45
816.133	81.07
816.312	205.99
816.49	154.79
816.669	138.41
816.847	181.42
817.026	144.55
817.204	152.74
817.383	255.14
817.561	72.87
817.74	218.28
817.918	152.74
818.097	154.79
818.275	152.74
818.453	214.18
818.632	130.22
818.81	156.84
818.988	99.5
819.167	138.41
819.345	162.98
819.523	158.89
819.701	142.5
819.879	158.89
820.058	83.11
820.236	246.95
820.414	181.42
820.592	60.59
820.77	160.94
820.948	93.35
821.127	103.59
821.305	68.78
821.483	122.02
821.661	218.28
821.839	185.51
822.017	101.55
822.195	89.26
822.373	105.64
822.551	142.5
822.729	126.12
822.907	105.64
823.085	199.85
823.262	89.26
823.44	167.08
823.618	148.65
823.796	33.96
823.974	117.93
824.152	54.44
824.329	76.97
824.507	107.69
824.685	115.88
824.863	83.11
825.04	66.73
825.218	142.5
825.396	117.93
825.574	91.31
825.751	138.41
825.929	99.5
826.107	70.83
826.284	126.12
826.462	122.02
826.639	17.58
826.817	66.73
826.994	105.64
827.172	44.2
827.349	191.66
827.527	93.35
827.704	83.11
827.882	99.5
828.059	66.73
828.237	140.46
828.414	109.74
828.591	33.96
828.769	181.42
828.946	60.59
829.124	158.89
829.301	126.12
829.478	146.6
829.655	138.41
829.833	60.59
830.01	42.15
830.187	107.69
830.364	50.35
830.542	56.49
830.719	85.16
830.896	48.3
831.073	99.5
831.25	36.01
831.427	50.35
831.604	52.39
831.782	105.64
831.959	101.55
832.136	91.31
832.313	117.93
832.49	38.06
832.667	60.59
832.844	105.64
833.021	91.31
833.198	70.83
833.374	93.35
833.551	23.72
833.728	29.87
833.905	99.5
834.082	23.72
834.259	97.45
834.436	175.27
834.612	1.19
834.789	85.16
834.966	52.39
835.143	103.59
835.319	40.11
835.496	19.63
835.673	105.64
835.85	111.78
836.026	134.31
836.203	15.53
836.38	72.87
836.556	44.2
836.733	74.92
836.909	58.54
837.086	-17.24
837.262	-2.9
837.439	142.5
837.616	117.93
837.792	74.92
837.968	117.93
838.145	33.96
838.321	138.41
838.498	107.69
838.674	103.59
838.851	103.59
839.027	74.92
839.203	42.15
839.38	101.55
839.556	83.11
839.732	81.07
839.909	81.07
840.085	97.45
840.261	15.53
840.437	99.5
840.614	103.59
840.79	130.22
840.966	95.4
841.142	70.83
841.318	50.35
841.494	11.43
841.671	83.11
841.847	15.53
842.023	25.77
842.199	76.97
842.375	48.3
842.551	-21.33
842.727	64.68
842.903	17.58
843.079	3.24
843.255	103.59
843.431	68.78
843.607	103.59
843.783	-9.05
843.959	97.45
844.134	-17.24
844.31	105.64
844.486	91.31
844.662	50.35
844.838	36.01
845.013	117.93
845.189	66.73
845.365	21.67
845.541	17.58
845.716	91.31
845.892	13.48
846.068	89.26
846.244	36.01
846.419	81.07
846.595	-19.29
846.77	-15.19
846.946	62.63
847.122	23.72
847.297	17.58
847.473	93.35
847.648	29.87
847.824	27.82
847.999	54.44
848.175	42.15
848.35	7.34
848.526	42.15
848.701	46.25
848.876	42.15
849.052	-23.38
849.227	101.55
849.403	87.21
849.578	25.77
849.753	91.31
849.929	72.87
850.104	62.63
850.279	40.11
850.454	58.54
850.63	101.55
850.805	85.16
850.98	15.53
851.155	-15.19
851.33	-37.72
851.505	11.43
851.681	70.83
851.856	25.77
852.031	81.07
852.206	83.11
852.381	-43.86
852.556	7.34
852.731	144.55
852.906	50.35
853.081	23.72
853.256	130.22
853.431	-7
853.606	64.68
853.781	-13.14
853.956	46.25
854.131	64.68
854.305	46.25
854.48	58.54
854.655	-33.62
854.83	36.01
855.005	17.58
855.18	29.87
855.354	7.34
855.529	66.73
855.704	70.83
855.879	72.87
856.053	11.43
856.228	-0.85
856.403	-21.33
856.577	74.92
856.752	31.91
856.926	46.25
857.101	-2.9
857.276	1.19
857.45	99.5
857.625	31.91
857.799	66.73
857.974	48.3
858.148	3.24
858.323	1.19
858.497	-45.91
858.672	-4.95
858.846	7.34
859.02	48.3
859.195	42.15
859.369	81.07
859.543	38.06
859.718	13.48
859.892	89.26
860.066	27.82
860.241	-27.48
860.415	3.24
860.589	27.82
860.763	-7
860.938	36.01
861.112	-2.9
861.286	-31.57
861.46	40.11
861.634	-29.52
861.808	25.77
861.982	-47.96
862.157	-11.09
862.331	64.68
862.505	-31.57
862.679	-37.72
862.853	21.67
863.027	9.39
863.201	81.07
863.375	-13.14
863.549	85.16
863.722	21.67
863.896	33.96
864.07	13.48
864.244	21.67
864.418	-4.95
864.592	-11.09
864.766	-33.62
864.939	89.26
865.113	27.82
865.287	13.48
865.461	44.2
865.634	21.67
865.808	-2.9
865.982	-21.33
866.156	-62.29
866.329	48.3
866.503	19.63
866.676	9.39
866.85	13.48
867.024	50.35
867.197	7.34
867.371	42.15
867.544	72.87
867.718	-62.29
867.891	-31.57
868.065	-41.81
868.238	31.91
868.412	29.87
868.585	5.29
868.759	-54.1
868.932	-39.76
869.105	-54.1
869.279	-11.09
869.452	17.58
869.625	-47.96
869.799	50.35
869.972	-45.91
870.145	44.2
870.319	17.58
870.492	23.72
870.665	33.96
870.838	-7
871.011	-31.57
871.185	-35.67
871.358	-13.14
871.531	76.97
871.704	-2.9
871.877	19.63
872.05	79.02
872.223	-9.05
872.396	25.77
872.569	29.87
872.742	-43.86
872.915	9.39
873.088	50.35
873.261	-17.24
873.434	33.96
873.607	-95.06
873.78	-2.9
873.953	-54.1
874.126	-19.29
874.299	17.58
874.471	-68.44
874.644	-47.96
874.817	68.78
874.99	68.78
875.163	-29.52
875.335	29.87
875.508	-25.43
875.681	1.19
875.853	-0.85
876.026	-17.24
876.199	7.34
876.371	-27.48
876.544	27.82
876.717	42.15
876.889	31.91
877.062	33.96
877.234	13.48
877.407	-15.19
877.579	17.58
877.752	-21.33
877.924	-72.53
878.097	27.82
878.269	7.34
878.442	17.58
878.614	60.59
878.786	5.29
878.959	36.01
879.131	13.48
879.303	-105.3
879.476	-66.39
879.648	11.43
879.82	40.11
879.993	52.39
880.165	19.63
880.337	21.67
880.509	15.53
880.681	-78.68
880.854	25.77
881.026	7.34
881.198	66.73
881.37	-78.68
881.542	19.63
881.714	21.67
881.886	19.63
882.058	9.39
882.23	9.39
882.402	-39.76
882.574	-7
882.746	-23.38
882.918	3.24
883.09	-7
883.262	-74.58
883.434	36.01
883.606	-45.91
883.778	9.39
883.95	70.83
884.122	40.11
884.293	66.73
884.465	-11.09
884.637	-7
884.809	13.48
884.98	-7
885.152	27.82
885.324	81.07
885.496	-99.16
885.667	27.82
885.839	-50
886.011	68.78
886.182	-27.48
886.354	50.35
886.525	33.96
886.697	-43.86
886.869	-43.86
887.04	-45.91
887.212	-88.92
887.383	27.82
887.555	-84.82
887.726	-84.82
887.897	-23.38
888.069	-23.38
888.24	-47.96
888.412	38.06
888.583	-74.58
888.754	-41.81
888.926	-41.81
889.097	-31.57
889.268	42.15
889.44	15.53
889.611	9.39
889.782	-74.58
889.953	-56.15
890.125	15.53
890.296	-13.14
890.467	-0.85
890.638	9.39
890.809	-64.34
890.98	-56.15
891.151	-56.15
891.323	89.26
891.494	5.29
891.665	-31.57
891.836	46.25
892.007	9.39
892.178	50.35
892.349	13.48
892.52	-39.76
892.691	83.11
892.862	9.39
893.032	-50
893.203	-11.09
893.374	31.91
893.545	-2.9
893.716	17.58
893.887	11.43
894.057	-66.39
894.228	-76.63
894.399	-97.11
894.57	3.24
894.74	-52.05
894.911	60.59
895.082	-0.85
895.253	-70.48
895.423	-7
895.594	5.29
895.764	-17.24
895.935	-68.44
896.106	-76.63
896.276	-2.9
896.447	-66.39
896.617	-23.38
896.788	-47.96
896.958	-17.24
897.129	-19.29
897.299	-19.29
897.47	68.78
897.64	48.3
897.81	-13.14
897.981	13.48
898.151	-62.29
898.322	52.39
898.492	60.59
898.662	-31.57
898.832	-56.15
899.003	-11.09
899.173	5.29
899.343	15.53
899.513	-45.91
