Data from USB4F104151__28__12-41-12-947.txt Node

Date: Fri Mar 14 12:41:12 EDT 2025
User: louis
Spectrometer: USB4F10415
Trigger mode: 4
Integration Time (sec): 3.000000E-2
Scans to average: 1
Electric dark correction enabled: true
Nonlinearity correction enabled: false
Boxcar width: 0
XAxis mode: Wavelengths
Number of Pixels in Spectrum: 3648
>>>>>Begin Spectral Data<<<<<
178.204	-159.4
178.424	-159.4
178.644	-159.4
178.864	-104.11
179.084	-147.11
179.304	-5.8
179.524	-9.9
179.744	6.49
179.964	47.44
180.184	16.73
180.404	41.3
180.624	-22.19
180.844	-18.09
181.064	-30.38
181.283	-32.43
181.503	20.82
181.723	-13.99
181.943	-69.29
182.163	94.55
182.383	6.49
182.602	49.49
182.822	102.74
183.042	57.68
183.262	-3.75
183.482	-34.47
183.701	-3.75
183.921	26.96
184.141	2.39
184.361	63.83
184.58	-11.95
184.8	98.64
185.02	-48.81
185.239	39.25
185.459	39.25
185.679	96.6
185.898	-9.9
186.118	69.97
186.338	8.53
186.557	26.96
186.777	31.06
186.997	-11.95
187.216	31.06
187.436	-34.47
187.655	78.16
187.875	110.93
188.095	-1.71
188.314	-11.95
188.534	92.5
188.753	84.31
188.973	4.44
189.192	88.4
189.412	-20.14
189.631	59.73
189.851	12.63
190.07	20.82
190.29	-3.75
190.509	35.16
190.729	-16.04
190.948	47.44
191.168	119.12
191.387	98.64
191.607	24.92
191.826	59.73
192.045	24.92
192.265	0.34
192.484	49.49
192.704	16.73
192.923	104.79
193.142	78.16
193.362	-13.99
193.581	-36.52
193.8	12.63
194.02	41.3
194.239	39.25
194.458	-1.71
194.678	26.96
194.897	-7.85
195.116	47.44
195.335	24.92
195.555	41.3
195.774	39.25
195.993	20.82
196.212	-24.23
196.432	37.2
196.651	-48.81
196.87	-30.38
197.089	102.74
197.308	37.2
197.528	100.69
197.747	-9.9
197.966	-34.47
198.185	55.64
198.404	43.35
198.623	39.25
198.842	55.64
199.062	88.4
199.281	53.59
199.5	-30.38
199.719	61.78
199.938	86.36
200.157	51.54
200.376	16.73
200.595	-1.71
200.814	53.59
201.033	33.11
201.252	82.26
201.471	-5.8
201.69	74.07
201.909	6.49
202.128	26.96
202.347	16.73
202.566	49.49
202.785	-20.14
203.004	14.68
203.223	102.74
203.442	74.07
203.661	2.39
203.879	-22.19
204.098	104.79
204.317	0.34
204.536	-9.9
204.755	33.11
204.974	14.68
205.193	80.21
205.411	72.02
205.63	67.92
205.849	22.87
206.068	37.2
206.287	53.59
206.505	78.16
206.724	55.64
206.943	-7.85
207.162	31.06
207.381	33.11
207.599	26.96
207.818	6.49
208.037	-26.28
208.255	-26.28
208.474	-50.86
208.693	115.03
208.911	-34.47
209.13	55.64
209.349	-20.14
209.567	63.83
209.786	39.25
210.005	108.88
210.223	55.64
210.442	-20.14
210.661	12.63
210.879	18.77
211.098	37.2
211.316	14.68
211.535	74.07
211.753	14.68
211.972	8.53
212.191	92.5
212.409	67.92
212.628	35.16
212.846	24.92
213.065	80.21
213.283	80.21
213.502	51.54
213.72	106.84
213.938	24.92
214.157	69.97
214.375	2.39
214.594	4.44
214.812	35.16
215.031	96.6
215.249	61.78
215.467	39.25
215.686	90.45
215.904	29.01
216.122	16.73
216.341	141.65
216.559	37.2
216.778	29.01
216.996	76.12
217.214	47.44
217.432	53.59
217.651	-36.52
217.869	4.44
218.087	-40.62
218.306	45.4
218.524	24.92
218.742	-7.85
218.96	63.83
219.179	45.4
219.397	78.16
219.615	72.02
219.833	33.11
220.051	-32.43
220.27	47.44
220.488	31.06
220.706	-3.75
220.924	-7.85
221.142	-20.14
221.36	45.4
221.578	41.3
221.796	94.55
222.015	39.25
222.233	65.88
222.451	22.87
222.669	2.39
222.887	35.16
223.105	-5.8
223.323	-36.52
223.541	14.68
223.759	80.21
223.977	41.3
224.195	90.45
224.413	51.54
224.631	16.73
224.849	-13.99
225.067	98.64
225.285	47.44
225.503	72.02
225.721	-26.28
225.939	78.16
226.157	-1.71
226.375	104.79
226.592	-7.85
226.81	33.11
227.028	74.07
227.246	112.98
227.464	22.87
227.682	-9.9
227.9	6.49
228.117	-18.09
228.335	0.34
228.553	-11.95
228.771	-20.14
228.989	2.39
229.206	16.73
229.424	72.02
229.642	14.68
229.86	4.44
230.077	18.77
230.295	121.17
230.513	78.16
230.731	43.35
230.948	43.35
231.166	131.41
231.384	47.44
231.601	-9.9
231.819	74.07
232.037	-3.75
232.254	-11.95
232.472	131.41
232.689	-32.43
232.907	72.02
233.125	92.5
233.342	22.87
233.56	4.44
233.777	22.87
233.995	6.49
234.213	55.64
234.43	82.26
234.648	47.44
234.865	-1.71
235.083	72.02
235.3	18.77
235.518	88.4
235.735	65.88
235.953	84.31
236.17	22.87
236.388	-16.04
236.605	53.59
236.822	67.92
237.04	43.35
237.257	65.88
237.475	24.92
237.692	41.3
237.909	53.59
238.127	76.12
238.344	53.59
238.562	33.11
238.779	-28.33
238.996	55.64
239.214	127.32
239.431	117.08
239.648	16.73
239.865	39.25
240.083	78.16
240.3	31.06
240.517	29.01
240.735	35.16
240.952	80.21
241.169	119.12
241.386	29.01
241.603	-1.71
241.821	12.63
242.038	80.21
242.255	65.88
242.472	-52.91
242.689	4.44
242.907	108.88
243.124	-16.04
243.341	18.77
243.558	12.63
243.775	63.83
243.992	-24.23
244.209	115.03
244.426	117.08
244.643	84.31
244.86	55.64
245.078	-1.71
245.295	8.53
245.512	39.25
245.729	41.3
245.946	8.53
246.163	55.64
246.38	-20.14
246.597	4.44
246.814	53.59
247.031	51.54
247.248	84.31
247.464	41.3
247.681	125.27
247.898	0.34
248.115	96.6
248.332	24.92
248.549	80.21
248.766	104.79
248.983	96.6
249.2	29.01
249.417	57.68
249.633	-20.14
249.85	12.63
250.067	45.4
250.284	104.79
250.501	86.36
250.717	-26.28
250.934	-3.75
251.151	20.82
251.368	0.34
251.585	-20.14
251.801	12.63
252.018	31.06
252.235	76.12
252.451	-85.67
252.668	65.88
252.885	123.22
253.102	65.88
253.318	49.49
253.535	49.49
253.752	39.25
253.968	74.07
254.185	-34.47
254.401	29.01
254.618	47.44
254.835	-7.85
255.051	82.26
255.268	57.68
255.484	-1.71
255.701	20.82
255.917	33.11
256.134	20.82
256.351	67.92
256.567	-16.04
256.784	49.49
257	-52.91
257.217	22.87
257.433	35.16
257.65	76.12
257.866	31.06
258.082	-28.33
258.299	-46.76
258.515	24.92
258.732	-24.23
258.948	-11.95
259.165	6.49
259.381	-18.09
259.597	-24.23
259.814	88.4
260.03	43.35
260.246	65.88
260.463	102.74
260.679	39.25
260.895	-18.09
261.112	104.79
261.328	-38.57
261.544	0.34
261.761	80.21
261.977	6.49
262.193	-26.28
262.409	45.4
262.626	22.87
262.842	51.54
263.058	-73.39
263.274	72.02
263.49	10.58
263.707	0.34
263.923	39.25
264.139	47.44
264.355	-7.85
264.571	117.08
264.787	94.55
265.004	84.31
265.22	31.06
265.436	47.44
265.652	65.88
265.868	61.78
266.084	10.58
266.3	18.77
266.516	31.06
266.732	8.53
266.948	6.49
267.164	20.82
267.38	49.49
267.596	72.02
267.812	74.07
268.028	31.06
268.244	-42.67
268.46	61.78
268.676	31.06
268.892	-34.47
269.108	16.73
269.324	-36.52
269.54	-50.86
269.756	139.6
269.972	-7.85
270.188	100.69
270.403	-46.76
270.619	49.49
270.835	31.06
271.051	16.73
271.267	24.92
271.483	-11.95
271.698	-13.99
271.914	80.21
272.13	74.07
272.346	-1.71
272.562	65.88
272.777	86.36
272.993	78.16
273.209	74.07
273.425	6.49
273.64	-32.43
273.856	59.73
274.072	-3.75
274.287	43.35
274.503	31.06
274.719	20.82
274.934	41.3
275.15	-30.38
275.366	22.87
275.581	51.54
275.797	-40.62
276.012	-9.9
276.228	53.59
276.444	31.06
276.659	-13.99
276.875	16.73
277.09	-3.75
277.306	61.78
277.521	57.68
277.737	-24.23
277.952	53.59
278.168	0.34
278.383	108.88
278.599	16.73
278.814	123.22
279.03	82.26
279.245	104.79
279.461	51.54
279.676	49.49
279.892	4.44
280.107	31.06
280.322	-50.86
280.538	-13.99
280.753	-5.8
280.969	41.3
281.184	29.01
281.399	61.78
281.615	55.64
281.83	16.73
282.045	24.92
282.26	6.49
282.476	59.73
282.691	92.5
282.906	80.21
283.122	-7.85
283.337	45.4
283.552	78.16
283.767	20.82
283.983	24.92
284.198	82.26
284.413	74.07
284.628	39.25
284.843	-57
285.058	51.54
285.274	-3.75
285.489	-20.14
285.704	63.83
285.919	47.44
286.134	49.49
286.349	14.68
286.564	80.21
286.779	31.06
286.995	6.49
287.21	24.92
287.425	82.26
287.64	45.4
287.855	22.87
288.07	33.11
288.285	43.35
288.5	16.73
288.715	45.4
288.93	-7.85
289.145	-40.62
289.36	16.73
289.575	24.92
289.79	96.6
290.004	-28.33
290.219	76.12
290.434	-20.14
290.649	-40.62
290.864	-1.71
291.079	51.54
291.294	63.83
291.509	37.2
291.724	26.96
291.938	63.83
292.153	65.88
292.368	6.49
292.583	39.25
292.798	72.02
293.012	57.68
293.227	-46.76
293.442	33.11
293.657	4.44
293.871	57.68
294.086	86.36
294.301	22.87
294.516	57.68
294.73	127.32
294.945	57.68
295.16	18.77
295.374	127.32
295.589	6.49
295.804	29.01
296.018	31.06
296.233	51.54
296.447	4.44
296.662	-16.04
296.877	80.21
297.091	55.64
297.306	20.82
297.52	35.16
297.735	39.25
297.949	37.2
298.164	33.11
298.378	84.31
298.593	-18.09
298.807	37.2
299.022	6.49
299.236	76.12
299.451	76.12
299.665	57.68
299.88	-3.75
300.094	133.46
300.309	43.35
300.523	43.35
300.737	53.59
300.952	51.54
301.166	47.44
301.381	8.53
301.595	4.44
301.809	37.2
302.024	65.88
302.238	-20.14
302.452	57.68
302.667	47.44
302.881	72.02
303.095	65.88
303.309	4.44
303.524	65.88
303.738	-5.8
303.952	-5.8
304.166	112.98
304.381	0.34
304.595	112.98
304.809	12.63
305.023	39.25
305.237	41.3
305.452	90.45
305.666	6.49
305.88	112.98
306.094	74.07
306.308	47.44
306.522	24.92
306.736	37.2
306.95	18.77
307.164	4.44
307.379	69.97
307.593	143.7
307.807	55.64
308.021	39.25
308.235	43.35
308.449	51.54
308.663	39.25
308.877	86.36
309.091	49.49
309.305	-7.85
309.519	22.87
309.733	80.21
309.947	-9.9
310.161	155.99
310.374	59.73
310.588	76.12
310.802	-20.14
311.016	-7.85
311.23	53.59
311.444	-54.95
311.658	41.3
311.872	31.06
312.085	49.49
312.299	102.74
312.513	59.73
312.727	45.4
312.941	14.68
313.154	0.34
313.368	84.31
313.582	49.49
313.796	43.35
314.009	-28.33
314.223	55.64
314.437	55.64
314.651	35.16
314.864	-40.62
315.078	78.16
315.292	12.63
315.505	41.3
315.719	92.5
315.933	6.49
316.146	10.58
316.36	-50.86
316.573	2.39
316.787	82.26
317.001	43.35
317.214	33.11
317.428	26.96
317.641	33.11
317.855	24.92
318.068	55.64
318.282	-3.75
318.495	92.5
318.709	94.55
318.922	31.06
319.136	72.02
319.349	63.83
319.563	-59.05
319.776	-11.95
319.99	24.92
320.203	31.06
320.417	-5.8
320.63	37.2
320.843	137.56
321.057	39.25
321.27	29.01
321.483	37.2
321.697	76.12
321.91	55.64
322.124	67.92
322.337	63.83
322.55	80.21
322.763	86.36
322.977	20.82
323.19	16.73
323.403	35.16
323.617	24.92
323.83	26.96
324.043	39.25
324.256	80.21
324.469	31.06
324.683	72.02
324.896	49.49
325.109	0.34
325.322	37.2
325.535	-24.23
325.748	12.63
325.962	-18.09
326.175	6.49
326.388	10.58
326.601	78.16
326.814	76.12
327.027	24.92
327.24	59.73
327.453	-59.05
327.666	37.2
327.879	6.49
328.092	31.06
328.305	-7.85
328.518	49.49
328.731	-18.09
328.944	69.97
329.157	76.12
329.37	53.59
329.583	35.16
329.796	90.45
330.009	31.06
330.222	88.4
330.435	53.59
330.648	47.44
330.861	82.26
331.073	74.07
331.286	63.83
331.499	59.73
331.712	16.73
331.925	86.36
332.138	26.96
332.35	47.44
332.563	51.54
332.776	80.21
332.989	55.64
333.202	49.49
333.414	43.35
333.627	10.58
333.84	-18.09
334.053	26.96
334.265	53.59
334.478	74.07
334.691	-34.47
334.903	74.07
335.116	-16.04
335.329	8.53
335.541	92.5
335.754	43.35
335.966	22.87
336.179	-7.85
336.392	88.4
336.604	0.34
336.817	41.3
337.029	80.21
337.242	39.25
337.454	33.11
337.667	24.92
337.88	92.5
338.092	-3.75
338.305	115.03
338.517	18.77
338.729	31.06
338.942	92.5
339.154	-24.23
339.367	-5.8
339.579	45.4
339.792	29.01
340.004	57.68
340.217	47.44
340.429	88.4
340.641	49.49
340.854	16.73
341.066	16.73
341.278	121.17
341.491	61.78
341.703	137.56
341.915	-26.28
342.128	74.07
342.34	10.58
342.552	65.88
342.764	6.49
342.977	22.87
343.189	133.46
343.401	45.4
343.613	22.87
343.826	100.69
344.038	6.49
344.25	-5.8
344.462	0.34
344.674	63.83
344.886	82.26
345.099	80.21
345.311	104.79
345.523	10.58
345.735	-3.75
345.947	55.64
346.159	67.92
346.371	53.59
346.583	4.44
346.795	119.12
347.007	-16.04
347.219	74.07
347.431	22.87
347.643	26.96
347.855	20.82
348.067	84.31
348.279	100.69
348.491	-18.09
348.703	37.2
348.915	80.21
349.127	4.44
349.339	123.22
349.551	100.69
349.763	51.54
349.975	35.16
350.187	22.87
350.399	67.92
350.61	88.4
350.822	65.88
351.034	76.12
351.246	74.07
351.458	10.58
351.669	26.96
351.881	90.45
352.093	29.01
352.305	39.25
352.517	43.35
352.728	98.64
352.94	65.88
353.152	65.88
353.363	2.39
353.575	18.77
353.787	108.88
353.999	-3.75
354.21	92.5
354.422	18.77
354.633	74.07
354.845	31.06
355.057	10.58
355.268	98.64
355.48	20.82
355.692	76.12
355.903	31.06
356.115	22.87
356.326	14.68
356.538	35.16
356.749	24.92
356.961	104.79
357.172	67.92
357.384	86.36
357.595	155.99
357.807	104.79
358.018	57.68
358.23	121.17
358.441	104.79
358.653	102.74
358.864	94.55
359.075	39.25
359.287	41.3
359.498	106.84
359.709	80.21
359.921	112.98
360.132	80.21
360.344	10.58
360.555	-1.71
360.766	67.92
360.977	-5.8
361.189	55.64
361.4	26.96
361.611	78.16
361.823	39.25
362.034	67.92
362.245	74.07
362.456	90.45
362.667	86.36
362.879	-7.85
363.09	63.83
363.301	72.02
363.512	24.92
363.723	80.21
363.935	29.01
364.146	115.03
364.357	-5.8
364.568	72.02
364.779	-26.28
364.99	51.54
365.201	26.96
365.412	112.98
365.623	-9.9
365.834	37.2
366.045	102.74
366.256	47.44
366.467	41.3
366.678	51.54
366.889	51.54
367.1	106.84
367.311	33.11
367.522	82.26
367.733	76.12
367.944	35.16
368.155	41.3
368.366	143.7
368.577	37.2
368.788	104.79
368.999	18.77
369.209	45.4
369.42	115.03
369.631	112.98
369.842	6.49
370.053	115.03
370.264	18.77
370.474	26.96
370.685	26.96
370.896	-3.75
371.107	16.73
371.317	-16.04
371.528	-9.9
371.739	43.35
371.95	49.49
372.16	61.78
372.371	72.02
372.582	98.64
372.792	100.69
373.003	39.25
373.214	49.49
373.424	41.3
373.635	2.39
373.846	112.98
374.056	41.3
374.267	123.22
374.477	63.83
374.688	115.03
374.898	20.82
375.109	78.16
375.319	41.3
375.53	51.54
375.74	74.07
375.951	115.03
376.161	80.21
376.372	72.02
376.582	8.53
376.793	55.64
377.003	43.35
377.214	26.96
377.424	49.49
377.635	65.88
377.845	127.32
378.055	90.45
378.266	65.88
378.476	90.45
378.686	78.16
378.897	47.44
379.107	24.92
379.317	104.79
379.528	35.16
379.738	65.88
379.948	-3.75
380.158	82.26
380.369	-42.67
380.579	39.25
380.789	-18.09
380.999	39.25
381.21	82.26
381.42	141.65
381.63	39.25
381.84	78.16
382.05	65.88
382.261	117.08
382.471	20.82
382.681	108.88
382.891	51.54
383.101	98.64
383.311	6.49
383.521	20.82
383.731	84.31
383.941	100.69
384.151	149.84
384.361	49.49
384.571	112.98
384.781	49.49
384.991	102.74
385.201	63.83
385.411	45.4
385.621	49.49
385.831	10.58
386.041	12.63
386.251	18.77
386.461	104.79
386.671	43.35
386.881	37.2
387.091	24.92
387.301	55.64
387.511	108.88
387.72	69.97
387.93	67.92
388.14	108.88
388.35	33.11
388.56	53.59
388.769	86.36
388.979	47.44
389.189	65.88
389.399	88.4
389.609	84.31
389.818	123.22
390.028	72.02
390.238	117.08
390.447	41.3
390.657	160.08
390.867	-13.99
391.076	39.25
391.286	121.17
391.496	100.69
391.705	55.64
391.915	96.6
392.125	78.16
392.334	74.07
392.544	110.93
392.753	33.11
392.963	88.4
393.172	74.07
393.382	35.16
393.591	153.94
393.801	43.35
394.01	143.7
394.22	92.5
394.429	125.27
394.639	45.4
394.848	65.88
395.058	141.65
395.267	90.45
395.477	158.03
395.686	104.79
395.895	129.36
396.105	166.23
396.314	117.08
396.524	121.17
396.733	158.03
396.942	160.08
397.152	147.8
397.361	131.41
397.57	133.46
397.78	119.12
397.989	164.18
398.198	143.7
398.407	88.4
398.617	135.51
398.826	110.93
399.035	145.75
399.244	102.74
399.453	164.18
399.663	69.97
399.872	133.46
400.081	74.07
400.29	174.42
400.499	164.18
400.708	170.32
400.917	74.07
401.127	166.23
401.336	76.12
401.545	184.66
401.754	155.99
401.963	149.84
402.172	141.65
402.381	108.88
402.59	129.36
402.799	110.93
403.008	123.22
403.217	112.98
403.426	198.99
403.635	117.08
403.844	180.56
404.053	137.56
404.262	180.56
404.471	170.32
404.68	164.18
404.888	139.6
405.097	160.08
405.306	211.28
405.515	248.15
405.724	188.75
405.933	235.86
406.142	305.49
406.35	272.72
406.559	213.33
406.768	178.51
406.977	315.73
407.185	291.15
407.394	262.48
407.603	201.04
407.812	278.87
408.02	276.82
408.229	276.82
408.438	272.72
408.646	244.05
408.855	268.63
409.064	325.97
409.272	330.06
409.481	311.63
409.69	338.26
409.898	354.64
410.107	336.21
410.315	418.13
410.524	356.69
410.733	379.22
410.941	371.02
411.15	422.22
411.358	459.09
411.567	516.43
411.775	532.81
411.984	565.58
412.192	504.14
412.401	500.05
412.609	633.16
412.818	602.44
413.026	594.25
413.234	647.5
413.443	715.08
413.651	670.03
413.86	713.03
414.068	688.46
414.276	704.84
414.485	682.31
414.693	797
414.901	876.87
415.11	840.01
415.318	856.39
415.526	917.83
415.734	1022.28
415.943	932.17
416.151	917.83
416.359	1048.9
416.567	1063.24
416.776	1091.91
416.984	1104.2
417.192	1165.64
417.4	1294.66
417.608	1161.54
417.817	1333.57
418.025	1220.93
418.233	1362.24
418.441	1261.89
418.649	1427.78
418.857	1444.16
419.065	1567.04
419.273	1603.9
419.481	1866.04
419.689	1687.87
419.897	1833.27
420.105	1773.88
420.313	1747.26
420.521	2021.69
420.729	1956.15
420.937	2044.21
421.145	2185.52
421.353	2271.54
421.561	2289.97
421.769	2347.31
421.977	2343.22
422.185	2459.95
422.393	2646.32
422.601	2799.91
422.809	2707.76
423.017	2795.82
423.224	2806.06
423.432	2982.18
423.64	2955.56
423.848	3242.28
424.056	3266.85
424.263	3451.17
424.471	3510.56
424.679	3567.9
424.887	3782.94
425.094	3821.85
425.302	4004.12
425.51	4071.7
425.718	4219.16
425.925	4235.54
426.133	4350.23
426.341	4591.89
426.548	4722.96
426.756	4788.49
426.964	4876.55
427.171	5112.07
427.379	5247.24
427.586	5218.57
427.794	5544.19
428.001	5830.91
428.209	5916.92
428.417	6058.23
428.624	6439.16
428.832	6519.03
429.039	6414.58
429.247	6402.29
429.454	7004.39
429.662	7186.66
429.869	6840.56
430.076	7416.04
430.284	7096.55
430.491	7432.42
430.699	7940.32
430.906	8036.57
431.114	8071.39
431.321	8190.17
431.528	8626.39
431.736	9203.91
431.943	9371.85
432.15	9060.56
432.358	9220.3
432.565	9808.06
432.772	9822.4
432.979	10133.69
433.187	10469.56
433.394	10426.55
433.601	11102.38
433.808	11139.24
434.016	11129
434.223	11708.58
434.43	12261.53
434.637	12120.22
434.844	12882.06
435.052	13324.43
435.259	13172.88
435.466	12974.22
435.673	13191.31
435.88	14020.74
436.087	14610.55
436.294	14712.95
436.501	14567.54
436.708	14516.34
436.915	15321.2
437.122	15886.43
437.329	15798.37
437.537	16224.35
437.743	16506.97
437.95	16541.78
438.157	17414.22
438.364	17782.85
438.571	17700.94
438.778	17811.53
438.985	19402.8
439.192	18974.77
439.399	19214.38
439.606	19003.44
439.813	20111.39
440.02	21268.5
440.227	20660.25
440.433	20697.11
440.64	21245.97
440.847	21127.19
441.054	21755.91
441.261	23195.64
441.467	22855.67
441.674	23189.49
441.881	24174.56
442.088	23986.15
442.294	23941.1
442.501	24639.45
442.708	25161.69
442.914	26040.26
443.121	27178.93
443.328	26736.57
443.534	28123.05
443.741	27428.79
443.948	27062.2
444.154	29046.68
444.361	29101.98
444.568	29159.32
444.774	29026.2
444.981	29613.97
445.187	30504.84
445.394	31268.73
445.6	31192.95
445.807	34277.19
446.013	32638.82
446.22	33345.37
446.426	34905.92
446.633	34391.88
446.839	36134.7
447.046	34621.25
447.252	36828.96
447.459	36511.53
447.665	36493.1
447.871	37953.3
448.078	39917.3
448.284	37416.73
448.491	38655.75
448.697	40392.43
448.903	41150.18
449.11	40875.75
449.316	40455.92
449.522	41219.81
449.728	42129.11
449.935	42415.82
450.141	42571.47
450.347	43318.98
450.553	41995.99
450.76	42913.48
450.966	44285.62
451.172	43491.01
451.378	44652.2
451.584	44052.15
451.791	44476.08
451.997	44996.26
452.203	45424.29
452.409	45491.87
452.615	45110.95
452.821	43488.96
453.027	42991.3
453.233	45502.11
453.44	43515.58
453.646	43572.92
453.852	44381.87
454.058	44857
454.264	43368.13
454.47	44422.83
454.676	43325.12
454.882	44904.1
455.088	40503.02
455.294	41713.37
455.5	42489.55
455.705	42182.35
455.911	41006.82
456.117	39978.74
456.323	39800.57
456.529	37863.19
456.735	39137.02
456.941	38096.66
457.147	37189.41
457.352	36101.93
457.558	35921.71
457.764	36251.44
457.97	35358.52
458.176	34901.82
458.381	34576.2
458.587	32767.84
458.793	32970.59
458.999	31078.27
459.204	33449.81
459.41	32329.58
459.616	30519.17
459.821	30541.7
460.027	30193.54
460.233	29675.41
460.438	28278.69
460.644	28655.52
460.85	27246.52
461.055	26570.69
461.261	26877.88
461.466	24819.67
461.672	23967.72
461.878	25911.24
462.083	23910.38
462.289	23273.46
462.494	23422.96
462.7	22276.1
462.905	21512.21
463.111	22591.48
463.316	22411.26
463.522	22032.39
463.727	22220.8
463.932	22323.2
464.138	22052.87
464.343	21925.89
464.549	21276.69
464.754	22159.36
464.959	21762.06
465.165	21954.57
465.37	20760.6
465.575	20318.24
465.781	21065.75
465.986	21178.39
466.191	20293.66
466.397	20160.55
466.602	18944.05
466.807	19722.28
467.012	19800.1
467.218	19615.79
467.423	19626.03
467.628	19548.2
467.833	20574.24
468.038	19537.96
468.244	19302.45
468.449	19763.24
468.654	19386.41
468.859	19189.81
469.064	19109.94
469.269	18110.53
469.474	18462.78
469.679	18593.85
469.885	18241.6
470.09	18671.67
470.295	18303.04
470.5	18255.93
470.705	18083.91
470.91	17633.35
471.115	17604.68
471.32	17569.87
471.525	17682.5
471.73	17021.01
471.935	17119.31
472.139	16615.51
472.344	17029.2
472.549	16482.39
472.754	16457.82
472.959	16277.6
473.164	15704.17
473.369	15595.62
473.574	15943.78
473.778	16124
473.983	15949.92
474.188	15730.79
474.393	14856.31
474.598	15220.85
474.802	15108.21
475.007	14872.69
475.212	14905.46
475.417	14289.02
475.621	14557.3
475.826	14489.72
476.031	13930.62
476.235	14012.54
476.44	14098.56
476.645	13977.73
476.849	14022.78
477.054	13766.79
477.259	13289.61
477.463	13521.03
477.668	13168.78
477.872	13158.54
478.077	13090.96
478.282	12843.15
478.486	12841.11
478.691	12695.7
478.895	12449.94
479.1	12507.29
479.304	12626.07
479.509	12368.02
479.713	12513.43
479.918	12134.56
480.122	11862.18
480.326	12122.27
480.531	11940
480.735	11819.17
480.94	12005.53
481.144	12333.21
481.348	11669.67
481.553	11931.81
481.757	11563.17
481.961	11790.5
482.166	12040.35
482.37	11575.46
482.574	11331.75
482.778	11741.35
482.983	11835.55
483.187	11548.84
483.391	11761.83
483.595	11755.68
483.8	11460.77
484.004	11622.56
484.208	11894.94
484.412	11569.32
484.616	11591.84
484.821	11550.89
485.025	11432.1
485.229	11845.79
485.433	11565.22
485.637	11423.91
485.841	11544.74
486.045	11612.32
486.249	11677.86
486.453	11354.28
486.657	11684
486.861	11653.28
487.065	11290.79
487.269	11403.43
487.473	11311.27
487.677	11581.6
487.881	11823.26
488.085	11511.97
488.289	11872.42
488.493	11552.93
488.697	11843.74
488.901	11794.59
489.105	11645.09
489.309	11727.01
489.512	11798.69
489.716	11882.66
489.92	11899.04
490.124	11653.28
490.328	11915.42
490.531	11989.15
490.735	11958.43
490.939	12034.21
491.143	11853.98
491.346	11989.15
491.55	12175.52
491.754	12060.83
491.958	12222.62
492.161	12038.3
492.365	12273.82
492.569	12511.38
492.772	12275.87
492.976	12435.61
493.18	12322.97
493.383	12519.57
493.587	12857.49
493.79	12884.11
493.994	12759.19
494.197	12626.07
494.401	12943.5
494.605	12918.93
494.808	12998.8
495.012	12972.18
495.215	13355.15
495.419	13267.08
495.622	13363.34
495.825	13402.25
496.029	13394.06
496.232	13635.72
496.436	13588.61
496.639	14002.3
496.843	13928.58
497.046	14307.45
497.249	14258.3
497.453	14362.75
497.656	14282.88
497.859	14651.51
498.063	14669.94
498.266	15194.22
498.469	15083.63
498.673	15204.46
498.876	15153.26
499.079	15370.35
499.282	15401.07
499.485	15878.24
499.689	15865.96
499.892	15906.91
500.095	16308.32
500.298	16781.4
500.501	16324.7
500.705	16783.45
500.908	17043.54
501.111	17268.81
501.314	17571.91
501.517	17891.4
501.72	17655.88
501.923	17780.81
502.126	18026.56
502.329	18253.89
502.532	18430.01
502.735	18436.16
502.938	18886.71
503.141	19132.47
503.344	19120.18
503.547	19382.32
503.75	19404.85
503.953	20185.12
504.156	20254.75
504.359	20076.58
504.562	20308
504.765	20903.96
504.968	20889.62
505.17	21112.85
505.373	21055.51
505.576	21676.04
505.779	21772.3
505.982	21522.44
506.185	22296.58
506.387	22480.89
506.59	22521.85
506.793	22751.23
506.996	23154.68
507.198	23410.67
507.401	23238.64
507.604	23767.02
507.807	24262.63
508.009	24186.85
508.212	24149.99
508.415	24940.5
508.617	25034.71
508.82	24928.22
509.022	25124.82
509.225	25700.3
509.428	25683.92
509.63	26191.81
509.833	26238.92
510.035	26773.44
510.238	26494.91
510.44	26781.63
510.643	27008.95
510.845	27430.83
511.048	27512.75
511.25	27799.47
511.453	28010.41
511.655	28983.2
511.858	28202.92
512.06	28884.89
512.262	29087.64
512.465	29151.13
512.667	29530
512.87	30001.04
513.072	29802.38
513.274	30177.16
513.477	30824.32
513.679	30920.57
513.881	31211.39
514.084	31281.02
514.286	31326.07
514.488	31663.99
514.69	32354.15
514.893	32208.75
515.095	32431.97
515.297	32743.27
515.499	32653.16
515.701	33865.55
515.904	33638.23
516.106	33890.13
516.308	34010.96
516.51	34660.16
516.712	34752.32
516.914	34588.49
517.116	35544.89
517.318	35366.71
517.52	35665.72
517.722	35747.64
517.925	36108.08
518.127	36615.97
518.329	36869.92
518.531	36331.31
518.733	37125.92
518.935	37269.28
519.136	37539.61
519.338	38080.27
519.54	38092.56
519.742	38840.07
519.944	38602.5
520.146	39225.09
520.348	39229.18
520.55	39624.44
520.752	39294.72
520.954	39939.83
521.155	39714.55
521.357	40734.44
521.559	40818.41
521.761	41199.33
521.963	41131.75
522.164	41309.92
522.366	41137.89
522.568	41660.12
522.77	41952.98
522.971	42639.05
523.173	42026.71
523.375	42559.18
523.576	42643.15
523.778	42841.8
523.98	43327.17
524.181	43298.5
524.383	43665.08
524.584	43914.94
524.786	43878.07
524.988	43677.37
525.189	44191.41
525.391	44361.39
525.592	44707.5
525.794	44676.78
525.995	44902.06
526.197	44639.92
526.398	44644.01
526.6	45196.96
526.801	45618.85
527.003	45614.75
527.204	45467.3
527.406	45784.73
527.607	45354.66
527.808	46368.4
528.01	45004.45
528.211	45624.99
528.412	46739.08
528.614	46395.03
528.815	46134.93
529.016	46902.92
529.218	46317.2
529.419	46687.88
529.62	46622.35
529.822	46397.07
530.023	46569.1
530.224	46622.35
530.425	46648.97
530.626	46683.79
530.828	46546.58
531.029	47421.06
531.23	46419.6
531.431	46945.93
531.632	46751.37
531.833	47214.21
532.035	47470.21
532.236	47193.73
532.437	47535.74
532.638	46761.61
532.839	47013.51
533.04	47273.6
533.241	46866.06
533.442	47642.24
533.643	47117.96
533.844	46945.93
534.045	47339.14
534.246	47455.87
534.447	47369.86
534.648	47015.56
534.849	47427.2
535.05	46911.11
535.251	47318.66
535.451	46732.94
535.652	47801.98
535.853	47154.82
536.054	47507.07
536.255	47060.62
536.456	46857.87
536.657	47582.85
536.857	47003.27
537.058	46577.29
537.259	47574.66
537.46	47412.87
537.66	47251.08
537.861	47173.25
538.062	46909.07
538.263	47408.77
538.463	47074.95
538.664	47109.77
538.865	47369.86
539.065	47357.57
539.266	46857.87
539.466	47294.08
539.667	46376.59
539.868	47703.68
540.068	47150.73
540.269	46667.41
540.469	47120.01
540.67	46931.59
540.87	46947.98
541.071	46601.87
541.271	47494.78
541.472	46708.36
541.672	46720.65
541.873	46651.02
542.073	46167.7
542.274	47427.2
542.474	46739.08
542.675	46616.21
542.875	47158.92
543.075	46734.99
543.276	46044.82
543.476	47154.82
543.676	46540.43
543.877	46974.6
544.077	46804.62
544.277	46429.84
544.478	46505.62
544.678	46866.06
544.878	46407.31
545.078	46294.67
545.279	46255.76
545.479	46352.02
545.679	46784.14
545.879	46519.95
546.079	46438.03
546.28	46245.52
546.48	46306.96
546.68	46243.48
546.88	46390.93
547.08	46335.63
547.28	46175.89
547.48	45653.66
547.68	46255.76
547.88	46184.08
548.081	46376.59
548.281	46401.17
548.481	46188.18
548.681	46945.93
548.881	46040.73
549.081	46245.52
549.28	46042.77
549.48	46493.33
549.68	45893.27
549.88	46800.52
550.08	46233.24
550.28	46278.29
550.48	45932.18
550.68	46018.2
550.88	45635.23
551.08	45891.23
551.279	46071.45
551.479	45692.57
551.679	46012.06
551.879	45862.55
552.079	45692.57
552.278	45872.79
552.478	45864.6
552.678	45797.02
552.878	46225.04
553.077	45528.73
553.277	45039.27
553.477	46005.91
553.676	45719.2
553.876	45397.66
554.076	45545.12
554.275	45448.86
554.475	45473.44
554.674	45803.16
554.874	45514.4
555.074	45018.79
555.273	45739.68
555.473	46003.86
555.672	45098.66
555.872	45430.43
556.071	45559.45
556.271	45733.53
556.47	45412
556.67	44836.52
556.869	45102.76
557.068	45131.43
557.268	45010.6
557.467	45072.04
557.667	45039.27
557.866	45186.72
558.065	44924.58
558.265	44562.09
558.464	44666.54
558.663	45113
558.863	44670.64
559.062	45508.25
559.261	44697.26
559.461	45295.27
559.66	44494.51
559.859	44271.28
560.058	44099.25
560.258	44365.49
560.457	44224.18
560.656	44215.99
560.855	44129.97
561.054	44586.67
561.253	44365.49
561.453	44512.94
561.652	44469.93
561.851	44590.76
562.05	44138.16
562.249	43886.26
562.448	44582.57
562.647	44371.63
562.846	44175.03
563.045	44576.43
563.244	43286.21
563.443	44437.17
563.642	43464.38
563.841	43644.6
564.04	43695.8
564.239	43951.8
564.438	43448
564.637	43908.79
564.836	43572.92
565.035	43351.74
565.234	43376.32
565.432	43534.01
565.631	43591.36
565.83	43611.84
566.029	43642.56
566.228	43153.09
566.427	43398.85
566.625	42804.94
566.824	42399.44
567.023	42903.24
567.222	42399.44
567.42	43454.14
567.619	42944.2
567.818	42628.81
568.016	42303.18
568.215	42880.71
568.414	42493.64
568.612	42731.21
568.811	42344.14
569.01	42327.76
569.208	41766.62
569.407	42514.12
569.605	42006.23
569.804	42163.92
570.002	41830.1
570.201	42047.19
570.4	41891.54
570.598	41293.54
570.797	41768.66
570.995	41469.66
571.193	41578.2
571.392	41977.56
571.59	41514.72
571.789	41037.54
571.987	41494.24
572.186	41225.95
572.384	41234.14
572.582	41410.27
572.781	41459.42
572.979	40969.96
573.177	41103.07
573.376	40797.93
573.574	40679.14
573.772	41105.12
573.971	40533.74
574.169	40433.39
574.367	40652.52
574.565	40318.7
574.763	39958.26
574.962	39866.1
575.16	40161.01
575.358	40417
575.556	39579.39
575.754	40419.05
575.952	39565.05
576.151	40265.45
576.349	39640.82
576.547	39884.53
576.745	39700.22
576.943	39591.67
577.141	39587.58
577.339	39798.52
577.537	39601.91
577.735	39161.6
577.933	38901.51
578.131	39270.14
578.329	39317.25
578.527	38868.74
578.725	38747.91
578.923	38817.54
579.121	38438.67
579.319	38762.25
579.516	38563.59
579.714	38682.38
579.912	38919.94
580.11	38240.01
580.308	38717.19
580.506	38475.53
580.704	37848.85
580.901	38311.69
581.099	38608.65
581.297	37791.51
581.495	38115.09
581.692	38160.14
581.89	37443.35
582.088	37668.63
582.285	37611.29
582.483	37826.32
582.681	37191.45
582.878	37263.13
583.076	37250.84
583.274	37459.74
583.471	36611.88
583.669	36960.03
583.866	36632.36
584.064	36767.52
584.262	36607.78
584.459	36855.59
584.657	36376.36
584.854	36572.97
585.052	35688.24
585.249	36515.62
585.447	36093.74
585.644	35995.44
585.841	36181.81
586.039	36400.94
586.236	35585.85
586.434	35798.84
586.631	35585.85
586.828	35604.28
587.026	35436.34
587.223	35194.68
587.42	35340.09
587.618	35299.13
587.815	34981.7
588.012	35024.7
588.21	34846.53
588.407	35127.1
588.604	34950.98
588.801	34756.42
588.999	35008.32
589.196	34608.97
589.393	34158.41
589.59	34271.05
589.787	34314.06
589.984	34107.21
590.182	33857.36
590.379	33955.66
590.576	33740.63
590.773	33875.79
590.97	33824.59
591.167	34230.09
591.364	33429.34
591.561	33630.04
591.758	33302.36
591.955	33478.49
592.152	33855.31
592.349	33294.17
592.546	33251.16
592.743	33273.69
592.94	32515.94
593.137	32812.9
593.334	33118.04
593.531	32374.63
593.727	32440.17
593.924	32503.65
594.121	32280.42
594.318	32583.52
594.515	31819.63
594.712	32188.27
594.908	32075.63
595.105	32063.34
595.302	31731.57
595.499	31913.84
595.696	31799.15
595.892	31494
596.089	31395.7
596.286	31612.79
596.482	31225.72
596.679	31420.28
596.876	31295.35
597.072	31096.7
597.269	30715.78
597.466	30971.77
597.662	30887.81
597.859	30740.35
598.055	31123.32
598.252	30556.04
598.448	30324.61
598.645	30103.43
598.841	30109.58
599.038	30336.9
599.234	30130.06
599.431	30060.43
599.627	29716.37
599.824	29730.7
600.02	29648.78
600.217	30009.23
600.413	29564.82
600.609	29464.47
600.806	29398.93
601.002	29640.59
601.198	29124.5
601.395	29071.26
601.591	29144.98
601.787	29083.55
601.984	28663.71
602.18	29200.28
602.376	28751.77
602.572	28442.53
602.769	28827.55
602.965	28270.5
603.161	28358.56
603.357	28131.24
603.553	28196.78
603.75	28524.45
603.946	27844.52
604.142	28405.67
604.338	27639.73
604.534	28075.94
604.73	27654.06
604.926	27758.51
605.122	28041.13
605.318	27606.96
605.514	27248.57
605.71	27848.62
605.906	27346.87
606.102	27289.52
606.298	27510.71
606.494	27242.42
606.69	26970.04
606.886	26986.43
607.082	26957.75
607.278	27142.07
607.474	26570.69
607.67	27088.82
607.866	26441.67
608.062	26955.71
608.257	26519.49
608.453	26331.08
608.649	26677.18
608.845	26130.37
609.041	26458.05
609.236	26333.12
609.432	26460.1
609.628	26132.42
609.824	26105.8
610.019	26157
610.215	26177.48
610.411	26392.51
610.606	26042.31
610.802	26095.56
610.998	26093.51
611.193	26150.85
611.389	25747.4
611.584	25792.46
611.78	25675.73
611.976	25817.04
612.171	25831.37
612.367	25657.29
612.562	25520.08
612.758	25309.14
612.953	25192.4
613.149	25497.55
613.344	25251.8
613.539	25585.61
613.735	25274.32
613.93	25270.23
614.126	25227.22
614.321	25393.11
614.517	25130.97
614.712	25112.53
614.907	24946.65
615.103	24928.22
615.298	25182.17
615.493	25268.18
615.688	24623.07
615.884	25339.86
616.079	24692.7
616.274	24782.81
616.47	24666.08
616.665	24782.81
616.86	24680.41
617.055	24457.18
617.25	24285.15
617.445	24453.09
617.641	24313.83
617.836	24315.87
618.031	24268.77
618.226	24299.49
618.421	23887.85
618.616	24223.72
618.811	23834.6
619.006	24162.28
619.201	23687.15
619.396	23816.17
619.591	23744.49
619.786	23785.45
619.981	23375.86
620.176	23476.21
620.371	23261.17
620.566	23062.52
620.761	23246.83
620.956	23005.17
621.151	22796.28
621.346	23062.52
621.541	22728.7
621.735	22423.55
621.93	22378.5
622.125	22341.63
622.32	22218.75
622.515	22163.46
622.709	22050.82
622.904	22142.98
623.099	21637.13
623.294	21485.58
623.488	21620.75
623.683	21764.11
623.878	21207.06
624.072	21315.6
624.267	21182.48
624.462	21340.18
624.656	20701.21
624.851	20830.23
625.046	20723.74
625.24	20901.91
625.435	20576.28
625.629	20308
625.824	20363.29
626.018	20328.48
626.213	19781.67
626.407	19867.69
626.602	19585.07
626.796	19912.74
626.991	19621.93
627.185	19570.73
627.38	19370.03
627.574	19597.35
627.768	19628.07
627.963	19187.76
628.157	18819.13
628.352	19320.88
628.546	18997.3
628.74	18890.81
628.935	18653.24
629.129	18554.94
629.323	18393.15
629.517	18417.72
629.712	18513.98
629.906	18368.57
630.1	17786.95
630.294	18061.38
630.489	17989.7
630.683	17705.03
630.877	17475.66
631.071	17545.29
631.265	18030.66
631.459	17414.22
631.653	17334.35
631.848	17539.15
632.042	16992.34
632.236	17256.53
632.43	16795.73
632.624	16748.63
632.818	16871.51
633.012	16719.96
633.206	16603.22
633.4	16513.11
633.594	16412.76
633.788	16519.26
633.982	16488.54
634.176	16269.41
634.369	16058.46
634.563	16173.15
634.757	15990.88
634.951	16007.27
635.145	15915.11
635.339	16033.89
635.533	15646.82
635.726	15931.49
635.92	15394.92
636.114	15634.53
636.308	15188.08
636.501	15247.47
636.695	15134.83
636.889	15067.25
637.083	15089.78
637.276	14948.47
637.47	14739.57
637.664	14944.37
637.857	14755.96
638.051	14887.03
638.244	14499.96
638.438	14512.25
638.632	14686.33
638.825	14297.21
639.019	14155.9
639.212	14301.31
639.406	14192.76
639.599	13961.34
639.793	14108.8
639.986	14000.26
640.18	13871.23
640.373	13766.79
640.567	13676.68
640.76	13791.36
640.954	13566.09
641.147	13490.31
641.34	13553.8
641.534	13230.22
641.727	13310.09
641.92	13299.85
642.114	13113.49
642.307	13254.8
642.5	12920.98
642.694	12800.15
642.887	13097.1
643.08	13099.15
643.273	12765.33
643.467	12802.19
643.66	12578.97
643.853	12718.23
644.046	12435.61
644.239	12587.16
644.432	12558.49
644.626	12361.88
644.819	12413.08
645.012	12152.99
645.205	12206.24
645.398	12259.48
645.591	12142.75
645.784	11995.29
645.977	11722.91
646.17	11896.99
646.363	11921.57
646.556	11589.8
646.749	11620.52
646.942	11751.59
647.135	11577.51
647.328	11503.78
647.521	11428.01
647.714	11444.39
647.907	11497.64
648.099	11225.26
648.292	11227.31
648.485	11522.21
648.678	11122.86
648.871	11294.89
649.064	11006.13
649.256	11159.72
649.449	10803.38
649.642	10805.42
649.835	10768.56
650.027	10653.87
650.22	10481.85
650.413	10569.91
650.605	10586.29
650.798	10535.09
650.991	10356.92
651.183	10397.88
651.376	10379.45
651.568	10469.56
651.761	10045.63
651.954	10182.84
652.146	10039.48
652.339	10068.16
652.531	10231.99
652.724	10010.81
652.916	9722.05
653.109	9834.69
653.301	9857.21
653.494	9734.34
653.686	9582.79
653.879	9851.07
654.071	9595.07
654.263	9443.53
654.456	9613.51
654.648	9552.07
654.84	9306.31
655.033	9269.45
655.225	9353.41
655.417	9324.74
655.61	9304.26
655.802	9085.13
655.994	9212.1
656.186	9160.91
656.379	8902.86
656.571	8835.28
656.763	9011.4
656.955	8870.09
657.148	9060.56
657.34	8855.76
657.532	8599.76
657.724	8679.63
657.916	8757.46
658.108	8599.76
658.3	8513.75
658.492	8501.46
658.684	8530.13
658.876	8507.6
659.068	8319.19
659.26	8433.88
659.452	8542.42
659.644	8276.18
659.836	8263.9
660.028	8370.39
660.22	8048.86
660.412	8104.15
660.604	8083.67
660.796	8136.92
660.988	8005.85
661.18	7780.57
661.372	7850.21
661.563	7737.57
661.755	7756
661.947	7790.81
662.139	7842.01
662.331	7643.36
662.522	7768.29
662.714	7723.23
662.906	7536.87
663.097	7465.19
663.289	7502.05
663.481	7471.33
663.673	7510.24
663.864	7422.18
664.056	7295.21
664.247	7192.81
664.439	7141.61
664.631	7295.21
664.822	7168.23
665.014	7133.42
665.205	7252.2
665.397	7104.74
665.588	7100.65
665.78	6828.27
665.971	6951.15
666.163	6920.43
666.354	6930.67
666.546	6717.68
666.737	6756.59
666.929	6969.58
667.12	6899.95
667.311	6820.08
667.503	6611.18
667.694	6740.21
667.885	6488.31
668.077	6691.06
668.268	6553.84
668.459	6637.81
668.651	6394.1
668.842	6594.8
669.033	6510.83
669.224	6418.68
669.416	6441.2
669.607	6381.81
669.798	6316.28
669.989	6473.97
670.18	6213.88
670.371	6279.41
670.563	6052.09
670.754	6160.63
670.945	6185.21
671.136	6068.47
671.327	6084.86
671.518	5931.26
671.709	5961.98
671.9	5925.11
672.091	6037.75
672.282	6043.9
672.473	5800.19
672.664	5810.43
672.855	5714.17
673.046	5839.1
673.237	5820.67
673.428	5818.62
673.619	5767.42
673.809	5693.69
674	5644.54
674.191	5765.37
674.382	5759.23
674.573	5622.02
674.764	5640.45
674.954	5589.25
675.145	5523.71
675.336	5531.9
675.527	5509.38
675.717	5611.78
675.908	5417.22
676.099	5325.06
676.289	5441.79
676.48	5542.14
676.671	5404.93
676.861	5429.51
677.052	5495.04
677.243	5189.89
677.433	5298.44
677.624	5210.37
677.814	5345.54
678.005	5308.68
678.195	5380.36
678.386	5265.67
678.576	5175.56
678.767	5169.41
678.957	5095.69
679.148	5163.27
679.338	5073.16
679.529	5228.81
679.719	5019.91
679.909	5046.54
680.1	5007.62
680.29	5028.1
680.481	4913.42
680.671	5001.48
680.861	4974.86
681.052	4976.91
681.242	4843.79
681.432	5052.68
681.622	4821.26
681.813	4901.13
682.003	4993.29
682.193	4839.69
682.383	4864.27
682.573	4733.2
682.764	4716.81
682.954	4739.34
683.144	4784.4
683.334	4686.09
683.524	4509.97
683.714	4682
683.904	4573.46
684.094	4669.71
684.284	4653.33
684.474	4589.84
684.664	4589.84
684.854	4630.8
685.044	4616.46
685.234	4542.74
685.424	4624.65
685.614	4428.05
685.804	4501.78
685.994	4438.29
686.184	4557.07
686.374	4469.01
686.564	4415.76
686.753	4342.04
686.943	4333.84
687.133	4479.25
687.323	4229.4
687.513	4354.32
687.702	4221.2
687.892	4262.16
688.082	4329.75
688.272	4258.07
688.461	4260.12
688.651	4172.05
688.841	4253.97
689.03	4133.14
689.22	4141.33
689.41	4079.9
689.599	4014.36
689.789	3981.59
689.979	4108.57
690.168	4047.13
690.358	4018.46
690.547	3868.95
690.737	3907.87
690.926	4053.27
691.116	3854.62
691.305	3997.98
691.495	4036.89
691.684	3875.1
691.874	3739.93
692.063	3746.08
692.252	3875.1
692.442	3764.51
692.631	3776.8
692.82	3721.5
693.01	3676.45
693.199	3645.73
693.388	3561.76
693.578	3602.72
693.767	3735.84
693.956	3580.19
694.146	3719.45
694.335	3686.69
694.524	3524.9
694.713	3582.24
694.902	3557.66
695.092	3557.66
695.281	3344.67
695.47	3414.31
695.659	3428.64
695.848	3418.4
696.037	3494.18
696.226	3520.8
696.415	3414.31
696.604	3457.31
696.793	3330.34
696.982	3318.05
697.171	3379.49
697.36	3469.6
697.549	3164.45
697.738	3154.21
697.927	3250.47
698.116	3229.99
698.305	3193.12
698.494	3264.8
698.683	3186.98
698.872	3234.08
699.061	3217.7
699.25	3086.63
699.438	3174.69
699.627	3150.12
699.816	3207.46
700.005	2986.28
700.193	3141.93
700.382	3109.16
700.571	3072.29
700.76	3055.91
700.948	3062.05
701.137	3057.96
701.326	3137.83
701.514	2955.56
701.703	3080.49
701.892	2951.46
702.08	3066.15
702.269	2971.94
702.457	2885.93
702.646	2947.37
702.834	2998.57
703.023	2892.07
703.212	2904.36
703.4	2951.46
703.589	2818.35
703.777	2883.88
703.965	2840.87
704.154	2992.42
704.342	2816.3
704.531	2887.98
704.719	2847.02
704.907	2838.83
705.096	2775.34
705.284	2941.22
705.472	2730.28
705.661	2842.92
705.849	2824.49
706.037	2666.8
706.226	2709.8
706.414	2793.77
706.602	2707.76
706.79	2828.59
706.979	2666.8
707.167	2732.33
707.355	2672.94
707.543	2718
707.731	2752.81
707.919	2826.54
708.107	2769.2
708.296	2730.28
708.484	2752.81
708.672	2662.7
708.86	2728.24
709.048	2574.64
709.236	2648.36
709.424	2625.84
709.612	2685.23
709.8	2560.3
709.988	2562.35
710.176	2605.36
710.364	2638.13
710.551	2529.58
710.739	2625.84
710.927	2511.15
711.115	2558.25
711.303	2631.98
711.491	2531.63
711.679	2451.76
711.866	2550.06
712.054	2560.3
712.242	2576.69
712.43	2500.91
712.617	2451.76
712.805	2601.26
712.993	2548.01
713.181	2500.91
713.368	2603.31
713.556	2588.97
713.744	2476.34
713.931	2554.16
714.119	2560.3
714.306	2515.25
714.494	2386.22
714.682	2572.59
714.869	2472.24
715.057	2447.66
715.244	2414.9
715.432	2490.67
715.619	2494.77
715.807	2507.06
715.994	2480.43
716.182	2517.29
716.369	2451.76
716.556	2365.75
716.744	2388.27
716.931	2437.42
717.119	2441.52
717.306	2339.12
717.493	2357.55
717.681	2341.17
717.868	2337.07
718.055	2418.99
718.242	2439.47
718.43	2394.42
718.617	2418.99
718.804	2296.11
718.991	2378.03
719.179	2361.65
719.366	2396.46
719.553	2392.37
719.74	2392.37
719.927	2363.7
720.114	2324.79
720.301	2373.94
720.488	2279.73
720.676	2361.65
720.863	2371.89
721.05	2425.14
721.237	2359.6
721.424	2320.69
721.611	2390.32
721.798	2275.63
721.985	2224.44
722.172	2478.38
722.358	2320.69
722.545	2279.73
722.732	2306.35
722.919	2365.75
723.106	2234.68
723.293	2353.46
723.48	2218.29
723.667	2271.54
723.853	2339.12
724.04	2287.92
724.227	2216.24
724.414	2206
724.6	2359.6
724.787	2236.72
724.974	2330.93
725.161	2316.59
725.347	2242.87
725.534	2220.34
725.72	2236.72
725.907	2335.03
726.094	2242.87
726.28	2240.82
726.467	2230.58
726.653	2222.39
726.84	2183.48
727.027	2335.03
727.213	2214.2
727.4	2269.49
727.586	2193.72
727.773	2261.3
727.959	2341.17
728.145	2353.46
728.332	2167.09
728.518	2308.4
728.705	2326.83
728.891	2130.23
729.077	2230.58
729.264	2318.64
729.45	2355.51
729.636	2203.96
729.823	2396.46
730.009	2267.44
730.195	2265.39
730.382	2279.73
730.568	2283.83
730.754	2283.83
730.94	2232.63
731.126	2294.07
731.313	2306.35
731.499	2255.15
731.685	2216.24
731.871	2265.39
732.057	2197.81
732.243	2335.03
732.429	2353.46
732.615	2296.11
732.801	2416.94
732.987	2234.68
733.173	2255.15
733.359	2128.18
733.545	2302.26
733.731	2119.99
733.917	2269.49
734.103	2253.11
734.289	2314.55
734.475	2347.31
734.661	2195.76
734.847	2249.01
735.033	2330.93
735.219	2199.86
735.404	2306.35
735.59	2292.02
735.776	2122.04
735.962	2271.54
736.148	2283.83
736.333	2308.4
736.519	2206
736.705	2328.88
736.89	2314.55
737.076	2144.56
737.262	2187.57
737.447	2115.89
737.633	2224.44
737.819	2326.83
738.004	2279.73
738.19	2148.66
738.375	2292.02
738.561	2339.12
738.747	2265.39
738.932	2371.89
739.118	2326.83
739.303	2275.63
739.489	2312.5
739.674	2242.87
739.859	2238.77
740.045	2277.68
740.23	2206
740.416	2150.71
740.601	2279.73
740.786	2230.58
740.972	2261.3
741.157	2261.3
741.342	2175.28
741.528	2224.44
741.713	2165.04
741.898	2251.06
742.084	2175.28
742.269	2206
742.454	2183.48
742.639	2234.68
742.824	2195.76
743.01	2314.55
743.195	2292.02
743.38	2216.24
743.565	2216.24
743.75	2285.87
743.935	2181.43
744.12	2226.48
744.305	2142.52
744.49	2130.23
744.675	2220.34
744.86	2050.36
745.045	2146.61
745.23	2130.23
745.415	2101.56
745.6	2136.37
745.785	2181.43
745.97	2132.28
746.155	2072.89
746.34	1964.34
746.525	2031.93
746.71	2091.32
746.895	1974.58
747.079	2060.6
747.264	1902.9
747.449	2005.3
747.634	2031.93
747.819	2060.6
748.003	2015.54
748.188	2042.17
748.373	2052.41
748.557	2001.21
748.742	1917.24
748.927	1986.87
749.111	1999.16
749.296	1980.73
749.481	1988.92
749.665	1970.49
749.85	1941.82
750.034	2011.45
750.219	1911.1
750.404	1941.82
750.588	1927.48
750.773	1956.15
750.957	1880.38
751.141	1763.64
751.326	1780.03
751.51	1737.02
751.695	1765.69
751.879	1784.12
752.064	1820.99
752.248	1812.79
752.432	1833.27
752.617	1882.42
752.801	1698.11
752.985	1767.74
753.17	1784.12
753.354	1749.31
753.538	1683.77
753.722	1677.63
753.907	1630.52
754.091	1786.17
754.275	1694.01
754.459	1673.53
754.643	1714.49
754.828	1694.01
755.012	1653.05
755.196	1564.99
755.38	1616.19
755.564	1706.3
755.748	1671.48
755.932	1671.48
756.116	1507.65
756.3	1519.93
756.484	1587.52
756.668	1499.45
756.852	1503.55
757.036	1569.09
757.22	1562.94
757.404	1538.37
757.588	1542.46
757.772	1550.65
757.956	1517.89
758.14	1507.65
758.323	1478.97
758.507	1372.48
758.691	1419.58
758.875	1489.21
759.059	1521.98
759.242	1421.63
759.426	1470.78
759.61	1392.96
759.794	1380.67
759.977	1446.21
760.161	1476.93
760.345	1450.3
760.528	1489.21
760.712	1450.3
760.895	1378.62
761.079	1366.34
761.263	1401.15
761.446	1364.29
761.63	1401.15
761.813	1278.27
761.997	1331.52
762.18	1268.03
762.364	1409.34
762.547	1339.71
762.731	1339.71
762.914	1343.81
763.098	1249.6
763.281	1311.04
763.464	1284.42
763.648	1272.13
763.831	1298.75
764.015	1169.73
764.198	1288.51
764.381	1337.66
764.564	1184.07
764.748	1278.27
764.931	1245.51
765.114	1302.85
765.297	1296.71
765.481	1265.99
765.664	1300.8
765.847	1161.54
766.03	1241.41
766.213	1153.35
766.397	1143.11
766.58	1184.07
766.763	1124.68
766.946	1130.82
767.129	1233.22
767.312	1120.58
767.495	1167.68
767.678	1179.97
767.861	1104.2
768.044	1132.87
768.227	1128.77
768.41	1169.73
768.593	1163.59
768.776	1149.25
768.959	1118.53
769.142	1218.88
769.324	1108.29
769.507	1159.49
769.69	1087.81
769.873	1136.96
770.056	1141.06
770.239	1083.72
770.421	1182.02
770.604	1108.29
770.787	1063.24
770.97	1165.64
771.152	1053
771.335	1044.81
771.518	1032.52
771.7	1155.4
771.883	1069.38
772.066	979.27
772.248	958.79
772.431	1040.71
772.613	1048.9
772.796	1069.38
772.978	1073.48
773.161	1053
773.343	956.74
773.526	1014.09
773.708	1001.8
773.891	938.31
774.073	1046.85
774.256	960.84
774.438	1093.96
774.621	919.88
774.803	946.5
774.985	860.49
775.168	962.89
775.35	866.63
775.532	991.56
775.715	917.83
775.897	825.67
776.079	991.56
776.261	835.91
776.444	874.82
776.626	858.44
776.808	938.31
776.99	825.67
777.173	969.03
777.355	774.47
777.537	926.02
777.719	786.76
777.901	811.34
778.083	768.33
778.265	792.91
778.447	817.48
778.629	758.09
778.811	866.63
778.993	827.72
779.175	702.79
779.357	780.62
779.539	753.99
779.721	807.24
779.903	807.24
780.085	842.06
780.267	835.91
780.449	753.99
780.631	766.28
780.812	807.24
780.994	698.7
781.176	710.99
781.358	784.71
781.54	657.74
781.721	784.71
781.903	721.23
782.085	573.77
782.267	596.3
782.448	655.69
782.63	670.03
782.812	606.54
782.993	604.49
783.175	614.73
783.357	672.08
783.538	608.59
783.72	584.01
783.901	710.99
784.083	639.31
784.264	672.08
784.446	606.54
784.627	584.01
784.809	573.77
784.99	524.62
785.172	608.59
785.353	612.68
785.535	643.4
785.716	600.4
785.897	524.62
786.079	530.77
786.26	672.08
786.441	559.44
786.623	581.96
786.804	530.77
786.985	608.59
787.167	579.92
787.348	563.53
787.529	504.14
787.71	483.66
787.891	551.24
788.073	514.38
788.254	563.53
788.435	471.37
788.616	612.68
788.797	479.57
788.978	545.1
789.159	504.14
789.34	557.39
789.522	506.19
789.703	514.38
789.884	434.51
790.065	463.18
790.246	522.57
790.427	479.57
790.607	469.33
790.788	543.05
790.969	469.33
791.15	383.31
791.331	442.7
791.512	452.94
791.693	543.05
791.874	454.99
792.054	450.89
792.235	500.05
792.416	387.41
792.597	362.83
792.778	430.41
792.958	448.85
793.139	500.05
793.32	389.46
793.5	381.26
793.681	461.13
793.862	391.5
794.042	405.84
794.223	379.22
794.404	383.31
794.584	411.98
794.765	409.94
794.945	362.83
795.126	371.02
795.306	371.02
795.487	344.4
795.667	377.17
795.848	358.74
796.028	319.82
796.209	348.5
796.389	414.03
796.57	401.74
796.75	411.98
796.93	358.74
797.111	389.46
797.291	350.54
797.471	430.41
797.652	311.63
797.832	330.06
798.012	354.64
798.192	274.77
798.373	424.27
798.553	299.34
798.733	373.07
798.913	285.01
799.093	297.3
799.274	332.11
799.454	373.07
799.634	338.26
799.814	409.94
799.994	309.58
800.174	328.02
800.354	414.03
800.534	160.08
800.714	303.44
800.894	323.92
801.074	264.53
801.254	254.29
801.434	354.64
801.614	285.01
801.794	317.78
801.974	911.69
802.154	233.81
802.334	313.68
802.514	293.2
802.693	244.05
802.873	235.86
803.053	364.88
803.233	354.64
803.413	196.95
803.592	276.82
803.772	223.57
803.952	223.57
804.131	278.87
804.311	219.47
804.491	344.4
804.67	270.67
804.85	203.09
805.03	325.97
805.209	272.72
805.389	221.52
805.568	303.44
805.748	274.77
805.928	244.05
806.107	274.77
806.287	211.28
806.466	217.43
806.646	266.58
806.825	213.33
807.004	254.29
807.184	250.19
807.363	217.43
807.543	215.38
807.722	221.52
807.901	221.52
808.081	315.73
808.26	201.04
808.439	260.43
808.619	162.13
808.798	198.99
808.977	248.15
809.156	231.76
809.336	221.52
809.515	194.9
809.694	192.85
809.873	207.19
810.052	252.24
810.231	227.67
810.411	194.9
810.59	252.24
810.769	192.85
810.948	278.87
811.127	180.56
811.306	123.22
811.485	229.71
811.664	239.95
811.843	270.67
812.022	217.43
812.201	164.18
812.38	233.81
812.559	98.64
812.737	170.32
812.916	176.47
813.095	153.94
813.274	168.27
813.453	221.52
813.632	211.28
813.811	301.39
813.989	141.65
814.168	178.51
814.347	201.04
814.526	184.66
814.704	168.27
814.883	250.19
815.062	153.94
815.24	192.85
815.419	168.27
815.598	219.47
815.776	135.51
815.955	244.05
816.133	168.27
816.312	209.23
816.49	162.13
816.669	174.42
816.847	174.42
817.026	131.41
817.204	121.17
817.383	131.41
817.561	182.61
817.74	225.62
817.918	192.85
818.097	98.64
818.275	135.51
818.453	180.56
818.632	39.25
818.81	184.66
818.988	115.03
819.167	164.18
819.345	162.13
819.523	166.23
819.701	127.32
819.879	131.41
820.058	166.23
820.236	168.27
820.414	133.46
820.592	215.38
820.77	207.19
820.948	59.73
821.127	162.13
821.305	203.09
821.483	141.65
821.661	174.42
821.839	121.17
822.017	80.21
822.195	57.68
822.373	94.55
822.551	164.18
822.729	141.65
822.907	178.51
823.085	162.13
823.262	205.14
823.44	139.6
823.618	115.03
823.796	108.88
823.974	121.17
824.152	178.51
824.329	117.08
824.507	170.32
824.685	127.32
824.863	108.88
825.04	155.99
825.218	239.95
825.396	121.17
825.574	100.69
825.751	100.69
825.929	153.94
826.107	98.64
826.284	96.6
826.462	141.65
826.639	76.12
826.817	45.4
826.994	78.16
827.172	94.55
827.349	155.99
827.527	110.93
827.704	112.98
827.882	151.89
828.059	106.84
828.237	65.88
828.414	104.79
828.591	35.16
828.769	127.32
828.946	20.82
829.124	90.45
829.301	86.36
829.478	51.54
829.655	100.69
829.833	90.45
830.01	72.02
830.187	33.11
830.364	135.51
830.542	86.36
830.719	96.6
830.896	123.22
831.073	49.49
831.25	98.64
831.427	102.74
831.604	84.31
831.782	59.73
831.959	100.69
832.136	125.27
832.313	137.56
832.49	-3.75
832.667	131.41
832.844	41.3
833.021	168.27
833.198	57.68
833.374	90.45
833.551	72.02
833.728	133.46
833.905	102.74
834.082	31.06
834.259	127.32
834.436	147.8
834.612	-1.71
834.789	147.8
834.966	90.45
835.143	141.65
835.319	74.07
835.496	137.56
835.673	108.88
835.85	115.03
836.026	180.56
836.203	112.98
836.38	127.32
836.556	94.55
836.733	69.97
836.909	182.61
837.086	110.93
837.262	67.92
837.439	59.73
837.616	31.06
837.792	117.08
837.968	59.73
838.145	0.34
838.321	18.77
838.498	180.56
838.674	84.31
838.851	166.23
839.027	63.83
839.203	108.88
839.38	94.55
839.556	76.12
839.732	61.78
839.909	-13.99
840.085	29.01
840.261	86.36
840.437	49.49
840.614	51.54
840.79	131.41
840.966	112.98
841.142	49.49
841.318	16.73
841.494	69.97
841.671	10.58
841.847	112.98
842.023	53.59
842.199	131.41
842.375	168.27
842.551	51.54
842.727	88.4
842.903	74.07
843.079	61.78
843.255	119.12
843.431	112.98
843.607	63.83
843.783	-7.85
843.959	78.16
844.134	51.54
844.31	33.11
844.486	88.4
844.662	65.88
844.838	92.5
845.013	74.07
845.189	55.64
845.365	98.64
845.541	49.49
845.716	127.32
845.892	98.64
846.068	45.4
846.244	-1.71
846.419	37.2
846.595	115.03
846.77	72.02
846.946	41.3
847.122	69.97
847.297	65.88
847.473	153.94
847.648	8.53
847.824	94.55
847.999	14.68
848.175	49.49
848.35	100.69
848.526	72.02
848.701	72.02
848.876	67.92
849.052	92.5
849.227	88.4
849.403	-1.71
849.578	61.78
849.753	35.16
849.929	76.12
850.104	92.5
850.279	26.96
850.454	117.08
850.63	74.07
850.805	67.92
850.98	18.77
851.155	-24.23
851.33	-24.23
851.505	10.58
851.681	67.92
851.856	65.88
852.031	49.49
852.206	53.59
852.381	49.49
852.556	-36.52
852.731	63.83
852.906	8.53
853.081	61.78
853.256	20.82
853.431	10.58
853.606	82.26
853.781	43.35
853.956	24.92
854.131	90.45
854.305	-11.95
854.48	69.97
854.655	18.77
854.83	12.63
855.005	6.49
855.18	84.31
855.354	45.4
855.529	29.01
855.704	67.92
855.879	63.83
856.053	-1.71
856.228	33.11
856.403	0.34
856.577	80.21
856.752	10.58
856.926	10.58
857.101	90.45
857.276	-18.09
857.45	-5.8
857.625	51.54
857.799	74.07
857.974	69.97
858.148	4.44
858.323	35.16
858.497	33.11
858.672	65.88
858.846	-28.33
859.02	78.16
859.195	12.63
859.369	31.06
859.543	20.82
859.718	72.02
859.892	31.06
860.066	43.35
860.241	112.98
860.415	94.55
860.589	45.4
860.763	35.16
860.938	88.4
861.112	0.34
861.286	49.49
861.46	65.88
861.634	8.53
861.808	20.82
861.982	55.64
862.157	-22.19
862.331	-22.19
862.505	-11.95
862.679	-13.99
862.853	55.64
863.027	4.44
863.201	96.6
863.375	18.77
863.549	61.78
863.722	10.58
863.896	82.26
864.07	8.53
864.244	10.58
864.418	-30.38
864.592	-26.28
864.766	16.73
864.939	61.78
865.113	45.4
865.287	72.02
865.461	49.49
865.634	16.73
865.808	49.49
865.982	-30.38
866.156	-9.9
866.329	22.87
866.503	12.63
866.676	47.44
866.85	16.73
867.024	-48.81
867.197	59.73
867.371	33.11
867.544	2.39
867.718	31.06
867.891	10.58
868.065	33.11
868.238	20.82
868.412	16.73
868.585	74.07
868.759	-1.71
868.932	10.58
869.105	-28.33
869.279	96.6
869.452	96.6
869.625	82.26
869.799	49.49
869.972	-18.09
870.145	29.01
870.319	49.49
870.492	125.27
870.665	12.63
870.838	49.49
871.011	-11.95
871.185	-22.19
871.358	-24.23
871.531	2.39
871.704	57.68
871.877	37.2
872.05	49.49
872.223	4.44
872.396	31.06
872.569	33.11
872.742	31.06
872.915	49.49
873.088	-59.05
873.261	-9.9
873.434	20.82
873.607	10.58
873.78	0.34
873.953	-5.8
874.126	10.58
874.299	82.26
874.471	74.07
874.644	43.35
874.817	-30.38
874.99	55.64
875.163	51.54
875.335	-9.9
875.508	41.3
875.681	2.39
875.853	0.34
876.026	53.59
876.199	14.68
876.371	-28.33
876.544	33.11
876.717	-1.71
876.889	-36.52
877.062	55.64
877.234	61.78
877.407	2.39
877.579	57.68
877.752	16.73
877.924	-18.09
878.097	-1.71
878.269	18.77
878.442	47.44
878.614	-1.71
878.786	47.44
878.959	-44.71
879.131	0.34
879.303	-54.95
879.476	-50.86
879.648	12.63
879.82	2.39
879.993	-40.62
880.165	-75.43
880.337	-61.1
880.509	84.31
880.681	33.11
880.854	-3.75
881.026	72.02
881.198	16.73
881.37	-46.76
881.542	-63.15
881.714	57.68
881.886	67.92
882.058	-16.04
882.23	82.26
882.402	49.49
882.574	31.06
882.746	55.64
882.918	98.64
883.09	65.88
883.262	31.06
883.434	51.54
883.606	0.34
883.778	10.58
883.95	41.3
884.122	14.68
884.293	-5.8
884.465	84.31
884.637	33.11
884.809	-22.19
884.98	33.11
885.152	-11.95
885.324	24.92
885.496	-20.14
885.667	-28.33
885.839	-20.14
886.011	51.54
886.182	-42.67
886.354	49.49
886.525	-9.9
886.697	45.4
886.869	41.3
887.04	-73.39
887.212	-40.62
887.383	39.25
887.555	0.34
887.726	0.34
887.897	26.96
888.069	22.87
888.24	69.97
888.412	18.77
888.583	24.92
888.754	-28.33
888.926	18.77
889.097	6.49
889.268	-3.75
889.44	-57
889.611	-26.28
889.782	-16.04
889.953	-28.33
890.125	55.64
890.296	-67.24
890.467	18.77
890.638	-3.75
890.809	31.06
890.98	-24.23
891.151	8.53
891.323	51.54
891.494	0.34
891.665	26.96
891.836	-46.76
892.007	33.11
892.178	78.16
892.349	4.44
892.52	-42.67
892.691	-102.06
892.862	59.73
893.032	-20.14
893.203	-50.86
893.374	10.58
893.545	90.45
893.716	-32.43
893.887	-5.8
894.057	18.77
894.228	-16.04
894.399	-13.99
894.57	-40.62
894.74	-42.67
894.911	4.44
895.082	8.53
895.253	41.3
895.423	18.77
895.594	37.2
895.764	39.25
895.935	16.73
896.106	78.16
896.276	-18.09
896.447	6.49
896.617	-44.71
896.788	-46.76
896.958	22.87
897.129	6.49
897.299	39.25
897.47	35.16
897.64	22.87
897.81	-18.09
897.981	43.35
898.151	31.06
898.322	-5.8
898.492	-57
898.662	-1.71
898.832	57.68
899.003	18.77
899.173	35.16
899.343	4.44
899.513	6.49
