Data from USB4F104151__55__12-41-54-410.txt Node

Date: Fri Mar 14 12:41:54 EDT 2025
User: louis
Spectrometer: USB4F10415
Trigger mode: 4
Integration Time (sec): 3.000000E-2
Scans to average: 1
Electric dark correction enabled: true
Nonlinearity correction enabled: false
Boxcar width: 0
XAxis mode: Wavelengths
Number of Pixels in Spectrum: 3648
>>>>>Begin Spectral Data<<<<<
178.204	-56.83
178.424	-56.83
178.644	-56.83
178.864	-144.89
179.084	-157.18
179.304	12.8
179.524	14.85
179.744	-44.54
179.964	10.75
180.184	-13.82
180.404	51.71
180.624	-3.58
180.844	-46.59
181.064	-9.73
181.283	-11.78
181.503	12.8
181.723	27.14
181.943	-58.88
182.163	111.1
182.383	53.76
182.602	98.81
182.822	74.24
183.042	70.14
183.262	53.76
183.482	-44.54
183.701	10.75
183.921	-26.11
184.141	-28.16
184.361	100.86
184.58	57.86
184.8	0.51
185.02	47.62
185.239	43.52
185.459	43.52
185.679	39.42
185.898	4.61
186.118	20.99
186.338	55.81
186.557	98.81
186.777	33.28
186.997	61.95
187.216	41.47
187.436	113.15
187.655	68.09
187.875	57.86
188.095	20.99
188.314	72.19
188.534	47.62
188.753	59.9
188.973	64
189.192	80.38
189.412	12.8
189.631	-52.74
189.851	4.61
190.07	18.94
190.29	88.57
190.509	-11.78
190.729	-1.54
190.948	39.42
191.168	174.59
191.387	39.42
191.607	-85.5
191.826	8.7
192.045	39.42
192.265	6.66
192.484	-5.63
192.704	25.09
192.923	20.99
193.142	94.72
193.362	25.09
193.581	39.42
193.8	45.57
194.02	23.04
194.239	-77.31
194.458	55.81
194.678	57.86
194.897	55.81
195.116	33.28
195.335	82.43
195.555	90.62
195.774	-38.4
195.993	47.62
196.212	35.33
196.432	8.7
196.651	-9.73
196.87	4.61
197.089	92.67
197.308	74.24
197.528	-3.58
197.747	59.9
197.966	-7.68
198.185	68.09
198.404	-9.73
198.623	6.66
198.842	117.25
199.062	55.81
199.281	18.94
199.5	-40.45
199.719	-5.63
199.938	53.76
200.157	35.33
200.376	49.66
200.595	57.86
200.814	76.29
201.033	64
201.252	115.2
201.471	-36.35
201.69	45.57
201.909	117.25
202.128	-1.54
202.347	16.9
202.566	14.85
202.785	12.8
203.004	23.04
203.223	61.95
203.442	-67.07
203.661	2.56
203.879	76.29
204.098	82.43
204.317	-32.26
204.536	119.29
204.755	57.86
204.974	127.49
205.193	-11.78
205.411	115.2
205.63	64
205.849	18.94
206.068	68.09
206.287	53.76
206.505	70.14
206.724	47.62
206.943	-3.58
207.162	2.56
207.381	51.71
207.599	27.14
207.818	57.86
208.037	18.94
208.255	4.61
208.474	27.14
208.693	10.75
208.911	53.76
209.13	25.09
209.349	61.95
209.567	98.81
209.786	37.38
210.005	70.14
210.223	20.99
210.442	-40.45
210.661	47.62
210.879	72.19
211.098	20.99
211.316	25.09
211.535	88.57
211.753	29.18
211.972	76.29
212.191	4.61
212.409	10.75
212.628	47.62
212.846	184.83
213.065	55.81
213.283	70.14
213.502	16.9
213.72	29.18
213.938	100.86
214.157	66.05
214.375	68.09
214.594	49.66
214.812	115.2
215.031	-11.78
215.249	47.62
215.467	80.38
215.686	86.53
215.904	57.86
216.122	12.8
216.341	47.62
216.559	-26.11
216.778	127.49
216.996	37.38
217.214	-46.59
217.432	72.19
217.651	31.23
217.869	66.05
218.087	74.24
218.306	25.09
218.524	33.28
218.742	-52.74
218.96	-32.26
219.179	27.14
219.397	-13.82
219.615	64
219.833	20.99
220.051	2.56
220.27	76.29
220.488	-15.87
220.706	78.33
220.924	4.61
221.142	27.14
221.36	-32.26
221.578	4.61
221.796	4.61
222.015	43.52
222.233	53.76
222.451	-24.06
222.669	10.75
222.887	-17.92
223.105	25.09
223.323	-3.58
223.541	-60.93
223.759	61.95
223.977	-3.58
224.195	141.82
224.413	74.24
224.631	82.43
224.849	25.09
225.067	109.05
225.285	-5.63
225.503	-9.73
225.721	37.38
225.939	80.38
226.157	18.94
226.375	84.48
226.592	-26.11
226.81	-11.78
227.028	64
227.246	66.05
227.464	35.33
227.682	115.2
227.9	43.52
228.117	-22.02
228.335	53.76
228.553	-5.63
228.771	92.67
228.989	90.62
229.206	68.09
229.424	-28.16
229.642	14.85
229.86	14.85
230.077	-11.78
230.295	33.28
230.513	27.14
230.731	18.94
230.948	84.48
231.166	86.53
231.384	10.75
231.601	16.9
231.819	49.66
232.037	76.29
232.254	23.04
232.472	41.47
232.689	86.53
232.907	55.81
233.125	86.53
233.342	-13.82
233.56	10.75
233.777	47.62
233.995	72.19
234.213	78.33
234.43	96.77
234.648	12.8
234.865	92.67
235.083	31.23
235.3	43.52
235.518	109.05
235.735	16.9
235.953	27.14
236.17	57.86
236.388	33.28
236.605	12.8
236.822	6.66
237.04	47.62
237.257	18.94
237.475	43.52
237.692	-11.78
237.909	72.19
238.127	49.66
238.344	61.95
238.562	57.86
238.779	25.09
238.996	-36.35
239.214	-7.68
239.431	10.75
239.648	33.28
239.865	125.44
240.083	10.75
240.3	55.81
240.517	2.56
240.735	-19.97
240.952	78.33
241.169	-28.16
241.386	-11.78
241.603	31.23
241.821	-7.68
242.038	111.1
242.255	45.57
242.472	37.38
242.689	117.25
242.907	64
243.124	96.77
243.341	70.14
243.558	68.09
243.775	23.04
243.992	-24.06
244.209	86.53
244.426	135.68
244.643	-1.54
244.86	-1.54
245.078	49.66
245.295	-3.58
245.512	29.18
245.729	80.38
245.946	-15.87
246.163	12.8
246.38	10.75
246.597	29.18
246.814	14.85
247.031	64
247.248	18.94
247.464	39.42
247.681	49.66
247.898	23.04
248.115	94.72
248.332	49.66
248.549	82.43
248.766	86.53
248.983	59.9
249.2	109.05
249.417	-1.54
249.633	25.09
249.85	51.71
250.067	14.85
250.284	88.57
250.501	55.81
250.717	53.76
250.934	18.94
251.151	61.95
251.368	43.52
251.585	78.33
251.801	12.8
252.018	70.14
252.235	-11.78
252.451	100.86
252.668	2.56
252.885	82.43
253.102	68.09
253.318	-9.73
253.535	59.9
253.752	-3.58
253.968	18.94
254.185	14.85
254.401	37.38
254.618	53.76
254.835	-5.63
255.051	76.29
255.268	25.09
255.484	4.61
255.701	-26.11
255.917	92.67
256.134	4.61
256.351	88.57
256.567	78.33
256.784	64
257	-44.54
257.217	160.25
257.433	-42.5
257.65	59.9
257.866	57.86
258.082	20.99
258.299	57.86
258.515	27.14
258.732	72.19
258.948	107.01
259.165	80.38
259.381	41.47
259.597	61.95
259.814	-1.54
260.03	-9.73
260.246	31.23
260.463	88.57
260.679	102.91
260.895	39.42
261.112	123.39
261.328	29.18
261.544	59.9
261.761	41.47
261.977	-85.5
262.193	25.09
262.409	119.29
262.626	72.19
262.842	41.47
263.058	29.18
263.274	47.62
263.49	4.61
263.707	6.66
263.923	-3.58
264.139	-32.26
264.355	72.19
264.571	88.57
264.787	49.66
265.004	64
265.22	10.75
265.436	61.95
265.652	14.85
265.868	98.81
266.084	-1.54
266.3	90.62
266.516	-1.54
266.732	6.66
266.948	78.33
267.164	49.66
267.38	70.14
267.596	109.05
267.812	172.54
268.028	-26.11
268.244	59.9
268.46	16.9
268.676	18.94
268.892	78.33
269.108	2.56
269.324	-22.02
269.54	-36.35
269.756	76.29
269.972	31.23
270.188	53.76
270.403	-13.82
270.619	55.81
270.835	37.38
271.051	37.38
271.267	25.09
271.483	16.9
271.698	31.23
271.914	31.23
272.13	25.09
272.346	16.9
272.562	-11.78
272.777	74.24
272.993	68.09
273.209	2.56
273.425	-28.16
273.64	10.75
273.856	61.95
274.072	29.18
274.287	10.75
274.503	-9.73
274.719	4.61
274.934	-5.63
275.15	-1.54
275.366	109.05
275.581	53.76
275.797	14.85
276.012	107.01
276.228	70.14
276.444	2.56
276.659	78.33
276.875	68.09
277.09	23.04
277.306	33.28
277.521	49.66
277.737	6.66
277.952	51.71
278.168	16.9
278.383	121.34
278.599	45.57
278.814	47.62
279.03	-15.87
279.245	90.62
279.461	29.18
279.676	84.48
279.892	61.95
280.107	55.81
280.322	53.76
280.538	55.81
280.753	-48.64
280.969	25.09
281.184	43.52
281.399	145.92
281.615	49.66
281.83	109.05
282.045	-60.93
282.26	82.43
282.476	16.9
282.691	33.28
282.906	43.52
283.122	6.66
283.337	14.85
283.552	84.48
283.767	33.28
283.983	14.85
284.198	-3.58
284.413	55.81
284.628	23.04
284.843	-9.73
285.058	29.18
285.274	121.34
285.489	37.38
285.704	8.7
285.919	10.75
286.134	29.18
286.349	-44.54
286.564	10.75
286.779	68.09
286.995	20.99
287.21	18.94
287.425	27.14
287.64	74.24
287.855	16.9
288.07	12.8
288.285	37.38
288.5	53.76
288.715	23.04
288.93	64
289.145	78.33
289.36	72.19
289.575	49.66
289.79	23.04
290.004	47.62
290.219	109.05
290.434	33.28
290.649	-44.54
290.864	53.76
291.079	23.04
291.294	0.51
291.509	59.9
291.724	78.33
291.938	-36.35
292.153	80.38
292.368	72.19
292.583	53.76
292.798	80.38
293.012	18.94
293.227	61.95
293.442	-32.26
293.657	82.43
293.871	27.14
294.086	23.04
294.301	47.62
294.516	35.33
294.73	6.66
294.945	-28.16
295.16	4.61
295.374	39.42
295.589	45.57
295.804	72.19
296.018	84.48
296.233	113.15
296.447	68.09
296.662	-28.16
296.877	37.38
297.091	41.47
297.306	76.29
297.52	39.42
297.735	-42.5
297.949	53.76
298.164	96.77
298.378	20.99
298.593	43.52
298.807	39.42
299.022	45.57
299.236	94.72
299.451	88.57
299.665	-5.63
299.88	37.38
300.094	16.9
300.309	31.23
300.523	41.47
300.737	8.7
300.952	61.95
301.166	47.62
301.381	16.9
301.595	10.75
301.809	55.81
302.024	31.23
302.238	23.04
302.452	49.66
302.667	-7.68
302.881	47.62
303.095	23.04
303.309	72.19
303.524	47.62
303.738	115.2
303.952	-19.97
304.166	41.47
304.381	-9.73
304.595	14.85
304.809	25.09
305.023	-36.35
305.237	27.14
305.452	33.28
305.666	66.05
305.88	61.95
306.094	-15.87
306.308	-36.35
306.522	66.05
306.736	86.53
306.95	31.23
307.164	4.61
307.379	49.66
307.593	104.96
307.807	59.9
308.021	49.66
308.235	35.33
308.449	10.75
308.663	74.24
308.877	27.14
309.091	125.44
309.305	68.09
309.519	23.04
309.733	121.34
309.947	-7.68
310.161	90.62
310.374	90.62
310.588	94.72
310.802	16.9
311.016	6.66
311.23	64
311.444	45.57
311.658	37.38
311.872	84.48
312.085	25.09
312.299	6.66
312.513	29.18
312.727	84.48
312.941	66.05
313.154	10.75
313.368	53.76
313.582	92.67
313.796	16.9
314.009	12.8
314.223	14.85
314.437	135.68
314.651	98.81
314.864	-5.63
315.078	55.81
315.292	-85.5
315.505	39.42
315.719	64
315.933	113.15
316.146	4.61
316.36	16.9
316.573	96.77
316.787	72.19
317.001	64
317.214	23.04
317.428	47.62
317.641	-11.78
317.855	-1.54
318.068	39.42
318.282	152.06
318.495	47.62
318.709	160.25
318.922	31.23
319.136	86.53
319.349	123.39
319.563	70.14
319.776	31.23
319.99	12.8
320.203	8.7
320.417	90.62
320.63	25.09
320.843	82.43
321.057	0.51
321.27	6.66
321.483	70.14
321.697	25.09
321.91	47.62
322.124	59.9
322.337	23.04
322.55	37.38
322.763	78.33
322.977	14.85
323.19	2.56
323.403	39.42
323.617	49.66
323.83	68.09
324.043	82.43
324.256	55.81
324.469	8.7
324.683	64
324.896	70.14
325.109	31.23
325.322	78.33
325.535	29.18
325.748	-56.83
325.962	53.76
326.175	25.09
326.388	86.53
326.601	37.38
326.814	49.66
327.027	57.86
327.24	115.2
327.453	-67.07
327.666	86.53
327.879	104.96
328.092	86.53
328.305	66.05
328.518	74.24
328.731	109.05
328.944	25.09
329.157	82.43
329.37	51.71
329.583	45.57
329.796	104.96
330.009	16.9
330.222	18.94
330.435	76.29
330.648	61.95
330.861	12.8
331.073	8.7
331.286	37.38
331.499	39.42
331.712	20.99
331.925	29.18
332.138	70.14
332.35	102.91
332.563	-58.88
332.776	49.66
332.989	2.56
333.202	115.2
333.414	90.62
333.627	107.01
333.84	14.85
334.053	14.85
334.265	43.52
334.478	-24.06
334.691	0.51
334.903	64
335.116	20.99
335.329	31.23
335.541	74.24
335.754	33.28
335.966	94.72
336.179	16.9
336.392	23.04
336.604	37.38
336.817	-30.21
337.029	96.77
337.242	86.53
337.454	68.09
337.667	12.8
337.88	166.4
338.092	88.57
338.305	10.75
338.517	12.8
338.729	55.81
338.942	57.86
339.154	59.9
339.367	41.47
339.579	102.91
339.792	-9.73
340.004	6.66
340.217	66.05
340.429	102.91
340.641	25.09
340.854	-15.87
341.066	96.77
341.278	51.71
341.491	59.9
341.703	107.01
341.915	-19.97
342.128	-9.73
342.34	39.42
342.552	14.85
342.764	82.43
342.977	51.71
343.189	-1.54
343.401	23.04
343.613	-7.68
343.826	94.72
344.038	31.23
344.25	12.8
344.462	121.34
344.674	55.81
344.886	59.9
345.099	88.57
345.311	49.66
345.523	-54.78
345.735	14.85
345.947	72.19
346.159	8.7
346.371	57.86
346.583	80.38
346.795	125.44
347.007	6.66
347.219	102.91
347.431	61.95
347.643	72.19
347.855	35.33
348.067	70.14
348.279	8.7
348.491	35.33
348.703	129.53
348.915	-26.11
349.127	23.04
349.339	12.8
349.551	115.2
349.763	55.81
349.975	96.77
350.187	45.57
350.399	82.43
350.61	61.95
350.822	49.66
351.034	41.47
351.246	-15.87
351.458	51.71
351.669	45.57
351.881	70.14
352.093	-44.54
352.305	61.95
352.517	92.67
352.728	86.53
352.94	41.47
353.152	49.66
353.363	25.09
353.575	33.28
353.787	33.28
353.999	23.04
354.21	94.72
354.422	-3.58
354.633	23.04
354.845	64
355.057	6.66
355.268	45.57
355.48	80.38
355.692	14.85
355.903	70.14
356.115	-36.35
356.326	8.7
356.538	94.72
356.749	82.43
356.961	109.05
357.172	61.95
357.384	-28.16
357.595	57.86
357.807	10.75
358.018	61.95
358.23	-32.26
358.441	25.09
358.653	90.62
358.864	33.28
359.075	-34.3
359.287	49.66
359.498	88.57
359.709	25.09
359.921	-26.11
360.132	76.29
360.344	31.23
360.555	-7.68
360.766	37.38
360.977	12.8
361.189	53.76
361.4	25.09
361.611	41.47
361.823	92.67
362.034	133.63
362.245	-69.12
362.456	104.96
362.667	74.24
362.879	14.85
363.09	31.23
363.301	88.57
363.512	53.76
363.723	-46.59
363.935	51.71
364.146	111.1
364.357	113.15
364.568	72.19
364.779	6.66
364.99	115.2
365.201	25.09
365.412	51.71
365.623	29.18
365.834	49.66
366.045	59.9
366.256	53.76
366.467	59.9
366.678	35.33
366.889	66.05
367.1	2.56
367.311	23.04
367.522	49.66
367.733	59.9
367.944	117.25
368.155	23.04
368.366	137.73
368.577	98.81
368.788	94.72
368.999	20.99
369.209	47.62
369.42	78.33
369.631	129.53
369.842	82.43
370.053	82.43
370.264	35.33
370.474	74.24
370.685	113.15
370.896	29.18
371.107	72.19
371.317	39.42
371.528	12.8
371.739	57.86
371.95	25.09
372.16	113.15
372.371	29.18
372.582	72.19
372.792	90.62
373.003	37.38
373.214	39.42
373.424	12.8
373.635	-7.68
373.846	96.77
374.056	55.81
374.267	104.96
374.477	4.61
374.688	-24.06
374.898	68.09
375.109	45.57
375.319	107.01
375.53	125.44
375.74	31.23
375.951	43.52
376.161	31.23
376.372	113.15
376.582	39.42
376.793	39.42
377.003	66.05
377.214	33.28
377.424	53.76
377.635	84.48
377.845	-7.68
378.055	43.52
378.266	31.23
378.476	16.9
378.686	80.38
378.897	41.47
379.107	88.57
379.317	96.77
379.528	45.57
379.738	102.91
379.948	-48.64
380.158	76.29
380.369	72.19
380.579	8.7
380.789	41.47
380.999	66.05
381.21	111.1
381.42	137.73
381.63	6.66
381.84	23.04
382.05	90.62
382.261	53.76
382.471	61.95
382.681	104.96
382.891	72.19
383.101	92.67
383.311	-17.92
383.521	61.95
383.731	51.71
383.941	45.57
384.151	33.28
384.361	131.58
384.571	94.72
384.781	113.15
384.991	74.24
385.201	197.12
385.411	64
385.621	109.05
385.831	18.94
386.041	82.43
386.251	70.14
386.461	96.77
386.671	14.85
386.881	18.94
387.091	25.09
387.301	90.62
387.511	43.52
387.72	51.71
387.93	123.39
388.14	55.81
388.35	70.14
388.56	72.19
388.769	92.67
388.979	113.15
389.189	51.71
389.399	29.18
389.609	115.2
389.818	57.86
390.028	96.77
390.238	55.81
390.447	41.47
390.657	150.01
390.867	104.96
391.076	57.86
391.286	125.44
391.496	61.95
391.705	55.81
391.915	117.25
392.125	64
392.334	-34.3
392.544	154.11
392.753	66.05
392.963	66.05
393.172	104.96
393.382	41.47
393.591	145.92
393.801	59.9
394.01	41.47
394.22	100.86
394.429	51.71
394.639	158.21
394.848	102.91
395.058	84.48
395.267	133.63
395.477	184.83
395.686	88.57
395.895	135.68
396.105	111.1
396.314	80.38
396.524	123.39
396.733	141.82
396.942	88.57
397.152	84.48
397.361	96.77
397.57	68.09
397.78	82.43
397.989	92.67
398.198	203.26
398.407	133.63
398.617	59.9
398.826	88.57
399.035	104.96
399.244	111.1
399.453	123.39
399.663	111.1
399.872	207.36
400.081	57.86
400.29	197.12
400.499	39.42
400.708	141.82
400.917	88.57
401.127	139.77
401.336	78.33
401.545	168.45
401.754	125.44
401.963	158.21
402.172	92.67
402.381	123.39
402.59	178.69
402.799	113.15
403.008	150.01
403.217	197.12
403.426	117.25
403.635	109.05
403.844	123.39
404.053	168.45
404.262	170.49
404.471	229.88
404.68	119.29
404.888	109.05
405.097	115.2
405.306	158.21
405.515	182.78
405.724	231.93
405.933	178.69
406.142	162.3
406.35	113.15
406.559	139.77
406.768	176.64
406.977	207.36
407.185	203.26
407.394	281.08
407.603	156.16
407.812	176.64
408.02	289.28
408.229	182.78
408.438	207.36
408.646	270.84
408.855	348.67
409.064	217.6
409.272	215.55
409.481	270.84
409.69	236.03
409.898	225.79
410.107	279.04
410.315	344.57
410.524	270.84
410.733	326.14
410.941	307.71
411.15	324.09
411.358	363
411.567	395.77
411.775	365.05
411.984	496.12
412.192	461.3
412.401	420.35
412.609	530.94
412.818	457.21
413.026	518.65
413.234	510.46
413.443	553.46
413.651	592.37
413.86	664.05
414.068	659.96
414.276	598.52
414.485	659.96
414.693	635.38
414.901	684.53
415.11	676.34
415.318	715.25
415.526	754.16
415.734	821.75
415.943	788.98
416.151	739.83
416.359	850.42
416.567	850.42
416.776	897.52
416.984	903.67
417.192	1030.64
417.4	977.39
417.608	1008.11
417.817	1092.08
418.025	1077.74
418.233	1233.39
418.441	1204.72
418.649	1219.05
418.857	1313.26
419.065	1253.87
419.273	1247.72
419.481	1386.99
419.689	1421.8
419.897	1518.06
420.105	1577.45
420.313	1573.35
420.521	1708.52
420.729	1698.28
420.937	1698.28
421.145	1839.59
421.353	2015.71
421.561	1896.93
421.769	2015.71
421.977	2030.05
422.185	1964.51
422.393	2202.08
422.601	2288.09
422.809	2284
423.017	2443.74
423.224	2486.75
423.432	2437.59
423.64	2476.51
423.848	2785.75
424.056	2583
424.263	2830.8
424.471	2933.2
424.679	2974.16
424.887	3260.88
425.094	3314.13
425.302	3398.09
425.51	3334.61
425.718	3414.48
425.925	3570.12
426.133	3541.45
426.341	3832.26
426.548	4010.43
426.756	3807.69
426.964	4065.73
427.171	4204.99
427.379	4452.8
427.586	4422.08
427.794	4602.3
428.001	4770.23
428.209	5071.28
428.417	4876.73
428.624	5257.65
428.832	5192.11
429.039	5314.99
429.247	5282.22
429.454	5679.53
429.662	5999.01
429.869	5794.22
430.076	6173.09
430.284	5972.39
430.491	6384.03
430.699	6410.65
430.906	6570.4
431.114	6613.4
431.321	6896.02
431.528	7156.11
431.736	7362.96
431.943	7801.22
432.15	7610.76
432.358	7621
432.565	8212.87
432.772	8130.95
432.979	8429.95
433.187	8669.56
433.394	8608.12
433.601	9443.7
433.808	9445.74
434.016	9382.26
434.223	9838.95
434.43	10269.03
434.637	10172.77
434.844	10711.39
435.052	10912.09
435.259	10776.92
435.466	10836.31
435.673	10705.24
435.88	11673.93
436.087	11952.46
436.294	11942.22
436.501	11790.67
436.708	12022.09
436.915	12724.54
437.122	13019.45
437.329	12845.37
437.537	13465.91
437.743	13781.29
437.95	13605.17
438.157	14162.22
438.364	14772.51
438.571	14663.97
438.778	14838.05
438.985	16199.94
439.192	15524.12
439.399	15786.26
439.606	15755.54
439.813	16685.31
440.02	17656.05
440.227	17379.57
440.433	17090.81
440.64	17510.64
440.847	17563.89
441.054	17955.05
441.261	19153.12
441.467	19173.6
441.674	19345.62
441.881	20164.81
442.088	19990.73
442.294	20025.55
442.501	20230.35
442.708	21067.97
442.914	21764.28
443.121	22311.08
443.328	21866.67
443.534	23490.71
443.741	22595.75
443.948	22724.77
444.154	24080.53
444.361	23926.93
444.568	24144.02
444.774	24023.19
444.981	24352.91
445.187	24946.82
445.394	26077.3
445.6	26001.52
445.807	28225.62
446.013	27240.54
446.22	27670.62
446.426	28745.8
446.633	29200.45
446.839	29880.38
447.046	28960.84
447.252	30425.14
447.459	30275.63
447.665	30222.39
447.871	31305.76
448.078	32649.23
448.284	31402.02
448.491	32000.02
448.697	33595.39
448.903	34068.47
449.11	34279.41
449.316	33705.98
449.522	34199.54
449.728	34977.77
449.935	35633.12
450.141	35205.09
450.347	36345.81
450.553	34918.38
450.76	35684.32
450.966	36753.36
451.172	36638.67
451.378	37429.19
451.584	36734.93
451.791	37351.37
451.997	37441.48
452.203	38016.96
452.409	38344.63
452.615	37937.09
452.821	36304.85
453.027	36138.97
453.233	37947.32
453.44	36382.68
453.646	36835.28
453.852	37097.42
454.058	37658.56
454.264	36179.93
454.47	37590.98
454.676	36440.02
454.882	37531.59
455.088	34293.75
455.294	34842.6
455.5	35721.18
455.705	35997.66
455.911	34496.5
456.117	33533.95
456.323	33198.09
456.529	31412.26
456.735	32864.27
456.941	32303.12
457.147	31672.35
457.352	30621.74
457.558	30564.4
457.764	30720.04
457.97	30031.93
458.176	29188.16
458.381	29640.76
458.587	27697.24
458.793	27760.73
458.999	26450.03
459.204	28422.22
459.41	27525.21
459.616	25735.29
459.821	25346.17
460.027	25819.25
460.233	25221.25
460.438	23787.67
460.644	24062.1
460.85	22818.98
461.055	22665.38
461.261	22839.46
461.466	20725.96
461.672	20078.8
461.878	21915.83
462.083	20144.33
462.289	20046.03
462.494	19556.57
462.7	18907.36
462.905	18354.41
463.111	18747.62
463.316	18999.52
463.522	18542.82
463.727	18624.74
463.932	18489.57
464.138	18428.13
464.343	18569.44
464.549	17807.6
464.754	18493.67
464.959	18186.47
465.165	18092.27
465.37	17400.05
465.575	16871.68
465.781	17852.66
465.986	17979.63
466.191	17287.42
466.397	16759.04
466.602	16099.59
466.807	16353.54
467.012	16523.52
467.218	16544
467.423	16251.14
467.628	16345.35
467.833	17338.62
468.038	16660.74
468.244	16017.68
468.449	16539.91
468.654	16140.55
468.859	16046.35
469.064	15898.89
469.269	15438.1
469.474	15565.07
469.679	15769.87
469.885	15274.26
470.09	15515.92
470.295	15595.79
470.5	15057.18
470.705	15212.82
470.91	14795.04
471.115	14555.43
471.32	14979.36
471.525	14655.78
471.73	14616.86
471.935	14506.27
472.139	13834.54
472.344	14158.12
472.549	13879.6
472.754	13879.6
472.959	13691.18
473.164	13152.57
473.369	13013.31
473.574	13496.63
473.778	13488.43
473.983	13074.74
474.188	13113.66
474.393	12697.92
474.598	12626.24
474.802	12818.75
475.007	12552.51
475.212	12685.63
475.417	12095.82
475.621	11936.07
475.826	12144.97
476.031	12130.63
476.235	11487.57
476.44	11864.39
476.645	11696.46
476.849	11561.3
477.054	11491.66
477.259	11194.71
477.463	11125.08
477.668	10862.94
477.872	11243.86
478.077	10893.66
478.282	10690.91
478.486	10508.64
478.691	10602.85
478.895	10680.67
479.1	10377.57
479.304	10445.15
479.509	10021.22
479.713	10535.26
479.918	10109.29
480.122	10023.27
480.326	10017.13
480.531	9947.5
480.735	10064.23
480.94	9726.32
481.144	10219.88
481.348	9900.39
481.553	9732.46
481.757	9691.5
481.961	9808.23
482.166	9851.24
482.37	9673.07
482.574	9482.61
482.778	9564.53
482.983	9748.84
483.187	9857.39
483.391	9744.75
483.595	9650.54
483.8	9574.77
484.004	9707.88
484.208	9695.6
484.412	9501.04
484.616	9660.78
484.821	9689.45
485.025	9537.9
485.229	9666.92
485.433	9795.95
485.637	9625.97
485.841	9550.19
486.045	9587.05
486.249	9726.32
486.453	9660.78
486.657	9517.42
486.861	9664.88
487.065	9441.65
487.269	9695.6
487.473	9537.9
487.677	9697.64
487.881	9849.19
488.085	9728.36
488.289	9806.19
488.493	9486.7
488.697	9709.93
488.901	9793.9
489.105	9650.54
489.309	9716.08
489.512	9855.34
489.716	9955.69
489.92	9843.05
490.124	9795.95
490.328	9943.4
490.531	9767.27
490.735	9902.44
490.939	10113.38
491.143	9875.82
491.346	10027.37
491.55	10201.44
491.754	9955.69
491.958	10076.52
492.161	9994.6
492.365	10238.31
492.569	9970.02
492.772	10297.7
492.976	10125.67
493.18	10469.73
493.383	10430.82
493.587	10551.65
493.79	10629.47
493.994	10400.1
494.197	10506.59
494.401	10834.27
494.605	10709.34
494.808	10869.08
495.012	10885.47
495.215	10887.51
495.419	11012.44
495.622	10791.26
495.825	11012.44
496.029	11202.9
496.232	11497.81
496.436	11233.62
496.639	11540.82
496.843	11737.42
497.046	11686.22
497.249	11950.41
497.453	11907.4
497.656	12099.91
497.859	11905.35
498.063	12265.8
498.266	12478.79
498.469	12456.26
498.673	12204.36
498.876	12865.85
499.079	12691.77
499.282	12616
499.485	13248.82
499.689	13099.32
499.892	13545.78
500.095	13324.6
500.298	13558.07
500.501	13486.39
500.705	14012.71
500.908	14057.77
501.111	14276.9
501.314	14536.99
501.517	14334.25
501.72	14727.46
501.923	14539.04
502.126	14981.4
502.329	15171.86
502.532	15135
502.735	15175.96
502.938	15528.21
503.141	15444.24
503.344	15839.5
503.547	15888.65
503.75	15898.89
503.953	16591.11
504.156	16636.16
504.359	16384.26
504.562	16568.58
504.765	17029.37
504.968	17492.21
505.17	17303.8
505.373	17469.69
505.576	17649.91
505.779	18233.58
505.982	18102.51
506.185	18372.84
506.387	18381.03
506.59	18508.01
506.793	18798.82
506.996	18624.74
507.198	19654.87
507.401	19253.47
507.604	19732.69
507.807	20056.27
508.009	19869.9
508.212	20025.55
508.415	20101.33
508.617	20596.93
508.82	20678.85
509.022	20435.14
509.225	21289.15
509.428	21084.35
509.63	21502.14
509.833	21457.08
510.035	22003.89
510.238	21737.65
510.44	22177.97
510.643	22390.95
510.845	22683.81
511.048	22925.47
511.25	22904.99
511.453	23275.68
511.655	23941.27
511.858	23672.98
512.06	23482.52
512.262	24129.68
512.465	24053.9
512.667	24600.71
512.87	24623.24
513.072	24672.39
513.274	24936.58
513.477	25397.37
513.679	25399.42
513.881	25710.71
514.084	26030.19
514.286	25964.66
514.488	26275.95
514.69	26976.36
514.893	26675.3
515.095	26943.59
515.297	27320.42
515.499	27273.31
515.701	27621.47
515.904	27660.38
516.106	27981.91
516.308	28383.31
516.51	28424.27
516.712	28518.48
516.914	29231.17
517.116	29507.65
517.318	29618.24
517.52	29481.02
517.722	29904.95
517.925	29984.82
518.127	30414.9
518.329	30263.35
518.531	30365.74
518.733	30904.36
518.935	31184.93
519.136	31260.71
519.338	31422.5
519.54	31246.37
519.742	31885.34
519.944	32077.85
520.146	32391.19
520.348	32524.3
520.55	32602.13
520.752	33019.91
520.954	33564.67
521.155	33040.39
521.357	33511.42
521.559	33654.78
521.761	34451.44
521.963	34195.45
522.164	34082.81
522.366	34596.85
522.568	34758.64
522.77	34895.85
522.971	35067.88
523.173	35057.64
523.375	35551.2
523.576	35420.13
523.778	35241.96
523.98	35641.31
524.181	36030.43
524.383	36409.3
524.584	36628.43
524.786	36284.37
524.988	36118.49
525.189	36782.03
525.391	36849.61
525.592	37287.88
525.794	37392.33
525.995	37248.97
526.197	37230.54
526.398	37230.54
526.6	37724.1
526.801	37992.38
527.003	37951.42
527.204	38176.7
527.406	38227.9
527.607	38074.3
527.808	38397.88
528.01	38143.93
528.211	38428.6
528.412	39210.92
528.614	38334.39
528.815	38514.61
529.016	38768.56
529.218	38682.55
529.419	38983.6
529.62	38854.58
529.822	38858.67
530.023	39202.73
530.224	39382.95
530.425	39008.17
530.626	38942.64
530.828	38608.82
531.029	39735.2
531.23	39131.05
531.431	39161.77
531.632	39583.65
531.833	39747.49
532.035	39305.13
532.236	39032.75
532.437	39874.46
532.638	39008.17
532.839	39747.49
533.04	39813.02
533.241	39258.02
533.442	40066.97
533.643	39641
533.844	39565.22
534.045	39663.52
534.246	39292.84
534.447	40128.41
534.648	39499.69
534.849	39827.36
535.05	39290.79
535.251	39352.23
535.451	39372.71
535.652	39638.95
535.853	39796.64
536.054	39655.33
536.255	39686.05
536.456	39137.19
536.657	40206.23
536.857	39579.56
537.058	39659.43
537.259	40175.51
537.46	39653.28
537.66	39624.61
537.861	39956.38
538.062	39430.05
538.263	39751.59
538.463	39546.79
538.664	39499.69
538.865	39780.26
539.065	39960.48
539.266	39165.87
539.466	39911.33
539.667	39176.11
539.868	39638.95
540.068	39118.76
540.269	39671.71
540.469	39929.76
540.67	39081.9
540.87	39280.55
541.071	39425.96
541.271	39702.43
541.472	39626.66
541.672	39255.98
541.873	39477.16
542.073	38913.97
542.274	39845.79
542.474	39325.61
542.675	39255.98
542.875	39536.55
543.075	38887.34
543.276	39094.19
543.476	39509.93
543.676	38981.55
543.877	39518.12
544.077	39143.34
544.277	39026.6
544.478	39327.66
544.678	39303.08
544.878	39192.49
545.078	39137.19
545.279	39030.7
545.479	39157.67
545.679	39587.75
545.879	39026.6
546.079	38866.86
546.28	38805.42
546.48	38850.48
546.68	39337.9
546.88	39137.19
547.08	38956.97
547.28	39231.4
547.48	38469.56
547.68	38815.66
547.88	38707.12
548.081	39219.11
548.281	38997.93
548.481	38709.17
548.681	38975.41
548.881	38825.9
549.081	38490.04
549.28	38612.91
549.48	38889.39
549.68	38506.42
549.88	39294.89
550.08	38789.04
550.28	38305.72
550.48	38600.63
550.68	38924.21
550.88	38326.2
551.08	38893.49
551.279	38752.18
551.479	38393.78
551.679	38526.9
551.879	38664.11
552.079	38768.56
552.278	38608.82
552.478	38397.88
552.678	38803.38
552.878	38485.94
553.077	38383.54
553.277	38246.33
553.477	38690.74
553.676	38404.02
553.876	38649.78
554.076	38578.1
554.275	38434.74
554.475	37992.38
554.674	38543.28
554.874	38313.91
555.074	38246.33
555.273	38064.06
555.473	38672.31
555.672	37844.93
555.872	38135.74
556.071	38305.72
556.271	38205.37
556.47	38238.14
556.67	37855.17
556.869	37814.21
557.068	37867.45
557.268	37552.07
557.467	38188.99
557.667	37885.89
557.866	38100.92
558.065	38088.63
558.265	37539.78
558.464	37081.03
558.663	38049.72
558.863	37224.39
559.062	37898.17
559.261	37427.14
559.461	38084.54
559.66	37461.96
559.859	37431.24
560.058	37091.27
560.258	37300.17
560.457	36978.64
560.656	37265.35
560.855	37232.58
561.054	37402.57
561.253	37334.98
561.453	37697.47
561.652	37277.64
561.851	37568.45
562.05	37228.49
562.249	36888.53
562.448	37421
562.647	36712.4
562.846	36476.88
563.045	36868.05
563.244	36882.38
563.443	37214.15
563.642	36270.04
563.841	36564.95
564.04	36456.4
564.239	36786.13
564.438	36386.77
564.637	36626.39
564.836	36655.06
565.035	36069.34
565.234	36239.32
565.432	36255.7
565.631	36132.82
565.83	36616.15
566.029	36220.89
566.228	36020.19
566.427	35702.75
566.625	36026.33
566.824	35721.18
567.023	35581.92
567.222	35370.98
567.42	35925.98
567.619	35799.01
567.818	35665.89
568.016	35846.11
568.215	35917.79
568.414	35368.93
568.612	35856.35
568.811	34988.01
569.01	35284.97
569.208	35203.05
569.407	35405.8
569.605	35104.74
569.804	35522.53
570.002	34807.79
570.201	35217.38
570.4	34934.76
570.598	34756.59
570.797	34529.27
570.995	34715.63
571.193	34099.19
571.392	34846.7
571.59	34516.98
571.789	34590.7
571.987	34308.08
572.186	34330.61
572.384	34433.01
572.582	34390
572.781	34291.7
572.979	33718.27
573.177	34217.97
573.376	34047.99
573.574	33847.29
573.772	33863.68
573.971	33802.24
574.169	33882.11
574.367	33323.01
574.565	33908.73
574.763	33386.5
574.962	33380.35
575.16	33116.17
575.358	33714.17
575.556	33243.14
575.754	33462.27
575.952	32884.75
576.151	33386.5
576.349	32854.03
576.547	32968.71
576.745	33005.58
576.943	33013.77
577.141	32937.99
577.339	32823.31
577.537	32630.8
577.735	32454.67
577.933	32325.65
578.131	32673.81
578.329	32337.94
578.527	32350.23
578.725	32333.84
578.923	32514.06
579.121	31985.69
579.319	31987.74
579.516	32223.25
579.714	32116.76
579.912	32030.74
580.11	31549.47
580.308	31666.2
580.506	31485.98
580.704	31463.46
580.901	31748.12
581.099	31871
581.297	31150.12
581.495	31381.54
581.692	31518.75
581.89	31377.44
582.088	31307.81
582.285	30855.21
582.483	30976.04
582.681	31100.97
582.878	30701.61
583.076	30695.47
583.274	31115.3
583.471	30570.54
583.669	30517.29
583.866	30437.42
584.064	30945.32
584.262	30310.45
584.459	30312.5
584.657	30396.46
584.854	30535.73
585.052	29868.09
585.249	30011.45
585.447	30281.78
585.644	29937.72
585.841	30046.26
586.039	29964.34
586.236	29704.25
586.434	29616.19
586.631	29147.2
586.828	29542.46
587.026	29540.41
587.223	29352
587.42	29276.23
587.618	29415.49
587.815	29014.09
588.012	28893.26
588.21	28721.23
588.407	29091.91
588.604	28934.21
588.801	28588.11
588.999	28696.65
589.196	28901.45
589.393	28731.47
589.59	28672.07
589.787	28203.09
589.984	28424.27
590.182	27832.41
590.379	28485.71
590.576	28090.45
590.773	28307.54
590.97	28004.44
591.167	27807.83
591.364	27859.03
591.561	27719.77
591.758	27431.01
591.955	27703.39
592.152	28000.34
592.349	26996.84
592.546	27623.51
592.743	27510.88
592.94	27213.92
593.137	27379.81
593.334	27265.12
593.531	26871.91
593.727	26740.84
593.924	27037.8
594.121	26818.66
594.318	27045.99
594.515	26751.08
594.712	26896.49
594.908	26419.31
595.105	26337.39
595.302	26343.53
595.499	26544.23
595.696	26228.85
595.892	26159.22
596.089	25860.21
596.286	26071.15
596.482	25899.12
596.679	25821.3
596.876	26038.39
597.072	25446.52
597.269	25677.94
597.466	25446.52
597.662	25503.87
597.859	25530.49
598.055	25491.58
598.252	25321.6
598.448	25231.49
598.645	25092.23
598.841	25137.28
599.038	24955.01
599.234	25311.36
599.431	24774.79
599.627	24733.83
599.824	24969.35
600.02	24719.49
600.217	25008.26
600.413	24768.65
600.609	24426.64
600.806	24318.09
601.002	24547.47
601.198	23875.73
601.395	24326.28
601.591	23785.62
601.787	23967.89
601.984	23828.63
602.18	23971.99
602.376	23566.49
602.572	23761.05
602.769	23480.47
602.965	23490.71
603.161	23576.73
603.357	23330.97
603.553	23392.41
603.75	23259.29
603.946	23304.35
604.142	23111.84
604.338	22898.85
604.534	23160.99
604.73	22958.24
604.926	22907.04
605.122	23185.57
605.318	22677.67
605.514	22735.01
605.71	22730.92
605.906	22636.71
606.102	22546.6
606.298	22517.93
606.494	22579.37
606.69	22649
606.886	22468.78
607.082	22184.11
607.278	22550.7
607.474	21917.87
607.67	22397.1
607.866	21686.45
608.062	22094
608.257	21958.83
608.453	22444.2
608.649	22010.03
608.845	21805.24
609.041	21913.78
609.236	22024.37
609.432	21780.66
609.628	21817.52
609.824	21549.24
610.019	21772.47
610.215	21616.82
610.411	21756.08
610.606	21881.01
610.802	21571.77
610.998	21526.71
611.193	21663.93
611.389	21317.82
611.584	21065.92
611.78	21270.72
611.976	21362.87
612.171	21338.3
612.367	21190.84
612.562	20918.46
612.758	20895.94
612.953	20551.88
613.149	21147.84
613.344	20967.62
613.539	21043.39
613.735	21010.62
613.93	20854.98
614.126	20754.63
614.321	20916.42
614.517	20904.13
614.712	20766.92
614.907	20439.24
615.103	21131.45
615.298	20584.65
615.493	20781.25
615.688	20437.19
615.884	20846.79
616.079	20345.03
616.274	20691.14
616.47	20445.38
616.665	20406.47
616.86	20156.62
617.055	20238.54
617.25	20144.33
617.445	20275.4
617.641	19843.28
617.836	20396.23
618.031	19792.08
618.226	20021.45
618.421	20216.01
618.616	20154.57
618.811	19775.7
619.006	20060.37
619.201	19364.06
619.396	19798.23
619.591	19484.89
619.786	19601.62
619.981	19298.52
620.176	19378.39
620.371	19044.57
620.566	19261.66
620.761	19110.11
620.956	19036.38
621.151	18770.15
621.346	18954.46
621.541	18821.34
621.735	18761.95
621.93	18280.68
622.125	18469.09
622.32	18342.12
622.515	18358.5
622.709	18184.43
622.904	18092.27
623.099	18067.69
623.294	18039.02
623.488	17500.4
623.683	17819.89
623.878	17508.6
624.072	17600.76
624.267	17793.26
624.462	17516.79
624.656	16931.07
624.851	17215.74
625.046	17223.93
625.24	16914.69
625.435	17092.86
625.629	16900.35
625.824	16535.81
626.018	16660.74
626.213	16541.96
626.407	16605.44
626.602	16265.48
626.796	16468.23
626.991	16247.05
627.185	16013.58
627.38	16077.07
627.574	15827.21
627.768	16163.08
627.963	15743.25
628.157	15937.8
628.352	15798.54
628.546	15626.51
628.74	15747.34
628.935	15593.75
629.129	15456.53
629.323	15413.52
629.517	15053.08
629.712	15044.89
629.906	14991.64
630.1	14862.62
630.294	15155.48
630.489	14809.37
630.683	14909.72
630.877	14500.13
631.071	14700.83
631.265	14680.35
631.459	14426.4
631.653	14450.98
631.848	14139.69
632.042	14192.94
632.236	14213.42
632.43	14068.01
632.624	14018.86
632.818	13979.95
633.012	13758.77
633.206	13934.89
633.4	13910.32
633.594	13588.78
633.788	13650.22
633.982	13537.59
634.176	13611.31
634.369	13533.49
634.563	13314.36
634.757	13232.44
634.951	13222.2
635.145	13259.06
635.339	12982.59
635.533	12714.3
635.726	13300.02
635.92	12697.92
636.114	12917.05
636.308	12759.36
636.501	12679.49
636.695	12919.1
636.889	12491.07
637.083	12474.69
637.276	12575.04
637.47	12396.87
637.664	12218.69
637.857	12484.93
638.051	12282.18
638.244	12020.04
638.438	11997.51
638.632	11878.73
638.825	12013.9
639.019	11778.38
639.212	11813.2
639.406	11893.07
639.599	11751.76
639.793	11843.92
639.986	11506
640.18	11622.73
640.373	11635.02
640.567	11407.7
640.76	11264.34
640.954	11309.4
641.147	11247.96
641.34	11278.68
641.534	11243.86
641.727	11049.3
641.92	11082.07
642.114	11026.78
642.307	10875.23
642.5	10912.09
642.694	10598.75
642.887	10652
643.08	10969.43
643.273	10608.99
643.467	10496.35
643.66	10367.33
643.853	10543.46
644.046	10479.97
644.239	10504.54
644.432	10269.03
644.626	10154.34
644.819	10140.01
645.012	10295.65
645.205	10314.08
645.398	10080.61
645.591	10187.11
645.784	9867.63
645.977	9795.95
646.17	10021.22
646.363	9886.06
646.556	9746.8
646.749	9677.16
646.942	9865.58
647.135	9890.15
647.328	9654.64
647.521	9394.54
647.714	9267.57
647.907	9464.18
648.099	9195.89
648.292	9642.35
648.485	9218.42
648.678	9298.29
648.871	9085.3
649.064	9007.48
649.256	9199.99
649.449	8954.23
649.642	9005.43
649.835	8804.73
650.027	8923.51
650.22	8896.89
650.413	8759.67
650.605	8886.65
650.798	8532.35
650.991	8599.93
651.183	8661.37
651.376	8585.6
651.568	8651.13
651.761	8468.86
651.954	8319.36
652.146	8583.55
652.339	8210.82
652.531	8432
652.724	8393.09
652.916	8176
653.109	8182.15
653.301	8282.5
653.494	8040.84
653.686	8028.55
653.879	8212.87
654.071	8079.75
654.263	7750.03
654.456	8020.36
654.648	7999.88
654.84	7805.32
655.033	7756.17
655.225	7729.55
655.417	7543.18
655.61	7801.22
655.802	7754.12
655.994	7496.08
656.186	7676.3
656.379	7446.93
656.571	7448.97
656.763	7463.31
656.955	7186.83
657.148	7403.92
657.34	7328.14
657.532	7233.94
657.724	7229.84
657.916	7166.35
658.108	7164.31
658.3	7090.58
658.492	7199.12
658.684	7186.83
658.876	7127.44
659.068	6910.36
659.26	6922.65
659.452	7010.71
659.644	7023
659.836	6834.58
660.028	6787.48
660.22	6730.14
660.412	6748.57
660.604	6715.8
660.796	6787.48
660.988	6586.78
661.18	6601.12
661.372	6508.96
661.563	6560.16
661.755	6398.37
661.947	6652.31
662.139	6422.94
662.331	6515.1
662.522	6492.57
662.714	6316.45
662.906	6259.1
663.097	6351.26
663.289	6207.91
663.481	6144.42
663.673	6238.62
663.864	6064.55
664.056	5960.1
664.247	6168.99
664.439	6009.25
664.631	6130.08
664.822	6134.18
665.014	6115.75
665.205	6013.35
665.397	6027.68
665.588	6037.92
665.78	5816.74
665.971	5898.66
666.163	5812.65
666.354	5824.94
666.546	5683.63
666.737	5745.06
666.929	5837.22
667.12	5745.06
667.311	5704.1
667.503	5657
667.694	5806.5
667.885	5527.98
668.077	5439.92
668.268	5452.2
668.459	5509.55
668.651	5431.73
668.842	5482.92
669.033	5413.29
669.224	5409.2
669.416	5411.25
669.607	5439.92
669.798	5339.57
669.989	5345.71
670.18	5396.91
670.371	5228.98
670.563	5134.77
670.754	5329.33
670.945	5122.48
671.136	5130.67
671.327	5208.5
671.518	5200.3
671.709	5185.97
671.9	5085.62
672.091	5040.56
672.282	5032.37
672.473	4889.01
672.664	5040.56
672.855	5015.99
673.046	5024.18
673.237	5052.85
673.428	4817.33
673.619	4903.35
673.809	4897.21
674	4970.93
674.191	4770.23
674.382	4786.61
674.573	4864.44
674.764	4792.76
674.954	4700.6
675.145	4778.42
675.336	4829.62
675.527	4751.8
675.717	4590.01
675.908	4587.96
676.099	4610.49
676.289	4768.18
676.48	4628.92
676.671	4477.37
676.861	4639.16
677.052	4647.35
677.243	4610.49
677.433	4569.53
677.624	4499.9
677.814	4639.16
678.005	4641.21
678.195	4669.88
678.386	4532.67
678.576	4518.33
678.767	4458.94
678.957	4440.51
679.148	4524.47
679.338	4542.91
679.529	4456.89
679.719	4370.88
679.909	4477.37
680.1	4331.97
680.29	4303.29
680.481	4395.45
680.671	4379.07
680.861	4356.54
681.052	4463.04
681.242	4409.79
681.432	4438.46
681.622	4350.4
681.813	4401.6
682.003	4209.09
682.193	4297.15
682.383	4272.57
682.573	4231.62
682.764	4204.99
682.954	4360.64
683.144	4305.34
683.334	4155.84
683.524	4198.85
683.714	4186.56
683.904	4082.11
684.094	4260.29
684.284	4223.42
684.474	4293.05
684.664	4008.39
684.854	4016.58
685.044	4170.18
685.234	4047.3
685.424	4118.98
685.614	3965.38
685.804	4092.35
685.994	4000.19
686.184	4094.4
686.374	4080.07
686.564	3883.46
686.753	3891.65
686.943	3858.89
687.133	3975.62
687.323	4039.11
687.513	3987.91
687.702	3926.47
687.892	3903.94
688.082	3885.51
688.272	3938.76
688.461	3830.21
688.651	3996.1
688.841	3781.06
689.03	3819.97
689.22	3779.01
689.41	3744.2
689.599	3746.25
689.789	3662.28
689.979	3592.65
690.168	3836.36
690.358	3688.9
690.547	3639.75
690.737	3725.77
690.926	3543.5
691.116	3488.2
691.305	3670.47
691.495	3500.49
691.684	3586.51
691.874	3496.39
692.063	3469.77
692.252	3379.66
692.442	3467.72
692.631	3406.28
692.82	3471.82
693.01	3346.89
693.199	3381.71
693.388	3228.11
693.578	3348.94
693.767	3318.22
693.956	3295.69
694.146	3209.68
694.335	3326.41
694.524	3230.16
694.713	3324.37
694.902	3221.97
695.092	3111.38
695.281	3084.75
695.47	3164.62
695.659	3158.48
695.848	3170.77
696.037	3178.96
696.226	3105.23
696.415	3111.38
696.604	3168.72
696.793	3099.09
696.982	3086.8
697.171	3058.13
697.36	2910.68
697.549	2931.16
697.738	3013.07
697.927	2959.83
698.116	3074.51
698.305	3070.42
698.494	2949.59
698.683	2869.72
698.872	2927.06
699.061	2963.92
699.25	2863.57
699.438	2861.52
699.627	2896.34
699.816	2945.49
700.005	2867.67
700.193	2882
700.382	2859.48
700.571	2894.29
700.76	2826.71
700.948	2755.03
701.137	2839
701.326	2824.66
701.514	2877.91
701.703	2795.99
701.892	2959.83
702.08	2879.96
702.269	2757.08
702.457	2730.45
702.646	2775.51
702.834	2707.93
703.023	2595.29
703.212	2759.13
703.4	2779.61
703.589	2644.44
703.777	2679.26
703.965	2681.3
704.154	2662.87
704.342	2662.87
704.531	2738.65
704.719	2683.35
704.907	2679.26
705.096	2556.38
705.284	2503.13
705.472	2566.62
705.661	2707.93
705.849	2650.58
706.037	2634.2
706.226	2718.17
706.414	2507.23
706.602	2675.16
706.79	2591.19
706.979	2503.13
707.167	2642.39
707.355	2499.03
707.543	2509.27
707.731	2638.3
707.919	2552.28
708.107	2521.56
708.296	2396.64
708.484	2601.43
708.672	2482.65
708.86	2378.2
709.048	2431.45
709.236	2505.18
709.424	2544.09
709.612	2589.14
709.8	2515.42
709.988	2449.88
710.176	2585.05
710.364	2513.37
710.551	2443.74
710.739	2470.36
710.927	2499.03
711.115	2503.13
711.303	2503.13
711.491	2361.82
711.679	2574.81
711.866	2347.48
712.054	2501.08
712.242	2519.51
712.43	2468.31
712.617	2419.16
712.805	2466.27
712.993	2589.14
713.181	2458.07
713.368	2453.98
713.556	2531.8
713.744	2417.12
713.931	2562.52
714.119	2331.1
714.306	2427.35
714.494	2415.07
714.682	2456.03
714.869	2294.24
715.057	2570.71
715.244	2451.93
715.432	2394.59
715.619	2445.79
715.807	2400.73
715.994	2425.31
716.182	2410.97
716.369	2501.08
716.556	2568.66
716.744	2277.85
716.931	2380.25
717.119	2415.07
717.306	2419.16
717.493	2466.27
717.681	2462.17
717.868	2503.13
718.055	2355.68
718.242	2392.54
718.43	2329.05
718.617	2439.64
718.804	2453.98
718.991	2503.13
719.179	2462.17
719.366	2466.27
719.553	2343.39
719.74	2343.39
719.927	2378.2
720.114	2394.59
720.301	2505.18
720.488	2435.55
720.676	2382.3
720.863	2525.66
721.05	2453.98
721.237	2539.99
721.424	2531.8
721.611	2378.2
721.798	2456.03
721.985	2415.07
722.172	2431.45
722.358	2503.13
722.545	2443.74
722.732	2353.63
722.919	2451.93
723.106	2298.33
723.293	2410.97
723.48	2443.74
723.667	2503.13
723.853	2404.83
724.04	2486.75
724.227	2578.9
724.414	2505.18
724.6	2308.57
724.787	2580.95
724.974	2509.27
725.161	2515.42
725.347	2472.41
725.534	2410.97
725.72	2505.18
725.907	2462.17
726.094	2343.39
726.28	2511.32
726.467	2466.27
726.653	2441.69
726.84	2431.45
727.027	2539.99
727.213	2511.32
727.4	2554.33
727.586	2490.84
727.773	2531.8
727.959	2453.98
728.145	2556.38
728.332	2476.51
728.518	2476.51
728.705	2456.03
728.891	2462.17
729.077	2509.27
729.264	2488.79
729.45	2626.01
729.636	2503.13
729.823	2503.13
730.009	2544.09
730.195	2595.29
730.382	2615.77
730.568	2492.89
730.754	2599.38
730.94	2544.09
731.126	2521.56
731.313	2580.95
731.499	2529.75
731.685	2607.58
731.871	2685.4
732.057	2517.47
732.243	2548.19
732.429	2509.27
732.615	2599.38
732.801	2519.51
732.987	2550.23
733.173	2660.82
733.359	2548.19
733.545	2564.57
733.731	2492.89
733.917	2683.35
734.103	2689.49
734.289	2677.21
734.475	2617.82
734.661	2714.07
734.847	2716.12
735.033	2677.21
735.219	2658.78
735.404	2634.2
735.59	2531.8
735.776	2740.69
735.962	2640.34
736.148	2793.94
736.333	2642.39
736.519	2617.82
736.705	2664.92
736.89	2687.45
737.076	2566.62
737.262	2558.42
737.447	2681.3
737.633	2593.24
737.819	2693.59
738.004	2685.4
738.19	2607.58
738.375	2638.3
738.561	2671.06
738.747	2689.49
738.932	2718.17
739.118	2677.21
739.303	2750.93
739.489	2720.21
739.674	2632.15
739.859	2685.4
740.045	2712.02
740.23	2773.46
740.416	2523.61
740.601	2759.13
740.786	2611.67
740.972	2619.86
741.157	2716.12
741.342	2640.34
741.528	2705.88
741.713	2685.4
741.898	2664.92
742.084	2675.16
742.269	2804.18
742.454	2630.1
742.639	2716.12
742.824	2564.57
743.01	2701.78
743.195	2693.59
743.38	2603.48
743.565	2652.63
743.75	2705.88
743.935	2505.18
744.12	2689.49
744.305	2568.66
744.49	2513.37
744.675	2732.5
744.86	2632.15
745.045	2658.78
745.23	2597.34
745.415	2785.75
745.6	2611.67
745.785	2494.94
745.97	2656.73
746.155	2496.99
746.34	2646.49
746.525	2650.58
746.71	2511.32
746.895	2544.09
747.079	2535.9
747.264	2595.29
747.449	2585.05
747.634	2406.88
747.819	2554.33
748.003	2503.13
748.188	2519.51
748.373	2505.18
748.557	2525.66
748.742	2484.7
748.927	2466.27
749.111	2423.26
749.296	2353.63
749.481	2363.87
749.665	2335.2
749.85	2388.44
750.034	2306.52
750.219	2468.31
750.404	2367.96
750.588	2247.13
750.773	2386.4
750.957	2292.19
751.141	2382.3
751.326	2306.52
751.51	2267.61
751.695	2259.42
751.879	2275.81
752.064	2349.53
752.248	2318.81
752.432	2269.66
752.617	2312.67
752.801	2169.31
752.985	2234.85
753.17	2265.57
753.354	2234.85
753.538	2226.65
753.722	2079.2
753.907	2128.35
754.091	2095.58
754.275	2148.83
754.459	2044.38
754.643	1958.37
754.828	1974.75
755.012	2087.39
755.196	2060.77
755.38	2148.83
755.564	2011.62
755.748	2097.63
755.932	1974.75
756.116	1976.8
756.3	2132.45
756.484	1901.03
756.668	1966.56
756.852	1896.93
757.036	1915.36
757.22	1847.78
757.404	1966.56
757.588	1862.12
757.772	1939.94
757.956	1847.78
758.14	1829.35
758.323	1772
758.507	1835.49
758.691	1833.44
758.875	1843.68
759.059	1829.35
759.242	1815.01
759.426	1749.48
759.61	1788.39
759.794	1776.1
759.977	1858.02
760.161	1786.34
760.345	1864.16
760.528	1839.59
760.712	1749.48
760.895	1741.29
761.079	1741.29
761.263	1632.74
761.446	1739.24
761.63	1698.28
761.813	1753.57
761.997	1741.29
762.18	1663.46
762.364	1655.27
762.547	1645.03
762.731	1548.78
762.914	1589.74
763.098	1552.87
763.281	1726.95
763.464	1589.74
763.648	1612.26
763.831	1581.54
764.015	1630.7
764.198	1647.08
764.381	1671.65
764.564	1612.26
764.748	1542.63
764.931	1597.93
765.114	1544.68
765.297	1663.46
765.481	1542.63
765.664	1585.64
765.847	1440.23
766.03	1610.22
766.213	1528.3
766.397	1493.48
766.58	1427.95
766.763	1511.91
766.946	1507.82
767.129	1446.38
767.312	1458.67
767.495	1501.67
767.678	1479.15
767.861	1495.53
768.044	1446.38
768.227	1384.94
768.41	1403.37
768.593	1452.52
768.776	1425.9
768.959	1468.91
769.142	1507.82
769.324	1487.34
769.507	1511.91
769.69	1372.65
769.873	1481.19
770.056	1450.47
770.239	1413.61
770.421	1425.9
770.604	1260.01
770.787	1260.01
770.97	1323.5
771.152	1284.59
771.335	1317.36
771.518	1335.79
771.7	1411.56
771.883	1296.88
772.066	1286.64
772.248	1374.7
772.431	1325.55
772.613	1266.16
772.796	1235.44
772.978	1198.57
773.161	1204.72
773.343	1198.57
773.526	1233.39
773.708	1264.11
773.891	1214.96
774.073	1214.96
774.256	1161.71
774.438	1262.06
774.621	1137.13
774.803	1217.01
774.985	1227.25
775.168	1169.9
775.35	1221.1
775.532	1141.23
775.715	1096.18
775.897	1257.96
776.079	1151.47
776.261	1114.61
776.444	1053.17
776.626	1087.98
776.808	1120.75
776.99	1069.55
777.173	1040.88
777.355	1067.5
777.537	965.11
777.719	1081.84
777.901	1051.12
778.083	1098.22
778.265	987.63
778.447	1139.18
778.629	934.39
778.811	1018.35
778.993	956.91
779.175	1075.7
779.357	1044.98
779.539	993.78
779.721	881.14
779.903	918
780.085	924.15
780.267	971.25
780.449	954.87
780.631	930.29
780.812	1016.3
780.994	868.85
781.176	866.8
781.358	895.47
781.54	831.99
781.721	885.23
781.903	883.19
782.085	870.9
782.267	938.48
782.448	860.66
782.63	793.08
782.812	780.79
782.993	887.28
783.175	741.88
783.357	764.4
783.538	801.27
783.72	807.41
783.901	778.74
784.083	827.89
784.264	801.27
784.446	702.97
784.627	717.3
784.809	770.55
784.99	774.64
785.172	698.87
785.353	678.39
785.535	762.36
785.716	733.68
785.897	739.83
786.079	721.4
786.26	760.31
786.441	686.58
786.623	684.53
786.804	621.05
786.985	727.54
787.167	764.4
787.348	645.62
787.529	641.53
787.71	659.96
787.891	608.76
788.073	559.61
788.254	610.81
788.435	647.67
788.616	729.59
788.797	592.37
788.978	573.94
789.159	621.05
789.34	668.15
789.522	557.56
789.703	541.18
789.884	606.71
790.065	555.51
790.246	614.9
790.427	494.07
790.607	508.41
790.788	627.19
790.969	612.85
791.15	582.14
791.331	539.13
791.512	547.32
791.693	496.12
791.874	520.7
792.054	653.81
792.235	592.37
792.416	557.56
792.597	430.59
792.778	535.03
792.958	584.18
793.139	545.27
793.32	424.44
793.5	498.17
793.681	530.94
793.862	518.65
794.042	500.22
794.223	573.94
794.404	453.11
794.584	479.74
794.765	416.25
794.945	473.59
795.126	414.2
795.306	459.26
795.487	401.91
795.667	455.16
795.848	444.92
796.028	481.78
796.209	506.36
796.389	432.63
796.57	428.54
796.75	379.39
796.93	403.96
797.111	430.59
797.291	440.83
797.471	498.17
797.652	426.49
797.832	385.53
798.012	481.78
798.192	375.29
798.373	381.43
798.553	350.71
798.733	381.43
798.913	424.44
799.093	342.52
799.274	471.54
799.454	518.65
799.634	444.92
799.814	428.54
799.994	324.09
800.174	420.35
800.354	326.14
800.534	365.05
800.714	391.67
800.894	383.48
801.074	369.15
801.254	389.63
801.434	387.58
801.614	305.66
801.794	393.72
801.974	1028.59
802.154	377.34
802.334	365.05
802.514	313.85
802.693	367.1
802.873	369.15
803.053	381.43
803.233	379.39
803.413	334.33
803.592	289.28
803.772	381.43
803.952	340.47
804.131	375.29
804.311	340.47
804.491	354.81
804.67	201.21
804.85	262.65
805.03	346.62
805.209	340.47
805.389	313.85
805.568	262.65
805.748	285.18
805.928	289.28
806.107	336.38
806.287	369.15
806.466	383.48
806.646	252.41
806.825	268.8
807.004	317.95
807.184	317.95
807.363	283.13
807.543	223.74
807.722	295.42
807.901	350.71
808.081	324.09
808.26	213.5
808.439	266.75
808.619	397.82
808.798	285.18
808.977	301.56
809.156	289.28
809.336	203.26
809.515	317.95
809.694	231.93
809.873	229.88
810.052	365.05
810.231	268.8
810.411	205.31
810.59	346.62
810.769	289.28
810.948	315.9
811.127	193.02
811.306	227.84
811.485	231.93
811.664	295.42
811.843	223.74
812.022	320
812.201	281.08
812.38	233.98
812.559	221.69
812.737	248.32
812.916	221.69
813.095	217.6
813.274	193.02
813.453	272.89
813.632	350.71
813.811	252.41
813.989	205.31
814.168	188.93
814.347	227.84
814.526	289.28
814.704	219.64
814.883	147.97
815.062	207.36
815.24	205.31
815.419	166.4
815.598	195.07
815.776	174.59
815.955	272.89
816.133	156.16
816.312	184.83
816.49	193.02
816.669	209.4
816.847	193.02
817.026	207.36
817.204	215.55
817.383	238.08
817.561	172.54
817.74	225.79
817.918	221.69
818.097	246.27
818.275	172.54
818.453	242.17
818.632	180.73
818.81	231.93
818.988	209.4
819.167	184.83
819.345	209.4
819.523	236.03
819.701	213.5
819.879	182.78
820.058	207.36
820.236	244.22
820.414	305.66
820.592	219.64
820.77	213.5
820.948	213.5
821.127	201.21
821.305	242.17
821.483	201.21
821.661	213.5
821.839	201.21
822.017	160.25
822.195	219.64
822.373	172.54
822.551	193.02
822.729	264.7
822.907	152.06
823.085	186.88
823.262	174.59
823.44	180.73
823.618	121.34
823.796	158.21
823.974	221.69
824.152	145.92
824.329	195.07
824.507	115.2
824.685	219.64
824.863	215.55
825.04	174.59
825.218	199.16
825.396	100.86
825.574	139.77
825.751	203.26
825.929	170.49
826.107	195.07
826.284	186.88
826.462	162.3
826.639	178.69
826.817	170.49
826.994	184.83
827.172	84.48
827.349	158.21
827.527	84.48
827.704	168.45
827.882	193.02
828.059	88.57
828.237	88.57
828.414	160.25
828.591	94.72
828.769	205.31
828.946	94.72
829.124	145.92
829.301	162.3
829.478	145.92
829.655	147.97
829.833	135.68
830.01	70.14
830.187	137.73
830.364	94.72
830.542	98.81
830.719	76.29
830.896	127.49
831.073	197.12
831.25	115.2
831.427	195.07
831.604	113.15
831.782	61.95
831.959	190.97
832.136	137.73
832.313	47.62
832.49	117.25
832.667	125.44
832.844	64
833.021	127.49
833.198	123.39
833.374	158.21
833.551	127.49
833.728	217.6
833.905	141.82
834.082	94.72
834.259	80.38
834.436	49.66
834.612	66.05
834.789	147.97
834.966	139.77
835.143	49.66
835.319	113.15
835.496	193.02
835.673	100.86
835.85	217.6
836.026	162.3
836.203	20.99
836.38	102.91
836.556	68.09
836.733	74.24
836.909	150.01
837.086	102.91
837.262	61.95
837.439	123.39
837.616	84.48
837.792	135.68
837.968	115.2
838.145	6.66
838.321	156.16
838.498	104.96
838.674	129.53
838.851	143.87
839.027	160.25
839.203	102.91
839.38	88.57
839.556	117.25
839.732	156.16
839.909	96.77
840.085	131.58
840.261	37.38
840.437	127.49
840.614	74.24
840.79	113.15
840.966	143.87
841.142	76.29
841.318	47.62
841.494	90.62
841.671	76.29
841.847	47.62
842.023	72.19
842.199	117.25
842.375	98.81
842.551	31.23
842.727	18.94
842.903	162.3
843.079	80.38
843.255	78.33
843.431	115.2
843.607	158.21
843.783	72.19
843.959	88.57
844.134	109.05
844.31	172.54
844.486	92.67
844.662	61.95
844.838	72.19
845.013	18.94
845.189	166.4
845.365	98.81
845.541	31.23
845.716	29.18
845.892	92.67
846.068	82.43
846.244	76.29
846.419	57.86
846.595	35.33
846.77	154.11
846.946	16.9
847.122	70.14
847.297	41.47
847.473	129.53
847.648	78.33
847.824	78.33
847.999	-28.16
848.175	14.85
848.35	45.57
848.526	125.44
848.701	121.34
848.876	68.09
849.052	29.18
849.227	72.19
849.403	33.28
849.578	94.72
849.753	55.81
849.929	104.96
850.104	10.75
850.279	35.33
850.454	43.52
850.63	29.18
850.805	18.94
850.98	14.85
851.155	123.39
851.33	109.05
851.505	88.57
851.681	104.96
851.856	86.53
852.031	49.66
852.206	31.23
852.381	-7.68
852.556	61.95
852.731	78.33
852.906	8.7
853.081	0.51
853.256	123.39
853.431	27.14
853.606	100.86
853.781	8.7
853.956	-3.58
854.131	141.82
854.305	12.8
854.48	2.56
854.655	57.86
854.83	12.8
855.005	84.48
855.18	16.9
855.354	59.9
855.529	23.04
855.704	-5.63
855.879	88.57
856.053	49.66
856.228	119.29
856.403	68.09
856.577	68.09
856.752	70.14
856.926	39.42
857.101	61.95
857.276	80.38
857.45	109.05
857.625	72.19
857.799	70.14
857.974	-15.87
858.148	-67.07
858.323	6.66
858.497	143.87
858.672	68.09
858.846	27.14
859.02	49.66
859.195	4.61
859.369	-44.54
859.543	115.2
859.718	35.33
859.892	12.8
860.066	49.66
860.241	35.33
860.415	37.38
860.589	59.9
860.763	96.77
860.938	16.9
861.112	94.72
861.286	-44.54
861.46	31.23
861.634	-17.92
861.808	41.47
861.982	-13.82
862.157	-7.68
862.331	109.05
862.505	-1.54
862.679	78.33
862.853	57.86
863.027	59.9
863.201	23.04
863.375	78.33
863.549	70.14
863.722	6.66
863.896	98.81
864.07	-108.03
864.244	61.95
864.418	-38.4
864.592	29.18
864.766	20.99
864.939	6.66
865.113	-7.68
865.287	-15.87
865.461	53.76
865.634	92.67
865.808	-24.06
865.982	131.58
866.156	-7.68
866.329	47.62
866.503	18.94
866.676	111.1
866.85	90.62
867.024	74.24
867.197	74.24
867.371	154.11
867.544	-40.45
867.718	-22.02
867.891	80.38
868.065	-9.73
868.238	61.95
868.412	82.43
868.585	-28.16
868.759	-40.45
868.932	45.57
869.105	-19.97
869.279	31.23
869.452	-52.74
869.625	14.85
869.799	35.33
869.972	-15.87
870.145	10.75
870.319	94.72
870.492	55.81
870.665	-13.82
870.838	51.71
871.011	-17.92
871.185	39.42
871.358	66.05
871.531	37.38
871.704	14.85
871.877	-3.58
872.05	0.51
872.223	68.09
872.396	-7.68
872.569	100.86
872.742	2.56
872.915	64
873.088	-11.78
873.261	31.23
873.434	41.47
873.607	66.05
873.78	-40.45
873.953	10.75
874.126	-30.21
874.299	-17.92
874.471	27.14
874.644	-1.54
874.817	49.66
874.99	139.77
875.163	-3.58
875.335	-15.87
875.508	-22.02
875.681	31.23
875.853	-83.45
876.026	25.09
876.199	-36.35
876.371	-32.26
876.544	4.61
876.717	53.76
876.889	10.75
877.062	-30.21
877.234	43.52
877.407	-17.92
877.579	0.51
877.752	92.67
877.924	-3.58
878.097	53.76
878.269	-9.73
878.442	57.86
878.614	59.9
878.786	-5.63
878.959	55.81
879.131	-32.26
879.303	-30.21
879.476	123.39
879.648	74.24
879.82	20.99
879.993	-26.11
880.165	37.38
880.337	59.9
880.509	43.52
880.681	6.66
880.854	-19.97
881.026	90.62
881.198	129.53
881.37	6.66
881.542	0.51
881.714	8.7
881.886	86.53
882.058	33.28
882.23	-7.68
882.402	14.85
882.574	14.85
882.746	10.75
882.918	8.7
883.09	33.28
883.262	27.14
883.434	-7.68
883.606	39.42
883.778	88.57
883.95	82.43
884.122	70.14
884.293	51.71
884.465	18.94
884.637	66.05
884.809	-15.87
884.98	45.57
885.152	98.81
885.324	96.77
885.496	41.47
885.667	29.18
885.839	-99.84
886.011	66.05
886.182	84.48
886.354	-5.63
886.525	0.51
886.697	70.14
886.869	-28.16
887.04	0.51
887.212	66.05
887.383	-22.02
887.555	72.19
887.726	23.04
887.897	18.94
888.069	61.95
888.24	29.18
888.412	39.42
888.583	14.85
888.754	43.52
888.926	-83.45
889.097	59.9
889.268	27.14
889.44	12.8
889.611	33.28
889.782	-36.35
889.953	20.99
890.125	47.62
890.296	-56.83
890.467	-24.06
890.638	25.09
890.809	6.66
890.98	-54.78
891.151	14.85
891.323	-1.54
891.494	35.33
891.665	70.14
891.836	0.51
892.007	25.09
892.178	43.52
892.349	23.04
892.52	-13.82
892.691	2.56
892.862	25.09
893.032	-26.11
893.203	-36.35
893.374	84.48
893.545	55.81
893.716	-19.97
893.887	76.29
894.057	31.23
894.228	-34.3
894.399	-11.78
894.57	53.76
894.74	49.66
894.911	78.33
895.082	-24.06
895.253	8.7
895.423	-22.02
895.594	98.81
895.764	47.62
895.935	-38.4
896.106	45.57
896.276	-69.12
896.447	2.56
896.617	-19.97
896.788	31.23
896.958	-26.11
897.129	-15.87
897.299	-44.54
897.47	20.99
897.64	0.51
897.81	18.94
897.981	64
898.151	25.09
898.322	-7.68
898.492	117.25
898.662	4.61
898.832	23.04
899.003	16.9
899.173	10.75
899.343	-56.83
899.513	49.66
