Data from USB4F104151__25__12-41-08-725.txt Node

Date: Fri Mar 14 12:41:08 EDT 2025
User: louis
Spectrometer: USB4F10415
Trigger mode: 4
Integration Time (sec): 3.000000E-2
Scans to average: 1
Electric dark correction enabled: true
Nonlinearity correction enabled: false
Boxcar width: 0
XAxis mode: Wavelengths
Number of Pixels in Spectrum: 3648
>>>>>Begin Spectral Data<<<<<
178.204	-120.49
178.424	-120.49
178.644	-120.49
178.864	-132.78
179.084	-112.3
179.304	10.58
179.524	2.39
179.744	37.2
179.964	31.06
180.184	0.34
180.404	-63.15
180.624	4.44
180.844	10.58
181.064	-38.57
181.283	22.87
181.503	-5.8
181.723	-11.95
181.943	-22.19
182.163	86.36
182.383	43.35
182.602	2.39
182.822	10.58
183.042	20.82
183.262	31.06
183.482	14.68
183.701	-9.9
183.921	-9.9
184.141	26.96
184.361	-18.09
184.58	37.2
184.8	6.49
185.02	-20.14
185.239	76.12
185.459	4.44
185.679	4.44
185.898	-3.75
186.118	29.01
186.338	69.97
186.557	-24.23
186.777	-34.47
186.997	47.44
187.216	-1.71
187.436	86.36
187.655	22.87
187.875	-40.62
188.095	31.06
188.314	26.96
188.534	0.34
188.753	0.34
188.973	41.3
189.192	125.27
189.412	-13.99
189.631	12.63
189.851	16.73
190.07	47.44
190.29	41.3
190.509	-16.04
190.729	57.68
190.948	29.01
191.168	170.32
191.387	49.49
191.607	-11.95
191.826	69.97
192.045	-5.8
192.265	-11.95
192.484	-40.62
192.704	18.77
192.923	10.58
193.142	18.77
193.362	35.16
193.581	45.4
193.8	35.16
194.02	80.21
194.239	24.92
194.458	69.97
194.678	82.26
194.897	63.83
195.116	-30.38
195.335	-7.85
195.555	127.32
195.774	31.06
195.993	86.36
196.212	-11.95
196.432	0.34
196.651	26.96
196.87	29.01
197.089	63.83
197.308	82.26
197.528	43.35
197.747	-34.47
197.966	53.59
198.185	59.73
198.404	20.82
198.623	14.68
198.842	119.12
199.062	-16.04
199.281	63.83
199.5	69.97
199.719	37.2
199.938	10.58
200.157	53.59
200.376	57.68
200.595	22.87
200.814	90.45
201.033	24.92
201.252	43.35
201.471	65.88
201.69	76.12
201.909	-5.8
202.128	2.39
202.347	29.01
202.566	20.82
202.785	-34.47
203.004	-3.75
203.223	147.8
203.442	43.35
203.661	31.06
203.879	18.77
204.098	20.82
204.317	-1.71
204.536	45.4
204.755	16.73
204.974	90.45
205.193	16.73
205.411	47.44
205.63	43.35
205.849	61.78
206.068	-40.62
206.287	53.59
206.505	49.49
206.724	-42.67
206.943	33.11
207.162	35.16
207.381	84.31
207.599	72.02
207.818	47.44
208.037	-5.8
208.255	14.68
208.474	18.77
208.693	121.17
208.911	-50.86
209.13	39.25
209.349	31.06
209.567	-7.85
209.786	51.54
210.005	4.44
210.223	-3.75
210.442	-50.86
210.661	-9.9
210.879	39.25
211.098	43.35
211.316	24.92
211.535	14.68
211.753	12.63
211.972	22.87
212.191	-67.24
212.409	29.01
212.628	0.34
212.846	-11.95
213.065	76.12
213.283	10.58
213.502	6.49
213.72	-16.04
213.938	6.49
214.157	12.63
214.375	16.73
214.594	63.83
214.812	10.58
215.031	35.16
215.249	47.44
215.467	29.01
215.686	-34.47
215.904	53.59
216.122	4.44
216.341	67.92
216.559	-5.8
216.778	31.06
216.996	49.49
217.214	16.73
217.432	53.59
217.651	35.16
217.869	33.11
218.087	67.92
218.306	-1.71
218.524	82.26
218.742	4.44
218.96	14.68
219.179	6.49
219.397	127.32
219.615	45.4
219.833	119.12
220.051	49.49
220.27	37.2
220.488	35.16
220.706	26.96
220.924	8.53
221.142	-52.91
221.36	20.82
221.578	-13.99
221.796	-40.62
222.015	33.11
222.233	41.3
222.451	104.79
222.669	-3.75
222.887	63.83
223.105	-18.09
223.323	92.5
223.541	-18.09
223.759	8.53
223.977	-57
224.195	63.83
224.413	31.06
224.631	26.96
224.849	55.64
225.067	51.54
225.285	63.83
225.503	26.96
225.721	-13.99
225.939	39.25
226.157	0.34
226.375	80.21
226.592	39.25
226.81	31.06
227.028	43.35
227.246	117.08
227.464	-32.43
227.682	35.16
227.9	20.82
228.117	57.68
228.335	47.44
228.553	84.31
228.771	31.06
228.989	78.16
229.206	-73.39
229.424	-28.33
229.642	12.63
229.86	-24.23
230.077	41.3
230.295	31.06
230.513	106.84
230.731	61.78
230.948	26.96
231.166	74.07
231.384	-5.8
231.601	29.01
231.819	47.44
232.037	39.25
232.254	16.73
232.472	33.11
232.689	-40.62
232.907	18.77
233.125	-3.75
233.342	-69.29
233.56	-18.09
233.777	-26.28
233.995	-13.99
234.213	41.3
234.43	22.87
234.648	2.39
234.865	63.83
235.083	102.74
235.3	6.49
235.518	18.77
235.735	69.97
235.953	4.44
236.17	43.35
236.388	57.68
236.605	57.68
236.822	-9.9
237.04	88.4
237.257	29.01
237.475	-44.71
237.692	-26.28
237.909	20.82
238.127	53.59
238.344	20.82
238.562	84.31
238.779	8.53
238.996	14.68
239.214	-1.71
239.431	22.87
239.648	-32.43
239.865	-7.85
240.083	10.58
240.3	65.88
240.517	-32.43
240.735	45.4
240.952	65.88
241.169	45.4
241.386	-32.43
241.603	74.07
241.821	-52.91
242.038	117.08
242.255	78.16
242.472	94.55
242.689	65.88
242.907	45.4
243.124	-5.8
243.341	8.53
243.558	53.59
243.775	61.78
243.992	43.35
244.209	-16.04
244.426	45.4
244.643	49.49
244.86	63.83
245.078	-13.99
245.295	33.11
245.512	53.59
245.729	-54.95
245.946	51.54
246.163	45.4
246.38	0.34
246.597	84.31
246.814	31.06
247.031	-32.43
247.248	129.36
247.464	84.31
247.681	16.73
247.898	-34.47
248.115	33.11
248.332	-91.82
248.549	41.3
248.766	-7.85
248.983	82.26
249.2	-20.14
249.417	59.73
249.633	4.44
249.85	80.21
250.067	4.44
250.284	61.78
250.501	47.44
250.717	29.01
250.934	-61.1
251.151	-26.28
251.368	-63.15
251.585	55.64
251.801	12.63
252.018	37.2
252.235	8.53
252.451	69.97
252.668	26.96
252.885	31.06
253.102	-7.85
253.318	20.82
253.535	51.54
253.752	39.25
253.968	26.96
254.185	51.54
254.401	92.5
254.618	35.16
254.835	18.77
255.051	72.02
255.268	106.84
255.484	29.01
255.701	67.92
255.917	41.3
256.134	12.63
256.351	-22.19
256.567	-71.34
256.784	47.44
257	14.68
257.217	33.11
257.433	2.39
257.65	84.31
257.866	49.49
258.082	-1.71
258.299	-18.09
258.515	29.01
258.732	-7.85
258.948	0.34
259.165	51.54
259.381	-3.75
259.597	18.77
259.814	47.44
260.03	18.77
260.246	45.4
260.463	39.25
260.679	49.49
260.895	-13.99
261.112	12.63
261.328	-11.95
261.544	18.77
261.761	147.8
261.977	33.11
262.193	6.49
262.409	24.92
262.626	-28.33
262.842	-7.85
263.058	-1.71
263.274	63.83
263.49	92.5
263.707	51.54
263.923	86.36
264.139	-11.95
264.355	33.11
264.571	98.64
264.787	41.3
265.004	14.68
265.22	10.58
265.436	4.44
265.652	-13.99
265.868	16.73
266.084	0.34
266.3	24.92
266.516	10.58
266.732	-3.75
266.948	53.59
267.164	31.06
267.38	-13.99
267.596	61.78
267.812	47.44
268.028	53.59
268.244	0.34
268.46	57.68
268.676	16.73
268.892	135.51
269.108	10.58
269.324	45.4
269.54	-11.95
269.756	63.83
269.972	-44.71
270.188	-16.04
270.403	37.2
270.619	8.53
270.835	82.26
271.051	37.2
271.267	14.68
271.483	-11.95
271.698	84.31
271.914	45.4
272.13	-48.81
272.346	26.96
272.562	74.07
272.777	37.2
272.993	-26.28
273.209	-9.9
273.425	47.44
273.64	98.64
273.856	49.49
274.072	-26.28
274.287	-20.14
274.503	29.01
274.719	14.68
274.934	8.53
275.15	39.25
275.366	39.25
275.581	31.06
275.797	26.96
276.012	-7.85
276.228	6.49
276.444	43.35
276.659	82.26
276.875	78.16
277.09	10.58
277.306	51.54
277.521	6.49
277.737	20.82
277.952	43.35
278.168	-3.75
278.383	31.06
278.599	-13.99
278.814	22.87
279.03	-11.95
279.245	61.78
279.461	-9.9
279.676	47.44
279.892	8.53
280.107	-11.95
280.322	31.06
280.538	24.92
280.753	41.3
280.969	51.54
281.184	59.73
281.399	51.54
281.615	45.4
281.83	29.01
282.045	-5.8
282.26	47.44
282.476	20.82
282.691	10.58
282.906	41.3
283.122	61.78
283.337	-13.99
283.552	47.44
283.767	-54.95
283.983	82.26
284.198	4.44
284.413	121.17
284.628	-5.8
284.843	88.4
285.058	149.84
285.274	12.63
285.489	-20.14
285.704	20.82
285.919	51.54
286.134	22.87
286.349	35.16
286.564	74.07
286.779	55.64
286.995	-13.99
287.21	-18.09
287.425	6.49
287.64	6.49
287.855	98.64
288.07	12.63
288.285	100.69
288.5	-20.14
288.715	69.97
288.93	8.53
289.145	4.44
289.36	35.16
289.575	57.68
289.79	76.12
290.004	26.96
290.219	115.03
290.434	20.82
290.649	26.96
290.864	10.58
291.079	14.68
291.294	16.73
291.509	-24.23
291.724	12.63
291.938	16.73
292.153	37.2
292.368	74.07
292.583	74.07
292.798	-42.67
293.012	4.44
293.227	41.3
293.442	29.01
293.657	78.16
293.871	59.73
294.086	33.11
294.301	100.69
294.516	4.44
294.73	12.63
294.945	37.2
295.16	18.77
295.374	0.34
295.589	98.64
295.804	31.06
296.018	-5.8
296.233	67.92
296.447	104.79
296.662	84.31
296.877	102.74
297.091	37.2
297.306	80.21
297.52	16.73
297.735	45.4
297.949	47.44
298.164	-1.71
298.378	43.35
298.593	92.5
298.807	10.58
299.022	18.77
299.236	55.64
299.451	4.44
299.665	37.2
299.88	55.64
300.094	43.35
300.309	-3.75
300.523	-61.1
300.737	53.59
300.952	31.06
301.166	16.73
301.381	-24.23
301.595	6.49
301.809	-87.72
302.024	45.4
302.238	-32.43
302.452	63.83
302.667	12.63
302.881	0.34
303.095	-13.99
303.309	76.12
303.524	43.35
303.738	115.03
303.952	-46.76
304.166	39.25
304.381	-48.81
304.595	57.68
304.809	29.01
305.023	37.2
305.237	55.64
305.452	-11.95
305.666	37.2
305.88	-18.09
306.094	37.2
306.308	37.2
306.522	86.36
306.736	0.34
306.95	-22.19
307.164	63.83
307.379	14.68
307.593	78.16
307.807	16.73
308.021	20.82
308.235	57.68
308.449	-1.71
308.663	78.16
308.877	33.11
309.091	18.77
309.305	67.92
309.519	12.63
309.733	6.49
309.947	26.96
310.161	-52.91
310.374	155.99
310.588	76.12
310.802	0.34
311.016	14.68
311.23	26.96
311.444	-3.75
311.658	63.83
311.872	-26.28
312.085	78.16
312.299	37.2
312.513	55.64
312.727	63.83
312.941	98.64
313.154	-34.47
313.368	16.73
313.582	10.58
313.796	14.68
314.009	45.4
314.223	100.69
314.437	12.63
314.651	123.22
314.864	55.64
315.078	65.88
315.292	20.82
315.505	-1.71
315.719	90.45
315.933	39.25
316.146	14.68
316.36	26.96
316.573	82.26
316.787	43.35
317.001	63.83
317.214	-5.8
317.428	112.98
317.641	8.53
317.855	8.53
318.068	-13.99
318.282	-13.99
318.495	39.25
318.709	72.02
318.922	92.5
319.136	65.88
319.349	84.31
319.563	67.92
319.776	69.97
319.99	-13.99
320.203	53.59
320.417	12.63
320.63	26.96
320.843	145.75
321.057	45.4
321.27	-48.81
321.483	26.96
321.697	88.4
321.91	53.59
322.124	41.3
322.337	-16.04
322.55	29.01
322.763	67.92
322.977	55.64
323.19	-13.99
323.403	137.56
323.617	88.4
323.83	55.64
324.043	41.3
324.256	24.92
324.469	-5.8
324.683	110.93
324.896	22.87
325.109	59.73
325.322	-20.14
325.535	96.6
325.748	14.68
325.962	8.53
326.175	43.35
326.388	-20.14
326.601	127.32
326.814	22.87
327.027	29.01
327.24	67.92
327.453	-7.85
327.666	74.07
327.879	82.26
328.092	41.3
328.305	10.58
328.518	14.68
328.731	-20.14
328.944	43.35
329.157	55.64
329.37	-22.19
329.583	96.6
329.796	39.25
330.009	18.77
330.222	39.25
330.435	41.3
330.648	-22.19
330.861	51.54
331.073	110.93
331.286	110.93
331.499	39.25
331.712	8.53
331.925	-20.14
332.138	41.3
332.35	49.49
332.563	14.68
332.776	61.78
332.989	22.87
333.202	65.88
333.414	67.92
333.627	18.77
333.84	0.34
334.053	39.25
334.265	61.78
334.478	29.01
334.691	26.96
334.903	78.16
335.116	43.35
335.329	55.64
335.541	65.88
335.754	45.4
335.966	39.25
336.179	14.68
336.392	84.31
336.604	49.49
336.817	88.4
337.029	24.92
337.242	-22.19
337.454	61.78
337.667	63.83
337.88	84.31
338.092	31.06
338.305	49.49
338.517	39.25
338.729	102.74
338.942	102.74
339.154	29.01
339.367	41.3
339.579	16.73
339.792	82.26
340.004	26.96
340.217	-1.71
340.429	45.4
340.641	76.12
340.854	22.87
341.066	-24.23
341.278	72.02
341.491	55.64
341.703	127.32
341.915	-18.09
342.128	133.46
342.34	-20.14
342.552	72.02
342.764	-16.04
342.977	57.68
343.189	55.64
343.401	76.12
343.613	-28.33
343.826	88.4
344.038	-26.28
344.25	84.31
344.462	-26.28
344.674	59.73
344.886	84.31
345.099	65.88
345.311	47.44
345.523	86.36
345.735	-20.14
345.947	18.77
346.159	14.68
346.371	39.25
346.583	53.59
346.795	67.92
347.007	0.34
347.219	35.16
347.431	12.63
347.643	12.63
347.855	12.63
348.067	35.16
348.279	24.92
348.491	45.4
348.703	65.88
348.915	-1.71
349.127	4.44
349.339	24.92
349.551	-11.95
349.763	47.44
349.975	55.64
350.187	69.97
350.399	12.63
350.61	112.98
350.822	43.35
351.034	102.74
351.246	65.88
351.458	20.82
351.669	18.77
351.881	96.6
352.093	82.26
352.305	84.31
352.517	59.73
352.728	26.96
352.94	72.02
353.152	84.31
353.363	-22.19
353.575	88.4
353.787	67.92
353.999	80.21
354.21	143.7
354.422	20.82
354.633	82.26
354.845	-18.09
355.057	78.16
355.268	69.97
355.48	49.49
355.692	2.39
355.903	82.26
356.115	-13.99
356.326	-20.14
356.538	86.36
356.749	82.26
356.961	115.03
357.172	12.63
357.384	31.06
357.595	151.89
357.807	-24.23
358.018	-24.23
358.23	-1.71
358.441	129.36
358.653	86.36
358.864	12.63
359.075	8.53
359.287	53.59
359.498	4.44
359.709	59.73
359.921	31.06
360.132	74.07
360.344	104.79
360.555	45.4
360.766	108.88
360.977	51.54
361.189	37.2
361.4	24.92
361.611	67.92
361.823	67.92
362.034	102.74
362.245	20.82
362.456	4.44
362.667	57.68
362.879	-26.28
363.09	43.35
363.301	41.3
363.512	43.35
363.723	24.92
363.935	74.07
364.146	108.88
364.357	78.16
364.568	102.74
364.779	22.87
364.99	78.16
365.201	-24.23
365.412	137.56
365.623	-44.71
365.834	6.49
366.045	78.16
366.256	125.27
366.467	39.25
366.678	29.01
366.889	119.12
367.1	-52.91
367.311	41.3
367.522	14.68
367.733	78.16
367.944	123.22
368.155	24.92
368.366	82.26
368.577	67.92
368.788	80.21
368.999	115.03
369.209	12.63
369.42	153.94
369.631	131.41
369.842	35.16
370.053	-38.57
370.264	106.84
370.474	-30.38
370.685	0.34
370.896	35.16
371.107	43.35
371.317	65.88
371.528	112.98
371.739	141.65
371.95	65.88
372.16	80.21
372.371	29.01
372.582	22.87
372.792	69.97
373.003	55.64
373.214	8.53
373.424	20.82
373.635	24.92
373.846	45.4
374.056	-3.75
374.267	33.11
374.477	49.49
374.688	-1.71
374.898	-13.99
375.109	131.41
375.319	31.06
375.53	45.4
375.74	86.36
375.951	86.36
376.161	26.96
376.372	94.55
376.582	16.73
376.793	43.35
377.003	41.3
377.214	59.73
377.424	51.54
377.635	155.99
377.845	123.22
378.055	102.74
378.266	18.77
378.476	61.78
378.686	57.68
378.897	51.54
379.107	41.3
379.317	135.51
379.528	47.44
379.738	51.54
379.948	22.87
380.158	98.64
380.369	72.02
380.579	104.79
380.789	31.06
380.999	106.84
381.21	47.44
381.42	92.5
381.63	86.36
381.84	49.49
382.05	76.12
382.261	80.21
382.471	-13.99
382.681	51.54
382.891	86.36
383.101	74.07
383.311	41.3
383.521	57.68
383.731	117.08
383.941	86.36
384.151	45.4
384.361	67.92
384.571	24.92
384.781	67.92
384.991	67.92
385.201	112.98
385.411	33.11
385.621	67.92
385.831	59.73
386.041	53.59
386.251	61.78
386.461	98.64
386.671	55.64
386.881	74.07
387.091	76.12
387.301	45.4
387.511	59.73
387.72	72.02
387.93	96.6
388.14	51.54
388.35	86.36
388.56	94.55
388.769	135.51
388.979	96.6
389.189	37.2
389.399	100.69
389.609	59.73
389.818	55.64
390.028	59.73
390.238	72.02
390.447	51.54
390.657	61.78
390.867	67.92
391.076	10.58
391.286	41.3
391.496	61.78
391.705	106.84
391.915	115.03
392.125	172.37
392.334	96.6
392.544	82.26
392.753	74.07
392.963	76.12
393.172	86.36
393.382	63.83
393.591	94.55
393.801	16.73
394.01	104.79
394.22	121.17
394.429	86.36
394.639	41.3
394.848	63.83
395.058	131.41
395.267	102.74
395.477	104.79
395.686	20.82
395.895	131.41
396.105	184.66
396.314	115.03
396.524	69.97
396.733	125.27
396.942	119.12
397.152	12.63
397.361	80.21
397.57	125.27
397.78	63.83
397.989	94.55
398.198	160.08
398.407	94.55
398.617	102.74
398.826	151.89
399.035	45.4
399.244	20.82
399.453	125.27
399.663	110.93
399.872	74.07
400.081	20.82
400.29	143.7
400.499	55.64
400.708	108.88
400.917	121.17
401.127	135.51
401.336	125.27
401.545	149.84
401.754	98.64
401.963	112.98
402.172	131.41
402.381	37.2
402.59	160.08
402.799	129.36
403.008	225.62
403.217	117.08
403.426	194.9
403.635	155.99
403.844	153.94
404.053	151.89
404.262	131.41
404.471	205.14
404.68	164.18
404.888	198.99
405.097	22.87
405.306	170.32
405.515	129.36
405.724	125.27
405.933	139.6
406.142	213.33
406.35	172.37
406.559	213.33
406.768	137.56
406.977	201.04
407.185	215.38
407.394	235.86
407.603	201.04
407.812	248.15
408.02	229.71
408.229	250.19
408.438	244.05
408.646	272.72
408.855	233.81
409.064	278.87
409.272	344.4
409.481	289.1
409.69	303.44
409.898	299.34
410.107	293.2
410.315	362.83
410.524	342.35
410.733	336.21
410.941	375.12
411.15	328.02
411.358	430.41
411.567	457.04
411.775	315.73
411.984	508.24
412.192	485.71
412.401	430.41
412.609	512.33
412.818	561.48
413.026	577.87
413.234	545.1
413.443	565.58
413.651	594.25
413.86	616.78
414.068	614.73
414.276	770.38
414.485	727.37
414.693	772.43
414.901	692.55
415.11	829.77
415.318	731.47
415.526	829.77
415.734	885.06
415.943	903.5
416.151	966.98
416.359	932.17
416.567	944.45
416.776	1085.76
416.984	1044.81
417.192	1102.15
417.4	1016.13
417.608	1077.57
417.817	1065.29
418.025	1298.75
418.233	1315.14
418.441	1247.55
418.649	1347.9
418.857	1405.25
419.065	1548.61
419.273	1403.2
419.481	1429.82
419.689	1487.17
419.897	1620.28
420.105	1648.96
420.313	1696.06
420.521	1798.46
420.729	1892.66
420.937	1855.8
421.145	1982.78
421.353	2001.21
421.561	2062.65
421.769	2218.29
421.977	2171.19
422.185	2265.39
422.393	2373.94
422.601	2574.64
422.809	2545.97
423.017	2470.19
423.224	2595.12
423.432	2672.94
423.64	2902.31
423.848	3017
424.056	2951.46
424.263	3227.94
424.471	3074.34
424.679	3277.09
424.887	3434.78
425.094	3588.38
425.302	3578.14
425.51	3637.53
425.718	3793.18
425.925	3692.83
426.133	3979.54
426.341	4163.86
426.548	4364.56
426.756	4301.08
426.964	4516.11
427.171	4733.2
427.379	4804.88
427.586	4772.11
427.794	4917.51
428.001	5265.67
428.209	5292.29
428.417	5425.41
428.624	5646.59
428.832	5716.22
429.039	5695.74
429.247	5658.88
429.454	6146.3
429.662	6662.38
429.869	6207.73
430.076	6738.16
430.284	6557.94
430.491	6705.39
430.699	7364.84
430.906	7291.11
431.114	7155.94
431.321	7520.48
431.528	7590.11
431.736	8167.64
431.943	8470.74
432.15	8347.86
432.358	8419.54
432.565	8876.24
432.772	8747.22
432.979	9152.71
433.187	9459.91
433.394	9566.4
433.601	9967.81
433.808	10111.16
434.016	10133.69
434.223	10592.44
434.43	11215.02
434.637	10836.14
434.844	11663.52
435.052	11966.62
435.259	11718.82
435.466	11915.42
435.673	11794.59
435.88	12679.32
436.087	13162.64
436.294	13240.46
436.501	12693.65
436.708	13250.7
436.915	13658.24
437.122	14454.9
437.329	14090.37
437.537	14469.24
437.743	14772.34
437.95	14852.21
438.157	15442.03
438.364	16158.81
438.571	15974.5
438.778	16113.76
438.985	17610.82
439.192	16965.71
439.399	17453.13
439.606	16975.95
439.813	17872.96
440.02	19066.93
440.227	18950.2
440.433	18610.23
440.64	19208.24
440.847	18882.61
441.054	19404.85
441.261	21041.17
441.467	20484.12
441.674	21186.58
441.881	21979.14
442.088	21630.99
442.294	21565.45
442.501	22093.83
442.708	22853.62
442.914	23193.59
443.121	24500.19
443.328	23517.17
443.534	25243.6
443.741	25108.44
443.948	24307.68
444.154	26236.87
444.361	26101.7
444.568	26458.05
444.774	26152.9
444.981	26351.56
445.187	27094.97
445.394	28489.63
445.6	28413.86
445.807	30898.05
446.013	29468.56
446.22	30093.19
446.426	31356.79
446.633	31321.98
446.839	32479.08
447.046	31242.1
447.252	32939.87
447.459	33138.52
447.665	32909.15
447.871	34373.45
448.078	35751.73
448.284	34195.28
448.491	35211.07
448.697	36450.09
448.903	36708.13
449.11	37209.89
449.316	36532.01
449.522	37435.16
449.728	38139.66
449.935	38489.87
450.141	38618.89
450.347	39239.42
450.553	38082.32
450.76	38512.39
450.966	39919.35
451.172	39421.69
451.378	40169.2
451.584	39851.77
451.791	40543.98
451.997	40404.72
452.203	41070.31
452.409	41258.72
452.615	40869.61
452.821	39532.28
453.027	39079.68
453.233	41051.87
453.44	39694.07
453.646	40013.55
453.852	39964.4
454.058	40634.09
454.264	39481.08
454.47	40554.22
454.676	39421.69
454.882	40943.33
455.088	37000.99
455.294	37742.36
455.5	38407.95
455.705	39020.29
455.911	37365.53
456.117	36745
456.323	36001.58
456.529	34131.79
456.735	35557.17
456.941	35055.42
457.147	34092.88
457.352	33019.74
457.558	32757.6
457.764	32943.97
457.97	32044.91
458.176	31516.53
458.381	31565.68
458.587	29888.4
458.793	30031.76
458.999	28776.35
459.204	30388.1
459.41	29855.63
459.616	27590.58
459.821	27662.26
460.027	27869.1
460.233	27070.39
460.438	25941.96
460.644	25878.47
460.85	24676.32
461.055	24479.71
461.261	24432.61
461.466	22358.02
461.672	22124.55
461.878	23468.02
462.083	22005.77
462.289	21479.44
462.494	21051.41
462.7	20396.06
462.905	19675.18
463.111	20613.15
463.316	20707.35
463.522	20039.72
463.727	20203.55
463.932	20279.33
464.138	19763.24
464.343	20054.05
464.549	19390.51
464.754	19927.08
464.959	19705.9
465.165	19576.87
465.37	18835.51
465.575	18311.23
465.781	18987.06
465.986	19247.15
466.191	18554.94
466.397	18085.95
466.602	17215.57
466.807	17928.26
467.012	17930.31
467.218	17883.2
467.423	17760.33
467.628	17797.19
467.833	18579.51
468.038	17688.65
468.244	17356.88
468.449	18155.58
468.654	17209.42
468.859	17180.75
469.064	17113.17
469.269	16633.94
469.474	16828.5
469.679	16982.1
469.885	16543.83
470.09	16812.12
470.295	16615.51
470.5	16283.74
470.705	16547.93
470.91	15878.24
471.115	15771.75
471.32	16150.62
471.525	15818.85
471.73	15577.19
471.935	15612.01
472.139	15155.31
472.344	15069.3
472.549	14995.57
472.754	14938.23
472.959	14723.19
473.164	14418.04
473.369	14151.81
473.574	14628.98
473.778	14508.15
473.983	14522.49
474.188	14209.15
474.393	13398.15
474.598	13320.33
474.802	13623.43
475.007	13555.85
475.212	13443.21
475.417	12738.71
475.621	13076.62
475.826	13015.18
476.031	12728.47
476.235	12497.05
476.44	12669.08
476.645	12495
476.849	12480.66
477.054	12388.5
477.259	12085.4
477.463	12091.55
477.668	11849.89
477.872	11989.15
478.077	11911.33
478.282	11524.26
478.486	11298.98
478.691	11430.05
478.895	11485.35
479.1	11401.38
479.304	11292.84
479.509	10950.83
479.713	11129
479.918	10916.01
480.122	10709.17
480.326	10881.2
480.531	10668.21
480.735	10830
480.94	10580.15
481.144	11042.99
481.348	10473.65
481.553	10643.63
481.757	10369.21
481.961	10563.76
482.166	10549.43
482.37	10483.89
482.574	10344.63
482.778	10313.91
482.983	10680.5
483.187	10301.62
483.391	10512.56
483.595	10350.78
483.8	10410.17
484.004	10449.08
484.208	10363.06
484.412	10481.85
484.616	10524.85
484.821	10528.95
485.025	10166.46
485.229	10404.02
485.433	10463.41
485.637	10307.77
485.841	10379.45
486.045	10369.21
486.249	10506.42
486.453	10299.58
486.657	10375.35
486.861	10598.58
487.065	10029.24
487.269	10365.11
487.473	10365.11
487.677	10543.28
487.881	10547.38
488.085	10227.9
488.289	10422.45
488.493	10275
488.697	10463.41
488.901	10520.76
489.105	10463.41
489.309	10379.45
489.512	10516.66
489.716	10541.24
489.92	10397.88
490.124	10309.82
490.328	10670.26
490.531	10436.79
490.735	10559.67
490.939	10729.65
491.143	10522.8
491.346	10633.4
491.55	10811.57
491.754	10776.75
491.958	10713.27
492.161	10801.33
492.365	10864.82
492.569	10903.73
492.772	11057.32
492.976	11057.32
493.18	10944.69
493.383	11417.77
493.587	11210.92
493.79	11397.29
493.994	11057.32
494.197	11298.98
494.401	11473.06
494.605	11368.62
494.808	11620.52
495.012	11491.49
495.215	11819.17
495.419	11813.03
495.622	11638.95
495.825	11997.34
496.029	11958.43
496.232	12322.97
496.436	12177.56
496.639	12544.15
496.843	12441.75
497.046	12763.28
497.249	12703.89
497.453	12677.27
497.656	12941.46
497.859	12824.72
498.063	12984.46
498.266	13525.13
498.469	13404.3
498.673	13592.71
498.876	13801.6
499.079	13881.47
499.282	13674.63
499.485	14035.07
499.689	13996.16
499.892	14223.48
500.095	14344.31
500.298	14784.63
500.501	14774.39
500.705	14962.8
500.908	15065.2
501.111	15194.22
501.314	15657.06
501.517	15753.32
501.72	15665.25
501.923	15886.43
502.126	16031.84
502.329	16136.29
502.532	16406.62
502.735	16752.73
502.938	16693.33
503.141	16906.32
503.344	17193.04
503.547	17141.84
503.75	17580.11
503.953	17791.05
504.156	17823.81
504.359	18049.09
504.562	17881.16
504.765	18387
504.968	18612.28
505.17	18636.86
505.373	18935.86
505.576	19236.91
505.779	19187.76
505.982	19367.98
506.185	19759.14
506.387	19638.31
506.59	20131.87
506.793	20492.32
506.996	20172.83
507.198	20930.58
507.401	20762.65
507.604	20860.95
507.807	21348.37
508.009	21587.98
508.212	21493.77
508.415	21940.23
508.617	22071.3
508.82	22265.86
509.022	22341.63
509.225	22749.18
509.428	23085.05
509.63	23222.26
509.833	23441.39
510.035	23871.47
510.238	23500.78
510.44	23871.47
510.643	23850.99
510.845	24053.73
511.048	24356.83
511.25	24846.3
511.453	25190.36
511.655	26087.37
511.858	25907.15
512.06	25612.24
512.262	25825.23
512.465	26195.91
512.667	26517.44
512.87	26824.64
513.072	26417.09
513.274	27084.73
513.477	27082.68
513.679	27385.78
513.881	27697.07
514.084	28112.81
514.286	28223.4
514.488	28327.85
514.69	29087.64
514.893	29009.82
515.095	28872.6
515.297	29247.38
515.499	29544.34
515.701	29831.05
515.904	30289.8
516.106	30259.08
516.308	30543.75
516.51	30637.95
516.712	30994.3
516.914	31203.19
517.116	31663.99
517.318	31764.34
517.52	31987.57
517.722	32305
517.925	32227.18
518.127	32827.23
518.329	33343.32
518.531	32642.92
518.733	33972.05
518.935	33898.32
519.136	34037.58
519.338	34086.73
519.54	34094.93
519.742	34514.76
519.944	34842.43
520.146	35170.11
520.348	35667.77
520.55	35415.86
520.752	35292.99
520.954	36628.26
521.155	36110.13
521.357	36572.97
521.559	36800.29
521.761	37359.39
521.963	37156.64
522.164	37588.76
522.366	37431.07
522.568	37871.38
522.77	38012.69
522.971	38731.53
523.173	37967.63
523.375	38711.05
523.576	38651.66
523.778	38858.5
523.98	39370.49
524.181	39208.7
524.383	39132.93
524.584	39644.92
524.786	39700.22
524.988	39798.52
525.189	40335.09
525.391	40269.55
525.592	40681.19
525.794	40494.83
525.995	40939.24
526.197	40662.76
526.398	40767.21
526.6	41236.19
526.801	41643.74
527.003	41352.93
527.204	40931.04
527.406	41610.97
527.607	41567.96
527.808	42149.59
528.01	41293.54
528.211	41778.9
528.412	42653.39
528.614	42282.7
528.815	42245.84
529.016	42585.8
529.218	42208.98
529.419	42821.32
529.62	42692.3
529.822	42331.86
530.023	42225.36
530.224	42479.31
530.425	42596.04
530.626	42493.64
530.828	42792.65
531.029	43503.29
531.23	43206.34
531.431	42931.91
531.632	43013.83
531.833	43028.16
532.035	42989.25
532.236	43208.39
532.437	43269.83
532.638	42929.86
532.839	43222.72
533.04	43525.82
533.241	42981.06
533.442	44134.07
533.643	43218.63
533.844	43050.69
534.045	43564.73
534.246	43136.71
534.447	43620.03
534.648	43159.23
534.849	43759.29
535.05	43019.97
535.251	43159.23
535.451	43384.51
535.652	43505.34
535.853	43720.38
536.054	43341.5
536.255	43476.67
536.456	43411.13
536.657	43796.15
536.857	43175.62
537.058	43241.15
537.259	43265.73
537.46	43605.69
537.66	43095.75
537.861	43441.85
538.062	43187.91
538.263	43409.09
538.463	43476.67
538.664	43495.1
538.865	43472.57
539.065	43579.07
539.266	43247.3
539.466	43536.06
539.667	42704.59
539.868	43869.88
540.068	43065.03
540.269	43048.64
540.469	43327.17
540.67	42680.01
540.87	43302.59
541.071	43198.15
541.271	43130.56
541.472	43462.33
541.672	42653.39
541.873	42893
542.073	42376.91
542.274	43216.58
542.474	42880.71
542.675	42749.64
542.875	43384.51
543.075	43095.75
543.276	42585.8
543.476	43482.81
543.676	42929.86
543.877	43357.89
544.077	42837.7
544.277	42831.56
544.478	42979.01
544.678	43298.5
544.878	43024.07
545.078	42940.1
545.279	42835.66
545.479	42782.41
545.679	42798.79
545.879	43062.98
546.079	42723.02
546.28	43030.21
546.48	42393.29
546.68	42968.77
546.88	42643.15
547.08	42880.71
547.28	42788.55
547.48	42346.19
547.68	42428.11
547.88	42315.47
548.081	42727.11
548.281	42946.25
548.481	42614.48
548.681	42804.94
548.881	42430.16
549.081	42677.96
549.28	42178.26
549.48	42809.03
549.68	42342.1
549.88	43183.81
550.08	42192.59
550.28	42481.36
550.48	42667.72
550.68	42821.32
550.88	42182.35
551.08	42331.86
551.279	42626.76
551.479	42063.57
551.679	42317.52
551.879	42401.49
552.079	42446.54
552.278	42086.1
552.478	42575.56
552.678	42491.6
552.878	42563.28
553.077	42184.4
553.277	41705.18
553.477	42436.3
553.676	41879.25
553.876	42149.59
554.076	41776.86
554.275	42233.55
554.475	41635.55
554.674	41860.82
554.874	41877.21
555.074	41961.17
555.273	41795.29
555.473	42389.2
555.672	41709.27
555.872	41766.62
556.071	41901.78
556.271	42153.68
556.47	42049.24
556.67	41512.67
556.869	41823.96
557.068	41981.65
557.268	41600.73
557.467	41932.5
557.667	41184.99
557.866	41602.78
558.065	41656.03
558.265	41189.09
558.464	41494.24
558.663	41572.06
558.863	41135.84
559.062	41404.13
559.261	40615.66
559.461	41258.72
559.66	40924.9
559.859	41070.31
560.058	40632.04
560.258	40677.1
560.457	40580.84
560.656	41002.72
560.855	40490.73
561.054	40957.67
561.253	40476.4
561.453	40472.3
561.652	40748.78
561.851	40830.69
562.05	40173.3
562.249	40273.65
562.448	40660.71
562.647	40539.88
562.846	39874.29
563.045	40490.73
563.244	40120.05
563.443	40361.71
563.642	40060.66
563.841	40034.03
564.04	40398.57
564.239	40511.21
564.438	39683.83
564.637	39964.4
564.836	39847.67
565.035	39405.31
565.234	39902.96
565.432	39595.77
565.631	39161.6
565.83	39804.66
566.029	39341.82
566.228	39540.47
566.427	39479.03
566.625	39284.48
566.824	39030.53
567.023	39362.3
567.222	38491.91
567.42	39403.26
567.619	38876.93
567.818	38936.32
568.016	39030.53
568.215	38881.03
568.414	38899.46
568.612	38633.22
568.811	38610.7
569.01	38747.91
569.208	38250.25
569.407	38432.52
569.605	37998.35
569.804	38989.57
570.002	38311.69
570.201	38565.64
570.4	38154
570.598	38119.18
570.797	37494.55
570.995	37682.97
571.193	37592.86
571.392	37941.01
571.59	37742.36
571.789	37404.44
571.987	37304.09
572.186	37236.51
572.384	37162.78
572.582	37355.29
572.781	37213.98
572.979	36636.45
573.177	36943.65
573.376	37041.95
573.574	36947.75
573.772	37457.69
573.971	36562.73
574.169	36812.58
574.367	36720.42
574.565	36898.59
574.763	36570.92
574.962	36359.98
575.16	36114.22
575.358	36511.53
575.556	36063.02
575.754	36359.98
575.952	36177.71
576.151	36785.96
576.349	35890.99
576.547	35688.24
576.745	35847.99
576.943	35931.95
577.141	35499.83
577.339	35618.61
577.537	35360.57
577.735	35630.9
577.933	34852.67
578.131	35110.72
578.329	35118.91
578.527	34639.68
578.725	35086.14
578.923	35422.01
579.121	34654.02
579.319	34928.45
579.516	34797.38
579.714	34850.63
579.912	34281.29
580.11	34629.44
580.308	34670.4
580.506	34815.81
580.704	33875.79
580.901	34193.23
581.099	34176.84
581.297	33890.13
581.495	34023.25
581.692	34123.6
581.89	33482.58
582.088	33943.38
582.285	33460.05
582.483	33892.18
582.681	33525.59
582.878	33283.93
583.076	33226.59
583.274	33386.33
583.471	33230.68
583.669	33138.52
583.866	32884.58
584.064	33011.55
584.262	32599.91
584.459	33019.74
584.657	32710.5
584.854	32915.3
585.052	32372.58
585.249	32452.45
585.447	32669.54
585.644	32216.94
585.841	32216.94
586.039	32280.42
586.236	31639.41
586.434	32094.06
586.631	31780.72
586.828	31840.11
587.026	31936.37
587.223	31825.78
587.42	31514.48
587.618	31442.81
587.815	31373.17
588.012	31502.2
588.21	31203.19
588.407	31401.85
588.604	31264.63
588.801	31207.29
588.999	30789.5
589.196	31100.79
589.393	31266.68
589.59	31227.77
589.787	30726.02
589.984	30517.12
590.182	30283.66
590.379	30431.11
590.576	30173.06
590.773	30316.42
590.97	30351.24
591.167	30357.38
591.364	29958.03
591.561	29808.53
591.758	29620.11
591.955	29601.68
592.152	29769.62
592.349	29624.21
592.546	29417.36
592.743	29521.81
592.94	29110.17
593.137	29329.3
593.334	29679.5
593.531	28970.91
593.727	28960.67
593.924	28944.28
594.121	28753.82
594.318	28782.49
594.515	28489.63
594.712	28876.7
594.908	28622.75
595.105	28919.71
595.302	28354.47
595.499	28391.33
595.696	28385.19
595.892	28057.51
596.089	28116.9
596.286	28331.94
596.482	28168.1
596.679	27666.35
596.876	28075.94
597.072	27582.38
597.269	27756.46
597.466	27504.56
597.662	27254.71
597.859	27836.33
598.055	27498.42
598.252	27516.85
598.448	27174.84
598.645	26832.83
598.841	26941.37
599.038	27185.08
599.234	27164.6
599.431	26798.01
599.627	26453.95
599.824	26775.48
600.02	26480.58
600.217	26613.7
600.413	26439.62
600.609	26345.41
600.806	26625.98
601.002	26175.43
601.198	26259.4
601.395	26036.17
601.591	25829.32
601.787	25948.11
601.984	26056.65
602.18	26189.77
602.376	25829.32
602.572	25579.47
602.769	25892.81
602.965	25286.61
603.161	25358.29
603.357	25083.86
603.553	25270.23
603.75	25354.19
603.946	25239.51
604.142	25235.41
604.338	24721.37
604.534	24637.41
604.73	24627.17
604.926	24807.39
605.122	24537.05
605.318	24532.96
605.514	24375.27
605.71	24338.4
605.906	24199.14
606.102	24360.93
606.298	24381.41
606.494	24225.76
606.69	24326.11
606.886	24190.95
607.082	24104.93
607.278	23990.25
607.474	23533.55
607.67	23943.14
607.866	23537.65
608.062	23881.7
608.257	23586.8
608.453	23803.88
608.649	23828.46
608.845	23531.5
609.041	23496.69
609.236	23705.58
609.432	23377.9
609.628	23422.96
609.824	23562.22
610.019	23293.94
610.215	23283.7
610.411	23310.32
610.606	23214.07
610.802	23095.28
610.998	23349.23
611.193	23226.35
611.389	22863.86
611.584	22788.09
611.78	22544.38
611.976	23052.28
612.171	22964.21
612.367	22884.34
612.562	22450.17
612.758	22675.45
612.953	22327.3
613.149	22593.53
613.344	22413.31
613.539	22892.54
613.735	22577.15
613.93	22454.27
614.126	22403.07
614.321	22865.91
614.517	22630.4
614.712	22452.22
614.907	22267.91
615.103	21901.32
615.298	22224.9
615.493	22423.55
615.688	21964.81
615.884	22364.16
616.079	22351.87
616.274	22005.77
616.47	22386.69
616.665	21852.17
616.86	21962.76
617.055	21997.57
617.25	21729.29
617.445	21870.6
617.641	21508.11
617.836	21530.64
618.031	21129.23
618.226	21344.27
618.421	21411.85
618.616	21407.76
618.811	21219.35
619.006	21508.11
619.201	20949.01
619.396	21276.69
619.591	20799.51
619.786	20807.7
619.981	20564
620.176	20865.05
620.371	20396.06
620.566	20838.42
620.761	20252.7
620.956	20322.34
621.151	20056.1
621.346	20244.51
621.541	19886.12
621.735	20148.26
621.93	19755.05
622.125	20054.05
622.32	19523.63
622.515	19673.13
622.709	19773.48
622.904	19519.53
623.099	19425.32
623.294	19587.11
623.488	19232.82
623.683	19187.76
623.878	18833.46
624.072	19013.68
624.267	19007.54
624.462	18794.55
624.656	18522.17
624.851	18665.53
625.046	18501.69
625.24	18163.78
625.435	18341.95
625.629	18200.64
625.824	17993.79
626.018	17862.72
626.213	17580.11
626.407	17891.4
626.602	17432.65
626.796	17557.58
626.991	17463.37
627.185	17367.12
627.38	17467.47
627.574	17242.19
627.768	17166.42
627.963	17023.06
628.157	16728.15
628.352	16894.04
628.546	16713.81
628.74	16627.8
628.935	16449.63
629.129	16408.67
629.323	16339.04
629.517	16425.05
629.712	16443.48
629.906	16179.29
630.1	15974.5
630.294	16064.61
630.489	15642.73
630.683	16023.65
630.877	15745.13
631.071	15552.62
631.265	15431.79
631.459	15612.01
631.653	15423.59
631.848	15276.14
632.042	15544.42
632.236	15341.68
632.43	15005.81
632.624	14923.89
632.818	14950.51
633.012	14741.62
633.206	14710.9
633.4	14717.04
633.594	14557.3
633.788	14465.14
633.982	14594.17
634.176	14432.38
634.369	14540.92
634.563	14299.26
634.757	14053.5
634.951	14243.96
635.145	14069.89
635.339	13826.18
635.533	14026.88
635.726	14162.05
635.92	13899.91
636.114	13990.02
636.308	13619.33
636.501	13787.27
636.695	13750.4
636.889	13322.38
637.083	13340.81
637.276	13490.31
637.47	13344.91
637.664	13254.8
637.857	13060.24
638.051	13146.25
638.244	13054.09
638.438	13004.94
638.632	12908.69
638.825	12910.74
639.019	12822.67
639.212	12609.68
639.406	12679.32
639.599	12406.94
639.793	12566.68
639.986	12507.29
640.18	12492.95
640.373	12544.15
640.567	12101.79
640.76	11952.29
640.954	12007.58
641.147	11886.75
641.34	11858.08
641.534	11923.62
641.727	11972.77
641.92	11739.3
642.114	11741.35
642.307	11731.11
642.5	11638.95
642.694	11327.66
642.887	11557.03
643.08	11323.56
643.273	11323.56
643.467	11559.08
643.66	11204.78
643.853	11350.18
644.046	11081.9
644.239	10895.54
644.432	11116.72
644.626	10928.3
644.819	10946.73
645.012	10678.45
645.205	10756.27
645.398	10662.07
645.591	10731.7
645.784	10707.12
645.977	10533.04
646.17	10506.42
646.363	10152.12
646.556	10438.84
646.749	10504.37
646.942	10250.42
647.135	10211.51
647.328	10258.62
647.521	10272.95
647.714	10125.5
647.907	10033.34
648.099	9894.08
648.292	9887.93
648.485	9976
648.678	9656.51
648.871	9832.64
649.064	9517.25
649.256	9951.42
649.449	9574.6
649.642	9607.36
649.835	9543.88
650.027	9586.88
650.22	9429.19
650.413	9433.29
650.605	9375.94
650.798	9332.93
650.991	9275.59
651.183	9119.95
651.376	9038.03
651.568	9228.49
651.761	8892.62
651.954	9005.26
652.146	9035.98
652.339	9015.5
652.531	9035.98
652.724	8704.21
652.916	8597.71
653.109	8628.43
653.301	8712.4
653.494	8732.88
653.686	8616.15
653.879	8698.06
654.071	8669.39
654.263	8435.92
654.456	8607.95
654.648	8552.66
654.84	8319.19
655.033	8124.63
655.225	8241.37
655.417	8093.91
655.61	8235.22
655.802	8333.53
655.994	8036.57
656.186	8204.5
656.379	8110.3
656.571	8061.15
656.763	8009.95
656.955	7844.06
657.148	7796.96
657.34	7944.41
657.532	7651.55
657.724	7778.53
657.916	7823.58
658.108	7567.59
658.3	7614.69
658.492	7614.69
658.684	7696.61
658.876	7487.72
659.068	7547.11
659.26	7350.5
659.452	7465.19
659.644	7395.56
659.836	7213.29
660.028	7407.84
660.22	7317.73
660.412	7391.46
660.604	7196.9
660.796	7166.18
660.988	7194.86
661.18	7137.51
661.372	7201
661.563	6938.86
661.755	6955.24
661.947	7063.79
662.139	7000.3
662.331	6811.89
662.522	6762.73
662.714	6820.08
662.906	6686.96
663.097	6639.86
663.289	6605.04
663.481	6588.66
663.673	6621.42
663.864	6541.55
664.056	6486.26
664.247	6635.76
664.439	6433.01
664.631	6566.13
664.822	6344.95
665.014	6375.67
665.205	6390
665.397	6365.43
665.588	6344.95
665.78	6332.66
665.971	6228.21
666.163	6357.24
666.354	6246.65
666.546	6021.37
666.737	6217.97
666.929	5970.17
667.12	6181.11
667.311	6187.25
667.503	5990.65
667.694	5980.41
667.885	5894.4
668.077	6195.45
668.268	5869.82
668.459	5853.44
668.651	5662.97
668.842	5841.15
669.033	5722.37
669.224	5837.05
669.416	5730.56
669.607	5763.33
669.798	5542.14
669.989	5701.89
670.18	5511.43
670.371	5421.31
670.563	5574.91
670.754	5468.42
670.945	5533.95
671.136	5710.08
671.327	5513.47
671.518	5331.2
671.709	5607.68
671.9	5466.37
672.091	5423.36
672.282	5323.01
672.473	5351.68
672.664	5419.27
672.855	5277.96
673.046	5333.25
673.237	5519.62
673.428	5237
673.619	5091.59
673.809	5169.41
674	5265.67
674.191	5187.85
674.382	5218.57
674.573	5185.8
674.764	5148.93
674.954	5144.84
675.145	5230.85
675.336	5064.97
675.527	5017.86
675.717	5056.78
675.908	4952.33
676.099	4944.14
676.289	4991.24
676.48	5056.78
676.671	4768.01
676.861	4847.88
677.052	4985.1
677.243	4874.51
677.433	4651.28
677.624	4847.88
677.814	4796.68
678.005	4763.92
678.195	4962.57
678.386	4843.79
678.576	4806.92
678.767	4804.88
678.957	4763.92
679.148	4866.32
679.338	4804.88
679.529	4774.16
679.719	4727.05
679.909	4616.46
680.1	4751.63
680.29	4653.33
680.481	4661.52
680.671	4634.89
680.861	4595.98
681.052	4591.89
681.242	4460.82
681.432	4645.13
681.622	4552.98
681.813	4516.11
682.003	4462.87
682.193	4495.63
682.383	4469.01
682.573	4528.4
682.764	4466.96
682.954	4501.78
683.144	4409.62
683.334	4471.06
683.524	4446.48
683.714	4434.19
683.904	4452.63
684.094	4376.85
684.284	4555.02
684.474	4387.09
684.664	4423.95
684.854	4366.61
685.044	4352.27
685.234	4323.6
685.424	4299.03
685.614	4342.04
685.804	4362.51
685.994	4231.44
686.184	4348.18
686.374	4239.64
686.564	4266.26
686.753	4301.08
686.943	4278.55
687.133	4092.18
687.323	4090.13
687.513	4004.12
687.702	4102.42
687.892	3938.59
688.082	4051.22
688.272	4161.81
688.461	4114.71
688.651	4073.75
688.841	3950.87
689.03	3928.35
689.22	4016.41
689.41	3975.45
689.599	3930.39
689.789	3918.11
689.979	3741.98
690.168	3975.45
690.358	3834.14
690.547	3784.99
690.737	3854.62
690.926	3725.6
691.116	3729.69
691.305	3797.28
691.495	3701.02
691.684	3793.18
691.874	3744.03
692.063	3639.58
692.252	3729.69
692.442	3600.67
692.631	3535.14
692.82	3500.32
693.01	3549.47
693.199	3567.9
693.388	3338.53
693.578	3430.69
693.767	3565.85
693.956	3498.27
694.146	3416.35
694.335	3477.79
694.524	3377.44
694.713	3504.42
694.902	3406.11
695.092	3359.01
695.281	3322.15
695.47	3385.63
695.659	3352.87
695.848	3342.63
696.037	3352.87
696.226	3377.44
696.415	3252.52
696.604	3305.76
696.793	3189.03
696.982	3236.13
697.171	3324.19
697.36	3367.2
697.549	3232.04
697.738	3379.49
697.927	3111.21
698.116	3334.43
698.305	3119.4
698.494	3191.08
698.683	3060.01
698.872	3137.83
699.061	3115.3
699.25	3209.51
699.438	3115.3
699.627	2988.33
699.816	3158.31
700.005	3092.77
700.193	2953.51
700.382	3141.93
700.571	3035.43
700.76	3062.05
700.948	3049.77
701.137	3088.68
701.326	3021.1
701.514	2920.74
701.703	3004.71
701.892	3035.43
702.08	3027.24
702.269	2939.18
702.457	2951.46
702.646	3031.34
702.834	2963.75
703.023	2840.87
703.212	2980.14
703.4	2787.63
703.589	2904.36
703.777	2969.9
703.965	3053.86
704.154	3010.86
704.342	2896.17
704.531	2920.74
704.719	2740.52
704.907	2799.91
705.096	2930.98
705.284	2836.78
705.472	2797.87
705.661	2732.33
705.849	2949.42
706.037	2902.31
706.226	2902.31
706.414	2892.07
706.602	2836.78
706.79	2920.74
706.979	2818.35
707.167	2826.54
707.355	2840.87
707.543	2834.73
707.731	2881.83
707.919	2978.09
708.107	2875.69
708.296	2674.99
708.484	2771.24
708.672	2945.32
708.86	2681.13
709.048	2795.82
709.236	2746.67
709.424	2793.77
709.612	2896.17
709.8	2779.43
709.988	2844.97
710.176	2736.43
710.364	2928.94
710.551	2758.96
710.739	2885.93
710.927	2740.52
711.115	2822.44
711.303	2763.05
711.491	2734.38
711.679	2746.67
711.866	2761
712.054	2756.91
712.242	2582.83
712.43	2767.15
712.617	2660.65
712.805	2761
712.993	2724.14
713.181	2701.61
713.368	2820.39
713.556	2709.8
713.744	2636.08
713.931	2791.72
714.119	2756.91
714.306	2677.04
714.494	2726.19
714.682	2812.2
714.869	2687.28
715.057	2646.32
715.244	2718
715.432	2660.65
715.619	2658.6
715.807	2701.61
715.994	2744.62
716.182	2623.79
716.369	2685.23
716.556	2646.32
716.744	2642.22
716.931	2492.72
717.119	2662.7
717.306	2767.15
717.493	2629.93
717.681	2660.65
717.868	2593.07
718.055	2611.5
718.242	2695.47
718.43	2724.14
718.617	2615.6
718.804	2722.09
718.991	2691.37
719.179	2707.76
719.366	2650.41
719.553	2627.89
719.74	2576.69
719.927	2648.36
720.114	2695.47
720.301	2689.32
720.488	2662.7
720.676	2644.27
720.863	2611.5
721.05	2707.76
721.237	2591.02
721.424	2718
721.611	2650.41
721.798	2488.62
721.985	2617.65
722.172	2517.29
722.358	2593.07
722.545	2505.01
722.732	2527.53
722.919	2695.47
723.106	2545.97
723.293	2566.45
723.48	2722.09
723.667	2541.87
723.853	2744.62
724.04	2484.53
724.227	2584.88
724.414	2658.6
724.6	2658.6
724.787	2588.97
724.974	2683.18
725.161	2695.47
725.347	2474.29
725.534	2701.61
725.72	2552.11
725.907	2492.72
726.094	2548.01
726.28	2683.18
726.467	2720.04
726.653	2707.76
726.84	2642.22
727.027	2683.18
727.213	2541.87
727.4	2668.84
727.586	2558.25
727.773	2640.17
727.959	2642.22
728.145	2652.46
728.332	2660.65
728.518	2701.61
728.705	2715.95
728.891	2609.45
729.077	2611.5
729.264	2728.24
729.45	2554.16
729.636	2623.79
729.823	2603.31
730.009	2523.44
730.195	2672.94
730.382	2650.41
730.568	2574.64
730.754	2746.67
730.94	2658.6
731.126	2718
731.313	2668.84
731.499	2701.61
731.685	2711.85
731.871	2609.45
732.057	2693.42
732.243	2781.48
732.429	2695.47
732.615	2545.97
732.801	2785.58
732.987	2703.66
733.173	2597.17
733.359	2674.99
733.545	2695.47
733.731	2662.7
733.917	2769.2
734.103	2718
734.289	2732.33
734.475	2631.98
734.661	2801.96
734.847	2521.39
735.033	2683.18
735.219	2644.27
735.404	2531.63
735.59	2572.59
735.776	2699.56
735.962	2754.86
736.148	2611.5
736.333	2699.56
736.519	2539.82
736.705	2709.8
736.89	2689.32
737.076	2627.89
737.262	2724.14
737.447	2638.13
737.633	2695.47
737.819	2640.17
738.004	2580.78
738.19	2636.08
738.375	2718
738.561	2679.08
738.747	2818.35
738.932	2793.77
739.118	2693.42
739.303	2754.86
739.489	2701.61
739.674	2613.55
739.859	2765.1
740.045	2636.08
740.23	2750.76
740.416	2634.03
740.601	2652.46
740.786	2605.36
740.972	2584.88
741.157	2625.84
741.342	2636.08
741.528	2584.88
741.713	2638.13
741.898	2554.16
742.084	2568.49
742.269	2548.01
742.454	2623.79
742.639	2617.65
742.824	2634.03
743.01	2668.84
743.195	2623.79
743.38	2562.35
743.565	2648.36
743.75	2611.5
743.935	2509.1
744.12	2627.89
744.305	2558.25
744.49	2472.24
744.675	2494.77
744.86	2560.3
745.045	2406.7
745.23	2537.77
745.415	2519.34
745.6	2543.92
745.785	2505.01
745.97	2437.42
746.155	2423.09
746.34	2462
746.525	2314.55
746.71	2437.42
746.895	2375.99
747.079	2380.08
747.264	2371.89
747.449	2318.64
747.634	2335.03
747.819	2480.43
748.003	2339.12
748.188	2361.65
748.373	2345.27
748.557	2302.26
748.742	2474.29
748.927	2332.98
749.111	2304.31
749.296	2304.31
749.481	2330.93
749.665	2289.97
749.85	2306.35
750.034	2279.73
750.219	2224.44
750.404	2240.82
750.588	2136.37
750.773	2081.08
750.957	2167.09
751.141	2253.11
751.326	2142.52
751.51	2189.62
751.695	2146.61
751.879	2025.78
752.064	2300.21
752.248	2144.56
752.432	2140.47
752.617	2175.28
752.801	2107.7
752.985	2119.99
753.17	1999.16
753.354	2101.56
753.538	2017.59
753.722	2066.74
753.907	2099.51
754.091	1933.62
754.275	1935.67
754.459	1919.29
754.643	1984.82
754.828	1898.81
755.012	1923.38
755.196	1913.14
755.38	1880.38
755.564	1786.17
755.748	1882.42
755.932	1904.95
756.116	1884.47
756.3	1831.23
756.484	1798.46
756.668	1849.66
756.852	1851.71
757.036	1761.59
757.22	1683.77
757.404	1796.41
757.588	1743.16
757.772	1724.73
757.956	1734.97
758.14	1734.97
758.323	1622.33
758.507	1786.17
758.691	1655.1
758.875	1616.19
759.059	1718.59
759.242	1698.11
759.426	1591.61
759.61	1685.82
759.794	1569.09
759.977	1648.96
760.161	1628.48
760.345	1712.44
760.528	1614.14
760.712	1677.63
760.895	1544.51
761.079	1581.37
761.263	1544.51
761.446	1634.62
761.63	1347.9
761.813	1581.37
761.997	1546.56
762.18	1577.28
762.364	1497.41
762.547	1503.55
762.731	1560.89
762.914	1438.02
763.098	1454.4
763.281	1425.73
763.464	1415.49
763.648	1542.46
763.831	1501.5
764.015	1472.83
764.198	1425.73
764.381	1417.54
764.564	1352
764.748	1405.25
764.931	1395.01
765.114	1392.96
765.297	1415.49
765.481	1386.82
765.664	1397.06
765.847	1347.9
766.03	1392.96
766.213	1317.19
766.397	1337.66
766.58	1308.99
766.763	1425.73
766.946	1265.99
767.129	1347.9
767.312	1317.19
767.495	1401.15
767.678	1433.92
767.861	1372.48
768.044	1272.13
768.227	1284.42
768.41	1417.54
768.593	1284.42
768.776	1292.61
768.959	1192.26
769.142	1331.52
769.324	1245.51
769.507	1272.13
769.69	1268.03
769.873	1339.71
770.056	1376.58
770.239	1306.95
770.421	1347.9
770.604	1290.56
770.787	1175.88
770.97	1143.11
771.152	1190.21
771.335	1241.41
771.518	1167.68
771.7	1143.11
771.883	1184.07
772.066	1126.72
772.248	1149.25
772.431	1239.36
772.613	1169.73
772.796	1100.1
772.978	1153.35
773.161	1169.73
773.343	1231.17
773.526	1222.98
773.708	1128.77
773.891	1118.53
774.073	1128.77
774.256	1007.94
774.438	1120.58
774.621	1108.29
774.803	1098.05
774.985	1077.57
775.168	1116.48
775.35	1042.76
775.532	1048.9
775.715	977.22
775.897	1030.47
776.079	1069.38
776.261	1055.05
776.444	952.65
776.626	983.37
776.808	1001.8
776.99	1018.18
777.173	1020.23
777.355	975.17
777.537	952.65
777.719	934.22
777.901	936.26
778.083	903.5
778.265	1018.18
778.447	952.65
778.629	891.21
778.811	903.5
778.993	987.46
779.175	950.6
779.357	921.93
779.539	760.14
779.721	858.44
779.903	975.17
780.085	917.83
780.267	874.82
780.449	782.67
780.631	866.63
780.812	889.16
780.994	753.99
781.176	815.43
781.358	805.19
781.54	733.51
781.721	774.47
781.903	829.77
782.085	715.08
782.267	823.62
782.448	715.08
782.63	741.71
782.812	704.84
782.993	788.81
783.175	753.99
783.357	745.8
783.538	766.28
783.72	688.46
783.901	733.51
784.083	733.51
784.264	776.52
784.446	663.88
784.627	653.64
784.809	739.66
784.99	688.46
785.172	768.33
785.353	686.41
785.535	661.84
785.716	678.22
785.897	641.36
786.079	588.11
786.26	694.6
786.441	594.25
786.623	631.12
786.804	653.64
786.985	598.35
787.167	584.01
787.348	563.53
787.529	616.78
787.71	645.45
787.891	670.03
788.073	481.61
788.254	524.62
788.435	565.58
788.616	551.24
788.797	520.53
788.978	608.59
789.159	522.57
789.34	588.11
789.522	545.1
789.703	502.09
789.884	567.63
790.065	461.13
790.246	577.87
790.427	485.71
790.607	536.91
790.788	495.95
790.969	481.61
791.15	565.58
791.331	530.77
791.512	428.37
791.693	495.95
791.874	442.7
792.054	584.01
792.235	561.48
792.416	371.02
792.597	461.13
792.778	557.39
792.958	504.14
793.139	506.19
793.32	422.22
793.5	414.03
793.681	473.42
793.862	356.69
794.042	467.28
794.223	362.83
794.404	481.61
794.584	360.78
794.765	438.61
794.945	491.85
795.126	407.89
795.306	397.65
795.487	442.7
795.667	395.6
795.848	442.7
796.028	448.85
796.209	465.23
796.389	420.17
796.57	356.69
796.75	340.3
796.93	375.12
797.111	350.54
797.291	436.56
797.471	319.82
797.652	434.51
797.832	375.12
798.012	411.98
798.192	330.06
798.373	334.16
798.553	364.88
798.733	379.22
798.913	366.93
799.093	350.54
799.274	379.22
799.454	368.98
799.634	319.82
799.814	307.54
799.994	379.22
800.174	371.02
800.354	338.26
800.534	325.97
800.714	330.06
800.894	299.34
801.074	252.24
801.254	268.63
801.434	313.68
801.614	307.54
801.794	287.06
801.974	1032.52
802.154	334.16
802.334	362.83
802.514	303.44
802.693	371.02
802.873	313.68
803.053	280.91
803.233	397.65
803.413	254.29
803.592	332.11
803.772	260.43
803.952	285.01
804.131	287.06
804.311	303.44
804.491	295.25
804.67	270.67
804.85	242
805.03	274.77
805.209	338.26
805.389	252.24
805.568	278.87
805.748	256.34
805.928	260.43
806.107	371.02
806.287	289.1
806.466	297.3
806.646	323.92
806.825	354.64
807.004	250.19
807.184	330.06
807.363	242
807.543	305.49
807.722	225.62
807.901	401.74
808.081	246.1
808.26	225.62
808.439	235.86
808.619	254.29
808.798	252.24
808.977	285.01
809.156	291.15
809.336	266.58
809.515	254.29
809.694	268.63
809.873	274.77
810.052	287.06
810.231	317.78
810.411	246.1
810.59	254.29
810.769	170.32
810.948	311.63
811.127	229.71
811.306	147.8
811.485	143.7
811.664	274.77
811.843	262.48
812.022	285.01
812.201	221.52
812.38	242
812.559	264.53
812.737	256.34
812.916	186.71
813.095	239.95
813.274	235.86
813.453	237.91
813.632	190.8
813.811	293.2
813.989	168.27
814.168	205.14
814.347	182.61
814.526	174.42
814.704	248.15
814.883	242
815.062	162.13
815.24	203.09
815.419	147.8
815.598	194.9
815.776	72.02
815.955	225.62
816.133	57.68
816.312	194.9
816.49	213.33
816.669	186.71
816.847	174.42
817.026	227.67
817.204	188.75
817.383	207.19
817.561	252.24
817.74	262.48
817.918	221.52
818.097	176.47
818.275	246.1
818.453	201.04
818.632	170.32
818.81	158.03
818.988	155.99
819.167	190.8
819.345	135.51
819.523	172.37
819.701	160.08
819.879	178.51
820.058	166.23
820.236	194.9
820.414	194.9
820.592	188.75
820.77	217.43
820.948	137.56
821.127	133.46
821.305	80.21
821.483	225.62
821.661	203.09
821.839	160.08
822.017	119.12
822.195	137.56
822.373	164.18
822.551	51.54
822.729	166.23
822.907	203.09
823.085	155.99
823.262	129.36
823.44	153.94
823.618	119.12
823.796	168.27
823.974	102.74
824.152	96.6
824.329	139.6
824.507	201.04
824.685	149.84
824.863	102.74
825.04	69.97
825.218	125.27
825.396	72.02
825.574	98.64
825.751	155.99
825.929	174.42
826.107	125.27
826.284	102.74
826.462	59.73
826.639	65.88
826.817	88.4
826.994	192.85
827.172	92.5
827.349	207.19
827.527	135.51
827.704	104.79
827.882	145.75
828.059	151.89
828.237	78.16
828.414	100.69
828.591	22.87
828.769	151.89
828.946	127.32
829.124	96.6
829.301	67.92
829.478	106.84
829.655	158.03
829.833	104.79
830.01	55.64
830.187	108.88
830.364	139.6
830.542	104.79
830.719	104.79
830.896	166.23
831.073	59.73
831.25	137.56
831.427	166.23
831.604	100.69
831.782	65.88
831.959	172.37
832.136	80.21
832.313	96.6
832.49	88.4
832.667	80.21
832.844	51.54
833.021	196.95
833.198	106.84
833.374	69.97
833.551	133.46
833.728	57.68
833.905	151.89
834.082	90.45
834.259	74.07
834.436	170.32
834.612	94.55
834.789	104.79
834.966	100.69
835.143	147.8
835.319	121.17
835.496	164.18
835.673	158.03
835.85	190.8
836.026	131.41
836.203	127.32
836.38	133.46
836.556	20.82
836.733	110.93
836.909	108.88
837.086	12.63
837.262	137.56
837.439	88.4
837.616	102.74
837.792	121.17
837.968	41.3
838.145	59.73
838.321	141.65
838.498	98.64
838.674	147.8
838.851	39.25
839.027	31.06
839.203	147.8
839.38	82.26
839.556	63.83
839.732	31.06
839.909	72.02
840.085	102.74
840.261	145.75
840.437	33.11
840.614	29.01
840.79	121.17
840.966	115.03
841.142	123.22
841.318	106.84
841.494	135.51
841.671	74.07
841.847	69.97
842.023	80.21
842.199	143.7
842.375	35.16
842.551	59.73
842.727	20.82
842.903	119.12
843.079	55.64
843.255	72.02
843.431	133.46
843.607	145.75
843.783	29.01
843.959	106.84
844.134	55.64
844.31	104.79
844.486	61.78
844.662	104.79
844.838	72.02
845.013	84.31
845.189	162.13
845.365	61.78
845.541	39.25
845.716	26.96
845.892	14.68
846.068	57.68
846.244	41.3
846.419	78.16
846.595	35.16
846.77	51.54
846.946	55.64
847.122	53.59
847.297	63.83
847.473	55.64
847.648	84.31
847.824	4.44
847.999	-69.29
848.175	49.49
848.35	82.26
848.526	86.36
848.701	-1.71
848.876	143.7
849.052	102.74
849.227	115.03
849.403	69.97
849.578	22.87
849.753	90.45
849.929	112.98
850.104	14.68
850.279	39.25
850.454	12.63
850.63	92.5
850.805	98.64
850.98	90.45
851.155	45.4
851.33	104.79
851.505	24.92
851.681	61.78
851.856	-5.8
852.031	45.4
852.206	35.16
852.381	4.44
852.556	57.68
852.731	69.97
852.906	55.64
853.081	131.41
853.256	131.41
853.431	35.16
853.606	84.31
853.781	-44.71
853.956	37.2
854.131	22.87
854.305	-3.75
854.48	102.74
854.655	18.77
854.83	57.68
855.005	92.5
855.18	104.79
855.354	92.5
855.529	65.88
855.704	-22.19
855.879	43.35
856.053	67.92
856.228	-20.14
856.403	-5.8
856.577	49.49
856.752	12.63
856.926	-48.81
857.101	47.44
857.276	14.68
857.45	-24.23
857.625	100.69
857.799	-9.9
857.974	31.06
858.148	0.34
858.323	14.68
858.497	90.45
858.672	31.06
858.846	18.77
859.02	-28.33
859.195	-5.8
859.369	14.68
859.543	96.6
859.718	51.54
859.892	37.2
860.066	55.64
860.241	14.68
860.415	4.44
860.589	33.11
860.763	90.45
860.938	53.59
861.112	22.87
861.286	2.39
861.46	53.59
861.634	72.02
861.808	96.6
861.982	14.68
862.157	29.01
862.331	43.35
862.505	31.06
862.679	2.39
862.853	14.68
863.027	16.73
863.201	104.79
863.375	45.4
863.549	61.78
863.722	24.92
863.896	59.73
864.07	4.44
864.244	35.16
864.418	65.88
864.592	22.87
864.766	86.36
864.939	59.73
865.113	4.44
865.287	43.35
865.461	-18.09
865.634	41.3
865.808	20.82
865.982	-59.05
866.156	55.64
866.329	-100.01
866.503	47.44
866.676	-1.71
866.85	20.82
867.024	-22.19
867.197	37.2
867.371	59.73
867.544	49.49
867.718	-5.8
867.891	100.69
868.065	-57
868.238	-63.15
868.412	61.78
868.585	61.78
868.759	45.4
868.932	55.64
869.105	22.87
869.279	0.34
869.452	-26.28
869.625	-52.91
869.799	-7.85
869.972	33.11
870.145	47.44
870.319	-16.04
870.492	-50.86
870.665	-18.09
870.838	-5.8
871.011	-20.14
871.185	12.63
871.358	12.63
871.531	90.45
871.704	-46.76
871.877	31.06
872.05	33.11
872.223	29.01
872.396	45.4
872.569	104.79
872.742	6.49
872.915	69.97
873.088	-11.95
873.261	-7.85
873.434	24.92
873.607	49.49
873.78	55.64
873.953	-40.62
874.126	2.39
874.299	29.01
874.471	-9.9
874.644	72.02
874.817	-13.99
874.99	84.31
875.163	-65.19
875.335	-1.71
875.508	-24.23
875.681	88.4
875.853	-40.62
876.026	22.87
876.199	-9.9
876.371	26.96
876.544	8.53
876.717	-18.09
876.889	22.87
877.062	41.3
877.234	26.96
877.407	41.3
877.579	10.58
877.752	-26.28
877.924	51.54
878.097	0.34
878.269	-11.95
878.442	72.02
878.614	47.44
878.786	18.77
878.959	-73.39
879.131	61.78
879.303	-61.1
879.476	-1.71
879.648	-13.99
879.82	74.07
879.993	49.49
880.165	69.97
880.337	8.53
880.509	29.01
880.681	-126.63
880.854	-28.33
881.026	29.01
881.198	141.65
881.37	6.49
881.542	-11.95
881.714	26.96
881.886	55.64
882.058	-11.95
882.23	63.83
882.402	-40.62
882.574	-16.04
882.746	35.16
882.918	47.44
883.09	-24.23
883.262	8.53
883.434	47.44
883.606	2.39
883.778	8.53
883.95	104.79
884.122	-46.76
884.293	2.39
884.465	45.4
884.637	18.77
884.809	-1.71
884.98	-9.9
885.152	-9.9
885.324	-71.34
885.496	-32.43
885.667	37.2
885.839	121.17
886.011	51.54
886.182	39.25
886.354	-9.9
886.525	-24.23
886.697	53.59
886.869	0.34
887.04	39.25
887.212	35.16
887.383	100.69
887.555	74.07
887.726	-69.29
887.897	43.35
888.069	37.2
888.24	-9.9
888.412	14.68
888.583	10.58
888.754	-3.75
888.926	-22.19
889.097	-54.95
889.268	-24.23
889.44	-26.28
889.611	-18.09
889.782	57.68
889.953	-67.24
890.125	-3.75
890.296	-59.05
890.467	2.39
890.638	2.39
890.809	-18.09
890.98	-3.75
891.151	2.39
891.323	76.12
891.494	37.2
891.665	-32.43
891.836	-44.71
892.007	-18.09
892.178	-36.52
892.349	24.92
892.52	2.39
892.691	-26.28
892.862	18.77
893.032	31.06
893.203	-54.95
893.374	-20.14
893.545	94.55
893.716	-11.95
893.887	-32.43
894.057	-22.19
894.228	-32.43
894.399	-36.52
894.57	43.35
894.74	20.82
894.911	22.87
895.082	2.39
895.253	-50.86
895.423	22.87
895.594	110.93
895.764	61.78
895.935	4.44
896.106	10.58
896.276	53.59
896.447	26.96
896.617	-67.24
896.788	-5.8
896.958	-1.71
897.129	-36.52
897.299	-50.86
897.47	37.2
897.64	-44.71
897.81	4.44
897.981	0.34
898.151	-44.71
898.322	4.44
898.492	-87.72
898.662	-11.95
898.832	78.16
899.003	16.73
899.173	35.16
899.343	-40.62
899.513	-20.14
