Data from USB4F104151__98__12-42-58-304.txt Node

Date: Fri Mar 14 12:42:58 EDT 2025
User: louis
Spectrometer: USB4F10415
Trigger mode: 4
Integration Time (sec): 3.000000E-2
Scans to average: 1
Electric dark correction enabled: true
Nonlinearity correction enabled: false
Boxcar width: 0
XAxis mode: Wavelengths
Number of Pixels in Spectrum: 3648
>>>>>Begin Spectral Data<<<<<
178.204	-85.84
178.424	-85.84
178.644	-85.84
178.864	-218.96
179.084	-114.52
179.304	-75.6
179.524	-65.36
179.744	2.22
179.964	82.09
180.184	49.32
180.404	24.75
180.624	-53.08
180.844	0.17
181.064	6.31
181.283	22.7
181.503	-51.03
181.723	57.51
181.943	-10.07
182.163	108.71
182.383	8.36
182.602	98.47
182.822	16.55
183.042	94.38
183.262	18.6
183.482	-12.12
183.701	39.08
183.921	65.71
184.141	0.17
184.361	90.28
184.58	-51.03
184.8	22.7
185.02	-26.45
185.239	61.61
185.459	69.8
185.679	47.27
185.898	-83.8
186.118	-51.03
186.338	55.47
186.557	57.51
186.777	63.66
186.997	24.75
187.216	-12.12
187.436	32.94
187.655	61.61
187.875	30.89
188.095	71.85
188.314	57.51
188.534	18.6
188.753	-42.84
188.973	100.52
189.192	73.9
189.412	-14.17
189.631	61.61
189.851	22.7
190.07	22.7
190.29	24.75
190.509	41.13
190.729	61.61
190.948	61.61
191.168	141.48
191.387	41.13
191.607	-24.4
191.826	49.32
192.045	45.23
192.265	49.32
192.484	8.36
192.704	18.6
192.923	-20.31
193.142	86.19
193.362	4.27
193.581	125.1
193.8	10.41
194.02	55.47
194.239	12.46
194.458	90.28
194.678	30.89
194.897	71.85
195.116	49.32
195.335	73.9
195.555	16.55
195.774	39.08
195.993	0.17
196.212	75.95
196.432	-26.45
196.651	43.18
196.87	4.27
197.089	92.33
197.308	-22.36
197.528	-20.31
197.747	14.51
197.966	84.14
198.185	121
198.404	18.6
198.623	18.6
198.842	121
199.062	73.9
199.281	61.61
199.5	53.42
199.719	65.71
199.938	-3.93
200.157	67.75
200.376	22.7
200.595	45.23
200.814	49.32
201.033	-1.88
201.252	49.32
201.471	57.51
201.69	34.99
201.909	-3.93
202.128	39.08
202.347	53.42
202.566	39.08
202.785	6.31
203.004	-51.03
203.223	108.71
203.442	-1.88
203.661	-1.88
203.879	51.37
204.098	77.99
204.317	14.51
204.536	34.99
204.755	53.42
204.974	28.84
205.193	-16.21
205.411	90.28
205.63	32.94
205.849	53.42
206.068	22.7
206.287	30.89
206.505	12.46
206.724	-1.88
206.943	63.66
207.162	26.79
207.381	34.99
207.599	16.55
207.818	92.33
208.037	55.47
208.255	14.51
208.474	82.09
208.693	49.32
208.911	18.6
209.13	51.37
209.349	96.43
209.567	55.47
209.786	116.9
210.005	90.28
210.223	26.79
210.442	2.22
210.661	73.9
210.879	10.41
211.098	102.57
211.316	94.38
211.535	84.14
211.753	77.99
211.972	18.6
212.191	-55.12
212.409	22.7
212.628	106.67
212.846	4.27
213.065	37.03
213.283	57.51
213.502	-44.88
213.72	28.84
213.938	8.36
214.157	8.36
214.375	-26.45
214.594	-18.26
214.812	55.47
215.031	32.94
215.249	30.89
215.467	45.23
215.686	69.8
215.904	67.75
216.122	18.6
216.341	100.52
216.559	2.22
216.778	-1.88
216.996	61.61
217.214	-69.46
217.432	14.51
217.651	51.37
217.869	-63.32
218.087	10.41
218.306	45.23
218.524	100.52
218.742	51.37
218.96	129.19
219.179	-5.97
219.397	-8.02
219.615	57.51
219.833	53.42
220.051	57.51
220.27	94.38
220.488	2.22
220.706	71.85
220.924	-42.84
221.142	104.62
221.36	82.09
221.578	47.27
221.796	55.47
222.015	47.27
222.233	75.95
222.451	55.47
222.669	65.71
222.887	92.33
223.105	57.51
223.323	28.84
223.541	26.79
223.759	28.84
223.977	39.08
224.195	94.38
224.413	32.94
224.631	18.6
224.849	22.7
225.067	110.76
225.285	43.18
225.503	73.9
225.721	-40.79
225.939	51.37
226.157	41.13
226.375	86.19
226.592	-10.07
226.81	-10.07
227.028	100.52
227.246	80.04
227.464	75.95
227.682	67.75
227.9	73.9
228.117	24.75
228.335	39.08
228.553	0.17
228.771	28.84
228.989	32.94
229.206	73.9
229.424	57.51
229.642	-1.88
229.86	47.27
230.077	0.17
230.295	8.36
230.513	59.56
230.731	28.84
230.948	18.6
231.166	0.17
231.384	63.66
231.601	34.99
231.819	110.76
232.037	-22.36
232.254	14.51
232.472	90.28
232.689	30.89
232.907	118.95
233.125	16.55
233.342	8.36
233.56	32.94
233.777	41.13
233.995	12.46
234.213	69.8
234.43	108.71
234.648	61.61
234.865	2.22
235.083	37.03
235.3	43.18
235.518	-10.07
235.735	80.04
235.953	14.51
236.17	96.43
236.388	45.23
236.605	41.13
236.822	108.71
237.04	69.8
237.257	63.66
237.475	2.22
237.692	0.17
237.909	28.84
238.127	84.14
238.344	6.31
238.562	20.65
238.779	41.13
238.996	-5.97
239.214	51.37
239.431	125.1
239.648	8.36
239.865	45.23
240.083	28.84
240.3	2.22
240.517	-10.07
240.735	104.62
240.952	75.95
241.169	155.82
241.386	47.27
241.603	20.65
241.821	39.08
242.038	88.23
242.255	65.71
242.472	-8.02
242.689	51.37
242.907	80.04
243.124	12.46
243.341	65.71
243.558	-20.31
243.775	2.22
243.992	18.6
244.209	14.51
244.426	118.95
244.643	47.27
244.86	45.23
245.078	-38.74
245.295	86.19
245.512	125.1
245.729	18.6
245.946	96.43
246.163	24.75
246.38	12.46
246.597	47.27
246.814	92.33
247.031	37.03
247.248	34.99
247.464	8.36
247.681	32.94
247.898	-1.88
248.115	34.99
248.332	14.51
248.549	63.66
248.766	20.65
248.983	45.23
249.2	82.09
249.417	69.8
249.633	0.17
249.85	12.46
250.067	39.08
250.284	41.13
250.501	26.79
250.717	43.18
250.934	30.89
251.151	28.84
251.368	30.89
251.585	94.38
251.801	-5.97
252.018	-1.88
252.235	61.61
252.451	59.56
252.668	6.31
252.885	53.42
253.102	16.55
253.318	28.84
253.535	12.46
253.752	45.23
253.968	57.51
254.185	32.94
254.401	24.75
254.618	55.47
254.835	55.47
255.051	-14.17
255.268	6.31
255.484	39.08
255.701	6.31
255.917	90.28
256.134	96.43
256.351	80.04
256.567	55.47
256.784	16.55
257	20.65
257.217	16.55
257.433	49.32
257.65	61.61
257.866	10.41
258.082	20.65
258.299	0.17
258.515	-34.64
258.732	75.95
258.948	73.9
259.165	61.61
259.381	45.23
259.597	49.32
259.814	63.66
260.03	47.27
260.246	-12.12
260.463	61.61
260.679	116.9
260.895	73.9
261.112	90.28
261.328	14.51
261.544	32.94
261.761	141.48
261.977	39.08
262.193	49.32
262.409	20.65
262.626	2.22
262.842	14.51
263.058	55.47
263.274	45.23
263.49	24.75
263.707	22.7
263.923	63.66
264.139	37.03
264.355	55.47
264.571	86.19
264.787	14.51
265.004	71.85
265.22	22.7
265.436	-18.26
265.652	53.42
265.868	100.52
266.084	39.08
266.3	20.65
266.516	-18.26
266.732	59.56
266.948	16.55
267.164	32.94
267.38	30.89
267.596	30.89
267.812	39.08
268.028	61.61
268.244	65.71
268.46	-12.12
268.676	10.41
268.892	47.27
269.108	32.94
269.324	10.41
269.54	49.32
269.756	90.28
269.972	53.42
270.188	16.55
270.403	-14.17
270.619	71.85
270.835	-20.31
271.051	65.71
271.267	26.79
271.483	55.47
271.698	39.08
271.914	80.04
272.13	63.66
272.346	28.84
272.562	24.75
272.777	86.19
272.993	10.41
273.209	34.99
273.425	41.13
273.64	-61.27
273.856	90.28
274.072	28.84
274.287	-22.36
274.503	63.66
274.719	80.04
274.934	49.32
275.15	4.27
275.366	24.75
275.581	34.99
275.797	80.04
276.012	57.51
276.228	12.46
276.444	32.94
276.659	92.33
276.875	-20.31
277.09	39.08
277.306	61.61
277.521	41.13
277.737	-5.97
277.952	49.32
278.168	-1.88
278.383	-28.5
278.599	-26.45
278.814	37.03
279.03	86.19
279.245	123.05
279.461	12.46
279.676	39.08
279.892	32.94
280.107	-14.17
280.322	22.7
280.538	59.56
280.753	45.23
280.969	55.47
281.184	63.66
281.399	63.66
281.615	65.71
281.83	69.8
282.045	39.08
282.26	-3.93
282.476	59.56
282.691	55.47
282.906	53.42
283.122	-14.17
283.337	-22.36
283.552	73.9
283.767	14.51
283.983	6.31
284.198	86.19
284.413	49.32
284.628	-18.26
284.843	30.89
285.058	102.57
285.274	55.47
285.489	-12.12
285.704	30.89
285.919	20.65
286.134	24.75
286.349	2.22
286.564	-5.97
286.779	-24.4
286.995	45.23
287.21	2.22
287.425	47.27
287.64	71.85
287.855	16.55
288.07	-16.21
288.285	82.09
288.5	90.28
288.715	143.53
288.93	102.57
289.145	2.22
289.36	45.23
289.575	12.46
289.79	127.14
290.004	-3.93
290.219	63.66
290.434	61.61
290.649	45.23
290.864	37.03
291.079	24.75
291.294	102.57
291.509	22.7
291.724	65.71
291.938	-26.45
292.153	32.94
292.368	-5.97
292.583	75.95
292.798	-48.98
293.012	114.86
293.227	59.56
293.442	41.13
293.657	55.47
293.871	96.43
294.086	59.56
294.301	26.79
294.516	45.23
294.73	41.13
294.945	37.03
295.16	75.95
295.374	26.79
295.589	147.62
295.804	14.51
296.018	102.57
296.233	75.95
296.447	30.89
296.662	102.57
296.877	65.71
297.091	10.41
297.306	-3.93
297.52	2.22
297.735	77.99
297.949	75.95
298.164	30.89
298.378	59.56
298.593	4.27
298.807	-28.5
299.022	-1.88
299.236	59.56
299.451	47.27
299.665	39.08
299.88	71.85
300.094	34.99
300.309	28.84
300.523	10.41
300.737	10.41
300.952	32.94
301.166	16.55
301.381	-10.07
301.595	41.13
301.809	45.23
302.024	-14.17
302.238	94.38
302.452	84.14
302.667	49.32
302.881	86.19
303.095	41.13
303.309	77.99
303.524	-30.55
303.738	61.61
303.952	2.22
304.166	28.84
304.381	-12.12
304.595	51.37
304.809	-3.93
305.023	18.6
305.237	28.84
305.452	41.13
305.666	63.66
305.88	26.79
306.094	71.85
306.308	57.51
306.522	41.13
306.736	116.9
306.95	82.09
307.164	-8.02
307.379	2.22
307.593	108.71
307.807	14.51
308.021	88.23
308.235	26.79
308.449	41.13
308.663	65.71
308.877	63.66
309.091	34.99
309.305	32.94
309.519	71.85
309.733	116.9
309.947	-40.79
310.161	57.51
310.374	71.85
310.588	123.05
310.802	10.41
311.016	61.61
311.23	-16.21
311.444	26.79
311.658	18.6
311.872	75.95
312.085	137.38
312.299	43.18
312.513	53.42
312.727	137.38
312.941	-5.97
313.154	20.65
313.368	77.99
313.582	10.41
313.796	61.61
314.009	51.37
314.223	90.28
314.437	67.75
314.651	67.75
314.864	82.09
315.078	20.65
315.292	14.51
315.505	28.84
315.719	45.23
315.933	55.47
316.146	-8.02
316.36	30.89
316.573	67.75
316.787	71.85
317.001	92.33
317.214	2.22
317.428	14.51
317.641	-3.93
317.855	32.94
318.068	102.57
318.282	30.89
318.495	-3.93
318.709	59.56
318.922	65.71
319.136	37.03
319.349	161.96
319.563	-12.12
319.776	84.14
319.99	0.17
320.203	67.75
320.417	51.37
320.63	67.75
320.843	127.14
321.057	14.51
321.27	94.38
321.483	20.65
321.697	41.13
321.91	43.18
322.124	77.99
322.337	53.42
322.55	34.99
322.763	55.47
322.977	75.95
323.19	-8.02
323.403	-26.45
323.617	65.71
323.83	39.08
324.043	10.41
324.256	49.32
324.469	59.56
324.683	-1.88
324.896	-3.93
325.109	73.9
325.322	12.46
325.535	82.09
325.748	96.43
325.962	16.55
326.175	-1.88
326.388	80.04
326.601	67.75
326.814	20.65
327.027	57.51
327.24	82.09
327.453	39.08
327.666	190.63
327.879	82.09
328.092	26.79
328.305	-26.45
328.518	-51.03
328.731	-14.17
328.944	75.95
329.157	-1.88
329.37	22.7
329.583	121
329.796	86.19
330.009	-42.84
330.222	43.18
330.435	12.46
330.648	0.17
330.861	2.22
331.073	30.89
331.286	98.47
331.499	75.95
331.712	67.75
331.925	100.52
332.138	65.71
332.35	14.51
332.563	-16.21
332.776	129.19
332.989	2.22
333.202	45.23
333.414	-51.03
333.627	51.37
333.84	80.04
334.053	45.23
334.265	100.52
334.478	53.42
334.691	51.37
334.903	90.28
335.116	-3.93
335.329	8.36
335.541	75.95
335.754	96.43
335.966	73.9
336.179	55.47
336.392	-71.51
336.604	47.27
336.817	94.38
337.029	112.81
337.242	-3.93
337.454	39.08
337.667	112.81
337.88	96.43
338.092	47.27
338.305	55.47
338.517	100.52
338.729	84.14
338.942	82.09
339.154	57.51
339.367	88.23
339.579	28.84
339.792	49.32
340.004	65.71
340.217	86.19
340.429	34.99
340.641	-26.45
340.854	53.42
341.066	37.03
341.278	104.62
341.491	104.62
341.703	12.46
341.915	59.56
342.128	92.33
342.34	51.37
342.552	22.7
342.764	2.22
342.977	86.19
343.189	45.23
343.401	39.08
343.613	-22.36
343.826	47.27
344.038	47.27
344.25	16.55
344.462	37.03
344.674	57.51
344.886	41.13
345.099	84.14
345.311	92.33
345.523	24.75
345.735	59.56
345.947	41.13
346.159	20.65
346.371	61.61
346.583	-3.93
346.795	71.85
347.007	-8.02
347.219	34.99
347.431	47.27
347.643	108.71
347.855	49.32
348.067	137.38
348.279	14.51
348.491	4.27
348.703	90.28
348.915	22.7
349.127	10.41
349.339	2.22
349.551	43.18
349.763	65.71
349.975	43.18
350.187	80.04
350.399	6.31
350.61	14.51
350.822	-16.21
351.034	65.71
351.246	94.38
351.458	41.13
351.669	67.75
351.881	71.85
352.093	43.18
352.305	80.04
352.517	98.47
352.728	75.95
352.94	39.08
353.152	30.89
353.363	49.32
353.575	47.27
353.787	43.18
353.999	77.99
354.21	77.99
354.422	10.41
354.633	24.75
354.845	96.43
355.057	53.42
355.268	57.51
355.48	55.47
355.692	30.89
355.903	53.42
356.115	43.18
356.326	55.47
356.538	100.52
356.749	71.85
356.961	6.31
357.172	118.95
357.384	18.6
357.595	137.38
357.807	30.89
358.018	37.03
358.23	75.95
358.441	123.05
358.653	37.03
358.864	98.47
359.075	51.37
359.287	37.03
359.498	145.58
359.709	49.32
359.921	127.14
360.132	65.71
360.344	98.47
360.555	37.03
360.766	92.33
360.977	-12.12
361.189	63.66
361.4	121
361.611	104.62
361.823	67.75
362.034	153.77
362.245	80.04
362.456	65.71
362.667	96.43
362.879	37.03
363.09	137.38
363.301	129.19
363.512	34.99
363.723	20.65
363.935	49.32
364.146	26.79
364.357	49.32
364.568	135.34
364.779	22.7
364.99	49.32
365.201	-12.12
365.412	121
365.623	-42.84
365.834	69.8
366.045	131.24
366.256	133.29
366.467	41.13
366.678	65.71
366.889	57.51
367.1	84.14
367.311	51.37
367.522	69.8
367.733	45.23
367.944	84.14
368.155	45.23
368.366	77.99
368.577	118.95
368.788	102.57
368.999	69.8
369.209	4.27
369.42	57.51
369.631	129.19
369.842	34.99
370.053	102.57
370.264	71.85
370.474	30.89
370.685	61.61
370.896	100.52
371.107	123.05
371.317	61.61
371.528	-16.21
371.739	127.14
371.95	67.75
372.16	92.33
372.371	92.33
372.582	63.66
372.792	82.09
373.003	112.81
373.214	61.61
373.424	77.99
373.635	67.75
373.846	75.95
374.056	8.36
374.267	69.8
374.477	43.18
374.688	30.89
374.898	114.86
375.109	88.23
375.319	43.18
375.53	157.86
375.74	69.8
375.951	37.03
376.161	41.13
376.372	118.95
376.582	61.61
376.793	24.75
377.003	8.36
377.214	84.14
377.424	49.32
377.635	45.23
377.845	34.99
378.055	104.62
378.266	94.38
378.476	75.95
378.686	18.6
378.897	88.23
379.107	86.19
379.317	88.23
379.528	39.08
379.738	71.85
379.948	34.99
380.158	84.14
380.369	47.27
380.579	96.43
380.789	84.14
380.999	80.04
381.21	86.19
381.42	149.67
381.63	8.36
381.84	71.85
382.05	125.1
382.261	121
382.471	90.28
382.681	28.84
382.891	26.79
383.101	73.9
383.311	-38.74
383.521	71.85
383.731	43.18
383.941	153.77
384.151	24.75
384.361	28.84
384.571	-12.12
384.781	108.71
384.991	59.56
385.201	106.67
385.411	164.01
385.621	84.14
385.831	-24.4
386.041	102.57
386.251	75.95
386.461	145.58
386.671	47.27
386.881	102.57
387.091	127.14
387.301	86.19
387.511	108.71
387.72	149.67
387.93	53.42
388.14	102.57
388.35	71.85
388.56	90.28
388.769	94.38
388.979	112.81
389.189	77.99
389.399	102.57
389.609	73.9
389.818	114.86
390.028	129.19
390.238	-3.93
390.447	45.23
390.657	30.89
390.867	22.7
391.076	88.23
391.286	65.71
391.496	139.43
391.705	34.99
391.915	92.33
392.125	166.06
392.334	8.36
392.544	121
392.753	102.57
392.963	108.71
393.172	104.62
393.382	61.61
393.591	168.1
393.801	98.47
394.01	118.95
394.22	100.52
394.429	92.33
394.639	127.14
394.848	118.95
395.058	94.38
395.267	121
395.477	121
395.686	155.82
395.895	168.1
396.105	252.07
396.314	129.19
396.524	135.34
396.733	155.82
396.942	121
397.152	170.15
397.361	149.67
397.57	112.81
397.78	129.19
397.989	147.62
398.198	176.3
398.407	112.81
398.617	96.43
398.826	123.05
399.035	57.51
399.244	174.25
399.453	67.75
399.663	145.58
399.872	129.19
400.081	118.95
400.29	168.1
400.499	90.28
400.708	114.86
400.917	123.05
401.127	211.11
401.336	176.3
401.545	227.5
401.754	204.97
401.963	190.63
402.172	182.44
402.381	98.47
402.59	114.86
402.799	188.58
403.008	204.97
403.217	155.82
403.426	223.4
403.635	184.49
403.844	151.72
404.053	141.48
404.262	176.3
404.471	219.3
404.68	252.07
404.888	227.5
405.097	209.06
405.306	274.6
405.515	168.1
405.724	207.02
405.933	233.64
406.142	252.07
406.35	274.6
406.559	280.74
406.768	247.97
406.977	420
407.185	311.46
407.394	288.93
407.603	258.21
407.812	270.5
408.02	336.04
408.229	254.12
408.438	319.65
408.646	305.32
408.855	323.75
409.064	372.9
409.272	350.37
409.481	331.94
409.69	405.67
409.898	389.28
410.107	463.01
410.315	497.83
410.524	503.97
410.733	465.06
410.941	546.98
411.15	503.97
411.358	643.23
411.567	651.42
411.775	581.79
411.984	598.18
412.192	610.47
412.401	645.28
412.609	678.05
412.818	669.86
413.026	755.87
413.234	725.15
413.443	774.3
413.651	823.45
413.86	848.03
414.068	897.18
414.276	870.56
414.485	868.51
414.693	936.09
414.901	999.58
415.11	1020.06
415.318	899.23
415.526	1058.97
415.734	1200.28
415.943	1237.14
416.151	1177.75
416.359	1233.05
416.567	1233.05
416.776	1429.65
416.984	1448.08
417.192	1503.38
417.4	1460.37
417.608	1357.97
417.817	1415.32
418.025	1638.55
418.233	1702.03
418.441	1734.8
418.649	1753.23
418.857	1900.69
419.065	1949.84
419.273	1964.17
419.481	2021.52
419.689	2099.34
419.897	2207.88
420.105	2197.64
420.313	2404.49
420.521	2375.81
420.729	2392.2
420.937	2527.36
421.145	2697.35
421.353	2611.33
421.561	2762.88
421.769	2916.48
421.977	2979.97
422.185	2984.06
422.393	3049.6
422.601	3534.96
422.809	3321.98
423.017	3354.74
423.224	3539.06
423.432	3790.96
423.64	3674.23
423.848	4053.1
424.056	3946.61
424.263	4165.74
424.471	4294.76
424.679	4352.1
424.887	4452.45
425.094	4716.64
425.302	4710.5
425.51	4739.17
425.718	5021.79
425.925	5116
426.133	5304.41
426.341	5580.89
426.548	5873.75
426.756	5728.34
426.964	5926.99
427.171	6332.49
427.379	6568.01
427.586	6428.74
427.794	6758.47
428.001	7002.18
428.209	7235.64
428.417	7254.08
428.624	7706.68
428.832	7710.77
429.039	7522.36
429.247	7667.77
429.454	8548.39
429.662	8988.71
429.869	8319.02
430.076	8802.34
430.284	8747.05
430.491	9072.67
430.699	9691.16
430.906	9691.16
431.114	9832.47
431.321	10070.03
431.528	10354.7
431.736	10829.83
431.943	11577.34
432.15	11194.37
432.358	11192.32
432.565	11886.58
432.772	11874.29
432.979	12492.78
433.187	12662.76
433.394	12713.96
433.601	13699.03
433.808	13682.65
434.016	13377.5
434.223	13961.17
434.43	14958.53
434.637	14833.61
434.844	15681.47
435.052	15978.42
435.259	15896.5
435.466	16074.68
435.673	15806.39
435.88	16789.42
436.087	17794.97
436.294	17823.64
436.501	17119.14
436.708	17457.06
436.915	18507.66
437.122	19203.97
437.329	19128.2
437.537	19888
437.743	20266.87
437.95	19818.36
438.157	20860.78
438.364	21673.82
438.571	21731.17
438.778	21733.22
438.985	23633.73
439.192	22622.03
439.399	23555.91
439.606	23005
439.813	23953.21
440.02	25499.43
440.227	25077.55
440.433	24807.22
440.64	25730.85
440.847	25481
441.054	26218.27
441.261	27895.55
441.467	27571.97
441.674	28360.44
441.881	29185.77
442.088	29380.33
442.294	29036.27
442.501	29787.88
442.708	30398.17
442.914	31506.12
443.121	32908.98
443.328	32210.62
443.534	34287.26
443.741	33236.66
443.948	32636.6
444.154	35329.68
444.361	34799.26
444.568	35518.09
444.774	35067.54
444.981	35671.69
445.187	36615.8
445.394	38237.8
445.6	37359.22
445.807	41137.72
446.013	39775.82
446.22	40525.38
446.426	42067.5
446.633	41905.71
446.839	43630.1
447.046	41934.38
447.252	43890.19
447.459	44199.43
447.665	43777.55
447.871	45993.45
448.078	48133.58
448.284	45610.48
448.491	47058.4
448.697	48414.15
448.903	49231.29
449.11	49868.21
449.316	48872.9
449.522	49802.67
449.728	51271.07
449.935	51475.87
450.141	51096.99
450.347	52243.85
450.553	50685.35
450.76	51096.99
450.966	53083.52
451.172	52368.78
451.378	53618.04
451.584	52614.54
451.791	53470.59
451.997	53851.51
452.203	54766.95
452.409	54902.12
452.615	54259.05
452.821	52594.06
453.027	52301.2
453.233	54328.69
453.44	52657.54
453.646	53466.49
453.852	53204.35
454.058	54275.44
454.264	52876.68
454.47	53618.04
454.676	52399.5
454.882	54033.78
455.088	49386.94
455.294	50355.63
455.5	51027.36
455.705	51221.92
455.911	49675.7
456.117	48680.39
456.323	47693.27
456.529	45653.49
456.735	47338.97
456.941	46046.7
457.147	45247.99
457.352	44205.58
457.558	43787.79
457.764	43726.35
457.97	42907.16
458.176	42194.47
458.381	41838.12
458.587	40140.36
458.793	40029.77
458.999	38014.57
459.204	40576.58
459.41	39589.45
459.616	36941.43
459.821	36980.34
460.027	36531.84
460.233	36138.63
460.438	34416.29
460.644	35038.87
460.85	33242.8
461.055	32571.07
461.261	31856.32
461.466	30140.13
461.672	29146.86
461.878	31153.87
462.083	29218.54
462.289	28651.25
462.494	28335.87
462.7	26793.75
462.905	26394.39
463.111	27262.73
463.316	27420.42
463.522	26797.84
463.727	27045.65
463.932	26920.72
464.138	26578.71
464.343	26926.86
464.549	25937.69
464.754	27008.78
464.959	26298.14
465.165	26152.73
465.37	25343.78
465.575	24772.4
465.781	25730.85
465.986	25841.44
466.191	24864.56
466.397	24282.94
466.602	23134.03
466.807	24244.02
467.012	24321.85
467.218	23801.66
467.423	23619.39
467.628	23658.31
467.833	24622.9
468.038	23662.4
468.244	23140.17
468.449	24170.3
468.654	22998.86
468.859	23435.08
469.064	23129.93
469.269	22155.1
469.474	22343.51
469.679	22740.82
469.885	22015.83
470.09	22443.86
470.295	22230.87
470.5	21303.14
470.705	21911.39
470.91	21563.23
471.115	21073.77
471.32	21657.44
471.525	21483.36
471.73	20862.83
471.935	20713.33
472.139	19969.91
472.344	20189.05
472.549	19875.71
472.754	19828.6
472.959	19736.45
473.164	19201.93
473.369	18904.97
473.574	19521.41
473.778	19117.96
473.983	19089.29
474.188	18892.68
474.393	18294.68
474.598	18345.87
474.802	18345.87
475.007	18151.32
475.212	17932.19
475.417	17328.03
475.621	17465.25
475.826	17536.93
476.031	17168.29
476.235	16687.02
476.44	17215.4
476.645	16758.7
476.849	16629.68
477.054	16306.1
477.259	16396.21
477.463	16226.23
477.668	15423.42
477.872	15849.4
478.077	15826.87
478.282	15163.33
478.486	15316.93
478.691	15245.25
478.895	15220.67
479.1	15060.93
479.304	15212.48
479.509	14499.79
479.713	14817.22
479.918	14620.62
480.122	14258.13
480.326	14524.37
480.531	14696.39
480.735	14387.15
480.94	14122.96
481.144	14745.55
481.348	14335.95
481.553	14118.87
481.757	13762.52
481.961	13891.54
482.166	14098.39
482.37	14170.07
482.574	13690.84
482.778	13912.02
482.983	14075.86
483.187	13934.55
483.391	14012.37
483.595	13914.07
483.8	13885.4
484.004	13936.6
484.208	14188.5
484.412	13918.17
484.616	13834.2
484.821	14235.6
485.025	13533.15
485.229	13873.11
485.433	13637.59
485.637	13858.78
485.841	13703.13
486.045	13844.44
486.249	13690.84
486.453	13774.81
486.657	13969.37
486.861	14086.1
487.065	13459.42
487.269	13705.18
487.473	13504.48
487.677	13828.06
487.881	14053.33
488.085	13768.66
488.289	13918.17
488.493	13750.23
488.697	13893.59
488.901	14039
489.105	13998.04
489.309	13991.89
489.512	13989.85
489.716	13864.92
489.92	13899.73
490.124	13946.84
490.328	14043.09
490.531	14190.55
490.735	14102.48
490.939	14104.53
491.143	14229.46
491.346	14329.81
491.55	14446.54
491.754	14266.32
491.958	14399.44
492.161	14493.65
492.365	14700.49
492.569	14516.17
492.772	14598.09
492.976	14817.22
493.18	14942.15
493.383	14829.51
493.587	14774.22
493.79	15343.55
493.994	14952.39
494.197	15157.19
494.401	15288.26
494.605	15237.06
494.808	15523.77
495.012	15282.11
495.215	15579.07
495.419	15706.04
495.622	15978.42
495.825	15816.63
496.029	15921.08
496.232	16248.75
496.436	16168.88
496.639	16625.58
496.843	16404.4
497.046	16953.26
497.249	16861.1
497.453	17141.67
497.656	17188.77
497.859	17119.14
498.063	17450.91
498.266	18061.21
498.469	17837.98
498.673	17919.9
498.876	17915.8
499.079	18499.47
499.282	18605.97
499.485	18872.2
499.689	18911.11
499.892	19292.04
500.095	19208.07
500.298	19433.35
500.501	19376
500.705	20088.7
500.908	20139.9
501.111	20240.25
501.314	20680.56
501.517	20926.32
501.72	21139.3
501.923	20891.5
502.126	21456.74
502.329	21864.29
502.532	21655.39
502.735	21993.31
502.938	22589.27
503.141	22366.04
503.344	22945.61
503.547	23050.06
503.75	23291.72
503.953	23617.35
504.156	23541.57
504.359	23957.31
504.562	24219.45
504.765	24792.88
504.968	24833.84
505.17	24721.2
505.373	25106.22
505.576	25495.33
505.779	25548.58
505.982	25808.67
506.185	26312.47
506.387	26322.71
506.59	26763.03
506.793	26842.9
506.996	27031.31
507.198	27686.66
507.401	27528.97
507.604	27989.76
507.807	28227.32
508.009	28616.44
508.212	28833.52
508.415	29101.81
508.617	29456.11
508.82	29673.19
509.022	29607.65
509.225	30289.63
509.428	30312.16
509.63	30924.5
509.833	30502.62
510.035	31243.98
510.238	31633.1
510.44	31878.85
510.643	32366.27
510.845	32448.19
511.048	32231.1
511.25	32673.46
511.453	33111.73
511.655	34229.92
511.858	33672.87
512.06	33846.95
512.262	34360.99
512.465	34619.03
512.667	34860.69
512.87	35276.43
513.072	35122.83
513.274	35999.37
513.477	36415.1
513.679	36630.14
513.881	36859.51
514.084	36890.23
514.286	37146.23
514.488	37154.42
514.69	38499.94
514.893	38151.78
515.095	38327.91
515.297	38762.08
515.499	39315.03
515.701	39220.82
515.904	39345.75
516.106	40113.73
516.308	40334.92
516.51	40846.91
516.712	40672.83
516.914	41377.33
517.116	42079.78
517.318	41711.15
517.52	42241.57
517.722	42264.1
517.925	42569.25
518.127	43519.51
518.329	43370
518.531	43240.98
518.733	43927.05
518.935	44457.48
519.136	44310.02
519.338	45229.56
519.54	45161.98
519.742	45272.57
519.944	45573.62
520.146	46110.19
520.348	46517.73
520.55	46613.99
520.752	46339.56
520.954	47377.88
521.155	47392.22
521.357	47916.5
521.559	47525.33
521.761	48639.43
521.963	48485.83
522.164	48854.47
522.366	49194.43
522.568	49294.78
522.77	49679.8
522.971	50048.43
523.173	49663.41
523.375	50148.78
523.576	50152.88
523.778	50433.45
523.98	50785.7
524.181	50912.67
524.383	51183.01
524.584	51672.47
524.786	52139.41
524.988	51813.78
525.189	52307.34
525.391	52383.12
525.592	52800.9
525.794	53077.38
525.995	53003.65
526.197	52637.06
526.398	52696.45
526.6	52950.4
526.801	53114.24
527.003	53632.38
527.204	53644.66
527.406	53845.37
527.607	54197.62
527.808	54263.15
528.01	53210.49
528.211	53824.89
528.412	54932.84
528.614	54697.32
528.815	54275.44
529.016	55139.68
529.218	54568.3
529.419	55049.57
529.62	54779.24
529.822	54529.39
530.023	54756.71
530.224	54883.69
530.425	55211.36
530.626	55151.97
530.828	55078.24
531.029	56161.62
531.23	55063.91
531.431	55135.59
531.632	55360.86
531.833	55938.39
532.035	55498.08
532.236	55172.45
532.437	55643.48
532.638	55033.19
532.839	55700.82
533.04	55930.2
533.241	55233.89
533.442	56100.18
533.643	55633.24
533.844	55713.11
534.045	55993.68
534.246	54840.68
534.447	55967.06
534.648	55604.57
534.849	55788.89
535.05	55491.93
535.251	55620.95
535.451	55389.53
535.652	55491.93
535.853	55346.53
536.054	55491.93
536.255	55905.62
536.456	55326.05
536.657	56014.16
536.857	55651.67
537.058	55266.66
537.259	55786.84
537.46	55575.9
537.66	55330.14
537.861	55459.16
538.062	55172.45
538.263	55790.94
538.463	55006.56
538.664	55526.75
538.865	55330.14
539.065	55614.81
539.266	55078.24
539.466	55541.08
539.667	54521.19
539.868	56180.05
540.068	55201.12
540.269	55145.83
540.469	55733.59
540.67	54934.88
540.87	55260.51
541.071	55260.51
541.271	55518.56
541.472	55225.7
541.672	54840.68
541.873	55025
542.073	54472.04
542.274	55278.94
542.474	55065.95
542.675	54187.38
542.875	55004.52
543.075	54578.54
543.276	54435.18
543.476	55334.24
543.676	54805.86
543.877	55154.02
544.077	54728.04
544.277	54877.54
544.478	54662.5
544.678	54957.41
544.878	54818.15
545.078	54852.97
545.279	54037.87
545.479	54383.98
545.679	54865.25
545.879	54629.74
546.079	54549.87
546.28	54744.42
546.48	54625.64
546.68	54760.81
546.88	55076.19
547.08	54365.55
547.28	54441.32
547.48	54467.95
547.68	54889.83
547.88	53861.75
548.081	54709.61
548.281	54144.37
548.481	54113.65
548.681	54457.71
548.881	54211.95
549.081	54410.6
549.28	53841.27
549.48	54459.76
549.68	54048.11
549.88	55000.42
550.08	54091.12
550.28	54052.21
550.48	54130.03
550.68	54140.27
550.88	53986.67
551.08	53984.63
551.279	54050.16
551.479	53613.94
551.679	54183.28
551.879	54214
552.079	54222.19
552.278	53960.05
552.478	53935.48
552.678	53894.52
552.878	53962.1
553.077	54087.03
553.277	53644.66
553.477	54365.55
553.676	53949.81
553.876	53773.69
554.076	53978.48
554.275	53357.95
554.475	53165.44
554.674	53554.55
554.874	53824.89
555.074	53499.26
555.273	53654.9
555.473	53679.48
555.672	53421.44
555.872	53640.57
556.071	53628.28
556.271	53919.09
556.47	53202.3
556.67	52811.14
556.869	53259.65
557.068	53331.32
557.268	52893.06
557.467	52956.55
557.667	52991.36
557.866	52872.58
558.065	52772.23
558.265	52635.02
558.464	52911.49
558.663	53106.05
558.863	52356.49
559.062	53362.04
559.261	52465.03
559.461	53159.3
559.66	52325.77
559.859	52282.76
560.058	52184.46
560.258	52264.33
560.457	51778.96
560.656	52788.61
560.855	52311.44
561.054	52532.62
561.253	51842.45
561.453	52147.6
561.652	51973.52
561.851	52450.7
562.05	51897.75
562.249	51533.21
562.448	52372.88
562.647	51572.12
562.846	51936.66
563.045	51852.69
563.244	51355.04
563.443	51850.64
563.642	51174.81
563.841	51371.42
564.04	51047.84
564.239	51598.74
564.438	51076.51
564.637	51223.97
564.836	51297.69
565.035	50752.93
565.234	51275.16
565.432	50683.3
565.631	50640.29
565.83	50851.23
566.029	50253.23
566.228	50529.7
566.427	50134.45
566.625	50015.66
566.824	49817.01
567.023	50032.05
567.222	49552.82
567.42	50601.38
567.619	49939.89
567.818	49774
568.016	49982.9
568.215	50136.49
568.414	49831.35
568.612	49974.7
568.811	49370.55
569.01	50189.74
569.208	49071.55
569.407	49368.51
569.605	48881.09
569.804	49644.98
570.002	49081.79
570.201	49339.83
570.4	48750.02
570.598	48913.86
570.797	48463.3
570.995	49073.6
571.193	48422.34
571.392	48889.28
571.59	48029.13
571.789	48524.74
571.987	48408.01
572.186	48340.43
572.384	47879.63
572.582	48324.04
572.781	48629.19
572.979	47846.86
573.177	48059.85
573.376	48029.13
573.574	47611.35
573.772	47893.97
573.971	47810
574.169	47128.03
574.367	47287.77
574.565	47861.2
574.763	47572.44
574.962	46826.98
575.16	46550.5
575.358	47164.89
575.556	46603.75
575.754	47246.81
575.952	46452.2
576.151	46796.26
576.349	46777.82
576.547	46224.87
576.745	46233.07
576.943	46421.48
577.141	46302.7
577.339	46276.07
577.537	46245.35
577.735	46075.37
577.933	46042.6
578.131	45792.75
578.329	45276.66
578.527	45166.07
578.725	45651.44
578.923	45528.56
579.121	45338.1
579.319	45061.63
579.516	45200.89
579.714	44965.37
579.912	44942.84
580.11	44846.59
580.308	44529.16
580.506	44580.35
580.704	44146.19
580.901	44772.86
581.099	44752.38
581.297	43748.88
581.495	43847.18
581.692	44301.83
581.89	43841.04
582.088	44232.2
582.285	43728.4
582.483	44189.19
582.681	43851.28
582.878	43533.84
583.076	43101.72
583.274	43441.68
583.471	42587.68
583.669	42751.52
583.866	42575.39
584.064	42995.23
584.262	42335.78
584.459	43286.04
584.657	42485.28
584.854	42712.61
585.052	41799.21
585.249	42454.56
585.447	42053.16
585.644	42180.14
585.841	41895.47
586.039	42163.75
586.236	41750.06
586.434	41383.48
586.631	41705.01
586.828	41569.84
587.026	41451.06
587.223	41160.25
587.42	41250.36
587.618	41180.73
587.815	40646.21
588.012	40742.46
588.21	40603.2
588.407	40914.49
588.604	40656.45
588.801	40482.37
588.999	40631.87
589.196	39870.03
589.393	40253
589.59	40013.38
589.787	39800.4
589.984	39685.71
590.182	39304.79
590.379	39450.19
590.576	39388.75
590.773	39485.01
590.97	39274.07
591.167	39857.74
591.364	39093.85
591.561	39071.32
591.758	38973.02
591.955	38717.02
592.152	38913.62
592.349	38411.87
592.546	38739.55
592.743	38377.06
592.94	37858.92
593.137	38438.5
593.334	38551.13
593.531	37824.11
593.727	37951.08
593.924	37611.12
594.121	37662.32
594.318	37752.43
594.515	37398.13
594.712	37875.3
594.908	37457.52
595.105	37236.34
595.302	36953.72
595.499	37387.89
595.696	36802.17
595.892	36890.23
596.089	36646.52
596.286	36789.88
596.482	36302.46
596.679	36851.32
596.876	36550.27
597.072	36398.72
597.269	36343.42
597.466	35632.78
597.662	35726.99
597.859	35733.13
598.055	36005.51
598.252	35518.09
598.448	35219.09
598.645	35245.71
598.841	34858.65
599.038	35065.49
599.234	35114.64
599.431	34858.65
599.627	34657.95
599.824	34989.72
600.02	34922.13
600.217	34877.08
600.413	35036.82
600.609	34303.65
600.806	34148
601.002	34381.47
601.198	33941.16
601.395	34156.19
601.591	34238.11
601.787	33724.07
601.984	33879.72
602.18	33885.86
602.376	33744.55
602.572	33437.36
602.769	33400.49
602.965	33164.98
603.161	33408.68
603.357	32794.29
603.553	32992.95
603.75	32915.12
603.946	32501.43
604.142	32986.8
604.338	32583.35
604.534	32599.74
604.73	32546.49
604.926	32399.04
605.122	32231.1
605.318	32247.49
605.514	31801.03
605.71	31901.38
605.906	31833.8
606.102	31565.51
606.298	31583.94
606.494	32124.61
606.69	31792.84
606.886	31831.75
607.082	31428.3
607.278	31612.62
607.474	31131.34
607.67	31467.21
607.866	30668.5
608.062	31506.12
608.257	30920.4
608.453	30811.86
608.649	30934.74
608.845	30527.19
609.041	31022.8
609.236	30881.49
609.432	30480.09
609.628	30756.57
609.824	30314.2
610.019	30514.91
610.215	30578.39
610.411	30641.88
610.606	30566.1
610.802	30621.4
610.998	30203.61
611.193	30457.56
611.389	29814.5
611.584	30101.22
611.78	29740.77
611.976	29918.95
612.171	30168.8
612.367	29804.26
612.562	29945.57
612.758	29236.97
612.953	29411.05
613.149	29591.27
613.344	29396.71
613.539	29898.47
613.735	29431.53
613.93	29578.98
614.126	29372.14
614.321	29435.63
614.517	29685.48
614.712	29298.41
614.907	29058.8
615.103	29187.82
615.298	29013.74
615.493	29337.32
615.688	28638.97
615.884	29519.59
616.079	28937.97
616.274	28665.59
616.47	28821.23
616.665	28761.84
616.86	28327.67
617.055	28475.13
617.25	28284.67
617.445	28780.28
617.641	27975.42
617.836	28282.62
618.031	27911.94
618.226	28110.59
618.421	27891.46
618.616	27973.38
618.811	27436.81
619.006	28372.73
619.201	27365.13
619.396	27754.24
619.591	26961.68
619.786	27707.14
619.981	27420.42
620.176	27158.28
620.371	26760.98
620.566	27041.55
620.761	26914.58
620.956	26908.43
621.151	26615.57
621.346	27080.46
621.541	26464.02
621.735	26375.96
621.93	25622.31
622.125	26087.2
622.32	25579.3
622.515	25986.85
622.709	25726.75
622.904	25636.64
623.099	25220.91
623.294	25481
623.488	24989.49
623.683	24969.01
623.878	24657.71
624.072	25009.97
624.267	24704.82
624.462	24543.03
624.656	24303.42
624.851	24297.27
625.046	23813.95
625.24	24074.04
625.435	23596.87
625.629	23646.02
625.824	23482.18
626.018	23678.79
626.213	23236.42
626.407	23433.03
626.602	22642.51
626.796	22931.28
626.991	22962
627.185	22894.41
627.38	22677.33
627.574	22501.2
627.768	22261.59
627.963	22181.72
628.157	22314.84
628.352	22288.21
628.546	21639.01
628.74	22081.37
628.935	21655.39
629.129	21858.14
629.323	21356.39
629.517	21440.36
629.712	21270.37
629.906	21104.49
630.1	20774.77
630.294	21149.54
630.489	20778.86
630.683	20952.94
630.877	20332.4
631.071	20414.32
631.265	20500.34
631.459	20520.82
631.653	20371.32
631.848	20078.46
632.042	20213.62
632.236	19959.67
632.43	19963.77
632.624	20111.22
632.818	19593.09
633.012	19253.12
633.206	19292.04
633.4	19466.11
633.594	18995.08
633.788	19267.46
633.982	18984.84
634.176	18970.51
634.369	18845.58
634.563	18782.09
634.757	18544.53
634.951	18642.83
635.145	18577.3
635.339	18458.51
635.533	18302.87
635.726	18356.11
635.92	18061.21
636.114	18065.3
636.308	17751.96
636.501	17735.58
636.695	17829.79
636.889	17489.82
637.083	17463.2
637.276	17459.1
637.47	17289.12
637.664	17133.48
637.857	17104.81
638.051	17215.4
638.244	16897.96
638.438	16709.55
638.632	16957.35
638.825	16644.01
639.019	16560.05
639.212	16443.31
639.406	16496.56
639.599	16383.92
639.793	16418.74
639.986	16349.11
640.18	16048.05
640.373	16224.18
640.567	15873.98
640.76	16013.24
640.954	15687.61
641.147	15861.69
641.34	15720.38
641.534	15531.97
641.727	15599.55
641.92	15650.75
642.114	15290.31
642.307	15202.24
642.5	15122.37
642.694	14907.34
642.887	14796.74
643.08	15128.52
643.273	14741.45
643.467	14874.57
643.66	14749.64
643.853	14512.08
644.046	14385.1
644.239	14299.09
644.432	14245.84
644.626	14213.07
644.819	14340.05
645.012	14227.41
645.205	14200.79
645.398	14233.55
645.591	13907.93
645.784	14168.02
645.977	13830.1
646.17	13983.7
646.363	13445.09
646.556	13610.97
646.749	13623.26
646.942	13660.12
647.135	13408.22
647.328	13246.43
647.521	13266.91
647.714	13240.29
647.907	13131.75
648.099	13002.72
648.292	12945.38
648.485	13131.75
648.678	12914.66
648.871	12881.89
649.064	12775.4
649.256	12668.91
649.449	12519.4
649.642	12541.93
649.835	12257.26
650.027	12365.81
650.22	12382.19
650.413	12281.84
650.605	12244.98
650.798	12287.98
650.991	12062.71
651.183	12189.68
651.376	12007.41
651.568	12040.18
651.761	11939.83
651.954	11831.29
652.146	11958.26
652.339	12003.32
652.531	11782.13
652.724	11350.01
652.916	11440.12
653.109	11571.19
653.301	11311.1
653.494	11417.6
653.686	11077.63
653.879	11284.48
654.071	11290.62
654.263	10930.18
654.456	11005.95
654.648	11057.15
654.84	10721.29
655.033	10795.01
655.225	10852.36
655.417	10551.31
655.61	10747.91
655.802	10743.81
655.994	10473.48
656.186	10405.9
656.379	10459.15
656.571	10520.59
656.763	10213.39
656.955	10362.89
657.148	10393.61
657.34	10305.55
657.532	10346.51
657.724	10078.22
657.916	9918.48
658.108	10004.5
658.3	9949.2
658.492	10065.94
658.684	9742.36
658.876	9953.3
659.068	9648.15
659.26	9635.86
659.452	9494.55
659.644	9621.53
659.836	9437.21
660.028	9484.31
660.22	9590.81
660.412	9562.14
660.604	9193.5
660.796	9185.31
660.988	9244.7
661.18	9330.72
661.372	9246.75
661.563	9107.49
661.755	9084.96
661.947	8888.36
662.139	8906.79
662.331	8892.45
662.522	8874.02
662.714	8802.34
662.906	8597.54
663.097	8601.64
663.289	8697.89
663.481	8747.05
663.673	8544.3
663.864	8478.76
664.056	8474.67
664.247	8323.12
664.439	8476.71
664.631	8351.79
664.822	8462.38
665.014	8495.15
665.205	8239.15
665.397	8183.85
665.588	8247.34
665.78	8017.97
665.971	8013.87
666.163	8013.87
666.354	8060.98
666.546	7755.83
666.737	7694.39
666.929	7708.73
667.12	7903.28
667.311	7784.5
667.503	7845.94
667.694	7737.4
667.885	7745.59
668.077	7794.74
668.268	7540.79
668.459	7333.95
668.651	7630.9
668.842	7471.16
669.033	7591.99
669.224	7467.06
669.416	7487.54
669.607	7364.67
669.798	7211.07
669.989	7405.63
670.18	7174.21
670.371	7276.6
670.563	7053.38
670.754	7192.64
670.945	7098.43
671.136	7020.61
671.327	7096.38
671.518	7057.47
671.709	7202.88
671.9	7237.69
672.091	6996.03
672.282	6844.48
672.473	6781
672.664	7006.27
672.855	6817.86
673.046	6807.62
673.237	6844.48
673.428	6885.44
673.619	6725.7
673.809	6623.3
674	6688.84
674.191	6733.89
674.382	6494.28
674.573	6760.52
674.764	6520.9
674.954	6568.01
675.145	6744.13
675.336	6481.99
675.527	6436.94
675.717	6465.61
675.908	6301.77
676.099	6350.92
676.289	6170.7
676.48	6449.22
676.671	6152.27
676.861	6342.73
677.052	6117.45
677.243	6006.86
677.433	6230.09
677.624	6125.65
677.814	6174.8
678.005	6060.11
678.195	6146.12
678.386	6027.34
678.576	6107.21
678.767	6037.58
678.957	5935.18
679.148	6205.52
679.338	6017.1
679.529	5988.43
679.719	5683.28
679.909	6053.97
680.1	5881.94
680.29	5976.14
680.481	5896.27
680.671	5924.94
680.861	5773.39
681.052	5826.64
681.242	5750.87
681.432	5970
681.622	5767.25
681.813	5722.2
682.003	5584.98
682.193	5777.49
682.383	5582.93
682.573	5722.2
682.764	5548.12
682.954	5685.33
683.144	5492.82
683.334	5484.63
683.524	5587.03
683.714	5453.91
683.904	5509.21
684.094	5464.15
684.284	5492.82
684.474	5519.45
684.664	5369.94
684.854	5396.57
685.044	5521.49
685.234	5410.9
685.424	5300.31
685.614	5285.98
685.804	5259.35
685.994	5310.55
686.184	5458.01
686.374	5197.92
686.564	5236.83
686.753	5279.83
686.943	5187.68
687.133	5159
687.323	5089.37
687.513	5177.44
687.702	5099.61
687.892	4876.38
688.082	5118.04
688.272	5085.28
688.461	5072.99
688.651	4986.97
688.841	4909.15
689.03	4860
689.22	4741.22
689.41	4845.66
689.599	5005.41
689.789	4935.78
689.979	4661.35
690.168	4720.74
690.358	4724.83
690.547	4683.88
690.737	4618.34
690.926	4667.49
691.116	4583.52
691.305	4853.86
691.495	4647.01
691.684	4561
691.874	4644.96
692.063	4466.79
692.252	4573.28
692.442	4571.24
692.631	4290.67
692.82	4436.07
693.01	4294.76
693.199	4421.74
693.388	4323.43
693.578	4280.43
693.767	4372.58
693.956	4186.22
694.146	4128.88
694.335	4237.42
694.524	4194.41
694.713	4245.61
694.902	4192.36
695.092	4325.48
695.281	4167.79
695.47	4018.29
695.659	4087.92
695.848	4085.87
696.037	4126.83
696.226	4067.44
696.415	4022.38
696.604	4167.79
696.793	3987.57
696.982	4081.77
697.171	4098.16
697.36	3876.98
697.549	4032.62
697.738	3889.26
697.927	3850.35
698.116	3911.79
698.305	3844.21
698.494	3827.82
698.683	3758.19
698.872	3838.06
699.061	3815.54
699.25	3856.5
699.438	3833.97
699.627	3766.39
699.816	3741.81
700.005	3727.47
700.193	3813.49
700.382	3737.71
700.571	3840.11
700.76	3942.51
700.948	3602.55
701.137	3678.32
701.326	3735.67
701.514	3641.46
701.703	3756.15
701.892	3618.93
702.08	3618.93
702.269	3711.09
702.457	3491.96
702.646	3633.27
702.834	3530.87
703.023	3670.13
703.212	3584.12
703.4	3539.06
703.589	3518.58
703.777	3420.28
703.965	3463.29
704.154	3448.95
704.342	3438.71
704.531	3461.24
704.719	3377.27
704.907	3643.51
705.096	3405.94
705.284	3375.22
705.472	3502.2
705.661	3369.08
705.849	3491.96
706.037	3358.84
706.226	3407.99
706.414	3391.61
706.602	3285.11
706.79	3342.46
706.979	3184.76
707.167	3344.5
707.355	3184.76
707.543	3428.47
707.731	3291.26
707.919	3289.21
708.107	3369.08
708.296	3330.17
708.484	3252.35
708.672	3317.88
708.86	3258.49
709.048	3373.18
709.236	3348.6
709.424	3278.97
709.612	3303.54
709.8	3205.24
709.988	3143.8
710.176	3143.8
710.364	3311.74
710.551	3287.16
710.739	3303.54
710.927	3274.87
711.115	3174.52
711.303	3203.19
711.491	3217.53
711.679	3084.41
711.866	3074.17
712.054	3086.46
712.242	3170.43
712.43	3041.4
712.617	3158.14
712.805	3240.06
712.993	3135.61
713.181	3029.12
713.368	3141.75
713.556	3010.68
713.744	3100.8
713.931	3098.75
714.119	3037.31
714.306	3055.74
714.494	3170.43
714.682	3076.22
714.869	3014.78
715.057	2998.4
715.244	3086.46
715.432	2959.49
715.619	3106.94
715.807	2975.87
715.994	3205.24
716.182	3088.51
716.369	3160.19
716.556	2988.16
716.744	3102.84
716.931	3022.97
717.119	3068.03
717.306	3092.6
717.493	2977.92
717.681	2955.39
717.868	3111.04
718.055	2990.21
718.242	2900.09
718.43	3051.64
718.617	3018.88
718.804	3047.55
718.991	3008.64
719.179	3078.27
719.366	2834.56
719.553	2951.29
719.74	2975.87
719.927	2902.14
720.114	3027.07
720.301	3008.64
720.488	2885.76
720.676	3018.88
720.863	2947.2
721.05	3022.97
721.237	2914.43
721.424	2955.39
721.611	2879.61
721.798	3025.02
721.985	2850.94
722.172	2965.63
722.358	2943.1
722.545	2912.38
722.732	2887.81
722.919	2967.68
723.106	2855.04
723.293	2795.65
723.48	2914.43
723.667	2916.48
723.853	2855.04
724.04	2889.85
724.227	2848.9
724.414	2934.91
724.6	2914.43
724.787	2992.25
724.974	2959.49
725.161	2957.44
725.347	2797.7
725.534	2984.06
725.72	2902.14
725.907	3025.02
726.094	2967.68
726.28	2783.36
726.467	2969.73
726.653	2846.85
726.84	2910.33
727.027	2957.44
727.213	2824.32
727.4	2939.01
727.586	2873.47
727.773	2807.94
727.959	2879.61
728.145	2867.33
728.332	2891.9
728.518	2844.8
728.705	2887.81
728.891	2918.53
729.077	2832.51
729.264	2885.76
729.45	3010.68
729.636	2914.43
729.823	2982.01
730.009	2920.57
730.195	2893.95
730.382	2922.62
730.568	2883.71
730.754	2951.29
730.94	2994.3
731.126	2951.29
731.313	3018.88
731.499	2932.86
731.685	3002.49
731.871	3000.44
732.057	3123.32
732.243	2998.4
732.429	2947.2
732.615	3033.21
732.801	2893.95
732.987	2824.32
733.173	2953.34
733.359	2977.92
733.545	2887.81
733.731	2828.42
733.917	2922.62
734.103	3029.12
734.289	2977.92
734.475	2902.14
734.661	3000.44
734.847	2971.77
735.033	3104.89
735.219	3039.36
735.404	2963.58
735.59	3012.73
735.776	2867.33
735.962	2912.38
736.148	2953.34
736.333	3102.84
736.519	2939.01
736.705	3004.54
736.89	3065.98
737.076	3012.73
737.262	2896
737.447	2998.4
737.633	2885.76
737.819	2959.49
738.004	2961.53
738.19	2984.06
738.375	3004.54
738.561	3090.56
738.747	3096.7
738.932	3022.97
739.118	3012.73
739.303	2922.62
739.489	2984.06
739.674	2990.21
739.859	3002.49
740.045	3008.64
740.23	2951.29
740.416	2926.72
740.601	2926.72
740.786	2908.29
740.972	3018.88
741.157	2975.87
741.342	2875.52
741.528	2920.57
741.713	2957.44
741.898	2945.15
742.084	3053.69
742.269	2871.42
742.454	2986.11
742.639	2994.3
742.824	2916.48
743.01	2955.39
743.195	2766.98
743.38	3010.68
743.565	2857.09
743.75	2920.57
743.935	2863.23
744.12	2941.05
744.305	2771.07
744.49	2726.02
744.675	2766.98
744.86	2834.56
745.045	2769.02
745.23	2799.74
745.415	2859.14
745.6	2715.78
745.785	2857.09
745.97	2756.74
746.155	2740.35
746.34	2742.4
746.525	2672.77
746.71	2906.24
746.895	2826.37
747.079	2594.95
747.264	2764.93
747.449	2594.95
747.634	2625.67
747.819	2734.21
748.003	2689.15
748.188	2609.28
748.373	2711.68
748.557	2642.05
748.742	2568.32
748.927	2609.28
749.111	2664.58
749.296	2586.76
749.481	2723.97
749.665	2678.91
749.85	2609.28
750.034	2652.29
750.219	2582.66
750.404	2443.4
750.588	2472.07
750.773	2246.79
750.957	2443.4
751.141	2453.64
751.326	2433.16
751.51	2384.01
751.695	2470.02
751.879	2361.48
752.064	2453.64
752.248	2461.83
752.432	2363.53
752.617	2431.11
752.801	2345.09
752.985	2377.86
753.17	2211.98
753.354	2353.29
753.538	2367.62
753.722	2336.9
753.907	2240.65
754.091	2142.35
754.275	2191.5
754.459	2295.94
754.643	2207.88
754.828	2160.78
755.012	2134.15
755.196	2130.06
755.38	2222.22
755.564	1996.94
755.748	2209.93
755.932	2119.82
756.116	2105.48
756.3	2029.71
756.484	2037.9
756.668	2060.43
756.852	2087.05
757.036	2070.67
757.22	2023.56
757.404	2005.13
757.588	1939.6
757.772	1998.99
757.956	2029.71
758.14	1953.93
758.323	1898.64
758.507	1915.02
758.691	1925.26
758.875	1978.51
759.059	1906.83
759.242	1890.45
759.426	1917.07
759.61	1904.78
759.794	1890.45
759.977	1861.77
760.161	1902.73
760.345	2001.04
760.528	1888.4
760.712	1765.52
760.895	1722.51
761.079	1802.38
761.263	1730.7
761.446	1689.74
761.63	1759.38
761.813	1710.22
761.997	1804.43
762.18	1724.56
762.364	1765.52
762.547	1769.62
762.731	1804.43
762.914	1747.09
763.098	1761.42
763.281	1669.27
763.464	1618.07
763.648	1755.28
763.831	1616.02
764.015	1720.46
764.198	1675.41
764.381	1632.4
764.564	1677.46
764.748	1575.06
764.931	1685.65
765.114	1593.49
765.297	1595.54
765.481	1515.67
765.664	1654.93
765.847	1552.53
766.03	1648.79
766.213	1581.2
766.397	1544.34
766.58	1495.19
766.763	1560.72
766.946	1505.43
767.129	1644.69
767.312	1515.67
767.495	1589.39
767.678	1513.62
767.861	1519.76
768.044	1575.06
768.227	1517.72
768.41	1499.28
768.593	1491.09
768.776	1599.63
768.959	1376.41
769.142	1482.9
769.324	1405.08
769.507	1431.7
769.69	1493.14
769.873	1570.96
770.056	1452.18
770.239	1372.31
770.421	1470.61
770.604	1439.89
770.787	1425.56
770.97	1425.56
771.152	1409.17
771.335	1458.32
771.518	1394.84
771.7	1349.78
771.883	1419.41
772.066	1343.64
772.248	1317.01
772.431	1296.53
772.613	1343.64
772.796	1284.25
772.978	1306.77
773.161	1337.49
773.343	1278.1
773.526	1351.83
773.708	1263.77
773.891	1317.01
774.073	1351.83
774.256	1312.92
774.438	1396.89
774.621	1286.3
774.803	1274.01
774.985	1249.43
775.168	1261.72
775.35	1222.81
775.532	1212.57
775.715	1276.06
775.897	1251.48
776.079	1294.49
776.261	1106.07
776.444	1149.08
776.626	1114.27
776.808	1099.93
776.99	1110.17
777.173	1046.68
777.355	1185.94
777.537	1118.36
777.719	1138.84
777.901	1071.26
778.083	1036.44
778.265	1093.79
778.447	1151.13
778.629	1048.73
778.811	1106.07
778.993	1038.49
779.175	1104.03
779.357	995.48
779.539	981.15
779.721	1056.92
779.903	1015.96
780.085	1061.02
780.267	962.72
780.449	1063.07
780.631	1022.11
780.812	1038.49
780.994	989.34
781.176	1001.63
781.358	927.9
781.54	929.95
781.721	958.62
781.903	1030.3
782.085	962.72
782.267	960.67
782.448	932
782.63	800.93
782.812	866.46
782.993	821.41
783.175	919.71
783.357	766.11
783.538	817.31
783.72	782.49
783.901	899.23
784.083	915.61
784.264	852.13
784.446	768.16
784.627	827.55
784.809	897.18
784.99	712.86
785.172	811.17
785.353	780.45
785.535	835.74
785.716	778.4
785.897	776.35
786.079	784.54
786.26	759.97
786.441	735.39
786.623	671.9
786.804	772.25
786.985	669.86
787.167	743.58
787.348	727.2
787.529	708.77
787.71	809.12
787.891	811.17
788.073	753.82
788.254	645.28
788.435	719.01
788.616	657.57
788.797	581.79
788.978	557.22
789.159	671.9
789.34	655.52
789.522	692.38
789.703	659.62
789.884	745.63
790.065	700.58
790.246	688.29
790.427	604.32
790.607	546.98
790.788	473.25
790.969	585.89
791.15	657.57
791.331	577.7
791.512	610.47
791.693	522.4
791.874	618.66
792.054	669.86
792.235	676
792.416	528.55
792.597	514.21
792.778	612.51
792.958	598.18
793.139	602.27
793.32	553.12
793.5	577.7
793.681	579.75
793.862	446.63
794.042	530.59
794.223	483.49
794.404	553.12
794.584	426.15
794.765	538.79
794.945	446.63
795.126	532.64
795.306	514.21
795.487	510.11
795.667	501.92
795.848	479.4
796.028	440.48
796.209	458.92
796.389	463.01
796.57	471.2
796.75	434.34
796.93	448.68
797.111	432.29
797.291	463.01
797.471	446.63
797.652	475.3
797.832	417.96
798.012	399.52
798.192	407.72
798.373	389.28
798.553	503.97
798.733	510.11
798.913	393.38
799.093	446.63
799.274	458.92
799.454	540.83
799.634	452.77
799.814	424.1
799.994	440.48
800.174	477.35
800.354	370.85
800.534	426.15
800.714	403.62
800.894	372.9
801.074	368.81
801.254	356.52
801.434	428.2
801.614	391.33
801.794	454.82
801.974	1022.11
802.154	317.61
802.334	438.44
802.514	305.32
802.693	356.52
802.873	342.18
803.053	364.71
803.233	344.23
803.413	391.33
803.592	346.28
803.772	409.76
803.952	286.89
804.131	399.52
804.311	381.09
804.491	364.71
804.67	358.57
804.85	399.52
805.03	368.81
805.209	364.71
805.389	278.69
805.568	346.28
805.748	327.85
805.928	352.42
806.107	327.85
806.287	356.52
806.466	276.65
806.646	387.24
806.825	299.17
807.004	348.33
807.184	282.79
807.363	383.14
807.543	327.85
807.722	282.79
807.901	409.76
808.081	377
808.26	268.45
808.439	221.35
808.619	286.89
808.798	274.6
808.977	239.78
809.156	379.04
809.336	317.61
809.515	350.37
809.694	223.4
809.873	295.08
810.052	319.65
810.231	290.98
810.411	299.17
810.59	200.87
810.769	270.5
810.948	321.7
811.127	280.74
811.306	268.45
811.485	233.64
811.664	309.41
811.843	239.78
812.022	323.75
812.201	284.84
812.38	323.75
812.559	209.06
812.737	258.21
812.916	233.64
813.095	256.17
813.274	215.21
813.453	190.63
813.632	250.02
813.811	243.88
813.989	194.73
814.168	268.45
814.347	274.6
814.526	286.89
814.704	288.93
814.883	215.21
815.062	225.45
815.24	243.88
815.419	172.2
815.598	178.34
815.776	211.11
815.955	288.93
816.133	198.82
816.312	239.78
816.49	225.45
816.669	180.39
816.847	217.26
817.026	272.55
817.204	211.11
817.383	239.78
817.561	219.3
817.74	225.45
817.918	172.2
818.097	243.88
818.275	164.01
818.453	256.17
818.632	174.25
818.81	223.4
818.988	145.58
819.167	211.11
819.345	151.72
819.523	241.83
819.701	219.3
819.879	278.69
820.058	157.86
820.236	264.36
820.414	170.15
820.592	209.06
820.77	200.87
820.948	139.43
821.127	166.06
821.305	161.96
821.483	166.06
821.661	168.1
821.839	202.92
822.017	129.19
822.195	186.54
822.373	207.02
822.551	178.34
822.729	157.86
822.907	118.95
823.085	235.69
823.262	219.3
823.44	121
823.618	200.87
823.796	161.96
823.974	153.77
824.152	155.82
824.329	161.96
824.507	276.65
824.685	180.39
824.863	198.82
825.04	131.24
825.218	139.43
825.396	155.82
825.574	159.91
825.751	168.1
825.929	196.78
826.107	112.81
826.284	225.45
826.462	157.86
826.639	125.1
826.817	125.1
826.994	127.14
827.172	127.14
827.349	147.62
827.527	123.05
827.704	192.68
827.882	194.73
828.059	168.1
828.237	155.82
828.414	198.82
828.591	114.86
828.769	137.38
828.946	164.01
829.124	155.82
829.301	159.91
829.478	137.38
829.655	151.72
829.833	71.85
830.01	41.13
830.187	168.1
830.364	112.81
830.542	147.62
830.719	127.14
830.896	192.68
831.073	157.86
831.25	67.75
831.427	82.09
831.604	131.24
831.782	90.28
831.959	184.49
832.136	112.81
832.313	116.9
832.49	77.99
832.667	170.15
832.844	153.77
833.021	194.73
833.198	98.47
833.374	100.52
833.551	84.14
833.728	135.34
833.905	100.52
834.082	88.23
834.259	125.1
834.436	106.67
834.612	51.37
834.789	108.71
834.966	149.67
835.143	77.99
835.319	65.71
835.496	84.14
835.673	137.38
835.85	104.62
836.026	139.43
836.203	125.1
836.38	118.95
836.556	8.36
836.733	133.29
836.909	116.9
837.086	75.95
837.262	6.31
837.439	123.05
837.616	116.9
837.792	145.58
837.968	43.18
838.145	37.03
838.321	88.23
838.498	116.9
838.674	53.42
838.851	57.51
839.027	67.75
839.203	67.75
839.38	168.1
839.556	139.43
839.732	84.14
839.909	86.19
840.085	37.03
840.261	106.67
840.437	166.06
840.614	108.71
840.79	127.14
840.966	155.82
841.142	125.1
841.318	100.52
841.494	84.14
841.671	112.81
841.847	71.85
842.023	2.22
842.199	174.25
842.375	131.24
842.551	-10.07
842.727	86.19
842.903	127.14
843.079	149.67
843.255	131.24
843.431	53.42
843.607	47.27
843.783	86.19
843.959	86.19
844.134	96.43
844.31	114.86
844.486	41.13
844.662	82.09
844.838	37.03
845.013	73.9
845.189	129.19
845.365	84.14
845.541	125.1
845.716	125.1
845.892	90.28
846.068	32.94
846.244	94.38
846.419	100.52
846.595	84.14
846.77	86.19
846.946	108.71
847.122	51.37
847.297	90.28
847.473	22.7
847.648	-1.88
847.824	125.1
847.999	-40.79
848.175	32.94
848.35	108.71
848.526	137.38
848.701	47.27
848.876	45.23
849.052	45.23
849.227	67.75
849.403	123.05
849.578	61.61
849.753	100.52
849.929	100.52
850.104	14.51
850.279	125.1
850.454	53.42
850.63	63.66
850.805	110.76
850.98	86.19
851.155	98.47
851.33	100.52
851.505	26.79
851.681	121
851.856	118.95
852.031	110.76
852.206	26.79
852.381	-22.36
852.556	12.46
852.731	51.37
852.906	110.76
853.081	90.28
853.256	69.8
853.431	125.1
853.606	77.99
853.781	24.75
853.956	55.47
854.131	37.03
854.305	41.13
854.48	98.47
854.655	49.32
854.83	94.38
855.005	32.94
855.18	37.03
855.354	90.28
855.529	73.9
855.704	127.14
855.879	80.04
856.053	41.13
856.228	84.14
856.403	-24.4
856.577	92.33
856.752	53.42
856.926	45.23
857.101	12.46
857.276	37.03
857.45	2.22
857.625	63.66
857.799	20.65
857.974	-8.02
858.148	-18.26
858.323	47.27
858.497	45.23
858.672	96.43
858.846	-36.69
859.02	71.85
859.195	8.36
859.369	-28.5
859.543	59.56
859.718	20.65
859.892	88.23
860.066	57.51
860.241	2.22
860.415	63.66
860.589	-10.07
860.763	37.03
860.938	-89.94
861.112	-44.88
861.286	-18.26
861.46	100.52
861.634	59.56
861.808	131.24
861.982	-1.88
862.157	73.9
862.331	-28.5
862.505	32.94
862.679	22.7
862.853	-12.12
863.027	18.6
863.201	127.14
863.375	10.41
863.549	123.05
863.722	-10.07
863.896	80.04
864.07	-30.55
864.244	45.23
864.418	-26.45
864.592	-40.79
864.766	28.84
864.939	20.65
865.113	-91.99
865.287	116.9
865.461	22.7
865.634	-30.55
865.808	41.13
865.982	-38.74
866.156	-24.4
866.329	37.03
866.503	22.7
866.676	12.46
866.85	30.89
867.024	57.51
867.197	75.95
867.371	92.33
867.544	18.6
867.718	37.03
867.891	63.66
868.065	-36.69
868.238	-5.97
868.412	75.95
868.585	16.55
868.759	41.13
868.932	73.9
869.105	-5.97
869.279	12.46
869.452	18.6
869.625	-22.36
869.799	63.66
869.972	75.95
870.145	45.23
870.319	65.71
870.492	71.85
870.665	0.17
870.838	-1.88
871.011	10.41
871.185	57.51
871.358	-10.07
871.531	-20.31
871.704	67.75
871.877	57.51
872.05	-10.07
872.223	16.55
872.396	26.79
872.569	2.22
872.742	-14.17
872.915	-1.88
873.088	-8.02
873.261	-32.6
873.434	8.36
873.607	155.82
873.78	26.79
873.953	14.51
874.126	20.65
874.299	53.42
874.471	-12.12
874.644	-73.56
874.817	22.7
874.99	108.71
875.163	-55.12
875.335	26.79
875.508	-24.4
875.681	145.58
875.853	39.08
876.026	43.18
876.199	16.55
876.371	57.51
876.544	10.41
876.717	37.03
876.889	39.08
877.062	51.37
877.234	-20.31
877.407	47.27
877.579	22.7
877.752	39.08
877.924	57.51
878.097	-38.74
878.269	18.6
878.442	84.14
878.614	0.17
878.786	65.71
878.959	-55.12
879.131	41.13
879.303	-5.97
879.476	-32.6
879.648	20.65
879.82	45.23
879.993	2.22
880.165	-71.51
880.337	-1.88
880.509	16.55
880.681	16.55
880.854	-12.12
881.026	14.51
881.198	67.75
881.37	57.51
881.542	41.13
881.714	2.22
881.886	71.85
882.058	-32.6
882.23	4.27
882.402	-12.12
882.574	-67.41
882.746	24.75
882.918	59.56
883.09	49.32
883.262	16.55
883.434	34.99
883.606	0.17
883.778	34.99
883.95	20.65
884.122	-28.5
884.293	51.37
884.465	75.95
884.637	-32.6
884.809	-46.93
884.98	-40.79
885.152	32.94
885.324	12.46
885.496	65.71
885.667	45.23
885.839	47.27
886.011	37.03
886.182	-12.12
886.354	75.95
886.525	59.56
886.697	45.23
886.869	37.03
887.04	-32.6
887.212	32.94
887.383	84.14
887.555	2.22
887.726	-16.21
887.897	49.32
888.069	57.51
888.24	43.18
888.412	-10.07
888.583	41.13
888.754	32.94
888.926	-73.56
889.097	24.75
889.268	-14.17
889.44	18.6
889.611	14.51
889.782	-22.36
889.953	-34.64
890.125	65.71
890.296	-32.6
890.467	-26.45
890.638	-28.5
890.809	6.31
890.98	-48.98
891.151	30.89
891.323	45.23
891.494	28.84
891.665	-22.36
891.836	-42.84
892.007	24.75
892.178	34.99
892.349	8.36
892.52	65.71
892.691	0.17
892.862	-32.6
893.032	-5.97
893.203	47.27
893.374	-24.4
893.545	63.66
893.716	26.79
893.887	34.99
894.057	49.32
894.228	67.75
894.399	8.36
894.57	39.08
894.74	-1.88
894.911	75.95
895.082	-8.02
895.253	34.99
895.423	82.09
895.594	14.51
895.764	114.86
895.935	26.79
896.106	-44.88
896.276	4.27
896.447	30.89
896.617	71.85
896.788	-12.12
896.958	-28.5
897.129	2.22
897.299	59.56
897.47	22.7
897.64	-1.88
897.81	-28.5
897.981	18.6
898.151	-24.4
898.322	47.27
898.492	61.61
898.662	-38.74
898.832	10.41
899.003	-75.6
899.173	6.31
899.343	0.17
899.513	18.6
