Data from USB4F104151__23__12-41-08-005.txt Node

Date: Fri Mar 14 12:41:08 EDT 2025
User: louis
Spectrometer: USB4F10415
Trigger mode: 4
Integration Time (sec): 3.000000E-2
Scans to average: 1
Electric dark correction enabled: true
Nonlinearity correction enabled: false
Boxcar width: 0
XAxis mode: Wavelengths
Number of Pixels in Spectrum: 3648
>>>>>Begin Spectral Data<<<<<
178.204	-51.54
178.424	-51.54
178.644	-51.54
178.864	-92.5
179.084	-160.08
179.304	-8.53
179.524	-53.59
179.744	57
179.964	-22.87
180.184	-8.53
180.404	44.71
180.624	-18.77
180.844	-12.63
181.064	5.8
181.283	-8.53
181.503	9.9
181.723	16.04
181.943	-80.21
182.163	38.57
182.383	3.75
182.602	11.95
182.822	30.38
183.042	48.81
183.262	44.71
183.482	30.38
183.701	7.85
183.921	18.09
184.141	36.52
184.361	-31.06
184.58	-22.87
184.8	-43.35
185.02	-33.11
185.239	61.1
185.459	5.8
185.679	48.81
185.898	-45.4
186.118	11.95
186.338	-20.82
186.557	28.33
186.777	13.99
186.997	57
187.216	57
187.436	114.34
187.655	73.39
187.875	5.8
188.095	44.71
188.314	40.62
188.534	95.91
188.753	-8.53
188.973	67.24
189.192	61.1
189.412	13.99
189.631	42.67
189.851	83.63
190.07	95.91
190.29	-12.63
190.509	-49.49
190.729	34.47
190.948	104.11
191.168	132.78
191.387	18.09
191.607	44.71
191.826	-8.53
192.045	13.99
192.265	13.99
192.484	-6.49
192.704	75.43
192.923	-49.49
193.142	61.1
193.362	36.52
193.581	89.77
193.8	89.77
194.02	100.01
194.239	7.85
194.458	-8.53
194.678	59.05
194.897	11.95
195.116	9.9
195.335	-26.96
195.555	95.91
195.774	7.85
195.993	11.95
196.212	16.04
196.432	9.9
196.651	28.33
196.87	34.47
197.089	114.34
197.308	-26.96
197.528	-6.49
197.747	-18.77
197.966	-22.87
198.185	40.62
198.404	-6.49
198.623	69.29
198.842	46.76
199.062	59.05
199.281	52.91
199.5	13.99
199.719	57
199.938	61.1
200.157	-0.34
200.376	83.63
200.595	48.81
200.814	-6.49
201.033	61.1
201.252	38.57
201.471	24.23
201.69	48.81
201.909	42.67
202.128	-14.68
202.347	40.62
202.566	57
202.785	-37.2
203.004	57
203.223	89.77
203.442	22.19
203.661	65.19
203.879	-4.44
204.098	5.8
204.317	-37.2
204.536	95.91
204.755	7.85
204.974	83.63
205.193	50.86
205.411	140.97
205.63	26.28
205.849	-53.59
206.068	7.85
206.287	20.14
206.505	112.3
206.724	-8.53
206.943	-55.64
207.162	-24.92
207.381	28.33
207.599	9.9
207.818	59.05
208.037	-8.53
208.255	89.77
208.474	28.33
208.693	20.14
208.911	-18.77
209.13	87.72
209.349	-8.53
209.567	59.05
209.786	85.67
210.005	52.91
210.223	-16.73
210.442	-24.92
210.661	-12.63
210.879	63.15
211.098	13.99
211.316	13.99
211.535	75.43
211.753	24.23
211.972	91.82
212.191	-14.68
212.409	79.53
212.628	7.85
212.846	50.86
213.065	83.63
213.283	16.04
213.502	-12.63
213.72	65.19
213.938	34.47
214.157	20.14
214.375	59.05
214.594	-8.53
214.812	81.58
215.031	67.24
215.249	67.24
215.467	7.85
215.686	77.48
215.904	93.87
216.122	77.48
216.341	13.99
216.559	116.39
216.778	89.77
216.996	87.72
217.214	42.67
217.432	48.81
217.651	22.19
217.869	-24.92
218.087	104.11
218.306	-0.34
218.524	102.06
218.742	52.91
218.96	65.19
219.179	89.77
219.397	71.34
219.615	75.43
219.833	-10.58
220.051	44.71
220.27	108.2
220.488	20.14
220.706	22.19
220.924	7.85
221.142	71.34
221.36	5.8
221.578	46.76
221.796	-29.01
222.015	67.24
222.233	-18.77
222.451	77.48
222.669	7.85
222.887	-12.63
223.105	-14.68
223.323	44.71
223.541	77.48
223.759	67.24
223.977	-6.49
224.195	91.82
224.413	24.23
224.631	61.1
224.849	9.9
225.067	42.67
225.285	26.28
225.503	11.95
225.721	36.52
225.939	44.71
226.157	46.76
226.375	52.91
226.592	-14.68
226.81	11.95
227.028	69.29
227.246	57
227.464	81.58
227.682	-14.68
227.9	34.47
228.117	42.67
228.335	9.9
228.553	59.05
228.771	1.71
228.989	134.82
229.206	24.23
229.424	-37.2
229.642	-10.58
229.86	5.8
230.077	112.3
230.295	40.62
230.513	79.53
230.731	42.67
230.948	16.04
231.166	67.24
231.384	42.67
231.601	48.81
231.819	48.81
232.037	5.8
232.254	-6.49
232.472	28.33
232.689	-10.58
232.907	83.63
233.125	-14.68
233.342	50.86
233.56	36.52
233.777	18.09
233.995	-6.49
234.213	54.95
234.43	50.86
234.648	20.14
234.865	1.71
235.083	38.57
235.3	44.71
235.518	46.76
235.735	91.82
235.953	20.14
236.17	50.86
236.388	20.14
236.605	22.19
236.822	22.19
237.04	36.52
237.257	73.39
237.475	5.8
237.692	40.62
237.909	52.91
238.127	89.77
238.344	54.95
238.562	-8.53
238.779	22.19
238.996	67.24
239.214	30.38
239.431	42.67
239.648	13.99
239.865	26.28
240.083	122.54
240.3	-10.58
240.517	34.47
240.735	9.9
240.952	108.2
241.169	50.86
241.386	95.91
241.603	-10.58
241.821	16.04
242.038	7.85
242.255	16.04
242.472	11.95
242.689	-6.49
242.907	71.34
243.124	67.24
243.341	24.23
243.558	30.38
243.775	7.85
243.992	24.23
244.209	44.71
244.426	108.2
244.643	106.15
244.86	34.47
245.078	69.29
245.295	-14.68
245.512	79.53
245.729	54.95
245.946	46.76
246.163	16.04
246.38	-22.87
246.597	22.19
246.814	22.19
247.031	20.14
247.248	40.62
247.464	40.62
247.681	48.81
247.898	77.48
248.115	30.38
248.332	42.67
248.549	112.3
248.766	85.67
248.983	38.57
249.2	11.95
249.417	40.62
249.633	28.33
249.85	18.09
250.067	20.14
250.284	18.09
250.501	5.8
250.717	24.23
250.934	48.81
251.151	83.63
251.368	13.99
251.585	61.1
251.801	34.47
252.018	-37.2
252.235	63.15
252.451	7.85
252.668	81.58
252.885	87.72
253.102	40.62
253.318	63.15
253.535	106.15
253.752	5.8
253.968	46.76
254.185	-10.58
254.401	-29.01
254.618	57
254.835	7.85
255.051	50.86
255.268	46.76
255.484	65.19
255.701	16.04
255.917	32.43
256.134	-10.58
256.351	20.14
256.567	24.23
256.784	-12.63
257	3.75
257.217	7.85
257.433	20.14
257.65	24.23
257.866	106.15
258.082	11.95
258.299	7.85
258.515	3.75
258.732	5.8
258.948	11.95
259.165	-4.44
259.381	46.76
259.597	-2.39
259.814	3.75
260.03	79.53
260.246	63.15
260.463	57
260.679	36.52
260.895	63.15
261.112	42.67
261.328	-31.06
261.544	16.04
261.761	188.07
261.977	-6.49
262.193	-37.2
262.409	-2.39
262.626	26.28
262.842	110.25
263.058	20.14
263.274	120.49
263.49	16.04
263.707	110.25
263.923	89.77
264.139	65.19
264.355	110.25
264.571	28.33
264.787	46.76
265.004	28.33
265.22	38.57
265.436	16.04
265.652	40.62
265.868	18.09
266.084	48.81
266.3	52.91
266.516	7.85
266.732	63.15
266.948	89.77
267.164	34.47
267.38	83.63
267.596	24.23
267.812	24.23
268.028	38.57
268.244	-2.39
268.46	32.43
268.676	-22.87
268.892	18.09
269.108	54.95
269.324	28.33
269.54	5.8
269.756	24.23
269.972	-0.34
270.188	48.81
270.403	-63.83
270.619	13.99
270.835	-31.06
271.051	44.71
271.267	59.05
271.483	28.33
271.698	-39.25
271.914	9.9
272.13	54.95
272.346	-6.49
272.562	52.91
272.777	57
272.993	30.38
273.209	-22.87
273.425	63.15
273.64	-51.54
273.856	97.96
274.072	-18.77
274.287	28.33
274.503	77.48
274.719	95.91
274.934	11.95
275.15	30.38
275.366	18.09
275.581	-18.77
275.797	44.71
276.012	-8.53
276.228	-49.49
276.444	9.9
276.659	-10.58
276.875	59.05
277.09	16.04
277.306	63.15
277.521	87.72
277.737	69.29
277.952	85.67
278.168	26.28
278.383	52.91
278.599	18.09
278.814	100.01
279.03	65.19
279.245	48.81
279.461	63.15
279.676	40.62
279.892	26.28
280.107	13.99
280.322	44.71
280.538	13.99
280.753	22.19
280.969	65.19
281.184	24.23
281.399	106.15
281.615	-0.34
281.83	32.43
282.045	-4.44
282.26	48.81
282.476	5.8
282.691	44.71
282.906	40.62
283.122	-6.49
283.337	44.71
283.552	69.29
283.767	73.39
283.983	-14.68
284.198	-24.92
284.413	63.15
284.628	-2.39
284.843	83.63
285.058	50.86
285.274	42.67
285.489	-63.83
285.704	61.1
285.919	-86.36
286.134	24.23
286.349	-37.2
286.564	73.39
286.779	63.15
286.995	-29.01
287.21	36.52
287.425	40.62
287.64	34.47
287.855	46.76
288.07	-31.06
288.285	110.25
288.5	24.23
288.715	73.39
288.93	13.99
289.145	-47.44
289.36	102.06
289.575	-14.68
289.79	-26.96
290.004	34.47
290.219	71.34
290.434	71.34
290.649	-24.92
290.864	-12.63
291.079	69.29
291.294	46.76
291.509	32.43
291.724	73.39
291.938	9.9
292.153	9.9
292.368	-45.4
292.583	46.76
292.798	81.58
293.012	-4.44
293.227	-41.3
293.442	69.29
293.657	18.09
293.871	20.14
294.086	-18.77
294.301	18.09
294.516	63.15
294.73	54.95
294.945	-45.4
295.16	65.19
295.374	26.28
295.589	11.95
295.804	-2.39
296.018	126.63
296.233	61.1
296.447	13.99
296.662	38.57
296.877	100.01
297.091	26.28
297.306	18.09
297.52	67.24
297.735	75.43
297.949	24.23
298.164	102.06
298.378	57
298.593	65.19
298.807	-10.58
299.022	83.63
299.236	65.19
299.451	57
299.665	38.57
299.88	32.43
300.094	63.15
300.309	50.86
300.523	108.2
300.737	22.19
300.952	-12.63
301.166	34.47
301.381	-6.49
301.595	-22.87
301.809	-53.59
302.024	20.14
302.238	48.81
302.452	112.3
302.667	30.38
302.881	46.76
303.095	61.1
303.309	22.19
303.524	20.14
303.738	81.58
303.952	32.43
304.166	-0.34
304.381	36.52
304.595	-53.59
304.809	44.71
305.023	16.04
305.237	44.71
305.452	9.9
305.666	20.14
305.88	24.23
306.094	24.23
306.308	48.81
306.522	106.15
306.736	46.76
306.95	-0.34
307.164	1.71
307.379	-26.96
307.593	52.91
307.807	-6.49
308.021	42.67
308.235	16.04
308.449	71.34
308.663	-0.34
308.877	52.91
309.091	67.24
309.305	67.24
309.519	-92.5
309.733	32.43
309.947	-55.64
310.161	65.19
310.374	85.67
310.588	79.53
310.802	-24.92
311.016	73.39
311.23	46.76
311.444	5.8
311.658	26.28
311.872	89.77
312.085	122.54
312.299	102.06
312.513	140.97
312.727	28.33
312.941	28.33
313.154	5.8
313.368	81.58
313.582	67.24
313.796	63.15
314.009	40.62
314.223	102.06
314.437	48.81
314.651	46.76
314.864	26.28
315.078	44.71
315.292	9.9
315.505	11.95
315.719	61.1
315.933	122.54
316.146	-8.53
316.36	13.99
316.573	34.47
316.787	28.33
317.001	67.24
317.214	-22.87
317.428	48.81
317.641	-45.4
317.855	-43.35
318.068	97.96
318.282	63.15
318.495	93.87
318.709	59.05
318.922	22.19
319.136	73.39
319.349	40.62
319.563	50.86
319.776	110.25
319.99	-41.3
320.203	63.15
320.417	52.91
320.63	44.71
320.843	73.39
321.057	54.95
321.27	46.76
321.483	44.71
321.697	18.09
321.91	22.19
322.124	79.53
322.337	13.99
322.55	18.09
322.763	85.67
322.977	83.63
323.19	-31.06
323.403	61.1
323.617	116.39
323.83	83.63
324.043	9.9
324.256	42.67
324.469	-12.63
324.683	24.23
324.896	57
325.109	48.81
325.322	83.63
325.535	-4.44
325.748	77.48
325.962	18.09
326.175	18.09
326.388	46.76
326.601	-6.49
326.814	83.63
327.027	40.62
327.24	91.82
327.453	24.23
327.666	-6.49
327.879	75.43
328.092	-0.34
328.305	110.25
328.518	1.71
328.731	20.14
328.944	-6.49
329.157	52.91
329.37	-20.82
329.583	59.05
329.796	132.78
330.009	-0.34
330.222	3.75
330.435	-6.49
330.648	16.04
330.861	95.91
331.073	44.71
331.286	136.87
331.499	38.57
331.712	65.19
331.925	20.14
332.138	40.62
332.35	69.29
332.563	-2.39
332.776	149.16
332.989	24.23
333.202	-18.77
333.414	-22.87
333.627	20.14
333.84	13.99
334.053	42.67
334.265	9.9
334.478	36.52
334.691	-0.34
334.903	38.57
335.116	22.19
335.329	71.34
335.541	54.95
335.754	126.63
335.966	79.53
336.179	44.71
336.392	52.91
336.604	-8.53
336.817	46.76
337.029	89.77
337.242	-6.49
337.454	20.14
337.667	63.15
337.88	52.91
338.092	50.86
338.305	18.09
338.517	89.77
338.729	106.15
338.942	91.82
339.154	13.99
339.367	20.14
339.579	18.09
339.792	3.75
340.004	81.58
340.217	40.62
340.429	-18.77
340.641	-55.64
340.854	34.47
341.066	-0.34
341.278	40.62
341.491	87.72
341.703	71.34
341.915	13.99
342.128	38.57
342.34	67.24
342.552	42.67
342.764	59.05
342.977	32.43
343.189	48.81
343.401	38.57
343.613	-92.5
343.826	46.76
344.038	40.62
344.25	22.19
344.462	-2.39
344.674	18.09
344.886	52.91
345.099	11.95
345.311	120.49
345.523	28.33
345.735	18.09
345.947	26.28
346.159	69.29
346.371	132.78
346.583	93.87
346.795	61.1
347.007	118.44
347.219	-12.63
347.431	28.33
347.643	42.67
347.855	93.87
348.067	46.76
348.279	22.19
348.491	93.87
348.703	73.39
348.915	50.86
349.127	-39.25
349.339	108.2
349.551	63.15
349.763	34.47
349.975	40.62
350.187	79.53
350.399	100.01
350.61	1.71
350.822	93.87
351.034	73.39
351.246	-22.87
351.458	65.19
351.669	59.05
351.881	87.72
352.093	173.74
352.305	75.43
352.517	69.29
352.728	91.82
352.94	114.34
353.152	48.81
353.363	85.67
353.575	87.72
353.787	104.11
353.999	106.15
354.21	48.81
354.422	-2.39
354.633	61.1
354.845	-47.44
355.057	79.53
355.268	95.91
355.48	30.38
355.692	-8.53
355.903	-4.44
356.115	36.52
356.326	-67.92
356.538	93.87
356.749	112.3
356.961	102.06
357.172	75.43
357.384	48.81
357.595	91.82
357.807	85.67
358.018	42.67
358.23	65.19
358.441	83.63
358.653	100.01
358.864	32.43
359.075	34.47
359.287	138.92
359.498	67.24
359.709	57
359.921	-26.96
360.132	71.34
360.344	87.72
360.555	97.96
360.766	65.19
360.977	18.09
361.189	59.05
361.4	24.23
361.611	83.63
361.823	83.63
362.034	65.19
362.245	36.52
362.456	73.39
362.667	79.53
362.879	-33.11
363.09	-29.01
363.301	116.39
363.512	46.76
363.723	40.62
363.935	48.81
364.146	112.3
364.357	59.05
364.568	83.63
364.779	7.85
364.99	100.01
365.201	-33.11
365.412	28.33
365.623	-39.25
365.834	26.28
366.045	22.19
366.256	54.95
366.467	32.43
366.678	48.81
366.889	24.23
367.1	-22.87
367.311	59.05
367.522	44.71
367.733	38.57
367.944	104.11
368.155	52.91
368.366	28.33
368.577	110.25
368.788	52.91
368.999	44.71
369.209	-31.06
369.42	7.85
369.631	124.58
369.842	110.25
370.053	36.52
370.264	9.9
370.474	65.19
370.685	87.72
370.896	46.76
371.107	30.38
371.317	87.72
371.528	-4.44
371.739	50.86
371.95	30.38
372.16	28.33
372.371	5.8
372.582	42.67
372.792	34.47
373.003	87.72
373.214	100.01
373.424	34.47
373.635	-6.49
373.846	89.77
374.056	22.19
374.267	77.48
374.477	38.57
374.688	40.62
374.898	34.47
375.109	44.71
375.319	13.99
375.53	57
375.74	122.54
375.951	38.57
376.161	81.58
376.372	118.44
376.582	-2.39
376.793	73.39
377.003	26.28
377.214	110.25
377.424	93.87
377.635	34.47
377.845	61.1
378.055	28.33
378.266	-20.82
378.476	93.87
378.686	102.06
378.897	100.01
379.107	97.96
379.317	61.1
379.528	-29.01
379.738	83.63
379.948	30.38
380.158	-8.53
380.369	40.62
380.579	-4.44
380.789	75.43
380.999	97.96
381.21	128.68
381.42	114.34
381.63	106.15
381.84	65.19
382.05	102.06
382.261	151.21
382.471	9.9
382.681	13.99
382.891	75.43
383.101	52.91
383.311	44.71
383.521	18.09
383.731	114.34
383.941	69.29
384.151	124.58
384.361	28.33
384.571	126.63
384.781	97.96
384.991	89.77
385.201	106.15
385.411	89.77
385.621	85.67
385.831	91.82
386.041	50.86
386.251	1.71
386.461	73.39
386.671	32.43
386.881	122.54
387.091	61.1
387.301	38.57
387.511	-12.63
387.72	85.67
387.93	147.11
388.14	16.04
388.35	97.96
388.56	120.49
388.769	104.11
388.979	59.05
389.189	85.67
389.399	61.1
389.609	77.48
389.818	34.47
390.028	97.96
390.238	61.1
390.447	65.19
390.657	54.95
390.867	36.52
391.076	34.47
391.286	69.29
391.496	54.95
391.705	59.05
391.915	116.39
392.125	112.3
392.334	63.15
392.544	143.02
392.753	95.91
392.963	122.54
393.172	112.3
393.382	-35.16
393.591	132.78
393.801	91.82
394.01	149.16
394.22	-8.53
394.429	65.19
394.639	126.63
394.848	83.63
395.058	73.39
395.267	48.81
395.477	95.91
395.686	104.11
395.895	95.91
396.105	83.63
396.314	140.97
396.524	181.93
396.733	38.57
396.942	77.48
397.152	112.3
397.361	138.92
397.57	153.26
397.78	83.63
397.989	67.24
398.198	110.25
398.407	71.34
398.617	75.43
398.826	128.68
399.035	153.26
399.244	48.81
399.453	75.43
399.663	128.68
399.872	110.25
400.081	46.76
400.29	114.34
400.499	93.87
400.708	134.82
400.917	136.87
401.127	171.69
401.336	83.63
401.545	269.99
401.754	75.43
401.963	138.92
402.172	46.76
402.381	136.87
402.59	136.87
402.799	186.02
403.008	116.39
403.217	280.23
403.426	159.4
403.635	26.28
403.844	110.25
404.053	186.02
404.262	229.03
404.471	179.88
404.68	147.11
404.888	114.34
405.097	169.64
405.306	102.06
405.515	179.88
405.724	163.5
405.933	169.64
406.142	231.08
406.35	222.89
406.559	171.69
406.768	122.54
406.977	272.04
407.185	214.7
407.394	231.08
407.603	208.55
407.812	222.89
408.02	233.13
408.229	138.92
408.438	235.18
408.646	179.88
408.855	272.04
409.064	323.24
409.272	288.42
409.481	327.33
409.69	315.05
409.898	343.72
410.107	329.38
410.315	347.81
410.524	282.28
410.733	329.38
410.941	304.81
411.15	374.44
411.358	386.72
411.567	517.79
411.775	421.54
411.984	476.84
412.192	442.02
412.401	487.08
412.609	476.84
412.818	558.75
413.026	622.24
413.234	548.51
413.443	601.76
413.651	583.33
413.86	632.48
414.068	622.24
414.276	708.26
414.485	638.62
414.693	755.36
414.901	722.59
415.11	763.55
415.318	810.65
415.526	771.74
415.734	874.14
415.943	945.82
416.151	917.15
416.359	892.57
416.567	919.2
416.776	1017.5
416.984	1058.46
417.192	1064.6
417.4	1050.27
417.608	1068.7
417.817	1068.7
418.025	1167
418.233	1353.37
418.441	1269.4
418.649	1273.5
418.857	1425.04
419.065	1439.38
419.273	1363.61
419.481	1367.7
419.689	1517.2
419.897	1580.69
420.105	1683.09
420.313	1758.86
420.521	1801.87
420.729	1687.18
420.937	1900.17
421.145	1871.5
421.353	1965.71
421.561	2170.51
421.769	2203.27
421.977	2317.96
422.185	2248.33
422.393	2268.81
422.601	2514.56
422.809	2576
423.017	2533
423.224	2576
423.432	2717.31
423.64	2727.55
423.848	3036.8
424.056	2967.17
424.263	3198.59
424.471	3128.95
424.679	3204.73
424.887	3337.85
425.094	3341.94
425.302	3475.06
425.51	3753.59
425.718	3679.86
425.925	3823.22
426.133	3849.84
426.341	4128.36
426.548	4337.26
426.756	4259.43
426.964	4456.04
427.171	4540.01
427.379	4630.12
427.586	4812.39
427.794	4804.19
428.001	5291.61
428.209	5570.13
428.417	5232.22
428.624	5733.97
428.832	5772.88
429.039	5834.32
429.247	5750.35
429.454	6207.05
429.662	6450.76
429.869	6227.53
430.076	6755.91
430.284	6456.9
430.491	6641.22
430.699	7038.53
430.906	7065.15
431.114	7220.8
431.321	7392.83
431.528	7538.23
431.736	8166.96
431.943	8523.3
432.15	8306.22
432.358	8332.84
432.565	8775.2
432.772	8885.8
432.979	9395.74
433.187	9381.4
433.394	9289.24
433.601	9963.03
433.808	10253.84
434.016	9979.41
434.223	10427.92
434.43	11023.87
434.637	10696.2
434.844	11726.33
435.052	11714.04
435.259	11877.88
435.466	11769.34
435.673	11554.3
435.88	12518.89
436.087	12948.97
436.294	13270.5
436.501	12625.39
436.708	13184.48
436.915	13606.36
437.122	14015.96
437.329	14032.34
437.537	14751.18
437.743	14970.31
437.95	14620.11
438.157	15203.78
438.364	15973.81
438.571	16207.28
438.778	16057.78
438.985	17642.91
439.192	16938.41
439.399	17218.98
439.606	16840.11
439.813	17982.87
440.02	19260.8
440.227	18619.79
440.433	18482.58
440.64	19527.04
440.847	18750.86
441.054	19582.34
441.261	20532.59
441.467	20524.4
441.674	20827.5
441.881	21878.11
442.088	21677.41
442.294	21876.06
442.501	22027.61
442.708	22400.34
442.914	23086.41
443.121	24333.62
443.328	23649.6
443.534	25294.12
443.741	24866.1
443.948	24173.88
444.154	26053.92
444.361	26160.41
444.568	25920.8
444.774	26316.06
444.981	26422.55
445.187	27094.29
445.394	28247.29
445.6	27950.34
445.807	30727.38
446.013	29283.56
446.22	29789.41
446.426	30993.62
446.633	31214.8
446.839	32599.23
447.046	30966.99
447.252	32638.14
447.459	33299.63
447.665	32566.46
447.871	33889.45
448.078	35646.6
448.284	34206.88
448.491	34776.22
448.697	36211.84
448.903	36689.02
449.11	36947.06
449.316	36412.54
449.522	37092.47
449.728	37837.93
449.935	38405.22
450.141	38136.93
450.347	38941.78
450.553	37891.18
450.76	38370.4
450.966	39595.09
451.172	39353.43
451.378	40348.74
451.584	39326.8
451.791	40244.29
451.997	40250.44
452.203	40885.31
452.409	41368.63
452.615	40690.75
452.821	39136.34
453.027	38792.28
453.233	40987.71
453.44	39273.56
453.646	39857.23
453.852	39767.12
454.058	40442.95
454.264	39109.72
454.47	40246.34
454.676	39257.17
454.882	40520.77
455.088	37104.76
455.294	37645.42
455.5	38210.66
455.705	38616.16
455.911	36967.54
456.117	36263.04
456.323	35763.34
456.529	34084
456.735	35382.41
456.941	34692.25
457.147	33766.57
457.352	33098.93
457.558	32470.2
457.764	32789.69
457.97	32101.57
458.176	31280.33
458.381	31157.46
458.587	29773.03
458.793	29963.49
458.999	28353.79
459.204	30459.1
459.41	29312.24
459.616	27147.53
459.821	27450.63
460.027	27600.13
460.233	26869.01
460.438	25802.02
460.644	25838.88
460.85	24706.35
461.055	24374.58
461.261	24255.8
461.466	22402.39
461.672	22109.53
461.878	23151.95
462.083	21831.01
462.289	21228.9
462.494	21005.67
462.7	20264.31
462.905	19864.96
463.111	20411.76
463.316	20415.86
463.522	19907.96
463.727	19801.47
463.932	20051.32
464.138	19518.85
464.343	19893.63
464.549	19056.01
464.754	19842.43
464.959	19672.45
465.165	19774.84
465.37	18812.3
465.575	18105.75
465.781	18904.46
465.986	19160.45
466.191	18478.48
466.397	18228.63
466.602	17128.87
466.807	17874.33
467.012	17831.32
467.218	17857.95
467.423	17464.74
467.628	17708.44
467.833	18386.32
468.038	17706.4
468.244	17096.1
468.449	17706.4
468.654	17442.21
468.859	17319.33
469.064	17155.49
469.269	16315.83
469.474	16498.09
469.679	17042.85
469.885	16588.21
470.09	16547.25
470.295	16496.05
470.5	16289.2
470.705	16043.45
470.91	15869.37
471.115	15750.59
471.32	16100.79
471.525	16010.68
471.73	15711.67
471.935	15160.77
472.139	15138.24
472.344	15050.18
472.549	14884.3
472.754	14564.81
472.959	14648.78
473.164	14085.59
473.369	13891.03
473.574	14448.08
473.778	14357.97
473.983	14153.17
474.188	14351.82
474.393	13653.47
474.598	13534.68
474.802	13520.35
475.007	13303.26
475.212	13649.37
475.417	12957.16
475.621	13022.69
475.826	12830.18
476.031	12758.5
476.235	12359.15
476.44	12678.63
476.645	12332.53
476.849	12574.19
477.054	12168.69
477.259	12070.39
477.463	12168.69
477.668	11865.59
477.872	11927.03
478.077	11652.6
478.282	11572.73
478.486	11400.7
478.691	11369.98
478.895	11050.5
479.1	10884.61
479.304	11150.85
479.509	10888.71
479.713	11339.26
479.918	10864.13
480.122	10456.59
480.326	10827.27
480.531	10798.6
480.735	10778.12
480.94	10530.31
481.144	10966.53
481.348	10366.48
481.553	10528.27
481.757	10382.86
481.961	10452.49
482.166	10520.07
482.37	10520.07
482.574	10530.31
482.778	10231.31
482.983	10497.55
483.187	10262.03
483.391	10470.92
483.595	10167.82
483.8	10296.85
484.004	10243.6
484.208	10362.38
484.412	10323.47
484.616	10173.97
484.821	10399.24
485.025	10165.78
485.229	10358.28
485.433	10302.99
485.637	10307.09
485.841	10165.78
486.045	10196.5
486.249	10149.39
486.453	10286.61
486.657	10444.3
486.861	10309.13
487.065	10085.9
487.269	10249.74
487.473	10192.4
487.677	10382.86
487.881	10448.4
488.085	10182.16
488.289	10243.6
488.493	10237.45
488.697	10499.59
488.901	10413.58
489.105	10165.78
489.309	10391.05
489.512	10446.35
489.716	10511.88
489.92	10290.7
490.124	10343.95
490.328	10321.42
490.531	10493.45
490.735	10542.6
490.939	10544.65
491.143	10548.75
491.346	10464.78
491.55	10679.82
491.754	10808.84
491.958	10905.09
492.161	10696.2
492.365	10718.73
492.569	10808.84
492.772	10870.28
492.976	10952.2
493.18	10892.8
493.383	11171.33
493.587	11212.29
493.79	11230.72
493.994	10952.2
494.197	11189.76
494.401	11191.81
494.605	11326.97
494.808	11644.41
495.012	11478.52
495.215	11494.91
495.419	11927.03
495.622	11683.32
495.825	11748.86
496.029	11830.77
496.232	12060.15
496.436	12015.09
496.639	12400.11
496.843	12148.21
497.046	12514.8
497.249	12778.98
497.453	12637.67
497.656	12731.88
497.859	12858.85
498.063	12951.01
498.266	13331.94
498.469	13204.96
498.673	13243.87
498.876	13624.79
499.079	13647.32
499.282	13854.17
499.485	14165.46
499.689	14079.44
499.892	14261.71
500.095	14185.94
500.298	14613.96
500.501	14499.28
500.705	14712.27
500.908	14968.26
501.111	15312.32
501.314	15144.39
501.517	15478.21
501.72	15766.97
501.923	15623.61
502.126	15953.34
502.329	16465.33
502.532	15998.39
502.735	16592.3
502.938	16928.17
503.141	16803.24
503.344	17028.52
503.547	16899.5
503.75	17198.5
503.953	17587.61
504.156	17585.57
504.359	17888.67
504.562	17704.35
504.765	18267.54
504.968	18455.95
505.17	18587.02
505.373	18814.35
505.576	18724.24
505.779	19076.49
505.982	19314.05
506.185	19639.68
506.387	19715.45
506.59	19844.48
506.793	20299.12
506.996	20061.56
507.198	20712.81
507.401	20622.7
507.604	21036.39
507.807	21192.04
508.009	21276.01
508.212	21583.2
508.415	21863.77
508.617	22138.2
508.82	22375.77
509.022	22087
509.225	22777.17
509.428	22820.17
509.63	23164.23
509.833	22969.68
510.035	23874.88
510.238	23379.27
510.44	24010.04
510.643	23956.8
510.845	24206.65
511.048	24079.68
511.25	24606
511.453	24818.99
511.655	25763.11
511.858	25173.29
512.06	25546.02
512.262	25881.89
512.465	25820.45
512.667	26060.06
512.87	26393.88
513.072	26490.13
513.274	27088.14
513.477	27231.5
513.679	27489.54
513.881	27585.8
514.084	28001.54
514.286	28038.4
514.488	27958.53
514.69	28781.81
514.893	28790
515.095	28859.63
515.297	29197.55
515.499	29205.74
515.701	29580.52
515.904	30293.21
516.106	30006.5
516.308	30385.37
516.51	30964.95
516.712	30541.02
516.914	31081.68
517.116	31415.5
517.318	31636.68
517.52	31669.45
517.722	31843.52
517.925	32115.9
518.127	33082.55
518.329	32779.45
518.531	32406.72
518.733	33486
518.935	33625.26
519.136	33459.37
519.338	33647.79
519.54	34043.04
519.742	34790.55
519.944	34669.72
520.146	35177.62
520.348	35269.78
520.55	35298.45
520.752	35415.18
520.954	35955.85
521.155	35974.28
521.357	36146.31
521.559	36539.52
521.761	36891.77
521.963	37129.33
522.164	37321.84
522.366	37100.66
522.568	37403.76
522.77	37799.02
522.971	38245.48
523.173	37966.95
523.375	38640.73
523.576	38501.47
523.778	38382.69
523.98	38814.81
524.181	39230.55
524.383	39126.1
524.584	39443.54
524.786	39507.02
524.988	39748.68
525.189	40131.65
525.391	39894.09
525.592	39830.6
525.794	40293.44
525.995	40238.15
526.197	40465.47
526.398	40514.62
526.6	40840.25
526.801	41026.62
527.003	41219.13
527.204	40987.71
527.406	41554.99
527.607	41700.4
527.808	41679.92
528.01	41405.49
528.211	41720.88
528.412	42396.71
528.614	41827.37
528.815	41876.52
529.016	42421.28
529.218	41821.23
529.419	42404.9
529.62	42228.77
529.822	42265.64
530.023	42464.29
530.224	42486.82
530.425	42404.9
530.626	42386.47
530.828	42318.88
531.029	43101.21
531.23	42437.67
531.431	42677.28
531.632	42732.57
531.833	43039.77
532.035	42998.81
532.236	42953.76
532.437	42970.14
532.638	42826.78
532.839	43219.99
533.04	43359.25
533.241	42800.16
533.442	43684.88
533.643	43078.68
533.844	43035.67
534.045	42933.28
534.246	42433.57
534.447	43228.18
534.648	42920.99
534.849	43260.95
535.05	42701.86
535.251	43338.77
535.451	42896.41
535.652	43172.89
535.853	43086.87
536.054	43504.66
536.255	43058.2
536.456	42974.23
536.657	43686.93
536.857	43062.3
537.058	43090.97
537.259	43248.66
537.46	43084.83
537.66	42710.05
537.861	43058.2
538.062	42685.47
538.263	43039.77
538.463	42843.16
538.664	43031.58
538.865	42912.8
539.065	43258.9
539.266	42724.38
539.466	43594.77
539.667	42535.97
539.868	43338.77
540.068	42845.21
540.269	42712.09
540.469	43125.78
540.67	42779.68
540.87	42927.13
541.071	42724.38
541.271	43027.48
541.472	42814.49
541.672	42605.6
541.873	42789.92
542.073	42488.87
542.274	42679.33
542.474	43013.15
542.675	42626.08
542.875	42982.43
543.075	42519.59
543.276	42183.72
543.476	42955.8
543.676	42345.51
543.877	43111.45
544.077	42984.47
544.277	42470.43
544.478	42757.15
544.678	42974.23
544.878	42877.98
545.078	42640.42
545.279	42218.53
545.479	42619.94
545.679	42812.45
545.879	42404.9
546.079	42404.9
546.28	42597.41
546.48	42109.99
546.68	42664.99
546.88	42705.95
547.08	42605.6
547.28	42503.2
547.48	42193.96
547.68	42794.01
547.88	42189.86
548.081	42828.83
548.281	42400.8
548.481	42339.36
548.681	42685.47
548.881	42175.53
549.081	42167.34
549.28	42091.56
549.48	42587.17
549.68	42452
549.88	42824.73
550.08	42277.93
550.28	42202.15
550.48	42351.65
550.68	42523.68
550.88	41991.21
551.08	42234.92
551.279	42640.42
551.479	42048.55
551.679	42183.72
551.879	41827.37
552.079	42370.08
552.278	42249.25
552.478	41935.91
552.678	42124.33
552.878	42126.38
553.077	42286.12
553.277	41501.75
553.477	42220.58
553.676	41841.71
553.876	41839.66
554.076	41872.43
554.275	41974.83
554.475	41690.16
554.674	41864.24
554.874	41792.56
555.074	41587.76
555.273	41937.96
555.473	41782.32
555.672	41231.41
555.872	41618.48
556.071	41907.24
556.271	41710.64
556.47	41536.56
556.67	41253.94
556.869	41372.72
557.068	41577.52
557.268	41139.25
557.467	41296.95
557.667	41563.18
557.866	41239.61
558.065	41270.32
558.265	40940.6
558.464	41032.76
558.663	41479.22
558.863	40922.17
559.062	41430.07
559.261	40799.29
559.461	41309.24
559.66	40737.85
559.859	40819.77
560.058	40608.83
560.258	41063.48
560.457	40481.86
560.656	40735.81
560.855	40565.82
561.054	40459.33
561.253	40057.93
561.453	40451.14
561.652	40518.72
561.851	40604.74
562.05	40324.16
562.249	40422.47
562.448	40268.87
562.647	40414.27
562.846	40053.83
563.045	39961.67
563.244	39603.28
563.443	40315.97
563.642	39855.18
563.841	40004.68
564.04	39709.77
564.239	39982.15
564.438	39437.39
564.637	39871.56
564.836	39590.99
565.035	39195.73
565.234	39814.22
565.432	39441.49
565.631	39115.86
565.83	39425.11
566.029	39242.84
566.228	39005.27
566.427	38569.05
566.625	39257.17
566.824	38370.4
567.023	39185.49
567.222	38276.19
567.42	39076.95
567.619	38849.63
567.818	38857.82
568.016	38349.92
568.215	38794.33
568.414	38055.01
568.612	38845.53
568.811	38519.9
569.01	38296.67
569.208	38071.4
569.407	38257.76
569.605	37772.39
569.804	38315.11
570.002	37596.27
570.201	38118.5
570.4	37823.59
570.598	37323.89
570.797	37694.57
570.995	37801.07
571.193	37037.17
571.392	37438.58
571.59	36940.92
571.789	37317.75
571.987	37600.36
572.186	37002.36
572.384	36988.02
572.582	37024.89
572.781	37020.79
572.979	36848.76
573.177	36887.67
573.376	36977.78
573.574	36652.16
573.772	36838.52
573.971	36365.44
574.169	36402.3
574.367	36256.9
574.565	36703.35
574.763	36142.21
574.962	36224.13
575.16	35855.5
575.358	36154.5
575.556	36095.11
575.754	36433.02
575.952	36011.14
576.151	36097.16
576.349	35376.27
576.547	35720.33
576.745	35597.45
576.943	35533.96
577.141	35579.02
577.339	35368.08
577.537	35044.5
577.735	35294.35
577.933	34538.65
578.131	34806.94
578.329	34729.11
578.527	34618.52
578.725	34716.82
578.923	34970.77
579.121	34659.48
579.319	34692.25
579.516	34706.59
579.714	34423.97
579.912	34563.23
580.11	34208.93
580.308	34626.71
580.506	34206.88
580.704	33823.91
580.901	33959.08
581.099	33729.7
581.297	33627.31
581.495	33404.08
581.692	33789.1
581.89	33588.39
582.088	33914.02
582.285	33258.67
582.483	33406.12
582.681	33324.21
582.878	33363.12
583.076	32984.24
583.274	33242.29
583.471	32865.46
583.669	32931
583.866	32402.62
584.064	32576.7
584.262	32720.06
584.459	32711.86
584.657	32564.41
584.854	32611.51
585.052	31861.96
585.249	32386.24
585.447	32189.63
585.644	31907.01
585.841	31847.62
586.039	32292.03
586.236	31497.42
586.434	31859.91
586.631	31941.83
586.828	31786.18
587.026	31681.74
587.223	31845.57
587.42	31470.79
587.618	31544.52
587.815	31339.72
588.012	31309
588.21	31233.23
588.407	31243.47
588.604	31034.58
588.801	30979.28
588.999	30852.31
589.196	30756.05
589.393	30899.41
589.59	30807.25
589.787	30334.17
589.984	30530.78
590.182	30049.5
590.379	30495.96
590.576	30072.03
590.773	30059.74
590.97	30031.07
591.167	30047.46
591.364	29721.83
591.561	30010.59
591.758	29555.94
591.955	29789.41
592.152	29848.8
592.349	29392.11
592.546	29629.67
592.743	29457.64
592.94	28833.01
593.137	29275.37
593.334	29490.41
593.531	28779.76
593.727	28923.12
593.924	28638.45
594.121	28667.13
594.318	28587.25
594.515	28398.84
594.712	28763.38
594.908	28364.03
595.105	28306.68
595.302	28333.31
595.499	28722.42
595.696	28087.55
595.892	27749.64
596.089	27725.06
596.286	28173.56
596.482	28230.91
596.679	27647.24
596.876	27637
597.072	27450.63
597.269	27489.54
597.466	27137.29
597.662	27100.43
597.859	27598.09
598.055	27479.3
598.252	27264.27
598.448	26932.5
598.645	27038.99
598.841	26428.7
599.038	27018.51
599.234	26400.02
599.431	26440.98
599.627	26602.77
599.824	26221.85
600.02	26432.79
600.217	26539.29
600.413	26359.06
600.609	25765.15
600.806	26070.3
601.002	26121.5
601.198	25902.37
601.395	25832.74
601.591	25849.12
601.787	25855.26
601.984	25681.19
602.18	25984.29
602.376	25695.52
602.572	25457.96
602.769	25382.18
602.965	25185.58
603.161	25177.39
603.357	25171.24
603.553	25052.46
603.75	25101.61
603.946	24868.14
604.142	25240.87
604.338	24483.13
604.534	24778.03
604.73	24446.26
604.926	24638.77
605.122	24481.08
605.318	24243.51
605.514	24354.1
605.71	24089.92
605.906	24243.51
606.102	24241.46
606.298	24206.65
606.494	24341.82
606.69	23903.55
606.886	24122.68
607.082	23577.92
607.278	24261.94
607.474	23788.86
607.67	23602.5
607.866	23453
608.062	23936.32
608.257	23596.35
608.453	23459.14
608.649	23467.33
608.845	23608.64
609.041	23158.09
609.236	23446.85
609.432	23336.26
609.628	23352.65
609.824	23270.73
610.019	22967.63
610.215	23086.41
610.411	23453
610.606	22922.57
610.802	23031.12
610.998	22871.37
611.193	22969.68
611.389	22560.08
611.584	22945.1
611.78	22818.13
611.976	22451.54
612.171	22682.96
612.367	22773.07
612.562	22422.87
612.758	22267.22
612.953	22334.81
613.149	22754.64
613.344	22437.2
613.539	22672.72
613.735	22089.05
613.93	22709.58
614.126	22388.05
614.321	22375.77
614.517	22277.46
614.712	22469.97
614.907	22062.43
615.103	21984.6
615.298	22205.78
615.493	22328.66
615.688	21615.97
615.884	22418.77
616.079	21400.93
616.274	22154.58
616.47	21802.33
616.665	21869.92
616.86	21656.93
617.055	21538.15
617.25	21593.44
617.445	21706.08
617.641	21386.6
617.836	21419.36
618.031	21173.61
618.226	21218.66
618.421	21265.77
618.616	21063.02
618.811	20970.86
619.006	21509.47
619.201	20493.68
619.396	21208.42
619.591	20737.39
619.786	20931.95
619.981	20489.59
620.176	20813.17
620.371	20389.24
620.566	20530.55
620.761	20249.97
620.956	20565.36
621.151	19965.31
621.346	20065.66
621.541	19637.63
621.735	20047.22
621.93	19680.64
622.125	19742.08
622.32	19512.7
622.515	19889.53
622.709	19586.43
622.904	19367.3
623.099	19201.41
623.294	19312
623.488	19088.78
623.683	19230.09
623.878	18935.18
624.072	18673.04
624.267	18519.44
624.462	18761.1
624.656	18374.03
624.851	18402.71
625.046	18400.66
625.24	18310.55
625.435	17980.82
625.629	18193.81
625.824	17880.47
626.018	17810.84
626.213	17415.58
626.407	17868.19
626.602	17446.3
626.796	17718.68
626.991	17720.73
627.185	17118.63
627.38	17180.07
627.574	17180.07
627.768	16940.46
627.963	16774.57
628.157	16879.02
628.352	16754.09
628.546	16446.9
628.74	16674.22
628.935	16514.48
629.129	16500.14
629.323	16219.57
629.517	16213.43
629.712	16041.4
629.906	16258.48
630.1	15871.42
630.294	15756.73
630.489	15791.55
630.683	15830.46
630.877	15539.65
631.071	15719.87
631.265	15535.55
631.459	15611.32
631.653	15394.24
631.848	15427.01
632.042	15107.52
632.236	15173.06
632.43	14939.59
632.624	14978.5
632.818	14761.42
633.012	14790.09
633.206	14546.38
633.4	14865.86
633.594	14353.87
633.788	14425.55
633.982	14392.78
634.176	14495.18
634.369	14073.3
634.563	14370.26
634.757	14230.99
634.951	14235.09
635.145	14122.45
635.339	14081.49
635.533	13755.86
635.726	14097.88
635.92	13610.46
636.114	13688.28
636.308	13475.29
636.501	13483.48
636.695	13401.57
636.889	13139.43
637.083	13360.61
637.276	13037.03
637.47	13114.85
637.664	12897.77
637.857	13135.33
638.051	12873.19
638.244	12901.86
638.438	12842.47
638.632	12617.19
638.825	12856.81
639.019	12643.82
639.212	12353.01
639.406	12531.18
639.599	12559.85
639.793	12484.08
639.986	12346.86
640.18	12269.04
640.373	12076.53
640.567	12062.19
640.76	12021.24
640.954	11931.12
641.147	11888.12
641.34	11859.45
641.534	12178.93
641.727	11718.14
641.92	11658.74
642.114	11761.14
642.307	11550.2
642.5	11570.68
642.694	11408.89
642.887	11453.95
643.08	11277.82
643.273	11396.6
643.467	11460.09
643.66	11206.14
643.853	10972.68
644.046	11079.17
644.239	10995.2
644.432	10966.53
644.626	11034.11
644.819	10747.4
645.012	10868.23
645.205	10872.32
645.398	10618.38
645.591	10696.2
645.784	10864.13
645.977	10610.18
646.17	10532.36
646.363	10360.33
646.556	10155.54
646.749	10192.4
646.942	10481.16
647.135	10114.58
647.328	10253.84
647.521	10143.25
647.714	10118.67
647.907	10092.05
648.099	9901.59
648.292	9872.92
648.485	9997.84
648.678	9778.71
648.871	9612.82
649.064	9848.34
649.256	9827.86
649.449	9459.23
649.642	9465.37
649.835	9338.4
650.027	9379.36
650.22	9362.97
650.413	9408.03
650.605	9444.89
650.798	9213.47
650.991	8951.33
651.183	9223.71
651.376	9043.49
651.568	9145.89
651.761	8990.24
651.954	8967.71
652.146	8893.99
652.339	8904.23
652.531	8814.12
652.724	8846.88
652.916	8601.13
653.109	8711.72
653.301	8707.62
653.494	8625.7
653.686	8592.94
653.879	8738.34
654.071	8379.95
654.263	8336.94
654.456	8549.93
654.648	8568.36
654.84	8316.46
655.033	8257.07
655.225	8169.01
655.417	8042.03
655.61	8185.39
655.802	8148.53
655.994	8001.07
656.186	7994.93
656.379	8095.28
656.571	8021.55
656.763	7890.48
656.955	7882.29
657.148	7710.26
657.34	7941.68
657.532	7536.18
657.724	7751.22
657.916	7786.04
658.108	7501.37
658.3	7712.31
658.492	7538.23
658.684	7538.23
658.876	7384.63
659.068	7333.43
659.26	7534.14
659.452	7411.26
659.644	7235.13
659.836	7329.34
660.028	7308.86
660.22	7149.12
660.412	7099.97
660.604	7069.25
660.796	7132.73
660.988	6956.61
661.18	7046.72
661.372	7022.14
661.563	6970.94
661.755	7009.86
661.947	6835.78
662.139	6872.64
662.331	6889.03
662.522	6743.62
662.714	6866.5
662.906	6673.99
663.097	6643.27
663.289	6577.73
663.481	6624.84
663.673	6692.42
663.864	6338.12
664.056	6604.36
664.247	6348.36
664.439	6358.6
664.631	6506.06
664.822	6553.16
665.014	6237.77
665.205	6379.08
665.397	6231.63
665.588	6266.44
665.78	6229.58
665.971	6180.43
666.163	6233.68
666.354	6125.13
666.546	6092.37
666.737	6145.61
666.929	6108.75
667.12	6278.73
667.311	5926.48
667.503	5989.97
667.694	5969.49
667.885	5883.47
668.077	5953.1
668.268	5998.16
668.459	5705.3
668.651	5854.8
668.842	5867.09
669.033	5840.47
669.224	5750.35
669.416	5633.62
669.607	5854.8
669.798	5500.5
669.989	5621.33
670.18	5590.61
670.371	5488.21
670.563	5504.6
670.754	5699.16
670.945	5494.36
671.136	5543.51
671.327	5477.98
671.518	5336.67
671.709	5574.23
671.9	5406.3
672.091	5506.65
672.282	5367.38
672.473	5189.21
672.664	5387.86
672.855	5185.12
673.046	5432.92
673.237	5213.79
673.428	5244.51
673.619	5293.66
673.809	5123.68
674	5162.59
674.191	5307.99
674.382	5189.21
674.573	5068.38
674.764	5092.96
674.954	5277.27
675.145	5039.71
675.336	4970.08
675.527	5002.85
675.717	4871.78
675.908	4963.93
676.099	4957.79
676.289	4879.97
676.48	4945.5
676.671	4914.78
676.861	4703.84
677.052	4763.23
677.243	4839.01
677.433	4898.4
677.624	4769.38
677.814	4806.24
678.005	4888.16
678.195	4796
678.386	4884.06
678.576	4802.15
678.767	4677.22
678.957	4720.23
679.148	4787.81
679.338	4636.26
679.529	4679.27
679.719	4550.25
679.909	4646.5
680.1	4644.45
680.29	4646.5
680.481	4730.47
680.671	4828.77
680.861	4626.02
681.052	4576.87
681.242	4564.58
681.432	4544.1
681.622	4501.09
681.813	4562.53
682.003	4472.42
682.193	4449.89
682.383	4646.5
682.573	4445.8
682.764	4449.89
682.954	4474.47
683.144	4333.16
683.334	4566.63
683.524	4499.05
683.714	4322.92
683.904	4441.7
684.094	4310.63
684.284	4423.27
684.474	4453.99
684.664	4255.34
684.854	4404.84
685.044	4271.72
685.234	4259.43
685.424	4128.36
685.614	4370.02
685.804	4308.58
685.994	4312.68
686.184	4253.29
686.374	4236.91
686.564	4173.42
686.753	4173.42
686.943	4142.7
687.133	4034.16
687.323	4116.08
687.513	4169.32
687.702	4040.3
687.892	4144.75
688.082	4114.03
688.272	3972.72
688.461	3966.57
688.651	4013.68
688.841	3864.18
689.03	3954.29
689.22	3878.51
689.41	3956.33
689.599	4017.77
689.789	3982.96
689.979	3841.65
690.168	3878.51
690.358	3874.42
690.547	3780.21
690.737	3769.97
690.926	3835.5
691.116	3661.43
691.305	3835.5
691.495	3550.84
691.684	3712.63
691.874	3808.88
692.063	3640.95
692.252	3665.52
692.442	3632.76
692.631	3593.84
692.82	3626.61
693.01	3597.94
693.199	3542.64
693.388	3524.21
693.578	3481.21
693.767	3561.08
693.956	3513.97
694.146	3591.8
694.335	3430.01
694.524	3413.62
694.713	3423.86
694.902	3384.95
695.092	3434.1
695.281	3384.95
695.47	3237.5
695.659	3335.8
695.848	3303.03
696.037	3370.62
696.226	3432.05
696.415	3391.09
696.604	3323.51
696.793	3157.63
696.982	3257.98
697.171	3247.74
697.36	3167.87
697.549	3126.91
697.738	3178.11
697.927	3202.68
698.116	3143.29
698.305	3262.07
698.494	3051.13
698.683	3131
698.872	3214.97
699.061	3184.25
699.25	2963.07
699.438	3085.95
699.627	3120.76
699.816	3219.07
700.005	3081.85
700.193	2979.45
700.382	3077.76
700.571	3022.46
700.76	2954.88
700.948	3108.48
701.137	3001.98
701.326	3012.22
701.514	3016.32
701.703	2973.31
701.892	2905.73
702.08	3063.42
702.269	3073.66
702.457	2915.97
702.646	2893.44
702.834	2946.69
703.023	2883.2
703.212	2870.91
703.4	2961.02
703.589	2936.45
703.777	2758.27
703.965	2891.39
704.154	2926.21
704.342	2934.4
704.531	2805.38
704.719	2889.34
704.907	2911.87
705.096	2913.92
705.284	2952.83
705.472	2903.68
705.661	2926.21
705.849	3065.47
706.037	2840.19
706.226	2858.62
706.414	2946.69
706.602	2885.25
706.79	2956.93
706.979	2780.8
707.167	2885.25
707.355	2838.14
707.543	2776.7
707.731	2895.49
707.919	2748.03
708.107	2809.47
708.296	2758.27
708.484	2735.74
708.672	2778.75
708.86	2739.84
709.048	2719.36
709.236	2725.51
709.424	2797.18
709.612	2735.74
709.8	2782.85
709.988	2694.79
710.176	2791.04
710.364	2807.42
710.551	2729.6
710.739	2633.35
710.927	2782.85
711.115	2727.55
711.303	2774.66
711.491	2715.27
711.679	2702.98
711.866	2725.51
712.054	2803.33
712.242	2834.05
712.43	2791.04
712.617	2664.07
712.805	2727.55
712.993	2729.6
713.181	2629.25
713.368	2633.35
713.556	2735.74
713.744	2791.04
713.931	2672.26
714.119	2692.74
714.306	2727.55
714.494	2635.39
714.682	2735.74
714.869	2637.44
715.057	2637.44
715.244	2739.84
715.432	2559.62
715.619	2682.5
715.807	2700.93
715.994	2649.73
716.182	2670.21
716.369	2758.27
716.556	2709.12
716.744	2678.4
716.931	2598.53
717.119	2702.98
717.306	2594.44
717.493	2623.11
717.681	2709.12
717.868	2637.44
718.055	2612.87
718.242	2657.92
718.43	2610.82
718.617	2592.39
718.804	2662.02
718.991	2627.2
719.179	2641.54
719.366	2541.19
719.553	2633.35
719.74	2580.1
719.927	2662.02
720.114	2641.54
720.301	2668.16
720.488	2684.55
720.676	2580.1
720.863	2627.2
721.05	2545.28
721.237	2567.81
721.424	2600.58
721.611	2561.67
721.798	2520.71
721.985	2504.32
722.172	2610.82
722.358	2578.05
722.545	2582.15
722.732	2623.11
722.919	2649.73
723.106	2641.54
723.293	2582.15
723.48	2651.78
723.667	2535.04
723.853	2651.78
724.04	2713.22
724.227	2623.11
724.414	2539.14
724.6	2541.19
724.787	2702.98
724.974	2686.59
725.161	2547.33
725.347	2504.32
725.534	2735.74
725.72	2539.14
725.907	2606.72
726.094	2518.66
726.28	2623.11
726.467	2592.39
726.653	2530.95
726.84	2733.7
727.027	2647.68
727.213	2537.09
727.4	2655.87
727.586	2649.73
727.773	2596.48
727.959	2594.44
728.145	2721.41
728.332	2543.24
728.518	2627.2
728.705	2629.25
728.891	2643.59
729.077	2698.88
729.264	2604.67
729.45	2672.26
729.636	2651.78
729.823	2528.9
730.009	2553.48
730.195	2541.19
730.382	2573.96
730.568	2637.44
730.754	2639.49
730.94	2578.05
731.126	2586.24
731.313	2717.31
731.499	2637.44
731.685	2723.46
731.871	2705.03
732.057	2631.3
732.243	2545.28
732.429	2578.05
732.615	2686.59
732.801	2655.87
732.987	2584.2
733.173	2598.53
733.359	2561.67
733.545	2641.54
733.731	2653.83
733.917	2668.16
734.103	2600.58
734.289	2684.55
734.475	2647.68
734.661	2750.08
734.847	2578.05
735.033	2635.39
735.219	2737.79
735.404	2563.72
735.59	2711.17
735.776	2576
735.962	2604.67
736.148	2690.69
736.333	2715.27
736.519	2768.51
736.705	2590.34
736.89	2580.1
737.076	2649.73
737.262	2680.45
737.447	2604.67
737.633	2729.6
737.819	2567.81
738.004	2623.11
738.19	2649.73
738.375	2590.34
738.561	2602.63
738.747	2682.5
738.932	2573.96
739.118	2659.97
739.303	2602.63
739.489	2647.68
739.674	2553.48
739.859	2580.1
740.045	2586.24
740.23	2659.97
740.416	2606.72
740.601	2592.39
740.786	2547.33
740.972	2659.97
741.157	2725.51
741.342	2551.43
741.528	2598.53
741.713	2551.43
741.898	2471.56
742.084	2635.39
742.269	2586.24
742.454	2569.86
742.639	2563.72
742.824	2485.89
743.01	2616.96
743.195	2600.58
743.38	2563.72
743.565	2522.76
743.75	2377.35
743.935	2571.91
744.12	2473.6
744.305	2473.6
744.49	2602.63
744.675	2576
744.86	2539.14
745.045	2383.49
745.23	2426.5
745.415	2403.97
745.6	2541.19
745.785	2438.79
745.97	2455.17
746.155	2397.83
746.34	2442.89
746.525	2457.22
746.71	2426.5
746.895	2313.86
747.079	2365.06
747.264	2330.25
747.449	2401.93
747.634	2385.54
747.819	2469.51
748.003	2393.73
748.188	2354.82
748.373	2365.06
748.557	2268.81
748.742	2301.58
748.927	2272.9
749.111	2305.67
749.296	2363.01
749.481	2188.94
749.665	2240.14
749.85	2197.13
750.034	2281.1
750.219	2211.46
750.404	2221.7
750.588	2215.56
750.773	2227.85
750.957	2229.9
751.141	2133.64
751.326	2162.31
751.51	2139.79
751.695	2084.49
751.879	2000.52
752.064	2236.04
752.248	2082.44
752.432	2090.63
752.617	2137.74
752.801	2102.92
752.985	2094.73
753.17	2025.1
753.354	2090.63
753.538	1969.8
753.722	1988.24
753.907	1867.41
754.091	1894.03
754.275	1916.56
754.459	1937.04
754.643	1883.79
754.828	2012.81
755.012	1978
755.196	1840.78
755.38	1848.97
755.564	1820.3
755.748	1799.82
755.932	1955.47
756.116	1937.04
756.3	1857.17
756.484	1857.17
756.668	1783.44
756.852	1822.35
757.036	1730.19
757.22	1740.43
757.404	1793.68
757.588	1678.99
757.772	1762.96
757.956	1818.25
758.14	1732.24
758.323	1701.52
758.507	1621.65
758.691	1670.8
758.875	1767.06
759.059	1660.56
759.242	1683.09
759.426	1646.23
759.61	1615.51
759.794	1611.41
759.977	1674.9
760.161	1646.23
760.345	1617.55
760.528	1678.99
760.712	1541.78
760.895	1652.37
761.079	1615.51
761.263	1490.58
761.446	1595.03
761.63	1603.22
761.813	1482.39
761.997	1539.73
762.18	1404.57
762.364	1429.14
762.547	1488.53
762.731	1463.96
762.914	1541.78
763.098	1420.95
763.281	1459.86
763.464	1496.72
763.648	1498.77
763.831	1396.37
764.015	1412.76
764.198	1435.28
764.381	1423
764.564	1466
764.748	1336.98
764.931	1384.09
765.114	1214.1
765.297	1480.34
765.481	1330.84
765.664	1377.94
765.847	1373.85
766.03	1455.76
766.213	1279.64
766.397	1332.89
766.58	1363.61
766.763	1330.84
766.946	1377.94
767.129	1314.45
767.312	1353.37
767.495	1371.8
767.678	1373.85
767.861	1283.74
768.044	1269.4
768.227	1330.84
768.41	1279.64
768.593	1298.07
768.776	1281.69
768.959	1353.37
769.142	1336.98
769.324	1185.43
769.507	1316.5
769.69	1310.36
769.873	1298.07
770.056	1267.35
770.239	1214.1
770.421	1238.68
770.604	1230.49
770.787	1248.92
770.97	1162.9
771.152	1117.85
771.335	1220.25
771.518	1167
771.7	1214.1
771.883	1164.95
772.066	1179.29
772.248	1128.09
772.431	1080.99
772.613	1216.15
772.796	1119.9
772.978	1128.09
773.161	1201.82
773.343	1154.71
773.526	1154.71
773.708	1025.69
773.891	994.97
774.073	1087.13
774.256	1089.18
774.438	1076.89
774.621	1058.46
774.803	1136.28
774.985	1021.6
775.168	1117.85
775.35	1093.27
775.532	1089.18
775.715	988.83
775.897	1093.27
776.079	1046.17
776.261	1068.7
776.444	1070.75
776.626	972.44
776.808	947.87
776.99	949.92
777.173	1058.46
777.355	919.2
777.537	943.77
777.719	1017.5
777.901	906.91
778.083	941.72
778.265	863.9
778.447	900.76
778.629	917.15
778.811	945.82
778.993	954.01
779.175	960.16
779.357	874.14
779.539	919.2
779.721	853.66
779.903	878.24
780.085	861.85
780.267	796.32
780.449	800.41
780.631	775.84
780.812	773.79
780.994	796.32
781.176	835.23
781.358	769.69
781.54	755.36
781.721	902.81
781.903	902.81
782.085	745.12
782.267	722.59
782.448	749.22
782.63	706.21
782.812	802.46
782.993	781.98
783.175	698.02
783.357	751.26
783.538	757.41
783.72	652.96
783.901	710.3
784.083	691.87
784.264	689.82
784.446	673.44
784.627	644.77
784.809	642.72
784.99	673.44
785.172	741.02
785.353	691.87
785.535	689.82
785.716	652.96
785.897	601.76
786.079	712.35
786.26	632.48
786.441	618.15
786.623	659.1
786.804	589.47
786.985	679.58
787.167	589.47
787.348	542.37
787.529	630.43
787.71	571.04
787.891	571.04
788.073	640.67
788.254	540.32
788.435	644.77
788.616	517.79
788.797	573.09
788.978	568.99
789.159	560.8
789.34	550.56
789.522	581.28
789.703	601.76
789.884	585.38
790.065	525.99
790.246	603.81
790.427	544.42
790.607	552.61
790.788	597.67
790.969	482.98
791.15	552.61
791.331	503.46
791.512	540.32
791.693	499.36
791.874	536.23
792.054	505.51
792.235	513.7
792.416	419.49
792.597	503.46
792.778	497.32
792.958	491.17
793.139	456.36
793.32	417.44
793.5	409.25
793.681	532.13
793.862	446.12
794.042	482.98
794.223	493.22
794.404	370.34
794.584	439.97
794.765	390.82
794.945	493.22
795.126	454.31
795.306	566.95
795.487	470.69
795.667	415.4
795.848	442.02
796.028	401.06
796.209	521.89
796.389	417.44
796.57	380.58
796.75	331.43
796.93	421.54
797.111	388.77
797.291	411.3
797.471	431.78
797.652	325.29
797.832	380.58
798.012	366.25
798.192	364.2
798.373	396.96
798.553	421.54
798.733	378.53
798.913	378.53
799.093	331.43
799.274	362.15
799.454	425.64
799.634	380.58
799.814	337.57
799.994	321.19
800.174	347.81
800.354	337.57
800.534	337.57
800.714	466.6
800.894	358.05
801.074	288.42
801.254	329.38
801.434	374.44
801.614	319.14
801.794	298.66
801.974	855.71
802.154	360.1
802.334	386.72
802.514	302.76
802.693	302.76
802.873	329.38
803.053	259.75
803.233	292.52
803.413	261.8
803.592	276.13
803.772	267.94
803.952	274.09
804.131	276.13
804.311	294.57
804.491	302.76
804.67	241.32
804.85	286.37
805.03	257.7
805.209	292.52
805.389	337.57
805.568	259.75
805.748	343.72
805.928	323.24
806.107	296.61
806.287	321.19
806.466	269.99
806.646	298.66
806.825	335.53
807.004	263.85
807.184	243.37
807.363	358.05
807.543	292.52
807.722	274.09
807.901	345.77
808.081	265.89
808.26	210.6
808.439	261.8
808.619	265.89
808.798	220.84
808.977	286.37
809.156	274.09
809.336	192.17
809.515	286.37
809.694	128.68
809.873	231.08
810.052	218.79
810.231	214.7
810.411	233.13
810.59	304.81
810.769	249.51
810.948	310.95
811.127	151.21
811.306	255.65
811.485	192.17
811.664	323.24
811.843	290.47
812.022	237.22
812.201	274.09
812.38	224.94
812.559	259.75
812.737	200.36
812.916	149.16
813.095	177.83
813.274	251.56
813.453	253.61
813.632	235.18
813.811	118.44
813.989	214.7
814.168	155.3
814.347	229.03
814.526	206.5
814.704	261.8
814.883	188.07
815.062	183.98
815.24	255.65
815.419	192.17
815.598	104.11
815.776	163.5
815.955	265.89
816.133	163.5
816.312	245.41
816.49	212.65
816.669	173.74
816.847	147.11
817.026	190.12
817.204	214.7
817.383	118.44
817.561	85.67
817.74	265.89
817.918	192.17
818.097	100.01
818.275	138.92
818.453	222.89
818.632	235.18
818.81	192.17
818.988	212.65
819.167	118.44
819.345	169.64
819.523	169.64
819.701	222.89
819.879	224.94
820.058	132.78
820.236	151.21
820.414	120.49
820.592	175.78
820.77	149.16
820.948	104.11
821.127	138.92
821.305	173.74
821.483	83.63
821.661	179.88
821.839	190.12
822.017	114.34
822.195	194.22
822.373	173.74
822.551	163.5
822.729	159.4
822.907	97.96
823.085	138.92
823.262	132.78
823.44	87.72
823.618	87.72
823.796	155.3
823.974	138.92
824.152	91.82
824.329	190.12
824.507	212.65
824.685	163.5
824.863	134.82
825.04	89.77
825.218	155.3
825.396	183.98
825.574	190.12
825.751	128.68
825.929	163.5
826.107	120.49
826.284	186.02
826.462	44.71
826.639	75.43
826.817	54.95
826.994	77.48
827.172	75.43
827.349	104.11
827.527	140.97
827.704	163.5
827.882	194.22
828.059	108.2
828.237	151.21
828.414	194.22
828.591	91.82
828.769	136.87
828.946	63.15
829.124	130.73
829.301	151.21
829.478	40.62
829.655	65.19
829.833	147.11
830.01	50.86
830.187	169.64
830.364	75.43
830.542	171.69
830.719	100.01
830.896	165.54
831.073	95.91
831.25	95.91
831.427	237.22
831.604	161.45
831.782	67.24
831.959	63.15
832.136	132.78
832.313	108.2
832.49	145.06
832.667	163.5
832.844	65.19
833.021	147.11
833.198	85.67
833.374	175.78
833.551	120.49
833.728	79.53
833.905	173.74
834.082	91.82
834.259	134.82
834.436	120.49
834.612	114.34
834.789	87.72
834.966	83.63
835.143	77.48
835.319	22.19
835.496	140.97
835.673	130.73
835.85	116.39
836.026	147.11
836.203	61.1
836.38	95.91
836.556	73.39
836.733	77.48
836.909	159.4
837.086	87.72
837.262	57
837.439	112.3
837.616	77.48
837.792	95.91
837.968	48.81
838.145	36.52
838.321	36.52
838.498	122.54
838.674	81.58
838.851	67.24
839.027	95.91
839.203	79.53
839.38	42.67
839.556	69.29
839.732	140.97
839.909	71.34
840.085	83.63
840.261	-22.87
840.437	63.15
840.614	93.87
840.79	138.92
840.966	167.59
841.142	46.76
841.318	116.39
841.494	73.39
841.671	130.73
841.847	93.87
842.023	5.8
842.199	112.3
842.375	116.39
842.551	-39.25
842.727	48.81
842.903	93.87
843.079	57
843.255	40.62
843.431	38.57
843.607	108.2
843.783	18.09
843.959	104.11
844.134	40.62
844.31	104.11
844.486	30.38
844.662	-4.44
844.838	95.91
845.013	130.73
845.189	67.24
845.365	79.53
845.541	93.87
845.716	89.77
845.892	186.02
846.068	48.81
846.244	9.9
846.419	65.19
846.595	36.52
846.77	79.53
846.946	16.04
847.122	104.11
847.297	77.48
847.473	128.68
847.648	44.71
847.824	75.43
847.999	112.3
848.175	46.76
848.35	104.11
848.526	73.39
848.701	63.15
848.876	130.73
849.052	159.4
849.227	36.52
849.403	46.76
849.578	140.97
849.753	40.62
849.929	40.62
850.104	83.63
850.279	54.95
850.454	75.43
850.63	-16.73
850.805	67.24
850.98	71.34
851.155	61.1
851.33	1.71
851.505	83.63
851.681	48.81
851.856	44.71
852.031	126.63
852.206	44.71
852.381	42.67
852.556	18.09
852.731	38.57
852.906	40.62
853.081	87.72
853.256	30.38
853.431	75.43
853.606	-16.73
853.781	28.33
853.956	-16.73
854.131	93.87
854.305	28.33
854.48	5.8
854.655	20.14
854.83	-2.39
855.005	106.15
855.18	54.95
855.354	30.38
855.529	54.95
855.704	73.39
855.879	79.53
856.053	20.14
856.228	65.19
856.403	26.28
856.577	93.87
856.752	28.33
856.926	-20.82
857.101	11.95
857.276	7.85
857.45	85.67
857.625	65.19
857.799	59.05
857.974	42.67
858.148	28.33
858.323	16.04
858.497	42.67
858.672	1.71
858.846	75.43
859.02	71.34
859.195	95.91
859.369	-39.25
859.543	87.72
859.718	44.71
859.892	36.52
860.066	28.33
860.241	79.53
860.415	65.19
860.589	73.39
860.763	57
860.938	54.95
861.112	75.43
861.286	-8.53
861.46	79.53
861.634	7.85
861.808	65.19
861.982	48.81
862.157	28.33
862.331	34.47
862.505	20.14
862.679	34.47
862.853	61.1
863.027	38.57
863.201	42.67
863.375	91.82
863.549	22.19
863.722	32.43
863.896	83.63
864.07	24.23
864.244	132.78
864.418	71.34
864.592	38.57
864.766	32.43
864.939	34.47
865.113	71.34
865.287	-10.58
865.461	-35.16
865.634	5.8
865.808	36.52
865.982	30.38
866.156	-2.39
866.329	16.04
866.503	26.28
866.676	169.64
866.85	-8.53
867.024	-29.01
867.197	48.81
867.371	1.71
867.544	44.71
867.718	-49.49
867.891	61.1
868.065	-49.49
868.238	26.28
868.412	7.85
868.585	22.19
868.759	7.85
868.932	16.04
869.105	20.14
869.279	83.63
869.452	26.28
869.625	-26.96
869.799	-8.53
869.972	18.09
870.145	-63.83
870.319	54.95
870.492	42.67
870.665	1.71
870.838	-16.73
871.011	24.23
871.185	-22.87
871.358	16.04
871.531	34.47
871.704	24.23
871.877	-6.49
872.05	-10.58
872.223	-4.44
872.396	26.28
872.569	40.62
872.742	-4.44
872.915	-10.58
873.088	-47.44
873.261	9.9
873.434	-20.82
873.607	38.57
873.78	40.62
873.953	-63.83
874.126	89.77
874.299	20.14
874.471	-8.53
874.644	16.04
874.817	89.77
874.99	97.96
875.163	-14.68
875.335	61.1
875.508	-6.49
875.681	48.81
875.853	13.99
876.026	-26.96
876.199	-12.63
876.371	3.75
876.544	-61.78
876.717	-31.06
876.889	79.53
877.062	40.62
877.234	36.52
877.407	-59.73
877.579	24.23
877.752	16.04
877.924	48.81
878.097	30.38
878.269	95.91
878.442	-33.11
878.614	3.75
878.786	46.76
878.959	11.95
879.131	13.99
879.303	-92.5
879.476	69.29
879.648	-14.68
879.82	-33.11
879.993	3.75
880.165	44.71
880.337	32.43
880.509	-63.83
880.681	-6.49
880.854	-61.78
881.026	1.71
881.198	67.24
881.37	46.76
881.542	-29.01
881.714	36.52
881.886	-6.49
882.058	-2.39
882.23	77.48
882.402	-20.82
882.574	22.19
882.746	40.62
882.918	79.53
883.09	18.09
883.262	-12.63
883.434	-20.82
883.606	-18.77
883.778	46.76
883.95	85.67
884.122	-22.87
884.293	-4.44
884.465	54.95
884.637	-4.44
884.809	-8.53
884.98	85.67
885.152	-8.53
885.324	44.71
885.496	-86.36
885.667	9.9
885.839	-33.11
886.011	108.2
886.182	-14.68
886.354	44.71
886.525	22.19
886.697	-6.49
886.869	54.95
887.04	42.67
887.212	77.48
887.383	44.71
887.555	-18.77
887.726	-20.82
887.897	16.04
888.069	-10.58
888.24	-26.96
888.412	42.67
888.583	24.23
888.754	-69.97
888.926	5.8
889.097	-67.92
889.268	30.38
889.44	50.86
889.611	-35.16
889.782	38.57
889.953	-86.36
890.125	-16.73
890.296	-14.68
890.467	65.19
890.638	-8.53
890.809	38.57
890.98	-43.35
891.151	73.39
891.323	34.47
891.494	11.95
891.665	7.85
891.836	11.95
892.007	18.09
892.178	61.1
892.349	-22.87
892.52	-53.59
892.691	34.47
892.862	34.47
893.032	-82.26
893.203	-29.01
893.374	42.67
893.545	89.77
893.716	-41.3
893.887	-8.53
894.057	3.75
894.228	67.24
894.399	50.86
894.57	26.28
894.74	1.71
894.911	50.86
895.082	3.75
895.253	-12.63
895.423	77.48
895.594	44.71
895.764	-12.63
895.935	50.86
896.106	-12.63
896.276	-39.25
896.447	9.9
896.617	38.57
896.788	22.19
896.958	18.09
897.129	-6.49
897.299	-0.34
897.47	81.58
897.64	26.28
897.81	3.75
897.981	65.19
898.151	-39.25
898.322	1.71
898.492	36.52
898.662	-39.25
898.832	-18.77
899.003	54.95
899.173	34.47
899.343	-2.39
899.513	-6.49
