Data from USB4F104151__42__12-41-29-813.txt Node

Date: Fri Mar 14 12:41:29 EDT 2025
User: louis
Spectrometer: USB4F10415
Trigger mode: 4
Integration Time (sec): 3.000000E-2
Scans to average: 1
Electric dark correction enabled: true
Nonlinearity correction enabled: false
Boxcar width: 0
XAxis mode: Wavelengths
Number of Pixels in Spectrum: 3648
>>>>>Begin Spectral Data<<<<<
178.204	-140.12
178.424	-140.12
178.644	-140.12
178.864	-179.03
179.084	-150.36
179.304	-9.05
179.524	-93.01
179.744	-13.14
179.964	33.96
180.184	-41.81
180.404	68.78
180.624	46.25
180.844	46.25
181.064	-64.34
181.283	-15.19
181.503	23.72
181.723	17.58
181.943	31.91
182.163	87.21
182.383	31.91
182.602	-0.85
182.822	42.15
183.042	-2.9
183.262	11.43
183.482	-33.62
183.701	79.02
183.921	46.25
184.141	-27.48
184.361	5.29
184.58	36.01
184.8	1.19
185.02	-88.92
185.239	-2.9
185.459	64.68
185.679	23.72
185.898	31.91
186.118	97.45
186.338	19.63
186.557	48.3
186.777	1.19
186.997	3.24
187.216	15.53
187.436	19.63
187.655	68.78
187.875	36.01
188.095	-37.72
188.314	38.06
188.534	-0.85
188.753	-19.29
188.973	38.06
189.192	25.77
189.412	29.87
189.631	-13.14
189.851	-9.05
190.07	29.87
190.29	-23.38
190.509	1.19
190.729	23.72
190.948	-9.05
191.168	109.74
191.387	38.06
191.607	33.96
191.826	9.39
192.045	-15.19
192.265	25.77
192.484	83.11
192.704	5.29
192.923	-43.86
193.142	70.83
193.362	60.59
193.581	81.07
193.8	13.48
194.02	33.96
194.239	19.63
194.458	-9.05
194.678	48.3
194.897	38.06
195.116	36.01
195.335	46.25
195.555	40.11
195.774	19.63
195.993	-21.33
196.212	-56.15
196.432	-19.29
196.651	-7
196.87	3.24
197.089	66.73
197.308	46.25
197.528	64.68
197.747	-37.72
197.966	66.73
198.185	60.59
198.404	7.34
198.623	58.54
198.842	-23.38
199.062	50.35
199.281	72.87
199.5	31.91
199.719	19.63
199.938	68.78
200.157	33.96
200.376	9.39
200.595	7.34
200.814	56.49
201.033	-15.19
201.252	25.77
201.471	13.48
201.69	23.72
201.909	-17.24
202.128	19.63
202.347	-2.9
202.566	23.72
202.785	-62.29
203.004	44.2
203.223	58.54
203.442	-31.57
203.661	33.96
203.879	64.68
204.098	79.02
204.317	3.24
204.536	5.29
204.755	-41.81
204.974	-4.95
205.193	42.15
205.411	87.21
205.63	7.34
205.849	-13.14
206.068	64.68
206.287	44.2
206.505	44.2
206.724	-19.29
206.943	15.53
207.162	29.87
207.381	25.77
207.599	-21.33
207.818	7.34
208.037	33.96
208.255	7.34
208.474	-4.95
208.693	17.58
208.911	-4.95
209.13	13.48
209.349	-9.05
209.567	-4.95
209.786	-62.29
210.005	87.21
210.223	-17.24
210.442	-86.87
210.661	21.67
210.879	-2.9
211.098	-11.09
211.316	56.49
211.535	19.63
211.753	-23.38
211.972	17.58
212.191	81.07
212.409	68.78
212.628	-41.81
212.846	-19.29
213.065	13.48
213.283	19.63
213.502	-21.33
213.72	31.91
213.938	-11.09
214.157	9.39
214.375	5.29
214.594	31.91
214.812	54.44
215.031	56.49
215.249	5.29
215.467	-62.29
215.686	38.06
215.904	21.67
216.122	29.87
216.341	62.63
216.559	48.3
216.778	9.39
216.996	89.26
217.214	-27.48
217.432	-13.14
217.651	-88.92
217.869	-35.67
218.087	19.63
218.306	7.34
218.524	-2.9
218.742	-86.87
218.96	5.29
219.179	21.67
219.397	15.53
219.615	7.34
219.833	7.34
220.051	-19.29
220.27	68.78
220.488	-60.24
220.706	58.54
220.924	29.87
221.142	-19.29
221.36	-39.76
221.578	103.59
221.796	13.48
222.015	17.58
222.233	-4.95
222.451	52.39
222.669	-43.86
222.887	58.54
223.105	-0.85
223.323	7.34
223.541	-11.09
223.759	50.35
223.977	31.91
224.195	48.3
224.413	42.15
224.631	-33.62
224.849	15.53
225.067	36.01
225.285	-39.76
225.503	-17.24
225.721	9.39
225.939	-43.86
226.157	-11.09
226.375	19.63
226.592	42.15
226.81	15.53
227.028	-13.14
227.246	5.29
227.464	117.93
227.682	3.24
227.9	9.39
228.117	17.58
228.335	54.44
228.553	36.01
228.771	29.87
228.989	-27.48
229.206	64.68
229.424	1.19
229.642	-25.43
229.86	5.29
230.077	15.53
230.295	-7
230.513	76.97
230.731	33.96
230.948	-0.85
231.166	42.15
231.384	15.53
231.601	-17.24
231.819	62.63
232.037	5.29
232.254	31.91
232.472	33.96
232.689	-7
232.907	3.24
233.125	-13.14
233.342	62.63
233.56	-17.24
233.777	25.77
233.995	-41.81
234.213	17.58
234.43	-2.9
234.648	-76.63
234.865	-13.14
235.083	21.67
235.3	-7
235.518	-9.05
235.735	44.2
235.953	33.96
236.17	36.01
236.388	7.34
236.605	23.72
236.822	111.78
237.04	48.3
237.257	-39.76
237.475	64.68
237.692	40.11
237.909	29.87
238.127	-78.68
238.344	56.49
238.562	-25.43
238.779	70.83
238.996	52.39
239.214	-60.24
239.431	-0.85
239.648	3.24
239.865	9.39
240.083	60.59
240.3	40.11
240.517	27.82
240.735	33.96
240.952	60.59
241.169	85.16
241.386	27.82
241.603	72.87
241.821	3.24
242.038	23.72
242.255	7.34
242.472	42.15
242.689	87.21
242.907	44.2
243.124	3.24
243.341	7.34
243.558	33.96
243.775	-37.72
243.992	-60.24
244.209	27.82
244.426	15.53
244.643	1.19
244.86	-41.81
245.078	83.11
245.295	3.24
245.512	-15.19
245.729	-93.01
245.946	5.29
246.163	9.39
246.38	89.26
246.597	33.96
246.814	91.31
247.031	-31.57
247.248	38.06
247.464	70.83
247.681	-11.09
247.898	48.3
248.115	-31.57
248.332	21.67
248.549	15.53
248.766	68.78
248.983	17.58
249.2	111.78
249.417	21.67
249.633	17.58
249.85	3.24
250.067	62.63
250.284	13.48
250.501	68.78
250.717	15.53
250.934	-27.48
251.151	15.53
251.368	76.97
251.585	15.53
251.801	25.77
252.018	-17.24
252.235	38.06
252.451	-33.62
252.668	25.77
252.885	48.3
253.102	38.06
253.318	42.15
253.535	-19.29
253.752	99.5
253.968	-50
254.185	-15.19
254.401	-0.85
254.618	29.87
254.835	9.39
255.051	54.44
255.268	-50
255.484	50.35
255.701	1.19
255.917	58.54
256.134	11.43
256.351	17.58
256.567	36.01
256.784	72.87
257	-43.86
257.217	-52.05
257.433	-15.19
257.65	23.72
257.866	50.35
258.082	-60.24
258.299	70.83
258.515	1.19
258.732	-21.33
258.948	79.02
259.165	40.11
259.381	-23.38
259.597	44.2
259.814	46.25
260.03	-54.1
260.246	-15.19
260.463	70.83
260.679	38.06
260.895	29.87
261.112	56.49
261.328	48.3
261.544	-41.81
261.761	126.12
261.977	9.39
262.193	29.87
262.409	17.58
262.626	36.01
262.842	62.63
263.058	-50
263.274	1.19
263.49	-13.14
263.707	40.11
263.923	54.44
264.139	-21.33
264.355	122.02
264.571	-2.9
264.787	-4.95
265.004	50.35
265.22	31.91
265.436	-43.86
265.652	-21.33
265.868	-41.81
266.084	-23.38
266.3	-23.38
266.516	-39.76
266.732	52.39
266.948	13.48
267.164	-9.05
267.38	119.98
267.596	15.53
267.812	52.39
268.028	27.82
268.244	31.91
268.46	93.35
268.676	27.82
268.892	48.3
269.108	-29.52
269.324	15.53
269.54	9.39
269.756	23.72
269.972	13.48
270.188	40.11
270.403	7.34
270.619	-70.48
270.835	79.02
271.051	-7
271.267	-37.72
271.483	3.24
271.698	-15.19
271.914	19.63
272.13	-9.05
272.346	-64.34
272.562	-37.72
272.777	1.19
272.993	1.19
273.209	-11.09
273.425	15.53
273.64	-58.2
273.856	74.92
274.072	113.83
274.287	-21.33
274.503	46.25
274.719	72.87
274.934	-41.81
275.15	-29.52
275.366	-17.24
275.581	-95.06
275.797	-0.85
276.012	19.63
276.228	38.06
276.444	-68.44
276.659	-29.52
276.875	-107.35
277.09	-9.05
277.306	-21.33
277.521	21.67
277.737	72.87
277.952	44.2
278.168	19.63
278.383	-2.9
278.599	-0.85
278.814	91.31
279.03	50.35
279.245	79.02
279.461	-13.14
279.676	11.43
279.892	-45.91
280.107	-50
280.322	-15.19
280.538	-9.05
280.753	-17.24
280.969	44.2
281.184	3.24
281.399	60.59
281.615	25.77
281.83	31.91
282.045	23.72
282.26	-15.19
282.476	7.34
282.691	44.2
282.906	54.44
283.122	-13.14
283.337	3.24
283.552	46.25
283.767	-19.29
283.983	-37.72
284.198	38.06
284.413	50.35
284.628	-54.1
284.843	23.72
285.058	-52.05
285.274	-33.62
285.489	58.54
285.704	91.31
285.919	-29.52
286.134	-15.19
286.349	52.39
286.564	60.59
286.779	-35.67
286.995	7.34
287.21	-39.76
287.425	83.11
287.64	-54.1
287.855	36.01
288.07	-31.57
288.285	54.44
288.5	56.49
288.715	5.29
288.93	48.3
289.145	-52.05
289.36	-0.85
289.575	-43.86
289.79	33.96
290.004	-21.33
290.219	83.11
290.434	13.48
290.649	-2.9
290.864	36.01
291.079	-19.29
291.294	-62.29
291.509	-70.48
291.724	-66.39
291.938	11.43
292.153	-2.9
292.368	25.77
292.583	50.35
292.798	54.44
293.012	33.96
293.227	-13.14
293.442	21.67
293.657	21.67
293.871	-11.09
294.086	91.31
294.301	74.92
294.516	15.53
294.73	93.35
294.945	13.48
295.16	33.96
295.374	15.53
295.589	46.25
295.804	44.2
296.018	-2.9
296.233	36.01
296.447	36.01
296.662	50.35
296.877	66.73
297.091	-25.43
297.306	-13.14
297.52	15.53
297.735	21.67
297.949	7.34
298.164	11.43
298.378	-35.67
298.593	40.11
298.807	-23.38
299.022	40.11
299.236	52.39
299.451	23.72
299.665	-39.76
299.88	52.39
300.094	-4.95
300.309	27.82
300.523	9.39
300.737	-41.81
300.952	48.3
301.166	-15.19
301.381	-47.96
301.595	-35.67
301.809	1.19
302.024	-23.38
302.238	-11.09
302.452	76.97
302.667	5.29
302.881	17.58
303.095	31.91
303.309	15.53
303.524	9.39
303.738	72.87
303.952	3.24
304.166	19.63
304.381	-25.43
304.595	107.69
304.809	-7
305.023	-15.19
305.237	23.72
305.452	-37.72
305.666	21.67
305.88	111.78
306.094	-37.72
306.308	3.24
306.522	50.35
306.736	-23.38
306.95	17.58
307.164	-2.9
307.379	7.34
307.593	15.53
307.807	1.19
308.021	19.63
308.235	31.91
308.449	-19.29
308.663	-33.62
308.877	105.64
309.091	54.44
309.305	-7
309.519	-31.57
309.733	46.25
309.947	-13.14
310.161	64.68
310.374	52.39
310.588	-29.52
310.802	-25.43
311.016	68.78
311.23	-0.85
311.444	-23.38
311.658	54.44
311.872	48.3
312.085	1.19
312.299	113.83
312.513	54.44
312.727	23.72
312.941	31.91
313.154	-52.05
313.368	74.92
313.582	21.67
313.796	103.59
314.009	9.39
314.223	58.54
314.437	52.39
314.651	56.49
314.864	-93.01
315.078	21.67
315.292	11.43
315.505	17.58
315.719	25.77
315.933	3.24
316.146	11.43
316.36	-54.1
316.573	-13.14
316.787	89.26
317.001	83.11
317.214	-15.19
317.428	7.34
317.641	11.43
317.855	9.39
318.068	58.54
318.282	19.63
318.495	74.92
318.709	64.68
318.922	-13.14
319.136	109.74
319.349	1.19
319.563	89.26
319.776	17.58
319.99	13.48
320.203	-17.24
320.417	-0.85
320.63	25.77
320.843	70.83
321.057	52.39
321.27	3.24
321.483	64.68
321.697	15.53
321.91	66.73
322.124	56.49
322.337	83.11
322.55	29.87
322.763	21.67
322.977	62.63
323.19	-9.05
323.403	21.67
323.617	-23.38
323.83	36.01
324.043	9.39
324.256	62.63
324.469	-101.2
324.683	17.58
324.896	-70.48
325.109	21.67
325.322	-11.09
325.535	60.59
325.748	50.35
325.962	56.49
326.175	52.39
326.388	70.83
326.601	62.63
326.814	-17.24
327.027	107.69
327.24	40.11
327.453	-39.76
327.666	42.15
327.879	54.44
328.092	27.82
328.305	9.39
328.518	44.2
328.731	-2.9
328.944	40.11
329.157	7.34
329.37	7.34
329.583	9.39
329.796	160.94
330.009	-7
330.222	62.63
330.435	25.77
330.648	9.39
330.861	-25.43
331.073	83.11
331.286	25.77
331.499	70.83
331.712	-17.24
331.925	81.07
332.138	-9.05
332.35	-35.67
332.563	-33.62
332.776	52.39
332.989	17.58
333.202	62.63
333.414	31.91
333.627	11.43
333.84	-15.19
334.053	62.63
334.265	15.53
334.478	68.78
334.691	-7
334.903	60.59
335.116	-25.43
335.329	44.2
335.541	27.82
335.754	56.49
335.966	3.24
336.179	9.39
336.392	-11.09
336.604	50.35
336.817	48.3
337.029	70.83
337.242	31.91
337.454	29.87
337.667	70.83
337.88	25.77
338.092	-29.52
338.305	-50
338.517	40.11
338.729	40.11
338.942	99.5
339.154	-2.9
339.367	38.06
339.579	29.87
339.792	48.3
340.004	23.72
340.217	-17.24
340.429	7.34
340.641	3.24
340.854	54.44
341.066	42.15
341.278	74.92
341.491	60.59
341.703	33.96
341.915	21.67
342.128	-50
342.34	54.44
342.552	-27.48
342.764	66.73
342.977	-56.15
343.189	7.34
343.401	-45.91
343.613	-4.95
343.826	72.87
344.038	-41.81
344.25	-29.52
344.462	25.77
344.674	19.63
344.886	-29.52
345.099	1.19
345.311	9.39
345.523	3.24
345.735	-23.38
345.947	85.16
346.159	11.43
346.371	-39.76
346.583	44.2
346.795	62.63
347.007	1.19
347.219	60.59
347.431	33.96
347.643	54.44
347.855	17.58
348.067	15.53
348.279	21.67
348.491	40.11
348.703	134.31
348.915	50.35
349.127	72.87
349.339	29.87
349.551	31.91
349.763	46.25
349.975	76.97
350.187	17.58
350.399	7.34
350.61	-7
350.822	-11.09
351.034	9.39
351.246	15.53
351.458	76.97
351.669	13.48
351.881	36.01
352.093	42.15
352.305	42.15
352.517	19.63
352.728	105.64
352.94	27.82
353.152	7.34
353.363	-17.24
353.575	13.48
353.787	46.25
353.999	38.06
354.21	44.2
354.422	31.91
354.633	17.58
354.845	50.35
355.057	-15.19
355.268	1.19
355.48	21.67
355.692	7.34
355.903	68.78
356.115	23.72
356.326	-27.48
356.538	107.69
356.749	27.82
356.961	97.45
357.172	79.02
357.384	62.63
357.595	173.22
357.807	-4.95
358.018	36.01
358.23	38.06
358.441	83.11
358.653	81.07
358.864	27.82
359.075	54.44
359.287	1.19
359.498	15.53
359.709	29.87
359.921	7.34
360.132	19.63
360.344	19.63
360.555	25.77
360.766	-0.85
360.977	1.19
361.189	5.29
361.4	-25.43
361.611	83.11
361.823	44.2
362.034	-58.2
362.245	-7
362.456	11.43
362.667	1.19
362.879	29.87
363.09	99.5
363.301	54.44
363.512	40.11
363.723	-11.09
363.935	95.4
364.146	17.58
364.357	48.3
364.568	66.73
364.779	15.53
364.99	81.07
365.201	-43.86
365.412	1.19
365.623	-37.72
365.834	42.15
366.045	-31.57
366.256	109.74
366.467	11.43
366.678	-21.33
366.889	29.87
367.1	83.11
367.311	70.83
367.522	44.2
367.733	105.64
367.944	50.35
368.155	15.53
368.366	33.96
368.577	48.3
368.788	119.98
368.999	-56.15
369.209	89.26
369.42	76.97
369.631	91.31
369.842	81.07
370.053	7.34
370.264	5.29
370.474	-9.05
370.685	-7
370.896	132.26
371.107	85.16
371.317	93.35
371.528	23.72
371.739	13.48
371.95	132.26
372.16	68.78
372.371	33.96
372.582	60.59
372.792	46.25
373.003	81.07
373.214	44.2
373.424	101.55
373.635	27.82
373.846	81.07
374.056	38.06
374.267	7.34
374.477	48.3
374.688	72.87
374.898	29.87
375.109	101.55
375.319	7.34
375.53	97.45
375.74	66.73
375.951	64.68
376.161	38.06
376.372	40.11
376.582	52.39
376.793	107.69
377.003	13.48
377.214	-9.05
377.424	-19.29
377.635	29.87
377.845	52.39
378.055	72.87
378.266	11.43
378.476	21.67
378.686	1.19
378.897	29.87
379.107	-19.29
379.317	-15.19
379.528	33.96
379.738	76.97
379.948	23.72
380.158	74.92
380.369	87.21
380.579	29.87
380.789	9.39
380.999	-50
381.21	-76.63
381.42	103.59
381.63	23.72
381.84	-4.95
382.05	66.73
382.261	99.5
382.471	7.34
382.681	17.58
382.891	101.55
383.101	44.2
383.311	-37.72
383.521	23.72
383.731	72.87
383.941	46.25
384.151	23.72
384.361	-13.14
384.571	79.02
384.781	50.35
384.991	122.02
385.201	60.59
385.411	-13.14
385.621	33.96
385.831	31.91
386.041	-4.95
386.251	130.22
386.461	93.35
386.671	46.25
386.881	-23.38
387.091	93.35
387.301	93.35
387.511	66.73
387.72	46.25
387.93	42.15
388.14	56.49
388.35	52.39
388.56	76.97
388.769	48.3
388.979	48.3
389.189	7.34
389.399	21.67
389.609	46.25
389.818	101.55
390.028	52.39
390.238	58.54
390.447	13.48
390.657	87.21
390.867	17.58
391.076	89.26
391.286	36.01
391.496	19.63
391.705	56.49
391.915	64.68
392.125	89.26
392.334	31.91
392.544	76.97
392.753	85.16
392.963	33.96
393.172	-13.14
393.382	-27.48
393.591	44.2
393.801	64.68
394.01	140.46
394.22	128.17
394.429	25.77
394.639	15.53
394.848	81.07
395.058	48.3
395.267	66.73
395.477	103.59
395.686	72.87
395.895	158.89
396.105	97.45
396.314	81.07
396.524	46.25
396.733	9.39
396.942	76.97
397.152	62.63
397.361	171.18
397.57	70.83
397.78	113.83
397.989	44.2
398.198	109.74
398.407	7.34
398.617	68.78
398.826	70.83
399.035	40.11
399.244	103.59
399.453	146.6
399.663	99.5
399.872	81.07
400.081	81.07
400.29	83.11
400.499	111.78
400.708	173.22
400.917	124.07
401.127	111.78
401.336	9.39
401.545	236.71
401.754	117.93
401.963	142.5
402.172	79.02
402.381	44.2
402.59	5.29
402.799	52.39
403.008	101.55
403.217	60.59
403.426	76.97
403.635	72.87
403.844	132.26
404.053	169.13
404.262	87.21
404.471	138.41
404.68	148.65
404.888	122.02
405.097	111.78
405.306	144.55
405.515	113.83
405.724	162.98
405.933	107.69
406.142	64.68
406.35	148.65
406.559	130.22
406.768	165.03
406.977	210.09
407.185	132.26
407.394	185.51
407.603	119.98
407.812	169.13
408.02	183.46
408.229	205.99
408.438	150.7
408.646	197.8
408.855	242.85
409.064	199.85
409.272	205.99
409.481	267.43
409.69	199.85
409.898	185.51
410.107	263.33
410.315	347.3
410.524	285.86
410.733	271.53
410.941	236.71
411.15	324.77
411.358	304.29
411.567	445.6
411.775	408.74
411.984	355.49
412.192	429.22
412.401	375.97
412.609	429.22
412.818	494.76
413.026	435.36
413.234	445.6
413.443	392.36
413.651	476.32
413.86	472.23
414.068	584.87
414.276	548
414.485	492.71
414.693	527.52
414.901	679.07
415.11	556.19
415.318	693.41
415.526	666.78
415.734	703.65
415.943	717.98
416.151	740.51
416.359	656.54
416.567	769.18
416.776	797.85
416.984	777.37
417.192	955.55
417.4	816.29
417.608	826.53
417.817	924.83
418.025	1031.32
418.233	1055.9
418.441	1053.85
418.649	1121.43
418.857	1125.53
419.065	1227.93
419.273	1168.54
419.481	1266.84
419.689	1223.83
419.897	1334.42
420.105	1369.24
420.313	1428.63
420.521	1471.64
420.729	1533.08
420.937	1490.07
421.145	1639.57
421.353	1680.53
421.561	1815.69
421.769	1754.26
421.977	1946.76
422.185	1905.81
422.393	1922.19
422.601	2053.26
422.809	2038.92
423.017	2114.7
423.224	2241.67
423.432	2266.25
423.64	2299.02
423.848	2462.85
424.056	2333.83
424.263	2530.44
424.471	2630.79
424.679	2587.78
424.887	2745.47
425.094	2911.36
425.302	2862.21
425.51	2972.8
425.718	2980.99
425.925	3081.34
426.133	3206.27
426.341	3472.5
426.548	3515.51
426.756	3540.08
426.964	3595.38
427.171	3742.83
427.379	3894.38
427.586	4029.55
427.794	4107.37
428.001	4273.26
428.209	4592.74
428.417	4297.83
428.624	4830.3
428.832	4795.49
429.039	4805.73
429.247	4617.32
429.454	5149.79
429.662	5512.28
429.869	5282.91
430.076	5471.32
430.284	5377.11
430.491	5643.35
430.699	5940.3
430.906	6018.13
431.114	6167.63
431.321	6151.24
431.528	6333.51
431.736	6575.17
431.943	7078.97
432.15	6751.3
432.358	6947.9
432.565	7441.47
432.772	7351.35
432.979	7832.63
433.187	7808.05
433.394	7695.41
433.601	8432.68
433.808	8512.55
434.016	8416.3
434.223	8752.17
434.43	9155.61
434.637	9049.12
434.844	9643.03
435.052	9784.34
435.259	9751.57
435.466	9819.16
435.673	9772.05
435.88	10382.35
436.087	10857.48
436.294	11144.19
436.501	10849.29
436.708	10910.72
436.915	11205.63
437.122	11932.66
437.329	11639.8
437.537	12123.12
437.743	12172.27
437.95	12202.99
438.157	12991.46
438.364	13272.03
438.571	13208.55
438.778	13503.45
438.985	14474.19
439.192	13943.77
439.399	14402.51
439.606	14062.55
439.813	14898.12
440.02	15791.03
440.227	15367.1
440.433	15567.81
440.64	15836.09
440.847	15756.22
441.054	16018.36
441.261	17093.54
441.467	16931.75
441.674	17353.63
441.881	17765.28
442.088	18000.79
442.294	17873.82
442.501	18527.12
442.708	18785.16
442.914	19350.4
443.121	20292.47
443.328	19700.61
443.534	21134.18
443.741	20419.44
443.948	20235.13
444.154	21554.02
444.361	22016.86
444.568	22031.19
444.774	21674.85
444.981	21977.95
445.187	22899.53
445.394	23704.38
445.6	23333.7
445.807	25649.96
446.013	24353.59
446.22	24929.07
446.426	25547.56
446.633	25670.43
446.839	26878.74
447.046	25926.43
447.252	27214.6
447.459	27413.26
447.665	27028.24
447.871	28369.66
448.078	29647.59
448.284	27978.5
448.491	29203.18
448.697	30327.52
448.903	30442.2
449.11	30868.18
449.316	30145.25
449.522	31040.21
449.728	31734.47
449.935	31789.77
450.141	31609.54
450.347	32590.52
450.553	31722.18
450.76	32420.54
450.966	32993.97
451.172	32750.26
451.378	33839.78
451.584	32791.22
451.791	33546.92
451.997	33381.04
452.203	34110.11
452.409	34343.58
452.615	34189.98
452.821	32740.02
453.027	32174.78
453.233	34206.37
453.44	32649.91
453.646	33237.68
453.852	33303.21
454.058	34028.2
454.264	32404.16
454.47	33462.96
454.676	32600.76
454.882	33704.62
455.088	30554.84
455.294	31457.99
455.5	31718.09
455.705	32260.8
455.911	30687.96
456.117	30345.95
456.323	29885.15
456.529	27992.83
456.735	29405.93
456.941	28498.68
457.147	27904.77
457.352	27208.46
457.558	26729.23
457.764	27407.11
457.97	26546.97
458.176	25926.43
458.381	26049.31
458.587	25064.24
458.793	24922.93
458.999	23350.09
459.204	25045.8
459.41	24535.86
459.616	23057.23
459.821	23126.86
460.027	22704.98
460.233	22582.1
460.438	21203.82
460.644	21369.7
460.85	20120.44
461.055	20036.47
461.261	20253.56
461.466	18652.05
461.672	17941.4
461.878	19217.29
462.083	18035.61
462.289	17603.49
462.494	17492.9
462.7	16710.57
462.905	16524.21
463.111	16745.39
463.316	16882.6
463.522	16612.27
463.727	16659.37
463.932	16642.99
464.138	16530.35
464.343	16597.93
464.549	16135.09
464.754	16458.67
464.959	16475.06
465.165	16126.9
465.37	15320
465.575	14975.94
465.781	15733.69
465.986	15729.59
466.191	15266.75
466.397	14887.88
466.602	14414.8
466.807	14762.95
467.012	14709.71
467.218	14607.31
467.423	14613.45
467.628	14621.64
467.833	15150.02
468.038	14828.49
468.244	14210
468.449	14539.72
468.654	14253.01
468.859	14310.35
469.064	14060.5
469.269	13489.12
469.474	13816.79
469.679	14066.64
469.885	13607.9
470.09	13929.43
470.295	13757.4
470.5	13319.14
470.705	13460.45
470.91	12979.17
471.115	13024.23
471.32	13263.84
471.525	13272.03
471.73	12844.01
471.935	12631.02
472.139	12305.39
472.344	12327.92
472.549	12375.02
472.754	12368.88
472.959	11930.61
473.164	11662.33
473.369	11619.32
473.574	12071.92
473.778	11965.43
473.983	11643.9
474.188	11768.82
474.393	11316.22
474.598	11303.93
474.802	11285.5
475.007	11082.75
475.212	11205.63
475.417	10728.45
475.621	10861.57
475.826	10730.5
476.031	10425.36
476.235	10308.62
476.44	10583.05
476.645	10259.47
476.849	10374.16
477.054	10284.05
477.259	9991.19
477.463	10011.67
477.668	9688.09
477.872	9888.79
478.077	9511.96
478.282	9534.49
478.486	9626.65
478.691	9450.52
478.895	9397.28
479.1	9151.52
479.304	9225.25
479.509	9020.45
479.713	9135.14
479.918	8961.06
480.122	8786.98
480.326	9018.4
480.531	8834.08
480.735	8987.68
480.94	8696.87
481.144	9067.55
481.348	8617
481.553	8692.77
481.757	8516.65
481.961	8715.3
482.166	8520.74
482.37	8770.6
482.574	8590.38
482.778	8559.66
482.983	8756.26
483.187	8586.28
483.391	8750.12
483.595	8637.48
483.8	8526.89
484.004	8557.61
484.208	8621.1
484.412	8590.38
484.616	8629.29
484.821	8481.83
485.025	8401.96
485.229	8649.77
485.433	8457.26
485.637	8453.16
485.841	8508.46
486.045	8502.31
486.249	8545.32
486.453	8629.29
486.657	8698.92
486.861	8694.82
487.065	8467.5
487.269	8610.86
487.473	8459.31
487.677	8584.23
487.881	8717.35
488.085	8625.19
488.289	8754.21
488.493	8565.8
488.697	8760.36
488.901	8703.01
489.105	8717.35
489.309	8645.67
489.512	8631.33
489.716	8776.74
489.92	8725.54
490.124	8504.36
490.328	8860.71
490.531	8682.53
490.735	8809.51
490.939	8856.61
491.143	8750.12
491.346	8807.46
491.55	8995.87
491.754	8936.48
491.958	8983.59
492.161	9198.62
492.365	9059.36
492.569	8989.73
492.772	8821.8
492.976	9120.8
493.18	9143.33
493.383	9247.77
493.587	9331.74
493.79	9423.9
493.994	9229.34
494.197	9301.02
494.401	9530.39
494.605	9460.76
494.808	9683.99
495.012	9593.88
495.215	9612.31
495.419	9749.53
495.622	9677.85
495.825	9884.69
496.029	9935.89
496.232	9985.04
496.436	9952.27
496.639	10292.24
496.843	10290.19
497.046	10488.84
497.249	10662.92
497.453	10576.91
497.656	10779.65
497.859	10613.77
498.063	10851.33
498.266	11396.09
498.469	10990.59
498.673	11107.33
498.876	11271.17
499.079	11512.83
499.282	11449.34
499.485	11713.53
499.689	11713.53
499.892	11822.07
500.095	12069.87
500.298	12137.46
500.501	12166.13
500.705	12403.69
500.908	12606.44
501.111	12635.11
501.314	12786.66
501.517	12952.55
501.72	13325.28
501.923	13175.78
502.126	13171.68
502.329	13581.28
502.532	13618.14
502.735	13730.78
502.938	14285.78
503.141	14173.14
503.344	14298.06
503.547	14164.95
503.75	14408.65
503.953	14676.94
504.156	14638.03
504.359	15049.67
504.562	15168.45
504.765	15147.97
504.968	15530.94
505.17	15483.84
505.373	15760.31
505.576	16047.03
505.779	16030.65
505.982	15907.77
506.185	16384.94
506.387	16501.68
506.59	16739.24
506.793	17214.37
506.996	17093.54
507.198	17206.18
507.401	17542.05
507.604	17685.4
507.807	17968.02
508.009	17890.2
508.212	18166.68
508.415	18232.21
508.617	18387.86
508.82	18336.66
509.022	18457.49
509.225	18975.63
509.428	19284.87
509.63	18977.67
509.833	19037.06
510.035	19510.14
510.238	19604.35
510.44	19964.79
510.643	20087.67
510.845	20337.52
511.048	20263.8
511.25	20638.58
511.453	20503.41
511.655	21392.23
511.858	21150.57
512.06	21300.07
512.262	21283.69
512.465	21599.07
512.667	21861.21
512.87	22221.66
513.072	22055.77
513.274	22330.2
513.477	22772.56
513.679	22825.81
513.881	22977.36
514.084	23106.38
514.286	23513.92
514.488	23554.88
514.69	24451.89
514.893	24101.69
515.095	24036.16
515.297	24599.35
515.499	24175.42
515.701	25150.25
515.904	25203.5
516.106	25113.39
516.308	25529.13
516.51	25516.84
516.712	25799.46
516.914	25797.41
517.116	26393.37
517.318	26452.76
517.52	26137.37
517.722	26506.01
517.925	27009.81
518.127	26901.26
518.329	27151.12
518.531	27052.81
518.733	27734.79
518.935	27542.28
519.136	27804.42
519.338	28310.27
519.54	28109.57
519.742	28787.44
519.944	28713.72
520.146	29074.16
520.348	29317.87
520.55	29328.11
520.752	29410.03
520.954	29913.83
521.155	29561.58
521.357	30204.64
521.559	30325.47
521.761	30446.3
521.963	30718.68
522.164	30823.12
522.366	30653.14
522.568	30980.82
522.77	31292.11
522.971	31570.63
523.173	31564.49
523.375	31474.38
523.576	31808.2
523.778	31617.74
523.98	32426.68
524.181	32275.13
524.383	32428.73
524.584	32643.77
524.786	32752.31
524.988	32565.95
525.189	33153.71
525.391	33047.22
525.592	33338.03
525.794	33366.7
525.995	33520.3
526.197	33792.68
526.398	33602.22
526.6	34140.83
526.801	33485.48
527.003	33905.32
527.204	33997.48
527.406	34613.91
527.607	34312.86
527.808	34628.25
528.01	34093.73
528.211	34278.05
528.412	35201.68
528.614	34706.07
528.815	34697.88
529.016	34597.53
529.218	34767.51
529.419	34912.92
529.62	34751.13
529.822	35117.71
530.023	35000.98
530.224	34671.26
530.425	35082.9
530.626	34874.01
530.828	34794.14
531.029	35136.15
531.23	34943.64
531.431	34984.6
531.632	35201.68
531.833	35369.61
532.035	35103.38
532.236	35650.19
532.437	35472.01
532.638	35099.28
532.839	35777.16
533.04	35365.52
533.241	35371.66
533.442	35904.13
533.643	35340.94
533.844	35459.73
534.045	35388.05
534.246	35326.61
534.447	35609.23
534.648	35381.9
534.849	35785.35
535.05	35121.81
535.251	35256.98
535.451	35418.77
535.652	35822.22
535.853	35441.29
536.054	35560.08
536.255	35695.24
536.456	35179.15
536.657	35854.98
536.857	35388.05
537.058	35256.98
537.259	35588.75
537.46	35539.6
537.66	35510.92
537.861	35437.2
538.062	35449.49
538.263	35902.09
538.463	35506.83
538.664	34972.31
538.865	35592.84
539.065	35703.43
539.266	34923.16
539.466	35711.63
539.667	35000.98
539.868	35635.85
540.068	35168.91
540.269	35504.78
540.469	35592.84
540.67	35156.63
540.87	35334.8
541.071	35164.82
541.271	35334.8
541.472	35170.96
541.672	35437.2
541.873	34962.07
542.073	34595.48
542.274	35302.03
542.474	35338.9
542.675	34755.22
542.875	35338.9
543.075	35463.82
543.276	34808.47
543.476	34890.39
543.676	34957.97
543.877	34767.51
544.077	34607.77
544.277	34886.29
544.478	34845.33
544.678	35013.27
544.878	35138.19
545.078	34867.86
545.279	34648.73
545.479	34861.72
545.679	34923.16
545.879	35031.7
546.079	34656.92
546.28	34517.66
546.48	34603.67
546.68	34857.62
546.88	34888.34
547.08	34615.96
547.28	34945.69
547.48	34583.19
547.68	34333.34
547.88	34476.7
548.081	35193.49
548.281	34554.52
548.481	34833.05
548.681	34734.74
548.881	34585.24
549.081	34658.97
549.28	34306.72
549.48	34615.96
549.68	34372.25
549.88	34996.88
550.08	34230.94
550.28	34804.38
550.48	34591.39
550.68	34769.56
550.88	34331.29
551.08	34564.76
551.279	34708.12
551.479	34280.1
551.679	34376.35
551.879	34331.29
552.079	34644.63
552.278	34161.31
552.478	34505.37
552.678	34464.41
552.878	34351.77
553.077	34218.66
553.277	34329.25
553.477	34646.68
553.676	34128.55
553.876	34378.4
554.076	34230.94
554.275	34200.22
554.475	33792.68
554.674	34183.84
554.874	34214.56
555.074	34132.64
555.273	33893.03
555.473	34382.49
555.672	34048.68
555.872	34278.05
556.071	34177.7
556.271	34288.29
556.47	33792.68
556.67	33426.09
556.869	33774.25
557.068	33845.93
557.268	33931.94
557.467	33780.39
557.667	33669.8
557.866	33876.65
558.065	33649.32
558.265	33485.48
558.464	33704.62
558.663	33901.22
558.863	33247.92
559.062	34155.17
559.261	33170.1
559.461	33764.01
559.66	32996.02
559.859	33317.55
560.058	32981.68
560.258	33190.58
560.457	33026.74
560.656	33391.28
560.855	33032.88
561.054	33067.7
561.253	33018.55
561.453	33176.24
561.652	32985.78
561.851	33204.91
562.05	32656.06
562.249	32914.1
562.448	33090.23
562.647	32746.17
562.846	32899.76
563.045	32803.51
563.244	32309.95
563.443	32740.02
563.642	32338.62
563.841	32551.61
564.04	32586.43
564.239	32918.2
564.438	32406.2
564.637	32631.48
564.836	32398.01
565.035	31904.45
565.234	32307.9
565.432	32029.38
565.631	32328.38
565.83	32363.2
566.029	32195.26
566.228	32029.38
566.427	31865.54
566.625	31623.88
566.824	32025.28
567.023	31984.32
567.222	31435.47
567.42	32107.2
567.619	31789.77
567.818	31689.42
568.016	31320.78
568.215	31888.07
568.414	31701.7
568.612	31857.35
568.811	31472.33
569.01	31419.08
569.208	31216.33
569.407	31685.32
569.605	31146.7
569.804	31369.93
570.002	30765.78
570.201	31150.8
570.4	31089.36
570.598	30900.95
570.797	30505.69
570.995	30921.43
571.193	30591.7
571.392	31150.8
571.59	30565.08
571.789	30911.19
571.987	30409.43
572.186	30421.72
572.384	30368.48
572.582	30753.49
572.781	30567.13
572.979	29866.72
573.177	30522.07
573.376	30589.66
573.574	29852.39
573.772	30327.52
573.971	29848.29
574.169	29897.44
574.367	29956.83
574.565	30051.04
574.763	29674.21
574.962	29866.72
575.16	29719.27
575.358	29676.26
575.556	29330.16
575.754	29917.92
575.952	29526.76
576.151	29723.37
576.349	29078.25
576.547	29319.92
576.745	29006.58
576.943	29520.62
577.141	29016.82
577.339	29065.97
577.537	29070.06
577.735	29010.67
577.933	28930.8
578.131	28963.57
578.329	28639.99
578.527	28607.22
578.725	28582.65
578.923	28670.71
579.121	28392.19
579.319	28308.22
579.516	28924.66
579.714	28545.78
579.912	28250.88
580.11	28320.51
580.308	28001.02
580.506	28224.25
580.704	27699.97
580.901	27898.62
581.099	28099.33
581.297	27888.39
581.495	27734.79
581.692	27720.45
581.89	27777.79
582.088	27579.14
582.285	27337.48
582.483	27783.94
582.681	27562.76
582.878	27503.37
583.076	26948.37
583.274	27380.49
583.471	27325.19
583.669	27282.19
583.866	26796.82
584.064	27441.93
584.262	27020.05
584.459	27396.87
584.657	26872.59
584.854	26995.47
585.052	26331.93
585.249	26788.63
585.447	26639.12
585.644	26141.47
585.841	26671.89
586.039	26659.6
586.236	26258.2
586.434	26448.66
586.631	26145.56
586.828	26194.71
587.026	26030.88
587.223	26166.04
587.42	25801.5
587.618	25934.62
587.815	25758.5
588.012	25529.13
588.21	25680.67
588.407	25871.14
588.604	25367.34
588.801	25211.69
588.999	25600.8
589.196	25385.77
589.393	25228.07
589.59	25244.46
589.787	25164.59
589.984	24988.46
590.182	25123.63
590.379	25082.67
590.576	24873.78
590.773	24791.86
590.97	24687.41
591.167	24890.16
591.364	24286.01
591.561	24679.22
591.758	24445.75
591.955	24269.62
592.152	24511.28
592.349	24142.65
592.546	24220.47
592.743	24259.38
592.94	23925.57
593.137	24130.36
593.334	24003.39
593.531	23419.72
593.727	23868.22
593.924	23839.55
594.121	23866.17
594.318	23866.17
594.515	23513.92
594.712	23814.98
594.908	23386.95
595.105	23671.62
595.302	23229.26
595.499	23552.84
595.696	23098.19
595.892	23100.23
596.089	23337.8
596.286	23292.74
596.482	23089.99
596.679	22883.15
596.876	22766.42
597.072	22795.09
597.269	22491.99
597.466	22534.99
597.662	22747.98
597.859	22592.34
598.055	22649.68
598.252	22354.77
598.448	22049.63
598.645	22346.58
598.841	22166.36
599.038	21980
599.234	22147.93
599.431	21965.66
599.627	21539.68
599.824	21977.95
600.02	21824.35
600.217	21875.55
600.413	21326.69
600.609	21738.33
600.806	21418.85
601.002	21519.2
601.198	21371.75
601.395	21427.04
601.591	21275.49
601.787	21068.65
601.984	21173.1
602.18	21400.42
602.376	20976.49
602.572	21097.32
602.769	20894.57
602.965	20841.32
603.161	20880.24
603.357	20720.49
603.553	20558.7
603.75	20904.81
603.946	20396.92
604.142	20474.74
604.338	20263.8
604.534	20622.19
604.73	20329.33
604.926	20138.87
605.122	20425.59
605.318	20202.36
605.514	19864.44
605.71	20093.82
605.906	19805.05
606.102	20128.63
606.298	20022.14
606.494	19850.11
606.69	19950.46
606.886	19794.81
607.082	19528.58
607.278	19872.64
607.474	19469.19
607.67	19567.49
607.866	19354.5
608.062	19618.69
608.257	19497.86
608.453	19356.55
608.649	19565.44
608.845	19436.42
609.041	19362.69
609.236	19178.37
609.432	19100.55
609.628	19186.57
609.824	19493.76
610.019	19078.02
610.215	19094.41
610.411	19100.55
610.606	19102.6
610.802	19311.49
610.998	18914.19
611.193	19166.09
611.389	18828.17
611.584	18693.01
611.78	18840.46
611.976	18899.85
612.171	18854.79
612.367	18736.01
612.562	18629.52
612.758	18197.4
612.953	18322.32
613.149	18903.95
613.344	18516.88
613.539	18650
613.735	18672.53
613.93	18606.99
614.126	18506.64
614.321	18549.65
614.517	18568.08
614.712	18541.46
614.907	18307.99
615.103	18424.72
615.298	18260.88
615.493	18459.54
615.688	17900.44
615.884	18594.7
616.079	18133.91
616.274	17992.6
616.47	17920.92
616.665	18013.08
616.86	17863.58
617.055	18135.96
617.25	17834.91
617.445	17976.22
617.641	17654.69
617.836	17976.22
618.031	17531.81
618.226	17533.86
618.421	17699.74
618.616	17738.65
618.811	17359.78
619.006	18000.79
619.201	17427.36
619.396	17308.58
619.591	17032.1
619.786	17263.52
619.981	16827.31
620.176	17238.95
620.371	16827.31
620.566	17093.54
620.761	16696.24
620.956	16946.09
621.151	16673.71
621.346	16651.18
621.541	16247.73
621.735	16634.8
621.93	16333.75
622.125	16270.26
622.32	15946.68
622.515	16124.85
622.709	16153.52
622.904	16069.56
623.099	15872.95
623.294	15995.83
623.488	15709.11
623.683	15901.62
623.878	15487.93
624.072	15557.57
624.267	15580.09
624.462	15272.9
624.656	15107.01
624.851	15246.27
625.046	15031.24
625.24	14969.8
625.435	14627.79
625.629	14926.79
625.824	14709.71
626.018	14808.01
626.213	14349.26
626.407	14732.23
626.602	14140.37
626.796	14574.54
626.991	14412.75
627.185	14293.97
627.38	14226.39
627.574	14207.95
627.768	14140.37
627.963	13874.13
628.157	13847.51
628.352	13728.73
628.546	13411.29
628.74	13831.13
628.935	13464.54
629.129	13513.69
629.323	13501.4
629.517	13458.4
629.712	13208.55
629.906	13243.36
630.1	13093.86
630.294	13218.78
630.489	12991.46
630.683	12977.12
630.877	12938.21
631.071	12782.57
631.265	12850.15
631.459	12641.26
631.653	12651.5
631.848	12698.6
632.042	12299.25
632.236	12631.02
632.43	12219.38
632.624	12465.13
632.818	12080.11
633.012	12094.45
633.206	12176.37
633.4	12221.42
633.594	12053.49
633.788	11983.86
633.982	12143.6
634.176	11834.36
634.369	11797.49
634.563	11738.1
634.757	11760.63
634.951	11420.67
635.145	11502.59
635.339	11635.71
635.533	11246.59
635.726	11506.68
635.92	11217.92
636.114	11322.37
636.308	11248.64
636.501	11088.9
636.695	11146.24
636.889	11017.22
637.083	11009.03
637.276	11060.23
637.47	10998.79
637.664	10839.05
637.857	10841.09
638.051	10849.29
638.244	10703.88
638.438	10703.88
638.632	10591.24
638.825	10398.73
639.019	10466.31
639.212	10155.02
639.406	10238.99
639.599	10204.17
639.793	10429.45
639.986	9993.23
640.18	9944.08
640.373	10152.98
640.567	9968.66
640.76	9964.56
640.954	9858.07
641.147	9933.84
641.34	9737.24
641.534	9640.98
641.727	9765.91
641.92	9782.29
642.114	9683.99
642.307	9511.96
642.5	9663.51
642.694	9538.59
642.887	9436.19
643.08	9346.08
643.273	9387.04
643.467	9122.85
643.66	9346.08
643.853	9258.01
644.046	9079.84
644.239	9128.99
644.432	9126.94
644.626	8803.36
644.819	9049.12
645.012	8780.84
645.205	9024.54
645.398	8928.29
645.591	8913.95
645.784	8770.6
645.977	8623.14
646.17	8666.15
646.363	8516.65
646.556	8395.82
646.749	8643.62
646.942	8479.79
647.135	8647.72
647.328	8369.19
647.521	8369.19
647.714	8270.89
647.907	8176.69
648.099	8244.27
648.292	8205.36
648.485	8174.64
648.678	8074.29
648.871	8057.9
649.064	7945.27
649.256	7883.83
649.449	7830.58
649.642	7713.84
649.835	7689.27
650.027	7820.34
650.22	7855.15
650.413	7687.22
650.605	7672.89
650.798	7666.74
650.991	7484.47
651.183	7722.04
651.376	7588.92
651.568	7541.82
651.761	7453.75
651.954	7355.45
652.146	7259.2
652.339	7355.45
652.531	7134.27
652.724	7242.81
652.916	7218.24
653.109	7171.13
653.301	7226.43
653.494	7056.45
653.686	7136.32
653.879	7164.99
654.071	7038.02
654.263	6894.66
654.456	6982.72
654.648	7005.25
654.84	6853.7
655.033	6730.82
655.225	6601.8
655.417	6628.42
655.61	6687.81
655.802	6673.48
655.994	6616.13
656.186	6595.65
656.379	6607.94
656.571	6562.89
656.763	6536.26
656.955	6499.4
657.148	6607.94
657.34	6415.43
657.532	6403.14
657.724	6331.47
657.916	6429.77
658.108	6251.6
658.3	6388.81
658.492	6263.88
658.684	6157.39
658.876	6241.36
659.068	6192.2
659.26	6147.15
659.452	6065.23
659.644	5913.68
659.836	5989.46
660.028	6075.47
660.22	5975.12
660.412	5842
660.604	5825.62
660.796	5891.15
660.988	5696.6
661.18	5747.79
661.372	5790.8
661.563	5858.39
661.755	5770.32
661.947	5626.96
662.139	5686.36
662.331	5473.37
662.522	5616.72
662.714	5504.09
662.906	5440.6
663.097	5622.87
663.289	5485.65
663.481	5358.68
663.673	5424.22
663.864	5391.45
664.056	5254.23
664.247	5364.82
664.439	5217.37
664.631	5229.66
664.822	5344.35
665.014	5157.98
665.205	5127.26
665.397	5248.09
665.588	5143.64
665.78	5135.45
665.971	5137.5
666.163	5131.36
666.354	4973.66
666.546	5198.94
666.737	4916.32
666.929	5026.91
667.12	4971.61
667.311	4797.54
667.503	4869.22
667.694	4924.51
667.885	4928.61
668.077	4877.41
668.268	4830.3
668.459	4822.11
668.651	4684.9
668.842	4928.61
669.033	4922.46
669.224	4635.75
669.416	4707.43
669.607	4715.62
669.798	4600.93
669.989	4797.54
670.18	4656.23
670.371	4598.88
670.563	4703.33
670.754	4699.23
670.945	4453.48
671.136	4484.2
671.327	4443.24
671.518	4412.52
671.709	4426.86
671.9	4594.79
672.091	4545.64
672.282	4392.04
672.473	4422.76
672.664	4285.55
672.855	4260.97
673.046	4367.46
673.237	4336.74
673.428	4394.09
673.619	4326.5
673.809	4283.5
674	4310.12
674.191	4349.03
674.382	4234.35
674.573	4263.02
674.764	4220.01
674.954	4248.68
675.145	4134
675.336	4181.1
675.527	4160.62
675.717	4101.23
675.908	4213.87
676.099	4242.54
676.289	4117.61
676.48	4144.24
676.671	4158.57
676.861	4158.57
677.052	4043.88
677.243	3974.25
677.433	3935.34
677.624	4211.82
677.814	4009.07
678.005	3896.43
678.195	3988.59
678.386	3933.29
678.576	3935.34
678.767	4029.55
678.957	3923.05
679.148	4037.74
679.338	4064.36
679.529	3959.92
679.719	3834.99
679.909	3976.3
680.1	3900.53
680.29	3994.73
680.481	3843.18
680.671	3773.55
680.861	3724.4
681.052	3769.46
681.242	3757.17
681.432	3886.19
681.622	3818.61
681.813	3871.86
682.003	3785.84
682.193	3775.6
682.383	3779.7
682.573	3781.74
682.764	3701.87
682.954	3763.31
683.144	3785.84
683.334	3677.3
683.524	3669.11
683.714	3685.49
683.904	3662.96
684.094	3650.67
684.284	3693.68
684.474	3705.97
684.664	3632.24
684.854	3564.66
685.044	3632.24
685.234	3595.38
685.424	3658.87
685.614	3552.37
685.804	3509.37
685.994	3556.47
686.184	3624.05
686.374	3509.37
686.564	3560.56
686.753	3656.82
686.943	3435.64
687.133	3497.08
687.323	3490.93
687.513	3435.64
687.702	3429.49
687.892	3366.01
688.082	3441.78
688.272	3538.04
688.461	3353.72
688.651	3415.16
688.841	3378.3
689.03	3341.43
689.22	3363.96
689.41	3415.16
689.599	3155.07
689.789	3247.23
689.979	3214.46
690.168	3132.54
690.358	3114.11
690.547	3292.28
690.737	3222.65
690.926	3148.92
691.116	3179.64
691.305	3193.98
691.495	3087.48
691.684	3048.57
691.874	3011.71
692.063	3140.73
692.252	3091.58
692.442	3038.33
692.631	2886.78
692.82	3021.95
693.01	3064.96
693.199	2876.54
693.388	2966.65
693.578	2890.88
693.767	2980.99
693.956	2954.37
694.146	2962.56
694.335	2868.35
694.524	2915.45
694.713	2837.63
694.902	2892.93
695.092	2911.36
695.281	2772.1
695.47	2780.29
695.659	2847.87
695.848	2786.43
696.037	2806.91
696.226	2808.96
696.415	2765.95
696.604	2757.76
696.793	2778.24
696.982	2763.9
697.171	2747.52
697.36	2649.22
697.549	2518.15
697.738	2620.55
697.927	2548.87
698.116	2653.31
698.305	2555.01
698.494	2544.77
698.683	2704.51
698.872	2591.88
699.061	2559.11
699.25	2573.44
699.438	2616.45
699.627	2546.82
699.816	2671.75
700.005	2532.48
700.193	2520.2
700.382	2522.24
700.571	2526.34
700.76	2405.51
700.948	2544.77
701.137	2473.09
701.326	2540.68
701.514	2409.61
701.703	2448.52
701.892	2456.71
702.08	2448.52
702.269	2448.52
702.457	2434.18
702.646	2380.93
702.834	2434.18
703.023	2397.32
703.212	2411.65
703.4	2378.89
703.589	2305.16
703.777	2339.97
703.965	2313.35
704.154	2395.27
704.342	2444.42
704.531	2288.78
704.719	2315.4
704.907	2370.69
705.096	2276.49
705.284	2317.45
705.472	2380.93
705.661	2231.43
705.849	2305.16
706.037	2280.58
706.226	2378.89
706.414	2419.85
706.602	2202.76
706.79	2333.83
706.979	2315.4
707.167	2430.09
707.355	2337.93
707.543	2354.31
707.731	2243.72
707.919	2272.39
708.107	2202.76
708.296	2161.8
708.484	2239.62
708.672	2335.88
708.86	2268.3
709.048	2342.02
709.236	2290.82
709.424	2358.41
709.612	2233.48
709.8	2251.91
709.988	2204.81
710.176	2292.87
710.364	2256.01
710.551	2294.92
710.739	2206.86
710.927	2190.47
711.115	2210.95
711.303	2282.63
711.491	2182.28
711.679	2233.48
711.866	2280.58
712.054	2247.82
712.242	2227.34
712.43	2290.82
712.617	2276.49
712.805	2264.2
712.993	2155.66
713.181	2098.31
713.368	2253.96
713.556	2309.26
713.744	2159.75
713.931	2233.48
714.119	2247.82
714.306	2227.34
714.494	2180.23
714.682	2143.37
714.869	2260.1
715.057	2194.57
715.244	2163.85
715.432	2237.58
715.619	2141.32
715.807	2114.7
715.994	2067.6
716.182	2215.05
716.369	2174.09
716.556	2176.14
716.744	2190.47
716.931	2081.93
717.119	2151.56
717.306	2231.43
717.493	2192.52
717.681	2284.68
717.868	2172.04
718.055	2149.51
718.242	2270.34
718.43	2301.06
718.617	2221.19
718.804	2147.47
718.991	2215.05
719.179	2219.14
719.366	2227.34
719.553	2231.43
719.74	2110.6
719.927	2186.38
720.114	2194.57
720.301	2151.56
720.488	2286.73
720.676	2104.46
720.863	2167.95
721.05	2184.33
721.237	2163.85
721.424	2174.09
721.611	2172.04
721.798	2073.74
721.985	2169.99
722.172	2112.65
722.358	2169.99
722.545	2210.95
722.732	2129.03
722.919	2186.38
723.106	2153.61
723.293	2251.91
723.48	2403.46
723.667	2155.66
723.853	2251.91
724.04	2223.24
724.227	2161.8
724.414	2108.55
724.6	2258.06
724.787	2256.01
724.974	2329.74
725.161	2208.9
725.347	2258.06
725.534	2231.43
725.72	2233.48
725.907	2256.01
726.094	2237.58
726.28	2139.27
726.467	2059.4
726.653	2190.47
726.84	2256.01
727.027	2401.41
727.213	2165.9
727.4	2407.56
727.586	2350.21
727.773	2360.45
727.959	2327.69
728.145	2382.98
728.332	2282.63
728.518	2231.43
728.705	2280.58
728.891	2274.44
729.077	2315.4
729.264	2237.58
729.45	2315.4
729.636	2491.52
729.823	2219.14
730.009	2327.69
730.195	2342.02
730.382	2325.64
730.568	2325.64
730.754	2376.84
730.94	2272.39
731.126	2237.58
731.313	2309.26
731.499	2333.83
731.685	2301.06
731.871	2436.23
732.057	2485.38
732.243	2481.28
732.429	2358.41
732.615	2382.98
732.801	2530.44
732.987	2473.09
733.173	2389.13
733.359	2428.04
733.545	2479.24
733.731	2387.08
733.917	2419.85
734.103	2466.95
734.289	2522.24
734.475	2407.56
734.661	2555.01
734.847	2401.41
735.033	2503.81
735.219	2372.74
735.404	2464.9
735.59	2399.37
735.776	2469
735.962	2524.29
736.148	2401.41
736.333	2524.29
736.519	2391.17
736.705	2444.42
736.89	2532.48
737.076	2575.49
737.262	2473.09
737.447	2507.91
737.633	2512
737.819	2530.44
738.004	2544.77
738.19	2454.66
738.375	2507.91
738.561	2614.4
738.747	2491.52
738.932	2442.37
739.118	2636.93
739.303	2487.43
739.489	2565.25
739.674	2483.33
739.859	2497.67
740.045	2649.22
740.23	2509.96
740.416	2526.34
740.601	2593.92
740.786	2464.9
740.972	2555.01
741.157	2458.76
741.342	2380.93
741.528	2544.77
741.713	2653.31
741.898	2507.91
742.084	2585.73
742.269	2634.88
742.454	2589.83
742.639	2520.2
742.824	2471.04
743.01	2475.14
743.195	2548.87
743.38	2438.28
743.565	2491.52
743.75	2499.72
743.935	2434.18
744.12	2589.83
744.305	2395.27
744.49	2583.68
744.675	2423.94
744.86	2432.13
745.045	2501.76
745.23	2565.25
745.415	2446.47
745.6	2507.91
745.785	2464.9
745.97	2550.92
746.155	2405.51
746.34	2387.08
746.525	2366.6
746.71	2567.3
746.895	2380.93
747.079	2497.67
747.264	2417.8
747.449	2364.55
747.634	2456.71
747.819	2382.98
748.003	2397.32
748.188	2307.21
748.373	2419.85
748.557	2172.04
748.742	2268.3
748.927	2313.35
749.111	2272.39
749.296	2303.11
749.481	2278.54
749.665	2311.3
749.85	2210.95
750.034	2210.95
750.219	2184.33
750.404	2290.82
750.588	2366.6
750.773	2153.61
750.957	2266.25
751.141	2206.86
751.326	2172.04
751.51	2219.14
751.695	2217.1
751.879	2188.43
752.064	2282.63
752.248	2022.54
752.432	2104.46
752.617	2065.55
752.801	2069.64
752.985	2094.22
753.17	2174.09
753.354	1950.86
753.538	1995.92
753.722	2229.38
753.907	2167.95
754.091	1995.92
754.275	2057.36
754.459	1934.48
754.643	1971.34
754.828	1991.82
755.012	1830.03
755.196	1821.84
755.38	1946.76
755.564	1950.86
755.748	1893.52
755.932	1823.89
756.116	1916.05
756.3	1916.05
756.484	1846.41
756.668	1883.28
756.852	1780.88
757.036	1780.88
757.22	1815.69
757.404	1692.82
757.588	1815.69
757.772	1877.13
757.956	1778.83
758.14	1862.8
758.323	1870.99
758.507	1821.84
758.691	1662.1
758.875	1750.16
759.059	1733.78
759.242	1733.78
759.426	1731.73
759.61	1731.73
759.794	1655.95
759.977	1762.45
760.161	1746.06
760.345	1578.13
760.528	1664.15
760.712	1596.56
760.895	1580.18
761.079	1731.73
761.263	1703.06
761.446	1551.51
761.63	1643.67
761.813	1596.56
761.997	1625.23
762.18	1637.52
762.364	1701.01
762.547	1614.99
762.731	1567.89
762.914	1590.42
763.098	1541.27
763.281	1535.12
763.464	1463.44
763.648	1459.35
763.831	1447.06
764.015	1541.27
764.198	1426.58
764.381	1481.88
764.564	1502.36
764.748	1514.64
764.931	1483.92
765.114	1492.12
765.297	1485.97
765.481	1445.01
765.664	1430.68
765.847	1365.14
766.03	1459.35
766.213	1385.62
766.397	1387.67
766.58	1397.91
766.763	1428.63
766.946	1361.05
767.129	1348.76
767.312	1467.54
767.495	1410.2
767.678	1442.96
767.861	1365.14
768.044	1322.13
768.227	1344.66
768.41	1359
768.593	1334.42
768.776	1309.85
768.959	1457.3
769.142	1399.96
769.324	1248.41
769.507	1281.18
769.69	1309.85
769.873	1346.71
770.056	1371.29
770.239	1264.79
770.421	1295.51
770.604	1342.61
770.787	1164.44
770.97	1264.79
771.152	1236.12
771.335	1221.78
771.518	1227.93
771.7	1332.37
771.883	1238.17
772.066	1297.56
772.248	1172.63
772.431	1234.07
772.613	1143.96
772.796	1170.58
772.978	1186.97
773.161	1223.83
773.343	1225.88
773.526	1117.34
773.708	1107.1
773.891	1088.67
774.073	1141.91
774.256	1133.72
774.438	1232.02
774.621	1129.63
774.803	1129.63
774.985	1103
775.168	1045.66
775.35	1135.77
775.532	1027.23
775.715	1078.43
775.897	1053.85
776.079	1021.08
776.261	1045.66
776.444	1029.27
776.626	986.27
776.808	1043.61
776.99	971.93
777.173	1027.23
777.355	1113.24
777.537	1016.99
777.719	947.36
777.901	971.93
778.083	924.83
778.265	976.03
778.447	947.36
778.629	892.06
778.811	918.68
778.993	939.16
779.175	928.92
779.357	908.44
779.539	871.58
779.721	937.12
779.903	949.4
780.085	924.83
780.267	842.91
780.449	933.02
780.631	789.66
780.812	822.43
780.994	836.77
781.176	887.97
781.358	879.77
781.54	769.18
781.721	765.09
781.903	906.4
782.085	793.76
782.267	804
782.448	701.6
782.63	763.04
782.812	793.76
782.993	834.72
783.175	720.03
783.357	728.22
783.538	754.85
783.72	744.61
783.901	763.04
784.083	810.14
784.264	711.84
784.446	658.59
784.627	701.6
784.809	750.75
784.99	701.6
785.172	717.98
785.353	648.35
785.535	789.66
785.716	640.16
785.897	631.97
786.079	654.5
786.26	627.87
786.441	631.97
786.623	668.83
786.804	642.21
786.985	617.63
787.167	722.08
787.348	609.44
787.529	627.87
787.71	607.39
787.891	607.39
788.073	521.38
788.254	601.25
788.435	586.91
788.616	560.29
788.797	498.85
788.978	548
789.159	492.71
789.34	531.62
789.522	556.19
789.703	543.91
789.884	537.76
790.065	498.85
790.246	507.04
790.427	521.38
790.607	562.34
790.788	578.72
790.969	455.84
791.15	504.99
791.331	500.9
791.512	515.23
791.693	515.23
791.874	586.91
792.054	564.39
792.235	586.91
792.416	480.42
792.597	427.17
792.778	455.84
792.958	447.65
793.139	453.8
793.32	484.52
793.5	484.52
793.681	550.05
793.862	486.56
794.042	386.21
794.223	425.12
794.404	521.38
794.584	410.79
794.765	435.36
794.945	404.64
795.126	441.51
795.306	472.23
795.487	515.23
795.667	416.93
795.848	427.17
796.028	396.45
796.209	398.5
796.389	410.79
796.57	468.13
796.75	404.64
796.93	449.7
797.111	406.69
797.291	423.08
797.471	494.76
797.652	341.16
797.832	427.17
798.012	498.85
798.192	373.92
798.373	382.12
798.553	371.88
798.733	312.49
798.913	410.79
799.093	388.26
799.274	335.01
799.454	373.92
799.634	330.92
799.814	382.12
799.994	371.88
800.174	363.69
800.354	314.53
800.534	318.63
800.714	433.32
800.894	304.29
801.074	249
801.254	195.75
801.434	330.92
801.614	261.29
801.794	285.86
801.974	1027.23
802.154	226.47
802.334	320.68
802.514	296.1
802.693	300.2
802.873	283.81
803.053	292.01
803.233	306.34
803.413	320.68
803.592	351.4
803.772	267.43
803.952	310.44
804.131	240.81
804.311	267.43
804.491	322.73
804.67	277.67
804.85	316.58
805.03	390.31
805.209	343.21
805.389	238.76
805.568	228.52
805.748	330.92
805.928	255.14
806.107	281.77
806.287	330.92
806.466	224.42
806.646	240.81
806.825	236.71
807.004	162.98
807.184	322.73
807.363	234.66
807.543	261.29
807.722	287.91
807.901	306.34
808.081	373.92
808.26	255.14
808.439	296.1
808.619	224.42
808.798	234.66
808.977	187.56
809.156	287.91
809.336	240.81
809.515	255.14
809.694	265.38
809.873	119.98
810.052	265.38
810.231	259.24
810.411	275.62
810.59	251.05
810.769	259.24
810.948	269.48
811.127	210.09
811.306	234.66
811.485	244.9
811.664	238.76
811.843	234.66
812.022	218.28
812.201	220.33
812.38	210.09
812.559	126.12
812.737	287.91
812.916	169.13
813.095	201.9
813.274	236.71
813.453	228.52
813.632	201.9
813.811	242.85
813.989	171.18
814.168	195.75
814.347	222.38
814.526	251.05
814.704	197.8
814.883	212.14
815.062	156.84
815.24	224.42
815.419	113.83
815.598	246.95
815.776	257.19
815.955	220.33
816.133	117.93
816.312	210.09
816.49	158.89
816.669	177.32
816.847	208.04
817.026	218.28
817.204	238.76
817.383	99.5
817.561	115.88
817.74	193.7
817.918	162.98
818.097	140.46
818.275	115.88
818.453	193.7
818.632	179.37
818.81	183.46
818.988	177.32
819.167	189.61
819.345	226.47
819.523	142.5
819.701	212.14
819.879	183.46
820.058	191.66
820.236	171.18
820.414	167.08
820.592	173.22
820.77	212.14
820.948	113.83
821.127	183.46
821.305	218.28
821.483	150.7
821.661	210.09
821.839	142.5
822.017	79.02
822.195	126.12
822.373	150.7
822.551	189.61
822.729	197.8
822.907	220.33
823.085	162.98
823.262	189.61
823.44	173.22
823.618	140.46
823.796	113.83
823.974	138.41
824.152	87.21
824.329	232.62
824.507	126.12
824.685	109.74
824.863	154.79
825.04	167.08
825.218	183.46
825.396	119.98
825.574	205.99
825.751	132.26
825.929	236.71
826.107	101.55
826.284	148.65
826.462	124.07
826.639	107.69
826.817	136.36
826.994	132.26
827.172	113.83
827.349	156.84
827.527	160.94
827.704	234.66
827.882	175.27
828.059	79.02
828.237	130.22
828.414	146.6
828.591	46.25
828.769	134.31
828.946	81.07
829.124	154.79
829.301	81.07
829.478	177.32
829.655	87.21
829.833	138.41
830.01	130.22
830.187	31.91
830.364	99.5
830.542	109.74
830.719	160.94
830.896	115.88
831.073	97.45
831.25	126.12
831.427	79.02
831.604	85.16
831.782	62.63
831.959	136.36
832.136	25.77
832.313	138.41
832.49	85.16
832.667	156.84
832.844	52.39
833.021	162.98
833.198	29.87
833.374	74.92
833.551	136.36
833.728	81.07
833.905	99.5
834.082	64.68
834.259	117.93
834.436	103.59
834.612	101.55
834.789	72.87
834.966	81.07
835.143	81.07
835.319	46.25
835.496	54.44
835.673	85.16
835.85	101.55
836.026	105.64
836.203	140.46
836.38	79.02
836.556	105.64
836.733	7.34
836.909	122.02
837.086	25.77
837.262	89.26
837.439	76.97
837.616	72.87
837.792	36.01
837.968	89.26
838.145	-13.14
838.321	23.72
838.498	132.26
838.674	93.35
838.851	54.44
839.027	111.78
839.203	64.68
839.38	181.42
839.556	25.77
839.732	81.07
839.909	48.3
840.085	46.25
840.261	50.35
840.437	17.58
840.614	9.39
840.79	113.83
840.966	50.35
841.142	83.11
841.318	38.06
841.494	140.46
841.671	44.2
841.847	85.16
842.023	27.82
842.199	115.88
842.375	95.4
842.551	111.78
842.727	1.19
842.903	101.55
843.079	-35.67
843.255	107.69
843.431	-4.95
843.607	44.2
843.783	-31.57
843.959	128.17
844.134	-17.24
844.31	74.92
844.486	99.5
844.662	126.12
844.838	70.83
845.013	81.07
845.189	56.49
845.365	1.19
845.541	74.92
845.716	-23.38
845.892	70.83
846.068	62.63
846.244	52.39
846.419	70.83
846.595	33.96
846.77	11.43
846.946	64.68
847.122	44.2
847.297	-93.01
847.473	148.65
847.648	40.11
847.824	21.67
847.999	3.24
848.175	-27.48
848.35	9.39
848.526	48.3
848.701	7.34
848.876	113.83
849.052	-21.33
849.227	38.06
849.403	66.73
849.578	56.49
849.753	85.16
849.929	-9.05
850.104	9.39
850.279	40.11
850.454	9.39
850.63	97.45
850.805	23.72
850.98	31.91
851.155	101.55
851.33	38.06
851.505	23.72
851.681	136.36
851.856	27.82
852.031	52.39
852.206	23.72
852.381	-25.43
852.556	-23.38
852.731	19.63
852.906	38.06
853.081	74.92
853.256	74.92
853.431	-15.19
853.606	5.29
853.781	42.15
853.956	15.53
854.131	42.15
854.305	-7
854.48	17.58
854.655	74.92
854.83	50.35
855.005	27.82
855.18	89.26
855.354	66.73
855.529	85.16
855.704	72.87
855.879	81.07
856.053	38.06
856.228	46.25
856.403	-13.14
856.577	81.07
856.752	81.07
856.926	38.06
857.101	97.45
857.276	36.01
857.45	23.72
857.625	-15.19
857.799	50.35
857.974	-19.29
858.148	-23.38
858.323	-2.9
858.497	15.53
858.672	60.59
858.846	83.11
859.02	54.44
859.195	21.67
859.369	19.63
859.543	7.34
859.718	33.96
859.892	-21.33
860.066	-9.05
860.241	21.67
860.415	21.67
860.589	21.67
860.763	70.83
860.938	27.82
861.112	64.68
861.286	19.63
861.46	66.73
861.634	50.35
861.808	44.2
861.982	-7
862.157	-39.76
862.331	9.39
862.505	-31.57
862.679	29.87
862.853	-41.81
863.027	58.54
863.201	130.22
863.375	-78.68
863.549	-21.33
863.722	46.25
863.896	58.54
864.07	-19.29
864.244	9.39
864.418	21.67
864.592	-13.14
864.766	-37.72
864.939	46.25
865.113	9.39
865.287	70.83
865.461	-60.24
865.634	38.06
865.808	-50
865.982	44.2
866.156	17.58
866.329	-0.85
866.503	21.67
866.676	17.58
866.85	-0.85
867.024	19.63
867.197	-64.34
867.371	87.21
867.544	-9.05
867.718	11.43
867.891	48.3
868.065	46.25
868.238	19.63
868.412	5.29
868.585	-0.85
868.759	52.39
868.932	-35.67
869.105	33.96
869.279	-54.1
869.452	-17.24
869.625	-7
869.799	58.54
869.972	-56.15
870.145	60.59
870.319	48.3
870.492	-11.09
870.665	-29.52
870.838	31.91
871.011	-82.77
871.185	-13.14
871.358	17.58
871.531	-29.52
871.704	38.06
871.877	11.43
872.05	15.53
872.223	21.67
872.396	52.39
872.569	19.63
872.742	17.58
872.915	-7
873.088	27.82
873.261	-17.24
873.434	-7
873.607	70.83
873.78	-43.86
873.953	-47.96
874.126	-17.24
874.299	15.53
874.471	-17.24
874.644	27.82
874.817	-4.95
874.99	81.07
875.163	46.25
875.335	13.48
875.508	13.48
875.681	54.44
875.853	17.58
876.026	15.53
876.199	42.15
876.371	-39.76
876.544	27.82
876.717	-58.2
876.889	-19.29
877.062	79.02
877.234	-2.9
877.407	9.39
877.579	-41.81
877.752	56.49
877.924	-19.29
878.097	3.24
878.269	-0.85
878.442	64.68
878.614	-25.43
878.786	-9.05
878.959	23.72
879.131	-95.06
879.303	-43.86
879.476	-11.09
879.648	17.58
879.82	54.44
879.993	-11.09
880.165	38.06
880.337	-45.91
880.509	62.63
880.681	38.06
880.854	-23.38
881.026	7.34
881.198	117.93
881.37	74.92
881.542	40.11
881.714	-7
881.886	-31.57
882.058	-54.1
882.23	-4.95
882.402	62.63
882.574	-35.67
882.746	-27.48
882.918	83.11
883.09	-58.2
883.262	-31.57
883.434	-41.81
883.606	-2.9
883.778	-52.05
883.95	-7
884.122	-2.9
884.293	40.11
884.465	50.35
884.637	15.53
884.809	-4.95
884.98	15.53
885.152	-64.34
885.324	64.68
885.496	21.67
885.667	46.25
885.839	1.19
886.011	85.16
886.182	38.06
886.354	46.25
886.525	50.35
886.697	72.87
886.869	-52.05
887.04	-4.95
887.212	36.01
887.383	-11.09
887.555	11.43
887.726	-52.05
887.897	27.82
888.069	52.39
888.24	-2.9
888.412	58.54
888.583	38.06
888.754	-17.24
888.926	15.53
889.097	-11.09
889.268	-13.14
889.44	3.24
889.611	-80.72
889.782	27.82
889.953	19.63
890.125	1.19
890.296	-21.33
890.467	19.63
890.638	5.29
890.809	-37.72
890.98	13.48
891.151	-64.34
891.323	-15.19
891.494	19.63
891.665	19.63
891.836	-93.01
892.007	33.96
892.178	38.06
892.349	-82.77
892.52	-17.24
892.691	11.43
892.862	-27.48
893.032	-80.72
893.203	-9.05
893.374	23.72
893.545	1.19
893.716	-88.92
893.887	40.11
894.057	-88.92
894.228	13.48
894.399	-43.86
894.57	-19.29
894.74	3.24
894.911	-13.14
895.082	74.92
895.253	-41.81
895.423	-0.85
895.594	25.77
895.764	99.5
895.935	-29.52
896.106	46.25
896.276	-0.85
896.447	1.19
896.617	-33.62
896.788	-11.09
896.958	-9.05
897.129	-7
897.299	-78.68
897.47	81.07
897.64	17.58
897.81	-45.91
897.981	-0.85
898.151	-0.85
898.322	1.19
898.492	-17.24
898.662	-68.44
898.832	-25.43
899.003	-25.43
899.173	-2.9
899.343	44.2
899.513	27.82
