Data from USB4F104151__78__12-42-22-667.txt Node

Date: Fri Mar 14 12:42:22 EDT 2025
User: louis
Spectrometer: USB4F10415
Trigger mode: 4
Integration Time (sec): 3.000000E-2
Scans to average: 1
Electric dark correction enabled: true
Nonlinearity correction enabled: false
Boxcar width: 0
XAxis mode: Wavelengths
Number of Pixels in Spectrum: 3648
>>>>>Begin Spectral Data<<<<<
178.204	-119.81
178.424	-119.81
178.644	-119.81
178.864	-117.76
179.084	-109.57
179.304	-50.18
179.524	-64.51
179.744	25.6
179.964	9.22
180.184	87.04
180.404	29.7
180.624	-19.46
180.844	21.5
181.064	3.07
181.283	-17.41
181.503	-48.13
181.723	23.55
181.943	-29.7
182.163	21.5
182.383	-5.12
182.602	29.7
182.822	50.18
183.042	91.13
183.262	-17.41
183.482	-37.89
183.701	-29.7
183.921	-33.79
184.141	-35.84
184.361	13.31
184.58	97.28
184.8	17.41
185.02	-44.03
185.239	68.61
185.459	35.84
185.679	78.85
185.898	-64.51
186.118	-17.41
186.338	25.6
186.557	78.85
186.777	3.07
186.997	39.94
187.216	3.07
187.436	119.81
187.655	5.12
187.875	91.13
188.095	23.55
188.314	50.18
188.534	64.51
188.753	-119.81
188.973	11.26
189.192	62.46
189.412	13.31
189.631	52.22
189.851	21.5
190.07	68.61
190.29	62.46
190.509	39.94
190.729	-48.13
190.948	66.56
191.168	144.38
191.387	60.42
191.607	7.17
191.826	35.84
192.045	9.22
192.265	25.6
192.484	13.31
192.704	-17.41
192.923	-44.03
193.142	52.22
193.362	74.75
193.581	48.13
193.8	19.46
194.02	19.46
194.239	29.7
194.458	29.7
194.678	7.17
194.897	25.6
195.116	19.46
195.335	1.02
195.555	111.61
195.774	37.89
195.993	-3.07
196.212	7.17
196.432	50.18
196.651	-3.07
196.87	37.89
197.089	93.18
197.308	107.52
197.528	19.46
197.747	-1.02
197.966	-39.94
198.185	62.46
198.404	76.8
198.623	5.12
198.842	84.99
199.062	44.03
199.281	31.74
199.5	17.41
199.719	-9.22
199.938	54.27
200.157	27.65
200.376	-7.17
200.595	105.47
200.814	31.74
201.033	35.84
201.252	99.33
201.471	5.12
201.69	89.09
201.909	27.65
202.128	-23.55
202.347	-1.02
202.566	-41.98
202.785	52.22
203.004	5.12
203.223	84.99
203.442	-31.74
203.661	-13.31
203.879	-21.5
204.098	-21.5
204.317	-11.26
204.536	52.22
204.755	68.61
204.974	52.22
205.193	41.98
205.411	46.08
205.63	74.75
205.849	9.22
206.068	-31.74
206.287	44.03
206.505	27.65
206.724	-46.08
206.943	41.98
207.162	23.55
207.381	-7.17
207.599	29.7
207.818	41.98
208.037	17.41
208.255	9.22
208.474	41.98
208.693	50.18
208.911	-23.55
209.13	46.08
209.349	66.56
209.567	62.46
209.786	66.56
210.005	37.89
210.223	-11.26
210.442	-1.02
210.661	-11.26
210.879	27.65
211.098	46.08
211.316	68.61
211.535	64.51
211.753	11.26
211.972	13.31
212.191	-5.12
212.409	62.46
212.628	35.84
212.846	1.02
213.065	13.31
213.283	89.09
213.502	-11.26
213.72	-1.02
213.938	-48.13
214.157	27.65
214.375	-54.27
214.594	-3.07
214.812	117.76
215.031	54.27
215.249	109.57
215.467	97.28
215.686	125.95
215.904	52.22
216.122	54.27
216.341	29.7
216.559	-19.46
216.778	128
216.996	7.17
217.214	115.71
217.432	27.65
217.651	25.6
217.869	13.31
218.087	-17.41
218.306	-13.31
218.524	70.65
218.742	27.65
218.96	44.03
219.179	-5.12
219.397	95.23
219.615	130.05
219.833	11.26
220.051	15.36
220.27	72.7
220.488	58.37
220.706	31.74
220.924	5.12
221.142	33.79
221.36	89.09
221.578	48.13
221.796	9.22
222.015	37.89
222.233	1.02
222.451	48.13
222.669	-1.02
222.887	72.7
223.105	-9.22
223.323	-29.7
223.541	52.22
223.759	56.32
223.977	3.07
224.195	123.9
224.413	46.08
224.631	15.36
224.849	19.46
225.067	50.18
225.285	9.22
225.503	5.12
225.721	-25.6
225.939	-5.12
226.157	-37.89
226.375	119.81
226.592	-5.12
226.81	13.31
227.028	128
227.246	46.08
227.464	27.65
227.682	84.99
227.9	23.55
228.117	52.22
228.335	15.36
228.553	-7.17
228.771	56.32
228.989	68.61
229.206	5.12
229.424	23.55
229.642	3.07
229.86	-7.17
230.077	9.22
230.295	1.02
230.513	89.09
230.731	87.04
230.948	9.22
231.166	87.04
231.384	35.84
231.601	89.09
231.819	23.55
232.037	9.22
232.254	-15.36
232.472	54.27
232.689	-41.98
232.907	3.07
233.125	35.84
233.342	27.65
233.56	68.61
233.777	-27.65
233.995	19.46
234.213	95.23
234.43	56.32
234.648	27.65
234.865	-80.89
235.083	25.6
235.3	50.18
235.518	66.56
235.735	48.13
235.953	70.65
236.17	35.84
236.388	27.65
236.605	50.18
236.822	7.17
237.04	60.42
237.257	46.08
237.475	41.98
237.692	-1.02
237.909	76.8
238.127	25.6
238.344	17.41
238.562	29.7
238.779	5.12
238.996	-89.09
239.214	117.76
239.431	99.33
239.648	21.5
239.865	-9.22
240.083	74.75
240.3	19.46
240.517	13.31
240.735	62.46
240.952	95.23
241.169	89.09
241.386	56.32
241.603	13.31
241.821	9.22
242.038	60.42
242.255	15.36
242.472	-13.31
242.689	80.89
242.907	-5.12
243.124	17.41
243.341	123.9
243.558	31.74
243.775	7.17
243.992	-7.17
244.209	37.89
244.426	125.95
244.643	-9.22
244.86	23.55
245.078	11.26
245.295	-9.22
245.512	-9.22
245.729	13.31
245.946	125.95
246.163	78.85
246.38	33.79
246.597	78.85
246.814	-39.94
247.031	72.7
247.248	72.7
247.464	25.6
247.681	39.94
247.898	15.36
248.115	48.13
248.332	11.26
248.549	25.6
248.766	89.09
248.983	87.04
249.2	31.74
249.417	56.32
249.633	52.22
249.85	62.46
250.067	-54.27
250.284	5.12
250.501	19.46
250.717	80.89
250.934	1.02
251.151	27.65
251.368	50.18
251.585	31.74
251.801	-5.12
252.018	-11.26
252.235	-39.94
252.451	-23.55
252.668	56.32
252.885	56.32
253.102	-54.27
253.318	-72.7
253.535	9.22
253.752	7.17
253.968	15.36
254.185	1.02
254.401	31.74
254.618	-3.07
254.835	11.26
255.051	107.52
255.268	17.41
255.484	99.33
255.701	13.31
255.917	82.94
256.134	48.13
256.351	78.85
256.567	-13.31
256.784	66.56
257	-31.74
257.217	7.17
257.433	15.36
257.65	50.18
257.866	95.23
258.082	-72.7
258.299	66.56
258.515	70.65
258.732	35.84
258.948	44.03
259.165	58.37
259.381	-33.79
259.597	93.18
259.814	35.84
260.03	-1.02
260.246	62.46
260.463	111.61
260.679	66.56
260.895	9.22
261.112	29.7
261.328	11.26
261.544	-15.36
261.761	39.94
261.977	41.98
262.193	5.12
262.409	68.61
262.626	23.55
262.842	125.95
263.058	-29.7
263.274	41.98
263.49	31.74
263.707	19.46
263.923	31.74
264.139	-84.99
264.355	-23.55
264.571	97.28
264.787	-1.02
265.004	78.85
265.22	78.85
265.436	58.37
265.652	109.57
265.868	1.02
266.084	52.22
266.3	31.74
266.516	97.28
266.732	136.19
266.948	-11.26
267.164	46.08
267.38	37.89
267.596	68.61
267.812	97.28
268.028	31.74
268.244	52.22
268.46	21.5
268.676	35.84
268.892	103.42
269.108	33.79
269.324	56.32
269.54	-13.31
269.756	87.04
269.972	68.61
270.188	37.89
270.403	-11.26
270.619	31.74
270.835	58.37
271.051	87.04
271.267	13.31
271.483	91.13
271.698	-21.5
271.914	7.17
272.13	-19.46
272.346	-11.26
272.562	-5.12
272.777	3.07
272.993	46.08
273.209	29.7
273.425	52.22
273.64	-87.04
273.856	82.94
274.072	-11.26
274.287	62.46
274.503	29.7
274.719	54.27
274.934	87.04
275.15	9.22
275.366	33.79
275.581	-29.7
275.797	74.75
276.012	5.12
276.228	52.22
276.444	15.36
276.659	66.56
276.875	72.7
277.09	62.46
277.306	-3.07
277.521	41.98
277.737	64.51
277.952	56.32
278.168	-13.31
278.383	41.98
278.599	70.65
278.814	60.42
279.03	11.26
279.245	44.03
279.461	41.98
279.676	46.08
279.892	-7.17
280.107	11.26
280.322	87.04
280.538	37.89
280.753	5.12
280.969	50.18
281.184	7.17
281.399	37.89
281.615	46.08
281.83	72.7
282.045	25.6
282.26	37.89
282.476	3.07
282.691	72.7
282.906	78.85
283.122	60.42
283.337	-35.84
283.552	-15.36
283.767	74.75
283.983	60.42
284.198	-3.07
284.413	17.41
284.628	29.7
284.843	-11.26
285.058	-3.07
285.274	97.28
285.489	11.26
285.704	-27.65
285.919	72.7
286.134	31.74
286.349	97.28
286.564	41.98
286.779	109.57
286.995	64.51
287.21	-27.65
287.425	87.04
287.64	25.6
287.855	19.46
288.07	48.13
288.285	56.32
288.5	50.18
288.715	33.79
288.93	103.42
289.145	54.27
289.36	56.32
289.575	-31.74
289.79	87.04
290.004	39.94
290.219	31.74
290.434	-7.17
290.649	103.42
290.864	-33.79
291.079	1.02
291.294	13.31
291.509	9.22
291.724	-5.12
291.938	46.08
292.153	23.55
292.368	52.22
292.583	-27.65
292.798	68.61
293.012	-35.84
293.227	5.12
293.442	50.18
293.657	52.22
293.871	125.95
294.086	56.32
294.301	58.37
294.516	105.47
294.73	84.99
294.945	52.22
295.16	29.7
295.374	48.13
295.589	142.33
295.804	-7.17
296.018	29.7
296.233	109.57
296.447	56.32
296.662	-15.36
296.877	5.12
297.091	56.32
297.306	-78.85
297.52	50.18
297.735	44.03
297.949	87.04
298.164	31.74
298.378	-17.41
298.593	58.37
298.807	91.13
299.022	72.7
299.236	23.55
299.451	35.84
299.665	41.98
299.88	-9.22
300.094	-11.26
300.309	109.57
300.523	60.42
300.737	-60.42
300.952	48.13
301.166	23.55
301.381	54.27
301.595	15.36
301.809	46.08
302.024	76.8
302.238	-39.94
302.452	115.71
302.667	-52.22
302.881	68.61
303.095	33.79
303.309	7.17
303.524	-3.07
303.738	48.13
303.952	25.6
304.166	54.27
304.381	9.22
304.595	91.13
304.809	46.08
305.023	103.42
305.237	33.79
305.452	25.6
305.666	52.22
305.88	50.18
306.094	31.74
306.308	115.71
306.522	52.22
306.736	72.7
306.95	-17.41
307.164	9.22
307.379	76.8
307.593	105.47
307.807	121.85
308.021	113.66
308.235	113.66
308.449	-5.12
308.663	41.98
308.877	103.42
309.091	56.32
309.305	-25.6
309.519	-27.65
309.733	128
309.947	23.55
310.161	66.56
310.374	76.8
310.588	7.17
310.802	56.32
311.016	-7.17
311.23	87.04
311.444	72.7
311.658	1.02
311.872	91.13
312.085	91.13
312.299	101.37
312.513	39.94
312.727	60.42
312.941	-3.07
313.154	82.94
313.368	15.36
313.582	111.61
313.796	68.61
314.009	52.22
314.223	97.28
314.437	50.18
314.651	13.31
314.864	46.08
315.078	-7.17
315.292	-1.02
315.505	-19.46
315.719	29.7
315.933	52.22
316.146	-41.98
316.36	37.89
316.573	62.46
316.787	23.55
317.001	50.18
317.214	-74.75
317.428	64.51
317.641	31.74
317.855	7.17
318.068	7.17
318.282	31.74
318.495	89.09
318.709	15.36
318.922	25.6
319.136	115.71
319.349	78.85
319.563	46.08
319.776	74.75
319.99	37.89
320.203	56.32
320.417	64.51
320.63	13.31
320.843	78.85
321.057	25.6
321.27	-7.17
321.483	58.37
321.697	-21.5
321.91	33.79
322.124	56.32
322.337	48.13
322.55	-76.8
322.763	-5.12
322.977	37.89
323.19	89.09
323.403	21.5
323.617	72.7
323.83	27.65
324.043	58.37
324.256	19.46
324.469	3.07
324.683	25.6
324.896	-23.55
325.109	54.27
325.322	27.65
325.535	97.28
325.748	56.32
325.962	-27.65
326.175	37.89
326.388	44.03
326.601	56.32
326.814	37.89
327.027	56.32
327.24	84.99
327.453	-44.03
327.666	52.22
327.879	76.8
328.092	9.22
328.305	56.32
328.518	101.37
328.731	19.46
328.944	23.55
329.157	89.09
329.37	54.27
329.583	72.7
329.796	132.09
330.009	82.94
330.222	76.8
330.435	72.7
330.648	-74.75
330.861	35.84
331.073	76.8
331.286	-5.12
331.499	31.74
331.712	9.22
331.925	13.31
332.138	37.89
332.35	74.75
332.563	19.46
332.776	37.89
332.989	44.03
333.202	7.17
333.414	21.5
333.627	107.52
333.84	76.8
334.053	27.65
334.265	1.02
334.478	80.89
334.691	1.02
334.903	91.13
335.116	-74.75
335.329	89.09
335.541	80.89
335.754	158.72
335.966	-13.31
336.179	31.74
336.392	7.17
336.604	17.41
336.817	136.19
337.029	130.05
337.242	-1.02
337.454	37.89
337.667	9.22
337.88	78.85
338.092	66.56
338.305	21.5
338.517	-21.5
338.729	80.89
338.942	89.09
339.154	78.85
339.367	13.31
339.579	13.31
339.792	70.65
340.004	41.98
340.217	134.14
340.429	-1.02
340.641	-39.94
340.854	25.6
341.066	52.22
341.278	41.98
341.491	56.32
341.703	21.5
341.915	-5.12
342.128	-13.31
342.34	3.07
342.552	-25.6
342.764	7.17
342.977	56.32
343.189	58.37
343.401	50.18
343.613	60.42
343.826	25.6
344.038	11.26
344.25	101.37
344.462	17.41
344.674	46.08
344.886	-21.5
345.099	31.74
345.311	78.85
345.523	25.6
345.735	-74.75
345.947	111.61
346.159	48.13
346.371	74.75
346.583	-21.5
346.795	146.43
347.007	39.94
347.219	13.31
347.431	11.26
347.643	60.42
347.855	-33.79
348.067	52.22
348.279	-125.95
348.491	66.56
348.703	-13.31
348.915	41.98
349.127	41.98
349.339	50.18
349.551	41.98
349.763	46.08
349.975	68.61
350.187	89.09
350.399	80.89
350.61	74.75
350.822	-1.02
351.034	13.31
351.246	103.42
351.458	48.13
351.669	52.22
351.881	37.89
352.093	130.05
352.305	72.7
352.517	33.79
352.728	130.05
352.94	89.09
353.152	29.7
353.363	19.46
353.575	87.04
353.787	68.61
353.999	54.27
354.21	105.47
354.422	25.6
354.633	48.13
354.845	54.27
355.057	19.46
355.268	99.33
355.48	39.94
355.692	-11.26
355.903	60.42
356.115	-17.41
356.326	-68.61
356.538	132.09
356.749	15.36
356.961	111.61
357.172	52.22
357.384	-1.02
357.595	64.51
357.807	-17.41
358.018	21.5
358.23	121.85
358.441	121.85
358.653	68.61
358.864	27.65
359.075	39.94
359.287	66.56
359.498	74.75
359.709	48.13
359.921	72.7
360.132	37.89
360.344	5.12
360.555	13.31
360.766	66.56
360.977	44.03
361.189	64.51
361.4	23.55
361.611	93.18
361.823	11.26
362.034	39.94
362.245	11.26
362.456	31.74
362.667	72.7
362.879	97.28
363.09	5.12
363.301	97.28
363.512	62.46
363.723	78.85
363.935	82.94
364.146	15.36
364.357	95.23
364.568	144.38
364.779	25.6
364.99	21.5
365.201	68.61
365.412	54.27
365.623	41.98
365.834	29.7
366.045	76.8
366.256	-17.41
366.467	105.47
366.678	78.85
366.889	11.26
367.1	37.89
367.311	80.89
367.522	91.13
367.733	7.17
367.944	9.22
368.155	52.22
368.366	48.13
368.577	117.76
368.788	27.65
368.999	-11.26
369.209	78.85
369.42	144.38
369.631	66.56
369.842	58.37
370.053	58.37
370.264	154.62
370.474	-52.22
370.685	99.33
370.896	58.37
371.107	109.57
371.317	68.61
371.528	25.6
371.739	99.33
371.95	60.42
372.16	52.22
372.371	15.36
372.582	89.09
372.792	109.57
373.003	130.05
373.214	62.46
373.424	105.47
373.635	29.7
373.846	31.74
374.056	44.03
374.267	29.7
374.477	29.7
374.688	29.7
374.898	105.47
375.109	64.51
375.319	70.65
375.53	25.6
375.74	93.18
375.951	82.94
376.161	-19.46
376.372	99.33
376.582	87.04
376.793	93.18
377.003	70.65
377.214	25.6
377.424	-3.07
377.635	60.42
377.845	64.51
378.055	25.6
378.266	-46.08
378.476	33.79
378.686	74.75
378.897	97.28
379.107	101.37
379.317	87.04
379.528	41.98
379.738	29.7
379.948	76.8
380.158	138.24
380.369	62.46
380.579	70.65
380.789	-13.31
380.999	68.61
381.21	-23.55
381.42	80.89
381.63	-97.28
381.84	111.61
382.05	123.9
382.261	60.42
382.471	27.65
382.681	1.02
382.891	46.08
383.101	84.99
383.311	64.51
383.521	7.17
383.731	27.65
383.941	91.13
384.151	21.5
384.361	33.79
384.571	111.61
384.781	91.13
384.991	117.76
385.201	95.23
385.411	-19.46
385.621	132.09
385.831	84.99
386.041	103.42
386.251	27.65
386.461	87.04
386.671	109.57
386.881	31.74
387.091	58.37
387.301	80.89
387.511	72.7
387.72	99.33
387.93	66.56
388.14	52.22
388.35	31.74
388.56	23.55
388.769	56.32
388.979	56.32
389.189	9.22
389.399	123.9
389.609	93.18
389.818	95.23
390.028	27.65
390.238	29.7
390.447	-7.17
390.657	171.01
390.867	72.7
391.076	60.42
391.286	60.42
391.496	46.08
391.705	58.37
391.915	78.85
392.125	140.29
392.334	93.18
392.544	179.2
392.753	15.36
392.963	62.46
393.172	31.74
393.382	56.32
393.591	111.61
393.801	48.13
394.01	183.29
394.22	95.23
394.429	111.61
394.639	64.51
394.848	93.18
395.058	-15.36
395.267	44.03
395.477	-11.26
395.686	148.48
395.895	134.14
396.105	138.24
396.314	99.33
396.524	117.76
396.733	128
396.942	142.33
397.152	105.47
397.361	115.71
397.57	138.24
397.78	62.46
397.989	140.29
398.198	166.91
398.407	152.57
398.617	87.04
398.826	84.99
399.035	166.91
399.244	152.57
399.453	138.24
399.663	138.24
399.872	191.49
400.081	50.18
400.29	154.62
400.499	111.61
400.708	125.95
400.917	95.23
401.127	109.57
401.336	68.61
401.545	164.86
401.754	173.05
401.963	199.68
402.172	152.57
402.381	93.18
402.59	142.33
402.799	134.14
403.008	142.33
403.217	242.68
403.426	160.77
403.635	160.77
403.844	214.01
404.053	93.18
404.262	95.23
404.471	273.4
404.68	211.96
404.888	146.43
405.097	111.61
405.306	191.49
405.515	193.53
405.724	203.77
405.933	218.11
406.142	250.88
406.35	236.54
406.559	242.68
406.768	238.59
406.977	173.05
407.185	257.02
407.394	220.16
407.603	277.5
407.812	285.69
408.02	269.31
408.229	277.5
408.438	257.02
408.646	300.03
408.855	250.88
409.064	328.7
409.272	355.32
409.481	381.95
409.69	336.89
409.898	379.9
410.107	404.47
410.315	365.56
410.524	476.15
410.733	533.5
410.941	484.34
411.15	388.09
411.358	498.68
411.567	525.3
411.775	463.86
411.984	500.73
412.192	539.64
412.401	541.69
412.609	613.37
412.818	619.51
413.026	607.22
413.234	578.55
413.443	642.04
413.651	709.62
413.86	586.74
414.068	752.63
414.276	775.16
414.485	814.07
414.693	760.82
414.901	807.92
415.11	855.03
415.318	885.75
415.526	883.7
415.734	1076.21
415.943	984.05
416.151	1106.93
416.359	1010.67
416.567	1061.87
416.776	1203.18
416.984	1213.42
417.192	1274.86
417.4	1227.76
417.608	1197.04
417.817	1375.21
418.025	1338.35
418.233	1453.03
418.441	1391.59
418.649	1332.2
418.857	1620.97
419.065	1643.49
419.273	1620.97
419.481	1670.12
419.689	1811.43
419.897	1864.68
420.105	1827.81
420.313	1934.31
420.521	2067.42
420.729	2048.99
420.937	2098.14
421.145	2253.79
421.353	2223.07
421.561	2354.14
421.769	2427.87
421.977	2587.61
422.185	2526.17
422.393	2808.79
422.601	2804.69
422.809	2888.66
423.017	2890.71
423.224	3019.73
423.432	3048.4
423.64	3199.95
423.848	3290.06
424.056	3414.99
424.263	3552.2
424.471	3517.39
424.679	3589.07
424.887	3787.72
425.094	4002.75
425.302	3986.37
425.51	4047.81
425.718	4320.19
425.925	4314.05
426.133	4574.14
426.341	4697.02
426.548	4801.46
426.756	4807.61
426.964	4998.07
427.171	5325.74
427.379	5571.5
427.586	5481.39
427.794	5753.77
428.001	5907.37
428.209	6216.61
428.417	6022.05
428.624	6390.69
428.832	6734.75
429.039	6413.21
429.247	6349.73
429.454	7226.26
429.662	7631.76
429.869	6951.83
430.076	7609.23
430.284	7369.62
430.491	7629.71
430.699	8207.23
430.906	8270.72
431.114	8379.26
431.321	8627.07
431.528	8960.89
431.736	9096.05
431.943	9632.62
432.15	9433.97
432.358	9655.15
432.565	9935.72
432.772	9978.73
432.979	10523.49
433.187	10629.98
433.394	10826.59
433.601	11420.5
433.808	11656.01
434.016	11445.07
434.223	11731.79
434.43	12620.61
434.637	12401.47
434.844	13316.92
435.052	13331.25
435.259	13450.03
435.466	13663.02
435.673	13304.63
435.88	14148.39
436.087	15016.73
436.294	14924.57
436.501	14662.43
436.708	15043.35
436.915	15432.47
437.122	16014.09
437.329	15860.49
437.537	16687.87
437.743	16919.29
437.95	16737.02
438.157	17619.7
438.364	18139.88
438.571	18014.96
438.778	18422.5
438.985	19935.95
439.192	19174.11
439.399	19722.96
439.606	19309.27
439.813	20662.98
440.02	21775.03
440.227	21256.89
440.433	20923.07
440.64	21738.16
440.847	21756.6
441.054	22100.65
441.261	23669.4
441.467	23583.38
441.674	23851.67
441.881	24642.18
442.088	24822.41
442.294	24283.79
442.501	25014.91
442.708	25821.81
442.914	26409.58
443.121	27519.58
443.328	26872.42
443.534	28990.02
443.741	28213.84
443.948	27710.04
444.154	29921.85
444.361	29690.43
444.568	29655.61
444.774	29858.36
444.981	30220.85
445.187	31052.33
445.394	31992.34
445.6	31554.08
445.807	35056.11
446.013	33585.66
446.22	33747.45
446.426	35727.84
446.633	36055.51
446.839	36772.3
447.046	35252.71
447.252	37087.69
447.459	37145.03
447.665	37081.55
447.871	38810.03
448.078	40499.61
448.284	38656.43
448.491	39481.77
448.697	41292.17
448.903	41832.83
449.11	41638.28
449.316	41331.08
449.522	41716.1
449.728	43112.81
449.935	43432.3
450.141	43659.62
450.347	44351.84
450.553	42979.7
450.76	43430.25
450.966	45302.09
451.172	44646.74
451.378	45621.58
451.584	44575.06
451.791	45769.03
451.997	45853
452.203	46297.41
452.409	46725.43
452.615	46289.21
452.821	44640.6
453.027	44261.72
453.233	46938.42
453.44	44888.4
453.646	45185.36
453.852	45496.65
454.058	45955.39
454.264	44831.06
454.47	45529.42
454.676	44466.52
454.882	46397.76
455.088	41927.04
455.294	42942.83
455.5	43622.76
455.705	44214.62
455.911	42299.77
456.117	41709.96
456.323	40704.4
456.529	38980.01
456.735	40884.62
456.941	39512.49
457.147	38433.21
457.352	37759.42
457.558	37325.25
457.764	36964.81
457.97	36743.63
458.176	35860.96
458.381	35822.05
458.587	33802.75
458.793	33954.3
458.999	32260.63
459.204	34828.78
459.41	33896.95
459.616	31441.44
459.821	31545.89
460.027	31293.99
460.233	30693.93
460.438	29426.24
460.644	29483.58
460.85	28170.83
461.055	27853.4
461.261	27722.33
461.466	25889.4
461.672	25043.59
461.878	26694.25
462.083	24869.51
462.289	24447.63
462.494	24375.95
462.7	23106.21
462.905	22704.81
463.111	23435.93
463.316	23284.38
463.522	22786.72
463.727	22741.67
463.932	22962.85
464.138	22676.13
464.343	22868.64
464.549	22033.07
464.754	22944.42
464.959	22305.45
465.165	22663.85
465.37	21404.35
465.575	20824.77
465.781	21746.36
465.986	22086.32
466.191	20949.7
466.397	20525.77
466.602	19561.17
466.807	20380.36
467.012	20415.18
467.218	20599.49
467.423	20177.61
467.628	20138.7
467.833	21084.86
468.038	20331.21
468.244	19950.29
468.449	20486.86
468.654	19737.3
468.859	19718.87
469.064	19536.6
469.269	19092.19
469.474	18993.89
469.679	19360.47
469.885	18901.73
470.09	18950.88
470.295	18914.02
470.5	18518.76
470.705	18531.05
470.91	17978.09
471.115	17873.65
471.32	18287.34
471.525	18199.27
471.73	17718
471.935	17652.47
472.139	17339.13
472.344	17140.47
472.549	17216.25
472.754	17199.87
472.959	16632.58
473.164	16317.19
473.369	15966.99
473.574	16739.07
473.778	16429.83
473.983	16337.67
474.188	16282.38
474.393	15436.56
474.598	15440.66
474.802	15268.63
475.007	15342.36
475.212	15438.61
475.417	14738.21
475.621	14789.41
475.826	15000.35
476.031	14762.78
476.235	14420.77
476.44	14443.3
476.645	14172.97
476.849	14365.48
477.054	14054.19
477.259	13916.97
477.463	14015.27
477.668	13542.19
477.872	13724.46
478.077	13452.08
478.282	13036.35
478.486	13058.87
478.691	12964.67
478.895	12749.63
479.1	13044.54
479.304	12735.29
479.509	12473.15
479.713	12671.81
479.918	12409.67
480.122	12344.13
480.326	12344.13
480.531	12282.69
480.735	12405.57
480.94	12032.84
481.144	12505.92
481.348	11936.59
481.553	12008.26
481.757	11932.49
481.961	12110.66
482.166	12198.73
482.37	12020.55
482.574	11873.1
482.778	11914.06
482.983	12028.74
483.187	11924.3
483.391	12079.94
483.595	11922.25
483.8	11572.05
484.004	11680.59
484.208	12108.62
484.412	11766.6
484.616	11762.51
484.821	12036.94
485.025	11592.53
485.229	11856.72
485.433	11768.65
485.637	12045.13
485.841	11653.97
486.045	11772.75
486.249	11838.28
486.453	11615.05
486.657	11922.25
486.861	11836.24
487.065	11543.38
487.269	11901.77
487.473	11567.95
487.677	11828.04
487.881	12008.26
488.085	11952.97
488.289	11903.82
488.493	11721.55
488.697	12024.65
488.901	11944.78
489.105	11721.55
489.309	11840.33
489.512	11854.67
489.716	11903.82
489.92	11891.53
490.124	12022.6
490.328	12180.29
490.531	11860.81
490.735	12002.12
490.939	12108.62
491.143	12102.47
491.346	12094.28
491.55	12385.09
491.754	12278.6
491.958	12321.6
492.161	12528.45
492.365	12485.44
492.569	12438.34
492.772	12514.11
492.976	12583.74
493.18	12557.12
493.383	12837.69
493.587	12872.51
493.79	12628.8
493.994	12669.76
494.197	12899.13
494.401	13022.01
494.605	12854.08
494.808	13398.84
495.012	13142.84
495.215	13396.79
495.419	13585.2
495.622	13550.39
495.825	13603.63
496.029	13652.78
496.232	13742.89
496.436	13683.5
496.639	14404.39
496.843	14113.58
497.046	14349.09
497.249	14531.36
497.453	14705.44
497.656	14859.04
497.859	14947.1
498.063	15088.41
498.266	15231.77
498.469	15123.23
498.673	15377.17
498.876	15348.5
499.079	15704.85
499.282	15350.55
499.485	16218.89
499.689	15979.28
499.892	16405.25
500.095	16435.97
500.298	16878.33
500.501	16497.41
500.705	16882.43
500.908	17167.1
501.111	17603.32
501.314	17697.52
501.517	17691.38
501.72	17814.26
501.923	17924.85
502.126	18096.88
502.329	18481.89
502.532	18578.15
502.735	18774.75
502.938	18995.93
503.141	19268.31
503.344	19296.99
503.547	19546.84
503.75	19444.44
503.953	19985.1
504.156	20103.89
504.359	20462.28
504.562	20486.86
504.765	20830.91
504.968	20904.64
505.17	21250.75
505.373	21349.05
505.576	21324.47
505.779	21744.31
505.982	22166.19
506.185	22358.7
506.387	22454.95
506.59	22717.09
506.793	23138.97
506.996	23077.54
507.198	23782.04
507.401	23925.39
507.604	23964.31
507.807	24312.46
508.009	24486.54
508.212	24449.67
508.415	25109.12
508.617	24916.61
508.82	25174.66
509.022	25358.97
509.225	26100.34
509.428	26042.99
509.63	26370.67
509.833	26454.64
510.035	27048.55
510.238	26853.99
510.44	27234.91
510.643	27605.59
510.845	27890.26
511.048	27574.88
511.25	27832.92
511.453	28306
511.655	29180.48
511.858	28650.06
512.06	29231.68
512.262	29504.06
512.465	29401.66
512.667	29987.38
512.87	29985.33
513.072	30071.35
513.274	30736.94
513.477	31230.5
513.679	31455.78
513.881	31601.18
514.084	31803.93
514.286	32076.31
514.488	32289.3
514.69	32631.31
514.893	32981.51
515.095	32961.03
515.297	33362.43
515.499	33651.2
515.701	33667.58
515.904	34056.7
516.106	33935.87
516.308	34763.25
516.51	35314.15
516.712	35123.69
516.914	35269.09
517.116	35500.51
517.318	35746.27
517.52	36168.15
517.722	35989.98
517.925	36157.91
518.127	36987.34
518.329	36884.94
518.531	36895.18
518.733	37507.52
518.935	37968.32
519.136	38123.96
519.338	38369.72
519.54	39031.21
519.742	38951.34
519.944	38916.53
520.146	39602.6
520.348	39686.56
520.55	39723.43
520.752	39856.54
520.954	40817.04
521.155	40645.01
521.357	41064.85
521.559	41535.88
521.761	41709.96
521.963	41605.51
522.164	41566.6
522.366	42023.29
522.568	42447.22
522.77	42520.95
522.971	43065.71
523.173	42914.16
523.375	43047.28
523.576	43149.68
523.778	42981.74
523.98	43428.2
524.181	44241.24
524.383	43962.72
524.584	44644.69
524.786	44689.75
524.988	44376.41
525.189	44593.5
525.391	44855.64
525.592	44880.21
525.794	45269.33
525.995	45158.73
526.197	45347.15
526.398	45599.05
526.6	45668.68
526.801	45853
527.003	46238.01
527.204	46108.99
527.406	46819.64
527.607	46543.16
527.808	47124.78
528.01	46262.59
528.211	46297.41
528.412	47163.7
528.614	46821.69
528.815	47198.51
529.016	47401.26
529.218	46999.86
529.419	47554.86
529.62	47298.86
529.822	47169.84
530.023	47280.43
530.224	47479.08
530.425	47618.35
530.626	46950.71
530.828	47018.29
531.029	48120.1
531.23	47227.18
531.431	47501.61
531.632	47714.6
531.833	48021.8
532.035	47819.05
532.236	47747.37
532.437	48300.32
532.638	47673.64
532.839	47911.2
533.04	48113.95
533.241	47741.22
533.442	48435.48
533.643	47978.79
533.844	47853.86
534.045	48199.97
534.246	47948.07
534.447	48359.71
534.648	47960.36
534.849	48259.36
535.05	47530.28
535.251	48417.05
535.451	47747.37
535.652	48193.82
535.853	48019.75
536.054	47972.64
536.255	48070.95
536.456	48087.33
536.657	48533.79
536.857	48122.15
537.058	48116
537.259	48372
537.46	48296.22
537.66	47616.3
537.861	47882.53
538.062	47700.26
538.263	47880.49
538.463	47952.16
538.664	47595.82
538.865	48075.04
539.065	48038.18
539.266	47171.89
539.466	47831.33
539.667	46944.56
539.868	48013.6
540.068	48142.63
540.269	47929.64
540.469	48136.48
540.67	47474.99
540.87	47698.22
541.071	47626.54
541.271	47814.95
541.472	47771.94
541.672	47436.08
541.873	47425.84
542.073	47020.34
542.274	47747.37
542.474	47708.46
542.675	47423.79
542.875	48050.47
543.075	47231.28
543.276	47458.6
543.476	47730.98
543.676	47436.08
543.877	47616.3
544.077	47778.09
544.277	47434.03
544.478	47155.5
544.678	47667.5
544.878	47599.91
545.078	47067.44
545.279	47264.05
545.479	47034.67
545.679	47442.22
545.879	47255.85
546.079	47124.78
546.28	47057.2
546.48	46448.96
546.68	47153.46
546.88	47489.32
547.08	46975.28
547.28	47153.46
547.48	46405.95
547.68	47282.48
547.88	46629.18
548.081	47108.4
548.281	47180.08
548.481	46844.21
548.681	47323.44
548.881	46864.69
549.081	46981.43
549.28	46993.71
549.48	46876.98
549.68	46831.93
549.88	47180.08
550.08	46498.11
550.28	46950.71
550.48	46692.66
550.68	47540.52
550.88	46614.84
551.08	47081.78
551.279	46907.7
551.479	46295.36
551.679	47126.83
551.879	46358.84
552.079	46627.13
552.278	46313.79
552.478	46844.21
552.678	46829.88
552.878	46788.92
553.077	46360.89
553.277	46268.73
553.477	47020.34
553.676	46539.07
553.876	46131.52
554.076	46211.39
554.275	46182.72
554.475	45963.59
554.674	46735.67
554.874	46561.59
555.074	46027.07
555.273	46551.35
555.473	46477.63
555.672	45781.32
555.872	46190.91
556.071	46168.38
556.271	46451
556.47	46684.47
556.67	45730.12
556.869	46143.81
557.068	46238.01
557.268	45674.82
557.467	46199.1
557.667	45758.79
557.866	45836.61
558.065	45898.05
558.265	45615.43
558.464	45355.34
558.663	45844.8
558.863	45056.34
559.062	46442.81
559.261	45138.26
559.461	45771.08
559.66	45017.43
559.859	45244.75
560.058	45162.83
560.258	45570.38
560.457	45490.51
560.656	45404.49
560.855	45240.65
561.054	45341
561.253	45166.93
561.453	45246.8
561.652	45445.45
561.851	45042
562.05	45011.28
562.249	44489.05
562.448	45039.95
562.647	44771.67
562.846	44548.44
563.045	45017.43
563.244	44048.74
563.443	45234.51
563.642	43956.58
563.841	44278.11
564.04	44392.79
564.239	44497.24
564.438	44063.07
564.637	43952.48
564.836	44736.85
565.035	43805.03
565.234	44390.75
565.432	43905.38
565.631	43938.15
565.83	44022.11
566.029	43596.13
566.228	43821.41
566.427	43676.01
566.625	43428.2
566.824	43127.15
567.023	43465.06
567.222	42881.39
567.42	43553.13
567.619	43321.71
567.818	43069.81
568.016	42969.46
568.215	43217.26
568.414	43243.88
568.612	43430.25
568.811	42660.21
569.01	43034.99
569.208	42774.9
569.407	42672.5
569.605	42486.14
569.804	42619.25
570.002	42393.98
570.201	42357.11
570.4	42015.1
570.598	42434.94
570.797	41879.94
570.995	42533.24
571.193	41591.17
571.392	42314.11
571.59	41701.76
571.789	42219.9
571.987	41777.54
572.186	41699.72
572.384	41527.69
572.582	42131.84
572.781	42019.2
572.979	41107.85
573.177	41513.35
573.376	41488.77
573.574	41173.39
573.772	41578.89
573.971	41273.74
574.169	41005.45
574.367	40667.54
574.565	41083.28
574.763	40475.03
574.962	40683.92
575.16	40602
575.358	40640.92
575.556	40219.03
575.754	40653.2
575.952	40130.97
576.151	40538.52
576.349	39893.41
576.547	40047
576.745	40389.02
576.943	40214.94
577.141	40122.78
577.339	40020.38
577.537	39965.09
577.735	39457.19
577.933	39401.89
578.131	39825.82
578.329	39338.41
578.527	39281.06
578.725	39186.86
578.923	39707.04
579.121	39057.84
579.319	38967.73
579.516	39049.64
579.714	38924.72
579.912	38795.7
580.11	38474.16
580.308	38750.64
580.506	38691.25
580.704	38015.42
580.901	38238.65
581.099	38640.05
581.297	38097.34
581.495	38429.11
581.692	38224.31
581.89	37581.25
582.088	38177.21
582.285	38074.81
582.483	37943.74
582.681	37538.24
582.878	37695.94
583.076	37288.39
583.274	37274.06
583.471	36911.56
583.669	37020.11
583.866	36647.38
584.064	37497.28
584.262	36467.16
584.459	37386.69
584.657	36671.95
584.854	37085.64
585.052	36039.13
585.249	36245.97
585.447	36790.73
585.644	35955.16
585.841	36184.54
586.039	36577.75
586.236	35543.52
586.434	35795.42
586.631	35985.88
586.828	35873.24
587.026	35690.98
587.223	35416.55
587.42	35314.15
587.618	35789.28
587.815	34947.56
588.012	34828.78
588.21	34953.71
588.407	35271.14
588.604	34853.36
588.801	35185.13
588.999	35066.34
589.196	34929.13
589.393	34816.49
589.59	34832.88
589.787	34890.22
589.984	34230.77
590.182	34075.13
590.379	34439.67
590.576	34058.74
590.773	34155
590.97	33907.19
591.167	33888.76
591.364	33757.69
591.561	33829.37
591.758	33341.96
591.955	33282.56
592.152	33821.18
592.349	33552.9
592.546	33487.36
592.743	33399.3
592.94	32825.87
593.137	32840.2
593.334	33327.62
593.531	32584.21
593.727	32795.15
593.924	32852.49
594.121	32268.82
594.318	32686.61
594.515	32197.14
594.712	32490
594.908	32252.44
595.105	32698.89
595.302	32145.94
595.499	32234
595.696	31666.72
595.892	31646.24
596.089	32018.97
596.286	31707.68
596.482	31554.08
596.679	31263.27
596.876	31371.81
597.072	31189.54
597.269	31300.13
597.466	30865.96
597.662	31115.81
597.859	31246.88
598.055	31072.81
598.252	30698.03
598.448	30880.3
598.645	30550.57
598.841	30171.7
599.038	30329.39
599.234	30497.33
599.431	30106.16
599.627	29987.38
599.824	30284.34
600.02	29723.19
600.217	29641.28
600.413	29628.99
600.609	29733.43
600.806	29434.43
601.002	29436.48
601.198	29573.69
601.395	29139.52
601.591	29260.35
601.787	29354.56
601.984	29092.42
602.18	29248.07
602.376	28799.56
602.572	28748.36
602.769	28752.46
602.965	28385.87
603.161	28961.35
603.357	28840.52
603.553	28310.1
603.75	28291.66
603.946	28222.03
604.142	28363.34
604.338	27896.41
604.534	28240.47
604.73	27828.82
604.926	27757.14
605.122	28045.91
605.318	27621.98
605.514	27837.02
605.71	27755.1
605.906	27796.06
606.102	27632.22
606.298	27585.12
606.494	27513.44
606.69	27300.45
606.886	27357.79
607.082	26831.46
607.278	27343.45
607.474	26557.03
607.67	27413.09
607.866	26718.82
608.062	27112.03
608.257	26649.19
608.453	26565.23
608.649	27064.93
608.845	26399.34
609.041	26411.63
609.236	26530.41
609.432	26395.25
609.628	26524.27
609.824	26464.88
610.019	26112.63
610.215	26063.47
610.411	26542.7
610.606	26135.15
610.802	26169.97
610.998	25889.4
611.193	26032.75
611.389	26012.28
611.584	25987.7
611.78	25772.66
611.976	26004.08
612.171	25727.61
612.367	26016.37
612.562	25432.7
612.758	25279.1
612.953	25088.64
613.149	25727.61
613.344	25475.71
613.539	25752.18
613.735	25170.56
613.93	25678.46
614.126	25156.22
614.321	25438.84
614.517	25182.85
614.712	24965.76
614.907	24898.18
615.103	25279.1
615.298	24971.91
615.493	25322.11
615.688	24851.08
615.884	25125.5
616.079	24836.74
616.274	25064.07
616.47	24855.17
616.665	24765.06
616.86	24672.9
617.055	24547.98
617.25	24525.45
617.445	24689.29
617.641	24148.62
617.836	24607.37
618.031	24095.38
618.226	24261.26
618.421	24134.29
618.616	24310.41
618.811	23902.87
619.006	24238.73
619.201	23659.16
619.396	23835.28
619.591	23239.33
619.786	23573.14
619.981	23075.49
620.176	23423.64
620.371	23317.15
620.566	23247.52
620.761	23007.9
620.956	23222.94
621.151	22973.09
621.346	23200.41
621.541	22612.65
621.735	22502.06
621.93	22373.03
622.125	22454.95
622.32	22317.74
622.515	22137.52
622.709	21965.49
622.904	21961.39
623.099	22074.03
623.294	21985.97
623.488	21484.22
623.683	21777.08
623.878	21086.91
624.072	21422.78
624.267	21211.84
624.462	21121.73
624.656	20888.26
624.851	21177.02
625.046	20744.9
625.24	20902.59
625.435	20744.9
625.629	20484.81
625.824	20296.39
626.018	20275.91
626.213	19972.82
626.407	20128.46
626.602	19911.38
626.796	19890.9
626.991	19878.61
627.185	19823.31
627.38	19548.89
627.574	19462.87
627.768	19272.41
627.963	19127
628.157	19151.58
628.352	18821.86
628.546	18684.64
628.74	19010.27
628.935	18635.49
629.129	18825.95
629.323	18289.38
629.517	18385.64
629.712	18348.78
629.906	18412.26
630.1	18035.44
630.294	18090.73
630.489	17902.32
630.683	18057.96
630.877	17396.47
631.071	17652.47
631.265	17875.7
631.459	17443.57
631.653	17457.91
631.848	17339.13
632.042	17220.35
632.236	17408.76
632.43	17304.31
632.624	17234.68
632.818	16880.38
633.012	16874.24
633.206	16716.54
633.4	16673.54
633.594	16538.37
633.788	16417.54
633.982	16222.98
634.176	16333.57
634.369	15946.51
634.563	16063.24
634.757	16093.96
634.951	16046.86
635.145	15969.04
635.339	15971.08
635.533	15786.77
635.726	15745.81
635.92	15653.65
636.114	15534.87
636.308	15645.46
636.501	15481.62
636.695	15235.86
636.889	14988.06
637.083	15135.51
637.276	14852.89
637.47	15020.83
637.664	15006.49
637.857	14826.27
638.051	14889.76
638.244	14574.37
638.438	14818.08
638.632	14752.54
638.825	14539.55
639.019	14398.24
639.212	14385.96
639.406	14277.41
639.599	14048.04
639.793	14183.21
639.986	13927.21
640.18	13990.7
640.373	14099.24
640.567	13798.19
640.76	13714.22
640.954	13585.2
641.147	13318.96
641.34	13546.29
641.534	13603.63
641.727	13431.6
641.92	13710.13
642.114	13155.13
642.307	13253.43
642.5	13169.46
642.694	12995.39
642.887	12825.4
643.08	13114.17
643.273	12944.19
643.467	12944.19
643.66	12821.31
643.853	12716.86
644.046	12608.32
644.239	12567.36
644.432	12583.74
644.626	12569.41
644.819	12385.09
645.012	12587.84
645.205	12464.96
645.398	12391.23
645.591	12020.55
645.784	11922.25
645.977	11987.79
646.17	11914.06
646.363	11774.8
646.556	11727.69
646.749	11785.04
646.942	11670.35
647.135	11563.86
647.328	11430.74
647.521	11414.35
647.714	11348.82
647.907	11506.51
648.099	11338.58
648.292	11391.83
648.485	11397.97
648.678	11221.84
648.871	11000.66
649.064	11090.77
649.256	10957.66
649.449	10896.22
649.642	10865.5
649.835	10736.48
650.027	10580.83
650.22	10703.71
650.413	10648.41
650.605	10482.53
650.798	10666.85
650.991	10402.66
651.183	10601.31
651.376	10447.71
651.568	10412.9
651.761	10257.25
651.954	10208.1
652.146	10048.36
652.339	10230.63
652.531	9855.85
652.724	10013.54
652.916	9898.86
653.109	9907.05
653.301	9988.97
653.494	9874.28
653.686	9591.66
653.879	9927.53
654.071	9794.41
654.263	9606
654.456	9524.08
654.648	9429.87
654.84	9298.8
655.033	9489.26
655.225	9335.67
655.417	9278.32
655.61	9401.2
655.802	9356.15
655.994	9200.5
656.186	9087.86
656.379	8962.94
656.571	8954.74
656.763	8956.79
656.955	8903.54
657.148	8967.03
657.34	8768.38
657.532	8770.43
657.724	8786.81
657.916	8655.74
658.108	8588.16
658.3	8649.6
658.492	8500.09
658.684	8338.3
658.876	8563.58
659.068	8252.29
659.26	8506.24
659.452	8461.18
659.644	8340.35
659.836	8106.88
660.028	8459.13
660.22	8280.96
660.412	8088.45
660.604	8180.61
660.796	8092.55
660.988	8098.69
661.18	7912.33
661.372	7685
661.563	7961.48
661.755	7711.63
661.947	7809.93
662.139	7725.96
662.331	7795.59
662.522	7633.8
662.714	7879.56
662.906	7537.55
663.097	7601.04
663.289	7455.63
663.481	7572.36
663.673	7314.32
663.864	7302.03
664.056	7244.69
664.247	7246.74
664.439	7191.44
664.631	7355.28
664.822	7445.39
665.014	7408.53
665.205	7216.02
665.397	7048.08
665.588	7199.63
665.78	7119.76
665.971	7084.95
666.163	7072.66
666.354	6935.45
666.546	7054.23
666.737	6792.09
666.929	6951.83
667.12	6747.03
667.311	6804.38
667.503	6654.87
667.694	6787.99
667.885	6718.36
668.077	6785.94
668.268	6601.63
668.459	6663.07
668.651	6644.63
668.842	6548.38
669.033	6630.3
669.224	6513.56
669.416	6558.62
669.607	6316.96
669.798	6421.41
669.989	6454.17
670.18	6380.45
670.371	6466.46
670.563	6159.27
670.754	6208.42
670.945	6097.83
671.136	6099.87
671.327	6247.33
671.518	6083.49
671.709	6060.96
671.9	6106.02
672.091	6063.01
672.282	6095.78
672.473	5987.24
672.664	6142.88
672.855	5819.3
673.046	5911.46
673.237	5981.09
673.428	5905.32
673.619	5901.22
673.809	5907.37
674	5782.44
674.191	6026.15
674.382	5802.92
674.573	5895.08
674.764	5778.34
674.954	5839.78
675.145	5682.09
675.336	5651.37
675.527	5753.77
675.717	5741.48
675.908	5540.78
676.099	5540.78
676.289	5632.94
676.48	5612.46
676.671	5508.01
676.861	5651.37
677.052	5546.92
677.243	5514.16
677.433	5428.14
677.624	5522.35
677.814	5381.04
678.005	5399.47
678.195	5383.09
678.386	5331.89
678.576	5403.57
678.767	5270.45
678.957	5364.65
679.148	5409.71
679.338	5368.75
679.529	5286.83
679.719	5297.07
679.909	5292.98
680.1	5309.36
680.29	5405.61
680.481	5274.54
680.671	5282.74
680.861	5280.69
681.052	5176.24
681.242	5196.72
681.432	5039.03
681.622	5221.3
681.813	5141.43
682.003	5159.86
682.193	5196.72
682.383	5024.69
682.573	4975.54
682.764	5012.4
682.954	5397.42
683.144	5104.56
683.334	5020.6
683.524	5018.55
683.714	5020.6
683.904	5055.41
684.094	5012.4
684.284	4834.23
684.474	4873.14
684.664	4725.69
684.854	4897.72
685.044	4893.62
685.234	4723.64
685.424	4881.33
685.614	4711.35
685.804	4963.25
685.994	4697.02
686.184	4750.26
686.374	4617.15
686.564	4774.84
686.753	4666.3
686.943	4678.58
687.133	4637.63
687.323	4627.39
687.513	4694.97
687.702	4615.1
687.892	4447.16
688.082	4570.04
688.272	4510.65
688.461	4463.55
688.651	4486.08
688.841	4445.12
689.03	4580.28
689.22	4436.92
689.41	4430.78
689.599	4240.32
689.789	4484.03
689.979	4234.18
690.168	4326.33
690.358	4195.26
690.547	4258.75
690.737	4205.5
690.926	4320.19
691.116	4107.2
691.305	4129.73
691.495	4111.3
691.684	4150.21
691.874	4178.88
692.063	4029.38
692.252	4094.91
692.442	4021.19
692.631	4185.02
692.82	3861.45
693.01	3881.92
693.199	4010.95
693.388	3873.73
693.578	3978.18
693.767	3840.97
693.956	3847.11
694.146	3820.49
694.335	3865.54
694.524	3750.85
694.713	3816.39
694.902	3845.06
695.092	3705.8
695.281	3685.32
695.47	3845.06
695.659	3705.8
695.848	3640.26
696.037	3652.55
696.226	3625.93
696.415	3621.83
696.604	3689.42
696.793	3494.86
696.982	3587.02
697.171	3591.11
697.36	3607.5
697.549	3437.52
697.738	3443.66
697.927	3382.22
698.116	3521.48
698.305	3427.28
698.494	3328.97
698.683	3421.13
698.872	3464.14
699.061	3331.02
699.25	3290.06
699.438	3298.25
699.627	3306.45
699.816	3302.35
700.005	3306.45
700.193	3292.11
700.382	3378.12
700.571	3285.97
700.76	3326.93
700.948	3392.46
701.137	3294.16
701.326	3245.01
701.514	3185.62
701.703	3378.12
701.892	3150.8
702.08	3335.12
702.269	3165.14
702.457	3202
702.646	3304.4
702.834	3146.7
703.023	3122.13
703.212	3220.43
703.4	3124.18
703.589	3015.63
703.777	2993.11
703.965	3056.59
704.154	3072.98
704.342	3259.34
704.531	3070.93
704.719	2923.48
704.907	3091.41
705.096	2995.15
705.284	3029.97
705.472	3060.69
705.661	3052.5
705.849	3054.55
706.037	3003.35
706.226	2986.96
706.414	2997.2
706.602	3025.87
706.79	3027.92
706.979	3081.17
707.167	2907.09
707.355	2935.76
707.543	3107.79
707.731	3064.79
707.919	2884.56
708.107	2984.91
708.296	2989.01
708.484	2841.56
708.672	2976.72
708.86	2937.81
709.048	2898.9
709.236	2911.19
709.424	3007.44
709.612	2980.82
709.8	2935.76
709.988	2864.08
710.176	2954.19
710.364	2849.75
710.551	2888.66
710.739	2780.12
710.927	2941.91
711.115	2903
711.303	2816.98
711.491	3019.73
711.679	2776.02
711.866	2880.47
712.054	3001.3
712.242	2833.36
712.43	2794.45
712.617	2812.89
712.805	2894.8
712.993	2829.27
713.181	2819.03
713.368	2841.56
713.556	2855.89
713.744	2712.53
713.931	2872.28
714.119	2773.97
714.306	2868.18
714.494	2833.36
714.682	2941.91
714.869	2798.55
715.057	2827.22
715.244	2698.2
715.432	2866.13
715.619	2773.97
715.807	2737.11
715.994	2898.9
716.182	2800.6
716.369	2724.82
716.556	2913.24
716.744	2800.6
716.931	2743.25
717.119	2878.42
717.306	2790.36
717.493	2704.34
717.681	2636.76
717.868	2829.27
718.055	2790.36
718.242	2857.94
718.43	2739.16
718.617	2751.45
718.804	2679.77
718.991	2790.36
719.179	2806.74
719.366	2728.92
719.553	2792.41
719.74	2794.45
719.927	2763.73
720.114	2784.21
720.301	2859.99
720.488	2675.67
720.676	2761.69
720.863	2733.01
721.05	2894.8
721.237	2669.53
721.424	2735.06
721.611	2782.17
721.798	2696.15
721.985	2687.96
722.172	2767.83
722.358	2765.78
722.545	2753.49
722.732	2675.67
722.919	2741.21
723.106	2694.1
723.293	2690.01
723.48	2733.01
723.667	2753.49
723.853	2831.32
724.04	2843.6
724.227	2890.71
724.414	2710.49
724.6	2636.76
724.787	2751.45
724.974	2898.9
725.161	2749.4
725.347	2620.38
725.534	2755.54
725.72	2829.27
725.907	2888.66
726.094	2737.11
726.28	2784.21
726.467	2816.98
726.653	2708.44
726.84	2888.66
727.027	2769.88
727.213	2814.93
727.4	2786.26
727.586	2751.45
727.773	2833.36
727.959	2749.4
728.145	2917.33
728.332	2747.35
728.518	2808.79
728.705	2802.65
728.891	2804.69
729.077	2921.43
729.264	2806.74
729.45	2767.83
729.636	2786.26
729.823	2716.63
730.009	2829.27
730.195	2821.08
730.382	2855.89
730.568	2806.74
730.754	2853.84
730.94	2888.66
731.126	2841.56
731.313	2849.75
731.499	2823.12
731.685	2737.11
731.871	2724.82
732.057	2782.17
732.243	2841.56
732.429	2843.6
732.615	2913.24
732.801	2931.67
732.987	2782.17
733.173	2905.04
733.359	2833.36
733.545	2892.76
733.731	2903
733.917	2903
734.103	2907.09
734.289	2814.93
734.475	2876.37
734.661	2999.25
734.847	2880.47
735.033	2864.08
735.219	2909.14
735.404	2812.89
735.59	2866.13
735.776	2853.84
735.962	2980.82
736.148	2968.53
736.333	3003.35
736.519	2894.8
736.705	2892.76
736.89	3048.4
737.076	2876.37
737.262	2884.56
737.447	2933.72
737.633	2855.89
737.819	2872.28
738.004	2952.15
738.19	2993.11
738.375	3013.59
738.561	3230.67
738.747	2898.9
738.932	3032.02
739.118	2964.43
739.303	2954.19
739.489	2898.9
739.674	2866.13
739.859	2847.7
740.045	2880.47
740.23	2853.84
740.416	2843.6
740.601	2888.66
740.786	3036.11
740.972	2857.94
741.157	2814.93
741.342	2810.84
741.528	2982.87
741.713	2874.32
741.898	2997.2
742.084	2886.61
742.269	2913.24
742.454	2837.46
742.639	2941.91
742.824	2876.37
743.01	3021.78
743.195	2984.91
743.38	2890.71
743.565	2913.24
743.75	2812.89
743.935	2898.9
744.12	2894.8
744.305	2814.93
744.49	2806.74
744.675	2872.28
744.86	2849.75
745.045	2843.6
745.23	2761.69
745.415	2624.47
745.6	2849.75
745.785	2773.97
745.97	2921.43
746.155	2790.36
746.34	2747.35
746.525	2712.53
746.71	2790.36
746.895	2765.78
747.079	2847.7
747.264	2833.36
747.449	2755.54
747.634	2841.56
747.819	2749.4
748.003	2608.09
748.188	2698.2
748.373	2647
748.557	2737.11
748.742	2614.23
748.927	2679.77
749.111	2595.8
749.296	2624.47
749.481	2661.34
749.665	2618.33
749.85	2456.54
750.034	2628.57
750.219	2544.6
750.404	2628.57
750.588	2487.26
750.773	2460.63
750.957	2542.55
751.141	2520.03
751.326	2526.17
751.51	2462.68
751.695	2348
751.879	2472.92
752.064	2456.54
752.248	2513.88
752.432	2401.24
752.617	2395.1
752.801	2352.09
752.985	2319.32
753.17	2413.53
753.354	2384.86
753.538	2350.04
753.722	2266.08
753.907	2333.66
754.091	2278.37
754.275	2237.41
754.459	2135.01
754.643	2335.71
754.828	2241.5
755.012	2130.91
755.196	2169.82
755.38	2237.41
755.564	2112.48
755.748	2171.87
755.932	2188.25
756.116	2296.8
756.3	2182.11
756.484	2085.86
756.668	2055.14
756.852	2153.44
757.036	2130.91
757.22	2014.18
757.404	2040.8
757.588	1991.65
757.772	2085.86
757.956	2046.94
758.14	2083.81
758.323	2026.47
758.507	1960.93
758.691	2040.8
758.875	1979.36
759.059	1930.21
759.242	1962.98
759.426	1924.07
759.61	1981.41
759.794	1928.16
759.977	1868.77
760.161	1946.59
760.345	1924.07
760.528	1987.55
760.712	1805.28
760.895	1739.75
761.079	1901.54
761.263	1786.85
761.446	1831.91
761.63	1764.33
761.813	1868.77
761.997	1807.33
762.18	1825.76
762.364	1899.49
762.547	1768.42
762.731	1805.28
762.914	1692.65
763.098	1696.74
763.281	1723.37
763.464	1793
763.648	1694.69
763.831	1709.03
764.015	1653.73
764.198	1694.69
764.381	1723.37
764.564	1747.94
764.748	1657.83
764.931	1674.21
765.114	1545.19
765.297	1668.07
765.481	1602.54
765.664	1653.73
765.847	1651.69
766.03	1659.88
766.213	1543.14
766.397	1629.16
766.58	1565.67
766.763	1553.38
766.946	1557.48
767.129	1602.54
767.312	1553.38
767.495	1522.66
767.678	1571.82
767.861	1594.34
768.044	1518.57
768.227	1567.72
768.41	1631.21
768.593	1481.71
768.776	1539.05
768.959	1569.77
769.142	1555.43
769.324	1436.65
769.507	1424.36
769.69	1522.66
769.873	1510.38
770.056	1571.82
770.239	1487.85
770.421	1457.13
770.604	1461.23
770.787	1426.41
770.97	1385.45
771.152	1432.55
771.335	1399.79
771.518	1399.79
771.7	1397.74
771.883	1430.51
772.066	1422.31
772.248	1360.88
772.431	1475.56
772.613	1469.42
772.796	1274.86
772.978	1352.68
773.161	1491.95
773.343	1287.15
773.526	1301.48
773.708	1260.52
773.891	1260.52
774.073	1219.57
774.256	1295.34
774.438	1305.58
774.621	1317.87
774.803	1256.43
774.985	1238
775.168	1276.91
775.35	1252.33
775.532	1299.44
775.715	1225.71
775.897	1295.34
776.079	1225.71
776.261	1205.23
776.444	1190.89
776.626	1209.33
776.808	1043.44
776.99	1074.16
777.173	1164.27
777.355	1250.28
777.537	1113.07
777.719	1160.17
777.901	1119.21
778.083	1037.3
778.265	1119.21
778.447	1051.63
778.629	1043.44
778.811	1047.54
778.993	1074.16
779.175	1121.26
779.357	934.9
779.539	1070.06
779.721	1002.48
779.903	1123.31
780.085	1049.58
780.267	1014.77
780.449	973.81
780.631	1029.1
780.812	1098.74
780.994	865.27
781.176	910.32
781.358	953.33
781.54	975.86
781.721	1002.48
781.903	955.38
782.085	971.76
782.267	916.47
782.448	914.42
782.63	893.94
782.812	922.61
782.993	918.51
783.175	945.14
783.357	842.74
783.538	838.64
783.72	881.65
783.901	834.55
784.083	824.31
784.264	834.55
784.446	764.92
784.627	781.3
784.809	805.88
784.99	678.9
785.172	705.53
785.353	756.72
785.535	842.74
785.716	734.2
785.897	748.53
786.079	789.49
786.26	807.92
786.441	742.39
786.623	738.29
786.804	709.62
786.985	723.96
787.167	680.95
787.348	678.9
787.529	693.24
787.71	797.68
787.891	678.9
788.073	691.19
788.254	633.85
788.435	676.85
788.616	658.42
788.797	697.33
788.978	668.66
789.159	646.13
789.34	623.61
789.522	605.17
789.703	588.79
789.884	687.09
790.065	670.71
790.246	603.13
790.427	562.17
790.607	685.05
790.788	646.13
790.969	570.36
791.15	599.03
791.331	623.61
791.512	596.98
791.693	549.88
791.874	609.27
792.054	625.65
792.235	611.32
792.416	584.7
792.597	558.07
792.778	635.89
792.958	582.65
793.139	556.02
793.32	560.12
793.5	588.79
793.681	599.03
793.862	578.55
794.042	578.55
794.223	498.68
794.404	545.78
794.584	486.39
794.765	515.06
794.945	427
795.126	629.75
795.306	484.34
795.487	449.53
795.667	465.91
795.848	484.34
796.028	525.3
796.209	521.21
796.389	519.16
796.57	463.86
796.75	474.1
796.93	551.93
797.111	414.71
797.291	453.63
797.471	498.68
797.652	400.38
797.832	427
798.012	457.72
798.192	373.75
798.373	396.28
798.553	439.29
798.733	515.06
798.913	418.81
799.093	404.47
799.274	427
799.454	480.25
799.634	416.76
799.814	416.76
799.994	488.44
800.174	355.32
800.354	429.05
800.534	420.86
800.714	437.24
800.894	351.23
801.074	338.94
801.254	363.51
801.434	408.57
801.614	392.19
801.794	351.23
801.974	949.23
802.154	390.14
802.334	361.47
802.514	273.4
802.693	347.13
802.873	275.45
803.053	435.19
803.233	379.9
803.413	361.47
803.592	338.94
803.772	293.88
803.952	398.33
804.131	431.1
804.311	324.6
804.491	418.81
804.67	381.95
804.85	340.99
805.03	273.4
805.209	332.79
805.389	355.32
805.568	277.5
805.748	283.64
805.928	330.75
806.107	357.37
806.287	373.75
806.466	291.84
806.646	338.94
806.825	353.27
807.004	293.88
807.184	396.28
807.363	345.08
807.543	287.74
807.722	254.97
807.901	345.08
808.081	302.08
808.26	285.69
808.439	293.88
808.619	246.78
808.798	328.7
808.977	263.16
809.156	359.42
809.336	267.26
809.515	201.72
809.694	234.49
809.873	353.27
810.052	295.93
810.231	269.31
810.411	209.92
810.59	236.54
810.769	304.12
810.948	259.07
811.127	199.68
811.306	191.49
811.485	312.32
811.664	388.09
811.843	287.74
812.022	214.01
812.201	283.64
812.38	265.21
812.559	267.26
812.737	271.36
812.916	248.83
813.095	181.25
813.274	279.55
813.453	244.73
813.632	261.12
813.811	234.49
813.989	273.4
814.168	164.86
814.347	191.49
814.526	267.26
814.704	316.41
814.883	324.6
815.062	246.78
815.24	218.11
815.419	207.87
815.598	162.81
815.776	242.68
815.955	293.88
816.133	158.72
816.312	207.87
816.49	244.73
816.669	304.12
816.847	211.96
817.026	257.02
817.204	201.72
817.383	177.15
817.561	162.81
817.74	281.6
817.918	197.63
818.097	185.34
818.275	173.05
818.453	125.95
818.632	177.15
818.81	240.64
818.988	211.96
819.167	179.2
819.345	195.58
819.523	185.34
819.701	232.44
819.879	189.44
820.058	195.58
820.236	287.74
820.414	244.73
820.592	121.85
820.77	242.68
820.948	164.86
821.127	179.2
821.305	291.84
821.483	84.99
821.661	203.77
821.839	228.35
822.017	146.43
822.195	218.11
822.373	205.82
822.551	150.53
822.729	234.49
822.907	193.53
823.085	183.29
823.262	123.9
823.44	209.92
823.618	181.25
823.796	214.01
823.974	195.58
824.152	152.57
824.329	125.95
824.507	197.63
824.685	128
824.863	156.67
825.04	166.91
825.218	185.34
825.396	226.3
825.574	252.92
825.751	119.81
825.929	123.9
826.107	136.19
826.284	111.61
826.462	146.43
826.639	146.43
826.817	144.38
826.994	119.81
827.172	130.05
827.349	306.17
827.527	58.37
827.704	205.82
827.882	132.09
828.059	138.24
828.237	68.61
828.414	197.63
828.591	136.19
828.769	91.13
828.946	66.56
829.124	130.05
829.301	160.77
829.478	136.19
829.655	203.77
829.833	175.1
830.01	197.63
830.187	154.62
830.364	130.05
830.542	134.14
830.719	128
830.896	138.24
831.073	183.29
831.25	76.8
831.427	138.24
831.604	209.92
831.782	138.24
831.959	138.24
832.136	146.43
832.313	220.16
832.49	50.18
832.667	189.44
832.844	66.56
833.021	130.05
833.198	58.37
833.374	123.9
833.551	101.37
833.728	31.74
833.905	148.48
834.082	37.89
834.259	105.47
834.436	152.57
834.612	80.89
834.789	189.44
834.966	107.52
835.143	181.25
835.319	35.84
835.496	99.33
835.673	113.66
835.85	181.25
836.026	158.72
836.203	156.67
836.38	150.53
836.556	93.18
836.733	50.18
836.909	168.96
837.086	158.72
837.262	109.57
837.439	148.48
837.616	84.99
837.792	70.65
837.968	72.7
838.145	46.08
838.321	119.81
838.498	132.09
838.674	56.32
838.851	113.66
839.027	160.77
839.203	89.09
839.38	146.43
839.556	64.51
839.732	140.29
839.909	-27.65
840.085	111.61
840.261	128
840.437	80.89
840.614	50.18
840.79	156.67
840.966	31.74
841.142	99.33
841.318	66.56
841.494	91.13
841.671	144.38
841.847	21.5
842.023	70.65
842.199	117.76
842.375	97.28
842.551	46.08
842.727	39.94
842.903	111.61
843.079	91.13
843.255	109.57
843.431	146.43
843.607	109.57
843.783	62.46
843.959	152.57
844.134	56.32
844.31	70.65
844.486	111.61
844.662	56.32
844.838	56.32
845.013	48.13
845.189	74.75
845.365	142.33
845.541	64.51
845.716	101.37
845.892	50.18
846.068	39.94
846.244	39.94
846.419	121.85
846.595	41.98
846.77	48.13
846.946	66.56
847.122	113.66
847.297	93.18
847.473	115.71
847.648	21.5
847.824	5.12
847.999	13.31
848.175	37.89
848.35	76.8
848.526	199.68
848.701	33.79
848.876	48.13
849.052	125.95
849.227	-19.46
849.403	119.81
849.578	84.99
849.753	37.89
849.929	82.94
850.104	76.8
850.279	29.7
850.454	76.8
850.63	121.85
850.805	78.85
850.98	62.46
851.155	-3.07
851.33	11.26
851.505	29.7
851.681	50.18
851.856	87.04
852.031	128
852.206	132.09
852.381	3.07
852.556	56.32
852.731	39.94
852.906	113.66
853.081	105.47
853.256	119.81
853.431	62.46
853.606	9.22
853.781	56.32
853.956	27.65
854.131	78.85
854.305	37.89
854.48	58.37
854.655	-52.22
854.83	74.75
855.005	7.17
855.18	41.98
855.354	60.42
855.529	44.03
855.704	35.84
855.879	80.89
856.053	95.23
856.228	187.39
856.403	31.74
856.577	48.13
856.752	-33.79
856.926	-7.17
857.101	101.37
857.276	11.26
857.45	95.23
857.625	80.89
857.799	66.56
857.974	60.42
858.148	11.26
858.323	7.17
858.497	117.76
858.672	76.8
858.846	80.89
859.02	80.89
859.195	5.12
859.369	29.7
859.543	33.79
859.718	41.98
859.892	13.31
860.066	27.65
860.241	48.13
860.415	15.36
860.589	-11.26
860.763	76.8
860.938	-25.6
861.112	31.74
861.286	13.31
861.46	44.03
861.634	52.22
861.808	33.79
861.982	33.79
862.157	9.22
862.331	19.46
862.505	25.6
862.679	-15.36
862.853	5.12
863.027	27.65
863.201	58.37
863.375	44.03
863.549	68.61
863.722	-56.32
863.896	-15.36
864.07	70.65
864.244	27.65
864.418	37.89
864.592	93.18
864.766	-19.46
864.939	19.46
865.113	70.65
865.287	78.85
865.461	27.65
865.634	58.37
865.808	62.46
865.982	-25.6
866.156	17.41
866.329	-39.94
866.503	3.07
866.676	11.26
866.85	91.13
867.024	48.13
867.197	58.37
867.371	78.85
867.544	27.65
867.718	33.79
867.891	-58.37
868.065	-3.07
868.238	74.75
868.412	13.31
868.585	33.79
868.759	37.89
868.932	44.03
869.105	-21.5
869.279	-25.6
869.452	-15.36
869.625	80.89
869.799	78.85
869.972	-15.36
870.145	37.89
870.319	39.94
870.492	-37.89
870.665	27.65
870.838	-9.22
871.011	-9.22
871.185	-15.36
871.358	-1.02
871.531	82.94
871.704	21.5
871.877	-21.5
872.05	76.8
872.223	-5.12
872.396	3.07
872.569	44.03
872.742	-58.37
872.915	72.7
873.088	3.07
873.261	29.7
873.434	19.46
873.607	23.55
873.78	78.85
873.953	-39.94
874.126	87.04
874.299	-9.22
874.471	48.13
874.644	60.42
874.817	29.7
874.99	93.18
875.163	-89.09
875.335	23.55
875.508	37.89
875.681	-25.6
875.853	58.37
876.026	-23.55
876.199	27.65
876.371	52.22
876.544	-13.31
876.717	3.07
876.889	-44.03
877.062	60.42
877.234	54.27
877.407	87.04
877.579	95.23
877.752	21.5
877.924	52.22
878.097	84.99
878.269	-48.13
878.442	50.18
878.614	-46.08
878.786	9.22
878.959	31.74
879.131	50.18
879.303	-41.98
879.476	66.56
879.648	-7.17
879.82	44.03
879.993	-13.31
880.165	7.17
880.337	39.94
880.509	89.09
880.681	-125.95
880.854	-31.74
881.026	29.7
881.198	74.75
881.37	-31.74
881.542	9.22
881.714	-25.6
881.886	11.26
882.058	-54.27
882.23	93.18
882.402	33.79
882.574	1.02
882.746	21.5
882.918	84.99
883.09	27.65
883.262	-1.02
883.434	7.17
883.606	-9.22
883.778	50.18
883.95	37.89
884.122	-62.46
884.293	21.5
884.465	-1.02
884.637	54.27
884.809	-5.12
884.98	-5.12
885.152	9.22
885.324	72.7
885.496	87.04
885.667	39.94
885.839	21.5
886.011	39.94
886.182	11.26
886.354	48.13
886.525	3.07
886.697	-21.5
886.869	-11.26
887.04	56.32
887.212	15.36
887.383	9.22
887.555	23.55
887.726	-52.22
887.897	46.08
888.069	62.46
888.24	-46.08
888.412	11.26
888.583	15.36
888.754	9.22
888.926	-54.27
889.097	-13.31
889.268	5.12
889.44	17.41
889.611	27.65
889.782	-62.46
889.953	15.36
890.125	31.74
890.296	37.89
890.467	33.79
890.638	3.07
890.809	21.5
890.98	-52.22
891.151	52.22
891.323	87.04
891.494	31.74
891.665	9.22
891.836	25.6
892.007	70.65
892.178	35.84
892.349	46.08
892.52	74.75
892.691	27.65
892.862	7.17
893.032	13.31
893.203	39.94
893.374	-29.7
893.545	58.37
893.716	23.55
893.887	3.07
894.057	48.13
894.228	87.04
894.399	-3.07
894.57	140.29
894.74	93.18
894.911	44.03
895.082	19.46
895.253	-46.08
895.423	-29.7
895.594	9.22
895.764	-19.46
895.935	-9.22
896.106	-11.26
896.276	35.84
896.447	-11.26
896.617	-25.6
896.788	15.36
896.958	-64.51
897.129	7.17
897.299	25.6
897.47	-7.17
897.64	37.89
897.81	-9.22
897.981	-11.26
898.151	-58.37
898.322	-33.79
898.492	-9.22
898.662	-19.46
898.832	-11.26
899.003	9.22
899.173	-52.22
899.343	15.36
899.513	1.02
