Data from USB4F104151__71__12-42-15-108.txt Node

Date: Fri Mar 14 12:42:15 EDT 2025
User: louis
Spectrometer: USB4F10415
Trigger mode: 4
Integration Time (sec): 3.000000E-2
Scans to average: 1
Electric dark correction enabled: true
Nonlinearity correction enabled: false
Boxcar width: 0
XAxis mode: Wavelengths
Number of Pixels in Spectrum: 3648
>>>>>Begin Spectral Data<<<<<
178.204	-159.4
178.424	-159.4
178.644	-159.4
178.864	-147.11
179.084	-190.12
179.304	-32.43
179.524	-38.57
179.744	24.92
179.964	-30.38
180.184	18.77
180.404	49.49
180.624	-30.38
180.844	-5.8
181.064	-16.04
181.283	-61.1
181.503	2.39
181.723	119.12
181.943	-65.19
182.163	24.92
182.383	-22.19
182.602	-13.99
182.822	43.35
183.042	31.06
183.262	-44.71
183.482	47.44
183.701	-30.38
183.921	-5.8
184.141	-71.34
184.361	69.97
184.58	6.49
184.8	6.49
185.02	-7.85
185.239	29.01
185.459	10.58
185.679	104.79
185.898	-63.15
186.118	35.16
186.338	20.82
186.557	14.68
186.777	2.39
186.997	-67.24
187.216	10.58
187.436	43.35
187.655	55.64
187.875	53.59
188.095	67.92
188.314	-9.9
188.534	129.36
188.753	-63.15
188.973	10.58
189.192	51.54
189.412	35.16
189.631	8.53
189.851	67.92
190.07	57.68
190.29	-61.1
190.509	-16.04
190.729	43.35
190.948	35.16
191.168	186.71
191.387	53.59
191.607	-22.19
191.826	37.2
192.045	-38.57
192.265	6.49
192.484	-30.38
192.704	-22.19
192.923	-22.19
193.142	18.77
193.362	-18.09
193.581	41.3
193.8	61.78
194.02	55.64
194.239	4.44
194.458	-13.99
194.678	-9.9
194.897	12.63
195.116	72.02
195.335	-18.09
195.555	29.01
195.774	22.87
195.993	-7.85
196.212	29.01
196.432	-32.43
196.651	0.34
196.87	-38.57
197.089	117.08
197.308	-13.99
197.528	49.49
197.747	16.73
197.966	41.3
198.185	29.01
198.404	-1.71
198.623	-5.8
198.842	14.68
199.062	31.06
199.281	-3.75
199.5	-46.76
199.719	53.59
199.938	37.2
200.157	-11.95
200.376	37.2
200.595	55.64
200.814	20.82
201.033	-11.95
201.252	67.92
201.471	8.53
201.69	10.58
201.909	63.83
202.128	41.3
202.347	-9.9
202.566	8.53
202.785	16.73
203.004	4.44
203.223	41.3
203.442	-36.52
203.661	26.96
203.879	102.74
204.098	8.53
204.317	-54.95
204.536	8.53
204.755	-5.8
204.974	86.36
205.193	20.82
205.411	72.02
205.63	2.39
205.849	18.77
206.068	6.49
206.287	4.44
206.505	-11.95
206.724	33.11
206.943	-5.8
207.162	59.73
207.381	-7.85
207.599	2.39
207.818	49.49
208.037	24.92
208.255	24.92
208.474	20.82
208.693	14.68
208.911	-11.95
209.13	-11.95
209.349	2.39
209.567	35.16
209.786	69.97
210.005	-28.33
210.223	45.4
210.442	-32.43
210.661	84.31
210.879	2.39
211.098	20.82
211.316	14.68
211.535	33.11
211.753	4.44
211.972	35.16
212.191	14.68
212.409	-54.95
212.628	8.53
212.846	35.16
213.065	-18.09
213.283	106.84
213.502	-11.95
213.72	8.53
213.938	35.16
214.157	-38.57
214.375	82.26
214.594	-9.9
214.812	-13.99
215.031	6.49
215.249	-22.19
215.467	20.82
215.686	67.92
215.904	63.83
216.122	-9.9
216.341	74.07
216.559	84.31
216.778	43.35
216.996	-20.14
217.214	-50.86
217.432	31.06
217.651	-7.85
217.869	0.34
218.087	43.35
218.306	20.82
218.524	-36.52
218.742	12.63
218.96	-28.33
219.179	35.16
219.397	-3.75
219.615	151.89
219.833	24.92
220.051	-40.62
220.27	14.68
220.488	14.68
220.706	53.59
220.924	72.02
221.142	-28.33
221.36	-46.76
221.578	4.44
221.796	4.44
222.015	12.63
222.233	37.2
222.451	59.73
222.669	-54.95
222.887	2.39
223.105	-93.87
223.323	43.35
223.541	-52.91
223.759	-11.95
223.977	65.88
224.195	31.06
224.413	0.34
224.631	112.98
224.849	12.63
225.067	2.39
225.285	-36.52
225.503	63.83
225.721	-28.33
225.939	39.25
226.157	2.39
226.375	82.26
226.592	0.34
226.81	82.26
227.028	22.87
227.246	-18.09
227.464	10.58
227.682	-7.85
227.9	26.96
228.117	43.35
228.335	39.25
228.553	-26.28
228.771	-13.99
228.989	-11.95
229.206	-3.75
229.424	-9.9
229.642	-1.71
229.86	-1.71
230.077	41.3
230.295	37.2
230.513	55.64
230.731	35.16
230.948	-20.14
231.166	69.97
231.384	-28.33
231.601	2.39
231.819	41.3
232.037	37.2
232.254	-7.85
232.472	84.31
232.689	-44.71
232.907	31.06
233.125	-22.19
233.342	49.49
233.56	-28.33
233.777	47.44
233.995	51.54
234.213	92.5
234.43	24.92
234.648	20.82
234.865	22.87
235.083	-26.28
235.3	-13.99
235.518	63.83
235.735	65.88
235.953	26.96
236.17	-13.99
236.388	-5.8
236.605	-48.81
236.822	117.08
237.04	94.55
237.257	31.06
237.475	-85.67
237.692	16.73
237.909	-44.71
238.127	12.63
238.344	-1.71
238.562	-5.8
238.779	0.34
238.996	-7.85
239.214	-11.95
239.431	57.68
239.648	-28.33
239.865	10.58
240.083	37.2
240.3	-63.15
240.517	-22.19
240.735	-22.19
240.952	59.73
241.169	37.2
241.386	26.96
241.603	26.96
241.821	-26.28
242.038	41.3
242.255	78.16
242.472	47.44
242.689	0.34
242.907	6.49
243.124	4.44
243.341	-18.09
243.558	29.01
243.775	-61.1
243.992	-95.91
244.209	16.73
244.426	-5.8
244.643	8.53
244.86	61.78
245.078	-32.43
245.295	-3.75
245.512	37.2
245.729	41.3
245.946	0.34
246.163	-81.58
246.38	-26.28
246.597	-3.75
246.814	8.53
247.031	-40.62
247.248	-42.67
247.464	8.53
247.681	2.39
247.898	18.77
248.115	53.59
248.332	35.16
248.549	41.3
248.766	57.68
248.983	49.49
249.2	-67.24
249.417	20.82
249.633	14.68
249.85	53.59
250.067	10.58
250.284	-3.75
250.501	45.4
250.717	22.87
250.934	-54.95
251.151	-38.57
251.368	18.77
251.585	82.26
251.801	14.68
252.018	41.3
252.235	45.4
252.451	12.63
252.668	-63.15
252.885	-13.99
253.102	18.77
253.318	69.97
253.535	-1.71
253.752	-16.04
253.968	-52.91
254.185	-5.8
254.401	24.92
254.618	22.87
254.835	-7.85
255.051	67.92
255.268	4.44
255.484	8.53
255.701	10.58
255.917	14.68
256.134	26.96
256.351	-9.9
256.567	-13.99
256.784	29.01
257	-26.28
257.217	-34.47
257.433	20.82
257.65	74.07
257.866	123.22
258.082	-11.95
258.299	57.68
258.515	-16.04
258.732	-44.71
258.948	-50.86
259.165	-9.9
259.381	-22.19
259.597	22.87
259.814	-36.52
260.03	18.77
260.246	49.49
260.463	151.89
260.679	-5.8
260.895	-16.04
261.112	26.96
261.328	55.64
261.544	-16.04
261.761	88.4
261.977	-9.9
262.193	-1.71
262.409	18.77
262.626	-7.85
262.842	10.58
263.058	12.63
263.274	-20.14
263.49	61.78
263.707	45.4
263.923	74.07
264.139	8.53
264.355	12.63
264.571	47.44
264.787	16.73
265.004	37.2
265.22	41.3
265.436	-34.47
265.652	-1.71
265.868	20.82
266.084	-40.62
266.3	-42.67
266.516	14.68
266.732	-7.85
266.948	8.53
267.164	29.01
267.38	-24.23
267.596	-11.95
267.812	4.44
268.028	65.88
268.244	-1.71
268.46	6.49
268.676	-71.34
268.892	26.96
269.108	12.63
269.324	-1.71
269.54	8.53
269.756	57.68
269.972	-32.43
270.188	20.82
270.403	8.53
270.619	135.51
270.835	-1.71
271.051	31.06
271.267	31.06
271.483	47.44
271.698	43.35
271.914	-1.71
272.13	-3.75
272.346	35.16
272.562	26.96
272.777	-11.95
272.993	47.44
273.209	53.59
273.425	-16.04
273.64	-5.8
273.856	80.21
274.072	47.44
274.287	-36.52
274.503	166.23
274.719	10.58
274.934	-50.86
275.15	-20.14
275.366	18.77
275.581	-32.43
275.797	43.35
276.012	47.44
276.228	-48.81
276.444	6.49
276.659	37.2
276.875	-30.38
277.09	49.49
277.306	-67.24
277.521	29.01
277.737	24.92
277.952	18.77
278.168	-36.52
278.383	6.49
278.599	14.68
278.814	8.53
279.03	31.06
279.245	18.77
279.461	24.92
279.676	26.96
279.892	-71.34
280.107	35.16
280.322	-26.28
280.538	24.92
280.753	-48.81
280.969	76.12
281.184	-1.71
281.399	22.87
281.615	-28.33
281.83	43.35
282.045	-28.33
282.26	-42.67
282.476	59.73
282.691	67.92
282.906	82.26
283.122	20.82
283.337	41.3
283.552	131.41
283.767	33.11
283.983	31.06
284.198	-28.33
284.413	10.58
284.628	29.01
284.843	-69.29
285.058	-1.71
285.274	-44.71
285.489	31.06
285.704	69.97
285.919	20.82
286.134	57.68
286.349	35.16
286.564	31.06
286.779	18.77
286.995	37.2
287.21	-5.8
287.425	33.11
287.64	12.63
287.855	74.07
288.07	10.58
288.285	24.92
288.5	69.97
288.715	49.49
288.93	-30.38
289.145	-75.43
289.36	10.58
289.575	31.06
289.79	16.73
290.004	-1.71
290.219	74.07
290.434	-16.04
290.649	-52.91
290.864	-73.39
291.079	-30.38
291.294	12.63
291.509	43.35
291.724	-36.52
291.938	26.96
292.153	2.39
292.368	-63.15
292.583	39.25
292.798	78.16
293.012	-42.67
293.227	-7.85
293.442	67.92
293.657	41.3
293.871	29.01
294.086	49.49
294.301	104.79
294.516	117.08
294.73	35.16
294.945	-36.52
295.16	0.34
295.374	22.87
295.589	37.2
295.804	18.77
296.018	45.4
296.233	92.5
296.447	0.34
296.662	-32.43
296.877	2.39
297.091	53.59
297.306	61.78
297.52	37.2
297.735	-20.14
297.949	10.58
298.164	72.02
298.378	-16.04
298.593	-48.81
298.807	-20.14
299.022	-16.04
299.236	22.87
299.451	14.68
299.665	47.44
299.88	-13.99
300.094	-7.85
300.309	29.01
300.523	-48.81
300.737	-3.75
300.952	-61.1
301.166	78.16
301.381	-61.1
301.595	10.58
301.809	-22.19
302.024	-40.62
302.238	29.01
302.452	-13.99
302.667	-69.29
302.881	59.73
303.095	127.32
303.309	63.83
303.524	-40.62
303.738	108.88
303.952	45.4
304.166	76.12
304.381	16.73
304.595	65.88
304.809	10.58
305.023	59.73
305.237	-44.71
305.452	14.68
305.666	-18.09
305.88	102.74
306.094	-65.19
306.308	16.73
306.522	63.83
306.736	22.87
306.95	-11.95
307.164	-11.95
307.379	47.44
307.593	20.82
307.807	14.68
308.021	135.51
308.235	53.59
308.449	-102.06
308.663	92.5
308.877	45.4
309.091	-1.71
309.305	31.06
309.519	-48.81
309.733	39.25
309.947	-57
310.161	18.77
310.374	29.01
310.588	51.54
310.802	55.64
311.016	-83.63
311.23	-20.14
311.444	61.78
311.658	35.16
311.872	74.07
312.085	92.5
312.299	129.36
312.513	76.12
312.727	4.44
312.941	-40.62
313.154	-3.75
313.368	31.06
313.582	61.78
313.796	2.39
314.009	-5.8
314.223	41.3
314.437	22.87
314.651	37.2
314.864	-32.43
315.078	-32.43
315.292	-46.76
315.505	0.34
315.719	41.3
315.933	-16.04
316.146	33.11
316.36	4.44
316.573	86.36
316.787	-32.43
317.001	6.49
317.214	-18.09
317.428	-3.75
317.641	96.6
317.855	-9.9
318.068	26.96
318.282	29.01
318.495	69.97
318.709	6.49
318.922	-28.33
319.136	82.26
319.349	-7.85
319.563	16.73
319.776	8.53
319.99	-40.62
320.203	39.25
320.417	12.63
320.63	78.16
320.843	90.45
321.057	45.4
321.27	12.63
321.483	57.68
321.697	61.78
321.91	90.45
322.124	14.68
322.337	-3.75
322.55	22.87
322.763	65.88
322.977	-16.04
323.19	6.49
323.403	47.44
323.617	29.01
323.83	-16.04
324.043	88.4
324.256	-42.67
324.469	8.53
324.683	53.59
324.896	24.92
325.109	24.92
325.322	-18.09
325.535	74.07
325.748	18.77
325.962	43.35
326.175	18.77
326.388	29.01
326.601	59.73
326.814	-1.71
327.027	2.39
327.24	22.87
327.453	-7.85
327.666	-22.19
327.879	-3.75
328.092	14.68
328.305	2.39
328.518	43.35
328.731	4.44
328.944	-20.14
329.157	63.83
329.37	20.82
329.583	24.92
329.796	108.88
330.009	43.35
330.222	41.3
330.435	115.03
330.648	53.59
330.861	6.49
331.073	8.53
331.286	12.63
331.499	41.3
331.712	-30.38
331.925	45.4
332.138	-24.23
332.35	39.25
332.563	-71.34
332.776	45.4
332.989	-18.09
333.202	-5.8
333.414	-44.71
333.627	-40.62
333.84	-11.95
334.053	49.49
334.265	39.25
334.478	45.4
334.691	-13.99
334.903	-44.71
335.116	-7.85
335.329	49.49
335.541	65.88
335.754	33.11
335.966	-32.43
336.179	6.49
336.392	33.11
336.604	12.63
336.817	6.49
337.029	24.92
337.242	-28.33
337.454	88.4
337.667	-22.19
337.88	76.12
338.092	69.97
338.305	45.4
338.517	53.59
338.729	-3.75
338.942	4.44
339.154	33.11
339.367	57.68
339.579	-5.8
339.792	2.39
340.004	-11.95
340.217	65.88
340.429	47.44
340.641	12.63
340.854	-22.19
341.066	-7.85
341.278	57.68
341.491	49.49
341.703	45.4
341.915	-30.38
342.128	45.4
342.34	14.68
342.552	-34.47
342.764	24.92
342.977	16.73
343.189	43.35
343.401	10.58
343.613	-22.19
343.826	-63.15
344.038	26.96
344.25	49.49
344.462	31.06
344.674	8.53
344.886	37.2
345.099	45.4
345.311	26.96
345.523	12.63
345.735	115.03
345.947	51.54
346.159	16.73
346.371	33.11
346.583	-5.8
346.795	61.78
347.007	4.44
347.219	84.31
347.431	51.54
347.643	45.4
347.855	0.34
348.067	12.63
348.279	-38.57
348.491	74.07
348.703	94.55
348.915	-13.99
349.127	43.35
349.339	76.12
349.551	10.58
349.763	-18.09
349.975	16.73
350.187	74.07
350.399	49.49
350.61	55.64
350.822	-1.71
351.034	18.77
351.246	-77.48
351.458	57.68
351.669	8.53
351.881	74.07
352.093	80.21
352.305	110.93
352.517	57.68
352.728	63.83
352.94	45.4
353.152	43.35
353.363	-5.8
353.575	69.97
353.787	-5.8
353.999	-11.95
354.21	-7.85
354.422	6.49
354.633	43.35
354.845	8.53
355.057	55.64
355.268	22.87
355.48	4.44
355.692	-36.52
355.903	41.3
356.115	67.92
356.326	-36.52
356.538	63.83
356.749	69.97
356.961	53.59
357.172	29.01
357.384	-1.71
357.595	49.49
357.807	61.78
358.018	-9.9
358.23	45.4
358.441	51.54
358.653	14.68
358.864	-11.95
359.075	14.68
359.287	131.41
359.498	69.97
359.709	24.92
359.921	-5.8
360.132	98.64
360.344	-13.99
360.555	29.01
360.766	-9.9
360.977	-11.95
361.189	92.5
361.4	35.16
361.611	49.49
361.823	53.59
362.034	110.93
362.245	2.39
362.456	63.83
362.667	59.73
362.879	90.45
363.09	61.78
363.301	6.49
363.512	16.73
363.723	92.5
363.935	-44.71
364.146	49.49
364.357	55.64
364.568	51.54
364.779	-87.72
364.99	76.12
365.201	-59.05
365.412	-18.09
365.623	10.58
365.834	37.2
366.045	41.3
366.256	43.35
366.467	4.44
366.678	67.92
366.889	106.84
367.1	45.4
367.311	10.58
367.522	80.21
367.733	115.03
367.944	72.02
368.155	57.68
368.366	35.16
368.577	39.25
368.788	51.54
368.999	37.2
369.209	-69.29
369.42	35.16
369.631	18.77
369.842	47.44
370.053	-22.19
370.264	51.54
370.474	39.25
370.685	0.34
370.896	18.77
371.107	86.36
371.317	37.2
371.528	22.87
371.739	16.73
371.95	8.53
372.16	47.44
372.371	-16.04
372.582	-9.9
372.792	-3.75
373.003	14.68
373.214	14.68
373.424	33.11
373.635	6.49
373.846	98.64
374.056	-3.75
374.267	76.12
374.477	2.39
374.688	2.39
374.898	-24.23
375.109	55.64
375.319	37.2
375.53	90.45
375.74	29.01
375.951	-13.99
376.161	20.82
376.372	16.73
376.582	0.34
376.793	-9.9
377.003	31.06
377.214	6.49
377.424	6.49
377.635	47.44
377.845	-40.62
378.055	80.21
378.266	4.44
378.476	86.36
378.686	49.49
378.897	22.87
379.107	20.82
379.317	61.78
379.528	-42.67
379.738	-13.99
379.948	35.16
380.158	-5.8
380.369	61.78
380.579	78.16
380.789	43.35
380.999	94.55
381.21	12.63
381.42	61.78
381.63	-7.85
381.84	69.97
382.05	29.01
382.261	20.82
382.471	51.54
382.681	61.78
382.891	119.12
383.101	35.16
383.311	-22.19
383.521	35.16
383.731	43.35
383.941	10.58
384.151	45.4
384.361	39.25
384.571	16.73
384.781	51.54
384.991	57.68
385.201	117.08
385.411	59.73
385.621	45.4
385.831	-28.33
386.041	84.31
386.251	6.49
386.461	84.31
386.671	86.36
386.881	-7.85
387.091	121.17
387.301	84.31
387.511	12.63
387.72	106.84
387.93	31.06
388.14	20.82
388.35	59.73
388.56	47.44
388.769	43.35
388.979	49.49
389.189	49.49
389.399	90.45
389.609	53.59
389.818	65.88
390.028	31.06
390.238	29.01
390.447	31.06
390.657	39.25
390.867	18.77
391.076	-3.75
391.286	-1.71
391.496	55.64
391.705	24.92
391.915	153.94
392.125	88.4
392.334	125.27
392.544	61.78
392.753	74.07
392.963	57.68
393.172	59.73
393.382	18.77
393.591	61.78
393.801	18.77
394.01	55.64
394.22	10.58
394.429	82.26
394.639	78.16
394.848	115.03
395.058	117.08
395.267	72.02
395.477	133.46
395.686	53.59
395.895	117.08
396.105	90.45
396.314	57.68
396.524	80.21
396.733	80.21
396.942	141.65
397.152	51.54
397.361	178.51
397.57	92.5
397.78	4.44
397.989	131.41
398.198	100.69
398.407	100.69
398.617	69.97
398.826	49.49
399.035	59.73
399.244	162.13
399.453	51.54
399.663	82.26
399.872	119.12
400.081	88.4
400.29	168.27
400.499	84.31
400.708	143.7
400.917	117.08
401.127	78.16
401.336	74.07
401.545	180.56
401.754	31.06
401.963	133.46
402.172	78.16
402.381	96.6
402.59	67.92
402.799	115.03
403.008	69.97
403.217	92.5
403.426	82.26
403.635	47.44
403.844	110.93
404.053	133.46
404.262	96.6
404.471	82.26
404.68	125.27
404.888	100.69
405.097	133.46
405.306	184.66
405.515	131.41
405.724	151.89
405.933	162.13
406.142	160.08
406.35	147.8
406.559	194.9
406.768	137.56
406.977	182.61
407.185	219.47
407.394	215.38
407.603	176.47
407.812	188.75
408.02	256.34
408.229	237.91
408.438	180.56
408.646	168.27
408.855	188.75
409.064	287.06
409.272	186.71
409.481	321.87
409.69	188.75
409.898	264.53
410.107	348.5
410.315	354.64
410.524	293.2
410.733	323.92
410.941	338.26
411.15	330.06
411.358	381.26
411.567	422.22
411.775	274.77
411.984	346.45
412.192	500.05
412.401	454.99
412.609	508.24
412.818	469.33
413.026	432.46
413.234	405.84
413.443	489.81
413.651	473.42
413.86	467.28
414.068	571.72
414.276	614.73
414.485	510.29
414.693	663.88
414.901	667.98
415.11	633.16
415.318	717.13
415.526	653.64
415.734	706.89
415.943	667.98
416.151	797
416.359	850.25
416.567	831.82
416.776	835.91
416.984	889.16
417.192	948.55
417.4	907.59
417.608	891.21
417.817	960.84
418.025	962.89
418.233	1145.16
418.441	956.74
418.649	1089.86
418.857	1124.68
419.065	1247.55
419.273	1190.21
419.481	1194.31
419.689	1390.91
419.897	1333.57
420.105	1364.29
420.313	1454.4
420.521	1487.17
420.729	1538.37
420.937	1585.47
421.145	1589.57
421.353	1730.87
421.561	1876.28
421.769	1775.93
421.977	2023.73
422.185	1853.75
422.393	2036.02
422.601	2052.41
422.809	2138.42
423.017	2070.84
423.224	2347.31
423.432	2289.97
423.64	2283.83
423.848	2629.93
424.056	2472.24
424.263	2646.32
424.471	2672.94
424.679	2724.14
424.887	2887.98
425.094	2996.52
425.302	2924.84
425.51	3029.29
425.718	3193.12
425.925	3387.68
426.133	3232.04
426.341	3475.74
426.548	3594.53
426.756	3739.93
426.964	3623.2
427.171	4028.7
427.379	4086.04
427.586	4186.39
427.794	4172.05
428.001	4436.24
428.209	4636.94
428.417	4593.94
428.624	4884.75
428.832	4952.33
429.039	4954.38
429.247	5015.82
429.454	5261.57
429.662	5728.51
429.869	5193.99
430.076	5820.67
430.284	5345.54
430.491	5802.24
430.699	6035.71
430.906	5927.16
431.114	6240.5
431.321	6635.76
431.528	6519.03
431.736	6875.37
431.943	7153.9
432.15	6940.91
432.358	7284.97
432.565	7502.05
432.772	7428.32
432.979	7854.3
433.187	8034.52
433.394	8194.26
433.601	8440.02
433.808	8669.39
434.016	8632.53
434.223	9003.21
434.43	9377.99
434.637	9220.3
434.844	9924.8
435.052	10285.24
435.259	9973.95
435.466	9951.42
435.673	9996.48
435.88	10610.87
436.087	11237.55
436.294	11098.28
436.501	11012.27
436.708	11301.03
436.915	11884.7
437.122	12101.79
437.329	12107.93
437.537	12548.25
437.743	12564.63
437.95	12619.92
438.157	13248.65
438.364	13633.67
438.571	13578.37
438.778	13801.6
438.985	15202.41
439.192	14321.79
439.399	14719.09
439.606	14628.98
439.813	15226.99
440.02	16283.74
440.227	15994.98
440.433	15906.91
440.64	16486.49
440.847	16230.49
441.054	16736.34
441.261	17750.09
441.467	17530.95
441.674	17870.92
441.881	18438.2
442.088	18344
442.294	18397.24
442.501	18937.91
442.708	19365.93
442.914	20047.91
443.121	21084.18
443.328	20150.31
443.534	21573.64
443.741	21157.91
443.948	20738.07
444.154	22339.58
444.361	22364.16
444.568	22468.61
444.774	22493.18
444.981	22743.03
445.187	23515.12
445.394	24256.48
445.6	23861.23
445.807	26286.02
446.013	25286.61
446.22	25579.47
446.426	26484.67
446.633	26832.83
446.839	27762.61
447.046	26755.01
447.252	28393.38
447.459	28168.1
447.665	28219.3
447.871	29558.67
448.078	30486.4
448.284	28913.56
448.491	29861.77
448.697	31238.01
448.903	31829.87
449.11	31764.34
449.316	31278.97
449.522	32126.83
449.728	32773.99
449.935	33169.24
450.141	33077.08
450.347	33787.73
450.553	32714.59
450.76	33212.25
450.966	34064.21
451.172	33976.14
451.378	34658.12
451.584	34031.44
451.791	34895.68
451.997	34791.23
452.203	35182.4
452.409	35460.92
452.615	35323.71
452.821	34262.86
453.027	33404.76
453.233	35428.15
453.44	33920.85
453.646	34258.76
453.852	34387.78
454.058	35012.42
454.264	34105.16
454.47	34608.97
454.676	33851.22
454.882	35043.13
455.088	32006
455.294	32759.65
455.5	32837.47
455.705	33437.53
455.911	32300.9
456.117	31094.65
456.323	30883.71
456.529	29261.72
456.735	30697.34
456.941	29872.01
457.147	29425.56
457.352	28780.45
457.558	28151.72
457.764	28340.13
457.97	27885.48
458.176	27330.48
458.381	27068.34
458.587	26017.74
458.793	25941.96
458.999	24455.14
459.204	26376.13
459.41	25417.68
459.616	23986.15
459.821	24029.16
460.027	23691.24
460.233	23474.16
460.438	22079.49
460.644	22439.93
460.85	21407.76
461.055	21202.96
461.261	21151.76
461.466	19441.71
461.672	18952.24
461.878	20095.01
462.083	18855.99
462.289	18698.3
462.494	18303.04
462.7	17500.23
462.905	16986.19
463.111	17633.35
463.316	17809.48
463.522	17426.51
463.727	17272.91
463.932	16957.52
464.138	16898.13
464.343	17012.82
464.549	16920.66
464.754	17315.92
464.959	16906.32
465.165	17037.39
465.37	16253.02
465.575	15931.49
465.781	16359.52
465.986	16613.46
466.191	15886.43
466.397	15689.83
466.602	14958.71
466.807	15616.1
467.012	15614.06
467.218	15458.41
467.423	14952.56
467.628	15186.03
467.833	15954.02
468.038	15059.06
468.244	14860.4
468.449	15435.88
468.654	15231.08
468.859	14717.04
469.064	14592.12
469.269	14166.14
469.474	14248.06
469.679	14905.46
469.885	14184.57
470.09	14352.51
470.295	14266.49
470.5	13987.97
470.705	14088.32
470.91	13664.39
471.115	13910.15
471.32	13617.29
471.525	13725.83
471.73	13437.06
471.935	13234.32
472.139	12720.28
472.344	13162.64
472.549	12955.79
472.754	12701.84
472.959	12538.01
473.164	12302.49
473.369	12157.08
473.574	12509.33
473.778	12484.76
473.983	12349.59
474.188	12202.14
474.393	11708.58
474.598	11819.17
474.802	11663.52
475.007	11708.58
475.212	11542.69
475.417	11014.32
475.621	11268.27
475.826	11229.35
476.031	11020.46
476.235	10985.65
476.44	10954.93
476.645	10797.23
476.849	10561.72
477.054	10580.15
477.259	10524.85
477.463	10492.09
477.668	10199.23
477.872	10068.16
478.077	9984.19
478.282	9797.82
478.486	9881.79
478.691	9603.27
478.895	9748.67
479.1	9593.03
479.304	9707.71
479.509	9332.93
479.713	9615.55
479.918	9275.59
480.122	9238.73
480.326	9380.04
480.531	9298.12
480.735	9232.58
480.94	9023.69
481.144	9509.06
481.348	8978.64
481.553	8970.44
481.757	9013.45
481.961	9031.88
482.166	9212.1
482.37	9214.15
482.574	8978.64
482.778	9099.47
482.983	9240.78
483.187	9042.12
483.391	9152.71
483.595	8900.81
483.8	8728.78
484.004	8894.67
484.208	9029.84
484.412	9070.79
484.616	8890.57
484.821	8929.49
485.025	8792.27
485.229	8900.81
485.433	9054.41
485.637	9078.99
485.841	8687.82
486.045	8802.51
486.249	8900.81
486.453	8892.62
486.657	8876.24
486.861	8816.85
487.065	8655.06
487.269	8945.87
487.473	8841.42
487.677	8825.04
487.881	9060.56
488.085	8954.06
488.289	8915.15
488.493	8843.47
488.697	8988.88
488.901	9038.03
489.105	9019.6
489.309	8921.29
489.512	9072.84
489.716	9072.84
489.92	8884.43
490.124	9142.47
490.328	9302.22
490.531	9279.69
490.735	9359.56
490.939	9085.13
491.143	9052.36
491.346	9072.84
491.55	9138.38
491.754	9318.6
491.958	9291.98
492.161	9205.96
492.365	9343.17
492.569	9441.48
492.772	9291.98
492.976	9486.53
493.18	9453.77
493.383	9902.27
493.587	9722.05
493.79	9824.45
493.994	9713.86
494.197	9576.64
494.401	9873.6
494.605	9846.98
494.808	10152.12
495.012	10184.89
495.215	10160.31
495.419	10125.5
495.622	10072.25
495.825	10252.47
496.029	10447.03
496.232	10504.37
496.436	10299.58
496.639	10815.66
496.843	10631.35
497.046	10756.27
497.249	10975.41
497.453	11081.9
497.656	10989.74
497.859	10987.69
498.063	11391.14
498.266	11452.58
498.469	11552.93
498.673	11503.78
498.876	11692.19
499.079	11851.94
499.282	11940
499.485	12239
499.689	12224.67
499.892	12357.78
500.095	12468.38
500.298	12673.17
500.501	12554.39
500.705	12955.79
500.908	13068.43
501.111	13131.92
501.314	13127.82
501.517	13553.8
501.72	13695.11
501.923	13451.4
502.126	13758.6
502.329	13893.76
502.532	14205.05
502.735	14088.32
502.938	14655.61
503.141	14514.3
503.344	14868.59
503.547	14907.51
503.75	15208.56
503.953	15179.89
504.156	15390.83
504.359	15626.34
504.562	15439.98
504.765	15870.05
504.968	15878.24
505.17	16167.01
505.373	16142.43
505.576	16529.5
505.779	16986.19
505.982	16689.24
506.185	16891.99
506.387	16896.08
506.59	17145.94
506.793	17637.45
506.996	17631.3
507.198	18178.11
507.401	18098.24
507.604	18337.85
507.807	18475.07
508.009	18638.9
508.212	18739.26
508.415	19093.55
508.617	19062.83
508.82	19175.47
509.022	19212.34
509.225	19585.07
509.428	19564.59
509.63	20043.81
509.833	20195.36
510.035	20680.73
510.238	20381.73
510.44	20725.79
510.643	20836.38
510.845	20840.47
511.048	20965.4
511.25	21475.34
511.453	21336.08
511.655	22315.01
511.858	22087.68
512.06	22028.29
512.262	22675.45
512.465	22302.72
512.667	22796.28
512.87	23046.13
513.072	23023.61
513.274	23584.75
513.477	23928.81
513.679	23382
513.881	24008.68
514.084	24338.4
514.286	24283.11
514.488	24524.77
514.69	25065.43
514.893	24956.89
515.095	24975.32
515.297	25733.07
515.499	25700.3
515.701	25716.68
515.904	25909.19
516.106	26257.35
516.308	26507.2
516.51	26775.48
516.712	26685.37
516.914	26972.09
517.116	27436.98
517.318	27221.94
517.52	27985.83
517.722	27813.8
517.925	28106.66
518.127	28143.53
518.329	28426.15
518.531	28446.63
518.733	29046.68
518.935	29187.99
519.136	29429.65
519.338	29767.57
519.54	29982.6
519.742	30027.66
519.944	30252.94
520.146	30683.01
520.348	30748.54
520.55	30648.19
520.752	30762.88
520.954	31463.29
521.155	31221.62
521.357	31565.68
521.559	31889.26
521.761	32278.38
521.963	32325.48
522.164	32464.74
522.366	32466.79
522.568	32898.91
522.77	33001.31
522.971	33265.5
523.173	32950.11
523.375	33521.49
523.576	33216.35
523.778	33462.1
523.98	34420.55
524.181	34391.88
524.383	33976.14
524.584	34723.65
524.786	34436.94
524.988	34455.37
525.189	35202.88
525.391	34797.38
525.592	35098.43
525.794	35264.32
525.995	35417.91
526.197	35278.65
526.398	35686.2
526.6	35649.33
526.801	36132.65
527.003	35737.4
527.204	35989.3
527.406	36226.86
527.607	36554.54
527.808	36556.58
528.01	35944.24
528.211	36570.92
528.412	36835.11
528.614	36513.58
528.815	36718.37
529.016	37300
529.218	36785.96
529.419	37127.97
529.62	36740.9
529.822	37015.33
530.023	37132.06
530.224	37469.98
530.425	36914.98
530.626	37140.25
530.828	36683.56
531.029	37828.37
531.23	37293.85
531.431	37498.65
531.632	37365.53
531.833	37439.26
532.035	37498.65
532.236	37566.23
532.437	38033.17
532.638	37510.94
532.839	37494.55
533.04	37930.77
533.241	37644.05
533.442	38485.77
533.643	37592.86
533.844	37676.82
534.045	37938.96
534.246	37777.17
534.447	37863.19
534.648	37852.95
534.849	37963.54
535.05	37263.13
535.251	38182.67
535.451	37754.65
535.652	38055.7
535.853	37592.86
536.054	37977.87
536.255	38113.04
536.456	37859.09
536.657	37709.59
536.857	37793.56
537.058	37822.23
537.259	38086.42
537.46	38242.06
537.66	37754.65
537.861	38211.34
538.062	37738.26
538.263	38231.82
538.463	37709.59
538.664	37818.13
538.865	38106.9
539.065	38346.51
539.266	37728.02
539.466	38225.68
539.667	37558.04
539.868	38190.86
540.068	37967.63
540.269	37519.13
540.469	38106.9
540.67	38024.98
540.87	37832.47
541.071	38143.76
541.271	37807.89
541.472	37539.61
541.672	37619.48
541.873	37916.43
542.073	37488.41
542.274	38094.61
542.474	37758.74
542.675	37388.06
542.875	38035.22
543.075	37646.1
543.276	37355.29
543.476	37986.07
543.676	37607.19
543.877	37699.35
544.077	37627.67
544.277	37343
544.478	37564.18
544.678	37723.93
544.878	37754.65
545.078	37242.65
545.279	37580.57
545.479	37244.7
545.679	37615.38
545.879	37474.07
546.079	37365.53
546.28	37486.36
546.48	37254.94
546.68	37478.17
546.88	37349.15
547.08	37146.4
547.28	37314.33
547.48	37246.75
547.68	37365.53
547.88	37234.46
548.081	37617.43
548.281	37457.69
548.481	37308.19
548.681	37336.86
548.881	37478.17
549.081	37293.85
549.28	36763.43
549.48	37736.21
549.68	37089.06
549.88	37904.15
550.08	37031.71
550.28	37531.42
550.48	37254.94
550.68	37330.72
550.88	37469.98
551.08	37000.99
551.279	37406.49
551.479	37064.48
551.679	37252.89
551.879	37140.25
552.079	37156.64
552.278	37078.82
552.478	36992.8
552.678	36968.23
552.878	37451.55
553.077	37232.41
553.277	36861.73
553.477	37117.73
553.676	36792.1
553.876	36833.06
554.076	36396.84
554.275	36570.92
554.475	36701.99
554.674	36552.49
554.874	36800.29
555.074	36800.29
555.273	37025.57
555.473	36917.03
555.672	36673.32
555.872	36656.93
556.071	36953.89
556.271	36900.64
556.47	36437.8
556.67	36196.14
556.869	36650.79
557.068	36642.6
557.268	36593.45
557.467	36507.43
557.667	36611.88
557.866	36413.23
558.065	36341.55
558.265	36015.92
558.464	36128.56
558.663	36667.17
558.863	35946.29
559.062	36556.58
559.261	35798.84
559.461	36685.61
559.66	35698.48
559.859	35919.67
560.058	35942.19
560.258	35809.07
560.457	35608.37
560.656	36054.83
560.855	35641.14
561.054	35845.94
561.253	35637.05
561.453	35368.76
561.652	35704.63
561.851	35680.05
562.05	35622.71
562.249	35448.63
562.448	35587.89
562.647	35323.71
562.846	35465.02
563.045	35192.64
563.244	35080
563.443	35295.03
563.642	35082.05
563.841	34912.06
564.04	35026.75
564.239	34959.17
564.438	34631.49
564.637	35012.42
564.836	35080
565.035	34447.18
565.234	34625.35
565.432	34477.9
565.631	34441.03
565.83	34924.35
566.029	34549.57
566.228	34203.47
566.427	34352.97
566.625	34449.22
566.824	33951.57
567.023	34389.83
567.222	33781.59
567.42	34152.27
567.619	33988.43
567.818	33916.75
568.016	33998.67
568.215	34076.49
568.414	33691.48
568.612	34062.16
568.811	33695.57
569.01	33632.08
569.208	33652.56
569.407	33548.12
569.605	33224.54
569.804	33501.01
570.002	33091.42
570.201	33412.95
570.4	33132.38
570.598	33066.84
570.797	32978.78
570.995	33138.52
571.193	32571.24
571.392	33298.27
571.59	32968.54
571.789	32755.55
571.987	32438.12
572.186	32878.43
572.384	32286.57
572.582	32565.09
572.781	32733.03
572.979	32333.67
573.177	32286.57
573.376	32173.93
573.574	32151.4
573.772	32403.3
573.971	32300.9
574.169	31756.14
574.367	31936.37
574.565	32165.74
574.763	31723.38
574.962	31745.9
575.16	31471.48
575.358	31797.1
575.556	31154.04
575.754	31913.84
575.952	31496.05
576.151	31483.76
576.349	31188.86
576.547	31414.13
576.745	31008.64
576.943	31328.12
577.141	30967.68
577.339	30732.16
577.537	30816.13
577.735	31106.94
577.933	30617.47
578.131	31076.22
578.329	30812.03
578.527	30369.67
578.725	30467.97
578.923	30412.68
579.121	30275.46
579.319	29908.88
579.516	30582.66
579.714	30189.45
579.912	30097.29
580.11	30183.3
580.308	29976.46
580.506	30044.04
580.704	29462.42
580.901	29763.47
581.099	29978.51
581.297	29611.92
581.495	29392.79
581.692	29962.12
581.89	29427.6
582.088	29736.85
582.285	29366.17
582.483	29417.36
582.681	29450.13
582.878	29325.21
583.076	28762.01
583.274	29310.87
583.471	28856.22
583.669	28960.67
583.866	28755.87
584.064	28829.6
584.262	28569.51
584.459	28901.28
584.657	28463.01
584.854	28458.92
585.052	28006.31
585.249	28428.2
585.447	28258.21
585.644	27774.89
585.841	28020.65
586.039	28278.69
586.236	27844.52
586.434	27848.62
586.631	27887.53
586.828	28012.46
587.026	27731.89
587.223	27602.86
587.42	27158.45
587.618	27633.58
587.815	27246.52
588.012	27207.61
588.21	27291.57
588.407	27365.3
588.604	27029.43
588.801	26904.51
588.999	26865.6
589.196	27035.58
589.393	26875.84
589.59	26808.25
589.787	26705.85
589.984	26288.07
590.182	26484.67
590.379	26609.6
590.576	26505.15
590.773	26433.47
590.97	26240.96
591.167	26195.91
591.364	25554.9
591.561	26077.13
591.758	25962.44
591.955	25937.87
592.152	25919.43
592.349	25724.88
592.546	25870.28
592.743	25790.41
592.94	25350.1
593.137	25456.59
593.334	25704.4
593.531	25173.97
593.727	25106.39
593.924	25184.21
594.121	24797.15
594.318	25372.63
594.515	24821.72
594.712	25149.4
594.908	24928.22
595.105	25008.09
595.302	24602.59
595.499	24883.16
595.696	24514.53
595.892	24547.29
596.089	24694.75
596.286	24496.1
596.482	24221.67
596.679	24160.23
596.876	24309.73
597.072	24149.99
597.269	24207.33
597.466	23998.44
597.662	23701.48
597.859	23629.8
598.055	23746.54
598.252	23513.07
598.448	23705.58
598.645	23375.86
598.841	23203.83
599.038	23257.07
599.234	23412.72
599.431	23199.73
599.627	23166.96
599.824	23521.26
600.02	22876.15
600.217	23295.99
600.413	22872.06
600.609	23121.91
600.806	22831.1
601.002	22839.29
601.198	22618.11
601.395	22487.04
601.591	22630.4
601.787	22724.6
601.984	22386.69
602.18	22435.84
602.376	22298.63
602.572	22228.99
602.769	22267.91
602.965	21960.71
603.161	22179.84
603.357	21948.42
603.553	21891.08
603.75	22198.27
603.946	21981.19
604.142	22079.49
604.338	21483.53
604.534	21598.22
604.73	21532.68
604.926	21346.32
605.122	21377.04
605.318	21245.97
605.514	21293.07
605.71	21258.26
605.906	21164.05
606.102	21129.23
606.298	21172.24
606.494	21389.33
606.69	21168.15
606.886	20987.93
607.082	20641.82
607.278	20912.15
607.474	20529.18
607.67	20830.23
607.866	20535.32
608.062	21018.64
608.257	20688.92
608.453	20752.41
608.649	20688.92
608.845	20398.11
609.041	20467.74
609.236	20525.08
609.432	20516.89
609.628	20187.17
609.824	20631.58
610.019	20430.88
610.215	20244.51
610.411	20271.14
610.606	19904.55
610.802	19910.69
610.998	20142.11
611.193	19910.69
611.389	19808.3
611.584	19580.97
611.78	19935.27
611.976	19744.81
612.171	20011.04
612.367	19810.34
612.562	19474.48
612.758	19441.71
612.953	19583.02
613.149	19818.53
613.344	19406.89
613.539	19824.68
613.735	19431.47
613.93	19793.96
614.126	19503.15
614.321	19621.93
614.517	19408.94
614.712	19494.96
614.907	19308.59
615.103	19187.76
615.298	19308.59
615.493	19392.56
615.688	18794.55
615.884	19529.77
616.079	19077.17
616.274	19028.02
616.47	19255.34
616.665	19103.79
616.86	19048.5
617.055	18669.62
617.25	18964.53
617.445	18987.06
617.641	18765.88
617.836	18964.53
618.031	18454.59
618.226	18645.05
618.421	18450.49
618.616	18878.52
618.811	18096.19
619.006	18663.48
619.201	18186.3
619.396	18112.58
619.591	18362.43
619.786	18249.79
619.981	17979.46
620.176	18262.08
620.371	17502.28
620.566	17979.46
620.761	17647.69
620.956	17899.59
621.151	17406.03
621.346	17659.98
621.541	17403.98
621.735	17629.26
621.93	17080.4
622.125	17033.3
622.32	17127.5
622.515	17145.94
622.709	17027.15
622.904	17117.26
623.099	16914.52
623.294	16889.94
623.488	16369.76
623.683	16554.07
623.878	16357.47
624.072	16545.88
624.267	16437.34
624.462	16523.35
624.656	16152.67
624.851	16062.56
625.046	16040.03
625.24	15732.84
625.435	15888.48
625.629	15951.97
625.824	15509.61
626.018	15538.28
626.213	15335.53
626.407	15585.38
626.602	15308.91
626.796	15239.28
626.991	15239.28
627.185	15083.63
627.38	15083.63
627.574	14981.23
627.768	14895.22
627.963	14862.45
628.157	14571.64
628.352	14579.83
628.546	14542.97
628.74	14422.14
628.935	14168.19
629.129	14368.89
629.323	14198.91
629.517	14274.68
629.712	14033.02
629.906	14123.13
630.1	13846.66
630.294	14008.45
630.489	13734.02
630.683	13979.78
630.877	13486.22
631.071	13549.7
631.265	13648.01
631.459	13576.33
631.653	13428.87
631.848	13428.87
632.042	12968.08
632.236	13195.4
632.43	13039.76
632.624	13199.5
632.818	13021.33
633.012	12904.59
633.206	12875.92
633.4	12701.84
633.594	12705.94
633.788	12617.88
633.982	12701.84
634.176	12370.07
634.369	12562.58
634.563	12351.64
634.757	12226.71
634.951	12222.62
635.145	12382.36
635.339	12101.79
635.533	12159.13
635.726	12052.64
635.92	12009.63
636.114	12107.93
636.308	11669.67
636.501	11782.31
636.695	11856.03
636.889	11839.65
637.083	11554.98
637.276	11602.08
637.47	11522.21
637.664	11419.82
637.857	11419.82
638.051	11452.58
638.244	11108.52
638.438	11368.62
638.632	11028.65
638.825	11010.22
639.019	11350.18
639.212	10963.12
639.406	11030.7
639.599	10864.82
639.793	10868.91
639.986	10565.81
640.18	10813.62
640.373	10539.19
640.567	10612.92
640.76	10696.88
640.954	10283.19
641.147	10279.1
641.34	10385.59
641.534	10508.47
641.727	10318.01
641.92	10277.05
642.114	10170.55
642.307	10227.9
642.5	10172.6
642.694	9965.76
642.887	9955.52
643.08	10111.16
643.273	10014.91
643.467	9732.29
643.66	9720
643.853	9703.62
644.046	9615.55
644.239	9519.3
644.432	9648.32
644.626	9416.9
644.819	9638.08
645.012	9431.24
645.205	9470.15
645.398	9605.31
645.591	9156.81
645.784	9281.74
645.977	9154.76
646.17	9193.67
646.363	9189.58
646.556	9081.03
646.749	8995.02
646.942	9099.47
647.135	8988.88
647.328	8773.84
647.521	8966.35
647.714	8708.3
647.907	8714.45
648.099	8831.18
648.292	8679.63
648.485	8614.1
648.678	8440.02
648.871	8534.23
649.064	8409.3
649.256	8523.99
649.449	8380.63
649.642	8364.25
649.835	8229.08
650.027	8339.67
650.22	8247.51
650.413	8108.25
650.605	8200.41
650.798	7956.7
650.991	8106.2
651.183	8007.9
651.376	7868.64
651.568	8083.67
651.761	7721.18
651.954	7882.97
652.146	7794.91
652.339	7667.94
652.531	7690.46
652.724	7815.39
652.916	7497.95
653.109	7612.64
653.301	7532.77
653.494	7350.5
653.686	7323.88
653.879	7583.97
654.071	7508.19
654.263	7495.91
654.456	7391.46
654.648	7252.2
654.84	7422.18
655.033	7172.33
655.225	7125.22
655.417	7250.15
655.61	7045.35
655.802	7039.21
655.994	7117.03
656.186	7022.83
656.379	6981.87
656.571	7106.79
656.763	6891.76
656.955	6680.82
657.148	6818.03
657.34	6772.97
657.532	6742.25
657.724	6717.68
657.916	6607.09
658.108	6596.85
658.3	6654.19
658.492	6613.23
658.684	6519.03
658.876	6629.62
659.068	6492.4
659.26	6418.68
659.452	6324.47
659.644	6471.92
659.836	6406.39
660.028	6150.39
660.22	6134.01
660.412	6314.23
660.604	6191.35
660.796	6342.9
660.988	6189.3
661.18	6228.21
661.372	6189.3
661.563	6322.42
661.755	5984.51
661.947	5988.6
662.139	5910.78
662.331	5880.06
662.522	5683.45
662.714	5787.9
662.906	5660.93
663.097	5839.1
663.289	5773.57
663.481	5765.37
663.673	5714.17
663.864	5714.17
664.056	5636.35
664.247	5732.61
664.439	5595.39
664.631	5609.73
664.822	5550.34
665.014	5607.68
665.205	5591.3
665.397	5519.62
665.588	5421.31
665.78	5312.77
665.971	5503.23
666.163	5386.5
666.354	5349.64
666.546	5394.69
666.737	5372.16
666.929	5237
667.12	5200.13
667.311	5224.71
667.503	5198.09
667.694	5169.41
667.885	5286.15
668.077	5165.32
668.268	5060.87
668.459	5196.04
668.651	5185.8
668.842	5015.82
669.033	5093.64
669.224	4913.42
669.416	5087.5
669.607	5021.96
669.798	4899.08
669.989	5157.13
670.18	4866.32
670.371	4841.74
670.563	4884.75
670.754	4751.63
670.945	4874.51
671.136	4880.65
671.327	4829.45
671.518	4573.46
671.709	4739.34
671.9	4796.68
672.091	4819.21
672.282	4843.79
672.473	4561.17
672.664	4780.3
672.855	4632.85
673.046	4616.46
673.237	4634.89
673.428	4575.5
673.619	4673.81
673.809	4534.54
674	4591.89
674.191	4600.08
674.382	4497.68
674.573	4458.77
674.764	4356.37
674.954	4606.22
675.145	4409.62
675.336	4514.06
675.527	4483.34
675.717	4292.88
675.908	4352.27
676.099	4432.15
676.289	4202.77
676.48	4325.65
676.671	4249.88
676.861	4389.14
677.052	4335.89
677.243	4202.77
677.433	4317.46
677.624	4229.4
677.814	4333.84
678.005	4268.31
678.195	4172.05
678.386	4178.2
678.576	4243.73
678.767	4147.48
678.957	4213.01
679.148	4260.12
679.338	4245.78
679.529	4182.29
679.719	4086.04
679.909	4159.77
680.1	4202.77
680.29	4079.9
680.481	4108.57
680.671	4186.39
680.861	4010.26
681.052	4024.6
681.242	4092.18
681.432	4139.29
681.622	3989.78
681.813	3961.11
682.003	4073.75
682.193	3903.77
682.383	4002.07
682.573	4063.51
682.764	3965.21
682.954	3889.43
683.144	4045.08
683.334	4053.27
683.524	3920.15
683.714	4100.37
683.904	3942.68
684.094	3959.06
684.284	3840.28
684.474	3889.43
684.664	3891.48
684.854	3963.16
685.044	3807.52
685.234	3737.88
685.424	3776.8
685.614	3821.85
685.804	3696.92
685.994	3784.99
686.184	3760.41
686.374	3811.61
686.564	3731.74
686.753	3678.49
686.943	3705.12
687.133	3676.45
687.323	3672.35
687.513	3733.79
687.702	3660.06
687.892	3815.71
688.082	3668.25
688.272	3600.67
688.461	3625.25
688.651	3698.97
688.841	3518.75
689.03	3518.75
689.22	3580.19
689.41	3621.15
689.599	3553.57
689.789	3352.87
689.979	3547.42
690.168	3356.96
690.358	3410.21
690.547	3461.41
690.737	3541.28
690.926	3434.78
691.116	3311.91
691.305	3293.48
691.495	3281.19
691.684	3301.67
691.874	3311.91
692.063	3213.6
692.252	3342.63
692.442	3279.14
692.631	3369.25
692.82	3213.6
693.01	3223.84
693.199	3240.23
693.388	3154.21
693.578	3219.75
693.767	3180.84
693.956	3189.03
694.146	3201.32
694.335	3115.3
694.524	3113.25
694.713	3084.58
694.902	3008.81
695.092	2996.52
695.281	3078.44
695.47	3084.58
695.659	3035.43
695.848	2992.42
696.037	2990.38
696.226	2990.38
696.415	2898.22
696.604	3062.05
696.793	2949.42
696.982	2965.8
697.171	2953.51
697.36	2949.42
697.549	2900.27
697.738	2953.51
697.927	2920.74
698.116	2890.03
698.305	2879.79
698.494	2945.32
698.683	2996.52
698.872	2961.7
699.061	2824.49
699.25	2863.4
699.438	2754.86
699.627	2781.48
699.816	2879.79
700.005	2812.2
700.193	2830.63
700.382	2771.24
700.571	2765.1
700.76	2732.33
700.948	2838.83
701.137	2771.24
701.326	2912.55
701.514	2761
701.703	2736.43
701.892	2738.48
702.08	2832.68
702.269	2730.28
702.457	2828.59
702.646	2785.58
702.834	2799.91
703.023	2685.23
703.212	2853.16
703.4	2631.98
703.589	2681.13
703.777	2730.28
703.965	2734.38
704.154	2769.2
704.342	2560.3
704.531	2777.39
704.719	2609.45
704.907	2793.77
705.096	2580.78
705.284	2822.44
705.472	2701.61
705.661	2681.13
705.849	2664.75
706.037	2679.08
706.226	2621.74
706.414	2656.56
706.602	2697.52
706.79	2709.8
706.979	2560.3
707.167	2586.93
707.355	2672.94
707.543	2644.27
707.731	2804.01
707.919	2646.32
708.107	2701.61
708.296	2629.93
708.484	2629.93
708.672	2548.01
708.86	2787.63
709.048	2683.18
709.236	2605.36
709.424	2750.76
709.612	2629.93
709.8	2525.49
709.988	2533.68
710.176	2619.69
710.364	2627.89
710.551	2668.84
710.739	2517.29
710.927	2607.41
711.115	2572.59
711.303	2601.26
711.491	2599.21
711.679	2728.24
711.866	2758.96
712.054	2672.94
712.242	2631.98
712.43	2566.45
712.617	2650.41
712.805	2674.99
712.993	2695.47
713.181	2535.73
713.368	2605.36
713.556	2777.39
713.744	2562.35
713.931	2793.77
714.119	2693.42
714.306	2640.17
714.494	2650.41
714.682	2607.41
714.869	2650.41
715.057	2638.13
715.244	2623.79
715.432	2609.45
715.619	2619.69
715.807	2505.01
715.994	2494.77
716.182	2584.88
716.369	2699.56
716.556	2699.56
716.744	2505.01
716.931	2603.31
717.119	2615.6
717.306	2564.4
717.493	2666.8
717.681	2539.82
717.868	2617.65
718.055	2666.8
718.242	2722.09
718.43	2654.51
718.617	2605.36
718.804	2707.76
718.991	2679.08
719.179	2539.82
719.366	2601.26
719.553	2545.97
719.74	2474.29
719.927	2625.84
720.114	2701.61
720.301	2634.03
720.488	2613.55
720.676	2543.92
720.863	2730.28
721.05	2670.89
721.237	2607.41
721.424	2699.56
721.611	2603.31
721.798	2539.82
721.985	2533.68
722.172	2619.69
722.358	2656.56
722.545	2627.89
722.732	2640.17
722.919	2707.76
723.106	2724.14
723.293	2720.04
723.48	2656.56
723.667	2588.97
723.853	2636.08
724.04	2779.43
724.227	2638.13
724.414	2836.78
724.6	2742.57
724.787	2709.8
724.974	2629.93
725.161	2662.7
725.347	2646.32
725.534	2623.79
725.72	2775.34
725.907	2797.87
726.094	2707.76
726.28	2666.8
726.467	2668.84
726.653	2697.52
726.84	2732.33
727.027	2738.48
727.213	2693.42
727.4	2894.12
727.586	2748.72
727.773	2666.8
727.959	2703.66
728.145	2826.54
728.332	2644.27
728.518	2777.39
728.705	2804.01
728.891	2693.42
729.077	2765.1
729.264	2738.48
729.45	2623.79
729.636	2791.72
729.823	2638.13
730.009	2740.52
730.195	2859.31
730.382	2830.63
730.568	2713.9
730.754	2709.8
730.94	2738.48
731.126	2879.79
731.313	2783.53
731.499	2705.71
731.685	2863.4
731.871	2863.4
732.057	2797.87
732.243	2820.39
732.429	2873.64
732.615	2875.69
732.801	2804.01
732.987	2912.55
733.173	2885.93
733.359	2916.65
733.545	2885.93
733.731	2797.87
733.917	2791.72
734.103	2838.83
734.289	3043.62
734.475	2789.67
734.661	3023.14
734.847	2939.18
735.033	3014.95
735.219	2890.03
735.404	2869.55
735.59	3047.72
735.776	2963.75
735.962	2844.97
736.148	3010.86
736.333	2963.75
736.519	3029.29
736.705	2916.65
736.89	2885.93
737.076	3000.62
737.262	2949.42
737.447	2959.66
737.633	2896.17
737.819	2939.18
738.004	2986.28
738.19	3060.01
738.375	2920.74
738.561	2775.34
738.747	2943.27
738.932	2812.2
739.118	2978.09
739.303	3014.95
739.489	2988.33
739.674	2994.47
739.859	2922.79
740.045	2978.09
740.23	3033.38
740.416	2826.54
740.601	2890.03
740.786	3076.39
740.972	2937.13
741.157	2918.7
741.342	2857.26
741.528	3047.72
741.713	2978.09
741.898	2877.74
742.084	2926.89
742.269	2885.93
742.454	2947.37
742.639	2933.03
742.824	2892.07
743.01	2924.84
743.195	3111.21
743.38	2838.83
743.565	2914.6
743.75	2982.18
743.935	2887.98
744.12	2941.22
744.305	2965.8
744.49	2892.07
744.675	2791.72
744.86	2820.39
745.045	2855.21
745.23	2826.54
745.415	2830.63
745.6	2947.37
745.785	2818.35
745.97	2783.53
746.155	2769.2
746.34	2726.19
746.525	2777.39
746.71	2810.15
746.895	2695.47
747.079	2775.34
747.264	2664.75
747.449	2709.8
747.634	2773.29
747.819	2797.87
748.003	2722.09
748.188	2539.82
748.373	2740.52
748.557	2752.81
748.742	2642.22
748.927	2736.43
749.111	2666.8
749.296	2558.25
749.481	2687.28
749.665	2576.69
749.85	2462
750.034	2701.61
750.219	2519.34
750.404	2529.58
750.588	2560.3
750.773	2609.45
750.957	2459.95
751.141	2629.93
751.326	2500.91
751.51	2443.57
751.695	2369.84
751.879	2470.19
752.064	2367.79
752.248	2418.99
752.432	2408.75
752.617	2568.49
752.801	2459.95
752.985	2398.51
753.17	2449.71
753.354	2343.22
753.538	2378.03
753.722	2322.74
753.907	2277.68
754.091	2199.86
754.275	2230.58
754.459	2244.92
754.643	2285.87
754.828	2210.1
755.012	2185.52
755.196	2087.22
755.38	2128.18
755.564	2140.47
755.748	2212.15
755.932	2224.44
756.116	2144.56
756.3	2117.94
756.484	2132.28
756.668	2056.5
756.852	2097.46
757.036	2111.8
757.22	2042.17
757.404	1976.63
757.588	2081.08
757.772	1997.11
757.956	1933.62
758.14	1997.11
758.323	1950.01
758.507	2046.26
758.691	1820.99
758.875	2066.74
759.059	1993.01
759.242	1851.71
759.426	1974.58
759.61	1894.71
759.794	1835.32
759.977	1876.28
760.161	1870.14
760.345	1835.32
760.528	1886.52
760.712	1814.84
760.895	1855.8
761.079	1786.17
761.263	1798.46
761.446	1720.64
761.63	1755.45
761.813	1794.36
761.997	1761.59
762.18	1767.74
762.364	1716.54
762.547	1689.92
762.731	1765.69
762.914	1745.21
763.098	1628.48
763.281	1747.26
763.464	1712.44
763.648	1800.51
763.831	1710.4
764.015	1757.5
764.198	1724.73
764.381	1679.68
764.564	1724.73
764.748	1628.48
764.931	1724.73
765.114	1634.62
765.297	1734.97
765.481	1597.76
765.664	1626.43
765.847	1544.51
766.03	1560.89
766.213	1597.76
766.397	1583.42
766.58	1575.23
766.763	1665.34
766.946	1581.37
767.129	1538.37
767.312	1552.7
767.495	1503.55
767.678	1542.46
767.861	1634.62
768.044	1468.73
768.227	1558.85
768.41	1460.54
768.593	1577.28
768.776	1501.5
768.959	1528.13
769.142	1438.02
769.324	1487.17
769.507	1423.68
769.69	1470.78
769.873	1384.77
770.056	1470.78
770.239	1384.77
770.421	1452.35
770.604	1481.02
770.787	1413.44
770.97	1448.26
771.152	1331.52
771.335	1429.82
771.518	1405.25
771.7	1372.48
771.883	1292.61
772.066	1325.38
772.248	1364.29
772.431	1345.86
772.613	1298.75
772.796	1417.54
772.978	1311.04
773.161	1323.33
773.343	1282.37
773.526	1243.46
773.708	1177.92
773.891	1188.16
774.073	1259.84
774.256	1241.41
774.438	1354.05
774.621	1327.43
774.803	1157.44
774.985	1278.27
775.168	1218.88
775.35	1175.88
775.532	1169.73
775.715	1173.83
775.897	1204.55
776.079	1141.06
776.261	1208.64
776.444	1077.57
776.626	1208.64
776.808	1128.77
776.99	1116.48
777.173	1061.19
777.355	1096
777.537	1093.96
777.719	1124.68
777.901	1128.77
778.083	999.75
778.265	1083.72
778.447	1171.78
778.629	1042.76
778.811	1050.95
778.993	1007.94
779.175	995.65
779.357	1106.24
779.539	1014.09
779.721	903.5
779.903	981.32
780.085	946.5
780.267	1014.09
780.449	944.45
780.631	993.61
780.812	1001.8
780.994	926.02
781.176	887.11
781.358	958.79
781.54	1005.89
781.721	842.06
781.903	932.17
782.085	878.92
782.267	846.15
782.448	805.19
782.63	837.96
782.812	928.07
782.993	887.11
783.175	784.71
783.357	858.44
783.538	856.39
783.72	813.38
783.901	774.47
784.083	725.32
784.264	817.48
784.446	831.82
784.627	737.61
784.809	866.63
784.99	770.38
785.172	735.56
785.353	723.27
785.535	778.57
785.716	749.9
785.897	753.99
786.079	708.94
786.26	807.24
786.441	717.13
786.623	686.41
786.804	686.41
786.985	756.04
787.167	696.65
787.348	670.03
787.529	667.98
787.71	864.58
787.891	608.59
788.073	616.78
788.254	596.3
788.435	606.54
788.616	561.48
788.797	635.21
788.978	661.84
789.159	600.4
789.34	692.55
789.522	627.02
789.703	543.05
789.884	616.78
790.065	606.54
790.246	594.25
790.427	604.49
790.607	602.44
790.788	590.16
790.969	512.33
791.15	667.98
791.331	477.52
791.512	549.2
791.693	553.29
791.874	561.48
792.054	557.39
792.235	604.49
792.416	479.57
792.597	536.91
792.778	528.72
792.958	569.68
793.139	518.48
793.32	467.28
793.5	461.13
793.681	516.43
793.862	528.72
794.042	561.48
794.223	409.94
794.404	475.47
794.584	446.8
794.765	500.05
794.945	473.42
795.126	487.76
795.306	483.66
795.487	532.81
795.667	500.05
795.848	436.56
796.028	450.89
796.209	498
796.389	502.09
796.57	440.65
796.75	416.08
796.93	426.32
797.111	500.05
797.291	366.93
797.471	463.18
797.652	411.98
797.832	405.84
798.012	463.18
798.192	393.55
798.373	495.95
798.553	411.98
798.733	418.13
798.913	364.88
799.093	377.17
799.274	407.89
799.454	411.98
799.634	358.74
799.814	364.88
799.994	442.7
800.174	362.83
800.354	356.69
800.534	432.46
800.714	409.94
800.894	356.69
801.074	391.5
801.254	301.39
801.434	387.41
801.614	321.87
801.794	346.45
801.974	1005.89
802.154	344.4
802.334	321.87
802.514	274.77
802.693	319.82
802.873	356.69
803.053	297.3
803.233	360.78
803.413	385.36
803.592	309.58
803.772	313.68
803.952	375.12
804.131	344.4
804.311	360.78
804.491	321.87
804.67	305.49
804.85	297.3
805.03	276.82
805.209	334.16
805.389	295.25
805.568	323.92
805.748	334.16
805.928	305.49
806.107	254.29
806.287	264.53
806.466	301.39
806.646	237.91
806.825	248.15
807.004	256.34
807.184	348.5
807.363	293.2
807.543	280.91
807.722	307.54
807.901	332.11
808.081	338.26
808.26	160.08
808.439	246.1
808.619	211.28
808.798	287.06
808.977	285.01
809.156	321.87
809.336	280.91
809.515	260.43
809.694	207.19
809.873	237.91
810.052	264.53
810.231	256.34
810.411	307.54
810.59	211.28
810.769	194.9
810.948	270.67
811.127	248.15
811.306	276.82
811.485	205.14
811.664	260.43
811.843	246.1
812.022	151.89
812.201	153.94
812.38	254.29
812.559	256.34
812.737	272.72
812.916	254.29
813.095	211.28
813.274	188.75
813.453	205.14
813.632	223.57
813.811	258.39
813.989	145.75
814.168	309.58
814.347	272.72
814.526	289.1
814.704	201.04
814.883	188.75
815.062	299.34
815.24	250.19
815.419	178.51
815.598	201.04
815.776	168.27
815.955	188.75
816.133	153.94
816.312	194.9
816.49	237.91
816.669	260.43
816.847	227.67
817.026	233.81
817.204	168.27
817.383	174.42
817.561	119.12
817.74	264.53
817.918	168.27
818.097	307.54
818.275	162.13
818.453	194.9
818.632	237.91
818.81	254.29
818.988	166.23
819.167	194.9
819.345	168.27
819.523	123.22
819.701	149.84
819.879	176.47
820.058	225.62
820.236	147.8
820.414	201.04
820.592	207.19
820.77	164.18
820.948	160.08
821.127	129.36
821.305	139.6
821.483	162.13
821.661	131.41
821.839	141.65
822.017	170.32
822.195	194.9
822.373	172.37
822.551	196.95
822.729	86.36
822.907	160.08
823.085	201.04
823.262	92.5
823.44	104.79
823.618	235.86
823.796	125.27
823.974	153.94
824.152	115.03
824.329	168.27
824.507	141.65
824.685	166.23
824.863	147.8
825.04	162.13
825.218	213.33
825.396	170.32
825.574	252.24
825.751	102.74
825.929	139.6
826.107	31.06
826.284	127.32
826.462	188.75
826.639	180.56
826.817	39.25
826.994	51.54
827.172	164.18
827.349	170.32
827.527	82.26
827.704	174.42
827.882	123.22
828.059	67.92
828.237	164.18
828.414	145.75
828.591	149.84
828.769	102.74
828.946	80.21
829.124	141.65
829.301	158.03
829.478	123.22
829.655	180.56
829.833	155.99
830.01	106.84
830.187	170.32
830.364	207.19
830.542	61.78
830.719	194.9
830.896	141.65
831.073	125.27
831.25	137.56
831.427	129.36
831.604	121.17
831.782	96.6
831.959	72.02
832.136	67.92
832.313	108.88
832.49	96.6
832.667	119.12
832.844	51.54
833.021	115.03
833.198	100.69
833.374	164.18
833.551	94.55
833.728	127.32
833.905	102.74
834.082	12.63
834.259	125.27
834.436	127.32
834.612	69.97
834.789	182.61
834.966	112.98
835.143	92.5
835.319	37.2
835.496	92.5
835.673	86.36
835.85	59.73
836.026	33.11
836.203	119.12
836.38	65.88
836.556	45.4
836.733	43.35
836.909	143.7
837.086	22.87
837.262	90.45
837.439	53.59
837.616	94.55
837.792	31.06
837.968	106.84
838.145	26.96
838.321	67.92
838.498	84.31
838.674	76.12
838.851	135.51
839.027	43.35
839.203	16.73
839.38	158.03
839.556	-20.14
839.732	151.89
839.909	102.74
840.085	160.08
840.261	78.16
840.437	123.22
840.614	129.36
840.79	76.12
840.966	65.88
841.142	121.17
841.318	110.93
841.494	31.06
841.671	86.36
841.847	88.4
842.023	33.11
842.199	49.49
842.375	110.93
842.551	45.4
842.727	100.69
842.903	82.26
843.079	26.96
843.255	162.13
843.431	139.6
843.607	125.27
843.783	12.63
843.959	76.12
844.134	65.88
844.31	162.13
844.486	55.64
844.662	92.5
844.838	84.31
845.013	69.97
845.189	123.22
845.365	82.26
845.541	67.92
845.716	63.83
845.892	172.37
846.068	-30.38
846.244	41.3
846.419	84.31
846.595	-71.34
846.77	76.12
846.946	102.74
847.122	98.64
847.297	0.34
847.473	84.31
847.648	22.87
847.824	102.74
847.999	31.06
848.175	47.44
848.35	37.2
848.526	29.01
848.701	8.53
848.876	186.71
849.052	147.8
849.227	10.58
849.403	98.64
849.578	57.68
849.753	20.82
849.929	55.64
850.104	-22.19
850.279	-11.95
850.454	84.31
850.63	104.79
850.805	94.55
850.98	86.36
851.155	-3.75
851.33	96.6
851.505	-57
851.681	35.16
851.856	8.53
852.031	16.73
852.206	-26.28
852.381	43.35
852.556	41.3
852.731	12.63
852.906	115.03
853.081	49.49
853.256	55.64
853.431	26.96
853.606	-30.38
853.781	37.2
853.956	-11.95
854.131	39.25
854.305	39.25
854.48	37.2
854.655	37.2
854.83	82.26
855.005	47.44
855.18	20.82
855.354	80.21
855.529	90.45
855.704	59.73
855.879	-67.24
856.053	41.3
856.228	63.83
856.403	-28.33
856.577	26.96
856.752	8.53
856.926	35.16
857.101	8.53
857.276	-18.09
857.45	8.53
857.625	-22.19
857.799	-9.9
857.974	37.2
858.148	-1.71
858.323	-20.14
858.497	53.59
858.672	43.35
858.846	-65.19
859.02	29.01
859.195	-32.43
859.369	104.79
859.543	-9.9
859.718	2.39
859.892	20.82
860.066	-26.28
860.241	2.39
860.415	18.77
860.589	0.34
860.763	-67.24
860.938	14.68
861.112	110.93
861.286	6.49
861.46	37.2
861.634	-3.75
861.808	98.64
861.982	63.83
862.157	4.44
862.331	4.44
862.505	-61.1
862.679	-30.38
862.853	10.58
863.027	-20.14
863.201	-28.33
863.375	-24.23
863.549	47.44
863.722	12.63
863.896	2.39
864.07	26.96
864.244	33.11
864.418	2.39
864.592	63.83
864.766	39.25
864.939	33.11
865.113	8.53
865.287	88.4
865.461	-38.57
865.634	-32.43
865.808	33.11
865.982	-50.86
866.156	51.54
866.329	-54.95
866.503	84.31
866.676	10.58
866.85	14.68
867.024	10.58
867.197	22.87
867.371	-32.43
867.544	35.16
867.718	98.64
867.891	-48.81
868.065	-13.99
868.238	39.25
868.412	47.44
868.585	12.63
868.759	-1.71
868.932	69.97
869.105	-32.43
869.279	18.77
869.452	-20.14
869.625	14.68
869.799	26.96
869.972	-81.58
870.145	26.96
870.319	-13.99
870.492	24.92
870.665	-18.09
870.838	-36.52
871.011	-71.34
871.185	35.16
871.358	-112.3
871.531	-48.81
871.704	-11.95
871.877	0.34
872.05	76.12
872.223	2.39
872.396	37.2
872.569	-13.99
872.742	-22.19
872.915	61.78
873.088	-22.19
873.261	16.73
873.434	-38.57
873.607	-16.04
873.78	78.16
873.953	-9.9
874.126	20.82
874.299	33.11
874.471	0.34
874.644	-28.33
874.817	-11.95
874.99	43.35
875.163	6.49
875.335	-9.9
875.508	-42.67
875.681	-18.09
875.853	14.68
876.026	12.63
876.199	22.87
876.371	24.92
876.544	-44.71
876.717	24.92
876.889	-11.95
877.062	55.64
877.234	12.63
877.407	-34.47
877.579	-24.23
877.752	18.77
877.924	43.35
878.097	8.53
878.269	-16.04
878.442	-16.04
878.614	26.96
878.786	-5.8
878.959	-20.14
879.131	35.16
879.303	-20.14
879.476	51.54
879.648	104.79
879.82	0.34
879.993	-28.33
880.165	-5.8
880.337	-42.67
880.509	-77.48
880.681	-61.1
880.854	24.92
881.026	29.01
881.198	53.59
881.37	20.82
881.542	10.58
881.714	78.16
881.886	4.44
882.058	-34.47
882.23	20.82
882.402	-50.86
882.574	61.78
882.746	-30.38
882.918	80.21
883.09	0.34
883.262	-7.85
883.434	35.16
883.606	-79.53
883.778	35.16
883.95	4.44
884.122	-63.15
884.293	24.92
884.465	-79.53
884.637	-36.52
884.809	10.58
884.98	-16.04
885.152	6.49
885.324	43.35
885.496	8.53
885.667	-52.91
885.839	16.73
886.011	29.01
886.182	-52.91
886.354	-11.95
886.525	4.44
886.697	-22.19
886.869	-26.28
887.04	57.68
887.212	16.73
887.383	20.82
887.555	8.53
887.726	-42.67
887.897	41.3
888.069	-11.95
888.24	-22.19
888.412	29.01
888.583	35.16
888.754	-36.52
888.926	16.73
889.097	94.55
889.268	-65.19
889.44	0.34
889.611	-57
889.782	-5.8
889.953	-38.57
890.125	35.16
890.296	-50.86
890.467	-18.09
890.638	-20.14
890.809	-93.87
890.98	-59.05
891.151	16.73
891.323	67.92
891.494	45.4
891.665	16.73
891.836	-1.71
892.007	-20.14
892.178	12.63
892.349	57.68
892.52	20.82
892.691	-11.95
892.862	-57
893.032	-18.09
893.203	92.5
893.374	49.49
893.545	31.06
893.716	-52.91
893.887	12.63
894.057	2.39
894.228	-30.38
894.399	4.44
894.57	24.92
894.74	37.2
894.911	24.92
895.082	-61.1
895.253	-28.33
895.423	-1.71
895.594	41.3
895.764	2.39
895.935	47.44
896.106	6.49
896.276	31.06
896.447	-7.85
896.617	-63.15
896.788	-11.95
896.958	10.58
897.129	-36.52
897.299	-40.62
897.47	-7.85
897.64	49.49
897.81	-28.33
897.981	-9.9
898.151	-1.71
898.322	-57
898.492	69.97
898.662	-22.19
898.832	-44.71
899.003	-11.95
899.173	-50.86
899.343	-26.28
899.513	-11.95
