Data from USB4F104151__93__12-42-50-324.txt Node

Date: Fri Mar 14 12:42:50 EDT 2025
User: louis
Spectrometer: USB4F10415
Trigger mode: 4
Integration Time (sec): 3.000000E-2
Scans to average: 1
Electric dark correction enabled: true
Nonlinearity correction enabled: false
Boxcar width: 0
XAxis mode: Wavelengths
Number of Pixels in Spectrum: 3648
>>>>>Begin Spectral Data<<<<<
178.204	-149.16
178.424	-149.16
178.644	-149.16
178.864	-136.87
179.084	-143.02
179.304	6.49
179.524	0.34
179.744	-38.57
179.964	22.87
180.184	-50.86
180.404	43.35
180.624	-30.38
180.844	14.68
181.064	-38.57
181.283	26.96
181.503	8.53
181.723	35.16
181.943	-20.14
182.163	88.4
182.383	74.07
182.602	-9.9
182.822	63.83
183.042	26.96
183.262	-3.75
183.482	22.87
183.701	24.92
183.921	-40.62
184.141	-3.75
184.361	57.68
184.58	6.49
184.8	12.63
185.02	4.44
185.239	90.45
185.459	53.59
185.679	16.73
185.898	-20.14
186.118	-1.71
186.338	49.49
186.557	33.11
186.777	-34.47
186.997	31.06
187.216	37.2
187.436	125.27
187.655	35.16
187.875	53.59
188.095	-3.75
188.314	115.03
188.534	76.12
188.753	-24.23
188.973	18.77
189.192	47.44
189.412	24.92
189.631	12.63
189.851	16.73
190.07	37.2
190.29	-38.57
190.509	29.01
190.729	18.77
190.948	108.88
191.168	170.32
191.387	49.49
191.607	-44.71
191.826	-5.8
192.045	4.44
192.265	51.54
192.484	-44.71
192.704	24.92
192.923	-32.43
193.142	98.64
193.362	45.4
193.581	63.83
193.8	74.07
194.02	10.58
194.239	2.39
194.458	39.25
194.678	29.01
194.897	-50.86
195.116	-1.71
195.335	98.64
195.555	35.16
195.774	-24.23
195.993	20.82
196.212	90.45
196.432	-7.85
196.651	-1.71
196.87	8.53
197.089	82.26
197.308	49.49
197.528	59.73
197.747	-9.9
197.966	22.87
198.185	55.64
198.404	-83.63
198.623	37.2
198.842	92.5
199.062	14.68
199.281	47.44
199.5	-16.04
199.719	26.96
199.938	65.88
200.157	47.44
200.376	67.92
200.595	33.11
200.814	-22.19
201.033	-28.33
201.252	86.36
201.471	0.34
201.69	-48.81
201.909	-32.43
202.128	10.58
202.347	-30.38
202.566	55.64
202.785	18.77
203.004	22.87
203.223	106.84
203.442	47.44
203.661	-34.47
203.879	29.01
204.098	-7.85
204.317	6.49
204.536	49.49
204.755	4.44
204.974	-9.9
205.193	-40.62
205.411	53.59
205.63	45.4
205.849	-38.57
206.068	-26.28
206.287	61.78
206.505	47.44
206.724	-71.34
206.943	35.16
207.162	16.73
207.381	22.87
207.599	-24.23
207.818	-65.19
208.037	-5.8
208.255	22.87
208.474	39.25
208.693	-22.19
208.911	35.16
209.13	26.96
209.349	20.82
209.567	-18.09
209.786	12.63
210.005	22.87
210.223	51.54
210.442	18.77
210.661	35.16
210.879	59.73
211.098	37.2
211.316	-65.19
211.535	31.06
211.753	-52.91
211.972	98.64
212.191	-36.52
212.409	-11.95
212.628	18.77
212.846	41.3
213.065	37.2
213.283	6.49
213.502	10.58
213.72	69.97
213.938	12.63
214.157	39.25
214.375	31.06
214.594	-24.23
214.812	80.21
215.031	-11.95
215.249	65.88
215.467	33.11
215.686	33.11
215.904	82.26
216.122	-26.28
216.341	92.5
216.559	20.82
216.778	14.68
216.996	88.4
217.214	57.68
217.432	35.16
217.651	-18.09
217.869	51.54
218.087	33.11
218.306	29.01
218.524	24.92
218.742	-1.71
218.96	80.21
219.179	61.78
219.397	16.73
219.615	106.84
219.833	76.12
220.051	51.54
220.27	-9.9
220.488	131.41
220.706	98.64
220.924	-42.67
221.142	12.63
221.36	94.55
221.578	41.3
221.796	35.16
222.015	86.36
222.233	22.87
222.451	110.93
222.669	-26.28
222.887	39.25
223.105	22.87
223.323	-22.19
223.541	45.4
223.759	6.49
223.977	-44.71
224.195	8.53
224.413	49.49
224.631	84.31
224.849	-7.85
225.067	121.17
225.285	72.02
225.503	35.16
225.721	-48.81
225.939	10.58
226.157	-3.75
226.375	139.6
226.592	-24.23
226.81	37.2
227.028	59.73
227.246	84.31
227.464	43.35
227.682	41.3
227.9	-1.71
228.117	-3.75
228.335	2.39
228.553	-1.71
228.771	53.59
228.989	98.64
229.206	41.3
229.424	59.73
229.642	12.63
229.86	33.11
230.077	98.64
230.295	51.54
230.513	92.5
230.731	-42.67
230.948	61.78
231.166	22.87
231.384	-16.04
231.601	24.92
231.819	90.45
232.037	43.35
232.254	39.25
232.472	72.02
232.689	12.63
232.907	24.92
233.125	-28.33
233.342	-11.95
233.56	-18.09
233.777	10.58
233.995	24.92
234.213	69.97
234.43	10.58
234.648	69.97
234.865	10.58
235.083	-26.28
235.3	41.3
235.518	61.78
235.735	127.32
235.953	80.21
236.17	-5.8
236.388	-28.33
236.605	78.16
236.822	24.92
237.04	39.25
237.257	33.11
237.475	29.01
237.692	47.44
237.909	26.96
238.127	6.49
238.344	-3.75
238.562	-9.9
238.779	-63.15
238.996	2.39
239.214	61.78
239.431	31.06
239.648	-42.67
239.865	-7.85
240.083	29.01
240.3	-75.43
240.517	-24.23
240.735	18.77
240.952	65.88
241.169	43.35
241.386	39.25
241.603	18.77
241.821	26.96
242.038	10.58
242.255	59.73
242.472	26.96
242.689	0.34
242.907	88.4
243.124	29.01
243.341	-30.38
243.558	37.2
243.775	-18.09
243.992	-67.24
244.209	-20.14
244.426	123.22
244.643	22.87
244.86	16.73
245.078	92.5
245.295	117.08
245.512	59.73
245.729	37.2
245.946	47.44
246.163	57.68
246.38	72.02
246.597	-40.62
246.814	53.59
247.031	67.92
247.248	-20.14
247.464	55.64
247.681	110.93
247.898	12.63
248.115	86.36
248.332	-7.85
248.549	2.39
248.766	47.44
248.983	26.96
249.2	69.97
249.417	82.26
249.633	10.58
249.85	24.92
250.067	45.4
250.284	-11.95
250.501	69.97
250.717	8.53
250.934	-1.71
251.151	41.3
251.368	2.39
251.585	41.3
251.801	39.25
252.018	-16.04
252.235	78.16
252.451	37.2
252.668	31.06
252.885	41.3
253.102	2.39
253.318	33.11
253.535	29.01
253.752	16.73
253.968	26.96
254.185	37.2
254.401	57.68
254.618	24.92
254.835	-52.91
255.051	43.35
255.268	35.16
255.484	22.87
255.701	115.03
255.917	61.78
256.134	-34.47
256.351	63.83
256.567	45.4
256.784	86.36
257	-57
257.217	31.06
257.433	57.68
257.65	102.74
257.866	26.96
258.082	14.68
258.299	12.63
258.515	61.78
258.732	-16.04
258.948	6.49
259.165	-36.52
259.381	-5.8
259.597	39.25
259.814	33.11
260.03	31.06
260.246	16.73
260.463	14.68
260.679	33.11
260.895	-1.71
261.112	33.11
261.328	2.39
261.544	-42.67
261.761	51.54
261.977	39.25
262.193	-28.33
262.409	26.96
262.626	18.77
262.842	88.4
263.058	-34.47
263.274	65.88
263.49	-32.43
263.707	31.06
263.923	-20.14
264.139	-16.04
264.355	37.2
264.571	84.31
264.787	0.34
265.004	55.64
265.22	4.44
265.436	41.3
265.652	-22.19
265.868	39.25
266.084	-85.67
266.3	16.73
266.516	2.39
266.732	18.77
266.948	88.4
267.164	29.01
267.38	69.97
267.596	53.59
267.812	18.77
268.028	14.68
268.244	12.63
268.46	63.83
268.676	47.44
268.892	-7.85
269.108	41.3
269.324	-3.75
269.54	-40.62
269.756	78.16
269.972	-18.09
270.188	22.87
270.403	-44.71
270.619	-28.33
270.835	55.64
271.051	24.92
271.267	-7.85
271.483	10.58
271.698	119.12
271.914	76.12
272.13	26.96
272.346	39.25
272.562	-3.75
272.777	-34.47
272.993	-54.95
273.209	16.73
273.425	86.36
273.64	31.06
273.856	33.11
274.072	63.83
274.287	74.07
274.503	61.78
274.719	14.68
274.934	-13.99
275.15	-40.62
275.366	59.73
275.581	-9.9
275.797	-30.38
276.012	82.26
276.228	69.97
276.444	12.63
276.659	43.35
276.875	8.53
277.09	61.78
277.306	4.44
277.521	49.49
277.737	0.34
277.952	6.49
278.168	16.73
278.383	4.44
278.599	-34.47
278.814	82.26
279.03	-63.15
279.245	92.5
279.461	47.44
279.676	63.83
279.892	16.73
280.107	22.87
280.322	22.87
280.538	0.34
280.753	-18.09
280.969	69.97
281.184	-16.04
281.399	158.03
281.615	-1.71
281.83	80.21
282.045	31.06
282.26	26.96
282.476	59.73
282.691	35.16
282.906	29.01
283.122	0.34
283.337	-44.71
283.552	55.64
283.767	6.49
283.983	4.44
284.198	26.96
284.413	16.73
284.628	-11.95
284.843	33.11
285.058	6.49
285.274	16.73
285.489	31.06
285.704	47.44
285.919	29.01
286.134	26.96
286.349	45.4
286.564	-28.33
286.779	115.03
286.995	-22.19
287.21	26.96
287.425	33.11
287.64	-13.99
287.855	-11.95
288.07	47.44
288.285	96.6
288.5	74.07
288.715	26.96
288.93	-36.52
289.145	78.16
289.36	76.12
289.575	76.12
289.79	4.44
290.004	39.25
290.219	57.68
290.434	10.58
290.649	18.77
290.864	-22.19
291.079	6.49
291.294	18.77
291.509	2.39
291.724	82.26
291.938	90.45
292.153	-20.14
292.368	-20.14
292.583	8.53
292.798	88.4
293.012	47.44
293.227	72.02
293.442	-7.85
293.657	-32.43
293.871	153.94
294.086	41.3
294.301	-28.33
294.516	37.2
294.73	-1.71
294.945	35.16
295.16	-22.19
295.374	94.55
295.589	53.59
295.804	18.77
296.018	29.01
296.233	59.73
296.447	135.51
296.662	-11.95
296.877	49.49
297.091	86.36
297.306	24.92
297.52	63.83
297.735	41.3
297.949	-9.9
298.164	-46.76
298.378	22.87
298.593	31.06
298.807	49.49
299.022	49.49
299.236	65.88
299.451	84.31
299.665	41.3
299.88	-44.71
300.094	-26.28
300.309	51.54
300.523	26.96
300.737	8.53
300.952	-18.09
301.166	-20.14
301.381	20.82
301.595	37.2
301.809	-18.09
302.024	67.92
302.238	22.87
302.452	63.83
302.667	-18.09
302.881	63.83
303.095	31.06
303.309	-36.52
303.524	43.35
303.738	49.49
303.952	-71.34
304.166	49.49
304.381	-11.95
304.595	86.36
304.809	24.92
305.023	6.49
305.237	41.3
305.452	8.53
305.666	149.84
305.88	22.87
306.094	-24.23
306.308	16.73
306.522	65.88
306.736	-3.75
306.95	-26.28
307.164	-5.8
307.379	24.92
307.593	106.84
307.807	14.68
308.021	16.73
308.235	2.39
308.449	24.92
308.663	14.68
308.877	131.41
309.091	47.44
309.305	-5.8
309.519	6.49
309.733	55.64
309.947	-13.99
310.161	67.92
310.374	33.11
310.588	8.53
310.802	37.2
311.016	-9.9
311.23	31.06
311.444	76.12
311.658	14.68
311.872	80.21
312.085	88.4
312.299	61.78
312.513	129.36
312.727	92.5
312.941	37.2
313.154	31.06
313.368	20.82
313.582	35.16
313.796	8.53
314.009	20.82
314.223	69.97
314.437	12.63
314.651	12.63
314.864	-30.38
315.078	41.3
315.292	37.2
315.505	39.25
315.719	41.3
315.933	0.34
316.146	0.34
316.36	106.84
316.573	90.45
316.787	78.16
317.001	88.4
317.214	24.92
317.428	41.3
317.641	-22.19
317.855	80.21
318.068	22.87
318.282	18.77
318.495	115.03
318.709	22.87
318.922	47.44
319.136	168.27
319.349	-26.28
319.563	0.34
319.776	29.01
319.99	2.39
320.203	119.12
320.417	121.17
320.63	35.16
320.843	127.32
321.057	98.64
321.27	2.39
321.483	100.69
321.697	63.83
321.91	16.73
322.124	67.92
322.337	45.4
322.55	22.87
322.763	29.01
322.977	47.44
323.19	59.73
323.403	20.82
323.617	108.88
323.83	47.44
324.043	-22.19
324.256	88.4
324.469	10.58
324.683	162.13
324.896	98.64
325.109	18.77
325.322	-44.71
325.535	18.77
325.748	96.6
325.962	-32.43
326.175	8.53
326.388	6.49
326.601	-24.23
326.814	51.54
327.027	33.11
327.24	86.36
327.453	-34.47
327.666	61.78
327.879	84.31
328.092	65.88
328.305	-32.43
328.518	26.96
328.731	51.54
328.944	29.01
329.157	55.64
329.37	33.11
329.583	49.49
329.796	72.02
330.009	-9.9
330.222	-1.71
330.435	39.25
330.648	117.08
330.861	2.39
331.073	35.16
331.286	24.92
331.499	67.92
331.712	53.59
331.925	51.54
332.138	49.49
332.35	22.87
332.563	10.58
332.776	57.68
332.989	-11.95
333.202	53.59
333.414	53.59
333.627	78.16
333.84	69.97
334.053	10.58
334.265	31.06
334.478	72.02
334.691	16.73
334.903	86.36
335.116	24.92
335.329	72.02
335.541	18.77
335.754	72.02
335.966	12.63
336.179	39.25
336.392	10.58
336.604	-18.09
336.817	12.63
337.029	26.96
337.242	12.63
337.454	10.58
337.667	106.84
337.88	98.64
338.092	37.2
338.305	47.44
338.517	0.34
338.729	51.54
338.942	94.55
339.154	86.36
339.367	-36.52
339.579	98.64
339.792	41.3
340.004	137.56
340.217	53.59
340.429	-3.75
340.641	-30.38
340.854	55.64
341.066	100.69
341.278	80.21
341.491	63.83
341.703	35.16
341.915	8.53
342.128	59.73
342.34	4.44
342.552	14.68
342.764	39.25
342.977	2.39
343.189	14.68
343.401	47.44
343.613	55.64
343.826	55.64
344.038	53.59
344.25	106.84
344.462	67.92
344.674	20.82
344.886	26.96
345.099	49.49
345.311	14.68
345.523	-5.8
345.735	-3.75
345.947	78.16
346.159	39.25
346.371	57.68
346.583	22.87
346.795	108.88
347.007	96.6
347.219	16.73
347.431	63.83
347.643	96.6
347.855	51.54
348.067	51.54
348.279	31.06
348.491	24.92
348.703	59.73
348.915	-18.09
349.127	-7.85
349.339	90.45
349.551	-7.85
349.763	69.97
349.975	57.68
350.187	121.17
350.399	61.78
350.61	61.78
350.822	26.96
351.034	92.5
351.246	61.78
351.458	90.45
351.669	-1.71
351.881	94.55
352.093	55.64
352.305	88.4
352.517	55.64
352.728	16.73
352.94	20.82
353.152	90.45
353.363	61.78
353.575	96.6
353.787	24.92
353.999	115.03
354.21	63.83
354.422	55.64
354.633	-20.14
354.845	104.79
355.057	0.34
355.268	112.98
355.48	53.59
355.692	47.44
355.903	102.74
356.115	-5.8
356.326	-36.52
356.538	24.92
356.749	59.73
356.961	69.97
357.172	37.2
357.384	43.35
357.595	141.65
357.807	-18.09
358.018	69.97
358.23	-5.8
358.441	125.27
358.653	90.45
358.864	80.21
359.075	24.92
359.287	61.78
359.498	129.36
359.709	125.27
359.921	57.68
360.132	39.25
360.344	41.3
360.555	59.73
360.766	63.83
360.977	12.63
361.189	100.69
361.4	96.6
361.611	16.73
361.823	119.12
362.034	57.68
362.245	-1.71
362.456	47.44
362.667	4.44
362.879	74.07
363.09	92.5
363.301	92.5
363.512	80.21
363.723	-9.9
363.935	33.11
364.146	51.54
364.357	88.4
364.568	88.4
364.779	-75.43
364.99	106.84
365.201	20.82
365.412	139.6
365.623	16.73
365.834	45.4
366.045	98.64
366.256	22.87
366.467	78.16
366.678	78.16
366.889	22.87
367.1	80.21
367.311	76.12
367.522	59.73
367.733	86.36
367.944	72.02
368.155	88.4
368.366	39.25
368.577	49.49
368.788	125.27
368.999	-52.91
369.209	16.73
369.42	104.79
369.631	160.08
369.842	26.96
370.053	110.93
370.264	-1.71
370.474	22.87
370.685	14.68
370.896	-30.38
371.107	67.92
371.317	117.08
371.528	45.4
371.739	102.74
371.95	94.55
372.16	63.83
372.371	-28.33
372.582	-24.23
372.792	51.54
373.003	53.59
373.214	37.2
373.424	80.21
373.635	45.4
373.846	98.64
374.056	6.49
374.267	-11.95
374.477	78.16
374.688	-1.71
374.898	96.6
375.109	69.97
375.319	24.92
375.53	65.88
375.74	-3.75
375.951	-50.86
376.161	10.58
376.372	90.45
376.582	94.55
376.793	20.82
377.003	-26.28
377.214	22.87
377.424	88.4
377.635	72.02
377.845	57.68
378.055	88.4
378.266	133.46
378.476	127.32
378.686	63.83
378.897	108.88
379.107	76.12
379.317	65.88
379.528	100.69
379.738	88.4
379.948	26.96
380.158	84.31
380.369	76.12
380.579	100.69
380.789	94.55
380.999	55.64
381.21	131.41
381.42	98.64
381.63	37.2
381.84	18.77
382.05	72.02
382.261	90.45
382.471	51.54
382.681	39.25
382.891	117.08
383.101	112.98
383.311	117.08
383.521	106.84
383.731	96.6
383.941	125.27
384.151	63.83
384.361	61.78
384.571	110.93
384.781	65.88
384.991	63.83
385.201	143.7
385.411	108.88
385.621	115.03
385.831	90.45
386.041	29.01
386.251	119.12
386.461	151.89
386.671	78.16
386.881	84.31
387.091	24.92
387.301	82.26
387.511	49.49
387.72	104.79
387.93	119.12
388.14	72.02
388.35	72.02
388.56	121.17
388.769	166.23
388.979	102.74
389.189	57.68
389.399	37.2
389.609	74.07
389.818	82.26
390.028	108.88
390.238	135.51
390.447	104.79
390.657	88.4
390.867	33.11
391.076	65.88
391.286	168.27
391.496	119.12
391.705	74.07
391.915	104.79
392.125	61.78
392.334	59.73
392.544	172.37
392.753	55.64
392.963	119.12
393.172	72.02
393.382	55.64
393.591	117.08
393.801	104.79
394.01	123.22
394.22	110.93
394.429	84.31
394.639	108.88
394.848	145.75
395.058	147.8
395.267	90.45
395.477	141.65
395.686	90.45
395.895	170.32
396.105	168.27
396.314	121.17
396.524	145.75
396.733	184.66
396.942	176.47
397.152	139.6
397.361	108.88
397.57	133.46
397.78	129.36
397.989	112.98
398.198	174.42
398.407	153.94
398.617	86.36
398.826	164.18
399.035	92.5
399.244	76.12
399.453	147.8
399.663	133.46
399.872	149.84
400.081	119.12
400.29	194.9
400.499	72.02
400.708	178.51
400.917	115.03
401.127	123.22
401.336	100.69
401.545	252.24
401.754	158.03
401.963	182.61
402.172	106.84
402.381	158.03
402.59	205.14
402.799	127.32
403.008	205.14
403.217	186.71
403.426	168.27
403.635	145.75
403.844	178.51
404.053	287.06
404.262	184.66
404.471	285.01
404.68	229.71
404.888	233.81
405.097	242
405.306	201.04
405.515	305.49
405.724	227.67
405.933	196.95
406.142	307.54
406.35	180.56
406.559	272.72
406.768	244.05
406.977	356.69
407.185	291.15
407.394	256.34
407.603	289.1
407.812	348.5
408.02	407.89
408.229	348.5
408.438	397.65
408.646	305.49
408.855	399.7
409.064	444.75
409.272	338.26
409.481	397.65
409.69	485.71
409.898	475.47
410.107	479.57
410.315	565.58
410.524	524.62
410.733	508.24
410.941	584.01
411.15	510.29
411.358	551.24
411.567	639.31
411.775	602.44
411.984	657.74
412.192	667.98
412.401	690.51
412.609	747.85
412.818	801.1
413.026	786.76
413.234	778.57
413.443	821.58
413.651	801.1
413.86	901.45
414.068	942.41
414.276	987.46
414.485	997.7
414.693	1026.37
414.901	1124.68
415.11	1065.29
415.318	1196.36
415.526	1108.29
415.734	1241.41
415.943	1270.08
416.151	1163.59
416.359	1358.14
416.567	1329.47
416.776	1352
416.984	1540.41
417.192	1618.24
417.4	1550.65
417.608	1648.96
417.817	1759.55
418.025	1741.11
418.233	1886.52
418.441	1724.73
418.649	1888.57
418.857	2064.69
419.065	2216.24
419.273	2111.8
419.481	2224.44
419.689	2175.28
419.897	2476.34
420.105	2509.1
420.313	2423.09
420.521	2623.79
420.729	2697.52
420.937	2767.15
421.145	2857.26
421.353	3088.68
421.561	3057.96
421.769	3213.6
421.977	3369.25
422.185	3359.01
422.393	3602.72
422.601	3594.53
422.809	3680.54
423.017	3748.12
423.224	3903.77
423.432	3995.93
423.64	4276.5
423.848	4436.24
424.056	4299.03
424.263	4698.38
424.471	4657.42
424.679	4739.34
424.887	5075.21
425.094	5118.22
425.302	5183.75
425.51	5548.29
425.718	5507.33
425.925	5671.17
426.133	5847.29
426.341	6144.25
426.548	6582.51
426.756	6342.9
426.964	6635.76
427.171	6846.7
427.379	7049.45
427.586	7213.29
427.794	7481.57
428.001	7878.88
428.209	8161.5
428.417	8059.1
428.624	8487.12
428.832	8716.5
429.039	8677.58
429.247	8480.98
429.454	9437.38
429.662	10186.94
429.869	9410.76
430.076	10072.25
430.284	9740.48
430.491	10059.96
430.699	10524.85
430.906	10545.33
431.114	10762.42
431.321	11180.2
431.528	11514.02
431.736	12202.14
431.943	12857.49
432.15	12472.47
432.358	12427.42
432.565	13164.68
432.772	13082.77
432.979	13949.06
433.187	14071.93
433.394	14493.82
433.601	15030.38
433.808	15087.73
434.016	15071.34
434.223	15771.75
434.43	16719.96
434.637	16412.76
434.844	17449.04
435.052	17690.7
435.259	17664.07
435.466	17705.03
435.673	17535.05
435.88	19021.88
436.087	19763.24
436.294	19755.05
436.501	19202.1
436.708	19816.49
436.915	20488.22
437.122	21121.04
437.329	21026.84
437.537	21911.56
437.743	22372.35
437.95	22126.6
438.157	23367.66
438.364	24178.66
438.571	23791.59
438.778	24279.01
438.985	26275.78
439.192	25343.95
439.399	26113.99
439.606	25655.25
439.813	27260.85
440.02	28692.38
440.227	28272.55
440.433	27733.93
440.64	28669.86
440.847	28622.75
441.054	29396.88
441.261	31209.34
441.467	30412.68
441.674	31661.94
441.881	32763.75
442.088	32812.9
442.294	32382.82
442.501	33027.93
442.708	33816.4
442.914	35112.77
443.121	36233
443.328	35473.21
443.534	38303.5
443.741	37023.52
443.948	36636.45
444.154	38897.41
444.361	39081.73
444.568	39214.85
444.774	38958.85
444.981	39653.11
445.187	40849.13
445.394	42141.39
445.6	41934.55
445.807	46175.89
446.013	43665.08
446.22	44656.3
446.426	46472.85
446.633	46864.01
446.839	48510.58
447.046	46392.98
447.252	49000.04
447.459	48821.87
447.665	48596.59
447.871	51062.35
448.078	53048.88
448.284	50501.2
448.491	51674.69
448.697	53405.22
448.903	54916.62
449.11	54892.05
449.316	54033.95
449.522	54670.87
449.728	56208.89
449.935	56669.68
450.141	56722.93
450.347	57943.52
450.553	56116.73
450.76	56710.64
450.966	58303.96
451.172	57802.21
451.378	59143.63
451.584	58207.71
451.791	59610.57
451.997	59053.52
452.203	60235.2
452.409	60609.98
452.615	60188.09
452.821	58054.11
453.027	57912.8
453.233	60069.31
453.44	58381.79
453.646	58846.68
453.852	58916.31
454.058	60050.88
454.264	58269.15
454.47	59227.6
454.676	57701.86
454.882	60065.22
455.088	55227.91
455.294	55752.19
455.5	56342.01
455.705	57042.41
455.911	55014.93
456.117	53904.93
456.323	53341.74
456.529	50380.37
456.735	52430.39
456.941	51734.08
457.147	50390.61
457.352	49354.34
457.558	48950.89
457.764	48635.5
457.97	47611.52
458.176	47052.42
458.381	46466.7
458.587	44635.82
458.793	44609.2
458.999	42407.63
459.204	45354.66
459.41	43996.85
459.616	41174.75
459.821	41514.72
460.027	41242.34
460.233	40394.48
460.438	38672.14
460.644	38823.68
460.85	37277.47
461.055	36497.19
461.261	36419.37
461.466	33808.21
461.672	32655.2
461.878	34602.82
462.083	32733.03
462.289	31967.09
462.494	31874.93
462.7	30275.46
462.905	29640.59
463.111	30709.63
463.316	30740.35
463.522	30107.53
463.727	30050.19
463.932	29941.64
464.138	29798.29
464.343	29855.63
464.549	28979.1
464.754	29843.34
464.959	29487
465.165	29517.71
465.37	28182.44
465.575	27563.95
465.781	28860.32
465.986	28739.49
466.191	27805.61
466.397	27490.23
466.602	25933.77
466.807	26759.1
467.012	26914.75
467.218	26585.02
467.423	26441.67
467.628	26507.2
467.833	27746.22
468.038	26724.29
468.244	25853.9
468.449	27258.81
468.654	26216.39
468.859	26197.96
469.064	25444.31
469.269	24700.89
469.474	24850.39
469.679	25282.52
469.885	24750.04
470.09	25024.47
470.295	24778.72
470.5	24315.87
470.705	24639.45
470.91	24029.16
471.115	23730.16
471.32	24049.64
471.525	23697.39
471.73	23328.75
471.935	23457.78
472.139	22458.37
472.344	22634.49
472.549	22530.05
472.754	22364.16
472.959	22022.15
473.164	21413.9
473.369	21334.03
473.574	21850.12
473.778	21766.15
473.983	21798.92
474.188	21057.56
474.393	20334.62
474.598	20582.43
474.802	20152.35
475.007	20097.06
475.212	20256.8
475.417	19243.06
475.621	19365.93
475.826	19509.29
476.031	19116.08
476.235	18602.04
476.44	19019.83
476.645	18780.21
476.849	19040.31
477.054	18513.98
477.259	18309.18
477.463	18065.47
477.668	17825.86
477.872	17961.03
478.077	17440.84
478.282	17186.9
478.486	17053.78
478.691	17029.2
478.895	16797.78
479.1	16810.07
479.304	16803.92
479.509	16494.68
479.713	16552.02
479.918	16445.53
480.122	16031.84
480.326	16345.18
480.531	16552.02
480.735	15990.88
480.94	15886.43
481.144	16574.55
481.348	15720.55
481.553	15833.19
481.757	15356.01
481.961	15816.8
482.166	15906.91
482.37	15835.24
482.574	15444.07
482.778	15652.97
482.983	15814.76
483.187	15777.89
483.391	15700.07
483.595	15476.84
483.8	15384.68
484.004	15607.91
484.208	15921.25
484.412	15491.18
484.616	15589.48
484.821	15667.3
485.025	15460.46
485.229	15847.52
485.433	15609.96
485.637	15562.86
485.841	15376.49
486.045	15388.78
486.249	15462.51
486.453	15235.18
486.657	15603.82
486.861	15622.25
487.065	15073.39
487.269	15638.63
487.473	15290.48
487.677	15513.7
487.881	15343.72
488.085	15569
488.289	15745.13
488.493	15364.2
488.697	15521.9
488.901	15648.87
489.105	15566.95
489.309	15636.58
489.512	15949.92
489.716	15759.46
489.92	15665.25
490.124	15601.77
490.328	15868
490.531	15665.25
490.735	16062.56
490.939	15792.23
491.143	15753.32
491.346	15831.14
491.55	15994.98
491.754	15753.32
491.958	16226.4
492.161	16171.1
492.365	16423
492.569	16234.59
492.772	16336.99
492.976	16615.51
493.18	16302.17
493.383	16586.84
493.587	16910.42
493.79	16853.08
493.994	16617.56
494.197	17078.35
494.401	17221.71
494.605	17014.87
494.808	17502.28
495.012	17573.96
495.215	17391.69
495.419	17909.83
495.622	17412.17
495.825	17944.64
496.029	17811.53
496.232	18174.02
496.436	18126.91
496.639	18577.47
496.843	18530.36
497.046	19097.65
497.249	19163.18
497.453	18970.68
497.656	19542.06
497.859	19236.91
498.063	19175.47
498.266	20041.76
498.469	19961.89
498.673	20264.99
498.876	20226.08
499.079	20690.97
499.282	20578.33
499.485	20824.09
499.689	21313.55
499.892	21315.6
500.095	21749.77
500.298	22079.49
500.501	21766.15
500.705	22577.15
500.908	22642.68
501.111	22536.19
501.314	23078.9
501.517	23261.17
501.72	23451.63
501.923	23369.71
502.126	24111.08
502.329	24451.04
502.532	24403.94
502.735	24342.5
502.938	25010.14
503.141	25327.57
503.344	25386.96
503.547	25290.71
503.75	26042.31
503.953	26216.39
504.156	26746.81
504.359	27127.74
504.562	26791.87
504.765	27609.01
504.968	27389.88
505.17	28073.9
505.373	28151.72
505.576	28702.62
505.779	28850.08
505.982	28907.42
506.185	29349.78
506.387	29525.91
506.59	29935.5
506.793	30287.75
506.996	30031.76
507.198	31197.05
507.401	30769.02
507.604	31037.31
507.807	31819.63
508.009	31799.15
508.212	32132.97
508.415	32382.82
508.617	32929.63
508.82	33040.22
509.022	33226.59
509.225	33757.01
509.428	34139.98
509.63	34477.9
509.833	34385.74
510.035	35555.13
510.238	35104.57
510.44	35514.17
510.643	35778.36
510.845	36323.12
511.048	36106.03
511.25	36654.89
511.453	36728.61
511.655	38283.02
511.858	37871.38
512.06	37709.59
512.262	38289.17
512.465	38553.35
512.667	38788.87
512.87	39446.27
513.072	39278.33
513.274	39868.15
513.477	40716.01
513.679	40933.09
513.881	41039.59
514.084	41424.61
514.286	41277.15
514.488	41893.59
514.69	42338
514.893	42999.49
515.095	42856.14
515.297	43235.01
515.499	43159.23
515.701	44181.17
515.904	44144.31
516.106	44326.58
516.308	44760.75
516.51	45565.6
516.712	45235.88
516.914	45704.86
517.116	46884.49
517.318	46612.11
517.52	46884.49
517.722	46943.88
517.925	47384.19
518.127	48131.7
518.329	48123.51
518.531	47900.28
518.733	49051.24
518.935	49004.14
519.136	49481.31
519.338	49903.2
519.54	49931.87
519.742	50607.7
519.944	50189.91
520.146	51025.48
520.348	51289.67
520.55	51506.76
520.752	51648.07
520.954	52315.7
521.155	51799.61
521.357	52852.27
521.559	53278.25
521.761	53511.72
521.963	53589.54
522.164	54537.75
522.366	53917.21
522.568	54599.19
522.77	54580.76
522.971	55162.38
523.173	55098.89
523.375	55645.7
523.576	55391.75
523.778	55275.02
523.98	56280.57
524.181	56323.58
524.383	56407.54
524.584	57226.73
524.786	56819.19
524.988	56983.02
525.189	57378.28
525.391	57959.9
525.592	58105.31
525.794	58146.27
525.995	58408.41
526.197	58131.93
526.398	58430.94
526.6	58942.93
526.801	59026.9
527.003	58688.98
527.204	59119.06
527.406	59811.27
527.607	59702.73
527.808	59817.41
528.01	58891.73
528.211	59561.42
528.412	60595.64
528.614	60153.28
528.815	60110.27
529.016	60628.41
529.218	60061.12
529.419	60665.27
529.62	60552.63
529.822	60198.33
530.023	60575.16
530.224	60597.69
530.425	60564.92
530.626	60587.45
530.828	60378.56
531.029	61269.42
531.23	60560.83
531.431	60599.74
531.632	60587.45
531.833	61302.19
532.035	61226.42
532.236	61154.74
532.437	61441.45
532.638	60923.32
532.839	61105.58
533.04	61498.79
533.241	60601.78
533.442	61595.05
533.643	61275.57
533.844	61109.68
534.045	61468.08
534.246	61310.38
534.447	61353.39
534.648	61056.43
534.849	61470.12
535.05	61109.68
535.251	61420.97
535.451	61398.44
535.652	61466.03
535.853	61324.72
536.054	61261.23
536.255	60855.73
536.456	60890.55
536.657	61846.95
536.857	61224.37
537.058	61238.7
537.259	61318.57
537.46	60974.51
537.66	61472.17
537.861	61365.68
538.062	61312.43
538.263	61171.12
538.463	61056.43
538.664	61017.52
538.865	61185.46
539.065	61341.1
539.266	60722.61
539.466	61404.59
539.667	60470.71
539.868	61435.31
540.068	60665.27
540.269	60732.85
540.469	61314.48
540.67	60761.53
540.87	61177.26
541.071	60720.57
541.271	60777.91
541.472	60806.58
541.672	60573.11
541.873	60974.51
542.073	60208.57
542.274	61396.4
542.474	60698.04
542.675	60290.49
542.875	61025.71
543.075	60759.48
543.276	60147.14
543.476	60921.27
543.676	60560.83
543.877	60870.07
544.077	60747.19
544.277	60519.87
544.478	60208.57
544.678	60734.9
544.878	60419.52
545.078	60452.28
545.279	60286.4
545.479	60001.73
545.679	60900.79
545.879	60681.66
546.079	60429.76
546.28	60165.57
546.48	59301.32
546.68	60317.12
546.88	59887.04
547.08	60151.23
547.28	60097.98
547.48	59618.76
547.68	60554.68
547.88	59833.8
548.081	60409.28
548.281	60409.28
548.481	59958.72
548.681	60413.37
548.881	60151.23
549.081	59786.69
549.28	59577.8
549.48	60405.18
549.68	59852.23
549.88	60265.92
550.08	59559.37
550.28	60157.38
550.48	59551.18
550.68	60057.02
550.88	59413.96
551.08	59991.49
551.279	59796.93
551.479	59465.16
551.679	59954.63
551.879	59997.63
552.079	60167.62
552.278	59542.98
552.478	59694.53
552.678	59536.84
552.878	59608.52
553.077	59655.62
553.277	59114.96
553.477	60069.31
553.676	59348.43
553.876	59487.69
554.076	59327.95
554.275	59340.24
554.475	58736.09
554.674	59428.3
554.874	58875.35
555.074	59137.49
555.273	59299.28
555.473	59530.7
555.672	59057.62
555.872	58805.72
556.071	58885.59
556.271	59381.2
556.47	58623.45
556.67	58312.16
556.869	58619.35
557.068	59346.38
557.268	58281.44
557.467	58832.34
557.667	58461.66
557.866	58699.22
558.065	58600.92
558.265	58385.88
558.464	58193.37
558.663	58947.03
558.863	58162.65
559.062	58594.78
559.261	58267.1
559.461	58725.85
559.66	57556.46
559.859	58111.45
560.058	58195.42
560.258	57945.57
560.457	57560.55
560.656	58152.41
560.855	57714.15
561.054	58035.68
561.253	57294.32
561.453	57857.51
561.652	58086.88
561.851	57640.42
562.05	57839.07
562.249	57087.47
562.448	57626.09
562.647	57552.36
562.846	57349.61
563.045	57830.88
563.244	56415.74
563.443	57322.99
563.642	56585.72
563.841	56954.35
564.04	56907.25
564.239	57230.83
564.438	56475.13
564.637	56546.81
564.836	57200.11
565.035	56210.94
565.234	56524.28
565.432	56536.57
565.631	56129.02
565.83	56565.24
566.029	56165.88
566.228	55739.91
566.427	55852.55
566.625	55660.04
566.824	55481.86
567.023	56354.3
567.222	55162.38
567.42	56020.48
567.619	55496.2
567.818	55809.54
568.016	55090.7
568.215	55481.86
568.414	55236.11
568.612	55893.5
568.811	55189
569.01	55070.22
569.208	54677.01
569.407	55383.56
569.605	54498.84
569.804	55289.35
570.002	54277.66
570.201	54982.16
570.4	54455.83
570.598	54343.19
570.797	53769.76
570.995	54552.08
571.193	53634.59
571.392	53982.75
571.59	53771.81
571.789	54029.85
571.987	53900.83
572.186	53814.82
572.384	53253.67
572.582	54134.3
572.781	53816.86
572.979	52839.98
573.177	53093.93
573.376	53360.17
573.574	53294.63
573.772	53124.65
573.971	52977.2
574.169	52688.43
574.367	52467.25
574.565	52672.05
574.763	52411.96
574.962	52694.58
575.16	51881.53
575.358	52284.98
575.556	51744.32
575.754	52254.26
575.952	51553.86
576.151	52104.76
576.349	51494.47
576.547	51611.2
576.745	51668.54
576.943	51293.77
577.141	51551.81
577.339	51660.35
577.537	51189.32
577.735	50994.76
577.933	51027.53
578.131	50949.71
578.329	50536.02
578.527	50837.07
578.725	50464.34
578.923	50812.49
579.121	50368.08
579.319	50261.59
579.516	50728.53
579.714	50298.45
579.912	50083.42
580.11	50189.91
580.308	50013.79
580.506	49682.02
580.704	49694.3
580.901	49954.4
581.099	49800.8
581.297	48942.7
581.495	49014.38
581.692	49534.56
581.89	48782.96
582.088	49649.25
582.285	48561.78
582.483	49002.09
582.681	48774.77
582.878	48778.86
583.076	48455.28
583.274	48813.68
583.471	48092.79
583.669	48557.68
583.866	48031.35
584.064	48477.81
584.262	47423.11
584.459	48088.7
584.657	47318.66
584.854	47906.43
585.052	47070.86
585.249	47031.94
585.447	47470.21
585.644	46605.97
585.841	47003.27
586.039	47046.28
586.236	46632.59
586.434	46577.29
586.631	46481.04
586.828	46872.2
587.026	46249.62
587.223	45971.1
587.42	46087.83
587.618	45850.27
587.815	45913.75
588.012	45538.97
588.21	45397.66
588.407	46208.66
588.604	45405.86
588.801	45352.61
588.999	44928.68
589.196	45053.61
589.393	44891.82
589.59	45069.99
589.787	44721.83
589.984	44873.38
590.182	44258.99
590.379	44680.88
590.576	43943.61
590.773	44281.52
590.97	43781.82
591.167	43910.84
591.364	43546.3
591.561	44162.74
591.758	43656.89
591.955	43292.35
592.152	43595.45
592.349	43361.98
592.546	43173.57
592.743	43501.25
592.94	42557.13
593.137	43114.18
593.334	43001.54
593.531	42270.42
593.727	42491.6
593.924	42692.3
594.121	42014.42
594.318	42338
594.515	41819.86
594.712	42026.71
594.908	41555.68
595.105	41797.34
595.302	41199.33
595.499	41490.14
595.696	41389.79
595.892	41166.56
596.089	41418.46
596.286	40994.53
596.482	41039.59
596.679	41066.21
596.876	40722.15
597.072	40558.31
597.269	40445.68
597.466	40130.29
597.662	39884.53
597.859	39972.6
598.055	40132.34
598.252	40148.72
598.448	40275.69
598.645	39466.75
598.841	39264
599.038	39894.77
599.234	39427.84
599.431	39216.89
599.627	39227.13
599.824	39339.77
600.02	38688.52
600.217	39331.58
600.413	38686.47
600.609	38723.33
600.806	38459.15
601.002	38602.5
601.198	37898
601.395	37957.39
601.591	38047.5
601.787	38262.54
601.984	37805.84
602.18	37863.19
602.376	37457.69
602.572	37492.51
602.769	37410.59
602.965	37039.9
603.161	37377.82
603.357	36953.89
603.553	36996.9
603.75	37037.86
603.946	36802.34
604.142	36736.8
604.338	36681.51
604.534	36605.73
604.73	36056.88
604.926	36194.09
605.122	36265.77
605.318	36167.47
605.514	35847.99
605.71	35970.86
605.906	35888.95
606.102	35698.48
606.298	35815.22
606.494	35456.82
606.69	35493.69
606.886	35313.47
607.082	35305.27
607.278	35364.67
607.474	35075.9
607.67	35153.72
607.866	34920.26
608.062	35292.99
608.257	34748.23
608.453	34787.14
608.649	34815.81
608.845	34455.37
609.041	34490.18
609.236	34611.01
609.432	34395.98
609.628	34221.9
609.824	34694.98
610.019	34334.54
610.215	34416.46
610.411	34170.7
610.606	34037.58
610.802	34205.52
610.998	33955.66
611.193	34430.79
611.389	33783.63
611.584	33609.56
611.78	33447.77
611.976	33593.17
612.171	33623.89
612.367	33347.42
612.562	33392.47
612.758	33185.63
612.953	33318.74
613.149	34017.1
613.344	33122.14
613.539	33812.31
613.735	33240.92
613.93	33171.29
614.126	33365.85
614.321	33472.34
614.517	33032.03
614.712	32843.62
614.907	32771.94
615.103	32741.22
615.298	32335.72
615.493	32685.92
615.688	32442.21
615.884	32989.02
616.079	32616.29
616.274	32653.16
616.47	32163.69
616.665	32601.96
616.86	32198.51
617.055	31987.57
617.25	32333.67
617.445	32264.04
617.641	31201.15
617.836	32053.1
618.031	31731.57
618.226	31868.78
618.421	31393.65
618.616	31962.99
618.811	31362.93
619.006	31563.64
619.201	30982.01
619.396	31211.39
619.591	30519.17
619.786	31184.76
619.981	30482.31
620.176	30596.99
620.371	30271.37
620.566	30406.53
620.761	29955.98
620.956	30347.14
621.151	29777.81
621.346	30119.82
621.541	29552.53
621.735	29683.6
621.93	29292.44
622.125	29867.92
622.32	28700.58
622.515	29177.75
622.709	28852.13
622.904	28774.3
623.099	28700.58
623.294	28606.37
623.488	28510.11
623.683	28125.1
623.878	27396.02
624.072	28164.01
624.267	27963.31
624.462	27486.13
624.656	27133.88
624.851	27330.48
625.046	27248.57
625.24	27422.64
625.435	27013.05
625.629	26881.98
625.824	26712
626.018	26462.15
626.213	25810.89
626.407	26144.71
626.602	25538.51
626.796	25857.99
626.991	25864.14
627.185	25790.41
627.38	25642.96
627.574	25219.03
627.768	25171.93
627.963	24911.83
628.157	25024.47
628.352	25042.9
628.546	24682.46
628.74	24989.66
628.935	24428.51
629.129	24477.66
629.323	23959.53
629.517	24221.67
629.712	23828.46
629.906	23951.34
630.1	23611.37
630.294	23746.54
630.489	23320.56
630.683	23293.94
630.877	23001.08
631.071	23187.44
631.265	22994.93
631.459	23064.57
631.653	22673.4
631.848	22788.09
632.042	22568.96
632.236	22327.3
632.43	22210.56
632.624	22042.63
632.818	22155.27
633.012	21907.46
633.206	21854.22
633.4	22118.4
633.594	21581.84
633.788	21467.15
633.982	21700.62
634.176	21264.4
634.369	21135.38
634.563	21102.61
634.757	21121.04
634.951	21127.19
635.145	20842.52
635.339	20951.06
635.533	20711.45
635.726	20785.18
635.92	20434.97
636.114	20371.49
636.308	20305.95
636.501	20168.74
636.695	20111.39
636.889	19929.13
637.083	20142.11
637.276	19814.44
637.47	19869.73
637.664	19468.33
637.857	19595.31
638.051	19529.77
638.244	19257.39
638.438	19218.48
638.632	19226.67
638.825	18982.96
639.019	18831.41
639.212	18554.94
639.406	18808.89
639.599	18659.38
639.793	18694.2
639.986	18241.6
640.18	18288.7
640.373	18194.5
640.567	18088
640.76	17985.6
640.954	17674.31
641.147	17762.37
641.34	17539.15
641.534	17610.82
641.727	17506.38
641.92	17602.63
642.114	17330.25
642.307	17401.93
642.5	17340.49
642.694	16830.55
642.887	16992.34
643.08	17082.45
643.273	16883.8
643.467	16705.62
643.66	16478.3
643.853	16535.64
644.046	16451.67
644.239	16537.69
644.432	16052.32
644.626	16121.95
644.819	16259.17
645.012	16185.44
645.205	16115.81
645.398	15943.78
645.591	15974.5
645.784	15753.32
645.977	15710.31
646.17	15450.22
646.363	15243.37
646.556	15321.2
646.749	15241.32
646.942	15573.1
647.135	15110.25
647.328	15222.89
647.521	14952.56
647.714	14995.57
647.907	15030.38
648.099	14846.07
648.292	14923.89
648.485	14921.84
648.678	14528.63
648.871	14348.41
649.064	14450.81
649.256	14133.37
649.449	14166.14
649.642	14116.99
649.835	14121.09
650.027	14149.76
650.22	13969.54
650.413	13748.36
650.605	13858.95
650.798	13957.25
650.991	13537.41
651.183	13879.43
651.376	13461.64
651.568	13533.32
651.761	13305.99
651.954	13324.43
652.146	13260.94
652.339	13191.31
652.531	13170.83
652.724	13105.29
652.916	12732.56
653.109	12957.84
653.301	12933.26
653.494	12847.25
653.686	12578.97
653.879	12914.83
654.071	12755.09
654.263	12630.16
654.456	12347.54
654.648	12546.2
654.84	12189.85
655.033	12394.65
655.225	12173.47
655.417	12198.04
655.61	12089.5
655.802	11983.01
655.994	12032.16
656.186	11933.86
656.379	11876.51
656.571	11845.79
656.763	11872.42
656.955	11741.35
657.148	11823.26
657.34	11645.09
657.532	11503.78
657.724	11501.73
657.916	11530.41
658.108	11456.68
658.3	11360.42
658.492	11372.71
658.684	11116.72
658.876	11129
659.068	11106.48
659.26	10883.25
659.452	10971.31
659.644	11063.47
659.836	10827.95
660.028	10842.29
660.22	10539.19
660.412	10594.48
660.604	10690.74
660.796	10522.8
660.988	10338.49
661.18	10430.65
661.372	10365.11
661.563	10285.24
661.755	10225.85
661.947	10313.91
662.139	10049.72
662.331	10113.21
662.522	10105.02
662.714	10162.36
662.906	9851.07
663.097	10031.29
663.289	9935.04
663.481	9926.85
663.673	9894.08
663.864	9586.88
664.056	9431.24
664.247	9648.32
664.439	9527.49
664.631	9521.35
664.822	9523.4
665.014	9390.28
665.205	9289.93
665.397	9265.35
665.588	9400.52
665.78	9251.02
665.971	9205.96
666.163	9232.58
666.354	8976.59
666.546	9074.89
666.737	8863.95
666.929	8970.44
667.12	8941.77
667.311	8820.94
667.503	8855.76
667.694	8583.38
667.885	8790.22
668.077	8847.57
668.268	8673.49
668.459	8698.06
668.651	8448.21
668.842	8583.38
669.033	8505.56
669.224	8429.78
669.416	8487.12
669.607	8378.58
669.798	8231.13
669.989	8143.07
670.18	8329.43
670.371	8206.55
670.563	8120.54
670.754	8100.06
670.945	8061.15
671.136	8186.07
671.327	8030.43
671.518	8239.32
671.709	7987.42
671.9	7938.27
672.091	7823.58
672.282	7901.4
672.473	7725.28
672.664	7749.86
672.855	7766.24
673.046	7565.54
673.237	7925.98
673.428	7694.56
673.619	7649.5
673.809	7493.86
674	7522.53
674.191	7522.53
674.382	7317.73
674.573	7444.71
674.764	7547.11
674.954	7409.89
675.145	7311.59
675.336	7196.9
675.527	7266.53
675.717	7448.8
675.908	7037.16
676.099	7225.58
676.289	7174.38
676.48	7045.35
676.671	7102.7
676.861	7067.88
677.052	6994.15
677.243	6895.85
677.433	7016.68
677.624	6914.28
677.814	7080.17
678.005	7096.55
678.195	6824.17
678.386	6748.4
678.576	6721.77
678.767	6742.25
678.957	6701.3
679.148	6678.77
679.338	6863.08
679.529	6619.38
679.719	6701.3
679.909	6897.9
680.1	6641.9
680.29	6760.69
680.481	6478.07
680.671	6545.65
680.861	6557.94
681.052	6383.86
681.242	6338.8
681.432	6549.75
681.622	6375.67
681.813	6199.54
682.003	6482.16
682.193	6301.94
682.383	6412.53
682.573	6189.3
682.764	6322.42
682.954	6289.65
683.144	6226.17
683.334	6093.05
683.524	6109.43
683.714	6203.64
683.904	6025.47
684.094	6074.62
684.284	6150.39
684.474	6129.91
684.664	6134.01
684.854	6054.14
685.044	6064.38
685.234	6017.27
685.424	6174.97
685.614	5837.05
685.804	5867.77
685.994	6029.56
686.184	6050.04
686.374	5757.18
686.564	5720.32
686.753	5630.21
686.943	5667.07
687.133	5802.24
687.323	5751.04
687.513	5734.65
687.702	5648.64
687.892	5675.26
688.082	5523.71
688.272	5656.83
688.461	5495.04
688.651	5720.32
688.841	5474.56
689.03	5579.01
689.22	5497.09
689.41	5505.28
689.599	5501.19
689.789	5296.39
689.979	5284.1
690.168	5234.95
690.358	5269.76
690.547	5308.68
690.737	5282.05
690.926	5216.52
691.116	5247.24
691.305	5228.81
691.495	5157.13
691.684	5208.33
691.874	4923.66
692.063	5234.95
692.252	4962.57
692.442	5114.12
692.631	4804.88
692.82	5026.06
693.01	4892.94
693.199	4899.08
693.388	4890.89
693.578	4907.27
693.767	4737.29
693.956	4770.06
694.146	4913.42
694.335	4827.4
694.524	4725.01
694.713	4727.05
694.902	4634.89
695.092	4688.14
695.281	4552.98
695.47	4497.68
695.659	4616.46
695.848	4561.17
696.037	4571.41
696.226	4557.07
696.415	4423.95
696.604	4581.65
696.793	4479.25
696.982	4411.67
697.171	4444.43
697.36	4335.89
697.549	4440.34
697.738	4344.08
697.927	4440.34
698.116	4342.04
698.305	4202.77
698.494	4405.52
698.683	4296.98
698.872	4479.25
699.061	4249.88
699.25	4161.81
699.438	4137.24
699.627	4368.66
699.816	4135.19
700.005	4120.85
700.193	4305.17
700.382	4247.83
700.571	4258.07
700.76	4083.99
700.948	4075.8
701.137	4055.32
701.326	4127
701.514	4108.57
701.703	4135.19
701.892	3983.64
702.08	4034.84
702.269	4088.09
702.457	4071.7
702.646	3959.06
702.834	4028.7
703.023	3883.29
703.212	4032.79
703.4	3854.62
703.589	3877.15
703.777	4057.37
703.965	3879.19
704.154	4040.98
704.342	3971.35
704.531	3805.47
704.719	3737.88
704.907	3967.26
705.096	3746.08
705.284	3873.05
705.472	3848.47
705.661	3895.58
705.849	3946.78
706.037	3666.21
706.226	3873.05
706.414	3610.91
706.602	3830.04
706.79	3750.17
706.979	3719.45
707.167	3821.85
707.355	3746.08
707.543	3780.89
707.731	3787.04
707.919	3725.6
708.107	3615.01
708.296	3713.31
708.484	3485.98
708.672	3588.38
708.86	3709.21
709.048	3701.02
709.236	3672.35
709.424	3641.63
709.612	3686.69
709.8	3543.33
709.988	3660.06
710.176	3684.64
710.364	3502.37
710.551	3619.1
710.739	3541.28
710.927	3610.91
711.115	3528.99
711.303	3610.91
711.491	3561.76
711.679	3453.22
711.866	3488.03
712.054	3639.58
712.242	3514.66
712.43	3676.45
712.617	3553.57
712.805	3461.41
712.993	3510.56
713.181	3354.91
713.368	3451.17
713.556	3574.05
713.744	3461.41
713.931	3502.37
714.119	3492.13
714.306	3426.59
714.494	3485.98
714.682	3424.55
714.869	3414.31
715.057	3434.78
715.244	3250.47
715.432	3361.06
715.619	3551.52
715.807	3330.34
715.994	3348.77
716.182	3356.96
716.369	3334.43
716.556	3377.44
716.744	3402.02
716.931	3428.64
717.119	3424.55
717.306	3313.95
717.493	3434.78
717.681	3326.24
717.868	3285.28
718.055	3275.04
718.242	3225.89
718.43	3307.81
718.617	3338.53
718.804	3412.26
718.991	3316
719.179	3342.63
719.366	3318.05
719.553	3354.91
719.74	3205.41
719.927	3379.49
720.114	3227.94
720.301	3080.49
720.488	3201.32
720.676	3309.86
720.863	3256.61
721.05	3242.28
721.237	3309.86
721.424	3248.42
721.611	3260.71
721.798	3234.08
721.985	3225.89
722.172	3170.6
722.358	3123.49
722.545	3334.43
722.732	3266.85
722.919	3139.88
723.106	3236.13
723.293	3217.7
723.48	3326.24
723.667	3152.17
723.853	3111.21
724.04	3303.71
724.227	3170.6
724.414	3172.64
724.6	3186.98
724.787	3244.32
724.974	3262.76
725.161	3133.73
725.347	3168.55
725.534	3258.66
725.72	3215.65
725.907	3152.17
726.094	3236.13
726.28	3158.31
726.467	3236.13
726.653	3225.89
726.84	3293.48
727.027	3217.7
727.213	3252.52
727.4	3262.76
727.586	3240.23
727.773	3227.94
727.959	3275.04
728.145	3311.91
728.332	3201.32
728.518	3248.42
728.705	3168.55
728.891	3285.28
729.077	3248.42
729.264	3270.95
729.45	3133.73
729.636	3305.76
729.823	3197.22
730.009	3293.48
730.195	3217.7
730.382	3244.32
730.568	3176.74
730.754	3186.98
730.94	3131.69
731.126	3240.23
731.313	3252.52
731.499	3152.17
731.685	3285.28
731.871	3123.49
732.057	3289.38
732.243	3279.14
732.429	3162.41
732.615	3309.86
732.801	3283.24
732.987	3221.8
733.173	3283.24
733.359	3180.84
733.545	3332.39
733.731	3232.04
733.917	3277.09
734.103	3311.91
734.289	3352.87
734.475	3260.71
734.661	3371.3
734.847	3297.57
735.033	3125.54
735.219	3176.74
735.404	3432.74
735.59	3273
735.776	3105.06
735.962	3232.04
736.148	3154.21
736.333	3209.51
736.519	3103.01
736.705	3270.95
736.89	3217.7
737.076	3162.41
737.262	3332.39
737.447	3207.46
737.633	3281.19
737.819	3299.62
738.004	3096.87
738.19	3217.7
738.375	3266.85
738.561	3363.11
738.747	3252.52
738.932	3301.67
739.118	3399.97
739.303	3195.17
739.489	3174.69
739.674	3131.69
739.859	3125.54
740.045	3297.57
740.23	3174.69
740.416	3215.65
740.601	3260.71
740.786	3172.64
740.972	3236.13
741.157	3184.93
741.342	3154.21
741.528	3137.83
741.713	3113.25
741.898	3133.73
742.084	3182.88
742.269	3330.34
742.454	3186.98
742.639	3135.78
742.824	3105.06
743.01	3184.93
743.195	3203.36
743.38	3107.11
743.565	3078.44
743.75	3146.02
743.935	3088.68
744.12	3236.13
744.305	3074.34
744.49	3043.62
744.675	2941.22
744.86	2945.32
745.045	3070.25
745.23	3078.44
745.415	3066.15
745.6	3060.01
745.785	3115.3
745.97	3107.11
746.155	2992.42
746.34	2978.09
746.525	2910.5
746.71	2990.38
746.895	2996.52
747.079	2953.51
747.264	2906.41
747.449	2908.46
747.634	2853.16
747.819	2976.04
748.003	2941.22
748.188	2810.15
748.373	2740.52
748.557	2718
748.742	2787.63
748.927	2822.44
749.111	2750.76
749.296	2756.91
749.481	2713.9
749.665	2861.35
749.85	2693.42
750.034	2693.42
750.219	2754.86
750.404	2644.27
750.588	2666.8
750.773	2767.15
750.957	2650.41
751.141	2601.26
751.326	2724.14
751.51	2584.88
751.695	2691.37
751.879	2613.55
752.064	2597.17
752.248	2668.84
752.432	2664.75
752.617	2578.73
752.801	2480.43
752.985	2480.43
753.17	2537.77
753.354	2468.14
753.538	2482.48
753.722	2433.33
753.907	2281.78
754.091	2406.7
754.275	2406.7
754.459	2404.66
754.643	2177.33
754.828	2277.68
755.012	2435.38
755.196	2306.35
755.38	2337.07
755.564	2263.35
755.748	2300.21
755.932	2132.28
756.116	2173.24
756.3	2267.44
756.484	2230.58
756.668	2203.96
756.852	2105.65
757.036	2150.71
757.22	2105.65
757.404	2169.14
757.588	2132.28
757.772	2173.24
757.956	2175.28
758.14	2093.37
758.323	2117.94
758.507	2142.52
758.691	2023.73
758.875	2115.89
759.059	2144.56
759.242	2003.25
759.426	2031.93
759.61	1919.29
759.794	2064.69
759.977	1890.62
760.161	2029.88
760.345	2001.21
760.528	1941.82
760.712	1978.68
760.895	1925.43
761.079	1890.62
761.263	1986.87
761.446	1907
761.63	1847.61
761.813	1812.79
761.997	1780.03
762.18	1880.38
762.364	1890.62
762.547	1874.23
762.731	1876.28
762.914	1931.58
763.098	1839.42
763.281	1855.8
763.464	1837.37
763.648	1806.65
763.831	1734.97
764.015	1777.98
764.198	1640.76
764.381	1775.93
764.564	1743.16
764.748	1794.36
764.931	1677.63
765.114	1716.54
765.297	1794.36
765.481	1659.2
765.664	1702.2
765.847	1724.73
766.03	1769.79
766.213	1634.62
766.397	1712.44
766.58	1585.47
766.763	1677.63
766.946	1601.85
767.129	1513.79
767.312	1587.52
767.495	1616.19
767.678	1630.52
767.861	1597.76
768.044	1665.34
768.227	1728.83
768.41	1577.28
768.593	1564.99
768.776	1583.42
768.959	1571.13
769.142	1564.99
769.324	1550.65
769.507	1651
769.69	1550.65
769.873	1503.55
770.056	1648.96
770.239	1587.52
770.421	1550.65
770.604	1511.74
770.787	1524.03
770.97	1474.88
771.152	1401.15
771.335	1423.68
771.518	1401.15
771.7	1501.5
771.883	1489.21
772.066	1362.24
772.248	1448.26
772.431	1544.51
772.613	1392.96
772.796	1458.5
772.978	1456.45
773.161	1347.9
773.343	1292.61
773.526	1300.8
773.708	1358.14
773.891	1370.43
774.073	1270.08
774.256	1308.99
774.438	1419.58
774.621	1288.51
774.803	1382.72
774.985	1278.27
775.168	1362.24
775.35	1282.37
775.532	1339.71
775.715	1306.95
775.897	1333.57
776.079	1247.55
776.261	1198.4
776.444	1175.88
776.626	1263.94
776.808	1141.06
776.99	1171.78
777.173	1306.95
777.355	1093.96
777.537	1282.37
777.719	1085.76
777.901	1108.29
778.083	1118.53
778.265	1053
778.447	1112.39
778.629	1077.57
778.811	1157.44
778.993	1063.24
779.175	1149.25
779.357	1112.39
779.539	1020.23
779.721	1098.05
779.903	1044.81
780.085	956.74
780.267	1096
780.449	1089.86
780.631	1059.14
780.812	1034.57
780.994	932.17
781.176	1001.8
781.358	966.98
781.54	1040.71
781.721	1032.52
781.903	1030.47
782.085	825.67
782.267	864.58
782.448	885.06
782.63	876.87
782.812	915.78
782.993	964.93
783.175	903.5
783.357	913.74
783.538	878.92
783.72	870.73
783.901	854.34
784.083	911.69
784.264	874.82
784.446	803.15
784.627	872.78
784.809	837.96
784.99	825.67
785.172	737.61
785.353	831.82
785.535	815.43
785.716	737.61
785.897	770.38
786.079	797
786.26	768.33
786.441	809.29
786.623	747.85
786.804	782.67
786.985	774.47
787.167	803.15
787.348	776.52
787.529	672.08
787.71	784.71
787.891	715.08
788.073	762.19
788.254	633.16
788.435	700.75
788.616	735.56
788.797	616.78
788.978	710.99
789.159	635.21
789.34	696.65
789.522	727.37
789.703	670.03
789.884	667.98
790.065	659.79
790.246	721.23
790.427	629.07
790.607	602.44
790.788	635.21
790.969	627.02
791.15	678.22
791.331	567.63
791.512	604.49
791.693	581.96
791.874	610.64
792.054	645.45
792.235	541.01
792.416	547.15
792.597	573.77
792.778	536.91
792.958	565.58
793.139	635.21
793.32	528.72
793.5	522.57
793.681	586.06
793.862	530.77
794.042	553.29
794.223	532.81
794.404	516.43
794.584	463.18
794.765	557.39
794.945	538.96
795.126	434.51
795.306	483.66
795.487	487.76
795.667	444.75
795.848	485.71
796.028	516.43
796.209	512.33
796.389	498
796.57	465.23
796.75	461.13
796.93	547.15
797.111	399.7
797.291	516.43
797.471	479.57
797.652	432.46
797.832	393.55
798.012	534.86
798.192	457.04
798.373	506.19
798.553	469.33
798.733	418.13
798.913	467.28
799.093	477.52
799.274	393.55
799.454	454.99
799.634	467.28
799.814	508.24
799.994	356.69
800.174	475.47
800.354	430.41
800.534	377.17
800.714	375.12
800.894	379.22
801.074	407.89
801.254	399.7
801.434	368.98
801.614	377.17
801.794	328.02
801.974	989.51
802.154	334.16
802.334	491.85
802.514	399.7
802.693	373.07
802.873	352.59
803.053	403.79
803.233	350.54
803.413	348.5
803.592	303.44
803.772	366.93
803.952	405.84
804.131	313.68
804.311	385.36
804.491	399.7
804.67	350.54
804.85	289.1
805.03	321.87
805.209	428.37
805.389	350.54
805.568	420.17
805.748	336.21
805.928	338.26
806.107	383.31
806.287	307.54
806.466	360.78
806.646	262.48
806.825	321.87
807.004	311.63
807.184	319.82
807.363	242
807.543	317.78
807.722	233.81
807.901	315.73
808.081	330.06
808.26	272.72
808.439	262.48
808.619	244.05
808.798	295.25
808.977	319.82
809.156	307.54
809.336	254.29
809.515	274.77
809.694	248.15
809.873	278.87
810.052	301.39
810.231	272.72
810.411	285.01
810.59	285.01
810.769	297.3
810.948	258.39
811.127	188.75
811.306	315.73
811.485	268.63
811.664	303.44
811.843	319.82
812.022	258.39
812.201	272.72
812.38	313.68
812.559	121.17
812.737	307.54
812.916	223.57
813.095	293.2
813.274	244.05
813.453	334.16
813.632	334.16
813.811	211.28
813.989	131.41
814.168	276.82
814.347	174.42
814.526	227.67
814.704	246.1
814.883	323.92
815.062	260.43
815.24	262.48
815.419	198.99
815.598	264.53
815.776	194.9
815.955	176.47
816.133	155.99
816.312	248.15
816.49	170.32
816.669	196.95
816.847	194.9
817.026	246.1
817.204	282.96
817.383	203.09
817.561	190.8
817.74	201.04
817.918	229.71
818.097	186.71
818.275	225.62
818.453	270.67
818.632	225.62
818.81	278.87
818.988	182.61
819.167	170.32
819.345	168.27
819.523	227.67
819.701	168.27
819.879	184.66
820.058	198.99
820.236	172.37
820.414	209.23
820.592	223.57
820.77	260.43
820.948	178.51
821.127	149.84
821.305	205.14
821.483	174.42
821.661	160.08
821.839	217.43
822.017	211.28
822.195	172.37
822.373	151.89
822.551	170.32
822.729	213.33
822.907	211.28
823.085	186.71
823.262	278.87
823.44	145.75
823.618	112.98
823.796	133.46
823.974	135.51
824.152	219.47
824.329	98.64
824.507	194.9
824.685	196.95
824.863	188.75
825.04	168.27
825.218	244.05
825.396	153.94
825.574	180.56
825.751	196.95
825.929	170.32
826.107	41.3
826.284	170.32
826.462	127.32
826.639	137.56
826.817	164.18
826.994	153.94
827.172	108.88
827.349	194.9
827.527	59.73
827.704	229.71
827.882	76.12
828.059	153.94
828.237	158.03
828.414	153.94
828.591	127.32
828.769	153.94
828.946	137.56
829.124	209.23
829.301	112.98
829.478	244.05
829.655	139.6
829.833	117.08
830.01	86.36
830.187	133.46
830.364	67.92
830.542	63.83
830.719	143.7
830.896	147.8
831.073	102.74
831.25	131.41
831.427	174.42
831.604	137.56
831.782	108.88
831.959	117.08
832.136	76.12
832.313	176.47
832.49	201.04
832.667	162.13
832.844	127.32
833.021	112.98
833.198	125.27
833.374	88.4
833.551	127.32
833.728	149.84
833.905	137.56
834.082	31.06
834.259	117.08
834.436	147.8
834.612	90.45
834.789	174.42
834.966	127.32
835.143	160.08
835.319	55.64
835.496	162.13
835.673	125.27
835.85	188.75
836.026	33.11
836.203	112.98
836.38	65.88
836.556	133.46
836.733	121.17
836.909	137.56
837.086	67.92
837.262	55.64
837.439	69.97
837.616	100.69
837.792	80.21
837.968	164.18
838.145	76.12
838.321	133.46
838.498	174.42
838.674	115.03
838.851	74.07
839.027	49.49
839.203	137.56
839.38	106.84
839.556	117.08
839.732	72.02
839.909	55.64
840.085	147.8
840.261	115.03
840.437	123.22
840.614	22.87
840.79	115.03
840.966	92.5
841.142	67.92
841.318	26.96
841.494	67.92
841.671	63.83
841.847	37.2
842.023	49.49
842.199	143.7
842.375	98.64
842.551	57.68
842.727	59.73
842.903	112.98
843.079	29.01
843.255	139.6
843.431	14.68
843.607	108.88
843.783	84.31
843.959	119.12
844.134	-3.75
844.31	123.22
844.486	47.44
844.662	82.26
844.838	119.12
845.013	14.68
845.189	102.74
845.365	53.59
845.541	147.8
845.716	112.98
845.892	22.87
846.068	69.97
846.244	61.78
846.419	84.31
846.595	125.27
846.77	-13.99
846.946	47.44
847.122	57.68
847.297	55.64
847.473	121.17
847.648	74.07
847.824	22.87
847.999	31.06
848.175	135.51
848.35	49.49
848.526	102.74
848.701	72.02
848.876	51.54
849.052	74.07
849.227	-13.99
849.403	16.73
849.578	76.12
849.753	4.44
849.929	117.08
850.104	-9.9
850.279	63.83
850.454	14.68
850.63	98.64
850.805	82.26
850.98	37.2
851.155	41.3
851.33	45.4
851.505	-32.43
851.681	110.93
851.856	6.49
852.031	112.98
852.206	45.4
852.381	-20.14
852.556	88.4
852.731	41.3
852.906	76.12
853.081	94.55
853.256	63.83
853.431	10.58
853.606	26.96
853.781	29.01
853.956	10.58
854.131	45.4
854.305	6.49
854.48	37.2
854.655	4.44
854.83	49.49
855.005	33.11
855.18	69.97
855.354	72.02
855.529	112.98
855.704	33.11
855.879	2.39
856.053	41.3
856.228	37.2
856.403	69.97
856.577	90.45
856.752	-28.33
856.926	94.55
857.101	31.06
857.276	-5.8
857.45	35.16
857.625	80.21
857.799	22.87
857.974	31.06
858.148	45.4
858.323	80.21
858.497	26.96
858.672	-18.09
858.846	-26.28
859.02	49.49
859.195	16.73
859.369	-44.71
859.543	-1.71
859.718	12.63
859.892	24.92
860.066	39.25
860.241	24.92
860.415	49.49
860.589	-48.81
860.763	78.16
860.938	69.97
861.112	61.78
861.286	-42.67
861.46	45.4
861.634	-28.33
861.808	69.97
861.982	-40.62
862.157	6.49
862.331	49.49
862.505	-34.47
862.679	4.44
862.853	35.16
863.027	24.92
863.201	90.45
863.375	33.11
863.549	53.59
863.722	26.96
863.896	31.06
864.07	-9.9
864.244	-3.75
864.418	16.73
864.592	18.77
864.766	55.64
864.939	45.4
865.113	16.73
865.287	26.96
865.461	-13.99
865.634	-63.15
865.808	-22.19
865.982	-18.09
866.156	78.16
866.329	-3.75
866.503	2.39
866.676	51.54
866.85	-85.67
867.024	12.63
867.197	14.68
867.371	106.84
867.544	94.55
867.718	0.34
867.891	18.77
868.065	-16.04
868.238	-1.71
868.412	127.32
868.585	61.78
868.759	-32.43
868.932	51.54
869.105	-24.23
869.279	26.96
869.452	22.87
869.625	39.25
869.799	39.25
869.972	-65.19
870.145	-34.47
870.319	26.96
870.492	-81.58
870.665	-5.8
870.838	4.44
871.011	-3.75
871.185	4.44
871.358	-40.62
871.531	24.92
871.704	-13.99
871.877	33.11
872.05	26.96
872.223	47.44
872.396	135.51
872.569	49.49
872.742	-75.43
872.915	14.68
873.088	20.82
873.261	-16.04
873.434	41.3
873.607	37.2
873.78	-22.19
873.953	12.63
874.126	33.11
874.299	24.92
874.471	0.34
874.644	-34.47
874.817	61.78
874.99	-18.09
875.163	-13.99
875.335	49.49
875.508	-5.8
875.681	39.25
875.853	14.68
876.026	51.54
876.199	-67.24
876.371	20.82
876.544	-7.85
876.717	63.83
876.889	-1.71
877.062	-54.95
877.234	-7.85
877.407	-50.86
877.579	10.58
877.752	45.4
877.924	18.77
878.097	-7.85
878.269	53.59
878.442	-13.99
878.614	-18.09
878.786	10.58
878.959	14.68
879.131	12.63
879.303	12.63
879.476	-42.67
879.648	94.55
879.82	10.58
879.993	-26.28
880.165	-61.1
880.337	2.39
880.509	29.01
880.681	-24.23
880.854	-40.62
881.026	45.4
881.198	74.07
881.37	-34.47
881.542	-44.71
881.714	-40.62
881.886	-11.95
882.058	-11.95
882.23	-5.8
882.402	-1.71
882.574	-42.67
882.746	-32.43
882.918	69.97
883.09	76.12
883.262	-3.75
883.434	16.73
883.606	10.58
883.778	16.73
883.95	-69.29
884.122	-3.75
884.293	-9.9
884.465	10.58
884.637	6.49
884.809	61.78
884.98	8.53
885.152	29.01
885.324	37.2
885.496	-7.85
885.667	-100.01
885.839	-13.99
886.011	94.55
886.182	-9.9
886.354	20.82
886.525	55.64
886.697	-13.99
886.869	-34.47
887.04	-48.81
887.212	37.2
887.383	29.01
887.555	22.87
887.726	6.49
887.897	-32.43
888.069	4.44
888.24	18.77
888.412	-30.38
888.583	8.53
888.754	-7.85
888.926	-38.57
889.097	37.2
889.268	-30.38
889.44	-54.95
889.611	-20.14
889.782	24.92
889.953	29.01
890.125	41.3
890.296	-65.19
890.467	-32.43
890.638	-65.19
890.809	22.87
890.98	-18.09
891.151	26.96
891.323	8.53
891.494	29.01
891.665	-9.9
891.836	-18.09
892.007	-13.99
892.178	41.3
892.349	29.01
892.52	22.87
892.691	-1.71
892.862	6.49
893.032	-38.57
893.203	29.01
893.374	31.06
893.545	-9.9
893.716	6.49
893.887	43.35
894.057	-5.8
894.228	-26.28
894.399	0.34
894.57	-26.28
894.74	-42.67
894.911	-136.87
895.082	-30.38
895.253	-71.34
895.423	45.4
895.594	76.12
895.764	-52.91
895.935	-54.95
896.106	33.11
896.276	-24.23
896.447	-44.71
896.617	-57
896.788	-5.8
896.958	-42.67
897.129	-46.76
897.299	2.39
897.47	-20.14
897.64	31.06
897.81	-52.91
897.981	-16.04
898.151	-67.24
898.322	18.77
898.492	-40.62
898.662	-54.95
898.832	-89.77
899.003	37.2
899.173	20.82
899.343	45.4
899.513	6.49
