Data from USB4F104151__92__12-42-49-724.txt Node

Date: Fri Mar 14 12:42:49 EDT 2025
User: louis
Spectrometer: USB4F10415
Trigger mode: 4
Integration Time (sec): 3.000000E-2
Scans to average: 1
Electric dark correction enabled: true
Nonlinearity correction enabled: false
Boxcar width: 0
XAxis mode: Wavelengths
Number of Pixels in Spectrum: 3648
>>>>>Begin Spectral Data<<<<<
178.204	-125.78
178.424	-125.78
178.644	-125.78
178.864	-50
179.084	-90.96
179.304	-2.9
179.524	-58.2
179.744	-41.81
179.964	74.92
180.184	-15.19
180.404	15.53
180.624	-27.48
180.844	-13.14
181.064	31.91
181.283	-21.33
181.503	1.19
181.723	56.49
181.943	5.29
182.163	72.87
182.383	-9.05
182.602	68.78
182.822	-9.05
183.042	72.87
183.262	29.87
183.482	36.01
183.701	33.96
183.921	76.97
184.141	-13.14
184.361	99.5
184.58	89.26
184.8	97.45
185.02	66.73
185.239	142.5
185.459	50.35
185.679	109.74
185.898	44.2
186.118	72.87
186.338	-4.95
186.557	140.46
186.777	58.54
186.997	60.59
187.216	13.48
187.436	154.79
187.655	117.93
187.875	64.68
188.095	54.44
188.314	130.22
188.534	126.12
188.753	7.34
188.973	95.4
189.192	56.49
189.412	21.67
189.631	148.65
189.851	48.3
190.07	91.31
190.29	48.3
190.509	74.92
190.729	91.31
190.948	99.5
191.168	97.45
191.387	107.69
191.607	-11.09
191.826	25.77
192.045	74.92
192.265	42.15
192.484	48.3
192.704	64.68
192.923	76.97
193.142	115.88
193.362	99.5
193.581	56.49
193.8	27.82
194.02	87.21
194.239	52.39
194.458	42.15
194.678	60.59
194.897	89.26
195.116	56.49
195.335	85.16
195.555	-7
195.774	-9.05
195.993	117.93
196.212	68.78
196.432	-35.67
196.651	81.07
196.87	48.3
197.089	83.11
197.308	25.77
197.528	50.35
197.747	42.15
197.966	21.67
198.185	126.12
198.404	9.39
198.623	36.01
198.842	29.87
199.062	103.59
199.281	136.36
199.5	29.87
199.719	87.21
199.938	136.36
200.157	89.26
200.376	74.92
200.595	40.11
200.814	152.74
201.033	25.77
201.252	97.45
201.471	-19.29
201.69	101.55
201.909	76.97
202.128	60.59
202.347	-17.24
202.566	91.31
202.785	31.91
203.004	66.73
203.223	119.98
203.442	117.93
203.661	103.59
203.879	-17.24
204.098	68.78
204.317	46.25
204.536	142.5
204.755	52.39
204.974	23.72
205.193	46.25
205.411	175.27
205.63	134.31
205.849	48.3
206.068	113.83
206.287	23.72
206.505	38.06
206.724	72.87
206.943	56.49
207.162	97.45
207.381	-23.38
207.599	60.59
207.818	140.46
208.037	42.15
208.255	95.4
208.474	101.55
208.693	66.73
208.911	64.68
209.13	13.48
209.349	107.69
209.567	29.87
209.786	97.45
210.005	124.07
210.223	42.15
210.442	64.68
210.661	60.59
210.879	74.92
211.098	15.53
211.316	48.3
211.535	68.78
211.753	52.39
211.972	27.82
212.191	-25.43
212.409	46.25
212.628	99.5
212.846	7.34
213.065	56.49
213.283	105.64
213.502	50.35
213.72	46.25
213.938	87.21
214.157	60.59
214.375	130.22
214.594	11.43
214.812	154.79
215.031	15.53
215.249	46.25
215.467	95.4
215.686	89.26
215.904	97.45
216.122	91.31
216.341	119.98
216.559	70.83
216.778	56.49
216.996	11.43
217.214	50.35
217.432	70.83
217.651	15.53
217.869	81.07
218.087	99.5
218.306	25.77
218.524	29.87
218.742	58.54
218.96	105.64
219.179	95.4
219.397	97.45
219.615	138.41
219.833	72.87
220.051	29.87
220.27	95.4
220.488	33.96
220.706	107.69
220.924	46.25
221.142	58.54
221.36	52.39
221.578	79.02
221.796	62.63
222.015	42.15
222.233	58.54
222.451	103.59
222.669	93.35
222.887	83.11
223.105	27.82
223.323	87.21
223.541	64.68
223.759	119.98
223.977	50.35
224.195	85.16
224.413	93.35
224.631	93.35
224.849	21.67
225.067	42.15
225.285	13.48
225.503	36.01
225.721	27.82
225.939	48.3
226.157	-0.85
226.375	158.89
226.592	68.78
226.81	1.19
227.028	91.31
227.246	99.5
227.464	70.83
227.682	79.02
227.9	189.61
228.117	72.87
228.335	97.45
228.553	48.3
228.771	66.73
228.989	107.69
229.206	60.59
229.424	95.4
229.642	33.96
229.86	1.19
230.077	119.98
230.295	27.82
230.513	33.96
230.731	122.02
230.948	50.35
231.166	124.07
231.384	74.92
231.601	74.92
231.819	134.31
232.037	50.35
232.254	56.49
232.472	46.25
232.689	21.67
232.907	46.25
233.125	-41.81
233.342	19.63
233.56	66.73
233.777	64.68
233.995	31.91
234.213	136.36
234.43	124.07
234.648	83.11
234.865	99.5
235.083	138.41
235.3	25.77
235.518	124.07
235.735	119.98
235.953	130.22
236.17	5.29
236.388	64.68
236.605	79.02
236.822	79.02
237.04	107.69
237.257	87.21
237.475	115.88
237.692	124.07
237.909	101.55
238.127	29.87
238.344	21.67
238.562	126.12
238.779	42.15
238.996	-31.57
239.214	11.43
239.431	117.93
239.648	15.53
239.865	79.02
240.083	107.69
240.3	46.25
240.517	81.07
240.735	109.74
240.952	89.26
241.169	119.98
241.386	48.3
241.603	31.91
241.821	42.15
242.038	111.78
242.255	13.48
242.472	66.73
242.689	87.21
242.907	103.59
243.124	33.96
243.341	122.02
243.558	33.96
243.775	19.63
243.992	21.67
244.209	99.5
244.426	134.31
244.643	5.29
244.86	79.02
245.078	99.5
245.295	119.98
245.512	9.39
245.729	68.78
245.946	72.87
246.163	97.45
246.38	85.16
246.597	56.49
246.814	44.2
247.031	36.01
247.248	64.68
247.464	11.43
247.681	103.59
247.898	79.02
248.115	38.06
248.332	5.29
248.549	72.87
248.766	85.16
248.983	48.3
249.2	17.58
249.417	140.46
249.633	70.83
249.85	79.02
250.067	107.69
250.284	91.31
250.501	70.83
250.717	52.39
250.934	19.63
251.151	54.44
251.368	54.44
251.585	91.31
251.801	87.21
252.018	42.15
252.235	81.07
252.451	7.34
252.668	107.69
252.885	54.44
253.102	70.83
253.318	91.31
253.535	101.55
253.752	23.72
253.968	60.59
254.185	72.87
254.401	64.68
254.618	64.68
254.835	46.25
255.051	56.49
255.268	81.07
255.484	93.35
255.701	109.74
255.917	169.13
256.134	-15.19
256.351	54.44
256.567	89.26
256.784	124.07
257	9.39
257.217	117.93
257.433	36.01
257.65	21.67
257.866	105.64
258.082	15.53
258.299	46.25
258.515	132.26
258.732	-4.95
258.948	-11.09
259.165	60.59
259.381	36.01
259.597	50.35
259.814	27.82
260.03	27.82
260.246	54.44
260.463	113.83
260.679	97.45
260.895	9.39
261.112	132.26
261.328	44.2
261.544	19.63
261.761	44.2
261.977	83.11
262.193	56.49
262.409	126.12
262.626	68.78
262.842	89.26
263.058	29.87
263.274	19.63
263.49	56.49
263.707	33.96
263.923	89.26
264.139	50.35
264.355	58.54
264.571	105.64
264.787	29.87
265.004	76.97
265.22	117.93
265.436	-9.05
265.652	33.96
265.868	83.11
266.084	56.49
266.3	70.83
266.516	70.83
266.732	122.02
266.948	68.78
267.164	64.68
267.38	-9.05
267.596	81.07
267.812	181.42
268.028	91.31
268.244	81.07
268.46	132.26
268.676	109.74
268.892	56.49
269.108	40.11
269.324	60.59
269.54	33.96
269.756	79.02
269.972	122.02
270.188	56.49
270.403	-13.14
270.619	101.55
270.835	58.54
271.051	25.77
271.267	38.06
271.483	-19.29
271.698	95.4
271.914	95.4
272.13	54.44
272.346	62.63
272.562	87.21
272.777	81.07
272.993	101.55
273.209	11.43
273.425	-9.05
273.64	62.63
273.856	29.87
274.072	23.72
274.287	46.25
274.503	128.17
274.719	9.39
274.934	103.59
275.15	-4.95
275.366	89.26
275.581	5.29
275.797	27.82
276.012	31.91
276.228	83.11
276.444	-21.33
276.659	48.3
276.875	11.43
277.09	60.59
277.306	48.3
277.521	81.07
277.737	33.96
277.952	93.35
278.168	93.35
278.383	66.73
278.599	113.83
278.814	56.49
279.03	83.11
279.245	148.65
279.461	31.91
279.676	95.4
279.892	-2.9
280.107	66.73
280.322	76.97
280.538	81.07
280.753	66.73
280.969	107.69
281.184	11.43
281.399	148.65
281.615	76.97
281.83	128.17
282.045	93.35
282.26	64.68
282.476	50.35
282.691	130.22
282.906	68.78
283.122	130.22
283.337	19.63
283.552	87.21
283.767	27.82
283.983	167.08
284.198	56.49
284.413	85.16
284.628	66.73
284.843	46.25
285.058	117.93
285.274	171.18
285.489	36.01
285.704	44.2
285.919	70.83
286.134	97.45
286.349	99.5
286.564	87.21
286.779	72.87
286.995	44.2
287.21	87.21
287.425	87.21
287.64	19.63
287.855	126.12
288.07	19.63
288.285	113.83
288.5	171.18
288.715	72.87
288.93	89.26
289.145	89.26
289.36	124.07
289.575	54.44
289.79	72.87
290.004	-23.38
290.219	66.73
290.434	68.78
290.649	58.54
290.864	72.87
291.079	21.67
291.294	130.22
291.509	19.63
291.724	95.4
291.938	70.83
292.153	156.84
292.368	95.4
292.583	117.93
292.798	58.54
293.012	126.12
293.227	17.58
293.442	66.73
293.657	126.12
293.871	93.35
294.086	-2.9
294.301	140.46
294.516	124.07
294.73	62.63
294.945	74.92
295.16	97.45
295.374	128.17
295.589	54.44
295.804	3.24
296.018	146.6
296.233	85.16
296.447	19.63
296.662	36.01
296.877	107.69
297.091	144.55
297.306	44.2
297.52	70.83
297.735	72.87
297.949	52.39
298.164	1.19
298.378	62.63
298.593	-0.85
298.807	-7
299.022	101.55
299.236	160.94
299.451	60.59
299.665	40.11
299.88	74.92
300.094	74.92
300.309	60.59
300.523	31.91
300.737	124.07
300.952	36.01
301.166	62.63
301.381	95.4
301.595	54.44
301.809	66.73
302.024	25.77
302.238	85.16
302.452	89.26
302.667	85.16
302.881	154.79
303.095	109.74
303.309	44.2
303.524	72.87
303.738	79.02
303.952	25.77
304.166	7.34
304.381	-39.76
304.595	93.35
304.809	68.78
305.023	54.44
305.237	103.59
305.452	130.22
305.666	173.22
305.88	140.46
306.094	79.02
306.308	29.87
306.522	93.35
306.736	48.3
306.95	150.7
307.164	91.31
307.379	31.91
307.593	152.74
307.807	25.77
308.021	105.64
308.235	113.83
308.449	52.39
308.663	76.97
308.877	150.7
309.091	72.87
309.305	31.91
309.519	70.83
309.733	70.83
309.947	25.77
310.161	117.93
310.374	52.39
310.588	50.35
310.802	50.35
311.016	50.35
311.23	154.79
311.444	62.63
311.658	72.87
311.872	146.6
312.085	48.3
312.299	99.5
312.513	148.65
312.727	126.12
312.941	44.2
313.154	60.59
313.368	130.22
313.582	76.97
313.796	113.83
314.009	103.59
314.223	126.12
314.437	156.84
314.651	44.2
314.864	64.68
315.078	48.3
315.292	101.55
315.505	113.83
315.719	144.55
315.933	31.91
316.146	50.35
316.36	56.49
316.573	160.94
316.787	50.35
317.001	40.11
317.214	29.87
317.428	79.02
317.641	-21.33
317.855	-2.9
318.068	52.39
318.282	50.35
318.495	130.22
318.709	58.54
318.922	-4.95
319.136	144.55
319.349	68.78
319.563	23.72
319.776	105.64
319.99	33.96
320.203	103.59
320.417	95.4
320.63	48.3
320.843	165.03
321.057	105.64
321.27	76.97
321.483	165.03
321.697	99.5
321.91	62.63
322.124	70.83
322.337	142.5
322.55	134.31
322.763	85.16
322.977	89.26
323.19	93.35
323.403	60.59
323.617	117.93
323.83	99.5
324.043	117.93
324.256	79.02
324.469	117.93
324.683	134.31
324.896	60.59
325.109	29.87
325.322	-9.05
325.535	128.17
325.748	111.78
325.962	95.4
326.175	134.31
326.388	50.35
326.601	70.83
326.814	140.46
327.027	89.26
327.24	162.98
327.453	79.02
327.666	72.87
327.879	31.91
328.092	103.59
328.305	44.2
328.518	46.25
328.731	134.31
328.944	11.43
329.157	74.92
329.37	142.5
329.583	142.5
329.796	113.83
330.009	83.11
330.222	13.48
330.435	60.59
330.648	93.35
330.861	23.72
331.073	119.98
331.286	64.68
331.499	58.54
331.712	-2.9
331.925	31.91
332.138	101.55
332.35	134.31
332.563	7.34
332.776	124.07
332.989	126.12
333.202	64.68
333.414	132.26
333.627	87.21
333.84	40.11
334.053	113.83
334.265	93.35
334.478	68.78
334.691	29.87
334.903	50.35
335.116	74.92
335.329	62.63
335.541	119.98
335.754	169.13
335.966	124.07
336.179	93.35
336.392	42.15
336.604	87.21
336.817	54.44
337.029	122.02
337.242	64.68
337.454	85.16
337.667	60.59
337.88	117.93
338.092	60.59
338.305	89.26
338.517	83.11
338.729	85.16
338.942	158.89
339.154	97.45
339.367	60.59
339.579	171.18
339.792	42.15
340.004	79.02
340.217	40.11
340.429	21.67
340.641	27.82
340.854	132.26
341.066	81.07
341.278	85.16
341.491	191.66
341.703	97.45
341.915	83.11
342.128	136.36
342.34	87.21
342.552	130.22
342.764	101.55
342.977	89.26
343.189	74.92
343.401	7.34
343.613	50.35
343.826	70.83
344.038	15.53
344.25	56.49
344.462	99.5
344.674	79.02
344.886	132.26
345.099	29.87
345.311	101.55
345.523	126.12
345.735	122.02
345.947	62.63
346.159	66.73
346.371	72.87
346.583	109.74
346.795	119.98
347.007	58.54
347.219	62.63
347.431	95.4
347.643	70.83
347.855	97.45
348.067	74.92
348.279	46.25
348.491	46.25
348.703	115.88
348.915	70.83
349.127	189.61
349.339	136.36
349.551	103.59
349.763	154.79
349.975	132.26
350.187	99.5
350.399	160.94
350.61	113.83
350.822	81.07
351.034	70.83
351.246	-29.52
351.458	89.26
351.669	99.5
351.881	109.74
352.093	124.07
352.305	111.78
352.517	128.17
352.728	87.21
352.94	132.26
353.152	42.15
353.363	54.44
353.575	56.49
353.787	111.78
353.999	66.73
354.21	99.5
354.422	36.01
354.633	64.68
354.845	97.45
355.057	60.59
355.268	66.73
355.48	56.49
355.692	33.96
355.903	58.54
356.115	9.39
356.326	-41.81
356.538	156.84
356.749	136.36
356.961	158.89
357.172	54.44
357.384	97.45
357.595	128.17
357.807	142.5
358.018	81.07
358.23	138.41
358.441	146.6
358.653	117.93
358.864	126.12
359.075	19.63
359.287	115.88
359.498	119.98
359.709	93.35
359.921	122.02
360.132	19.63
360.344	185.51
360.555	13.48
360.766	128.17
360.977	79.02
361.189	117.93
361.4	17.58
361.611	115.88
361.823	138.41
362.034	113.83
362.245	19.63
362.456	156.84
362.667	115.88
362.879	21.67
363.09	99.5
363.301	148.65
363.512	68.78
363.723	38.06
363.935	52.39
364.146	144.55
364.357	130.22
364.568	132.26
364.779	40.11
364.99	85.16
365.201	85.16
365.412	74.92
365.623	23.72
365.834	142.5
366.045	85.16
366.256	72.87
366.467	115.88
366.678	148.65
366.889	152.74
367.1	134.31
367.311	183.46
367.522	74.92
367.733	154.79
367.944	36.01
368.155	85.16
368.366	109.74
368.577	109.74
368.788	68.78
368.999	91.31
369.209	58.54
369.42	173.22
369.631	144.55
369.842	160.94
370.053	68.78
370.264	154.79
370.474	64.68
370.685	165.03
370.896	79.02
371.107	146.6
371.317	68.78
371.528	144.55
371.739	46.25
371.95	158.89
372.16	109.74
372.371	25.77
372.582	54.44
372.792	138.41
373.003	44.2
373.214	99.5
373.424	128.17
373.635	52.39
373.846	154.79
374.056	93.35
374.267	72.87
374.477	95.4
374.688	48.3
374.898	105.64
375.109	154.79
375.319	83.11
375.53	171.18
375.74	115.88
375.951	19.63
376.161	134.31
376.372	117.93
376.582	68.78
376.793	81.07
377.003	64.68
377.214	81.07
377.424	122.02
377.635	70.83
377.845	46.25
378.055	146.6
378.266	46.25
378.476	91.31
378.686	154.79
378.897	113.83
379.107	124.07
379.317	58.54
379.528	171.18
379.738	136.36
379.948	21.67
380.158	218.28
380.369	119.98
380.579	119.98
380.789	40.11
380.999	134.31
381.21	183.46
381.42	179.37
381.63	83.11
381.84	97.45
382.05	3.24
382.261	201.9
382.471	140.46
382.681	126.12
382.891	122.02
383.101	109.74
383.311	117.93
383.521	154.79
383.731	136.36
383.941	173.22
384.151	87.21
384.361	68.78
384.571	152.74
384.781	97.45
384.991	115.88
385.201	177.32
385.411	136.36
385.621	79.02
385.831	140.46
386.041	150.7
386.251	-21.33
386.461	113.83
386.671	113.83
386.881	81.07
387.091	109.74
387.301	154.79
387.511	89.26
387.72	124.07
387.93	68.78
388.14	97.45
388.35	-9.05
388.56	187.56
388.769	105.64
388.979	99.5
389.189	142.5
389.399	60.59
389.609	101.55
389.818	175.27
390.028	185.51
390.238	187.56
390.447	89.26
390.657	111.78
390.867	-4.95
391.076	162.98
391.286	99.5
391.496	162.98
391.705	128.17
391.915	93.35
392.125	195.75
392.334	140.46
392.544	148.65
392.753	109.74
392.963	138.41
393.172	165.03
393.382	103.59
393.591	214.18
393.801	154.79
394.01	119.98
394.22	185.51
394.429	105.64
394.639	109.74
394.848	158.89
395.058	152.74
395.267	169.13
395.477	193.7
395.686	179.37
395.895	165.03
396.105	162.98
396.314	148.65
396.524	158.89
396.733	122.02
396.942	199.85
397.152	199.85
397.361	228.52
397.57	144.55
397.78	171.18
397.989	187.56
398.198	169.13
398.407	171.18
398.617	205.99
398.826	140.46
399.035	222.38
399.244	205.99
399.453	203.94
399.663	224.42
399.872	199.85
400.081	179.37
400.29	210.09
400.499	52.39
400.708	240.81
400.917	179.37
401.127	177.32
401.336	130.22
401.545	326.82
401.754	271.53
401.963	201.9
402.172	181.42
402.381	189.61
402.59	255.14
402.799	195.75
403.008	220.33
403.217	218.28
403.426	265.38
403.635	138.41
403.844	193.7
404.053	253.09
404.262	253.09
404.471	292.01
404.68	224.42
404.888	275.62
405.097	236.71
405.306	261.29
405.515	265.38
405.724	316.58
405.933	318.63
406.142	322.73
406.35	279.72
406.559	302.25
406.768	314.53
406.977	408.74
407.185	330.92
407.394	353.45
407.603	404.64
407.812	343.21
408.02	459.94
408.229	402.6
408.438	347.3
408.646	425.12
408.855	459.94
409.064	359.59
409.272	414.88
409.481	488.61
409.69	496.8
409.898	502.95
410.107	545.95
410.315	531.62
410.524	511.14
410.733	562.34
410.941	568.48
411.15	629.92
411.358	724.13
411.567	625.83
411.775	623.78
411.984	697.5
412.192	750.75
412.401	672.93
412.609	769.18
412.818	744.61
413.026	777.37
413.234	789.66
413.443	836.77
413.651	904.35
413.86	912.54
414.068	945.31
414.276	1047.71
414.485	978.08
414.693	1129.63
414.901	1070.23
415.11	1201.3
415.318	1039.51
415.526	1119.39
415.734	1203.35
415.943	1268.89
416.151	1344.66
416.359	1424.53
416.567	1359
416.776	1504.4
416.984	1514.64
417.192	1598.61
417.4	1625.23
417.608	1631.38
417.817	1655.95
418.025	1731.73
418.233	1891.47
418.441	1870.99
418.649	1887.37
418.857	2053.26
419.065	2163.85
419.273	2135.18
419.481	2182.28
419.689	2378.89
419.897	2464.9
420.105	2526.34
420.313	2499.72
420.521	2536.58
420.729	2710.66
420.937	2755.71
421.145	2987.13
421.353	2956.41
421.561	3126.39
421.769	3118.2
421.977	3425.4
422.185	3282.04
422.393	3585.14
422.601	3671.15
422.809	3728.5
423.017	3798.13
423.224	3884.14
423.432	4127.85
423.64	4054.12
423.848	4414.57
424.056	4174.95
424.263	4693.09
424.471	4734.05
424.679	4705.38
424.887	5031.01
425.094	5133.4
425.302	5180.51
425.51	5391.45
425.718	5502.04
425.925	5674.07
426.133	5829.71
426.341	6222.92
426.548	6468.68
426.756	6335.56
426.964	6515.78
427.171	6919.23
427.379	6954.05
427.586	7326.78
427.794	7373.88
428.001	7658.55
428.209	8010.8
428.417	7951.41
428.624	8545.32
428.832	8629.29
429.039	8455.21
429.247	8414.25
429.454	9270.3
429.662	9874.45
429.869	9294.88
430.076	9810.96
430.284	9546.78
430.491	10161.17
430.699	10775.56
430.906	10408.97
431.114	10687.5
431.321	10980.36
431.528	11387.9
431.736	12125.17
431.943	12432.36
432.15	12286.96
432.358	12297.2
432.565	13089.76
432.772	13077.48
432.979	13687.77
433.187	13958.1
433.394	13976.53
433.601	15039.43
433.808	15166.4
434.016	14937.03
434.223	15498.17
434.43	16640.94
434.637	16141.24
434.844	17161.12
435.052	17685.4
435.259	17370.02
435.466	17605.53
435.673	17202.08
435.88	18637.71
436.087	19344.26
436.294	19325.83
436.501	19176.33
436.708	19643.26
436.915	19940.22
437.122	20931.44
437.329	20734.83
437.537	21656.42
437.743	21865.31
437.95	21685.09
438.157	23038.8
438.364	23905.09
438.571	23317.32
438.778	23857.98
438.985	26020.64
439.192	24677.17
439.399	25631.52
439.606	25238.31
439.813	26805.01
440.02	28140.29
440.227	27527.94
440.433	27376.39
440.64	28508.92
440.847	28273.4
441.054	28762.87
441.261	30667.48
441.467	30333.66
441.674	31099.6
441.881	32312
442.088	32256.7
442.294	31781.57
442.501	32481.98
442.708	33354.41
442.914	34661.02
443.121	36108.93
443.328	34953.88
443.534	37485.17
443.741	36635.26
443.948	36354.69
444.154	38621.79
444.361	38249.06
444.568	38888.03
444.774	38570.59
444.981	39322.19
445.187	39912.01
445.394	42109.48
445.6	41507.38
445.807	45388.28
446.013	43305.49
446.22	43944.46
446.426	45554.16
446.633	46137.83
446.839	48062.93
447.046	45877.74
447.252	48456.14
447.459	48441.8
447.665	47919.57
447.871	50137.52
448.078	51896.72
448.284	50131.37
448.491	50772.39
448.697	52779.4
448.903	53793.14
449.11	54325.61
449.316	53057.92
449.522	53666.17
449.728	55644.51
449.935	55490.91
450.141	55861.59
450.347	57211.2
450.553	55359.84
450.76	56109.39
450.966	58188.08
451.172	57237.83
451.378	58569
451.584	57968.95
451.791	58771.75
451.997	58319.15
452.203	59605.28
452.409	59691.29
452.615	59181.35
452.821	57243.97
453.027	56895.81
453.233	59392.29
453.44	57395.52
453.646	58261.81
453.852	58454.32
454.058	58868.01
454.264	57141.57
454.47	58478.89
454.676	56920.39
454.882	58683.69
455.088	54239.6
455.294	55345.5
455.5	55943.51
455.705	56162.64
455.911	54116.72
456.117	52908.42
456.323	52976
456.529	49686.96
456.735	52091.28
456.941	50594.21
457.147	49512.89
457.352	48597.45
457.558	47632.85
457.764	48179.66
457.97	47235.55
458.176	46051.82
458.381	45730.29
458.587	43893.26
458.793	43889.16
458.999	41597.49
459.204	44483.08
459.41	43366.93
459.616	40682.05
459.821	40813.12
460.027	40256.07
460.233	39541.33
460.438	38060.65
460.644	38359.65
460.85	36502.14
461.055	35963.53
461.261	35775.11
461.466	33247.92
461.672	32404.16
461.878	34386.59
462.083	32162.5
462.289	31701.7
462.494	31195.85
462.7	29991.65
462.905	29086.45
463.111	30065.38
463.316	30397.15
463.522	29311.72
463.727	29573.86
463.932	29623.01
464.138	29594.34
464.343	29532.9
464.549	28584.69
464.754	29416.17
464.959	29182.7
465.165	28988.14
465.37	27777.79
465.575	27247.37
465.781	28293.88
465.986	28334.84
466.191	27384.58
466.397	27001.61
466.602	25738.02
466.807	26688.28
467.012	26456.85
467.218	26403.61
467.423	26032.93
467.628	26557.21
467.833	27093.77
468.038	26317.59
468.244	25787.17
468.449	26413.85
468.654	25791.27
468.859	25490.21
469.064	25457.45
469.269	24343.35
469.474	24568.63
469.679	24822.58
469.885	24300.34
470.09	24918.83
470.295	24623.92
470.5	24081.21
470.705	24122.17
470.91	23647.04
471.115	23270.22
471.32	23927.61
471.525	23495.49
471.73	22926.16
471.935	22668.11
472.139	22084.44
472.344	22571.86
472.549	22360.92
472.754	21963.61
472.959	21570.4
473.164	21166.95
473.369	20712.3
473.574	21539.68
473.778	21076.84
473.983	21148.52
474.188	21209.96
474.393	19821.44
474.598	20026.23
474.802	20175.73
475.007	19893.12
475.212	19913.59
475.417	19139.46
475.621	19241.86
475.826	19348.36
476.031	18658.19
476.235	18402.19
476.44	18658.19
476.645	18498.45
476.849	18389.91
477.054	18199.44
477.259	17922.97
477.463	17992.6
477.668	17562.53
477.872	17757.08
478.077	17523.62
478.282	17060.77
478.486	16894.89
478.691	16980.9
478.895	16786.35
479.1	16563.12
479.304	16780.2
479.509	15981.49
479.713	16245.68
479.918	15883.19
480.122	15631.29
480.326	15983.54
480.531	16022.45
480.735	15842.23
480.94	16055.22
481.144	16092.09
481.348	15256.51
481.553	15772.6
481.757	15449.02
481.961	15532.99
482.166	15668.16
482.37	15457.21
482.574	15363.01
482.778	15477.69
482.983	15817.66
483.187	15225.79
483.391	15530.94
483.595	15408.06
483.8	15162.31
484.004	15473.6
484.208	15512.51
484.412	15125.44
484.616	15377.34
484.821	15297.47
485.025	15166.4
485.229	15438.78
485.433	14994.37
485.637	15184.83
485.841	15279.04
486.045	15162.31
486.249	15383.49
486.453	15033.29
486.657	15352.77
486.861	15449.02
487.065	14949.32
487.269	15479.74
487.473	15301.57
487.677	15363.01
487.881	15561.66
488.085	15383.49
488.289	15365.06
488.493	15027.14
488.697	15446.97
488.901	15653.82
489.105	15465.41
489.309	15555.52
489.512	15457.21
489.716	15465.41
489.92	15555.52
490.124	15283.14
490.328	15621.05
490.531	15481.79
490.735	15641.53
490.939	15406.02
491.143	15532.99
491.346	15709.11
491.55	16167.86
491.754	15967.16
491.958	16020.41
492.161	15774.65
492.365	15840.18
492.569	16114.61
492.772	16069.56
492.976	16149.43
493.18	16221.11
493.383	16399.28
493.587	16659.37
493.79	16841.64
493.994	16524.21
494.197	16821.16
494.401	17032.1
494.605	16817.07
494.808	17187.75
495.012	17357.73
495.215	17214.37
495.419	17558.43
495.622	17388.45
495.825	17746.84
496.029	17728.41
496.232	18043.8
496.436	17972.12
496.639	18504.59
496.843	18207.64
497.046	18746.25
497.249	18934.67
497.453	18742.16
497.656	19098.5
497.859	19102.6
498.063	19258.24
498.266	19846.01
498.469	19737.47
498.673	19925.88
498.876	20034.42
499.079	20298.61
499.282	20355.96
499.485	20872.04
499.689	20720.49
499.892	21359.46
500.095	21162.86
500.298	21523.3
500.501	21508.96
500.705	22113.11
500.908	22332.25
501.111	22606.67
501.314	22684.5
501.517	22877.01
501.72	22920.01
501.923	23305.03
502.126	23829.31
502.329	23960.38
502.532	24234.81
502.735	24054.59
502.938	24546.1
503.141	24666.93
503.344	25436.97
503.547	25242.41
503.75	25883.42
503.953	26047.26
504.156	26055.45
504.359	26501.91
504.562	26346.26
504.765	27339.53
504.968	27511.56
505.17	27706.12
505.373	27456.26
505.576	28064.51
505.779	28302.07
505.982	28230.4
506.185	28990.19
506.387	28824.31
506.59	29549.29
506.793	29670.12
506.996	30036.7
507.198	30569.18
507.401	30370.52
507.604	31058.64
507.807	31425.23
508.009	31568.58
508.212	31795.91
508.415	32152.26
508.617	32471.74
508.82	32430.78
509.022	32950.96
509.225	33704.62
509.428	33329.84
509.63	33475.24
509.833	33936.04
510.035	34341.53
510.238	34599.58
510.44	35191.44
510.643	35154.58
510.845	35877.51
511.048	35342.99
511.25	36078.21
511.453	36135.56
511.655	37497.45
511.858	37114.48
512.06	37167.73
512.262	37882.47
512.465	37837.42
512.667	38648.41
512.87	38589.02
513.072	38621.79
513.274	39412.31
513.477	39656.01
513.679	39991.88
513.881	40507.97
514.084	41226.81
514.286	40976.95
514.488	40804.92
514.69	41890.35
514.893	42258.98
515.095	42029.61
515.297	42816.03
515.499	42764.83
515.701	43514.39
515.904	43637.26
516.106	43940.36
516.308	44503.56
516.51	44681.73
516.712	44687.87
516.914	45031.93
517.116	46060.01
517.318	45918.7
517.52	45904.37
517.722	46287.34
517.925	47014.37
518.127	47448.53
518.329	47466.97
518.531	47253.98
518.733	48265.67
518.935	48648.64
519.136	48642.5
519.338	49365.43
519.54	49324.47
519.742	49879.47
519.944	49918.38
520.146	50514.34
520.348	51003.81
520.55	50938.27
520.752	51358.11
520.954	51624.34
521.155	51368.35
521.357	52248.97
521.559	52269.45
521.761	53248.38
521.963	52568.46
522.164	52986.24
522.366	53447.04
522.568	53840.25
522.77	53750.13
522.971	55083.36
523.173	54038.9
523.375	54561.13
523.576	54430.06
523.778	54481.26
523.98	55578.97
524.181	55794.01
524.383	55349.6
524.584	56437.07
524.786	56355.15
524.988	56322.38
525.189	56664.39
525.391	56766.79
525.592	57192.77
525.794	57393.47
525.995	57725.24
526.197	57348.42
526.398	57368.9
526.6	57956.66
526.801	58433.84
527.003	58378.54
527.204	58011.96
527.406	58542.38
527.607	58353.97
527.808	59060.52
528.01	58261.81
528.211	59009.32
528.412	59521.31
528.614	59611.42
528.815	59539.74
529.016	59326.75
529.218	59351.33
529.419	59445.54
529.62	59502.88
529.822	59664.67
530.023	59877.66
530.224	59990.3
530.425	60137.75
530.626	59492.64
530.828	59453.73
531.029	60551.44
531.23	60066.07
531.431	59791.64
531.632	60289.3
531.833	60303.63
532.035	60303.63
532.236	60268.82
532.437	60418.32
532.638	60195.09
532.839	60649.74
533.04	60576.01
533.241	60000.54
533.442	60879.11
533.643	60455.18
533.844	60129.56
534.045	60561.68
534.246	60031.25
534.447	61169.93
534.648	60451.09
534.849	60897.55
535.05	60369.17
535.251	60688.65
535.451	60502.29
535.652	60637.45
535.853	60047.64
536.054	60901.64
536.255	60778.76
536.456	60403.98
536.657	60803.34
536.857	60117.27
537.058	60322.07
537.259	60416.27
537.46	60360.98
537.66	60197.14
537.861	60416.27
538.062	60700.94
538.263	60541.2
538.463	60694.8
538.664	60403.98
538.865	60201.24
539.065	60811.53
539.266	59625.76
539.466	60696.84
539.667	60129.56
539.868	60852.49
540.068	60242.2
540.269	60244.24
540.469	60401.94
540.67	59765.02
540.87	60346.64
541.071	60107.03
541.271	60453.14
541.472	60375.31
541.672	60053.78
541.873	60430.61
542.073	59449.63
542.274	60117.27
542.474	59810.07
542.675	60039.45
542.875	60543.25
543.075	59918.62
543.276	59228.45
543.476	60459.28
543.676	59797.79
543.877	60109.08
544.077	59801.88
544.277	59769.11
544.478	59744.54
544.678	59361.57
544.878	60109.08
545.078	59597.09
545.279	59539.74
545.479	59449.63
545.679	59590.94
545.879	59597.09
546.079	59662.62
546.28	59636
546.48	58779.95
546.68	59855.13
546.88	60037.4
547.08	59500.83
547.28	59691.29
547.48	58673.45
547.68	59246.88
547.88	59191.59
548.081	59750.68
548.281	58986.79
548.481	59341.09
548.681	59826.46
548.881	59300.13
549.081	59695.39
549.28	58796.33
549.48	59382.05
549.68	58974.5
549.88	59945.24
550.08	59009.32
550.28	58802.47
550.48	59119.91
550.68	59162.92
550.88	58706.22
551.08	59072.81
551.279	58872.1
551.479	58931.5
551.679	58915.11
551.879	58861.86
552.079	59396.38
552.278	58634.54
552.478	58958.12
552.678	58894.63
552.878	58921.26
553.077	59052.33
553.277	58284.34
553.477	59263.27
553.676	58949.93
553.876	58851.62
554.076	58458.41
554.275	58622.25
554.475	58069.3
554.674	58429.74
554.874	58687.79
555.074	58284.34
555.273	58292.53
555.473	58792.23
555.672	58126.64
555.872	58136.88
556.071	58206.51
556.271	58433.84
556.47	58183.99
556.67	57594.17
556.869	58245.43
557.068	58159.41
557.268	58036.53
557.467	57585.98
557.667	57721.15
557.866	57794.87
558.065	58140.98
558.265	57553.21
558.464	57491.77
558.663	57839.93
558.863	57053.51
559.062	57973.05
559.261	57348.42
559.461	58118.45
559.66	56963.4
559.859	57643.32
560.058	56865.09
560.258	57442.62
560.457	56871.24
560.656	57622.84
560.855	57237.83
561.054	57338.18
561.253	56502.6
561.453	56981.83
561.652	57051.46
561.851	57264.45
562.05	56877.38
562.249	56750.41
562.448	57112.9
562.647	56439.12
562.846	56365.39
563.045	56613.19
563.244	56246.61
563.443	56684.87
563.642	55873.88
563.841	56031.57
564.04	55791.96
564.239	56508.75
564.438	55693.66
564.637	55923.03
564.836	56205.65
565.035	55423.32
565.234	55703.9
565.432	55656.79
565.631	55425.37
565.83	55560.54
566.029	55247.2
566.228	55245.15
566.427	55290.21
566.625	55152.99
566.824	54917.48
567.023	55574.87
567.222	54143.34
567.42	55363.93
567.619	55148.9
567.818	54829.41
568.016	54819.17
568.215	55294.3
568.414	54501.74
568.612	54931.81
568.811	54571.37
569.01	54358.38
569.208	53653.88
569.407	54059.38
569.605	53883.25
569.804	54505.83
570.002	53412.22
570.201	54098.29
570.4	53750.13
570.598	53561.72
570.797	53424.51
570.995	53657.98
571.193	53221.76
571.392	53784.95
571.59	53553.53
571.789	53039.49
571.987	53096.83
572.186	52836.74
572.384	52621.7
572.582	53012.87
572.781	52990.34
572.979	52382.09
573.177	52896.13
573.376	52531.59
573.574	52291.98
573.772	52785.54
573.971	51876.24
574.169	52005.27
574.367	51956.11
574.565	52318.6
574.763	51491.22
574.962	51747.22
575.16	51259.8
575.358	51837.33
575.556	51394.97
575.754	51816.85
575.952	50930.08
576.151	51419.55
576.349	50905.51
576.547	51108.25
576.745	51079.58
576.943	51079.58
577.141	50839.97
577.339	50997.66
577.537	50598.31
577.735	50256.3
577.933	49992.11
578.131	50680.23
578.329	50133.42
578.527	50014.64
578.725	50270.64
578.923	50557.35
579.121	49529.27
579.319	49781.17
579.516	49861.04
579.714	49189.31
579.912	49134.01
580.11	49301.95
580.308	49185.21
580.506	49574.33
580.704	48517.57
580.901	48884.16
581.099	49277.37
581.297	48247.24
581.495	48132.56
581.692	48933.31
581.89	48361.93
582.088	48730.56
582.285	48296.39
582.483	48519.62
582.681	48144.84
582.878	47962.57
583.076	47761.87
583.274	47745.49
583.471	47415.77
583.669	47694.29
583.866	47665.62
584.064	47712.72
584.262	46860.77
584.459	47518.17
584.657	46805.47
584.854	47325.66
585.052	46287.34
585.249	46567.91
585.447	46873.06
585.644	46438.89
585.841	46463.46
586.039	46928.35
586.236	45986.28
586.434	45920.75
586.631	45789.68
586.828	45408.76
587.026	45769.2
587.223	46029.29
587.42	45353.46
587.618	45449.72
587.815	45007.36
588.012	44927.49
588.21	44847.61
588.407	45355.51
588.604	45052.41
588.801	44638.72
588.999	44585.47
589.196	44683.78
589.393	44694.02
589.59	44085.77
589.787	43966.99
589.984	44212.74
590.182	43434.52
590.379	43860.49
590.576	43747.86
590.773	43442.71
590.97	43428.37
591.167	43678.22
591.364	42660.38
591.561	43317.78
591.758	42635.81
591.955	42943
592.152	42883.61
592.349	42779.17
592.546	42701.34
592.743	42381.86
592.94	42148.39
593.137	42271.27
593.334	42431.01
593.531	41484.85
593.727	42197.54
593.924	41796.14
594.121	41744.94
594.318	42000.94
594.515	41155.13
594.712	41650.74
594.908	41118.26
595.105	41507.38
595.302	40794.68
595.499	40987.19
595.696	40585.79
595.892	40573.5
596.089	40483.39
596.286	40575.55
596.482	40327.75
596.679	40335.94
596.876	40112.71
597.072	39963.21
597.269	40041.03
597.466	39684.69
597.662	39852.62
597.859	39428.69
598.055	39723.6
598.252	39524.94
598.448	39248.47
598.645	39195.22
598.841	38771.29
599.038	39205.46
599.234	38971.99
599.431	38468.19
599.627	38439.52
599.824	38754.91
600.02	38556.25
600.217	38533.73
600.413	38122.08
600.609	38060.65
600.806	37874.28
601.002	38273.63
601.198	37341.81
601.395	37823.08
601.591	37425.78
601.787	37626.48
601.984	37343.86
602.18	37761.64
602.376	37294.71
602.572	36895.35
602.769	36967.03
602.965	36835.96
603.161	36598.4
603.357	36543.1
603.553	36100.74
603.75	36412.03
603.946	36072.07
604.142	36227.71
604.338	35838.6
604.534	36147.84
604.73	35883.66
604.926	35715.72
605.122	35981.96
605.318	35488.4
605.514	35381.9
605.71	35541.64
605.906	35283.6
606.102	35162.77
606.298	35265.17
606.494	35199.63
606.69	35207.83
606.886	35168.91
607.082	34890.39
607.278	34669.21
607.474	34644.63
607.67	34947.73
607.866	33886.89
608.062	34767.51
608.257	34413.21
608.453	34278.05
608.649	34345.63
608.845	34185.89
609.041	33796.77
609.236	33917.61
609.432	33907.37
609.628	33860.26
609.824	34048.68
610.019	33772.2
610.215	33780.39
610.411	34091.68
610.606	33503.92
610.802	33401.52
610.998	33714.86
611.193	33680.04
611.389	33370.8
611.584	33047.22
611.78	33354.41
611.976	32983.73
612.171	33510.06
612.367	32965.3
612.562	33467.05
612.758	32641.72
612.953	32660.15
613.149	33077.94
613.344	32533.18
613.539	32832.18
613.735	32776.89
613.93	32654.01
614.126	32596.67
614.321	32936.63
614.517	32336.57
614.712	32524.99
614.907	32242.37
615.103	32502.46
615.298	31953.6
615.493	32469.69
615.688	31931.08
615.884	32721.59
616.079	32139.97
616.274	31630.02
616.47	31818.44
616.665	31933.12
616.86	31734.47
617.055	31845.06
617.25	31812.29
617.445	31642.31
617.641	31412.94
617.836	31703.75
618.031	30876.37
618.226	31281.87
618.421	31281.87
618.616	31214.29
618.811	30683.86
619.006	31056.59
619.201	30485.21
619.396	30870.23
619.591	29844.2
619.786	30497.5
619.981	29938.4
620.176	30495.45
620.371	29971.17
620.566	29987.55
620.761	29846.24
620.956	29668.07
621.151	29276.91
621.346	29786.85
621.541	29336.3
621.735	29430.51
621.93	28771.06
622.125	28678.9
622.32	28662.52
622.515	28975.86
622.709	28101.37
622.904	28283.64
623.099	28332.79
623.294	28388.09
623.488	28039.93
623.683	28080.89
623.878	27466.5
624.072	27861.76
624.267	27417.35
624.462	27370.25
624.656	27142.92
624.851	27126.54
625.046	27044.62
625.24	26815.25
625.435	26229.53
625.629	26718.99
625.824	26268.44
626.018	25991.97
626.213	25590.56
626.407	26002.21
626.602	25522.98
626.796	25611.04
626.991	25369.38
627.185	25094.96
627.38	25107.24
627.574	24869.68
627.768	24871.73
627.963	24750.9
628.157	24488.76
628.352	24759.09
628.546	24369.97
628.74	24195.9
628.935	23825.22
629.129	24083.26
629.323	23745.34
629.517	23675.71
629.712	23550.79
629.906	23397.19
630.1	23237.45
630.294	23401.29
630.489	23216.97
630.683	23409.48
630.877	22764.37
631.071	22713.17
631.265	23057.23
631.459	22408.02
631.653	22543.19
631.848	22428.5
632.042	22078.3
632.236	22453.08
632.43	21871.45
632.624	22162.26
632.818	21773.15
633.012	21625.7
633.206	21672.8
633.4	21783.39
633.594	21140.33
633.788	21394.28
633.982	21234.53
634.176	21365.6
634.369	21265.25
634.563	20972.39
634.757	20667.25
634.951	20702.06
635.145	20493.17
635.339	20525.94
635.533	20560.75
635.726	20386.68
635.92	19966.84
636.114	20083.58
636.308	20075.38
636.501	20059
636.695	19571.58
636.889	19776.38
637.083	19733.37
637.276	19381.12
637.47	19372.93
637.664	19002.25
637.857	19319.68
638.051	18977.67
638.244	19045.26
638.438	18795.4
638.632	18733.96
638.825	18662.29
639.019	18752.4
639.212	18516.88
639.406	18332.56
639.599	18373.52
639.793	18156.44
639.986	17812.38
640.18	18312.08
640.373	17963.93
640.567	17857.43
640.76	17841.05
640.954	17752.99
641.147	17562.53
641.34	17335.2
641.534	17529.76
641.727	17292.19
641.92	17419.17
642.114	17079.21
642.307	17036.2
642.5	17097.64
642.694	16647.08
642.887	16704.43
643.08	16677.8
643.273	16827.31
643.467	16634.8
643.66	16499.63
643.853	16307.12
644.046	16108.47
644.239	16386.99
644.432	16360.37
644.626	16112.56
644.819	15827.9
645.012	15733.69
645.205	16001.97
645.398	15729.59
645.591	15594.43
645.784	15901.62
645.977	15444.93
646.17	15639.48
646.363	15354.82
646.556	15021
646.749	15027.14
646.942	15297.47
647.135	15027.14
647.328	15133.64
647.521	15184.83
647.714	14740.43
647.907	14672.84
648.099	14396.37
648.292	14824.39
648.485	14523.34
648.678	14326.74
648.871	14296.02
649.064	14044.12
649.256	14566.35
649.449	14078.93
649.642	13917.14
649.835	14111.7
650.027	13992.92
650.22	13644.76
650.413	13794.26
650.605	13894.61
650.798	13726.68
650.991	13482.97
651.183	13614.04
651.376	13351.9
651.568	13614.04
651.761	13472.73
651.954	13306.85
652.146	13235.17
652.339	13237.22
652.531	12917.73
652.724	12895.21
652.916	12798.95
653.109	12772.33
653.301	12450.8
653.494	12749.8
653.686	12493.8
653.879	12663.79
654.071	12522.48
654.263	12262.38
654.456	12391.41
654.648	12516.33
654.84	12301.29
655.033	12166.13
655.225	12293.1
655.417	12184.56
655.61	12151.79
655.802	12102.64
655.994	11797.49
656.186	11844.6
656.379	11840.5
656.571	11842.55
656.763	11551.74
656.955	11570.17
657.148	11580.41
657.34	11564.03
657.532	11402.24
657.724	11209.73
657.916	11058.18
658.108	11111.43
658.3	11127.81
658.492	11156.48
658.684	10955.78
658.876	11109.38
659.068	11019.27
659.26	10763.27
659.452	10929.16
659.644	10779.65
659.836	10888.2
660.028	10646.54
660.22	10603.53
660.412	10513.42
660.604	10517.51
660.796	10564.62
660.988	10523.66
661.18	10238.99
661.372	10241.04
661.563	9956.37
661.755	10118.16
661.947	10308.62
662.139	10142.74
662.331	10048.53
662.522	9874.45
662.714	9763.86
662.906	9780.25
663.097	10056.72
663.289	9833.49
663.481	9657.37
663.673	9688.09
663.864	9649.18
664.056	9491.48
664.247	9493.53
664.439	9384.99
664.631	9331.74
664.822	9442.33
665.014	9292.83
665.205	9313.31
665.397	9249.82
665.588	9176.09
665.78	8916
665.971	9081.89
666.163	9215.01
666.354	8981.54
666.546	8975.39
666.737	8832.04
666.929	8842.28
667.12	8723.49
667.311	8766.5
667.503	8805.41
667.694	8795.17
667.885	8475.69
668.077	8604.71
668.268	8635.43
668.459	8487.98
668.651	8537.13
668.842	8502.31
669.033	8410.15
669.224	8379.43
669.416	8494.12
669.607	8328.24
669.798	8191.02
669.989	8328.24
670.18	8098.86
670.371	8152.11
670.563	8037.42
670.754	8156.21
670.945	8057.9
671.136	8029.23
671.327	7926.83
671.518	7851.06
671.709	7830.58
671.9	7689.27
672.091	7818.29
672.282	7928.88
672.473	7707.7
672.664	7715.89
672.855	7728.18
673.046	7758.9
673.237	7674.93
673.428	7603.25
673.619	7597.11
673.809	7398.46
674	7525.43
674.191	7377.98
674.382	7320.63
674.573	7416.89
674.764	7351.35
674.954	7351.35
675.145	7236.67
675.336	7183.42
675.527	7275.58
675.717	7214.14
675.908	7126.08
676.099	6952
676.289	7009.34
676.48	7074.88
676.671	6900.8
676.861	7093.31
677.052	7050.3
677.243	6677.57
677.433	6894.66
677.624	6943.81
677.814	6904.9
678.005	6894.66
678.195	6921.28
678.386	7007.3
678.576	6753.35
678.767	6734.92
678.957	6702.15
679.148	6753.35
679.338	6628.42
679.529	6646.85
679.719	6515.78
679.909	6571.08
680.1	6433.86
680.29	6673.48
680.481	6552.65
680.671	6614.09
680.861	6558.79
681.052	6384.71
681.242	6302.79
681.432	6394.95
681.622	6237.26
681.813	6364.23
682.003	6407.24
682.193	6397
682.383	6253.64
682.573	6306.89
682.764	6165.58
682.954	6194.25
683.144	6302.79
683.334	6143.05
683.524	6067.28
683.714	6161.48
683.904	6050.89
684.094	6206.54
684.284	6098
684.474	6061.13
684.664	6091.85
684.854	6071.37
685.044	6014.03
685.234	5905.49
685.424	5780.56
685.614	5993.55
685.804	5942.35
685.994	5946.45
686.184	5755.99
686.374	5813.33
686.564	5762.13
686.753	5786.71
686.943	5772.37
687.133	5805.14
687.323	5686.36
687.513	5602.39
687.702	5475.42
687.892	5596.25
688.082	5508.18
688.272	5569.62
688.461	5700.69
688.651	5354.58
688.841	5459.03
689.03	5475.42
689.22	5426.26
689.41	5381.21
689.599	5342.3
689.789	5330.01
689.979	5282.91
690.168	5266.52
690.358	5323.87
690.547	5157.98
690.737	5258.33
690.926	5231.71
691.116	5028.96
691.305	5162.08
691.495	5000.29
691.684	5024.86
691.874	5141.6
692.063	5016.67
692.252	4953.18
692.442	4975.71
692.631	4881.5
692.82	4867.17
693.01	4830.3
693.199	4897.89
693.388	4840.54
693.578	4824.16
693.767	4856.93
693.956	4848.74
694.146	4715.62
694.335	4764.77
694.524	4625.51
694.713	4658.28
694.902	4854.88
695.092	4641.89
695.281	4564.07
695.47	4523.11
695.659	4654.18
695.848	4635.75
696.037	4592.74
696.226	4621.41
696.415	4488.29
696.604	4410.47
696.793	4299.88
696.982	4422.76
697.171	4373.61
697.36	4473.96
697.549	4334.7
697.738	4389.99
697.927	4271.21
698.116	4232.3
698.305	4295.79
698.494	4195.43
698.683	4273.26
698.872	4310.12
699.061	4306.02
699.25	4240.49
699.438	4168.81
699.627	4021.36
699.816	4252.78
700.005	4244.59
700.193	4007.02
700.382	4131.95
700.571	4170.86
700.76	4152.43
700.948	4189.29
701.137	3974.25
701.326	4093.04
701.514	4097.13
701.703	3980.4
701.892	3959.92
702.08	4060.27
702.269	4035.69
702.457	3875.95
702.646	4080.75
702.834	3933.29
703.023	4023.41
703.212	4080.75
703.4	3904.62
703.589	3847.28
703.777	3822.7
703.965	4013.17
704.154	3871.86
704.342	3824.75
704.531	3894.38
704.719	3972.21
704.907	3923.05
705.096	3812.46
705.284	3882.1
705.472	3890.29
705.661	3812.46
705.849	3785.84
706.037	3781.74
706.226	3783.79
706.414	3722.35
706.602	3699.83
706.79	3828.85
706.979	3548.28
707.167	3800.18
707.355	3640.44
707.543	3718.26
707.731	3685.49
707.919	3656.82
708.107	3665.01
708.296	3800.18
708.484	3542.13
708.672	3658.87
708.86	3759.22
709.048	3658.87
709.236	3634.29
709.424	3597.43
709.612	3636.34
709.8	3675.25
709.988	3562.61
710.176	3574.9
710.364	3544.18
710.551	3554.42
710.739	3501.17
710.927	3462.26
711.115	3460.21
711.303	3503.22
711.491	3490.93
711.679	3409.01
711.866	3609.72
712.054	3699.83
712.242	3488.89
712.43	3568.76
712.617	3546.23
712.805	3454.07
712.993	3544.18
713.181	3411.06
713.368	3599.48
713.556	3490.93
713.744	3302.52
713.931	3431.54
714.119	3413.11
714.306	3402.87
714.494	3351.67
714.682	3429.49
714.869	3372.15
715.057	3267.7
715.244	3443.83
715.432	3488.89
715.619	3333.24
715.807	3400.82
715.994	3404.92
716.182	3435.64
716.369	3290.23
716.556	3400.82
716.744	3247.23
716.931	3376.25
717.119	3445.88
717.306	3431.54
717.493	3361.91
717.681	3353.72
717.868	3464.31
718.055	3490.93
718.242	3425.4
718.43	3308.66
718.617	3175.55
718.804	3351.67
718.991	3286.14
719.179	3384.44
719.366	3333.24
719.553	3331.19
719.74	3378.3
719.927	3214.46
720.114	3282.04
720.301	3277.94
720.488	3288.18
720.676	3349.62
720.863	3255.42
721.05	3304.57
721.237	3267.7
721.424	3318.9
721.611	3239.03
721.798	3239.03
721.985	3200.12
722.172	3353.72
722.358	3370.1
722.545	3265.66
722.732	3316.86
722.919	3189.88
723.106	3298.42
723.293	3267.7
723.48	3226.75
723.667	3325.05
723.853	3146.87
724.04	3282.04
724.227	3308.66
724.414	3193.98
724.6	3243.13
724.787	3249.27
724.974	3255.42
725.161	3337.34
725.347	3128.44
725.534	3259.51
725.72	3128.44
725.907	3228.79
726.094	3155.07
726.28	3296.38
726.467	3196.03
726.653	3175.55
726.84	3271.8
727.027	3253.37
727.213	3226.75
727.4	3155.07
727.586	3103.87
727.773	3273.85
727.959	3202.17
728.145	3191.93
728.332	3210.36
728.518	3146.87
728.705	3380.34
728.891	3282.04
729.077	3167.35
729.264	3204.22
729.45	3251.32
729.636	3224.7
729.823	3128.44
730.009	3204.22
730.195	3296.38
730.382	3206.27
730.568	3163.26
730.754	3175.55
730.94	3169.4
731.126	3208.31
731.313	3196.03
731.499	3306.62
731.685	3284.09
731.871	3247.23
732.057	3279.99
732.243	3210.36
732.429	3081.34
732.615	3216.51
732.801	3216.51
732.987	3216.51
733.173	3282.04
733.359	3239.03
733.545	3302.52
733.731	3204.22
733.917	3323
734.103	3351.67
734.289	3202.17
734.475	3177.59
734.661	3271.8
734.847	3351.67
735.033	3189.88
735.219	3269.75
735.404	3275.9
735.59	3226.75
735.776	3157.11
735.962	3259.51
736.148	3314.81
736.333	3376.25
736.519	3282.04
736.705	3255.42
736.89	3079.29
737.076	3300.47
737.262	3167.35
737.447	3110.01
737.633	3206.27
737.819	3189.88
738.004	3163.26
738.19	3165.31
738.375	3175.55
738.561	3175.55
738.747	3155.07
738.932	3306.62
739.118	3179.64
739.303	3155.07
739.489	3101.82
739.674	3087.48
739.859	3236.99
740.045	3271.8
740.23	3095.68
740.416	3228.79
740.601	3234.94
740.786	3118.2
740.972	3159.16
741.157	3212.41
741.342	3114.11
741.528	3122.3
741.713	3110.01
741.898	3165.31
742.084	3087.48
742.269	3064.96
742.454	3150.97
742.639	3251.32
742.824	3038.33
743.01	3183.74
743.195	3062.91
743.38	3001.47
743.565	3159.16
743.75	3140.73
743.935	3116.16
744.12	2995.32
744.305	3015.8
744.49	3193.98
744.675	3009.66
744.86	3062.91
745.045	3122.3
745.23	3058.81
745.415	3013.76
745.6	3093.63
745.785	2868.35
745.97	2970.75
746.155	2952.32
746.34	3026.04
746.525	2978.94
746.71	3077.24
746.895	2847.87
747.079	2874.49
747.264	2964.61
747.449	2954.37
747.634	2960.51
747.819	2864.25
748.003	2956.41
748.188	2817.15
748.373	2837.63
748.557	2696.32
748.742	2784.38
748.927	2630.79
749.111	2749.57
749.296	2651.27
749.481	2851.97
749.665	2686.08
749.85	2749.57
750.034	2763.9
750.219	2759.81
750.404	2663.55
750.588	2692.23
750.773	2636.93
750.957	2733.18
751.141	2692.23
751.326	2692.23
751.51	2589.83
751.695	2628.74
751.879	2555.01
752.064	2692.23
752.248	2532.48
752.432	2628.74
752.617	2555.01
752.801	2471.04
752.985	2667.65
753.17	2503.81
753.354	2618.5
753.538	2477.19
753.722	2440.33
753.907	2505.86
754.091	2368.65
754.275	2389.13
754.459	2454.66
754.643	2348.17
754.828	2331.78
755.012	2370.69
755.196	2315.4
755.38	2282.63
755.564	2313.35
755.748	2217.1
755.932	2348.17
756.116	2331.78
756.3	2182.28
756.484	2188.43
756.668	2198.67
756.852	2102.41
757.036	2200.71
757.22	2210.95
757.404	2217.1
757.588	2176.14
757.772	2133.13
757.956	2210.95
758.14	2061.45
758.323	2057.36
758.507	2045.07
758.691	2032.78
758.875	2100.36
759.059	2022.54
759.242	2008.2
759.426	2030.73
759.61	2063.5
759.794	1909.9
759.977	2047.12
760.161	2106.51
760.345	1997.96
760.528	1914
760.712	1858.7
760.895	1977.48
761.079	1848.46
761.263	1862.8
761.446	1903.76
761.63	1911.95
761.813	1963.15
761.997	1897.61
762.18	1856.65
762.364	1823.89
762.547	1805.46
762.731	1795.22
762.914	1885.33
763.098	1799.31
763.281	1838.22
763.464	1827.98
763.648	1803.41
763.831	1791.12
764.015	1760.4
764.198	1782.93
764.381	1748.11
764.564	1766.54
764.748	1688.72
764.931	1729.68
765.114	1748.11
765.297	1744.02
765.481	1791.12
765.664	1703.06
765.847	1647.76
766.03	1744.02
766.213	1649.81
766.397	1696.91
766.58	1662.1
766.763	1727.63
766.946	1727.63
767.129	1776.78
767.312	1614.99
767.495	1709.2
767.678	1651.86
767.861	1760.4
768.044	1645.71
768.227	1627.28
768.41	1594.51
768.593	1633.43
768.776	1502.36
768.959	1617.04
769.142	1555.6
769.324	1612.95
769.507	1488.02
769.69	1557.65
769.873	1500.31
770.056	1586.32
770.239	1604.75
770.421	1569.94
770.604	1539.22
770.787	1598.61
770.97	1565.84
771.152	1442.96
771.335	1457.3
771.518	1549.46
771.7	1520.79
771.883	1465.49
772.066	1498.26
772.248	1483.92
772.431	1461.4
772.613	1543.32
772.796	1371.29
772.978	1393.81
773.161	1440.92
773.343	1393.81
773.526	1485.97
773.708	1373.33
773.891	1395.86
774.073	1295.51
774.256	1512.6
774.438	1399.96
774.621	1416.34
774.803	1359
774.985	1359
775.168	1320.09
775.35	1311.89
775.532	1340.57
775.715	1215.64
775.897	1170.58
776.079	1344.66
776.261	1258.65
776.444	1221.78
776.626	1318.04
776.808	1225.88
776.99	1131.67
777.173	1238.17
777.355	1195.16
777.537	1168.54
777.719	1234.07
777.901	1129.63
778.083	1125.53
778.265	1068.19
778.447	1105.05
778.629	1119.39
778.811	1137.82
778.993	1137.82
779.175	1133.72
779.357	1117.34
779.539	1070.23
779.721	1090.71
779.903	1033.37
780.085	1066.14
780.267	1023.13
780.449	1127.58
780.631	1031.32
780.812	1006.75
780.994	924.83
781.176	1045.66
781.358	1023.13
781.54	945.31
781.721	996.51
781.903	1033.37
782.085	996.51
782.267	1074.33
782.448	961.69
782.63	992.41
782.812	976.03
782.993	912.54
783.175	992.41
783.357	943.26
783.538	883.87
783.72	867.49
783.901	947.36
784.083	924.83
784.264	816.29
784.446	830.62
784.627	847.01
784.809	887.97
784.99	842.91
785.172	914.59
785.353	926.88
785.535	824.48
785.716	824.48
785.897	773.28
786.079	765.09
786.26	765.09
786.441	769.18
786.623	820.38
786.804	756.9
786.985	810.14
787.167	738.46
787.348	754.85
787.529	767.13
787.71	826.53
787.891	785.57
788.073	736.42
788.254	699.55
788.435	713.89
788.616	726.18
788.797	732.32
788.978	668.83
789.159	672.93
789.34	662.69
789.522	691.36
789.703	703.65
789.884	720.03
790.065	658.59
790.246	670.88
790.427	687.26
790.607	627.87
790.788	685.22
790.969	531.62
791.15	621.73
791.331	580.77
791.512	576.67
791.693	550.05
791.874	681.12
792.054	640.16
792.235	685.22
792.416	674.98
792.597	586.91
792.778	631.97
792.958	572.58
793.139	597.15
793.32	611.49
793.5	605.35
793.681	638.11
793.862	650.4
794.042	568.48
794.223	591.01
794.404	644.26
794.584	529.57
794.765	504.99
794.945	683.17
795.126	550.05
795.306	564.39
795.487	537.76
795.667	541.86
795.848	550.05
796.028	556.19
796.209	607.39
796.389	527.52
796.57	566.43
796.75	531.62
796.93	525.47
797.111	484.52
797.291	492.71
797.471	410.79
797.652	431.27
797.832	412.84
798.012	550.05
798.192	545.95
798.373	504.99
798.553	468.13
798.733	461.99
798.913	453.8
799.093	480.42
799.274	515.23
799.454	502.95
799.634	451.75
799.814	504.99
799.994	431.27
800.174	459.94
800.354	412.84
800.534	423.08
800.714	439.46
800.894	504.99
801.074	418.98
801.254	451.75
801.434	408.74
801.614	359.59
801.794	410.79
801.974	1045.66
802.154	378.02
802.334	437.41
802.514	418.98
802.693	404.64
802.873	400.55
803.053	445.6
803.233	482.47
803.413	361.64
803.592	439.46
803.772	347.3
803.952	386.21
804.131	416.93
804.311	431.27
804.491	421.03
804.67	416.93
804.85	392.36
805.03	400.55
805.209	443.56
805.389	380.07
805.568	406.69
805.748	390.31
805.928	416.93
806.107	335.01
806.287	418.98
806.466	404.64
806.646	277.67
806.825	418.98
807.004	361.64
807.184	431.27
807.363	355.49
807.543	353.45
807.722	337.06
807.901	390.31
808.081	300.2
808.26	234.66
808.439	308.39
808.619	429.22
808.798	373.92
808.977	359.59
809.156	373.92
809.336	351.4
809.515	316.58
809.694	294.05
809.873	398.5
810.052	357.54
810.231	355.49
810.411	271.53
810.59	296.1
810.769	357.54
810.948	308.39
811.127	265.38
811.306	328.87
811.485	255.14
811.664	283.81
811.843	308.39
812.022	304.29
812.201	232.62
812.38	277.67
812.559	275.62
812.737	375.97
812.916	287.91
813.095	369.83
813.274	339.11
813.453	332.97
813.632	308.39
813.811	285.86
813.989	255.14
814.168	310.44
814.347	216.23
814.526	347.3
814.704	218.28
814.883	300.2
815.062	351.4
815.24	359.59
815.419	208.04
815.598	330.92
815.776	267.43
815.955	314.53
816.133	251.05
816.312	257.19
816.49	273.57
816.669	203.94
816.847	275.62
817.026	259.24
817.204	283.81
817.383	205.99
817.561	322.73
817.74	251.05
817.918	234.66
818.097	255.14
818.275	287.91
818.453	210.09
818.632	310.44
818.81	263.33
818.988	300.2
819.167	228.52
819.345	165.03
819.523	271.53
819.701	165.03
819.879	214.18
820.058	195.75
820.236	226.47
820.414	224.42
820.592	142.5
820.77	185.51
820.948	238.76
821.127	169.13
821.305	249
821.483	222.38
821.661	292.01
821.839	160.94
822.017	160.94
822.195	255.14
822.373	273.57
822.551	179.37
822.729	257.19
822.907	181.42
823.085	246.95
823.262	195.75
823.44	277.67
823.618	191.66
823.796	224.42
823.974	193.7
824.152	185.51
824.329	203.94
824.507	216.23
824.685	226.47
824.863	191.66
825.04	302.25
825.218	220.33
825.396	216.23
825.574	187.56
825.751	224.42
825.929	222.38
826.107	214.18
826.284	218.28
826.462	232.62
826.639	249
826.817	187.56
826.994	191.66
827.172	181.42
827.349	242.85
827.527	144.55
827.704	205.99
827.882	244.9
828.059	146.6
828.237	171.18
828.414	169.13
828.591	95.4
828.769	162.98
828.946	128.17
829.124	156.84
829.301	201.9
829.478	220.33
829.655	148.65
829.833	171.18
830.01	216.23
830.187	158.89
830.364	165.03
830.542	191.66
830.719	113.83
830.896	181.42
831.073	142.5
831.25	160.94
831.427	232.62
831.604	169.13
831.782	156.84
831.959	189.61
832.136	146.6
832.313	191.66
832.49	191.66
832.667	171.18
832.844	132.26
833.021	191.66
833.198	79.02
833.374	183.46
833.551	142.5
833.728	134.31
833.905	115.88
834.082	113.83
834.259	171.18
834.436	203.94
834.612	119.98
834.789	107.69
834.966	189.61
835.143	156.84
835.319	89.26
835.496	72.87
835.673	79.02
835.85	107.69
836.026	189.61
836.203	99.5
836.38	183.46
836.556	144.55
836.733	124.07
836.909	146.6
837.086	91.31
837.262	89.26
837.439	117.93
837.616	136.36
837.792	212.14
837.968	150.7
838.145	76.97
838.321	93.35
838.498	111.78
838.674	212.14
838.851	160.94
839.027	142.5
839.203	152.74
839.38	132.26
839.556	150.7
839.732	128.17
839.909	142.5
840.085	126.12
840.261	60.59
840.437	126.12
840.614	87.21
840.79	119.98
840.966	140.46
841.142	105.64
841.318	91.31
841.494	101.55
841.671	134.31
841.847	119.98
842.023	74.92
842.199	156.84
842.375	187.56
842.551	52.39
842.727	76.97
842.903	122.02
843.079	87.21
843.255	64.68
843.431	132.26
843.607	117.93
843.783	70.83
843.959	119.98
844.134	68.78
844.31	160.94
844.486	115.88
844.662	52.39
844.838	122.02
845.013	146.6
845.189	119.98
845.365	99.5
845.541	105.64
845.716	158.89
845.892	122.02
846.068	87.21
846.244	126.12
846.419	177.32
846.595	76.97
846.77	91.31
846.946	74.92
847.122	128.17
847.297	64.68
847.473	171.18
847.648	68.78
847.824	105.64
847.999	74.92
848.175	142.5
848.35	89.26
848.526	148.65
848.701	134.31
848.876	138.41
849.052	150.7
849.227	199.85
849.403	76.97
849.578	122.02
849.753	105.64
849.929	87.21
850.104	58.54
850.279	111.78
850.454	62.63
850.63	187.56
850.805	99.5
850.98	146.6
851.155	128.17
851.33	136.36
851.505	-37.72
851.681	107.69
851.856	79.02
852.031	150.7
852.206	64.68
852.381	54.44
852.556	79.02
852.731	27.82
852.906	107.69
853.081	103.59
853.256	165.03
853.431	126.12
853.606	152.74
853.781	142.5
853.956	68.78
854.131	154.79
854.305	50.35
854.48	105.64
854.655	38.06
854.83	58.54
855.005	107.69
855.18	64.68
855.354	85.16
855.529	38.06
855.704	79.02
855.879	119.98
856.053	103.59
856.228	46.25
856.403	72.87
856.577	99.5
856.752	42.15
856.926	38.06
857.101	13.48
857.276	72.87
857.45	97.45
857.625	97.45
857.799	52.39
857.974	54.44
858.148	56.49
858.323	126.12
858.497	70.83
858.672	79.02
858.846	79.02
859.02	158.89
859.195	38.06
859.369	109.74
859.543	40.11
859.718	97.45
859.892	52.39
860.066	25.77
860.241	175.27
860.415	103.59
860.589	40.11
860.763	85.16
860.938	74.92
861.112	72.87
861.286	119.98
861.46	105.64
861.634	9.39
861.808	27.82
861.982	99.5
862.157	25.77
862.331	93.35
862.505	27.82
862.679	36.01
862.853	56.49
863.027	56.49
863.201	87.21
863.375	-39.76
863.549	79.02
863.722	52.39
863.896	126.12
864.07	52.39
864.244	42.15
864.418	89.26
864.592	158.89
864.766	81.07
864.939	56.49
865.113	21.67
865.287	79.02
865.461	1.19
865.634	111.78
865.808	13.48
865.982	115.88
866.156	-17.24
866.329	3.24
866.503	42.15
866.676	148.65
866.85	81.07
867.024	17.58
867.197	87.21
867.371	101.55
867.544	44.2
867.718	81.07
867.891	105.64
868.065	36.01
868.238	79.02
868.412	146.6
868.585	79.02
868.759	83.11
868.932	70.83
869.105	-0.85
869.279	29.87
869.452	-13.14
869.625	76.97
869.799	68.78
869.972	42.15
870.145	42.15
870.319	44.2
870.492	23.72
870.665	124.07
870.838	46.25
871.011	7.34
871.185	40.11
871.358	-19.29
871.531	54.44
871.704	-33.62
871.877	50.35
872.05	95.4
872.223	-0.85
872.396	107.69
872.569	25.77
872.742	54.44
872.915	66.73
873.088	-15.19
873.261	9.39
873.434	101.55
873.607	70.83
873.78	105.64
873.953	11.43
874.126	50.35
874.299	33.96
874.471	38.06
874.644	93.35
874.817	97.45
874.99	56.49
875.163	117.93
875.335	76.97
875.508	38.06
875.681	50.35
875.853	27.82
876.026	33.96
876.199	66.73
876.371	83.11
876.544	54.44
876.717	23.72
876.889	52.39
877.062	11.43
877.234	17.58
877.407	29.87
877.579	70.83
877.752	66.73
877.924	103.59
878.097	50.35
878.269	105.64
878.442	21.67
878.614	50.35
878.786	58.54
878.959	101.55
879.131	40.11
879.303	-4.95
879.476	36.01
879.648	81.07
879.82	48.3
879.993	83.11
880.165	19.63
880.337	48.3
880.509	38.06
880.681	97.45
880.854	-11.09
881.026	74.92
881.198	27.82
881.37	25.77
881.542	48.3
881.714	-7
881.886	79.02
882.058	103.59
882.23	5.29
882.402	9.39
882.574	50.35
882.746	54.44
882.918	13.48
883.09	50.35
883.262	56.49
883.434	48.3
883.606	15.53
883.778	36.01
883.95	52.39
884.122	66.73
884.293	111.78
884.465	11.43
884.637	38.06
884.809	-27.48
884.98	72.87
885.152	76.97
885.324	62.63
885.496	-47.96
885.667	36.01
885.839	33.96
886.011	46.25
886.182	60.59
886.354	7.34
886.525	21.67
886.697	74.92
886.869	23.72
887.04	19.63
887.212	52.39
887.383	107.69
887.555	-4.95
887.726	126.12
887.897	15.53
888.069	-2.9
888.24	36.01
888.412	15.53
888.583	40.11
888.754	93.35
888.926	-15.19
889.097	-7
889.268	25.77
889.44	119.98
889.611	-29.52
889.782	29.87
889.953	9.39
890.125	52.39
890.296	36.01
890.467	52.39
890.638	48.3
890.809	48.3
890.98	-11.09
891.151	-17.24
891.323	29.87
891.494	113.83
891.665	85.16
891.836	-4.95
892.007	25.77
892.178	-9.05
892.349	50.35
892.52	-23.38
892.691	64.68
892.862	60.59
893.032	40.11
893.203	79.02
893.374	87.21
893.545	70.83
893.716	54.44
893.887	68.78
894.057	-33.62
894.228	56.49
894.399	17.58
894.57	87.21
894.74	52.39
894.911	-9.05
895.082	27.82
895.253	40.11
895.423	-25.43
895.594	40.11
895.764	46.25
895.935	-21.33
896.106	93.35
896.276	60.59
896.447	23.72
896.617	-2.9
896.788	11.43
896.958	-0.85
897.129	40.11
897.299	5.29
897.47	68.78
897.64	31.91
897.81	31.91
897.981	54.44
898.151	-35.67
898.322	15.53
898.492	72.87
898.662	62.63
898.832	-45.91
899.003	-0.85
899.173	48.3
899.343	23.72
899.513	36.01
