Data from USB4F104151__59__12-42-00-679.txt Node

Date: Fri Mar 14 12:42:00 EDT 2025
User: louis
Spectrometer: USB4F10415
Trigger mode: 4
Integration Time (sec): 3.000000E-2
Scans to average: 1
Electric dark correction enabled: true
Nonlinearity correction enabled: false
Boxcar width: 0
XAxis mode: Wavelengths
Number of Pixels in Spectrum: 3648
>>>>>Begin Spectral Data<<<<<
178.204	-118.61
178.424	-118.61
178.644	-118.61
178.864	-98.13
179.084	-120.66
179.304	-1.88
179.524	-42.84
179.744	-67.41
179.964	24.75
180.184	26.79
180.404	80.04
180.624	0.17
180.844	-5.97
181.064	-24.4
181.283	-26.45
181.503	-20.31
181.723	57.51
181.943	0.17
182.163	-5.97
182.383	49.32
182.602	-12.12
182.822	8.36
183.042	6.31
183.262	41.13
183.482	24.75
183.701	0.17
183.921	100.52
184.141	-28.5
184.361	69.8
184.58	22.7
184.8	-16.21
185.02	4.27
185.239	20.65
185.459	86.19
185.679	26.79
185.898	-24.4
186.118	32.94
186.338	18.6
186.557	14.51
186.777	22.7
186.997	-16.21
187.216	-5.97
187.436	75.95
187.655	30.89
187.875	151.72
188.095	-38.74
188.314	6.31
188.534	59.56
188.753	-67.41
188.973	45.23
189.192	39.08
189.412	73.9
189.631	2.22
189.851	-59.22
190.07	37.03
190.29	0.17
190.509	75.95
190.729	39.08
190.948	65.71
191.168	67.75
191.387	86.19
191.607	2.22
191.826	57.51
192.045	55.47
192.265	32.94
192.484	12.46
192.704	92.33
192.923	-26.45
193.142	92.33
193.362	0.17
193.581	73.9
193.8	4.27
194.02	77.99
194.239	127.14
194.458	49.32
194.678	39.08
194.897	-12.12
195.116	24.75
195.335	77.99
195.555	51.37
195.774	28.84
195.993	34.99
196.212	-20.31
196.432	57.51
196.651	-20.31
196.87	-26.45
197.089	155.82
197.308	24.75
197.528	102.57
197.747	84.14
197.966	26.79
198.185	63.66
198.404	18.6
198.623	49.32
198.842	18.6
199.062	24.75
199.281	4.27
199.5	26.79
199.719	51.37
199.938	114.86
200.157	67.75
200.376	96.43
200.595	77.99
200.814	63.66
201.033	26.79
201.252	22.7
201.471	86.19
201.69	90.28
201.909	30.89
202.128	80.04
202.347	45.23
202.566	34.99
202.785	-8.02
203.004	-3.93
203.223	139.43
203.442	-28.5
203.661	51.37
203.879	53.42
204.098	100.52
204.317	2.22
204.536	92.33
204.755	24.75
204.974	-28.5
205.193	4.27
205.411	43.18
205.63	94.38
205.849	61.61
206.068	75.95
206.287	26.79
206.505	59.56
206.724	57.51
206.943	26.79
207.162	-24.4
207.381	41.13
207.599	77.99
207.818	57.51
208.037	61.61
208.255	28.84
208.474	24.75
208.693	34.99
208.911	26.79
209.13	77.99
209.349	-34.64
209.567	-5.97
209.786	28.84
210.005	26.79
210.223	-8.02
210.442	-3.93
210.661	8.36
210.879	30.89
211.098	8.36
211.316	-5.97
211.535	53.42
211.753	-14.17
211.972	30.89
212.191	-18.26
212.409	37.03
212.628	43.18
212.846	86.19
213.065	28.84
213.283	80.04
213.502	75.95
213.72	37.03
213.938	8.36
214.157	34.99
214.375	57.51
214.594	2.22
214.812	12.46
215.031	51.37
215.249	53.42
215.467	102.57
215.686	37.03
215.904	26.79
216.122	41.13
216.341	71.85
216.559	55.47
216.778	63.66
216.996	86.19
217.214	51.37
217.432	20.65
217.651	39.08
217.869	8.36
218.087	37.03
218.306	65.71
218.524	47.27
218.742	-12.12
218.96	88.23
219.179	8.36
219.397	59.56
219.615	84.14
219.833	80.04
220.051	-22.36
220.27	28.84
220.488	-16.21
220.706	30.89
220.924	4.27
221.142	51.37
221.36	18.6
221.578	88.23
221.796	30.89
222.015	28.84
222.233	45.23
222.451	94.38
222.669	4.27
222.887	67.75
223.105	-8.02
223.323	90.28
223.541	34.99
223.759	92.33
223.977	-55.12
224.195	92.33
224.413	59.56
224.631	61.61
224.849	22.7
225.067	77.99
225.285	73.9
225.503	2.22
225.721	-34.64
225.939	43.18
226.157	67.75
226.375	84.14
226.592	47.27
226.81	59.56
227.028	39.08
227.246	127.14
227.464	10.41
227.682	102.57
227.9	30.89
228.117	51.37
228.335	57.51
228.553	10.41
228.771	65.71
228.989	45.23
229.206	80.04
229.424	16.55
229.642	24.75
229.86	-3.93
230.077	98.47
230.295	43.18
230.513	39.08
230.731	63.66
230.948	55.47
231.166	2.22
231.384	34.99
231.601	2.22
231.819	-30.55
232.037	10.41
232.254	39.08
232.472	53.42
232.689	22.7
232.907	45.23
233.125	-3.93
233.342	4.27
233.56	-5.97
233.777	24.75
233.995	22.7
234.213	6.31
234.43	0.17
234.648	71.85
234.865	71.85
235.083	98.47
235.3	-3.93
235.518	123.05
235.735	84.14
235.953	98.47
236.17	37.03
236.388	32.94
236.605	-14.17
236.822	8.36
237.04	53.42
237.257	82.09
237.475	32.94
237.692	6.31
237.909	-38.74
238.127	82.09
238.344	65.71
238.562	28.84
238.779	61.61
238.996	88.23
239.214	28.84
239.431	39.08
239.648	41.13
239.865	80.04
240.083	104.62
240.3	75.95
240.517	41.13
240.735	26.79
240.952	75.95
241.169	92.33
241.386	20.65
241.603	0.17
241.821	0.17
242.038	51.37
242.255	28.84
242.472	-22.36
242.689	34.99
242.907	106.67
243.124	-36.69
243.341	-18.26
243.558	-22.36
243.775	-30.55
243.992	22.7
244.209	34.99
244.426	90.28
244.643	30.89
244.86	39.08
245.078	24.75
245.295	-3.93
245.512	106.67
245.729	-30.55
245.946	147.62
246.163	71.85
246.38	-20.31
246.597	32.94
246.814	0.17
247.031	26.79
247.248	18.6
247.464	51.37
247.681	47.27
247.898	106.67
248.115	2.22
248.332	2.22
248.549	75.95
248.766	86.19
248.983	6.31
249.2	75.95
249.417	125.1
249.633	-59.22
249.85	57.51
250.067	55.47
250.284	22.7
250.501	116.9
250.717	20.65
250.934	12.46
251.151	63.66
251.368	37.03
251.585	90.28
251.801	61.61
252.018	2.22
252.235	88.23
252.451	69.8
252.668	-89.94
252.885	41.13
253.102	10.41
253.318	28.84
253.535	-8.02
253.752	-5.97
253.968	18.6
254.185	-55.12
254.401	4.27
254.618	-59.22
254.835	-42.84
255.051	14.51
255.268	69.8
255.484	104.62
255.701	77.99
255.917	84.14
256.134	-32.6
256.351	-16.21
256.567	-55.12
256.784	65.71
257	8.36
257.217	30.89
257.433	43.18
257.65	63.66
257.866	14.51
258.082	-1.88
258.299	-10.07
258.515	86.19
258.732	-20.31
258.948	49.32
259.165	30.89
259.381	65.71
259.597	100.52
259.814	-30.55
260.03	28.84
260.246	-3.93
260.463	92.33
260.679	82.09
260.895	49.32
261.112	32.94
261.328	34.99
261.544	4.27
261.761	110.76
261.977	51.37
262.193	-14.17
262.409	98.47
262.626	59.56
262.842	22.7
263.058	18.6
263.274	45.23
263.49	98.47
263.707	49.32
263.923	34.99
264.139	10.41
264.355	30.89
264.571	94.38
264.787	63.66
265.004	41.13
265.22	26.79
265.436	30.89
265.652	-16.21
265.868	24.75
266.084	18.6
266.3	24.75
266.516	-32.6
266.732	8.36
266.948	65.71
267.164	88.23
267.38	20.65
267.596	59.56
267.812	118.95
268.028	30.89
268.244	39.08
268.46	10.41
268.676	61.61
268.892	71.85
269.108	73.9
269.324	94.38
269.54	-32.6
269.756	106.67
269.972	-26.45
270.188	34.99
270.403	-8.02
270.619	51.37
270.835	55.47
271.051	34.99
271.267	26.79
271.483	14.51
271.698	12.46
271.914	34.99
272.13	26.79
272.346	55.47
272.562	2.22
272.777	104.62
272.993	43.18
273.209	16.55
273.425	77.99
273.64	32.94
273.856	30.89
274.072	-12.12
274.287	61.61
274.503	118.95
274.719	26.79
274.934	-57.17
275.15	-14.17
275.366	-26.45
275.581	28.84
275.797	51.37
276.012	77.99
276.228	41.13
276.444	39.08
276.659	80.04
276.875	55.47
277.09	37.03
277.306	118.95
277.521	141.48
277.737	37.03
277.952	49.32
278.168	51.37
278.383	39.08
278.599	71.85
278.814	129.19
279.03	106.67
279.245	51.37
279.461	65.71
279.676	75.95
279.892	34.99
280.107	-8.02
280.322	0.17
280.538	32.94
280.753	71.85
280.969	28.84
281.184	55.47
281.399	55.47
281.615	100.52
281.83	18.6
282.045	-1.88
282.26	43.18
282.476	8.36
282.691	86.19
282.906	71.85
283.122	18.6
283.337	-16.21
283.552	59.56
283.767	-42.84
283.983	8.36
284.198	8.36
284.413	43.18
284.628	14.51
284.843	82.09
285.058	-1.88
285.274	65.71
285.489	-83.8
285.704	-12.12
285.919	41.13
286.134	57.51
286.349	43.18
286.564	-44.88
286.779	90.28
286.995	-12.12
287.21	10.41
287.425	116.9
287.64	2.22
287.855	59.56
288.07	0.17
288.285	71.85
288.5	86.19
288.715	73.9
288.93	18.6
289.145	12.46
289.36	53.42
289.575	14.51
289.79	192.68
290.004	-26.45
290.219	59.56
290.434	14.51
290.649	92.33
290.864	32.94
291.079	43.18
291.294	57.51
291.509	8.36
291.724	90.28
291.938	12.46
292.153	41.13
292.368	16.55
292.583	39.08
292.798	53.42
293.012	-16.21
293.227	34.99
293.442	61.61
293.657	75.95
293.871	65.71
294.086	123.05
294.301	67.75
294.516	49.32
294.73	41.13
294.945	-26.45
295.16	45.23
295.374	75.95
295.589	51.37
295.804	-3.93
296.018	67.75
296.233	104.62
296.447	61.61
296.662	51.37
296.877	114.86
297.091	47.27
297.306	55.47
297.52	18.6
297.735	12.46
297.949	59.56
298.164	22.7
298.378	22.7
298.593	12.46
298.807	96.43
299.022	77.99
299.236	92.33
299.451	32.94
299.665	59.56
299.88	-3.93
300.094	67.75
300.309	37.03
300.523	90.28
300.737	41.13
300.952	51.37
301.166	0.17
301.381	10.41
301.595	63.66
301.809	34.99
302.024	82.09
302.238	-14.17
302.452	86.19
302.667	53.42
302.881	86.19
303.095	92.33
303.309	77.99
303.524	-18.26
303.738	69.8
303.952	-12.12
304.166	41.13
304.381	18.6
304.595	45.23
304.809	24.75
305.023	18.6
305.237	-28.5
305.452	-34.64
305.666	26.79
305.88	57.51
306.094	102.57
306.308	30.89
306.522	90.28
306.736	59.56
306.95	86.19
307.164	34.99
307.379	57.51
307.593	43.18
307.807	55.47
308.021	61.61
308.235	-3.93
308.449	-38.74
308.663	100.52
308.877	123.05
309.091	57.51
309.305	43.18
309.519	-22.36
309.733	51.37
309.947	10.41
310.161	-28.5
310.374	172.2
310.588	47.27
310.802	-48.98
311.016	92.33
311.23	32.94
311.444	84.14
311.658	37.03
311.872	-5.97
312.085	86.19
312.299	69.8
312.513	30.89
312.727	71.85
312.941	-18.26
313.154	129.19
313.368	14.51
313.582	-42.84
313.796	49.32
314.009	49.32
314.223	14.51
314.437	22.7
314.651	8.36
314.864	-34.64
315.078	61.61
315.292	12.46
315.505	26.79
315.719	71.85
315.933	100.52
316.146	28.84
316.36	8.36
316.573	22.7
316.787	73.9
317.001	14.51
317.214	94.38
317.428	-1.88
317.641	96.43
317.855	94.38
318.068	4.27
318.282	4.27
318.495	110.76
318.709	84.14
318.922	65.71
319.136	69.8
319.349	69.8
319.563	100.52
319.776	73.9
319.99	-3.93
320.203	45.23
320.417	45.23
320.63	39.08
320.843	125.1
321.057	22.7
321.27	41.13
321.483	16.55
321.697	71.85
321.91	43.18
322.124	-20.31
322.337	18.6
322.55	75.95
322.763	37.03
322.977	28.84
323.19	8.36
323.403	121
323.617	6.31
323.83	104.62
324.043	69.8
324.256	69.8
324.469	-1.88
324.683	37.03
324.896	28.84
325.109	86.19
325.322	-26.45
325.535	61.61
325.748	57.51
325.962	37.03
326.175	65.71
326.388	77.99
326.601	118.95
326.814	63.66
327.027	34.99
327.24	88.23
327.453	-30.55
327.666	41.13
327.879	69.8
328.092	112.81
328.305	-22.36
328.518	-10.07
328.731	2.22
328.944	77.99
329.157	32.94
329.37	45.23
329.583	43.18
329.796	133.29
330.009	45.23
330.222	69.8
330.435	69.8
330.648	-20.31
330.861	82.09
331.073	96.43
331.286	55.47
331.499	57.51
331.712	20.65
331.925	73.9
332.138	43.18
332.35	88.23
332.563	84.14
332.776	47.27
332.989	12.46
333.202	8.36
333.414	4.27
333.627	61.61
333.84	-10.07
334.053	20.65
334.265	75.95
334.478	28.84
334.691	39.08
334.903	92.33
335.116	26.79
335.329	88.23
335.541	20.65
335.754	49.32
335.966	57.51
336.179	73.9
336.392	71.85
336.604	43.18
336.817	51.37
337.029	4.27
337.242	67.75
337.454	51.37
337.667	32.94
337.88	26.79
338.092	26.79
338.305	71.85
338.517	55.47
338.729	84.14
338.942	80.04
339.154	-5.97
339.367	30.89
339.579	67.75
339.792	45.23
340.004	47.27
340.217	6.31
340.429	125.1
340.641	-24.4
340.854	121
341.066	32.94
341.278	80.04
341.491	61.61
341.703	67.75
341.915	-16.21
342.128	73.9
342.34	67.75
342.552	96.43
342.764	65.71
342.977	80.04
343.189	63.66
343.401	-38.74
343.613	67.75
343.826	82.09
344.038	88.23
344.25	59.56
344.462	34.99
344.674	65.71
344.886	47.27
345.099	73.9
345.311	8.36
345.523	30.89
345.735	43.18
345.947	143.53
346.159	-18.26
346.371	32.94
346.583	45.23
346.795	51.37
347.007	0.17
347.219	69.8
347.431	67.75
347.643	73.9
347.855	67.75
348.067	43.18
348.279	-8.02
348.491	47.27
348.703	108.71
348.915	43.18
349.127	51.37
349.339	41.13
349.551	65.71
349.763	-26.45
349.975	88.23
350.187	26.79
350.399	121
350.61	112.81
350.822	-10.07
351.034	121
351.246	-12.12
351.458	71.85
351.669	18.6
351.881	71.85
352.093	6.31
352.305	63.66
352.517	67.75
352.728	69.8
352.94	55.47
353.152	63.66
353.363	24.75
353.575	39.08
353.787	84.14
353.999	106.67
354.21	108.71
354.422	20.65
354.633	112.81
354.845	-28.5
355.057	28.84
355.268	55.47
355.48	112.81
355.692	75.95
355.903	20.65
356.115	53.42
356.326	24.75
356.538	108.71
356.749	90.28
356.961	63.66
357.172	32.94
357.384	34.99
357.595	90.28
357.807	92.33
358.018	4.27
358.23	43.18
358.441	92.33
358.653	49.32
358.864	-5.97
359.075	75.95
359.287	53.42
359.498	94.38
359.709	123.05
359.921	57.51
360.132	80.04
360.344	75.95
360.555	32.94
360.766	22.7
360.977	2.22
361.189	108.71
361.4	32.94
361.611	45.23
361.823	86.19
362.034	53.42
362.245	-24.4
362.456	82.09
362.667	18.6
362.879	84.14
363.09	96.43
363.301	102.57
363.512	2.22
363.723	73.9
363.935	2.22
364.146	53.42
364.357	77.99
364.568	75.95
364.779	30.89
364.99	94.38
365.201	-8.02
365.412	22.7
365.623	-14.17
365.834	94.38
366.045	69.8
366.256	84.14
366.467	71.85
366.678	108.71
366.889	14.51
367.1	90.28
367.311	0.17
367.522	65.71
367.733	0.17
367.944	106.67
368.155	10.41
368.366	12.46
368.577	51.37
368.788	112.81
368.999	57.51
369.209	57.51
369.42	135.34
369.631	135.34
369.842	88.23
370.053	77.99
370.264	69.8
370.474	71.85
370.685	8.36
370.896	28.84
371.107	86.19
371.317	80.04
371.528	92.33
371.739	112.81
371.95	45.23
372.16	49.32
372.371	-53.08
372.582	75.95
372.792	65.71
373.003	59.56
373.214	90.28
373.424	108.71
373.635	-18.26
373.846	61.61
374.056	8.36
374.267	92.33
374.477	28.84
374.688	18.6
374.898	41.13
375.109	63.66
375.319	37.03
375.53	26.79
375.74	47.27
375.951	86.19
376.161	86.19
376.372	94.38
376.582	69.8
376.793	106.67
377.003	47.27
377.214	32.94
377.424	61.61
377.635	47.27
377.845	61.61
378.055	84.14
378.266	71.85
378.476	45.23
378.686	69.8
378.897	116.9
379.107	77.99
379.317	94.38
379.528	43.18
379.738	77.99
379.948	12.46
380.158	4.27
380.369	114.86
380.579	77.99
380.789	84.14
380.999	65.71
381.21	116.9
381.42	114.86
381.63	59.56
381.84	71.85
382.05	55.47
382.261	32.94
382.471	86.19
382.681	37.03
382.891	71.85
383.101	41.13
383.311	37.03
383.521	55.47
383.731	-1.88
383.941	86.19
384.151	94.38
384.361	86.19
384.571	37.03
384.781	77.99
384.991	166.06
385.201	151.72
385.411	10.41
385.621	127.14
385.831	129.19
386.041	32.94
386.251	30.89
386.461	88.23
386.671	47.27
386.881	39.08
387.091	59.56
387.301	135.34
387.511	-5.97
387.72	63.66
387.93	73.9
388.14	94.38
388.35	43.18
388.56	108.71
388.769	57.51
388.979	174.25
389.189	51.37
389.399	92.33
389.609	61.61
389.818	94.38
390.028	129.19
390.238	86.19
390.447	49.32
390.657	92.33
390.867	32.94
391.076	-36.69
391.286	-10.07
391.496	22.7
391.705	65.71
391.915	12.46
392.125	90.28
392.334	24.75
392.544	174.25
392.753	28.84
392.963	75.95
393.172	18.6
393.382	0.17
393.591	96.43
393.801	-14.17
394.01	77.99
394.22	121
394.429	94.38
394.639	88.23
394.848	141.48
395.058	82.09
395.267	116.9
395.477	112.81
395.686	123.05
395.895	82.09
396.105	178.34
396.314	176.3
396.524	2.22
396.733	108.71
396.942	69.8
397.152	63.66
397.361	67.75
397.57	114.86
397.78	80.04
397.989	47.27
398.198	100.52
398.407	82.09
398.617	67.75
398.826	59.56
399.035	94.38
399.244	129.19
399.453	98.47
399.663	141.48
399.872	49.32
400.081	98.47
400.29	80.04
400.499	80.04
400.708	166.06
400.917	121
401.127	112.81
401.336	139.43
401.545	170.15
401.754	118.95
401.963	215.21
402.172	71.85
402.381	75.95
402.59	84.14
402.799	84.14
403.008	164.01
403.217	121
403.426	135.34
403.635	137.38
403.844	147.62
404.053	77.99
404.262	155.82
404.471	172.2
404.68	170.15
404.888	186.54
405.097	116.9
405.306	153.77
405.515	223.4
405.724	231.59
405.933	133.29
406.142	200.87
406.35	168.1
406.559	190.63
406.768	139.43
406.977	239.78
407.185	149.67
407.394	217.26
407.603	200.87
407.812	284.84
408.02	225.45
408.229	270.5
408.438	250.02
408.646	217.26
408.855	258.21
409.064	254.12
409.272	229.54
409.481	338.09
409.69	311.46
409.898	301.22
410.107	356.52
410.315	295.08
410.524	245.93
410.733	370.85
410.941	315.56
411.15	374.95
411.358	409.76
411.567	403.62
411.775	424.1
411.984	479.4
412.192	424.1
412.401	422.05
412.609	493.73
412.818	499.88
413.026	483.49
413.234	553.12
413.443	542.88
413.651	559.27
413.86	528.55
414.068	616.61
414.276	641.18
414.485	649.38
414.693	606.37
414.901	706.72
415.11	731.3
415.318	704.67
415.526	780.45
415.734	772.25
415.943	809.12
416.151	893.09
416.359	829.6
416.567	811.17
416.776	946.33
416.984	880.8
417.192	901.28
417.4	970.91
417.608	1001.63
417.817	1032.35
418.025	1110.17
418.233	1120.41
418.441	1134.75
418.649	1310.87
418.857	1210.52
419.065	1314.97
419.273	1269.91
419.481	1294.49
419.689	1523.86
419.897	1499.28
420.105	1523.86
420.313	1566.87
420.521	1667.22
420.729	1661.07
420.937	1630.35
421.145	1751.18
421.353	1872.01
421.561	2042
421.769	2035.85
421.977	1947.79
422.185	2082.95
422.393	2021.52
422.601	2347.14
422.809	2209.93
423.017	2252.94
423.224	2422.92
423.432	2478.21
423.64	2599.04
423.848	2789.5
424.056	2615.43
424.263	2898.05
424.471	2830.46
424.679	2844.8
424.887	3174.52
425.094	3205.24
425.302	3270.78
425.51	3391.61
425.718	3416.18
425.925	3528.82
426.133	3623.03
426.341	3782.77
426.548	3991.66
426.756	4042.86
426.964	4190.31
427.171	4167.79
427.379	4391.02
427.586	4425.83
427.794	4540.52
428.001	4835.42
428.209	4986.97
428.417	4853.86
428.624	5371.99
428.832	5406.81
429.039	5161.05
429.247	5275.74
429.454	5759.06
429.662	6244.43
429.869	5797.97
430.076	6150.22
430.284	5959.76
430.491	6230.09
430.699	6639.69
430.906	6572.1
431.114	6590.53
431.321	6824
431.528	7018.56
431.736	7198.78
431.943	7870.51
432.15	7610.42
432.358	7809.08
432.565	8210.48
432.772	8103.98
432.979	8499.24
433.187	8736.81
433.394	8591.4
433.601	9338.91
433.808	9226.27
434.016	9392.16
434.223	9584.66
434.43	10182.67
434.637	9949.2
434.844	10760.2
435.052	11069.44
435.259	10815.49
435.466	10813.45
435.673	10717.19
435.88	11364.35
436.087	12101.62
436.294	12105.71
436.501	11788.28
436.708	12152.82
436.915	12584.94
437.122	13184.99
437.329	12885.99
437.537	13570.01
437.743	13694.94
437.95	13670.36
438.157	14467.02
438.364	14659.53
438.571	14868.42
438.778	14940.1
438.985	16148.4
439.192	15478.72
439.399	16037.81
439.606	15708.09
439.813	16635.82
440.02	17739.68
440.227	17452.96
440.433	17237.92
440.64	17590.17
440.847	17528.74
441.054	17860.51
441.261	19285.89
441.467	19103.62
441.674	19277.7
441.881	20025.21
442.088	19818.36
442.294	19808.12
442.501	20344.69
442.708	20793.2
442.914	21466.98
443.121	22443.86
443.328	21843.81
443.534	23531.33
443.741	22849.36
443.948	22523.73
444.154	24307.51
444.361	23856.96
444.568	24196.92
444.774	24235.83
444.981	24436.53
445.187	24895.28
445.394	26107.68
445.6	25939.74
445.807	28372.73
446.013	27170.57
446.22	27506.44
446.426	28552.95
446.633	29062.9
446.839	29900.51
447.046	28538.62
447.252	30131.93
447.459	30406.36
447.665	30394.07
447.871	32003.78
448.078	32886.45
448.284	31704.77
448.491	32351.93
448.697	33537.71
448.903	33832.61
449.11	33916.58
449.316	33873.57
449.522	33838.76
449.728	35174.03
449.935	35554.96
450.141	35450.51
450.347	36140.68
450.553	35153.55
450.76	35929.73
450.966	37107.32
451.172	36456.06
451.378	37148.28
451.584	36437.63
451.791	37353.07
451.997	37064.31
452.203	37590.64
452.409	38127.2
452.615	37779.05
452.821	36593.28
453.027	36165.25
453.233	37953.13
453.44	36910.71
453.646	36402.82
453.852	37025.4
454.058	37858.92
454.264	36316.8
454.47	37408.37
454.676	36669.05
454.882	37916.26
455.088	34309.79
455.294	34965.14
455.5	35462.8
455.705	35866.25
455.911	34535.07
456.117	33674.92
456.323	33359.53
456.529	31954.63
456.735	33181.36
456.941	32368.32
457.147	31422.16
457.352	30600.92
457.558	30295.77
457.764	30252.77
457.97	30017.25
458.176	29134.57
458.381	28720.88
458.587	27924.22
458.793	27741.96
458.999	26126.11
459.204	28210.94
459.41	27428.62
459.616	25599.78
459.821	25925.41
460.027	25528.1
460.233	25218.86
460.438	23623.49
460.644	24383.29
460.85	22875.98
461.055	22626.13
461.261	22697.81
461.466	20754.29
461.672	20311.92
461.878	21839.71
462.083	20170.61
462.289	19986.3
462.494	19711.87
462.7	18988.94
462.905	18331.54
463.111	19210.12
463.316	18974.6
463.522	18532.24
463.727	18671.5
463.932	18603.92
464.138	18237.33
464.343	18579.34
464.549	17991.58
464.754	18452.37
464.959	18223
465.165	18372.5
465.37	17393.57
465.575	17188.77
465.781	17711
465.986	17983.38
466.191	17098.66
466.397	16998.31
466.602	16064.44
466.807	16551.85
467.012	16746.41
467.218	16748.46
467.423	16502.7
467.628	16465.84
467.833	16949.16
468.038	16431.02
468.244	16035.77
468.449	16816.04
468.654	15785.91
468.859	16125.88
469.064	15964.09
469.269	15173.57
469.474	15415.23
469.679	15687.61
469.885	15359.94
470.09	15529.92
470.295	15460.29
470.5	15081.41
470.705	14991.3
470.91	14864.33
471.115	14682.06
471.32	14911.43
471.525	14688.2
471.73	14647.24
471.935	14503.89
472.139	13860.82
472.344	14278.61
472.549	13924.31
472.754	14004.18
472.959	13633.5
473.164	13643.74
473.369	13070.31
473.574	13465.57
473.778	13543.39
473.983	13557.72
474.188	12953.57
474.393	12558.32
474.598	12998.63
474.802	12392.43
475.007	12519.4
475.212	12634.09
475.417	12124.15
475.621	12062.71
475.826	11907.06
476.031	11935.73
476.235	11522.04
476.44	11851.77
476.645	11657.21
476.849	11649.02
477.054	11440.12
477.259	11427.84
477.463	11253.76
477.668	11024.39
477.872	11206.66
478.077	10743.81
478.282	10657.8
478.486	10670.09
478.691	10549.26
478.895	10467.34
479.1	10506.25
479.304	10545.16
479.509	10211.34
479.713	10209.29
479.918	10041.36
480.122	9986.07
480.326	10285.07
480.531	9986.07
480.735	9738.26
480.94	9900.05
481.144	10049.55
481.348	9570.33
481.553	9705.49
481.757	9429.02
481.961	9771.03
482.166	9748.5
482.37	9707.54
482.574	9697.3
482.778	9519.13
482.983	9627.67
483.187	9820.18
483.391	9644.06
483.595	9668.63
483.8	9459.74
484.004	9861.14
484.208	9732.12
484.412	9730.07
484.616	9732.12
484.821	9783.32
485.025	9369.63
485.229	9633.82
485.433	9648.15
485.637	9623.58
485.841	9705.49
486.045	9668.63
486.249	9715.73
486.453	9457.69
486.657	9590.81
486.861	9764.89
487.065	9363.48
487.269	9566.23
487.473	9551.9
487.677	9728.02
487.881	9723.93
488.085	9517.08
488.289	9793.56
488.493	9803.8
488.697	9642.01
488.901	9734.17
489.105	9560.09
489.309	9715.73
489.512	9635.86
489.716	9785.37
489.92	9756.69
490.124	9646.1
490.328	9898
490.531	9855
490.735	9809.94
490.939	9875.48
491.143	9842.71
491.346	9975.83
491.55	9992.21
491.754	9936.92
491.958	10027.03
492.161	9871.38
492.365	10106.9
492.569	10256.4
492.772	10129.42
492.976	10143.76
493.18	10291.21
493.383	10336.27
493.587	10342.41
493.79	10643.46
493.994	10258.45
494.197	10625.03
494.401	10639.37
494.605	10416.14
494.808	10790.92
495.012	10577.93
495.215	10782.73
495.419	10975.24
495.622	10817.54
495.825	11032.58
496.029	10956.8
496.232	11253.76
496.436	11190.27
496.639	11454.46
496.843	11366.4
497.046	11626.49
497.249	11958.26
497.453	11884.53
497.656	12001.27
497.859	12085.23
498.063	12230.64
498.266	12414.96
498.469	12468.2
498.673	12521.45
498.876	12597.23
499.079	12838.89
499.282	12691.43
499.485	13072.36
499.689	13058.02
499.892	13420.51
500.095	13238.24
500.298	13717.47
500.501	13750.23
500.705	13985.75
500.908	14036.95
501.111	14387.15
501.314	14145.49
501.517	14376.91
501.72	14403.53
501.923	14573.52
502.126	14766.03
502.329	15155.14
502.532	15060.93
502.735	15267.78
502.938	15472.57
503.141	15658.94
503.344	16099.25
503.547	15931.32
503.75	16258.99
503.953	16347.06
504.156	16408.5
504.359	16406.45
504.562	16754.6
504.765	17188.77
504.968	17182.63
505.17	17534.88
505.373	17375.14
505.576	17741.72
505.779	17794.97
505.982	18081.69
506.185	18567.06
506.387	18610.06
506.59	18773.9
506.793	18775.95
506.996	18796.43
507.198	19548.03
507.401	19443.59
507.604	19562.37
507.807	19765.12
508.009	19791.74
508.212	20062.07
508.415	20436.85
508.617	20574.06
508.82	20559.73
509.022	20496.24
509.225	21147.5
509.428	21387.11
509.63	21495.65
509.833	21317.48
510.035	22110.04
510.238	21700.45
510.44	22017.88
510.643	22478.68
510.845	22669.14
511.048	22357.85
511.25	23023.44
511.453	22972.24
511.655	23590.72
511.858	23852.86
512.06	23988.03
512.262	23967.55
512.465	23973.69
512.667	24246.07
512.87	24706.87
513.072	24811.31
513.274	25245.48
513.477	25294.63
513.679	25597.73
513.881	25788.19
514.084	25960.22
514.286	25818.91
514.488	26122.01
514.69	27154.19
514.893	26881.81
515.095	26814.23
515.297	27152.14
515.499	27221.77
515.701	27352.84
515.904	27883.27
516.106	27946.75
516.308	28245.76
516.51	28532.47
516.712	28460.79
516.914	29042.42
517.116	29288.17
517.318	29279.98
517.52	29615.85
517.722	29484.78
517.925	30093.02
518.127	30351.07
518.329	30453.47
518.531	30181.09
518.733	30744.28
518.935	31125.2
519.136	31137.49
519.338	31499.98
519.54	31772.36
519.742	31942.34
519.944	32026.31
520.146	32597.69
520.348	32143.04
520.55	32743.1
520.752	32880.31
520.954	33560.23
521.155	32816.82
521.357	33810.09
521.559	33980.07
521.761	34588.31
521.963	34035.36
522.164	34309.79
522.366	34600.6
522.568	34776.73
522.77	34825.88
522.971	35171.99
523.173	34924.18
523.375	35501.71
523.576	35485.33
523.778	35542.67
523.98	36101.76
524.181	36318.85
524.383	36152.96
524.584	36406.91
524.786	36644.48
524.988	36462.21
525.189	36826.74
525.391	37000.82
525.592	37185.14
525.794	37535.34
525.995	37219.95
526.197	37135.99
526.398	37404.27
526.6	37660.27
526.801	37946.98
527.003	37670.51
527.204	37738.09
527.406	38100.58
527.607	38370.91
527.808	38282.85
528.01	37916.26
528.211	38430.3
528.412	38887
528.614	38643.29
528.815	38585.95
529.016	38878.81
529.218	38755.93
529.419	38925.91
529.62	39093.85
529.822	38927.96
530.023	38811.23
530.224	38825.56
530.425	39034.46
530.626	38876.76
530.828	38774.36
531.029	39923.27
531.23	39388.75
531.431	39183.96
531.632	39243.35
531.833	39073.37
532.035	39224.92
532.236	39554.64
532.437	39550.54
532.638	39321.17
532.839	39528.02
533.04	39718.48
533.241	39347.79
533.442	39648.85
533.643	40107.59
533.844	39409.23
534.045	39511.63
534.246	39349.84
534.447	39820.88
534.648	39515.73
534.849	39913.03
535.05	39173.72
535.251	39650.89
535.451	39265.88
535.652	39605.84
535.853	39349.84
536.054	39673.42
536.255	39634.51
536.456	39343.7
536.657	39738.96
536.857	39644.75
537.058	39816.78
537.259	40248.9
537.46	39831.11
537.66	39667.28
537.861	39507.54
538.062	39204.44
538.263	39673.42
538.463	39224.92
538.664	39505.49
538.865	39581.26
539.065	39886.41
539.266	39286.36
539.466	39730.76
539.667	39245.4
539.868	39589.45
540.068	39339.6
540.269	39568.97
540.469	39677.52
540.67	39257.68
540.87	39478.86
541.071	39560.78
541.271	39761.48
541.472	39028.31
541.672	39360.08
541.873	39132.76
542.073	38704.73
542.274	39300.69
542.474	39247.44
542.675	39085.65
542.875	39319.12
543.075	39147.09
543.276	38882.91
543.476	39482.96
543.676	39032.41
543.877	39364.18
544.077	39583.31
544.277	39274.07
544.478	39253.59
544.678	39337.55
544.878	39323.22
545.078	39259.73
545.279	39155.29
545.479	39011.93
545.679	39319.12
545.879	39265.88
546.079	38678.11
546.28	38770.27
546.48	38784.6
546.68	38956.63
546.88	39204.44
547.08	39409.23
547.28	38811.23
547.48	38428.26
547.68	38962.78
547.88	38401.63
548.081	38927.96
548.281	38606.43
548.481	38375.01
548.681	38995.54
548.881	38661.72
549.081	38596.19
549.28	38231.65
549.48	39030.36
549.68	38628.96
549.88	39284.31
550.08	38805.08
550.28	38843.99
550.48	38600.29
550.68	39124.57
550.88	38682.2
551.08	38313.57
551.279	38665.82
551.479	38385.25
551.679	38977.11
551.879	38792.79
552.079	38878.81
552.278	38542.94
552.478	38772.32
552.678	38659.68
552.878	38891.1
553.077	38469.22
553.277	38303.33
553.477	38858.33
553.676	38047.33
553.876	38307.43
554.076	38364.77
554.275	38151.78
554.475	38059.62
554.674	38391.39
554.874	38010.47
555.074	38094.44
555.273	38575.71
555.473	38327.91
555.672	37838.44
555.872	37963.37
556.071	38153.83
556.271	38258.27
556.47	38508.13
556.67	37488.24
556.869	37822.06
557.068	38104.68
557.268	37850.73
557.467	37731.95
557.667	37836.39
557.866	37856.87
558.065	37834.35
558.265	37471.85
558.464	37377.65
558.663	38131.3
558.863	37164.66
559.062	38200.93
559.261	37181.04
559.461	38010.47
559.66	37275.25
559.859	37506.67
560.058	37115.51
560.258	37361.26
560.457	37097.08
560.656	37873.26
560.855	37469.81
561.054	37248.63
561.253	37049.97
561.453	36750.97
561.652	37023.35
561.851	37121.65
562.05	36845.18
562.249	36658.81
562.448	37095.03
562.647	36923
562.846	36650.62
563.045	36839.03
563.244	36341.38
563.443	37285.49
563.642	36621.95
563.841	36724.35
564.04	36540.03
564.239	37125.75
564.438	36466.3
564.637	36398.72
564.836	36556.41
565.035	35821.19
565.234	36109.96
565.432	36243.07
565.631	36032.13
565.83	36892.28
566.029	36327.04
566.228	35991.17
566.427	35774.09
566.625	35876.49
566.824	35749.51
567.023	35706.51
567.222	35501.71
567.42	35886.73
567.619	35473.04
567.818	35792.52
568.016	36001.41
568.215	35655.31
568.414	35548.81
568.612	35810.95
568.811	35167.89
569.01	35530.38
569.208	34991.76
569.407	35223.19
569.605	35022.48
569.804	35321.49
570.002	34393.76
570.201	34803.35
570.4	35069.59
570.598	34989.72
570.797	34678.43
570.995	34836.12
571.193	34483.87
571.392	34766.49
571.59	34246.3
571.789	34588.31
571.987	34410.14
572.186	34467.48
572.384	34051.75
572.582	34074.27
572.781	34346.65
572.979	33787.56
573.177	33951.4
573.376	34145.95
573.574	33726.12
573.772	33937.06
573.971	33920.68
574.169	33601.19
574.367	33443.5
574.565	33898.15
574.763	33640.11
574.962	33771.18
575.16	33423.02
575.358	33115.83
575.556	33285.81
575.754	33562.28
575.952	33007.28
576.151	33085.11
576.349	32900.79
576.547	33062.58
576.745	32757.43
576.943	32782.01
577.141	32636.6
577.339	32851.64
577.537	32515.77
577.735	32374.46
577.933	32198.34
578.131	32425.66
578.329	32204.48
578.527	32077.51
578.725	32423.61
578.923	32450.24
579.121	32018.11
579.319	31946.44
579.516	32231.1
579.714	31952.58
579.912	31964.87
580.11	31975.11
580.308	31764.17
580.506	31782.6
580.704	31491.79
580.901	31598.28
581.099	31966.91
581.297	31346.38
581.495	31413.96
581.692	31420.11
581.89	31045.33
582.088	31536.84
582.285	31051.47
582.483	31018.71
582.681	30715.61
582.878	31362.76
583.076	30838.48
583.274	31248.08
583.471	30645.98
583.669	31008.47
583.866	30162.65
584.064	30811.86
584.262	29945.57
584.459	30508.76
584.657	30406.36
584.854	30723.8
585.052	29830.88
585.249	29832.93
585.447	30191.33
585.644	29566.7
585.841	29804.26
586.039	30318.3
586.236	29656.81
586.434	29673.19
586.631	29066.99
586.828	29544.17
587.026	29318.89
587.223	29669.09
587.42	29206.25
587.618	29476.58
587.815	28634.87
588.012	29075.18
588.21	29050.61
588.407	29277.93
588.604	28393.21
588.801	28788.47
588.999	28606.2
589.196	28743.41
589.393	28675.83
589.59	28327.67
589.787	28217.08
589.984	28253.95
590.182	27934.46
590.379	28333.82
590.576	28161.79
590.773	28129.02
590.97	27971.33
591.167	28104.45
591.364	27514.63
591.561	27737.86
591.758	27666.18
591.955	27627.27
592.152	27787.01
592.349	27014.93
592.546	27701
592.743	27578.12
592.94	27125.52
593.137	27232.01
593.334	27119.37
593.531	26935.06
593.727	27279.11
593.924	27275.02
594.121	26838.8
594.318	27014.93
594.515	26656.53
594.712	26795.79
594.908	26425.11
595.105	26722.07
595.302	26089.24
595.499	26261.27
595.696	26224.41
595.892	25900.83
596.089	26177.31
596.286	25882.4
596.482	25882.4
596.679	26074.91
596.876	26185.5
597.072	25782.05
597.269	25390.89
597.466	25605.92
597.662	25552.68
597.859	25298.73
598.055	25569.06
598.252	25153.32
598.448	25454.37
598.645	25075.5
598.841	25108.27
599.038	24923.95
599.234	25065.26
599.431	24600.37
599.627	24786.74
599.824	25034.54
600.02	24610.61
600.217	24733.49
600.413	24653.62
600.609	24274.74
600.806	24289.08
601.002	24330.04
601.198	24213.31
601.395	24028.99
601.591	24031.04
601.787	23916.35
601.984	23867.2
602.18	24076.09
602.376	23525.19
602.572	23783.23
602.769	23338.82
602.965	23390.02
603.161	23682.88
603.357	23164.75
603.553	23365.45
603.75	23211.85
603.946	23117.64
604.142	23154.51
604.338	22910.8
604.534	23111.5
604.73	22978.38
604.926	22710.1
605.122	23201.61
605.318	22775.63
605.514	22646.61
605.71	22615.89
605.906	22736.72
606.102	22724.43
606.298	22476.63
606.494	22628.18
606.69	22587.22
606.886	22382.42
607.082	22208.34
607.278	22441.81
607.474	21833.57
607.67	22294.36
607.866	21888.86
608.062	22187.86
608.257	22054.75
608.453	21927.77
608.649	21907.29
608.845	22019.93
609.041	22003.55
609.236	21733.22
609.432	21630.82
609.628	21964.64
609.824	21583.71
610.019	21604.19
610.215	21858.14
610.411	21831.52
610.606	21559.14
610.802	21643.1
610.998	21505.89
611.193	21317.48
611.389	21288.81
611.584	21157.74
611.78	21139.3
611.976	21213.03
612.171	21200.74
612.367	21307.24
612.562	21229.41
612.758	20760.43
612.953	20655.98
613.149	21063.53
613.344	20885.36
613.539	21319.53
613.735	20735.85
613.93	20840.3
614.126	20823.92
614.321	20975.47
614.517	20776.81
614.712	20559.73
614.907	20678.51
615.103	20694.89
615.298	20463.47
615.493	20742
615.688	20457.33
615.884	20895.6
616.079	20236.15
616.274	20567.92
616.47	20363.12
616.665	20369.27
616.86	20522.87
617.055	20107.13
617.25	20406.13
617.445	20535.15
617.641	19820.41
617.836	20205.43
618.031	19937.15
618.226	20021.11
618.421	20213.62
618.616	20150.14
618.811	19615.62
619.006	19818.36
619.201	19529.6
619.396	19586.94
619.591	19328.9
619.786	19533.7
619.981	19050.38
620.176	19283.84
620.371	19242.89
620.566	19019.66
620.761	19160.97
620.956	19308.42
621.151	18554.77
621.346	18778
621.541	18636.69
621.735	18763.66
621.93	18210.71
622.125	18321.3
622.32	18243.48
622.515	18339.73
622.709	18059.16
622.904	18169.75
623.099	18034.58
623.294	18093.97
623.488	17852.31
623.683	17782.68
623.878	17479.58
624.072	17921.95
624.267	17620.89
624.462	17504.16
624.656	17205.16
624.851	17303.46
625.046	16887.72
625.24	16967.59
625.435	17090.47
625.629	17022.89
625.824	16746.41
626.018	16938.92
626.213	16512.94
626.407	16570.29
626.602	16269.23
626.796	16420.78
626.991	16345.01
627.185	16160.69
627.38	15826.87
627.574	15943.61
627.768	15818.68
627.963	15824.83
628.157	15755.19
628.352	15728.57
628.546	15333.31
628.74	15529.92
628.935	15247.3
629.129	15388.61
629.323	15257.54
629.517	15353.79
629.712	15118.28
629.906	15097.8
630.1	14811.08
630.294	14966.73
630.489	14929.86
630.683	14817.22
630.877	14823.37
631.071	14499.79
631.265	14880.71
631.459	14538.7
631.653	14583.76
631.848	14174.16
632.042	14346.19
632.236	14149.59
632.43	14069.72
632.624	14127.06
632.818	13998.04
633.012	13719.51
633.206	13809.62
633.4	13838.3
633.594	13514.72
633.788	13524.96
633.982	13426.65
634.176	13584.35
634.369	13539.29
634.563	13373.41
634.757	13006.82
634.951	13338.59
635.145	13117.41
635.339	13115.36
635.533	12853.22
635.726	12908.52
635.92	12986.34
636.114	12840.93
636.308	12840.93
636.501	12601.32
636.695	12685.29
636.889	12503.02
637.083	12441.58
637.276	12343.28
637.47	12294.13
637.664	12398.57
637.857	12218.35
638.051	12154.87
638.244	12048.37
638.438	12099.57
638.632	12003.32
638.825	11833.33
639.019	11868.15
639.212	11782.13
639.406	11859.96
639.599	11681.78
639.793	11636.73
639.986	11644.92
640.18	11438.08
640.373	11399.16
640.567	11354.11
640.76	11323.39
640.954	11100.16
641.147	11034.63
641.34	11079.68
641.534	11110.4
641.727	10928.13
641.92	11030.53
642.114	10979.33
642.307	10721.29
642.5	10932.23
642.694	10668.04
642.887	10803.21
643.08	10735.62
643.273	10635.27
643.467	10674.18
643.66	10713.1
643.853	10491.91
644.046	10242.06
644.239	10375.18
644.432	10323.98
644.626	10190.86
644.819	10256.4
645.012	10145.81
645.205	10086.42
645.398	10123.28
645.591	9904.15
645.784	10160.14
645.977	9902.1
646.17	9836.56
646.363	9621.53
646.556	9699.35
646.749	9709.59
646.942	9457.69
647.135	9562.14
647.328	9551.9
647.521	9555.99
647.714	9291.8
647.907	9312.28
648.099	9246.75
648.292	9226.27
648.485	9451.55
648.678	9154.59
648.871	9111.58
649.064	9080.86
649.256	9060.38
649.449	9033.76
649.642	8980.51
649.835	8816.68
650.027	8886.31
650.22	8943.65
650.413	8722.47
650.605	8769.57
650.798	8751.14
650.991	8618.02
651.183	8652.84
651.376	8515.62
651.568	8532.01
651.761	8433.71
651.954	8595.5
652.146	8507.43
652.339	8300.59
652.531	8233.01
652.724	8257.58
652.916	8116.27
653.109	8159.28
653.301	8228.91
653.494	8278.06
653.686	7839.8
653.879	8196.14
654.071	7807.03
654.263	7960.63
654.456	7905.33
654.648	7968.82
654.84	7733.3
655.033	7899.19
655.225	7749.68
655.417	7639.09
655.61	7657.53
655.802	7784.5
655.994	7657.53
656.186	7559.22
656.379	7469.11
656.571	7522.36
656.763	7284.8
656.955	7292.99
657.148	7317.56
657.34	7381.05
657.532	7227.45
657.724	7288.89
657.916	7104.57
658.108	7135.29
658.3	7178.3
658.492	7098.43
658.684	7114.81
658.876	7024.7
659.068	6967.36
659.26	6830.15
659.452	7024.7
659.644	6971.46
659.836	6654.02
660.028	6877.25
660.22	6873.15
660.412	6531.14
660.604	6836.29
660.796	6484.04
660.988	6725.7
661.18	6629.45
661.372	6465.61
661.563	6557.77
661.755	6404.17
661.947	6412.36
662.139	6291.53
662.331	6348.87
662.522	6355.02
662.714	6406.22
662.906	6357.07
663.097	6318.15
663.289	6207.56
663.481	6113.36
663.673	6228.04
663.864	6047.82
664.056	6049.87
664.247	6076.49
664.439	5939.28
664.631	5967.95
664.822	6000.72
665.014	6004.82
665.205	5953.62
665.397	5916.75
665.588	5912.66
665.78	5881.94
665.971	5908.56
666.163	5945.42
666.354	5736.53
666.546	5750.87
666.737	5787.73
666.929	5718.1
667.12	5691.48
667.311	5718.1
667.503	5560.41
667.694	5693.52
667.885	5470.3
668.077	5677.14
668.268	5464.15
668.459	5541.97
668.651	5382.23
668.842	5398.62
669.033	5306.46
669.224	5412.95
669.416	5326.94
669.607	5400.66
669.798	5245.02
669.989	5363.8
670.18	5208.16
670.371	5298.27
670.563	5173.34
670.754	5341.27
670.945	5140.57
671.136	5120.09
671.327	5015.65
671.518	5064.8
671.709	5056.61
671.9	5140.57
672.091	5081.18
672.282	5046.37
672.473	4968.54
672.664	5077.09
672.855	4898.91
673.046	5021.79
673.237	5011.55
673.428	5052.51
673.619	4806.75
673.809	4819.04
674	4808.8
674.191	4755.55
674.382	4745.31
674.573	4821.09
674.764	4796.51
674.954	4692.07
675.145	4647.01
675.336	4583.52
675.527	4694.12
675.717	4802.66
675.908	4710.5
676.099	4630.63
676.289	4642.92
676.48	4509.8
676.671	4391.02
676.861	4569.19
677.052	4622.44
677.243	4450.41
677.433	4487.27
677.624	4442.21
677.814	4341.86
678.005	4497.51
678.195	4622.44
678.386	4403.3
678.576	4280.43
678.767	4358.25
678.957	4288.62
679.148	4382.82
679.338	4409.45
679.529	4313.19
679.719	4335.72
679.909	4474.98
680.1	4331.62
680.29	4397.16
680.481	4339.82
680.671	4431.98
680.861	4268.14
681.052	4333.67
681.242	4339.82
681.432	4290.67
681.622	4135.02
681.813	4159.6
682.003	4261.99
682.193	4124.78
682.383	4204.65
682.573	4120.68
682.764	4182.12
682.954	4153.45
683.144	4192.36
683.334	4087.92
683.524	4022.38
683.714	4014.19
683.904	4096.11
684.094	4055.15
684.284	4051.05
684.474	4075.63
684.664	4141.16
684.854	4077.68
685.044	3932.27
685.234	4003.95
685.424	3960.94
685.614	4092.01
685.804	4016.24
685.994	3856.5
686.184	3903.6
686.374	3985.52
686.564	3827.82
686.753	3891.31
686.943	3747.95
687.133	3788.91
687.323	3819.63
687.513	3899.5
687.702	3721.33
687.892	3725.43
688.082	3739.76
688.272	3633.27
688.461	3735.67
688.651	3608.69
688.841	3676.27
689.03	3641.46
689.22	3502.2
689.41	3633.27
689.599	3676.27
689.789	3569.78
689.979	3530.87
690.168	3608.69
690.358	3625.08
690.547	3440.76
690.737	3483.77
690.926	3463.29
691.116	3463.29
691.305	3489.91
691.495	3420.28
691.684	3416.18
691.874	3287.16
692.063	3410.04
692.252	3420.28
692.442	3283.06
692.631	3287.16
692.82	3260.54
693.01	3291.26
693.199	3324.02
693.388	3156.09
693.578	3229.82
693.767	3219.58
693.956	3227.77
694.146	3059.84
694.335	3072.12
694.524	3039.36
694.713	3166.33
694.902	3211.39
695.092	3203.19
695.281	3131.51
695.47	2926.72
695.659	2973.82
695.848	3080.32
696.037	3043.45
696.226	3035.26
696.415	2994.3
696.604	2947.2
696.793	2949.25
696.982	2920.57
697.171	2990.21
697.36	2943.1
697.549	2873.47
697.738	2855.04
697.927	2916.48
698.116	2887.81
698.305	2936.96
698.494	2918.53
698.683	3016.83
698.872	3016.83
699.061	2840.7
699.25	2787.46
699.438	2900.09
699.627	2828.42
699.816	2859.14
700.005	2879.61
700.193	2771.07
700.382	2807.94
700.571	2777.22
700.76	2654.34
700.948	2898.05
701.137	2672.77
701.326	2695.3
701.514	2697.35
701.703	2691.2
701.892	2656.39
702.08	2734.21
702.269	2764.93
702.457	2746.5
702.646	2683.01
702.834	2672.77
703.023	2562.18
703.212	2734.21
703.4	2799.74
703.589	2560.13
703.777	2652.29
703.965	2646.15
704.154	2588.8
704.342	2586.76
704.531	2525.32
704.719	2613.38
704.907	2660.48
705.096	2535.56
705.284	2594.95
705.472	2502.79
705.661	2560.13
705.849	2611.33
706.037	2531.46
706.226	2486.4
706.414	2502.79
706.602	2433.16
706.79	2541.7
706.979	2418.82
707.167	2535.56
707.355	2367.62
707.543	2533.51
707.731	2562.18
707.919	2408.58
708.107	2461.83
708.296	2476.16
708.484	2556.04
708.672	2515.08
708.86	2531.46
709.048	2478.21
709.236	2494.6
709.424	2486.4
709.612	2455.69
709.8	2443.4
709.988	2502.79
710.176	2400.39
710.364	2492.55
710.551	2472.07
710.739	2455.69
710.927	2453.64
711.115	2427.01
711.303	2388.1
711.491	2424.97
711.679	2341
711.866	2510.98
712.054	2386.05
712.242	2394.25
712.43	2467.97
712.617	2500.74
712.805	2410.63
712.993	2429.06
713.181	2455.69
713.368	2361.48
713.556	2541.7
713.744	2445.45
713.931	2504.84
714.119	2470.02
714.306	2467.97
714.494	2408.58
714.682	2338.95
714.869	2318.47
715.057	2410.63
715.244	2248.84
715.432	2306.18
715.619	2375.81
715.807	2355.33
715.994	2517.12
716.182	2338.95
716.369	2232.46
716.556	2429.06
716.744	2408.58
716.931	2185.35
717.119	2519.17
717.306	2375.81
717.493	2384.01
717.681	2326.66
717.868	2381.96
718.055	2365.57
718.242	2257.03
718.43	2379.91
718.617	2427.01
718.804	2300.04
718.991	2521.22
719.179	2408.58
719.366	2369.67
719.553	2420.87
719.74	2472.07
719.927	2381.96
720.114	2351.24
720.301	2332.81
720.488	2263.18
720.676	2373.77
720.863	2361.48
721.05	2377.86
721.237	2480.26
721.424	2478.21
721.611	2408.58
721.798	2318.47
721.985	2234.5
722.172	2353.29
722.358	2412.68
722.545	2381.96
722.732	2392.2
722.919	2453.64
723.106	2424.97
723.293	2300.04
723.48	2459.78
723.667	2402.44
723.853	2433.16
724.04	2386.05
724.227	2435.21
724.414	2379.91
724.6	2394.25
724.787	2322.57
724.974	2412.68
725.161	2314.38
725.347	2291.85
725.534	2367.62
725.72	2510.98
725.907	2336.9
726.094	2492.55
726.28	2394.25
726.467	2373.77
726.653	2459.78
726.84	2410.63
727.027	2492.55
727.213	2353.29
727.4	2347.14
727.586	2349.19
727.773	2400.39
727.959	2457.73
728.145	2459.78
728.332	2400.39
728.518	2418.82
728.705	2506.88
728.891	2427.01
729.077	2394.25
729.264	2470.02
729.45	2400.39
729.636	2484.36
729.823	2420.87
730.009	2424.97
730.195	2476.16
730.382	2476.16
730.568	2467.97
730.754	2492.55
730.94	2422.92
731.126	2560.13
731.313	2613.38
731.499	2433.16
731.685	2551.94
731.871	2490.5
732.057	2435.21
732.243	2590.85
732.429	2572.42
732.615	2535.56
732.801	2424.97
732.987	2498.69
733.173	2523.27
733.359	2525.32
733.545	2502.79
733.731	2541.7
733.917	2570.37
734.103	2689.15
734.289	2517.12
734.475	2459.78
734.661	2605.19
734.847	2443.4
735.033	2527.36
735.219	2510.98
735.404	2488.45
735.59	2615.43
735.776	2672.77
735.962	2683.01
736.148	2531.46
736.333	2594.95
736.519	2592.9
736.705	2562.18
736.89	2613.38
737.076	2541.7
737.262	2582.66
737.447	2525.32
737.633	2670.72
737.819	2687.11
738.004	2531.46
738.19	2560.13
738.375	2564.23
738.561	2664.58
738.747	2654.34
738.932	2551.94
739.118	2467.97
739.303	2664.58
739.489	2662.53
739.674	2539.65
739.859	2574.47
740.045	2543.75
740.23	2666.63
740.416	2558.08
740.601	2570.37
740.786	2597
740.972	2467.97
741.157	2572.42
741.342	2631.81
741.528	2625.67
741.713	2502.79
741.898	2633.86
742.084	2642.05
742.269	2666.63
742.454	2599.04
742.639	2564.23
742.824	2492.55
743.01	2617.47
743.195	2674.82
743.38	2582.66
743.565	2535.56
743.75	2664.58
743.935	2646.15
744.12	2543.75
744.305	2441.35
744.49	2508.93
744.675	2506.88
744.86	2527.36
745.045	2631.81
745.23	2515.08
745.415	2488.45
745.6	2586.76
745.785	2449.54
745.97	2564.23
746.155	2582.66
746.34	2572.42
746.525	2412.68
746.71	2457.73
746.895	2470.02
747.079	2529.41
747.264	2392.2
747.449	2461.83
747.634	2502.79
747.819	2369.67
748.003	2523.27
748.188	2250.89
748.373	2410.63
748.557	2402.44
748.742	2257.03
748.927	2349.19
749.111	2310.28
749.296	2265.22
749.481	2306.18
749.665	2359.43
749.85	2371.72
750.034	2353.29
750.219	2281.61
750.404	2246.79
750.588	2267.27
750.773	2285.7
750.957	2224.26
751.141	2152.59
751.326	2226.31
751.51	2132.11
751.695	2099.34
751.879	2207.88
752.064	2310.28
752.248	2187.4
752.432	2179.21
752.617	2128.01
752.801	2187.4
752.985	2105.48
753.17	2068.62
753.354	2123.91
753.538	2142.35
753.722	2134.15
753.907	2039.95
754.091	2029.71
754.275	2017.42
754.459	1986.7
754.643	2027.66
754.828	1908.88
755.012	1910.93
755.196	1927.31
755.38	1947.79
755.564	1890.45
755.748	2009.23
755.932	2027.66
756.116	1935.5
756.3	1929.36
756.484	1876.11
756.668	1958.03
756.852	1902.73
757.036	1849.49
757.22	1951.88
757.404	1816.72
757.588	1747.09
757.772	1796.24
757.956	1839.25
758.14	1898.64
758.323	1781.9
758.507	1816.72
758.691	1872.01
758.875	1798.29
759.059	1759.38
759.242	1777.81
759.426	1759.38
759.61	1755.28
759.794	1699.98
759.977	1736.85
760.161	1835.15
760.345	1695.89
760.528	1691.79
760.712	1745.04
760.895	1650.83
761.079	1673.36
761.263	1548.44
761.446	1536.15
761.63	1652.88
761.813	1730.7
761.997	1554.58
762.18	1636.5
762.364	1648.79
762.547	1667.22
762.731	1659.03
762.914	1577.11
763.098	1609.87
763.281	1542.29
763.464	1562.77
763.648	1491.09
763.831	1558.67
764.015	1585.3
764.198	1525.91
764.381	1503.38
764.564	1534.1
764.748	1456.28
764.931	1525.91
765.114	1536.15
765.297	1489.04
765.481	1495.19
765.664	1458.32
765.847	1480.85
766.03	1493.14
766.213	1464.47
766.397	1495.19
766.58	1458.32
766.763	1601.68
766.946	1421.46
767.129	1386.65
767.312	1495.19
767.495	1466.52
767.678	1468.56
767.861	1407.13
768.044	1497.24
768.227	1456.28
768.41	1388.69
768.593	1456.28
768.776	1441.94
768.959	1390.74
769.142	1351.83
769.324	1325.21
769.507	1286.3
769.69	1411.22
769.873	1396.89
770.056	1372.31
770.239	1226.9
770.421	1380.5
770.604	1304.73
770.787	1413.27
770.97	1327.25
771.152	1308.82
771.335	1314.97
771.518	1259.67
771.7	1335.45
771.883	1384.6
772.066	1247.38
772.248	1267.86
772.431	1284.25
772.613	1265.82
772.796	1185.94
772.978	1331.35
773.161	1333.4
773.343	1265.82
773.526	1323.16
773.708	1157.27
773.891	1198.23
774.073	1216.66
774.256	1177.75
774.438	1261.72
774.621	1151.13
774.803	1079.45
774.985	1187.99
775.168	1228.95
775.35	1112.22
775.532	1177.75
775.715	1222.81
775.897	1110.17
776.079	1061.02
776.261	1128.6
776.444	1030.3
776.626	1063.07
776.808	1052.83
776.99	1020.06
777.173	1128.6
777.355	1089.69
777.537	1130.65
777.719	1091.74
777.901	1015.96
778.083	927.9
778.265	970.91
778.447	1099.93
778.629	981.15
778.811	956.57
778.993	944.28
779.175	1101.98
779.357	915.61
779.539	944.28
779.721	983.2
779.903	932
780.085	979.1
780.267	917.66
780.449	909.47
780.631	1028.25
780.812	944.28
780.994	811.17
781.176	999.58
781.358	905.37
781.54	837.79
781.721	1001.63
781.903	843.93
782.085	850.08
782.267	823.45
782.448	807.07
782.63	755.87
782.812	835.74
782.993	807.07
783.175	903.32
783.357	829.6
783.538	786.59
783.72	735.39
783.901	766.11
784.083	860.32
784.264	712.86
784.446	755.87
784.627	673.95
784.809	745.63
784.99	749.73
785.172	721.06
785.353	837.79
785.535	757.92
785.716	731.3
785.897	827.55
786.079	741.54
786.26	694.43
786.441	667.81
786.623	635.04
786.804	678.05
786.985	719.01
787.167	710.82
787.348	708.77
787.529	628.9
787.71	626.85
787.891	632.99
788.073	626.85
788.254	626.85
788.435	700.58
788.616	639.14
788.797	671.9
788.978	594.08
789.159	614.56
789.34	567.46
789.522	555.17
789.703	569.51
789.884	626.85
790.065	620.71
790.246	647.33
790.427	555.17
790.607	622.75
790.788	534.69
790.969	506.02
791.15	530.59
791.331	530.59
791.512	471.2
791.693	534.69
791.874	555.17
792.054	594.08
792.235	561.31
792.416	456.87
792.597	499.88
792.778	510.11
792.958	452.77
793.139	565.41
793.32	520.35
793.5	473.25
793.681	495.78
793.862	485.54
794.042	397.48
794.223	436.39
794.404	446.63
794.584	501.92
794.765	540.83
794.945	391.33
795.126	469.16
795.306	524.45
795.487	409.76
795.667	399.52
795.848	452.77
796.028	452.77
796.209	452.77
796.389	389.28
796.57	514.21
796.75	456.87
796.93	434.34
797.111	479.4
797.291	450.72
797.471	420
797.652	364.71
797.832	446.63
798.012	428.2
798.192	348.33
798.373	319.65
798.553	417.96
798.733	381.09
798.913	454.82
799.093	413.86
799.274	436.39
799.454	426.15
799.634	409.76
799.814	452.77
799.994	346.28
800.174	409.76
800.354	401.57
800.534	381.09
800.714	422.05
800.894	362.66
801.074	356.52
801.254	381.09
801.434	399.52
801.614	381.09
801.794	360.61
801.974	977.05
802.154	303.27
802.334	309.41
802.514	305.32
802.693	358.57
802.873	356.52
803.053	424.1
803.233	340.13
803.413	346.28
803.592	266.41
803.772	323.75
803.952	346.28
804.131	288.93
804.311	374.95
804.491	387.24
804.67	358.57
804.85	319.65
805.03	274.6
805.209	377
805.389	329.89
805.568	348.33
805.748	258.21
805.928	252.07
806.107	385.19
806.287	397.48
806.466	297.13
806.646	305.32
806.825	293.03
807.004	243.88
807.184	282.79
807.363	358.57
807.543	305.32
807.722	278.69
807.901	315.56
808.081	282.79
808.26	170.15
808.439	323.75
808.619	284.84
808.798	278.69
808.977	282.79
809.156	288.93
809.336	307.37
809.515	366.76
809.694	270.5
809.873	217.26
810.052	311.46
810.231	278.69
810.411	266.41
810.59	254.12
810.769	309.41
810.948	221.35
811.127	217.26
811.306	250.02
811.485	260.26
811.664	274.6
811.843	200.87
812.022	192.68
812.201	293.03
812.38	233.64
812.559	196.78
812.737	250.02
812.916	268.45
813.095	278.69
813.274	196.78
813.453	307.37
813.632	270.5
813.811	256.17
813.989	258.21
814.168	211.11
814.347	123.05
814.526	229.54
814.704	186.54
814.883	266.41
815.062	151.72
815.24	194.73
815.419	190.63
815.598	276.65
815.776	143.53
815.955	229.54
816.133	153.77
816.312	237.74
816.49	166.06
816.669	192.68
816.847	188.58
817.026	217.26
817.204	200.87
817.383	286.89
817.561	207.02
817.74	168.1
817.918	231.59
818.097	166.06
818.275	198.82
818.453	211.11
818.632	219.3
818.81	176.3
818.988	219.3
819.167	204.97
819.345	256.17
819.523	215.21
819.701	172.2
819.879	231.59
820.058	168.1
820.236	260.26
820.414	108.71
820.592	200.87
820.77	164.01
820.948	164.01
821.127	176.3
821.305	178.34
821.483	186.54
821.661	227.5
821.839	112.81
822.017	184.49
822.195	164.01
822.373	213.16
822.551	153.77
822.729	200.87
822.907	209.06
823.085	178.34
823.262	143.53
823.44	176.3
823.618	176.3
823.796	153.77
823.974	63.66
824.152	135.34
824.329	176.3
824.507	133.29
824.685	143.53
824.863	141.48
825.04	180.39
825.218	174.25
825.396	170.15
825.574	196.78
825.751	164.01
825.929	182.44
826.107	151.72
826.284	161.96
826.462	170.15
826.639	75.95
826.817	141.48
826.994	151.72
827.172	82.09
827.349	221.35
827.527	176.3
827.704	204.97
827.882	75.95
828.059	155.82
828.237	141.48
828.414	241.83
828.591	121
828.769	153.77
828.946	172.2
829.124	127.14
829.301	147.62
829.478	104.62
829.655	135.34
829.833	159.91
830.01	121
830.187	112.81
830.364	102.57
830.542	123.05
830.719	114.86
830.896	67.75
831.073	135.34
831.25	151.72
831.427	157.86
831.604	96.43
831.782	133.29
831.959	96.43
832.136	127.14
832.313	172.2
832.49	67.75
832.667	129.19
832.844	82.09
833.021	157.86
833.198	123.05
833.374	207.02
833.551	125.1
833.728	133.29
833.905	102.57
834.082	57.51
834.259	77.99
834.436	116.9
834.612	104.62
834.789	92.33
834.966	104.62
835.143	118.95
835.319	49.32
835.496	139.43
835.673	77.99
835.85	37.03
836.026	106.67
836.203	137.38
836.38	90.28
836.556	104.62
836.733	135.34
836.909	168.1
837.086	65.71
837.262	102.57
837.439	129.19
837.616	71.85
837.792	174.25
837.968	125.1
838.145	98.47
838.321	80.04
838.498	153.77
838.674	108.71
838.851	57.51
839.027	86.19
839.203	59.56
839.38	69.8
839.556	10.41
839.732	102.57
839.909	131.24
840.085	108.71
840.261	53.42
840.437	139.43
840.614	116.9
840.79	94.38
840.966	102.57
841.142	37.03
841.318	71.85
841.494	82.09
841.671	151.72
841.847	80.04
842.023	84.14
842.199	135.34
842.375	153.77
842.551	90.28
842.727	43.18
842.903	112.81
843.079	137.38
843.255	143.53
843.431	-16.21
843.607	116.9
843.783	-8.02
843.959	32.94
844.134	71.85
844.31	112.81
844.486	59.56
844.662	135.34
844.838	51.37
845.013	53.42
845.189	80.04
845.365	112.81
845.541	47.27
845.716	137.38
845.892	22.7
846.068	82.09
846.244	63.66
846.419	61.61
846.595	82.09
846.77	47.27
846.946	39.08
847.122	104.62
847.297	73.9
847.473	114.86
847.648	69.8
847.824	82.09
847.999	73.9
848.175	59.56
848.35	121
848.526	69.8
848.701	125.1
848.876	45.23
849.052	16.55
849.227	12.46
849.403	39.08
849.578	-10.07
849.753	88.23
849.929	164.01
850.104	71.85
850.279	53.42
850.454	51.37
850.63	32.94
850.805	6.31
850.98	77.99
851.155	39.08
851.33	102.57
851.505	61.61
851.681	86.19
851.856	98.47
852.031	28.84
852.206	114.86
852.381	57.51
852.556	45.23
852.731	69.8
852.906	14.51
853.081	127.14
853.256	8.36
853.431	39.08
853.606	82.09
853.781	-18.26
853.956	49.32
854.131	49.32
854.305	28.84
854.48	32.94
854.655	43.18
854.83	20.65
855.005	-36.69
855.18	0.17
855.354	49.32
855.529	-22.36
855.704	34.99
855.879	34.99
856.053	-46.93
856.228	55.47
856.403	37.03
856.577	98.47
856.752	24.75
856.926	43.18
857.101	37.03
857.276	61.61
857.45	157.86
857.625	51.37
857.799	34.99
857.974	0.17
858.148	18.6
858.323	-42.84
858.497	69.8
858.672	-1.88
858.846	20.65
859.02	37.03
859.195	-26.45
859.369	-1.88
859.543	100.52
859.718	34.99
859.892	100.52
860.066	71.85
860.241	41.13
860.415	16.55
860.589	32.94
860.763	10.41
860.938	82.09
861.112	14.51
861.286	-3.93
861.46	57.51
861.634	34.99
861.808	49.32
861.982	-55.12
862.157	-44.88
862.331	10.41
862.505	0.17
862.679	6.31
862.853	12.46
863.027	49.32
863.201	47.27
863.375	2.22
863.549	102.57
863.722	84.14
863.896	43.18
864.07	39.08
864.244	2.22
864.418	39.08
864.592	28.84
864.766	71.85
864.939	45.23
865.113	-30.55
865.287	55.47
865.461	61.61
865.634	104.62
865.808	26.79
865.982	51.37
866.156	-8.02
866.329	-14.17
866.503	-14.17
866.676	71.85
866.85	98.47
867.024	86.19
867.197	-10.07
867.371	39.08
867.544	26.79
867.718	18.6
867.891	59.56
868.065	57.51
868.238	-26.45
868.412	82.09
868.585	-18.26
868.759	67.75
868.932	-38.74
869.105	-5.97
869.279	92.33
869.452	18.6
869.625	45.23
869.799	53.42
869.972	-94.04
870.145	34.99
870.319	82.09
870.492	-1.88
870.665	-8.02
870.838	-16.21
871.011	-12.12
871.185	-16.21
871.358	34.99
871.531	32.94
871.704	45.23
871.877	30.89
872.05	30.89
872.223	61.61
872.396	53.42
872.569	28.84
872.742	-26.45
872.915	82.09
873.088	-61.27
873.261	73.9
873.434	98.47
873.607	51.37
873.78	53.42
873.953	82.09
874.126	20.65
874.299	34.99
874.471	8.36
874.644	-10.07
874.817	8.36
874.99	43.18
875.163	-32.6
875.335	82.09
875.508	30.89
875.681	30.89
875.853	28.84
876.026	53.42
876.199	10.41
876.371	-3.93
876.544	49.32
876.717	37.03
876.889	-32.6
877.062	32.94
877.234	-24.4
877.407	49.32
877.579	32.94
877.752	110.76
877.924	26.79
878.097	82.09
878.269	84.14
878.442	2.22
878.614	69.8
878.786	26.79
878.959	6.31
879.131	45.23
879.303	-24.4
879.476	45.23
879.648	49.32
879.82	71.85
879.993	16.55
880.165	80.04
880.337	8.36
880.509	-32.6
880.681	-55.12
880.854	2.22
881.026	71.85
881.198	63.66
881.37	49.32
881.542	71.85
881.714	-40.79
881.886	0.17
882.058	37.03
882.23	2.22
882.402	-1.88
882.574	82.09
882.746	22.7
882.918	41.13
883.09	-38.74
883.262	4.27
883.434	14.51
883.606	30.89
883.778	47.27
883.95	108.71
884.122	16.55
884.293	45.23
884.465	-28.5
884.637	45.23
884.809	18.6
884.98	18.6
885.152	37.03
885.324	6.31
885.496	-51.03
885.667	-3.93
885.839	80.04
886.011	14.51
886.182	88.23
886.354	114.86
886.525	-26.45
886.697	-24.4
886.869	-32.6
887.04	12.46
887.212	-22.36
887.383	118.95
887.555	-28.5
887.726	-20.31
887.897	-40.79
888.069	18.6
888.24	32.94
888.412	28.84
888.583	18.6
888.754	51.37
888.926	12.46
889.097	53.42
889.268	-51.03
889.44	18.6
889.611	-20.31
889.782	-38.74
889.953	-8.02
890.125	84.14
890.296	-22.36
890.467	-59.22
890.638	-63.32
890.809	37.03
890.98	-20.31
891.151	8.36
891.323	65.71
891.494	24.75
891.665	-18.26
891.836	67.75
892.007	59.56
892.178	0.17
892.349	-26.45
892.52	-22.36
892.691	28.84
892.862	-18.26
893.032	-5.97
893.203	16.55
893.374	0.17
893.545	18.6
893.716	4.27
893.887	20.65
894.057	86.19
894.228	-26.45
894.399	16.55
894.57	26.79
894.74	-32.6
894.911	80.04
895.082	-1.88
895.253	-26.45
895.423	4.27
895.594	-34.64
895.764	-30.55
895.935	-12.12
896.106	20.65
896.276	20.65
896.447	-28.5
896.617	-53.08
896.788	-3.93
896.958	20.65
897.129	14.51
897.299	55.47
897.47	39.08
897.64	28.84
897.81	41.13
897.981	28.84
898.151	14.51
898.322	55.47
898.492	-8.02
898.662	-112.47
898.832	-48.98
899.003	-16.21
899.173	28.84
899.343	30.89
899.513	2.22
