Data from USB4F104151__52__12-41-44-391.txt Node

Date: Fri Mar 14 12:41:44 EDT 2025
User: louis
Spectrometer: USB4F10415
Trigger mode: 4
Integration Time (sec): 3.000000E-2
Scans to average: 1
Electric dark correction enabled: true
Nonlinearity correction enabled: false
Boxcar width: 0
XAxis mode: Wavelengths
Number of Pixels in Spectrum: 3648
>>>>>Begin Spectral Data<<<<<
178.204	-98.47
178.424	-98.47
178.644	-98.47
178.864	-92.33
179.084	-114.86
179.304	63.32
179.524	-28.84
179.744	-43.18
179.964	89.94
180.184	-30.89
180.404	5.97
180.624	69.46
180.844	3.93
181.064	-80.04
181.283	-51.37
181.503	-16.55
181.723	18.26
181.943	-67.75
182.163	104.28
182.383	18.26
182.602	63.32
182.822	26.45
183.042	18.26
183.262	-45.23
183.482	20.31
183.701	77.65
183.921	42.84
184.141	-37.03
184.361	-10.41
184.58	28.5
184.8	30.55
185.02	30.55
185.239	22.36
185.459	-26.79
185.679	26.45
185.898	-18.6
186.118	89.94
186.338	3.93
186.557	30.55
186.777	5.97
186.997	46.93
187.216	-49.32
187.436	65.36
187.655	8.02
187.875	71.51
188.095	36.69
188.314	3.93
188.534	98.13
188.753	-53.42
188.973	-10.41
189.192	-18.6
189.412	34.64
189.631	22.36
189.851	36.69
190.07	42.84
190.29	28.5
190.509	79.7
190.729	-10.41
190.948	-6.31
191.168	122.71
191.387	100.18
191.607	-14.51
191.826	1.88
192.045	28.5
192.265	-6.31
192.484	24.4
192.704	16.21
192.923	24.4
193.142	24.4
193.362	-37.03
193.581	61.27
193.8	32.6
194.02	69.46
194.239	77.65
194.458	73.56
194.678	-8.36
194.897	65.36
195.116	-32.94
195.335	89.94
195.555	24.4
195.774	-37.03
195.993	-8.36
196.212	8.02
196.432	96.08
196.651	14.17
196.87	3.93
197.089	55.12
197.308	36.69
197.528	77.65
197.747	14.17
197.966	1.88
198.185	40.79
198.404	42.84
198.623	30.55
198.842	22.36
199.062	104.28
199.281	73.56
199.5	20.31
199.719	26.45
199.938	61.27
200.157	48.98
200.376	32.6
200.595	100.18
200.814	32.6
201.033	46.93
201.252	-10.41
201.471	28.5
201.69	32.6
201.909	-2.22
202.128	69.46
202.347	16.21
202.566	20.31
202.785	34.64
203.004	71.51
203.223	85.84
203.442	5.97
203.661	48.98
203.879	-10.41
204.098	14.17
204.317	44.88
204.536	40.79
204.755	22.36
204.974	55.12
205.193	48.98
205.411	87.89
205.63	89.94
205.849	10.07
206.068	65.36
206.287	-6.31
206.505	14.17
206.724	57.17
206.943	12.12
207.162	-16.55
207.381	48.98
207.599	-28.84
207.818	71.51
208.037	-20.65
208.255	-47.27
208.474	67.41
208.693	14.17
208.911	61.27
209.13	-32.94
209.349	57.17
209.567	16.21
209.786	-30.89
210.005	18.26
210.223	-37.03
210.442	-28.84
210.661	51.03
210.879	44.88
211.098	57.17
211.316	38.74
211.535	94.04
211.753	14.17
211.972	-24.75
212.191	26.45
212.409	36.69
212.628	57.17
212.846	-88.23
213.065	-26.79
213.283	8.02
213.502	36.69
213.72	48.98
213.938	-53.42
214.157	-2.22
214.375	51.03
214.594	18.26
214.812	34.64
215.031	12.12
215.249	-18.6
215.467	87.89
215.686	42.84
215.904	61.27
216.122	42.84
216.341	28.5
216.559	-49.32
216.778	42.84
216.996	34.64
217.214	20.31
217.432	-24.75
217.651	48.98
217.869	-22.7
218.087	14.17
218.306	24.4
218.524	-0.17
218.742	38.74
218.96	-41.13
219.179	20.31
219.397	44.88
219.615	44.88
219.833	18.26
220.051	36.69
220.27	69.46
220.488	5.97
220.706	61.27
220.924	-28.84
221.142	104.28
221.36	-6.31
221.578	36.69
221.796	-22.7
222.015	24.4
222.233	-14.51
222.451	83.8
222.669	3.93
222.887	110.42
223.105	-20.65
223.323	28.5
223.541	-10.41
223.759	57.17
223.977	-6.31
224.195	18.26
224.413	46.93
224.631	3.93
224.849	-2.22
225.067	55.12
225.285	-0.17
225.503	20.31
225.721	-20.65
225.939	53.08
226.157	-8.36
226.375	104.28
226.592	-12.46
226.81	14.17
227.028	61.27
227.246	1.88
227.464	30.55
227.682	18.26
227.9	8.02
228.117	96.08
228.335	1.88
228.553	-28.84
228.771	-32.94
228.989	14.17
229.206	38.74
229.424	-45.23
229.642	42.84
229.86	-34.99
230.077	57.17
230.295	22.36
230.513	44.88
230.731	32.6
230.948	-10.41
231.166	108.37
231.384	-14.51
231.601	46.93
231.819	28.5
232.037	28.5
232.254	-51.37
232.472	65.36
232.689	46.93
232.907	5.97
233.125	32.6
233.342	-10.41
233.56	100.18
233.777	22.36
233.995	63.32
234.213	79.7
234.43	85.84
234.648	-26.79
234.865	10.07
235.083	12.12
235.3	38.74
235.518	26.45
235.735	34.64
235.953	30.55
236.17	12.12
236.388	24.4
236.605	-6.31
236.822	67.41
237.04	38.74
237.257	-2.22
237.475	-4.27
237.692	46.93
237.909	5.97
238.127	10.07
238.344	53.08
238.562	-2.22
238.779	-71.85
238.996	-49.32
239.214	28.5
239.431	48.98
239.648	38.74
239.865	1.88
240.083	69.46
240.3	12.12
240.517	-37.03
240.735	40.79
240.952	53.08
241.169	69.46
241.386	89.94
241.603	12.12
241.821	40.79
242.038	79.7
242.255	30.55
242.472	32.6
242.689	91.99
242.907	42.84
243.124	-32.94
243.341	-8.36
243.558	48.98
243.775	-14.51
243.992	-67.75
244.209	44.88
244.426	8.02
244.643	108.37
244.86	-37.03
245.078	20.31
245.295	-32.94
245.512	79.7
245.729	44.88
245.946	85.84
246.163	18.26
246.38	44.88
246.597	28.5
246.814	55.12
247.031	-18.6
247.248	81.75
247.464	38.74
247.681	34.64
247.898	32.6
248.115	59.22
248.332	-102.57
248.549	38.74
248.766	79.7
248.983	36.69
249.2	42.84
249.417	71.51
249.633	73.56
249.85	89.94
250.067	75.6
250.284	14.17
250.501	-6.31
250.717	38.74
250.934	38.74
251.151	53.08
251.368	-10.41
251.585	16.21
251.801	38.74
252.018	-28.84
252.235	-41.13
252.451	22.36
252.668	8.02
252.885	5.97
253.102	22.36
253.318	55.12
253.535	10.07
253.752	32.6
253.968	22.36
254.185	26.45
254.401	-32.94
254.618	118.61
254.835	20.31
255.051	85.84
255.268	5.97
255.484	20.31
255.701	110.42
255.917	18.26
256.134	110.42
256.351	22.36
256.567	28.5
256.784	75.6
257	-2.22
257.217	96.08
257.433	42.84
257.65	-6.31
257.866	87.89
258.082	20.31
258.299	32.6
258.515	38.74
258.732	40.79
258.948	-18.6
259.165	87.89
259.381	14.17
259.597	-2.22
259.814	-6.31
260.03	14.17
260.246	-98.47
260.463	77.65
260.679	5.97
260.895	14.17
261.112	44.88
261.328	-55.47
261.544	-26.79
261.761	91.99
261.977	-51.37
262.193	36.69
262.409	-0.17
262.626	22.36
262.842	-53.42
263.058	-22.7
263.274	48.98
263.49	83.8
263.707	38.74
263.923	51.03
264.139	14.17
264.355	-0.17
264.571	18.26
264.787	-8.36
265.004	114.52
265.22	-16.55
265.436	1.88
265.652	-18.6
265.868	36.69
266.084	-63.66
266.3	-37.03
266.516	-88.23
266.732	16.21
266.948	94.04
267.164	112.47
267.38	46.93
267.596	75.6
267.812	-2.22
268.028	65.36
268.244	71.51
268.46	126.8
268.676	28.5
268.892	-4.27
269.108	22.36
269.324	63.32
269.54	-0.17
269.756	42.84
269.972	-26.79
270.188	42.84
270.403	-26.79
270.619	32.6
270.835	-26.79
271.051	5.97
271.267	34.64
271.483	14.17
271.698	-2.22
271.914	-30.89
272.13	32.6
272.346	77.65
272.562	-2.22
272.777	59.22
272.993	46.93
273.209	3.93
273.425	20.31
273.64	-47.27
273.856	59.22
274.072	100.18
274.287	10.07
274.503	83.8
274.719	44.88
274.934	67.41
275.15	-37.03
275.366	-18.6
275.581	-10.41
275.797	-12.46
276.012	5.97
276.228	46.93
276.444	-0.17
276.659	104.28
276.875	-24.75
277.09	-2.22
277.306	71.51
277.521	36.69
277.737	22.36
277.952	34.64
278.168	48.98
278.383	57.17
278.599	53.08
278.814	32.6
279.03	10.07
279.245	87.89
279.461	-18.6
279.676	24.4
279.892	-16.55
280.107	32.6
280.322	26.45
280.538	48.98
280.753	-2.22
280.969	34.64
281.184	59.22
281.399	77.65
281.615	5.97
281.83	110.42
282.045	5.97
282.26	28.5
282.476	-18.6
282.691	57.17
282.906	-39.08
283.122	-14.51
283.337	42.84
283.552	85.84
283.767	14.17
283.983	73.56
284.198	26.45
284.413	14.17
284.628	-2.22
284.843	89.94
285.058	30.55
285.274	40.79
285.489	16.21
285.704	79.7
285.919	24.4
286.134	1.88
286.349	51.03
286.564	83.8
286.779	18.26
286.995	77.65
287.21	-49.32
287.425	18.26
287.64	40.79
287.855	38.74
288.07	10.07
288.285	40.79
288.5	-16.55
288.715	96.08
288.93	75.6
289.145	59.22
289.36	-2.22
289.575	40.79
289.79	57.17
290.004	28.5
290.219	30.55
290.434	26.45
290.649	38.74
290.864	-12.46
291.079	63.32
291.294	24.4
291.509	48.98
291.724	-2.22
291.938	14.17
292.153	73.56
292.368	22.36
292.583	8.02
292.798	32.6
293.012	69.46
293.227	-8.36
293.442	83.8
293.657	-12.46
293.871	94.04
294.086	20.31
294.301	87.89
294.516	5.97
294.73	10.07
294.945	36.69
295.16	38.74
295.374	10.07
295.589	-30.89
295.804	77.65
296.018	5.97
296.233	44.88
296.447	71.51
296.662	-4.27
296.877	5.97
297.091	73.56
297.306	20.31
297.52	-47.27
297.735	53.08
297.949	42.84
298.164	18.26
298.378	-28.84
298.593	24.4
298.807	18.26
299.022	-4.27
299.236	69.46
299.451	-47.27
299.665	75.6
299.88	75.6
300.094	38.74
300.309	-6.31
300.523	10.07
300.737	94.04
300.952	48.98
301.166	42.84
301.381	-0.17
301.595	-37.03
301.809	38.74
302.024	65.36
302.238	79.7
302.452	46.93
302.667	36.69
302.881	87.89
303.095	-34.99
303.309	-20.65
303.524	-24.75
303.738	-0.17
303.952	-22.7
304.166	48.98
304.381	-2.22
304.595	143.19
304.809	10.07
305.023	79.7
305.237	91.99
305.452	42.84
305.666	20.31
305.88	10.07
306.094	32.6
306.308	81.75
306.522	83.8
306.736	38.74
306.95	96.08
307.164	46.93
307.379	34.64
307.593	106.32
307.807	108.37
308.021	51.03
308.235	94.04
308.449	-16.55
308.663	-10.41
308.877	114.52
309.091	-10.41
309.305	96.08
309.519	-18.6
309.733	89.94
309.947	71.51
310.161	59.22
310.374	-24.75
310.588	89.94
310.802	-22.7
311.016	26.45
311.23	44.88
311.444	-26.79
311.658	12.12
311.872	51.03
312.085	71.51
312.299	65.36
312.513	22.36
312.727	71.51
312.941	20.31
313.154	3.93
313.368	44.88
313.582	104.28
313.796	36.69
314.009	65.36
314.223	51.03
314.437	22.36
314.651	85.84
314.864	53.08
315.078	-18.6
315.292	-80.04
315.505	10.07
315.719	106.32
315.933	42.84
316.146	-28.84
316.36	10.07
316.573	59.22
316.787	-0.17
317.001	106.32
317.214	12.12
317.428	53.08
317.641	12.12
317.855	55.12
318.068	16.21
318.282	14.17
318.495	48.98
318.709	53.08
318.922	75.6
319.136	53.08
319.349	30.55
319.563	3.93
319.776	106.32
319.99	-10.41
320.203	38.74
320.417	42.84
320.63	79.7
320.843	53.08
321.057	30.55
321.27	94.04
321.483	-12.46
321.697	69.46
321.91	42.84
322.124	8.02
322.337	46.93
322.55	24.4
322.763	67.41
322.977	71.51
323.19	63.32
323.403	24.4
323.617	32.6
323.83	94.04
324.043	61.27
324.256	59.22
324.469	-10.41
324.683	94.04
324.896	61.27
325.109	59.22
325.322	5.97
325.535	69.46
325.748	65.36
325.962	36.69
326.175	59.22
326.388	40.79
326.601	8.02
326.814	36.69
327.027	61.27
327.24	89.94
327.453	-43.18
327.666	3.93
327.879	57.17
328.092	42.84
328.305	-18.6
328.518	32.6
328.731	18.26
328.944	-4.27
329.157	44.88
329.37	5.97
329.583	75.6
329.796	75.6
330.009	-14.51
330.222	30.55
330.435	55.12
330.648	16.21
330.861	61.27
331.073	28.5
331.286	83.8
331.499	110.42
331.712	-30.89
331.925	18.26
332.138	96.08
332.35	14.17
332.563	67.41
332.776	65.36
332.989	-12.46
333.202	28.5
333.414	-18.6
333.627	57.17
333.84	20.31
334.053	18.26
334.265	32.6
334.478	40.79
334.691	22.36
334.903	5.97
335.116	51.03
335.329	114.52
335.541	57.17
335.754	36.69
335.966	28.5
336.179	36.69
336.392	-0.17
336.604	24.4
336.817	26.45
337.029	73.56
337.242	42.84
337.454	81.75
337.667	53.08
337.88	65.36
338.092	-37.03
338.305	108.37
338.517	-24.75
338.729	44.88
338.942	96.08
339.154	1.88
339.367	-2.22
339.579	28.5
339.792	12.12
340.004	102.23
340.217	42.84
340.429	28.5
340.641	42.84
340.854	44.88
341.066	44.88
341.278	118.61
341.491	106.32
341.703	112.47
341.915	55.12
342.128	67.41
342.34	38.74
342.552	85.84
342.764	8.02
342.977	14.17
343.189	1.88
343.401	-14.51
343.613	-39.08
343.826	44.88
344.038	-4.27
344.25	53.08
344.462	8.02
344.674	98.13
344.886	65.36
345.099	81.75
345.311	65.36
345.523	67.41
345.735	18.26
345.947	100.18
346.159	-4.27
346.371	59.22
346.583	65.36
346.795	69.46
347.007	69.46
347.219	85.84
347.431	14.17
347.643	102.23
347.855	40.79
348.067	20.31
348.279	-2.22
348.491	18.26
348.703	91.99
348.915	28.5
349.127	26.45
349.339	28.5
349.551	24.4
349.763	34.64
349.975	20.31
350.187	22.36
350.399	75.6
350.61	14.17
350.822	-0.17
351.034	85.84
351.246	55.12
351.458	38.74
351.669	42.84
351.881	-24.75
352.093	24.4
352.305	69.46
352.517	30.55
352.728	55.12
352.94	53.08
353.152	24.4
353.363	-14.51
353.575	36.69
353.787	143.19
353.999	96.08
354.21	106.32
354.422	18.26
354.633	36.69
354.845	69.46
355.057	3.93
355.268	26.45
355.48	100.18
355.692	73.56
355.903	61.27
356.115	14.17
356.326	-37.03
356.538	28.5
356.749	48.98
356.961	94.04
357.172	104.28
357.384	71.51
357.595	155.47
357.807	1.88
358.018	-22.7
358.23	48.98
358.441	116.56
358.653	59.22
358.864	3.93
359.075	38.74
359.287	59.22
359.498	53.08
359.709	42.84
359.921	67.41
360.132	75.6
360.344	71.51
360.555	12.12
360.766	28.5
360.977	12.12
361.189	83.8
361.4	112.47
361.611	24.4
361.823	100.18
362.034	71.51
362.245	24.4
362.456	14.17
362.667	-2.22
362.879	-32.94
363.09	44.88
363.301	53.08
363.512	55.12
363.723	46.93
363.935	69.46
364.146	112.47
364.357	48.98
364.568	57.17
364.779	20.31
364.99	116.56
365.201	22.36
365.412	65.36
365.623	-2.22
365.834	38.74
366.045	-12.46
366.256	75.6
366.467	118.61
366.678	28.5
366.889	12.12
367.1	69.46
367.311	124.76
367.522	30.55
367.733	-14.51
367.944	83.8
368.155	36.69
368.366	36.69
368.577	40.79
368.788	100.18
368.999	-2.22
369.209	38.74
369.42	71.51
369.631	48.98
369.842	91.99
370.053	36.69
370.264	10.07
370.474	10.07
370.685	108.37
370.896	67.41
371.107	1.88
371.317	5.97
371.528	65.36
371.739	85.84
371.95	51.03
372.16	106.32
372.371	57.17
372.582	26.45
372.792	48.98
373.003	42.84
373.214	22.36
373.424	73.56
373.635	3.93
373.846	77.65
374.056	12.12
374.267	51.03
374.477	-43.18
374.688	-6.31
374.898	-2.22
375.109	63.32
375.319	79.7
375.53	40.79
375.74	87.89
375.951	81.75
376.161	81.75
376.372	112.47
376.582	44.88
376.793	-41.13
377.003	28.5
377.214	-2.22
377.424	51.03
377.635	12.12
377.845	53.08
378.055	89.94
378.266	40.79
378.476	-2.22
378.686	44.88
378.897	69.46
379.107	26.45
379.317	38.74
379.528	32.6
379.738	69.46
379.948	-51.37
380.158	69.46
380.369	108.37
380.579	77.65
380.789	3.93
380.999	73.56
381.21	130.9
381.42	81.75
381.63	38.74
381.84	89.94
382.05	91.99
382.261	42.84
382.471	106.32
382.681	18.26
382.891	98.13
383.101	63.32
383.311	44.88
383.521	-18.6
383.731	79.7
383.941	98.13
384.151	10.07
384.361	114.52
384.571	83.8
384.781	73.56
384.991	40.79
385.201	59.22
385.411	96.08
385.621	71.51
385.831	79.7
386.041	48.98
386.251	8.02
386.461	106.32
386.671	40.79
386.881	137.04
387.091	98.13
387.301	46.93
387.511	36.69
387.72	24.4
387.93	53.08
388.14	-2.22
388.35	8.02
388.56	132.95
388.769	120.66
388.979	81.75
389.189	81.75
389.399	87.89
389.609	65.36
389.818	1.88
390.028	87.89
390.238	145.24
390.447	26.45
390.657	46.93
390.867	100.18
391.076	96.08
391.286	100.18
391.496	108.37
391.705	59.22
391.915	89.94
392.125	36.69
392.334	79.7
392.544	124.76
392.753	24.4
392.963	108.37
393.172	51.03
393.382	44.88
393.591	65.36
393.801	91.99
394.01	143.19
394.22	77.65
394.429	36.69
394.639	16.21
394.848	112.47
395.058	89.94
395.267	89.94
395.477	28.5
395.686	75.6
395.895	106.32
396.105	122.71
396.314	36.69
396.524	91.99
396.733	83.8
396.942	46.93
397.152	116.56
397.361	94.04
397.57	91.99
397.78	71.51
397.989	69.46
398.198	137.04
398.407	130.9
398.617	81.75
398.826	96.08
399.035	102.23
399.244	110.42
399.453	110.42
399.663	130.9
399.872	114.52
400.081	87.89
400.29	85.84
400.499	55.12
400.708	122.71
400.917	-8.36
401.127	137.04
401.336	42.84
401.545	143.19
401.754	106.32
401.963	159.57
402.172	120.66
402.381	91.99
402.59	157.52
402.799	96.08
403.008	81.75
403.217	118.61
403.426	116.56
403.635	104.28
403.844	116.56
404.053	155.47
404.262	163.67
404.471	147.28
404.68	175.95
404.888	169.81
405.097	91.99
405.306	180.05
405.515	151.38
405.724	167.76
405.933	194.39
406.142	132.95
406.35	227.15
406.559	184.15
406.768	165.71
406.977	284.5
407.185	227.15
407.394	151.38
407.603	116.56
407.812	184.15
408.02	155.47
408.229	180.05
408.438	155.47
408.646	208.72
408.855	251.73
409.064	304.98
409.272	292.69
409.481	231.25
409.69	249.68
409.898	317.26
410.107	395.09
410.315	296.78
410.524	313.17
410.733	356.18
410.941	343.89
411.15	368.46
411.358	438.09
411.567	380.75
411.775	356.18
411.984	479.05
412.192	444.24
412.401	450.38
412.609	511.82
412.818	466.77
413.026	536.4
413.234	577.36
413.443	554.83
413.651	517.97
413.86	571.21
414.068	620.36
414.276	687.95
414.485	669.52
414.693	671.56
414.901	681.8
415.11	649.04
415.318	696.14
415.526	743.24
415.734	759.63
415.943	853.83
416.151	737.1
416.359	837.45
416.567	814.92
416.776	821.06
416.984	978.76
417.192	1064.77
417.4	1007.43
417.608	984.9
417.817	1062.73
418.025	1199.94
418.233	1232.71
418.441	1163.08
418.649	1183.56
418.857	1285.95
419.065	1302.34
419.273	1322.82
419.481	1318.72
419.689	1544
419.897	1544
420.105	1568.57
420.313	1591.1
420.521	1601.34
420.729	1670.97
420.937	1763.13
421.145	1802.04
421.353	1914.68
421.561	1992.5
421.769	2025.27
421.977	2062.13
422.185	2064.18
422.393	2156.34
422.601	2305.84
422.809	2293.55
423.017	2277.17
423.224	2457.39
423.432	2547.5
423.64	2635.57
423.848	2797.35
424.056	2678.57
424.263	2873.13
424.471	3053.35
424.679	2834.22
424.887	3231.52
425.094	3311.39
425.302	3315.49
425.51	3348.26
425.718	3397.41
425.925	3559.2
426.133	3778.33
426.341	3866.39
426.548	4067.1
426.756	3974.94
426.964	4079.38
427.171	4284.18
427.379	4474.64
427.586	4435.73
427.794	4634.38
428.001	4978.44
428.209	5125.9
428.417	4998.92
428.624	5367.56
428.832	5383.94
429.039	5373.7
429.247	5338.88
429.454	5777.15
429.662	6147.83
429.869	5871.36
430.076	6233.85
430.284	5883.64
430.491	6295.29
430.699	6678.26
430.906	6577.9
431.114	6735.6
431.321	6973.16
431.528	7134.95
431.736	7448.29
431.943	7898.84
432.15	7788.25
432.358	7722.72
432.565	8273.62
432.772	8077.02
432.979	8529.62
433.187	8832.72
433.394	8912.59
433.601	9426.63
433.808	9496.26
434.016	9531.08
434.223	9668.29
434.43	10467
434.637	10256.06
434.844	10800.82
435.052	11083.44
435.259	10712.75
435.466	11101.87
435.673	11099.82
435.88	11667.11
436.087	12185.24
436.294	12478.1
436.501	12316.31
436.708	12287.64
436.915	12588.69
437.122	13135.5
437.329	13231.76
437.537	13559.43
437.743	13948.54
437.95	13776.52
438.157	14470.78
438.364	14970.48
438.571	14863.99
438.778	15054.45
438.985	16377.44
439.192	15806.05
439.399	16234.08
439.606	15861.35
439.813	16950.87
440.02	17854.02
440.227	17567.31
440.433	17342.03
440.64	18214.46
440.847	17743.43
441.054	17925.7
441.261	19602.99
441.467	19279.41
441.674	19676.71
441.881	20008.48
442.088	20051.49
442.294	20008.48
442.501	20612.63
442.708	21005.84
442.914	21878.28
443.121	22541.82
443.328	22388.22
443.534	23860.71
443.741	23029.24
443.948	22554.11
444.154	24358.37
444.361	24294.88
444.568	24530.4
444.774	24448.48
444.981	24872.41
445.187	25370.07
445.394	26777.02
445.6	26168.77
445.807	28702.11
446.013	27508.15
446.22	28013.99
446.426	29195.67
446.633	29552.02
446.839	30426.5
447.046	28941.72
447.252	30915.97
447.459	30881.15
447.665	30705.02
447.871	31743.34
448.078	33406.3
448.284	31651.19
448.491	32832.86
448.697	34334.03
448.903	34385.22
449.11	34397.51
449.316	34174.28
449.522	34903.36
449.728	35712.31
449.935	35646.77
450.141	35591.48
450.347	36390.19
450.553	35312.95
450.76	35898.67
450.966	37125.41
451.172	36447.53
451.378	38028.56
451.584	36756.77
451.791	37891.35
451.997	38065.42
452.203	38448.39
452.409	38413.58
452.615	38350.09
452.821	36637.99
453.027	36492.58
453.233	37965.07
453.44	36906.27
453.646	37260.57
453.852	37352.73
454.058	38292.75
454.264	37111.07
454.47	37629.21
454.676	37010.72
454.882	37557.53
455.088	34606.41
455.294	35183.93
455.5	35931.44
455.705	35837.23
455.911	34596.17
456.117	34176.33
456.323	33578.32
456.529	31761.78
456.735	33150.3
456.941	32271.72
457.147	31874.41
457.352	30754.18
457.558	30598.53
457.764	30762.37
457.97	30309.77
458.176	29517.2
458.381	29367.7
458.587	27870.64
458.793	27559.34
458.999	26357.19
459.204	28298.66
459.41	27631.02
459.616	25871.82
459.821	25818.57
460.027	25748.94
460.233	25230.8
460.438	24135.14
460.644	24272.35
460.85	23039.48
461.055	22816.25
461.261	22693.37
461.466	20934.17
461.672	20237.86
461.878	21859.85
462.083	20332.06
462.289	19967.52
462.494	19824.17
462.7	19033.65
462.905	18513.47
463.111	18945.59
463.316	19324.46
463.522	18759.22
463.727	18828.85
463.932	18726.46
464.138	18449.98
464.343	18390.59
464.549	18089.54
464.754	18703.93
464.959	18607.67
465.165	18460.22
465.37	17251.92
465.575	16952.91
465.781	17833.54
465.986	17851.97
466.191	17258.06
466.397	16821.84
466.602	15982.18
466.807	16668.25
467.012	16723.54
467.218	16758.36
467.423	16629.34
467.628	16221.79
467.833	16997.97
468.038	16631.38
468.244	16143.97
468.449	16545.37
468.654	16064.1
468.859	16025.18
469.064	16012.9
469.269	15478.38
469.474	15672.93
469.679	15736.42
469.885	15521.38
470.09	15840.87
470.295	15349.36
470.5	15162.99
470.705	15105.65
470.91	14784.12
471.115	14747.25
471.32	14909.04
471.525	14888.56
471.73	14323.32
471.935	14474.87
472.139	13819.52
472.344	14222.97
472.549	14147.2
472.754	13749.89
472.959	13483.66
473.164	13192.84
473.369	13229.71
473.574	13600.39
473.778	13612.68
473.983	13543.05
474.188	13096.59
474.393	12734.1
474.598	12633.75
474.802	12580.5
475.007	12568.21
475.212	12400.28
475.417	12058.27
475.621	12033.69
475.826	12011.17
476.031	11861.66
476.235	11587.24
476.44	11695.78
476.645	11529.89
476.849	11695.78
477.054	11359.91
477.259	11415.21
477.463	11361.96
477.668	10811.06
477.872	11259.56
478.077	10608.31
478.282	10610.36
478.486	10731.19
478.691	10659.51
478.895	10280.63
479.1	10442.42
479.304	10540.72
479.509	10387.13
479.713	10462.9
479.918	10217.15
480.122	10010.3
480.326	10067.64
480.531	10004.16
480.735	10032.83
480.94	10081.98
481.144	10094.27
481.348	9623.23
481.553	9529.03
481.757	9684.67
481.961	9877.18
482.166	9772.74
482.37	9686.72
482.574	9610.95
482.778	9676.48
482.983	9764.54
483.187	9723.58
483.391	9809.6
483.595	9694.91
483.8	9551.56
484.004	9686.72
484.208	9713.35
484.412	9598.66
484.616	9733.82
484.821	9477.83
485.025	9436.87
485.229	9715.39
485.433	9547.46
485.637	9660.1
485.841	9418.44
486.045	9547.46
486.249	9645.76
486.453	9504.45
486.657	9658.05
486.861	9645.76
487.065	9377.48
487.269	9762.5
487.473	9488.07
487.677	9660.1
487.881	9821.89
488.085	9490.12
488.289	9690.82
488.493	9723.58
488.697	9688.77
488.901	9653.95
489.105	9748.16
489.309	9897.66
489.512	9836.22
489.716	9533.12
489.92	9699.01
490.124	9709.25
490.328	9795.26
490.531	9662.15
490.735	9860.8
490.939	9754.3
491.143	9944.77
491.346	9840.32
491.55	9772.74
491.754	9983.68
491.958	10016.44
492.161	9985.72
492.365	10297.02
492.569	9950.91
492.772	10079.93
492.976	10288.82
493.18	10362.55
493.383	10364.6
493.587	10401.46
493.79	10383.03
493.994	10331.83
494.197	10647.22
494.401	10667.7
494.605	10688.18
494.808	10825.39
495.012	10743.47
495.215	10725.04
495.419	11110.06
495.622	10911.41
495.825	11163.31
496.029	11071.15
496.232	11275.95
496.436	11181.74
496.639	11605.67
496.843	11417.26
497.046	11687.59
497.249	11857.57
497.453	11716.26
497.656	12043.93
497.859	12082.84
498.063	12189.34
498.266	12390.04
498.469	12209.82
498.673	12625.56
498.876	12834.45
499.079	12983.95
499.282	12875.41
499.485	12869.26
499.689	12932.75
499.892	13225.61
500.095	13457.03
500.298	13463.18
500.501	13479.56
500.705	13901.44
500.908	14046.85
501.111	14149.25
501.314	14257.79
501.517	14304.89
501.72	14552.7
501.923	14362.23
502.126	15056.5
502.329	14947.95
502.532	15146.61
502.735	15304.3
502.938	15748.71
503.141	15607.4
503.344	15765.09
503.547	16096.86
503.75	16137.82
503.953	16467.55
504.156	16393.82
504.359	16717.4
504.562	16737.88
504.765	17040.98
504.968	17274.45
505.17	17325.64
505.373	17469
505.576	17765.96
505.779	18015.81
505.982	18161.22
506.185	18191.94
506.387	18648.63
506.59	18822.71
506.793	18996.79
506.996	18871.86
507.198	19242.54
507.401	19303.98
507.604	19271.22
507.807	19777.06
508.009	19801.64
508.212	20117.03
508.415	20399.65
508.617	20235.81
508.82	20786.71
509.022	20502.04
509.225	21233.17
509.428	21284.37
509.63	21116.44
509.833	21452.3
510.035	22035.97
510.238	21728.78
510.44	22148.61
510.643	22420.99
510.845	22707.71
511.048	22324.74
511.25	22910.46
511.453	23047.67
511.655	23725.55
511.858	23541.23
512.06	23657.96
512.262	23891.43
512.465	23885.29
512.667	24180.2
512.87	24530.4
513.072	24491.49
513.274	24909.27
513.477	24962.52
513.679	25122.26
513.881	25806.28
514.084	25759.18
514.286	25963.98
514.488	26338.76
514.69	26873.28
514.893	26770.88
515.095	26906.04
515.297	27231.67
515.499	27082.17
515.701	27612.59
515.904	27657.65
516.106	27837.87
516.308	28046.76
516.51	28407.2
516.712	28413.35
516.914	28689.82
517.116	29474.2
517.318	28908.96
517.52	29435.28
517.722	29250.97
517.925	30070.15
518.127	29781.39
518.329	30498.18
518.531	30440.84
518.733	30842.24
518.935	31010.17
519.136	31081.85
519.338	31419.77
519.54	31663.47
519.742	31731.06
519.944	31823.22
520.146	32796
520.348	32972.13
520.55	32652.64
520.752	32593.25
520.954	33189.21
521.155	33006.94
521.357	33480.02
521.559	33684.82
521.761	34248.01
521.963	33926.48
522.164	34352.46
522.366	34360.65
522.568	34602.31
522.77	35044.67
522.971	35353.91
523.173	35216.7
523.375	35347.77
523.576	35450.17
523.778	35495.22
523.98	35874.1
524.181	35761.46
524.383	35876.15
524.584	36662.57
524.786	36392.23
524.988	36179.25
525.189	36437.29
525.391	36973.86
525.592	37102.88
525.794	37365.02
525.995	37135.65
526.197	37141.79
526.398	37448.99
526.6	37645.59
526.801	37399.83
527.003	37840.15
527.204	37639.45
527.406	38272.27
527.607	38194.45
527.808	38231.31
528.01	37821.72
528.211	38079.76
528.412	38757.64
528.614	38173.97
528.815	38497.55
529.016	38634.76
529.218	38034.7
529.419	39066.88
529.62	39058.69
529.822	38649.1
530.023	38778.12
530.224	38599.94
530.425	39054.59
530.626	38554.89
530.828	38849.8
531.029	39814.39
531.23	38624.52
531.431	39068.93
531.632	39171.33
531.833	39316.73
532.035	38976.77
532.236	39105.79
532.437	39283.97
532.638	38837.51
532.839	39308.54
533.04	39544.06
533.241	38819.08
533.442	40039.67
533.643	39273.73
533.844	39298.3
534.045	39445.76
534.246	39101.7
534.447	39429.37
534.648	39331.07
534.849	39173.38
535.05	39087.36
535.251	39214.33
535.451	39275.77
535.652	39580.92
535.853	39329.02
536.054	39304.45
536.255	39720.18
536.456	39345.4
536.657	39421.18
536.857	39079.17
537.058	39236.86
537.259	39607.54
537.46	39439.61
537.66	39070.98
537.861	39130.37
538.062	39384.32
538.263	39464.19
538.463	39496.95
538.664	39353.6
538.865	39091.46
539.065	39384.32
539.266	38991.11
539.466	39406.84
539.667	38970.63
539.868	39515.39
540.068	39275.77
540.269	39597.31
540.469	39283.97
540.67	38978.82
540.87	39003.39
541.071	38968.58
541.271	39593.21
541.472	38927.62
541.672	38796.55
541.873	38712.58
542.073	38280.46
542.274	39634.17
542.474	38999.3
542.675	38800.65
542.875	39296.25
543.075	38651.14
543.276	38743.3
543.476	39320.83
543.676	38675.72
543.877	38645
544.077	38755.59
544.277	38505.74
544.478	38190.35
544.678	39144.7
544.878	39087.36
545.078	38903.04
545.279	38491.4
545.479	38661.38
545.679	38565.13
545.879	38612.23
546.079	38919.43
546.28	38675.72
546.48	38495.5
546.68	38993.15
546.88	38702.34
547.08	38601.99
547.28	38546.7
547.48	38329.61
547.68	38698.25
547.88	38384.91
548.081	38751.49
548.281	38376.72
548.481	38173.97
548.681	38608.14
548.881	38618.38
549.081	38352.14
549.28	38700.29
549.48	38468.87
549.68	38366.48
549.88	38909.19
550.08	38292.75
550.28	38569.22
550.48	38204.69
550.68	38620.42
550.88	38350.09
551.08	38210.83
551.279	38638.86
551.479	37926.16
551.679	38391.05
551.879	38188.3
552.079	38245.65
552.278	37872.92
552.478	38520.07
552.678	38169.87
552.878	38487.31
553.077	38343.95
553.277	37899.54
553.477	38186.25
553.676	37981.46
553.876	38329.61
554.076	37836.05
554.275	37932.31
554.475	37760.28
554.674	38083.86
554.874	37860.63
555.074	37489.95
555.273	37715.22
555.473	38219.02
555.672	37688.6
555.872	37776.66
556.071	37760.28
556.271	37745.94
556.47	37391.64
556.67	37606.68
556.869	37545.24
557.068	37743.89
557.268	37326.11
557.467	37692.69
557.667	37653.78
557.866	37408.03
558.065	37195.04
558.265	37272.86
558.464	36879.65
558.663	37707.03
558.863	36865.31
559.062	37399.83
559.261	37025.06
559.461	37430.55
559.66	36805.92
559.859	37236
560.058	36893.99
560.258	36855.07
560.457	36605.22
560.656	36975.91
560.855	36681
561.054	37360.92
561.253	36318.51
561.453	36687.14
561.652	36347.18
561.851	37078.3
562.05	36834.6
562.249	36418.86
562.448	37072.16
562.647	36539.69
562.846	36379.95
563.045	36584.74
563.244	36193.58
563.443	36519.21
563.642	36123.95
563.841	36218.16
564.04	36312.36
564.239	36363.56
564.438	36271.4
564.637	36105.52
564.836	36023.6
565.035	35843.38
565.234	35925.3
565.432	35992.88
565.631	35923.25
565.83	35802.42
566.029	35900.72
566.228	35704.12
566.427	35904.82
566.625	35368.25
566.824	35069.25
567.023	35476.79
567.222	34669.89
567.42	35466.55
567.619	35503.42
567.818	34962.75
568.016	35444.02
568.215	35188.03
568.414	34944.32
568.612	35048.77
568.811	35040.57
569.01	35069.25
569.208	34645.32
569.407	35063.1
569.605	34192.72
569.804	34850.11
570.002	34450.76
570.201	34348.36
570.4	34389.32
570.598	34569.54
570.797	33834.32
570.995	34547.01
571.193	34078.03
571.392	34403.66
571.59	34018.64
571.789	34084.17
571.987	34102.6
572.186	33832.27
572.384	33801.55
572.582	33934.67
572.781	33645.91
572.979	33473.88
573.177	33932.62
573.376	33881.42
573.574	33377.62
573.772	33676.63
573.971	33428.82
574.169	33207.64
574.367	33639.76
574.565	33346.9
574.763	33152.35
574.962	33281.37
575.16	33017.18
575.358	32955.74
575.556	32621.92
575.754	33156.44
575.952	32746.85
576.151	32804.19
576.349	32015.72
576.547	32488.81
576.745	32464.23
576.943	32615.78
577.141	32591.2
577.339	32656.74
577.537	32243.05
577.735	32210.28
577.933	31444.34
578.131	31788.4
578.329	31731.06
578.527	31763.82
578.725	31892.85
578.923	32275.82
579.121	31692.15
579.319	31776.11
579.516	31896.94
579.714	31554.93
579.912	31350.13
580.11	31518.07
580.308	31354.23
580.506	31384.95
580.704	30999.93
580.901	31233.4
581.099	31313.27
581.297	30946.69
581.495	30961.02
581.692	31415.67
581.89	30733.7
582.088	30907.77
582.285	30678.4
582.483	30487.94
582.681	30608.77
582.878	30518.66
583.076	30397.83
583.274	30535.04
583.471	29984.14
583.669	30172.55
583.866	29879.69
584.064	30285.19
584.262	29537.68
584.459	29922.7
584.657	29646.22
584.854	30035.34
585.052	29298.07
585.249	29605.27
585.447	29521.3
585.644	29359.51
585.841	29455.76
586.039	29668.75
586.236	29328.79
586.434	29539.73
586.631	29142.42
586.828	29244.82
587.026	29265.3
587.223	29003.16
587.42	28644.77
587.618	28712.35
587.815	28605.86
588.012	28556.71
588.21	28544.42
588.407	28665.25
588.604	28392.87
588.801	27839.92
588.999	28081.58
589.196	28128.68
589.393	28093.86
589.59	28036.52
589.787	27665.84
589.984	27846.06
590.182	27407.8
590.379	28030.38
590.576	27762.09
590.773	27698.61
590.97	27686.32
591.167	27723.18
591.364	27067.83
591.561	27100.6
591.758	27264.44
591.955	26863.04
592.152	27100.6
592.349	26869.18
592.546	26957.24
592.743	27295.16
592.94	26508.74
593.137	26617.28
593.334	26604.99
593.531	26248.64
593.727	26457.54
593.924	26500.54
594.121	26062.28
594.318	26633.66
594.515	25880.01
594.712	26285.51
594.908	25890.25
595.105	26349
595.302	26090.95
595.499	25787.85
595.696	25707.98
595.892	25234.9
596.089	25650.64
596.286	25908.68
596.482	25519.57
596.679	25759.18
596.876	25339.35
597.072	25337.3
597.269	25075.16
597.466	24911.32
597.662	25112.02
597.859	25030.1
598.055	25101.78
598.252	24878.55
598.448	24872.41
598.645	24417.76
598.841	24499.68
599.038	24819.16
599.234	24559.07
599.431	24249.83
599.627	24163.81
599.824	24720.86
600.02	24243.68
600.217	24120.81
600.413	24032.74
600.609	23987.69
600.806	23743.98
601.002	24137.19
601.198	23866.86
601.395	23395.82
601.591	23504.37
601.787	23696.88
601.984	23709.16
602.18	23752.17
602.376	23412.21
602.572	23784.94
602.769	23467.5
602.965	23012.85
603.161	23105.01
603.357	23141.88
603.553	23150.07
603.75	23025.14
603.946	22947.32
604.142	22935.03
604.338	22674.94
604.534	22699.51
604.73	22449.66
604.926	22502.91
605.122	22822.39
605.318	22361.6
605.514	22337.02
605.71	22345.22
605.906	22617.6
606.102	22261.25
606.298	22267.39
606.494	22081.03
606.69	22038.02
606.886	22300.16
607.082	21839.37
607.278	21974.53
607.474	21548.56
607.67	21829.13
607.866	21429.77
608.062	22003.21
608.257	21554.7
608.453	21921.29
608.649	21362.19
608.845	21313.04
609.041	21540.36
609.236	21390.86
609.432	21374.48
609.628	21335.57
609.824	21622.28
610.019	21171.73
610.215	21143.06
610.411	21171.73
610.606	21122.58
610.802	21378.58
610.998	20975.13
611.193	20913.69
611.389	21052.95
611.584	20858.39
611.78	20497.95
611.976	20829.72
612.171	20962.84
612.367	20946.45
612.562	21071.38
612.758	20622.87
612.953	20497.95
613.149	20657.69
613.344	20334.11
613.539	20995.6
613.735	20303.39
613.93	20624.92
614.126	20518.43
614.321	20342.3
614.517	20440.61
614.712	20330.02
614.907	20342.3
615.103	20497.95
615.298	20313.63
615.493	20442.65
615.688	20090.4
615.884	20635.16
616.079	19998.24
616.274	20057.64
616.47	19945
616.665	20266.53
616.86	19863.08
617.055	19766.82
617.25	19928.61
617.445	19883.56
617.641	19588.65
617.836	19781.16
618.031	19519.02
618.226	19426.86
618.421	19457.58
618.616	19762.73
618.811	19267.12
619.006	19611.18
619.201	19064.37
619.396	19172.91
619.591	19226.16
619.786	19351.09
619.981	18964.02
620.176	19181.1
620.371	18599.48
620.566	18574.91
620.761	18478.65
620.956	18775.61
621.151	18511.42
621.346	18925.11
621.541	18165.31
621.735	18585.15
621.93	18187.84
622.125	18189.89
622.32	17800.77
622.515	17964.61
622.709	17808.97
622.904	17649.22
623.099	17958.47
623.294	17749.57
623.488	17139.28
623.683	17413.71
623.878	17323.6
624.072	17534.54
624.267	17292.88
624.462	17116.75
624.656	17022.55
624.851	16954.96
625.046	16643.67
625.24	16559.7
625.435	16535.13
625.629	16735.83
625.824	16430.68
626.018	16522.84
626.213	15883.87
626.407	16031.33
626.602	15986.27
626.796	16350.81
626.991	16150.11
627.185	15634.02
627.38	15967.84
627.574	15842.92
627.768	15580.78
627.963	15369.83
628.157	15537.77
628.352	15359.59
628.546	15072.88
628.74	15351.4
628.935	15001.2
629.129	14833.27
629.323	14706.29
629.517	14798.45
629.712	14612.09
629.906	14882.42
630.1	14542.46
630.294	14532.22
630.489	14542.46
630.683	14470.78
630.877	14325.37
631.071	14147.2
631.265	14274.17
631.459	13958.78
631.653	14018.18
631.848	14077.57
632.042	13772.42
632.236	14007.94
632.43	13749.89
632.624	13698.69
632.818	13690.5
633.012	13418.12
633.206	13469.32
633.4	13637.25
633.594	13242
633.788	13389.45
633.982	13352.59
634.176	13043.34
634.369	12979.86
634.563	13069.97
634.757	12824.21
634.951	12998.29
635.145	12869.26
635.339	12981.9
635.533	12713.62
635.726	12777.11
635.92	12478.1
636.114	12611.22
636.308	12365.46
636.501	12431
636.695	12414.62
636.889	12146.33
637.083	12252.83
637.276	12181.15
637.47	11982.49
637.664	11894.43
637.857	11998.88
638.051	12039.84
638.244	11703.97
638.438	12017.31
638.632	11654.82
638.825	11519.65
639.019	11585.19
639.212	11396.78
639.406	11523.75
639.599	11296.42
639.793	11480.74
639.986	11194.03
640.18	11490.98
640.373	11247.27
640.567	11044.52
640.76	11071.15
640.954	11120.3
641.147	11028.14
641.34	10958.51
641.534	10856.11
641.727	10686.13
641.92	10792.62
642.114	10604.21
642.307	10739.38
642.5	10565.3
642.694	10407.61
642.887	10297.02
643.08	10596.02
643.273	10514.1
643.467	10262.2
643.66	10196.67
643.853	10362.55
644.046	10075.84
644.239	10211
644.432	10077.88
644.626	9830.08
644.819	9952.96
645.012	9803.46
645.205	9926.33
645.398	9828.03
645.591	9764.54
645.784	9656
645.977	9672.39
646.17	9762.5
646.363	9612.99
646.556	9508.55
646.749	9240.26
646.942	9526.98
647.135	9299.66
647.328	9432.77
647.521	9199.3
647.714	9213.64
647.907	9096.91
648.099	9078.47
648.292	9135.82
648.485	9107.15
648.678	8912.59
648.871	9027.28
649.064	8879.82
649.256	8797.9
649.449	8767.18
649.642	8773.33
649.835	8675.02
650.027	8703.7
650.22	8580.82
650.413	8693.46
650.605	8566.48
650.798	8455.89
650.991	8376.02
651.183	8455.89
651.376	8324.82
651.568	8406.74
651.761	8367.83
651.954	8263.38
652.146	8214.23
652.339	7999.2
652.531	7960.28
652.724	8081.11
652.916	7769.82
653.109	7968.48
653.301	8046.3
653.494	7884.51
653.686	7872.22
653.879	7788.25
654.071	7745.25
654.263	7745.25
654.456	7530.21
654.648	7730.91
654.84	7593.7
655.033	7577.31
655.225	7730.91
655.417	7386.85
655.61	7425.76
655.802	7347.94
655.994	7276.26
656.186	7407.33
656.379	7436
656.571	7159.53
656.763	7036.65
656.955	7137
657.148	7188.2
657.34	7173.86
657.532	6999.79
657.724	6971.11
657.916	7182.06
658.108	6919.92
658.3	7034.6
658.492	6948.59
658.684	6719.21
658.876	6889.2
659.068	6952.68
659.26	6713.07
659.452	6801.13
659.644	6926.06
659.836	6661.87
660.028	6610.67
660.22	6465.27
660.412	6450.93
660.604	6502.13
660.796	6559.47
660.988	6614.77
661.18	6409.97
661.372	6278.9
661.563	6520.56
661.755	6223.61
661.947	6409.97
662.139	6096.63
662.331	6147.83
662.522	6231.8
662.714	6246.13
662.906	5996.28
663.097	6137.59
663.289	6285.05
663.481	6082.3
663.673	6031.1
663.864	5926.65
664.056	5801.72
664.247	5932.79
664.439	5947.13
664.631	5949.18
664.822	5863.16
665.014	5611.26
665.205	5891.84
665.397	5820.16
665.588	5789.44
665.78	5814.01
665.971	5693.18
666.163	5705.47
666.354	5635.84
666.546	5658.37
666.737	5551.87
666.929	5584.64
667.12	5607.17
667.311	5351.17
667.503	5463.81
667.694	5535.49
667.885	5431.04
668.077	5400.32
668.268	5390.08
668.459	5555.97
668.651	5357.32
668.842	5250.82
669.033	5316.36
669.224	5279.49
669.416	5242.63
669.607	5326.6
669.798	5224.2
669.989	5191.43
670.18	5103.37
670.371	5054.22
670.563	5170.95
670.754	5189.38
670.945	5123.85
671.136	4941.58
671.327	5003.02
671.518	5037.83
671.709	4947.72
671.9	5009.16
672.091	5005.06
672.282	5023.5
672.473	4775.69
672.664	4816.65
672.855	4847.37
673.046	4892.43
673.237	5027.59
673.428	4769.55
673.619	4810.51
673.809	4708.11
674	4714.25
674.191	4728.59
674.382	4704.01
674.573	4644.62
674.764	4525.84
674.954	4691.73
675.145	4495.12
675.336	4587.28
675.527	4574.99
675.717	4652.81
675.908	4554.51
676.099	4583.18
676.289	4355.86
676.48	4439.83
676.671	4427.54
676.861	4409.11
677.052	4601.62
677.243	4355.86
677.433	4374.29
677.624	4509.46
677.814	4439.83
678.005	4374.29
678.195	4257.56
678.386	4396.82
678.576	4359.95
678.767	4421.39
678.957	4255.51
679.148	4441.87
679.338	4282.13
679.529	4325.14
679.719	4220.69
679.909	4423.44
680.1	4372.24
680.29	4300.56
680.481	4310.8
680.671	4284.18
680.861	4224.79
681.052	4114.2
681.242	4153.11
681.432	4241.17
681.622	4183.83
681.813	4122.39
682.003	4079.38
682.193	4001.56
682.383	4103.96
682.573	4132.63
682.764	4054.81
682.954	4099.86
683.144	4108.05
683.334	4232.98
683.524	4136.73
683.714	4069.14
683.904	4091.67
684.094	4017.94
684.284	4003.61
684.474	4030.23
684.664	4173.59
684.854	4069.14
685.044	3999.51
685.234	3903.26
685.424	3903.26
685.614	3933.98
685.804	4009.75
685.994	3876.63
686.184	3827.48
686.374	3792.67
686.564	3833.63
686.753	3829.53
686.943	3704.6
687.133	3854.11
687.323	3796.76
687.513	3782.43
687.702	3747.61
687.892	3618.59
688.082	3737.37
688.272	3745.56
688.461	3641.12
688.651	3540.77
688.841	3745.56
689.03	3735.32
689.22	3673.89
689.41	3624.73
689.599	3532.58
689.789	3702.56
689.979	3704.6
690.168	3563.29
690.358	3665.69
690.547	3516.19
690.737	3444.51
690.926	3561.25
691.116	3469.09
691.305	3540.77
691.495	3452.7
691.684	3434.27
691.874	3311.39
692.063	3411.75
692.252	3475.23
692.442	3415.84
692.631	3292.96
692.82	3362.59
693.01	3227.43
693.199	3268.39
693.388	3252
693.578	3155.75
693.767	3286.82
693.956	3184.42
694.146	3129.13
694.335	3100.45
694.524	3114.79
694.713	3114.79
694.902	3131.17
695.092	3151.65
695.281	3022.63
695.47	2928.42
695.659	2838.31
695.848	3059.49
696.037	3041.06
696.226	3061.54
696.415	3088.17
696.604	3036.97
696.793	3010.34
696.982	2971.43
697.171	2883.37
697.36	3055.4
697.549	2826.03
697.738	2924.33
697.927	2936.62
698.116	3008.3
698.305	2811.69
698.494	2877.23
698.683	2778.92
698.872	2916.14
699.061	2916.14
699.25	2774.83
699.438	2977.58
699.627	2836.27
699.816	2821.93
700.005	2684.72
700.193	2838.31
700.382	2813.74
700.571	2821.93
700.76	2766.64
700.948	2809.64
701.137	2770.73
701.326	2897.71
701.514	2815.79
701.703	2705.2
701.892	2715.44
702.08	2737.96
702.269	2692.91
702.457	2764.59
702.646	2619.18
702.834	2570.03
703.023	2719.53
703.212	2641.71
703.4	2510.64
703.589	2604.85
703.777	2598.7
703.965	2608.94
704.154	2561.84
704.342	2610.99
704.531	2623.28
704.719	2496.3
704.907	2547.5
705.096	2492.21
705.284	2617.13
705.472	2426.67
705.661	2658.09
705.849	2629.42
706.037	2520.88
706.226	2529.07
706.414	2627.37
706.602	2420.53
706.79	2518.83
706.979	2434.86
707.167	2457.39
707.355	2377.52
707.543	2449.2
707.731	2471.73
707.919	2484.02
708.107	2541.36
708.296	2463.54
708.484	2447.15
708.672	2363.19
708.86	2553.65
709.048	2395.95
709.236	2416.43
709.424	2455.34
709.612	2512.69
709.8	2508.59
709.988	2459.44
710.176	2473.78
710.364	2424.62
710.551	2434.86
710.739	2371.38
710.927	2434.86
711.115	2504.5
711.303	2498.35
711.491	2469.68
711.679	2412.34
711.866	2524.97
712.054	2404.14
712.242	2400.05
712.43	2422.58
712.617	2424.62
712.805	2320.18
712.993	2428.72
713.181	2365.23
713.368	2414.38
713.556	2451.25
713.744	2295.6
713.931	2457.39
714.119	2320.18
714.306	2398
714.494	2404.14
714.682	2357.04
714.869	2408.24
715.057	2352.95
715.244	2311.99
715.432	2391.86
715.619	2365.23
715.807	2367.28
715.994	2318.13
716.182	2332.47
716.369	2369.33
716.556	2486.06
716.744	2264.88
716.931	2242.36
717.119	2361.14
717.306	2404.14
717.493	2455.34
717.681	2361.14
717.868	2334.51
718.055	2303.79
718.242	2246.45
718.43	2332.47
718.617	2465.58
718.804	2320.18
718.991	2422.58
719.179	2342.71
719.366	2361.14
719.553	2502.45
719.74	2455.34
719.927	2488.11
720.114	2379.57
720.301	2260.79
720.488	2459.44
720.676	2346.8
720.863	2352.95
721.05	2369.33
721.237	2400.05
721.424	2322.23
721.611	2340.66
721.798	2404.14
721.985	2365.23
722.172	2438.96
722.358	2391.86
722.545	2379.57
722.732	2471.73
722.919	2391.86
723.106	2264.88
723.293	2203.44
723.48	2441.01
723.667	2422.58
723.853	2475.82
724.04	2383.66
724.227	2363.19
724.414	2311.99
724.6	2365.23
724.787	2457.39
724.974	2441.01
725.161	2441.01
725.347	2332.47
725.534	2338.61
725.72	2402.1
725.907	2438.96
726.094	2373.43
726.28	2436.91
726.467	2299.7
726.653	2484.02
726.84	2543.41
727.027	2436.91
727.213	2422.58
727.4	2475.82
727.586	2451.25
727.773	2295.6
727.959	2438.96
728.145	2535.21
728.332	2357.04
728.518	2469.68
728.705	2445.1
728.891	2393.9
729.077	2471.73
729.264	2463.54
729.45	2414.38
729.636	2402.1
729.823	2479.92
730.009	2555.69
730.195	2516.78
730.382	2471.73
730.568	2510.64
730.754	2484.02
730.94	2371.38
731.126	2506.54
731.313	2608.94
731.499	2524.97
731.685	2592.56
731.871	2520.88
732.057	2680.62
732.243	2606.89
732.429	2541.36
732.615	2596.65
732.801	2514.73
732.987	2633.52
733.173	2449.2
733.359	2619.18
733.545	2520.88
733.731	2590.51
733.917	2662.19
734.103	2580.27
734.289	2658.09
734.475	2643.76
734.661	2484.02
734.847	2610.99
735.033	2590.51
735.219	2578.22
735.404	2627.37
735.59	2649.9
735.776	2582.32
735.962	2668.33
736.148	2703.15
736.333	2643.76
736.519	2731.82
736.705	2508.59
736.89	2449.2
737.076	2694.96
737.262	2631.47
737.447	2668.33
737.633	2731.82
737.819	2637.61
738.004	2598.7
738.19	2582.32
738.375	2592.56
738.561	2711.34
738.747	2680.62
738.932	2639.66
739.118	2756.4
739.303	2641.71
739.489	2742.06
739.674	2631.47
739.859	2535.21
740.045	2690.86
740.23	2469.68
740.416	2701.1
740.601	2619.18
740.786	2701.1
740.972	2582.32
741.157	2645.8
741.342	2721.58
741.528	2701.1
741.713	2694.96
741.898	2637.61
742.084	2649.9
742.269	2508.59
742.454	2615.09
742.639	2654
742.824	2705.2
743.01	2633.52
743.195	2709.29
743.38	2606.89
743.565	2727.72
743.75	2580.27
743.935	2596.65
744.12	2694.96
744.305	2535.21
744.49	2567.98
744.675	2701.1
744.86	2531.12
745.045	2707.24
745.23	2621.23
745.415	2645.8
745.6	2574.13
745.785	2537.26
745.97	2621.23
746.155	2527.02
746.34	2479.92
746.525	2524.97
746.71	2535.21
746.895	2584.37
747.079	2488.11
747.264	2393.9
747.449	2434.86
747.634	2438.96
747.819	2477.87
748.003	2398
748.188	2434.86
748.373	2391.86
748.557	2477.87
748.742	2402.1
748.927	2430.77
749.111	2447.15
749.296	2465.58
749.481	2275.12
749.665	2389.81
749.85	2340.66
750.034	2283.31
750.219	2342.71
750.404	2326.32
750.588	2228.02
750.773	2301.75
750.957	2299.7
751.141	2303.79
751.326	2334.51
751.51	2160.44
751.695	2144.05
751.879	2240.31
752.064	2324.27
752.248	2344.75
752.432	2142
752.617	2254.64
752.801	2191.16
752.985	2127.67
753.17	2236.21
753.354	2160.44
753.538	2240.31
753.722	2109.24
753.907	2150.2
754.091	2058.04
754.275	2170.68
754.459	2082.61
754.643	2195.25
754.828	2074.42
755.012	2105.14
755.196	2053.94
755.38	2088.76
755.564	2019.13
755.748	1955.64
755.932	1933.11
756.116	1929.02
756.3	1922.87
756.484	2037.56
756.668	1972.02
756.852	1849.15
757.036	1851.19
757.22	1828.67
757.404	1820.47
757.588	1867.58
757.772	1945.4
757.956	1883.96
758.14	1918.78
758.323	1871.67
758.507	1759.03
758.691	1838.91
758.875	1799.99
759.059	1826.62
759.242	1789.75
759.426	1742.65
759.61	1750.84
759.794	1765.18
759.977	1742.65
760.161	1771.32
760.345	1820.47
760.528	1697.6
760.712	1701.69
760.895	1705.79
761.079	1646.4
761.263	1697.6
761.446	1673.02
761.63	1632.06
761.813	1621.82
761.997	1640.25
762.18	1627.96
762.364	1636.16
762.547	1662.78
762.731	1601.34
762.914	1613.63
763.098	1627.96
763.281	1636.16
763.464	1566.53
763.648	1548.09
763.831	1589.05
764.015	1599.29
764.198	1728.31
764.381	1570.62
764.564	1574.72
764.748	1550.14
764.931	1537.85
765.114	1494.85
765.297	1568.57
765.481	1550.14
765.664	1523.52
765.847	1546.05
766.03	1537.85
766.213	1498.94
766.397	1566.53
766.58	1548.09
766.763	1447.74
766.946	1568.57
767.129	1476.41
767.312	1494.85
767.495	1466.17
767.678	1449.79
767.861	1505.09
768.044	1402.69
768.227	1468.22
768.41	1404.74
768.593	1414.98
768.776	1445.7
768.959	1404.74
769.142	1443.65
769.324	1447.74
769.507	1435.46
769.69	1337.15
769.873	1380.16
770.056	1486.65
770.239	1406.78
770.421	1406.78
770.604	1322.82
770.787	1316.67
770.97	1331.01
771.152	1285.95
771.335	1417.02
771.518	1345.34
771.7	1363.78
771.883	1335.1
772.066	1304.39
772.248	1384.26
772.431	1298.24
772.613	1398.59
772.796	1304.39
772.978	1169.22
773.161	1351.49
773.343	1244.99
773.526	1195.84
773.708	1240.9
773.891	1181.51
774.073	1154.88
774.256	1232.71
774.438	1181.51
774.621	1091.4
774.803	1257.28
774.985	1240.9
775.168	1126.21
775.35	1095.49
775.532	1107.78
775.715	1158.98
775.897	1091.4
776.079	1126.21
776.261	1054.53
776.444	1091.4
776.626	1165.12
776.808	1165.12
776.99	1062.73
777.173	1072.96
777.355	1085.25
777.537	1025.86
777.719	935.75
777.901	1062.73
778.083	956.23
778.265	1032.01
778.447	1046.34
778.629	1001.29
778.811	933.7
778.993	997.19
779.175	874.31
779.357	952.13
779.539	859.98
779.721	950.09
779.903	937.8
780.085	984.9
780.267	974.66
780.449	892.74
780.631	972.61
780.812	964.42
780.994	857.93
781.176	948.04
781.358	851.78
781.54	923.46
781.721	888.65
781.903	792.39
782.085	819.02
782.267	851.78
782.448	827.21
782.63	829.26
782.812	776.01
782.993	790.35
783.175	773.96
783.357	790.35
783.538	759.63
783.72	843.59
783.901	743.24
784.083	737.1
784.264	747.34
784.446	716.62
784.627	733
784.809	722.76
784.99	733
785.172	640.84
785.353	735.05
785.535	722.76
785.716	667.47
785.897	644.94
786.079	794.44
786.26	735.05
786.441	712.52
786.623	673.61
786.804	673.61
786.985	626.51
787.167	610.12
787.348	628.56
787.529	663.37
787.71	673.61
787.891	620.36
788.073	646.99
788.254	548.68
788.435	558.92
788.616	593.74
788.797	630.6
788.978	649.04
789.159	509.77
789.34	556.88
789.522	616.27
789.703	630.6
789.884	573.26
790.065	644.94
790.246	636.75
790.427	601.93
790.607	636.75
790.788	601.93
790.969	495.44
791.15	558.92
791.331	470.86
791.512	571.21
791.693	511.82
791.874	563.02
792.054	618.32
792.235	534.35
792.416	522.06
792.597	509.77
792.778	524.11
792.958	587.6
793.139	513.87
793.32	470.86
793.5	384.85
793.681	608.08
793.862	522.06
794.042	429.9
794.223	479.05
794.404	450.38
794.584	458.57
794.765	481.1
794.945	419.66
795.126	477.01
795.306	446.29
795.487	458.57
795.667	448.33
795.848	530.25
796.028	440.14
796.209	429.9
796.389	509.77
796.57	415.57
796.75	468.81
796.93	466.77
797.111	362.32
797.291	454.48
797.471	417.61
797.652	419.66
797.832	446.29
798.012	382.8
798.192	317.26
798.373	452.43
798.553	395.09
798.733	487.25
798.913	335.7
799.093	388.94
799.274	468.81
799.454	425.81
799.634	425.81
799.814	395.09
799.994	347.98
800.174	378.7
800.354	522.06
800.534	388.94
800.714	388.94
800.894	327.5
801.074	304.98
801.254	362.32
801.434	419.66
801.614	339.79
801.794	339.79
801.974	1060.68
802.154	294.74
802.334	407.38
802.514	323.41
802.693	309.07
802.873	259.92
803.053	366.42
803.233	329.55
803.413	327.5
803.592	376.66
803.772	270.16
803.952	245.59
804.131	327.5
804.311	286.54
804.491	321.36
804.67	286.54
804.85	239.44
805.03	347.98
805.209	331.6
805.389	327.5
805.568	296.78
805.748	239.44
805.928	323.41
806.107	292.69
806.287	388.94
806.466	311.12
806.646	257.87
806.825	298.83
807.004	268.11
807.184	282.45
807.363	341.84
807.543	395.09
807.722	264.02
807.901	358.22
808.081	298.83
808.26	255.83
808.439	266.07
808.619	253.78
808.798	261.97
808.977	229.2
809.156	288.59
809.336	268.11
809.515	317.26
809.694	241.49
809.873	268.11
810.052	276.31
810.231	278.35
810.411	231.25
810.59	270.16
810.769	266.07
810.948	311.12
811.127	169.81
811.306	221.01
811.485	304.98
811.664	253.78
811.843	188.24
812.022	296.78
812.201	216.91
812.38	180.05
812.559	227.15
812.737	261.97
812.916	173.91
813.095	186.19
813.274	200.53
813.453	210.77
813.632	214.87
813.811	270.16
813.989	171.86
814.168	249.68
814.347	192.34
814.526	233.3
814.704	225.11
814.883	214.87
815.062	87.89
815.24	288.59
815.419	225.11
815.598	180.05
815.776	155.47
815.955	102.23
816.133	194.39
816.312	204.63
816.49	153.43
816.669	245.59
816.847	335.7
817.026	227.15
817.204	196.43
817.383	235.35
817.561	190.29
817.74	202.58
817.918	264.02
818.097	198.48
818.275	186.19
818.453	249.68
818.632	173.91
818.81	186.19
818.988	202.58
819.167	243.54
819.345	118.61
819.523	194.39
819.701	227.15
819.879	239.44
820.058	169.81
820.236	126.8
820.414	200.53
820.592	190.29
820.77	83.8
820.948	149.33
821.127	218.96
821.305	249.68
821.483	198.48
821.661	245.59
821.839	149.33
822.017	196.43
822.195	198.48
822.373	155.47
822.551	118.61
822.729	96.08
822.907	104.28
823.085	167.76
823.262	116.56
823.44	184.15
823.618	212.82
823.796	163.67
823.974	112.47
824.152	51.03
824.329	175.95
824.507	120.66
824.685	214.87
824.863	180.05
825.04	130.9
825.218	122.71
825.396	196.43
825.574	182.1
825.751	178
825.929	124.76
826.107	137.04
826.284	137.04
826.462	128.85
826.639	155.47
826.817	153.43
826.994	171.86
827.172	159.57
827.349	206.67
827.527	132.95
827.704	190.29
827.882	147.28
828.059	184.15
828.237	130.9
828.414	143.19
828.591	75.6
828.769	149.33
828.946	104.28
829.124	118.61
829.301	200.53
829.478	81.75
829.655	100.18
829.833	94.04
830.01	94.04
830.187	161.62
830.364	128.85
830.542	116.56
830.719	188.24
830.896	85.84
831.073	147.28
831.25	130.9
831.427	155.47
831.604	89.94
831.782	122.71
831.959	100.18
832.136	81.75
832.313	110.42
832.49	63.32
832.667	108.37
832.844	112.47
833.021	122.71
833.198	98.13
833.374	96.08
833.551	157.52
833.728	137.04
833.905	110.42
834.082	67.41
834.259	71.51
834.436	96.08
834.612	75.6
834.789	196.43
834.966	155.47
835.143	73.56
835.319	98.13
835.496	128.85
835.673	118.61
835.85	221.01
836.026	102.23
836.203	137.04
836.38	132.95
836.556	38.74
836.733	155.47
836.909	173.91
837.086	98.13
837.262	69.46
837.439	59.22
837.616	89.94
837.792	139.09
837.968	151.38
838.145	26.45
838.321	137.04
838.498	59.22
838.674	169.81
838.851	118.61
839.027	51.03
839.203	34.64
839.38	204.63
839.556	120.66
839.732	145.24
839.909	38.74
840.085	110.42
840.261	-34.99
840.437	36.69
840.614	96.08
840.79	141.14
840.966	51.03
841.142	38.74
841.318	110.42
841.494	57.17
841.671	67.41
841.847	110.42
842.023	22.36
842.199	-8.36
842.375	94.04
842.551	57.17
842.727	57.17
842.903	128.85
843.079	67.41
843.255	128.85
843.431	77.65
843.607	124.76
843.783	18.26
843.959	65.36
844.134	63.32
844.31	65.36
844.486	3.93
844.662	75.6
844.838	94.04
845.013	186.19
845.189	87.89
845.365	38.74
845.541	96.08
845.716	118.61
845.892	89.94
846.068	69.46
846.244	12.12
846.419	77.65
846.595	1.88
846.77	85.84
846.946	65.36
847.122	67.41
847.297	-4.27
847.473	124.76
847.648	10.07
847.824	57.17
847.999	-22.7
848.175	83.8
848.35	55.12
848.526	151.38
848.701	22.36
848.876	87.89
849.052	110.42
849.227	65.36
849.403	53.08
849.578	20.31
849.753	26.45
849.929	8.02
850.104	110.42
850.279	30.55
850.454	-22.7
850.63	57.17
850.805	5.97
850.98	100.18
851.155	40.79
851.33	108.37
851.505	-71.85
851.681	106.32
851.856	22.36
852.031	71.51
852.206	-10.41
852.381	-2.22
852.556	83.8
852.731	30.55
852.906	14.17
853.081	89.94
853.256	118.61
853.431	46.93
853.606	12.12
853.781	85.84
853.956	-8.36
854.131	59.22
854.305	77.65
854.48	51.03
854.655	-45.23
854.83	94.04
855.005	22.36
855.18	135
855.354	20.31
855.529	89.94
855.704	22.36
855.879	106.32
856.053	53.08
856.228	-16.55
856.403	20.31
856.577	85.84
856.752	-12.46
856.926	-14.51
857.101	26.45
857.276	100.18
857.45	-16.55
857.625	53.08
857.799	104.28
857.974	14.17
858.148	-34.99
858.323	42.84
858.497	18.26
858.672	12.12
858.846	18.26
859.02	57.17
859.195	-8.36
859.369	26.45
859.543	-14.51
859.718	5.97
859.892	100.18
860.066	44.88
860.241	28.5
860.415	1.88
860.589	22.36
860.763	53.08
860.938	24.4
861.112	10.07
861.286	71.51
861.46	48.98
861.634	26.45
861.808	91.99
861.982	-53.42
862.157	-12.46
862.331	12.12
862.505	16.21
862.679	-8.36
862.853	32.6
863.027	57.17
863.201	98.13
863.375	24.4
863.549	26.45
863.722	14.17
863.896	44.88
864.07	30.55
864.244	32.6
864.418	102.23
864.592	59.22
864.766	51.03
864.939	63.32
865.113	28.5
865.287	51.03
865.461	8.02
865.634	77.65
865.808	-30.89
865.982	-12.46
866.156	-0.17
866.329	-8.36
866.503	57.17
866.676	94.04
866.85	-55.47
867.024	96.08
867.197	48.98
867.371	-32.94
867.544	12.12
867.718	26.45
867.891	14.17
868.065	8.02
868.238	89.94
868.412	26.45
868.585	10.07
868.759	-30.89
868.932	44.88
869.105	-65.71
869.279	18.26
869.452	10.07
869.625	1.88
869.799	-53.42
869.972	16.21
870.145	30.55
870.319	36.69
870.492	10.07
870.665	-28.84
870.838	59.22
871.011	-39.08
871.185	71.51
871.358	53.08
871.531	-37.03
871.704	28.5
871.877	10.07
872.05	53.08
872.223	48.98
872.396	51.03
872.569	81.75
872.742	14.17
872.915	44.88
873.088	14.17
873.261	-20.65
873.434	73.56
873.607	28.5
873.78	30.55
873.953	28.5
874.126	20.31
874.299	-8.36
874.471	12.12
874.644	-18.6
874.817	-10.41
874.99	63.32
875.163	-24.75
875.335	63.32
875.508	3.93
875.681	38.74
875.853	-30.89
876.026	-10.41
876.199	28.5
876.371	10.07
876.544	-2.22
876.717	20.31
876.889	-26.79
877.062	34.64
877.234	3.93
877.407	-12.46
877.579	28.5
877.752	-18.6
877.924	53.08
878.097	-37.03
878.269	-0.17
878.442	22.36
878.614	18.26
878.786	59.22
878.959	73.56
879.131	-6.31
879.303	-43.18
879.476	-47.27
879.648	24.4
879.82	18.26
879.993	51.03
880.165	61.27
880.337	-37.03
880.509	-2.22
880.681	-45.23
880.854	10.07
881.026	-51.37
881.198	128.85
881.37	40.79
881.542	-6.31
881.714	32.6
881.886	16.21
882.058	18.26
882.23	-51.37
882.402	36.69
882.574	-22.7
882.746	10.07
882.918	26.45
883.09	3.93
883.262	-0.17
883.434	-28.84
883.606	-26.79
883.778	44.88
883.95	48.98
884.122	-59.56
884.293	38.74
884.465	-10.41
884.637	18.26
884.809	48.98
884.98	-63.66
885.152	22.36
885.324	32.6
885.496	-14.51
885.667	-8.36
885.839	-12.46
886.011	71.51
886.182	32.6
886.354	3.93
886.525	46.93
886.697	5.97
886.869	-37.03
887.04	28.5
887.212	34.64
887.383	96.08
887.555	10.07
887.726	-51.37
887.897	20.31
888.069	73.56
888.24	22.36
888.412	-0.17
888.583	-41.13
888.754	-18.6
888.926	-63.66
889.097	-24.75
889.268	-30.89
889.44	-4.27
889.611	-59.56
889.782	-61.61
889.953	-57.51
890.125	3.93
890.296	-49.32
890.467	-43.18
890.638	-71.85
890.809	65.36
890.98	-69.8
891.151	57.17
891.323	34.64
891.494	16.21
891.665	83.8
891.836	-8.36
892.007	1.88
892.178	32.6
892.349	16.21
892.52	44.88
892.691	55.12
892.862	22.36
893.032	-16.55
893.203	-2.22
893.374	28.5
893.545	46.93
893.716	12.12
893.887	38.74
894.057	24.4
894.228	-80.04
894.399	22.36
894.57	-14.51
894.74	26.45
894.911	28.5
895.082	-53.42
895.253	22.36
895.423	3.93
895.594	57.17
895.764	-28.84
895.935	69.46
896.106	-63.66
896.276	44.88
896.447	-12.46
896.617	-75.95
896.788	-18.6
896.958	85.84
897.129	-41.13
897.299	-18.6
897.47	30.55
897.64	-28.84
897.81	-24.75
897.981	-8.36
898.151	-26.79
898.322	10.07
898.492	48.98
898.662	-30.89
898.832	10.07
899.003	12.12
899.173	-0.17
899.343	-12.46
899.513	-2.22
