Data from USB4F104151__100__12-43-04-092.txt Node

Date: Fri Mar 14 12:43:04 EDT 2025
User: louis
Spectrometer: USB4F10415
Trigger mode: 4
Integration Time (sec): 3.000000E-2
Scans to average: 1
Electric dark correction enabled: true
Nonlinearity correction enabled: false
Boxcar width: 0
XAxis mode: Wavelengths
Number of Pixels in Spectrum: 3648
>>>>>Begin Spectral Data<<<<<
178.204	-136.53
178.424	-136.53
178.644	-136.53
178.864	-134.48
179.084	-91.48
179.304	-3.41
179.524	-15.7
179.744	2.73
179.964	74.41
180.184	31.4
180.404	-3.41
180.624	39.59
180.844	53.93
181.064	-58.71
181.283	-30.04
181.503	-30.04
181.723	-60.76
181.943	31.4
182.163	23.21
182.383	-11.61
182.602	123.56
182.822	115.37
183.042	-27.99
183.262	4.78
183.482	6.83
183.701	-5.46
183.921	0.68
184.141	-9.56
184.361	2.73
184.58	43.69
184.8	-9.56
185.02	60.07
185.239	-25.94
185.459	-5.46
185.679	47.79
185.898	94.89
186.118	27.31
186.338	12.97
186.557	-9.56
186.777	-52.56
186.997	15.02
187.216	92.84
187.436	-3.41
187.655	55.98
187.875	8.87
188.095	4.78
188.314	68.27
188.534	25.26
188.753	-42.32
188.973	23.21
189.192	12.97
189.412	0.68
189.631	37.55
189.851	-23.89
190.07	45.74
190.29	29.35
190.509	-36.18
190.729	8.87
190.948	51.88
191.168	88.75
191.387	82.6
191.607	0.68
191.826	-40.28
192.045	78.51
192.265	15.02
192.484	74.41
192.704	-27.99
192.923	27.31
193.142	119.46
193.362	-30.04
193.581	72.36
193.8	31.4
194.02	109.22
194.239	33.45
194.458	76.46
194.678	66.22
194.897	37.55
195.116	8.87
195.335	29.35
195.555	8.87
195.774	60.07
195.993	-3.41
196.212	23.21
196.432	6.83
196.651	0.68
196.87	-66.9
197.089	60.07
197.308	115.37
197.528	39.59
197.747	10.92
197.966	78.51
198.185	55.98
198.404	41.64
198.623	-9.56
198.842	0.68
199.062	80.55
199.281	29.35
199.5	12.97
199.719	19.11
199.938	49.83
200.157	55.98
200.376	-7.51
200.595	37.55
200.814	41.64
201.033	94.89
201.252	21.16
201.471	6.83
201.69	39.59
201.909	41.64
202.128	0.68
202.347	39.59
202.566	43.69
202.785	-44.37
203.004	27.31
203.223	-3.41
203.442	10.92
203.661	-48.47
203.879	47.79
204.098	62.12
204.317	-64.85
204.536	-3.41
204.755	6.83
204.974	101.03
205.193	-36.18
205.411	-13.65
205.63	-1.37
205.849	19.11
206.068	8.87
206.287	2.73
206.505	10.92
206.724	47.79
206.943	-19.8
207.162	-56.66
207.381	33.45
207.599	21.16
207.818	92.84
208.037	35.5
208.255	33.45
208.474	-34.13
208.693	74.41
208.911	12.97
209.13	-1.37
209.349	55.98
209.567	39.59
209.786	37.55
210.005	2.73
210.223	-13.65
210.442	19.11
210.661	72.36
210.879	41.64
211.098	41.64
211.316	-27.99
211.535	80.55
211.753	21.16
211.972	47.79
212.191	15.02
212.409	84.65
212.628	4.78
212.846	-85.33
213.065	23.21
213.283	76.46
213.502	-19.8
213.72	35.5
213.938	-87.38
214.157	117.42
214.375	-3.41
214.594	43.69
214.812	37.55
215.031	74.41
215.249	37.55
215.467	45.74
215.686	49.83
215.904	21.16
216.122	53.93
216.341	47.79
216.559	-23.89
216.778	68.27
216.996	-11.61
217.214	51.88
217.432	66.22
217.651	47.79
217.869	27.31
218.087	-7.51
218.306	53.93
218.524	4.78
218.742	23.21
218.96	60.07
219.179	49.83
219.397	45.74
219.615	29.35
219.833	43.69
220.051	-7.51
220.27	78.51
220.488	76.46
220.706	37.55
220.924	-46.42
221.142	29.35
221.36	66.22
221.578	105.13
221.796	8.87
222.015	-9.56
222.233	-50.52
222.451	101.03
222.669	27.31
222.887	-11.61
223.105	-56.66
223.323	-9.56
223.541	-23.89
223.759	72.36
223.977	17.07
224.195	-9.56
224.413	41.64
224.631	29.35
224.849	8.87
225.067	39.59
225.285	2.73
225.503	45.74
225.721	-9.56
225.939	-17.75
226.157	88.75
226.375	76.46
226.592	10.92
226.81	0.68
227.028	70.31
227.246	135.85
227.464	35.5
227.682	62.12
227.9	49.83
228.117	-1.37
228.335	-17.75
228.553	70.31
228.771	55.98
228.989	-19.8
229.206	-32.08
229.424	-7.51
229.642	-13.65
229.86	-44.37
230.077	39.59
230.295	23.21
230.513	76.46
230.731	78.51
230.948	35.5
231.166	68.27
231.384	29.35
231.601	-19.8
231.819	72.36
232.037	15.02
232.254	-85.33
232.472	131.75
232.689	-19.8
232.907	19.11
233.125	-19.8
233.342	8.87
233.56	53.93
233.777	43.69
233.995	-3.41
234.213	137.9
234.43	64.17
234.648	-17.75
234.865	25.26
235.083	21.16
235.3	-13.65
235.518	-15.7
235.735	125.61
235.953	43.69
236.17	31.4
236.388	-13.65
236.605	23.21
236.822	47.79
237.04	19.11
237.257	39.59
237.475	29.35
237.692	-15.7
237.909	15.02
238.127	-36.18
238.344	4.78
238.562	19.11
238.779	-36.18
238.996	-42.32
239.214	-3.41
239.431	33.45
239.648	8.87
239.865	29.35
240.083	31.4
240.3	-11.61
240.517	33.45
240.735	84.65
240.952	74.41
241.169	35.5
241.386	12.97
241.603	49.83
241.821	70.31
242.038	70.31
242.255	47.79
242.472	-36.18
242.689	96.94
242.907	-23.89
243.124	-1.37
243.341	47.79
243.558	12.97
243.775	-30.04
243.992	-48.47
244.209	4.78
244.426	62.12
244.643	6.83
244.86	37.55
245.078	64.17
245.295	-46.42
245.512	68.27
245.729	-25.94
245.946	4.78
246.163	58.03
246.38	25.26
246.597	6.83
246.814	45.74
247.031	37.55
247.248	62.12
247.464	19.11
247.681	-19.8
247.898	66.22
248.115	58.03
248.332	21.16
248.549	131.75
248.766	107.18
248.983	76.46
249.2	62.12
249.417	62.12
249.633	98.99
249.85	19.11
250.067	8.87
250.284	58.03
250.501	-11.61
250.717	51.88
250.934	41.64
251.151	0.68
251.368	37.55
251.585	68.27
251.801	-17.75
252.018	6.83
252.235	35.5
252.451	-1.37
252.668	17.07
252.885	15.02
253.102	49.83
253.318	-15.7
253.535	6.83
253.752	-23.89
253.968	6.83
254.185	49.83
254.401	41.64
254.618	-11.61
254.835	33.45
255.051	107.18
255.268	35.5
255.484	45.74
255.701	10.92
255.917	-3.41
256.134	-13.65
256.351	35.5
256.567	-48.47
256.784	-42.32
257	-32.08
257.217	80.55
257.433	15.02
257.65	29.35
257.866	-15.7
258.082	4.78
258.299	-42.32
258.515	94.89
258.732	43.69
258.948	2.73
259.165	-38.23
259.381	-13.65
259.597	31.4
259.814	41.64
260.03	33.45
260.246	-9.56
260.463	68.27
260.679	29.35
260.895	0.68
261.112	25.26
261.328	6.83
261.544	12.97
261.761	62.12
261.977	92.84
262.193	62.12
262.409	-15.7
262.626	39.59
262.842	43.69
263.058	-97.62
263.274	37.55
263.49	72.36
263.707	-15.7
263.923	-5.46
264.139	-7.51
264.355	51.88
264.571	107.18
264.787	15.02
265.004	51.88
265.22	111.27
265.436	-42.32
265.652	45.74
265.868	-9.56
266.084	-19.8
266.3	-17.75
266.516	-32.08
266.732	27.31
266.948	8.87
267.164	-38.23
267.38	37.55
267.596	49.83
267.812	51.88
268.028	58.03
268.244	62.12
268.46	96.94
268.676	70.31
268.892	-13.65
269.108	-17.75
269.324	10.92
269.54	-13.65
269.756	86.7
269.972	45.74
270.188	17.07
270.403	41.64
270.619	68.27
270.835	27.31
271.051	47.79
271.267	-27.99
271.483	-32.08
271.698	58.03
271.914	45.74
272.13	45.74
272.346	35.5
272.562	-5.46
272.777	78.51
272.993	6.83
273.209	66.22
273.425	31.4
273.64	-13.65
273.856	2.73
274.072	-30.04
274.287	6.83
274.503	-7.51
274.719	-54.61
274.934	47.79
275.15	-3.41
275.366	53.93
275.581	-17.75
275.797	72.36
276.012	29.35
276.228	35.5
276.444	39.59
276.659	45.74
276.875	58.03
277.09	29.35
277.306	31.4
277.521	62.12
277.737	41.64
277.952	-25.94
278.168	-3.41
278.383	92.84
278.599	105.13
278.814	27.31
279.03	12.97
279.245	82.6
279.461	-27.99
279.676	127.66
279.892	62.12
280.107	6.83
280.322	-3.41
280.538	4.78
280.753	-21.85
280.969	41.64
281.184	29.35
281.399	68.27
281.615	101.03
281.83	-3.41
282.045	29.35
282.26	-15.7
282.476	-9.56
282.691	70.31
282.906	-60.76
283.122	45.74
283.337	10.92
283.552	84.65
283.767	72.36
283.983	64.17
284.198	94.89
284.413	35.5
284.628	25.26
284.843	47.79
285.058	25.26
285.274	-52.56
285.489	-73.04
285.704	70.31
285.919	84.65
286.134	68.27
286.349	-21.85
286.564	45.74
286.779	68.27
286.995	19.11
287.21	-27.99
287.425	55.98
287.64	62.12
287.855	12.97
288.07	49.83
288.285	92.84
288.5	21.16
288.715	72.36
288.93	43.69
289.145	-21.85
289.36	-13.65
289.575	60.07
289.79	70.31
290.004	-25.94
290.219	53.93
290.434	-36.18
290.649	47.79
290.864	-3.41
291.079	66.22
291.294	76.46
291.509	60.07
291.724	29.35
291.938	37.55
292.153	6.83
292.368	-19.8
292.583	70.31
292.798	37.55
293.012	27.31
293.227	-13.65
293.442	-42.32
293.657	98.99
293.871	90.79
294.086	35.5
294.301	96.94
294.516	23.21
294.73	27.31
294.945	-17.75
295.16	68.27
295.374	51.88
295.589	60.07
295.804	12.97
296.018	74.41
296.233	78.51
296.447	15.02
296.662	-9.56
296.877	-5.46
297.091	23.21
297.306	27.31
297.52	47.79
297.735	60.07
297.949	66.22
298.164	23.21
298.378	55.98
298.593	23.21
298.807	45.74
299.022	-58.71
299.236	53.93
299.451	25.26
299.665	29.35
299.88	-13.65
300.094	62.12
300.309	60.07
300.523	33.45
300.737	76.46
300.952	8.87
301.166	23.21
301.381	-32.08
301.595	2.73
301.809	58.03
302.024	-48.47
302.238	49.83
302.452	12.97
302.667	39.59
302.881	47.79
303.095	51.88
303.309	37.55
303.524	25.26
303.738	-36.18
303.952	92.84
304.166	37.55
304.381	68.27
304.595	37.55
304.809	-3.41
305.023	17.07
305.237	-11.61
305.452	27.31
305.666	109.22
305.88	92.84
306.094	64.17
306.308	37.55
306.522	88.75
306.736	68.27
306.95	58.03
307.164	-3.41
307.379	37.55
307.593	94.89
307.807	62.12
308.021	47.79
308.235	88.75
308.449	25.26
308.663	19.11
308.877	68.27
309.091	43.69
309.305	64.17
309.519	-23.89
309.733	10.92
309.947	-21.85
310.161	4.78
310.374	25.26
310.588	125.61
310.802	43.69
311.016	-58.71
311.23	131.75
311.444	-48.47
311.658	80.55
311.872	25.26
312.085	35.5
312.299	37.55
312.513	-1.37
312.727	51.88
312.941	-9.56
313.154	49.83
313.368	76.46
313.582	27.31
313.796	51.88
314.009	35.5
314.223	29.35
314.437	-7.51
314.651	-1.37
314.864	0.68
315.078	66.22
315.292	8.87
315.505	2.73
315.719	135.85
315.933	64.17
316.146	10.92
316.36	-25.94
316.573	19.11
316.787	10.92
317.001	31.4
317.214	-17.75
317.428	37.55
317.641	15.02
317.855	41.64
318.068	-17.75
318.282	62.12
318.495	19.11
318.709	109.22
318.922	51.88
319.136	29.35
319.349	53.93
319.563	47.79
319.776	84.65
319.99	-44.37
320.203	62.12
320.417	-36.18
320.63	39.59
320.843	82.6
321.057	66.22
321.27	2.73
321.483	49.83
321.697	129.7
321.91	37.55
322.124	62.12
322.337	82.6
322.55	10.92
322.763	4.78
322.977	66.22
323.19	-1.37
323.403	-3.41
323.617	62.12
323.83	119.46
324.043	4.78
324.256	53.93
324.469	-19.8
324.683	103.08
324.896	68.27
325.109	131.75
325.322	-60.76
325.535	12.97
325.748	-27.99
325.962	37.55
326.175	58.03
326.388	43.69
326.601	33.45
326.814	-3.41
327.027	-36.18
327.24	35.5
327.453	29.35
327.666	55.98
327.879	70.31
328.092	-15.7
328.305	80.55
328.518	25.26
328.731	31.4
328.944	19.11
329.157	47.79
329.37	0.68
329.583	117.42
329.796	170.66
330.009	31.4
330.222	92.84
330.435	-48.47
330.648	-13.65
330.861	119.46
331.073	68.27
331.286	80.55
331.499	43.69
331.712	72.36
331.925	33.45
332.138	-17.75
332.35	82.6
332.563	29.35
332.776	84.65
332.989	-5.46
333.202	10.92
333.414	47.79
333.627	29.35
333.84	-13.65
334.053	39.59
334.265	-48.47
334.478	17.07
334.691	2.73
334.903	-38.23
335.116	10.92
335.329	78.51
335.541	76.46
335.754	33.45
335.966	-19.8
336.179	55.98
336.392	12.97
336.604	4.78
336.817	-44.37
337.029	133.8
337.242	86.7
337.454	80.55
337.667	19.11
337.88	15.02
338.092	76.46
338.305	49.83
338.517	49.83
338.729	47.79
338.942	12.97
339.154	4.78
339.367	-56.66
339.579	33.45
339.792	-9.56
340.004	31.4
340.217	23.21
340.429	41.64
340.641	92.84
340.854	-3.41
341.066	-34.13
341.278	191.14
341.491	146.09
341.703	103.08
341.915	35.5
342.128	45.74
342.34	-13.65
342.552	10.92
342.764	6.83
342.977	-3.41
343.189	-3.41
343.401	98.99
343.613	10.92
343.826	-21.85
344.038	-34.13
344.25	88.75
344.462	8.87
344.674	39.59
344.886	-19.8
345.099	43.69
345.311	111.27
345.523	105.13
345.735	-27.99
345.947	62.12
346.159	37.55
346.371	8.87
346.583	33.45
346.795	90.79
347.007	70.31
347.219	74.41
347.431	-1.37
347.643	23.21
347.855	-23.89
348.067	113.32
348.279	-60.76
348.491	49.83
348.703	58.03
348.915	6.83
349.127	10.92
349.339	68.27
349.551	70.31
349.763	49.83
349.975	10.92
350.187	96.94
350.399	29.35
350.61	58.03
350.822	-11.61
351.034	23.21
351.246	33.45
351.458	31.4
351.669	-15.7
351.881	86.7
352.093	80.55
352.305	10.92
352.517	39.59
352.728	15.02
352.94	72.36
353.152	29.35
353.363	51.88
353.575	37.55
353.787	64.17
353.999	21.16
354.21	37.55
354.422	47.79
354.633	-1.37
354.845	-3.41
355.057	43.69
355.268	-19.8
355.48	53.93
355.692	35.5
355.903	-27.99
356.115	35.5
356.326	12.97
356.538	72.36
356.749	55.98
356.961	123.56
357.172	15.02
357.384	51.88
357.595	58.03
357.807	19.11
358.018	45.74
358.23	51.88
358.441	103.08
358.653	51.88
358.864	-7.51
359.075	-3.41
359.287	12.97
359.498	96.94
359.709	25.26
359.921	90.79
360.132	84.65
360.344	33.45
360.555	82.6
360.766	35.5
360.977	43.69
361.189	2.73
361.4	-13.65
361.611	45.74
361.823	45.74
362.034	137.9
362.245	37.55
362.456	45.74
362.667	21.16
362.879	51.88
363.09	49.83
363.301	45.74
363.512	37.55
363.723	-15.7
363.935	27.31
364.146	109.22
364.357	45.74
364.568	55.98
364.779	29.35
364.99	80.55
365.201	41.64
365.412	45.74
365.623	29.35
365.834	94.89
366.045	90.79
366.256	70.31
366.467	39.59
366.678	43.69
366.889	-23.89
367.1	10.92
367.311	33.45
367.522	88.75
367.733	74.41
367.944	64.17
368.155	29.35
368.366	58.03
368.577	27.31
368.788	103.08
368.999	45.74
369.209	58.03
369.42	58.03
369.631	80.55
369.842	66.22
370.053	74.41
370.264	10.92
370.474	15.02
370.685	-73.04
370.896	90.79
371.107	37.55
371.317	37.55
371.528	41.64
371.739	49.83
371.95	33.45
372.16	111.27
372.371	-38.23
372.582	-15.7
372.792	62.12
373.003	-19.8
373.214	47.79
373.424	105.13
373.635	39.59
373.846	62.12
374.056	51.88
374.267	88.75
374.477	8.87
374.688	43.69
374.898	2.73
375.109	133.8
375.319	45.74
375.53	35.5
375.74	78.51
375.951	2.73
376.161	43.69
376.372	37.55
376.582	-3.41
376.793	-32.08
377.003	64.17
377.214	45.74
377.424	45.74
377.635	29.35
377.845	-11.61
378.055	37.55
378.266	94.89
378.476	82.6
378.686	23.21
378.897	0.68
379.107	94.89
379.317	15.02
379.528	15.02
379.738	129.7
379.948	39.59
380.158	80.55
380.369	35.5
380.579	47.79
380.789	21.16
380.999	-5.46
381.21	49.83
381.42	76.46
381.63	-77.14
381.84	68.27
382.05	66.22
382.261	62.12
382.471	37.55
382.681	27.31
382.891	86.7
383.101	-9.56
383.311	-21.85
383.521	47.79
383.731	148.14
383.941	74.41
384.151	39.59
384.361	31.4
384.571	62.12
384.781	29.35
384.991	88.75
385.201	168.62
385.411	74.41
385.621	62.12
385.831	35.5
386.041	35.5
386.251	74.41
386.461	12.97
386.671	62.12
386.881	72.36
387.091	45.74
387.301	84.65
387.511	-1.37
387.72	64.17
387.93	80.55
388.14	25.26
388.35	47.79
388.56	37.55
388.769	90.79
388.979	74.41
389.189	17.07
389.399	-9.56
389.609	58.03
389.818	62.12
390.028	78.51
390.238	72.36
390.447	74.41
390.657	45.74
390.867	-1.37
391.076	49.83
391.286	29.35
391.496	39.59
391.705	19.11
391.915	125.61
392.125	113.32
392.334	105.13
392.544	66.22
392.753	127.66
392.963	86.7
393.172	146.09
393.382	80.55
393.591	88.75
393.801	17.07
394.01	123.56
394.22	84.65
394.429	15.02
394.639	6.83
394.848	101.03
395.058	117.42
395.267	156.33
395.477	123.56
395.686	88.75
395.895	158.38
396.105	129.7
396.314	94.89
396.524	88.75
396.733	53.93
396.942	76.46
397.152	64.17
397.361	-5.46
397.57	84.65
397.78	35.5
397.989	76.46
398.198	141.99
398.407	164.52
398.617	43.69
398.826	88.75
399.035	49.83
399.244	115.37
399.453	160.42
399.663	47.79
399.872	121.51
400.081	15.02
400.29	123.56
400.499	90.79
400.708	107.18
400.917	105.13
401.127	105.13
401.336	60.07
401.545	92.84
401.754	205.48
401.963	144.04
402.172	47.79
402.381	109.22
402.59	127.66
402.799	150.18
403.008	139.94
403.217	144.04
403.426	156.33
403.635	82.6
403.844	191.14
404.053	148.14
404.262	156.33
404.471	230.06
404.68	150.18
404.888	123.56
405.097	111.27
405.306	137.9
405.515	133.8
405.724	111.27
405.933	178.86
406.142	168.62
406.35	228.01
406.559	217.77
406.768	121.51
406.977	205.48
407.185	236.2
407.394	176.81
407.603	141.99
407.812	193.19
408.02	244.39
408.229	240.29
408.438	199.34
408.646	199.34
408.855	211.62
409.064	252.58
409.272	279.21
409.481	252.58
409.69	295.59
409.898	250.53
410.107	275.11
410.315	291.49
410.524	289.45
410.733	379.56
410.941	324.26
411.15	334.5
411.358	391.84
411.567	404.13
411.775	443.04
411.984	477.86
412.192	404.13
412.401	416.42
412.609	453.28
412.818	608.93
413.026	541.35
413.234	524.96
413.443	463.52
413.651	477.86
413.86	545.44
414.068	639.65
414.276	580.26
414.485	576.16
414.693	639.65
414.901	680.61
415.11	670.37
415.318	660.13
415.526	703.14
415.734	725.66
415.943	735.9
416.151	780.96
416.359	758.43
416.567	879.26
416.776	864.93
416.984	952.99
417.192	899.74
417.4	989.85
417.608	918.17
417.817	1002.14
418.025	1067.67
418.233	1260.18
418.441	1051.29
418.649	1147.55
418.857	1163.93
419.065	1208.98
419.273	1133.21
419.481	1389.21
419.689	1338.01
419.897	1387.16
420.105	1413.78
420.313	1456.79
420.521	1643.15
420.729	1616.53
420.937	1684.11
421.145	1698.45
421.353	1782.42
421.561	1753.74
421.769	1895.05
421.977	2003.6
422.185	1972.88
422.393	2216.58
422.601	2228.87
422.809	2232.97
423.017	2241.16
423.224	2288.26
423.432	2507.4
423.64	2521.73
423.848	2724.48
424.056	2654.85
424.263	2845.31
424.471	2828.93
424.679	2749.06
424.887	3011.2
425.094	2968.19
425.302	3123.83
425.51	3156.6
425.718	3285.62
425.925	3392.12
426.133	3545.72
426.341	3768.95
426.548	3836.53
426.756	3861.1
426.964	3920.49
427.171	4162.16
427.379	4225.64
427.586	4303.46
427.794	4311.66
428.001	4674.15
428.209	4782.69
428.417	4766.31
428.624	5114.46
428.832	5149.28
429.039	4991.58
429.247	5110.36
429.454	5524.05
429.662	5806.67
429.869	5468.76
430.076	5972.56
430.284	5868.11
430.491	6107.73
430.699	6394.44
430.906	6287.95
431.114	6511.18
431.321	6896.19
431.528	6789.7
431.736	7342.65
431.943	7678.52
432.15	7238.2
432.358	7455.29
432.565	7973.42
432.772	7879.22
432.979	8333.87
433.187	8307.24
433.394	8442.41
433.601	8849.96
433.808	9069.09
434.016	8897.06
434.223	9349.66
434.43	9923.09
434.637	9679.38
434.844	10324.49
435.052	10404.36
435.259	10453.52
435.466	10660.36
435.673	10697.22
435.88	11330.05
436.087	11551.23
436.294	11876.85
436.501	11409.92
436.708	11692.54
436.915	12231.15
437.122	12751.34
437.329	12587.5
437.537	13079.01
437.743	13195.75
437.95	13091.3
438.157	13679.07
438.364	14219.73
438.571	14268.88
438.778	14242.26
438.985	15665.6
439.192	15260.1
439.399	15524.29
439.606	15315.39
439.813	16198.07
440.02	17086.89
440.227	16753.07
440.433	16515.5
440.64	16927.14
440.847	17029.54
441.054	17564.06
441.261	18596.24
441.467	18416.02
441.674	18710.93
441.881	19575.17
442.088	19175.81
442.294	19153.29
442.501	19380.61
442.708	20042.1
442.914	21004.65
443.121	21361
443.328	21350.76
443.534	22694.22
443.741	21870.94
443.948	21662.05
444.154	23400.77
444.361	23251.27
444.568	23519.56
444.774	23136.59
444.981	23439.68
445.187	24047.93
445.394	25100.59
445.6	24953.13
445.807	27310.35
446.013	26157.34
446.22	26812.69
446.426	27943.17
446.633	28109.05
446.839	28492.02
447.046	27787.52
447.252	29184.24
447.459	29245.68
447.665	29194.48
447.871	30685.4
448.078	31774.92
448.284	30480.6
448.491	30816.47
448.697	32370.88
448.903	33061.04
449.11	32860.34
449.316	32393.4
449.522	32800.95
449.728	33906.85
449.935	34080.93
450.141	33960.1
450.347	35289.23
450.553	33331.37
450.76	34394.27
450.966	35401.87
451.172	34703.51
451.378	35774.6
451.584	35215.51
451.791	35979.4
451.997	35758.22
452.203	36421.76
452.409	36837.5
452.615	36657.28
452.821	35100.82
453.027	34508.96
453.233	36464.77
453.44	35190.93
453.646	35313.81
453.852	35645.58
454.058	36456.57
454.264	35100.82
454.47	35686.54
454.676	35025.04
454.882	36028.55
455.088	33116.34
455.294	33661.1
455.5	33976.48
455.705	34351.26
455.911	33388.72
456.117	32102.59
456.323	32434.36
456.529	30294.24
456.735	31873.22
456.941	30902.48
457.147	30265.56
457.352	29737.19
457.558	29239.53
457.764	29133.04
457.97	28250.36
458.176	28047.61
458.381	28002.56
458.587	26657.04
458.793	26421.53
458.999	25260.33
459.204	26761.49
459.41	26169.63
459.616	24527.16
459.821	24428.85
460.027	24383.8
460.233	23949.63
460.438	22737.23
460.644	22880.59
460.85	22059.35
461.055	21381.48
461.261	21649.76
461.466	20072.82
461.672	19292.55
461.878	21059.95
462.083	19149.19
462.289	18923.91
462.494	18680.21
462.7	18207.12
462.905	17762.72
463.111	18055.58
463.316	18160.02
463.522	17736.09
463.727	17897.88
463.932	17623.45
464.138	17572.25
464.343	17598.88
464.549	17359.27
464.754	17596.83
464.959	17469.86
465.165	17420.7
465.37	16609.71
465.575	16275.89
465.781	16843.18
465.986	17226.15
466.191	16388.53
466.397	15925.69
466.602	15323.58
466.807	16056.76
467.012	16142.77
467.218	15851.96
467.423	15690.17
467.628	15856.06
467.833	16368.05
468.038	15940.02
468.244	15247.81
468.449	15997.37
468.654	15548.86
468.859	15327.68
469.064	15165.89
469.269	14623.18
469.474	14961.09
469.679	15145.41
469.885	14772.68
470.09	14901.7
470.295	14830.02
470.5	14256.59
470.705	14488.01
470.91	14211.54
471.115	13953.49
471.32	14367.18
471.525	14313.94
471.73	14172.63
471.935	13738.46
472.139	13238.75
472.344	13480.41
472.549	13533.66
472.754	13165.03
472.959	13019.62
473.164	12665.32
473.369	12732.9
473.574	12841.45
473.778	13083.11
473.983	12677.61
474.188	12577.26
474.393	12120.56
474.598	12001.78
474.802	12286.45
475.007	12120.56
475.212	11895.29
475.417	11747.83
475.621	11633.15
475.826	11522.55
476.031	11198.98
476.235	11217.41
476.44	11444.73
476.645	11100.67
476.849	11270.65
477.054	10994.18
477.259	10705.42
477.463	10910.21
477.668	10502.67
477.872	10820.1
478.077	10613.26
478.282	10029.59
478.486	10060.31
478.691	10156.56
478.895	9998.87
479.1	10174.99
479.304	10013.2
479.509	9726.49
479.713	9972.24
479.918	9660.95
480.122	9746.97
480.326	9871.89
480.531	9775.64
480.735	9554.46
480.94	9388.57
481.144	9718.29
481.348	9435.67
481.553	9433.63
481.757	9159.2
481.961	9208.35
482.166	9591.32
482.37	9505.31
482.574	9241.12
482.778	9310.75
482.983	9464.35
483.187	9351.71
483.391	9581.08
483.595	9290.27
483.8	9091.62
484.004	9300.51
484.208	9368.09
484.412	9153.05
484.616	9443.87
484.821	9359.9
485.025	9255.45
485.229	9273.89
485.433	9286.17
485.637	9208.35
485.841	9003.55
486.045	9194.01
486.249	9318.94
486.453	9159.2
486.657	9239.07
486.861	9372.19
487.065	9030.18
487.269	9251.36
487.473	9271.84
487.677	9484.83
487.881	9341.47
488.085	9243.17
488.289	9247.26
488.493	9177.63
488.697	9359.9
488.901	9413.15
489.105	9320.99
489.309	9531.93
489.512	9527.83
489.716	9472.54
489.92	9497.11
490.124	9325.08
490.328	9480.73
490.531	9568.79
490.735	9521.69
490.939	9515.55
491.143	9558.55
491.346	9499.16
491.55	9622.04
491.754	9576.98
491.958	9722.39
492.161	9687.57
492.365	9779.73
492.569	9798.17
492.772	9736.73
492.976	9792.02
493.18	9929.24
493.383	10103.31
493.587	10054.16
493.79	10144.27
493.994	10058.26
494.197	10412.56
494.401	10295.82
494.605	10125.84
494.808	10482.19
495.012	10310.16
495.215	10449.42
495.419	10508.81
495.622	10467.85
495.825	10824.2
496.029	10682.89
496.232	10934.79
496.436	10873.35
496.639	11143.68
496.843	11227.65
497.046	11440.64
497.249	11287.04
497.453	11665.91
497.656	11545.08
497.859	11598.33
498.063	11659.77
498.266	12169.71
498.469	11895.29
498.673	12130.8
498.876	12282.35
499.079	12456.43
499.282	12347.89
499.485	12677.61
499.689	12612.07
499.892	12997.09
500.095	13019.62
500.298	13324.77
500.501	13089.25
500.705	13531.61
500.908	13631.96
501.111	13980.12
501.314	13642.2
501.517	13957.59
501.72	14156.24
501.923	14141.91
502.126	14543.31
502.329	14703.05
502.532	14684.62
502.735	14879.18
502.938	14973.38
503.141	15143.36
503.344	15163.84
503.547	15290.82
503.75	15569.34
503.953	15628.73
504.156	15903.16
504.359	15911.35
504.562	16413.1
504.765	16857.51
504.968	16572.85
505.17	16832.94
505.373	16955.82
505.576	17213.86
505.779	17314.21
505.982	17195.43
506.185	17856.92
506.387	17887.64
506.59	18043.29
506.793	18383.25
506.996	18375.06
507.198	18868.62
507.401	18553.23
507.604	19022.22
507.807	19184.01
508.009	19519.87
508.212	19265.92
508.415	19745.15
508.617	19558.78
508.82	19933.56
509.022	19734.91
509.225	20445.55
509.428	20498.8
509.63	20599.15
509.833	20869.48
510.035	21365.09
510.238	21197.16
510.44	21143.91
510.643	21944.67
510.845	22233.43
511.048	21766.49
511.25	22096.22
511.453	22561.11
511.655	23169.35
511.858	22708.56
512.06	22833.49
512.262	23300.42
512.465	23206.22
512.667	23562.56
512.87	23640.39
513.072	23750.98
513.274	24254.78
513.477	24416.57
513.679	24719.67
513.881	24877.36
514.084	25121.07
514.286	25305.38
514.488	25395.5
514.69	25884.96
514.893	25891.1
515.095	26056.99
515.297	26372.38
515.499	26134.81
515.701	26614.04
515.904	26929.42
516.106	26929.42
516.308	27232.52
516.51	27576.58
516.712	27605.25
516.914	27848.96
517.116	28604.66
517.318	28195.07
517.52	28440.82
517.722	28819.7
517.925	28944.62
518.127	29546.73
518.329	29286.64
518.531	29282.54
518.733	29968.61
518.935	30185.69
519.136	29868.26
519.338	30382.3
519.54	30564.57
519.742	30865.62
519.944	30849.24
520.146	31420.62
520.348	31758.53
520.55	31363.28
520.752	31557.83
520.954	32219.33
521.155	32110.78
521.357	32409.79
521.559	32637.11
521.761	32858.29
521.963	33065.14
522.164	32909.49
522.366	33196.21
522.568	33372.33
522.77	33702.06
522.971	34005.16
523.173	33999.01
523.375	34205.86
523.576	34205.86
523.778	34080.93
523.98	34564.25
524.181	34742.42
524.383	35117.2
524.584	35446.93
524.786	35190.93
524.988	35352.72
525.189	35401.87
525.391	35833.99
525.592	35764.36
525.794	35653.77
525.995	35743.88
526.197	36020.36
526.398	36255.87
526.6	36497.53
526.801	36112.52
527.003	36894.84
527.204	36561.02
527.406	36442.24
527.607	36792.44
527.808	36886.65
528.01	36497.53
528.211	36907.13
528.412	37558.38
528.614	37253.23
528.815	37298.29
529.016	37650.54
529.218	37353.58
529.419	37408.88
529.62	37337.2
529.822	37283.95
530.023	37374.06
530.224	37750.89
530.425	37415.02
530.626	37318.77
530.828	37132.4
531.029	38078.57
531.23	37331.06
531.431	37521.52
531.632	37544.05
531.833	38142.05
532.035	37800.04
532.236	37998.69
532.437	38318.18
532.638	37701.74
532.839	38170.72
533.04	38103.14
533.241	37554.29
533.442	38326.37
533.643	38185.06
533.844	37982.31
534.045	38056.04
534.246	37746.79
534.447	38287.46
534.648	37800.04
534.849	37943.4
535.05	37607.53
535.251	38066.28
535.451	37955.69
535.652	37812.33
535.853	38062.18
536.054	38152.29
536.255	38293.6
536.456	37697.64
536.657	38285.41
536.857	37630.06
537.058	37759.08
537.259	38086.76
537.46	37916.78
537.66	38111.33
537.861	38131.81
538.062	37922.92
538.263	37967.98
538.463	37585.01
538.664	37955.69
538.865	37546.09
539.065	38203.49
539.266	37814.38
539.466	38160.48
539.667	37388.4
539.868	38117.48
540.068	37480.56
540.269	38060.13
540.469	38074.47
540.67	37517.42
540.87	37828.71
541.071	37828.71
541.271	37587.05
541.472	37775.47
541.672	37681.26
541.873	37351.54
542.073	36952.18
542.274	37963.88
542.474	37666.92
542.675	37404.78
542.875	37742.7
543.075	37529.71
543.276	37310.58
543.476	37857.38
543.676	37449.84
543.877	37660.78
544.077	37666.92
544.277	37355.63
544.478	37462.13
544.678	37498.99
544.878	37394.54
545.078	37544.05
545.279	37228.66
545.479	37122.16
545.679	37619.82
545.879	37079.16
546.079	37337.2
546.28	37400.69
546.48	36640.89
546.68	36962.42
546.88	36808.82
547.08	37351.54
547.28	37208.18
547.48	37220.47
547.68	37300.34
547.88	37204.08
548.081	37503.09
548.281	37267.57
548.481	36941.94
548.681	37294.19
548.881	37214.32
549.081	36837.5
549.28	36835.45
549.48	37220.47
549.68	36835.45
549.88	37320.82
550.08	36888.7
550.28	37361.78
550.48	37079.16
550.68	37251.19
550.88	36991.09
551.08	36849.78
551.279	36960.37
551.479	37085.3
551.679	36667.52
551.879	36905.08
552.079	36874.36
552.278	36577.4
552.478	36878.46
552.678	36825.21
552.878	37048.44
553.077	36530.3
553.277	36477.05
553.477	37441.65
553.676	36432
553.876	36636.8
554.076	36452.48
554.275	36540.54
554.475	36194.43
554.674	36675.71
554.874	36628.6
555.074	36128.9
555.273	36307.07
555.473	36851.83
555.672	36067.46
555.872	36466.81
556.071	36157.57
556.271	36561.02
556.47	36366.46
556.67	35881.1
556.869	36317.31
557.068	36462.72
557.268	36249.73
557.467	35911.81
557.667	36229.25
557.866	36276.35
558.065	36059.27
558.265	35948.68
558.464	35588.24
558.663	36264.07
558.863	35580.04
559.062	36407.42
559.261	35817.61
559.461	35909.77
559.66	35532.94
559.859	35905.67
560.058	35328.14
560.258	36006.02
560.457	35584.14
560.656	36016.26
560.855	35790.98
561.054	36049.03
561.253	35154.07
561.453	35645.58
561.652	35639.43
561.851	35756.17
562.05	35506.32
562.249	35168.4
562.448	35752.07
562.647	35438.73
562.846	35133.59
563.045	35381.39
563.244	35285.14
563.443	35668.11
563.642	34764.95
563.841	34889.88
564.04	34947.22
564.239	35076.24
564.438	34988.18
564.637	35076.24
564.836	35043.48
565.035	34748.57
565.234	34781.34
565.432	34326.69
565.631	35020.95
565.83	34850.97
566.029	34269.34
566.228	34605.21
566.427	34502.81
566.625	34232.48
566.824	33933.48
567.023	34582.68
567.222	34277.54
567.42	34281.63
567.619	34173.09
567.818	34287.78
568.016	34132.13
568.215	34255.01
568.414	33577.13
568.612	34205.86
568.811	33953.96
569.01	34168.99
569.208	33648.81
569.407	33755.3
569.605	33589.42
569.804	33890.47
570.002	33417.39
570.201	33405.1
570.4	33405.1
570.598	33153.2
570.797	33435.82
570.995	33444.01
571.193	32622.78
571.392	33384.62
571.59	32952.5
571.789	33026.23
571.987	32630.97
572.186	32983.22
572.384	32915.64
572.582	32803
572.781	32778.42
572.979	32557.24
573.177	32856.25
573.376	33040.56
573.574	32268.48
573.772	32762.04
573.971	32336.06
574.169	32405.69
574.367	32243.9
574.565	32379.07
574.763	32198.85
574.962	32342.21
575.16	31897.8
575.358	32321.73
575.556	31635.66
575.754	31994.05
575.952	31697.1
576.151	31936.71
576.349	31860.93
576.547	31518.92
576.745	31684.81
576.943	31676.62
577.141	31582.41
577.339	31856.84
577.537	31492.3
577.735	31320.27
577.933	31144.14
578.131	31416.52
578.329	30843.09
578.527	30666.97
578.725	31070.42
578.923	31019.22
579.121	30955.73
579.319	30806.23
579.516	31342.8
579.714	30804.18
579.912	30877.91
580.11	30402.78
580.308	30298.33
580.506	30552.28
580.704	30114.02
580.901	30374.11
581.099	30458.07
581.297	30277.85
581.495	29931.75
581.692	30093.54
581.89	29540.58
582.088	29882.59
582.285	29845.73
582.483	30011.62
582.681	29702.37
582.878	30030.05
583.076	29493.48
583.274	29931.75
583.471	29409.51
583.669	29350.12
583.866	29233.39
584.064	29317.36
584.262	29030.64
584.459	29380.84
584.657	28977.39
584.854	29391.08
585.052	28363
585.249	28952.82
585.447	29184.24
585.644	28803.32
585.841	28600.57
586.039	28784.88
586.236	28336.38
586.434	28436.73
586.631	28424.44
586.828	28289.27
587.026	27961.6
587.223	28403.96
587.42	28199.16
587.618	28049.66
587.815	27891.97
588.012	27590.92
588.21	27564.29
588.407	27953.41
588.604	27715.84
588.801	27711.75
588.999	27517.19
589.196	27638.02
589.393	27580.68
589.59	27431.18
589.787	27246.86
589.984	27027.73
590.182	26929.42
590.379	26560.79
590.576	27015.44
590.773	26976.53
590.97	26759.44
591.167	26839.31
591.364	26472.73
591.561	26710.29
591.758	26519.83
591.955	26009.89
592.152	26439.96
592.349	26368.28
592.546	26544.41
592.743	26022.17
592.94	25848.1
593.137	26083.61
593.334	26358.04
593.531	25923.87
593.727	25944.35
593.924	25680.16
594.121	25362.73
594.318	25659.68
594.515	25366.82
594.712	25512.23
594.908	25352.49
595.105	25602.34
595.302	25094.44
595.499	25405.73
595.696	25383.21
595.892	24891.69
596.089	25266.47
596.286	24824.11
596.482	25198.89
596.679	24901.93
596.876	24850.74
597.072	24525.11
597.269	24834.35
597.466	24621.36
597.662	24465.72
597.859	24205.63
598.055	24224.06
598.252	24090.94
598.448	24115.51
598.645	24146.23
598.841	23824.7
599.038	24240.44
599.234	23861.57
599.431	23669.06
599.627	23499.08
599.824	23607.62
600.02	23394.63
600.217	23415.11
600.413	23374.15
600.609	23026
600.806	23224.65
601.002	23490.88
601.198	23050.57
601.395	23265.61
601.591	22745.42
601.787	22993.23
601.984	23101.77
602.18	22976.84
602.376	22714.7
602.572	22708.56
602.769	22638.93
602.965	22567.25
603.161	22616.4
603.357	22325.59
603.553	22167.9
603.75	22444.37
603.946	22368.6
604.142	22163.8
604.338	22042.97
604.534	22030.68
604.73	21977.44
604.926	21858.65
605.122	21942.62
605.318	21786.97
605.514	21862.75
605.71	21956.96
605.906	21758.3
606.102	21731.68
606.298	21592.42
606.494	21504.35
606.69	21416.29
606.886	21848.41
607.082	21217.64
607.278	21342.56
607.474	21092.71
607.67	21115.24
607.866	20834.67
608.062	21453.16
608.257	20881.77
608.453	20941.16
608.649	21211.49
608.845	21035.37
609.041	20853.1
609.236	20691.31
609.432	21004.65
609.628	21045.61
609.824	20574.58
610.019	20502.9
610.215	20595.06
610.411	20689.26
610.606	20775.28
610.802	20765.04
610.998	20570.48
611.193	20474.23
611.389	20539.76
611.584	20582.77
611.78	20283.77
611.976	20207.99
612.171	20558.19
612.367	20380.02
612.562	20377.97
612.758	19886.46
612.953	20021.63
613.149	20273.53
613.344	20316.53
613.539	19917.18
613.735	19951.99
613.93	20007.29
614.126	19974.52
614.321	20087.16
614.517	19943.8
614.712	19911.03
614.907	19622.27
615.103	19904.89
615.298	19726.72
615.493	19806.59
615.688	19298.69
615.884	19892.6
616.079	19300.74
616.274	19638.65
616.47	19655.04
616.665	19665.28
616.86	19370.37
617.055	19337.6
617.25	19175.81
617.445	19749.25
617.641	19026.31
617.836	19333.51
618.031	18932.11
618.226	19423.62
618.421	19136.9
618.616	19300.74
618.811	18882.95
619.006	19335.56
619.201	18694.54
619.396	19038.6
619.591	18446.74
619.786	18610.57
619.981	18289.04
620.176	18442.64
620.371	18194.84
620.566	18346.39
620.761	18162.07
620.956	18360.72
621.151	17916.31
621.346	18094.49
621.541	17721.76
621.735	18071.96
621.93	17490.34
622.125	17605.02
622.32	17422.75
622.515	17527.2
622.709	17432.99
622.904	17506.72
623.099	17232.29
623.294	17056.17
623.488	17068.45
623.683	17127.85
623.878	16615.85
624.072	16824.75
624.267	16738.73
624.462	16630.19
624.656	16382.38
624.851	16812.46
625.046	16282.03
625.24	16185.78
625.435	16282.03
625.629	15974.84
625.824	16021.94
626.018	15954.36
626.213	15897.02
626.407	15747.51
626.602	15452.61
626.796	15671.74
626.991	15847.86
627.185	15356.35
627.38	15241.67
627.574	15296.96
627.768	14969.29
627.963	15051.2
628.157	14807.5
628.352	15026.63
628.546	14637.52
628.74	14813.64
628.935	14735.82
629.129	14860.74
629.323	14502.35
629.517	14551.5
629.712	14479.82
629.906	14285.26
630.1	14109.14
630.294	14346.7
630.489	14201.3
630.683	14090.71
630.877	13943.25
631.071	13693.4
631.265	14035.41
631.459	13806.04
631.653	13730.27
631.848	13685.21
632.042	13629.91
632.236	13605.34
632.43	13531.61
632.624	13527.52
632.818	13302.24
633.012	13296.1
633.206	13167.07
633.4	13242.85
633.594	13025.76
633.788	13099.49
633.982	12982.76
634.176	12927.46
634.369	12683.75
634.563	12767.72
634.757	12724.71
634.951	12622.31
635.145	12687.85
635.339	12472.81
635.533	12399.09
635.726	12421.61
635.92	12208.62
636.114	12220.91
636.308	12323.31
636.501	12268.02
636.695	12360.17
636.889	12081.65
637.083	11719.16
637.276	11913.72
637.47	12003.83
637.664	11704.82
637.857	11710.97
638.051	11672.06
638.244	11538.94
638.438	11465.21
638.632	11592.19
638.825	11223.55
639.019	11305.47
639.212	11086.34
639.406	11213.31
639.599	11178.5
639.793	11256.32
639.986	10920.45
640.18	10938.88
640.373	10928.64
640.567	10861.06
640.76	10836.49
640.954	10775.05
641.147	11022.85
641.34	10643.98
641.534	10797.57
641.727	10551.82
641.92	10459.66
642.114	10422.8
642.307	10461.71
642.5	10404.36
642.694	10113.55
642.887	10150.42
643.08	10367.5
643.273	10144.27
643.467	10134.03
643.66	9972.24
643.853	10015.25
644.046	9937.43
644.239	10105.36
644.432	10019.35
644.626	9888.28
644.819	9677.33
645.012	9888.28
645.205	9673.24
645.398	9761.3
645.591	9622.04
645.784	9493.02
645.977	9191.97
646.17	9431.58
646.363	9331.23
646.556	9439.77
646.749	9351.71
646.942	9284.12
647.135	9001.51
647.328	8958.5
647.521	9146.91
647.714	8729.13
647.907	9099.81
648.099	8817.19
648.292	8895.01
648.485	8802.85
648.678	8780.32
648.871	8843.81
649.064	8759.84
649.256	8843.81
649.449	8710.69
649.642	8573.48
649.835	8393.26
650.027	8444.46
650.22	8356.4
650.413	8249.9
650.605	8370.73
650.798	8376.87
650.991	8194.61
651.183	8233.52
651.376	8397.35
651.568	8084.02
651.761	8112.69
651.954	7909.94
652.146	7887.41
652.339	7998
652.531	7899.7
652.724	8002.1
652.916	7750.2
653.109	7774.77
653.301	7762.48
653.494	7735.86
653.686	7647.8
653.879	7588.41
654.071	7547.45
654.263	7395.9
654.456	7432.76
654.648	7602.74
654.84	7371.32
655.033	7445.05
655.225	7533.11
655.417	7227.96
655.61	7277.12
655.802	7209.53
655.994	7187
656.186	7207.48
656.379	7135.81
656.571	7172.67
656.763	6904.39
656.955	7084.61
657.148	6986.3
657.34	7033.41
657.532	6851.14
657.724	6763.08
657.916	6877.76
658.108	6834.75
658.3	6761.03
658.492	6636.1
658.684	6740.55
658.876	6691.4
659.068	6650.44
659.26	6447.69
659.452	6509.13
659.644	6529.61
659.836	6527.56
660.028	6564.42
660.22	6363.72
660.412	6371.91
660.604	6240.84
660.796	6414.92
660.988	6232.65
661.18	6206.03
661.372	6111.82
661.563	6185.55
661.755	6197.84
661.947	6120.01
662.139	5958.22
662.331	6154.83
662.522	6011.47
662.714	6156.88
662.906	5866.07
663.097	5843.54
663.289	5988.94
663.481	5714.52
663.673	5794.39
663.864	5782.1
664.056	5714.52
664.247	5661.27
664.439	5642.84
664.631	5739.09
664.822	5759.57
665.014	5700.18
665.205	5753.43
665.397	5636.69
665.588	5524.05
665.78	5571.16
665.971	5390.94
666.163	5585.49
666.354	5487.19
666.546	5261.91
666.737	5282.39
666.929	5321.31
667.12	5231.19
667.311	5286.49
667.503	5294.68
667.694	5098.08
667.885	5306.97
668.077	5241.43
668.268	5075.55
668.459	5116.51
668.651	5132.89
668.842	5083.74
669.033	4909.66
669.224	5132.89
669.416	5134.94
669.607	4973.15
669.798	4954.72
669.989	5020.25
670.18	5063.26
670.371	4958.81
670.563	4741.73
670.754	4786.79
670.945	4821.6
671.136	4868.7
671.327	4751.97
671.518	4678.24
671.709	4768.35
671.9	4661.86
672.091	4733.54
672.282	4756.07
672.473	4563.56
672.664	4676.2
672.855	4665.96
673.046	4584.04
673.237	4692.58
673.428	4498.02
673.619	4475.49
673.809	4502.12
674	4581.99
674.191	4295.27
674.382	4500.07
674.573	4471.4
674.764	4567.65
674.954	4569.7
675.145	4373.1
675.336	4477.54
675.527	4448.87
675.717	4309.61
675.908	4141.68
676.099	4260.46
676.289	4346.47
676.48	4231.79
676.671	4270.7
676.861	4254.31
677.052	4158.06
677.243	4229.74
677.433	4186.73
677.624	4340.33
677.814	4205.16
678.005	4178.54
678.195	4063.85
678.386	3983.98
678.576	4000.37
678.767	4145.77
678.957	3971.69
679.148	4192.87
679.338	3996.27
679.529	4067.95
679.719	3947.12
679.909	3924.59
680.1	4123.24
680.29	3983.98
680.481	3902.06
680.671	3994.22
680.861	4002.41
681.052	3861.1
681.242	3764.85
681.432	3885.68
681.622	3914.35
681.813	3797.62
682.003	3818.1
682.193	3807.86
682.383	3891.82
682.573	3742.32
682.764	3697.27
682.954	3846.77
683.144	3752.56
683.334	3779.18
683.524	3775.09
683.714	3725.94
683.904	3740.27
684.094	3744.37
684.284	3605.11
684.474	3693.17
684.664	3709.55
684.854	3629.68
685.044	3625.59
685.234	3564.15
685.424	3603.06
685.614	3756.66
685.804	3562.1
685.994	3611.25
686.184	3512.95
686.374	3646.07
686.564	3525.24
686.753	3537.52
686.943	3498.61
687.133	3447.41
687.323	3363.45
687.513	3480.18
687.702	3367.54
687.892	3410.55
688.082	3488.37
688.272	3308.15
688.461	3314.3
688.651	3408.5
688.841	3287.67
689.03	3306.1
689.22	3324.54
689.41	3279.48
689.599	3281.53
689.789	3144.31
689.979	3267.19
690.168	3111.55
690.358	3086.97
690.547	3101.31
690.737	3170.94
690.926	3218.04
691.116	3097.21
691.305	3273.34
691.495	2964.09
691.684	3031.68
691.874	3046.01
692.063	3021.44
692.252	3033.72
692.442	3062.4
692.631	2863.74
692.82	2783.87
693.01	2966.14
693.199	2998.91
693.388	2968.19
693.578	2751.1
693.767	2955.9
693.956	2871.93
694.146	2830.98
694.335	2855.55
694.524	2894.46
694.713	2835.07
694.902	2839.17
695.092	2781.82
695.281	2828.93
695.47	2781.82
695.659	2687.62
695.848	2704
696.037	2585.22
696.226	2726.53
696.415	2722.43
696.604	2785.92
696.793	2609.79
696.982	2564.74
697.171	2738.82
697.36	2761.34
697.549	2605.7
697.738	2509.44
697.927	2566.79
698.116	2497.16
698.305	2599.55
698.494	2548.36
698.683	2652.8
698.872	2525.83
699.061	2378.37
699.25	2441.86
699.438	2513.54
699.627	2466.44
699.816	2671.23
700.005	2458.25
700.193	2405
700.382	2454.15
700.571	2443.91
700.76	2405
700.948	2445.96
701.137	2486.92
701.326	2462.34
701.514	2470.53
701.703	2454.15
701.892	2323.08
702.08	2499.2
702.269	2417.29
702.457	2306.7
702.646	2278.02
702.834	2267.78
703.023	2398.85
703.212	2347.65
703.4	2275.98
703.589	2222.73
703.777	2345.61
703.965	2345.61
704.154	2280.07
704.342	2235.02
704.531	2284.17
704.719	2374.28
704.907	2308.74
705.096	2288.26
705.284	2286.22
705.472	2247.3
705.661	2112.14
705.849	2216.58
706.037	2284.17
706.226	2161.29
706.414	2261.64
706.602	2116.23
706.79	2089.61
706.979	2302.6
707.167	2140.81
707.355	2036.36
707.543	2151.05
707.731	2222.73
707.919	2136.71
708.107	2153.1
708.296	2142.86
708.484	2110.09
708.672	2103.95
708.86	2142.86
709.048	2083.47
709.236	2146.95
709.424	2241.16
709.612	2036.36
709.8	2157.19
709.988	2081.42
710.176	2218.63
710.364	2118.28
710.551	2108.04
710.739	2126.47
710.927	2011.79
711.115	2079.37
711.303	2134.67
711.491	1966.73
711.679	2110.09
711.866	2017.93
712.054	2056.84
712.242	2060.94
712.43	2151.05
712.617	2067.08
712.805	1983.12
712.993	2120.33
713.181	1919.63
713.368	2153.1
713.556	2097.8
713.744	1979.02
713.931	2044.56
714.119	1952.4
714.306	2001.55
714.494	2007.69
714.682	1923.73
714.869	2069.13
715.057	2019.98
715.244	1972.88
715.432	1870.48
715.619	1985.16
715.807	1981.07
715.994	1960.59
716.182	1921.68
716.369	2015.88
716.556	2001.55
716.744	1895.05
716.931	1936.01
717.119	2030.22
717.306	1997.45
717.493	1866.38
717.681	1968.78
717.868	1944.2
718.055	1976.97
718.242	1929.87
718.43	1927.82
718.617	1972.88
718.804	1909.39
718.991	1911.44
719.179	1999.5
719.366	1864.33
719.553	2019.98
719.74	1981.07
719.927	1979.02
720.114	1854.09
720.301	1919.63
720.488	1882.77
720.676	1794.7
720.863	1856.14
721.05	1956.49
721.237	1831.57
721.424	1901.2
721.611	1915.53
721.798	1827.47
721.985	1878.67
722.172	1888.91
722.358	1921.68
722.545	1991.31
722.732	1874.57
722.919	1938.06
723.106	1905.29
723.293	1950.35
723.48	1872.53
723.667	1931.92
723.853	1893.01
724.04	1895.05
724.227	1940.11
724.414	1901.2
724.6	1909.39
724.787	1938.06
724.974	1960.59
725.161	2009.74
725.347	1798.8
725.534	1866.38
725.72	1884.81
725.907	1833.61
726.094	1782.42
726.28	1780.37
726.467	1837.71
726.653	1852.05
726.84	1913.49
727.027	1798.8
727.213	1850
727.4	1903.25
727.586	1944.2
727.773	1794.7
727.959	1913.49
728.145	1919.63
728.332	1860.24
728.518	1933.97
728.705	1862.29
728.891	1786.51
729.077	1745.55
729.264	1798.8
729.45	1796.75
729.636	1917.58
729.823	1837.71
730.009	1927.82
730.195	1813.13
730.382	1829.52
730.568	1907.34
730.754	1888.91
730.94	1966.73
731.126	1890.96
731.313	1903.25
731.499	1923.73
731.685	1882.77
731.871	1964.68
732.057	1847.95
732.243	1825.42
732.429	1950.35
732.615	1938.06
732.801	1872.53
732.987	1901.2
733.173	1993.36
733.359	1800.85
733.545	1858.19
733.731	1815.18
733.917	1794.7
734.103	1897.1
734.289	1847.95
734.475	1925.77
734.661	1925.77
734.847	1917.58
735.033	1856.14
735.219	1915.53
735.404	1954.44
735.59	1862.29
735.776	1942.16
735.962	1788.56
736.148	1882.77
736.333	1899.15
736.519	1817.23
736.705	1933.97
736.89	1806.99
737.076	1913.49
737.262	1786.51
737.447	1897.1
737.633	2013.84
737.819	1909.39
738.004	1852.05
738.19	1899.15
738.375	1866.38
738.561	1964.68
738.747	2032.27
738.932	1831.57
739.118	1933.97
739.303	1876.62
739.489	1936.01
739.674	1802.9
739.859	1864.33
740.045	1993.36
740.23	1911.44
740.416	1817.23
740.601	1872.53
740.786	1815.18
740.972	1890.96
741.157	1784.46
741.342	1929.87
741.528	1884.81
741.713	1854.09
741.898	1841.81
742.084	1833.61
742.269	1946.25
742.454	1919.63
742.639	1897.1
742.824	1886.86
743.01	1907.34
743.195	1936.01
743.38	1823.37
743.565	1854.09
743.75	1886.86
743.935	1897.1
744.12	1878.67
744.305	1761.94
744.49	1790.61
744.675	1866.38
744.86	1835.66
745.045	1731.22
745.23	1825.42
745.415	1725.07
745.6	1794.7
745.785	1772.18
745.97	1882.77
746.155	1712.78
746.34	1802.9
746.525	1788.56
746.71	1745.55
746.895	1665.68
747.079	1653.39
747.264	1690.26
747.449	1766.03
747.634	1763.98
747.819	1714.83
748.003	1725.07
748.188	1706.64
748.373	1680.02
748.557	1723.02
748.742	1702.54
748.927	1684.11
749.111	1624.72
749.296	1651.35
749.481	1626.77
749.665	1532.56
749.85	1675.92
750.034	1655.44
750.219	1604.24
750.404	1641.11
750.588	1608.34
750.773	1579.67
750.957	1561.23
751.141	1600.15
751.326	1688.21
751.51	1559.19
751.695	1587.86
751.879	1491.6
752.064	1596.05
752.248	1536.66
752.432	1624.72
752.617	1479.32
752.801	1497.75
752.985	1501.84
753.17	1499.8
753.354	1583.76
753.538	1618.58
753.722	1489.56
753.907	1444.5
754.091	1448.6
754.275	1530.52
754.459	1348.25
754.643	1393.3
754.828	1372.82
755.012	1440.4
755.196	1426.07
755.38	1446.55
755.564	1403.54
755.748	1407.64
755.932	1415.83
756.116	1378.97
756.3	1405.59
756.484	1297.05
756.668	1307.29
756.852	1239.7
757.036	1411.73
757.22	1288.85
757.404	1295
757.588	1258.14
757.772	1321.62
757.956	1280.66
758.14	1286.81
758.323	1268.38
758.507	1286.81
758.691	1290.9
758.875	1223.32
759.059	1282.71
759.242	1192.6
759.426	1245.85
759.61	1301.14
759.794	1264.28
759.977	1274.52
760.161	1288.85
760.345	1170.07
760.528	1215.13
760.712	1174.17
760.895	1178.26
761.079	1200.79
761.263	1108.63
761.446	1114.78
761.63	1122.97
761.813	1180.31
761.997	1131.16
762.18	1030.81
762.364	1184.41
762.547	1131.16
762.731	1098.39
762.914	1073.82
763.098	1082.01
763.281	1116.83
763.464	1163.93
763.648	1168.02
763.831	1129.11
764.015	1116.83
764.198	1098.39
764.381	1133.21
764.564	1067.67
764.748	1127.07
764.931	1159.83
765.114	1012.38
765.297	1082.01
765.481	1039
765.664	998.04
765.847	977.56
766.03	1043.1
766.213	981.66
766.397	969.37
766.58	1084.06
766.763	1082.01
766.946	1026.71
767.129	1004.19
767.312	1000.09
767.495	1039
767.678	918.17
767.861	987.8
768.044	1016.48
768.227	1039
768.41	985.76
768.593	1069.72
768.776	1043.1
768.959	989.85
769.142	973.47
769.324	963.23
769.507	996
769.69	918.17
769.873	969.37
770.056	993.95
770.239	955.04
770.421	983.71
770.604	987.8
770.787	918.17
770.97	887.45
771.152	852.64
771.335	1000.09
771.518	903.84
771.7	967.32
771.883	907.93
772.066	811.68
772.248	860.83
772.431	819.87
772.613	965.28
772.796	891.55
772.978	834.21
773.161	899.74
773.343	848.54
773.526	809.63
773.708	803.49
773.891	828.06
774.073	932.51
774.256	807.58
774.438	887.45
774.621	897.69
774.803	858.78
774.985	854.69
775.168	826.01
775.35	826.01
775.532	783.01
775.715	803.49
775.897	811.68
776.079	805.53
776.261	789.15
776.444	778.91
776.626	768.67
776.808	803.49
776.99	727.71
777.173	731.81
777.355	766.62
777.537	696.99
777.719	727.71
777.901	727.71
778.083	760.48
778.265	750.24
778.447	717.47
778.629	649.89
778.811	672.42
778.993	721.57
779.175	707.23
779.357	682.66
779.539	703.14
779.721	674.46
779.903	684.7
780.085	670.37
780.267	639.65
780.449	680.61
780.631	754.34
780.812	619.17
780.994	656.03
781.176	658.08
781.358	639.65
781.54	635.55
781.721	684.7
781.903	598.69
782.085	635.55
782.267	594.59
782.448	576.16
782.63	629.41
782.812	567.97
782.993	666.27
783.175	508.58
783.357	547.49
783.538	555.68
783.72	455.33
783.901	551.59
784.083	516.77
784.264	580.26
784.446	508.58
784.627	641.7
784.809	547.49
784.99	488.1
785.172	500.39
785.353	477.86
785.535	537.25
785.716	533.15
785.897	455.33
786.079	504.48
786.26	481.96
786.441	447.14
786.623	486.05
786.804	463.52
786.985	512.67
787.167	428.71
787.348	473.76
787.529	486.05
787.71	543.39
787.891	438.95
788.073	455.33
788.254	449.19
788.435	457.38
788.616	441
788.797	496.29
788.978	432.8
789.159	422.56
789.34	434.85
789.522	426.66
789.703	455.33
789.884	340.65
790.065	338.6
790.246	406.18
790.427	369.32
790.607	471.72
790.788	402.08
790.969	365.22
791.15	375.46
791.331	354.98
791.512	357.03
791.693	393.89
791.874	342.69
792.054	404.13
792.235	387.75
792.416	412.32
792.597	377.51
792.778	303.78
792.958	393.89
793.139	301.73
793.32	322.21
793.5	338.6
793.681	371.36
793.862	383.65
794.042	354.98
794.223	291.49
794.404	336.55
794.584	250.53
794.765	330.41
794.945	303.78
795.126	211.62
795.306	318.12
795.487	336.55
795.667	357.03
795.848	314.02
796.028	309.93
796.209	338.6
796.389	322.21
796.57	379.56
796.75	289.45
796.93	301.73
797.111	307.88
797.291	266.92
797.471	234.15
797.652	252.58
797.832	285.35
798.012	361.13
798.192	248.49
798.373	174.76
798.553	266.92
798.733	348.84
798.913	307.88
799.093	240.29
799.274	232.1
799.454	244.39
799.634	336.55
799.814	322.21
799.994	303.78
800.174	297.64
800.354	180.9
800.534	205.48
800.714	217.77
800.894	215.72
801.074	252.58
801.254	299.69
801.434	279.21
801.614	223.91
801.794	230.06
801.974	844.45
802.154	250.53
802.334	287.4
802.514	238.25
802.693	193.19
802.873	246.44
803.053	254.63
803.233	234.15
803.413	219.82
803.592	174.76
803.772	178.86
803.952	223.91
804.131	199.34
804.311	141.99
804.491	223.91
804.67	182.95
804.85	268.97
805.03	197.29
805.209	250.53
805.389	185
805.568	232.1
805.748	154.28
805.928	211.62
806.107	279.21
806.287	277.16
806.466	221.86
806.646	236.2
806.825	195.24
807.004	242.34
807.184	236.2
807.363	264.87
807.543	275.11
807.722	137.9
807.901	211.62
808.081	217.77
808.26	119.46
808.439	195.24
808.619	240.29
808.798	170.66
808.977	158.38
809.156	234.15
809.336	232.1
809.515	225.96
809.694	158.38
809.873	182.95
810.052	174.76
810.231	230.06
810.411	162.47
810.59	217.77
810.769	195.24
810.948	207.53
811.127	103.08
811.306	209.58
811.485	164.52
811.664	201.38
811.843	152.23
812.022	162.47
812.201	156.33
812.38	217.77
812.559	176.81
812.737	158.38
812.916	176.81
813.095	119.46
813.274	141.99
813.453	47.79
813.632	158.38
813.811	115.37
813.989	129.7
814.168	164.52
814.347	109.22
814.526	135.85
814.704	168.62
814.883	150.18
815.062	135.85
815.24	119.46
815.419	172.71
815.598	121.51
815.776	105.13
815.955	139.94
816.133	107.18
816.312	109.22
816.49	152.23
816.669	225.96
816.847	96.94
817.026	141.99
817.204	92.84
817.383	158.38
817.561	37.55
817.74	182.95
817.918	101.03
818.097	86.7
818.275	105.13
818.453	182.95
818.632	133.8
818.81	139.94
818.988	135.85
819.167	170.66
819.345	98.99
819.523	121.51
819.701	119.46
819.879	111.27
820.058	109.22
820.236	174.76
820.414	60.07
820.592	125.61
820.77	84.65
820.948	135.85
821.127	82.6
821.305	117.42
821.483	51.88
821.661	125.61
821.839	150.18
822.017	68.27
822.195	98.99
822.373	176.81
822.551	94.89
822.729	113.32
822.907	94.89
823.085	105.13
823.262	53.93
823.44	33.45
823.618	127.66
823.796	86.7
823.974	96.94
824.152	182.95
824.329	160.42
824.507	125.61
824.685	62.12
824.863	41.64
825.04	152.23
825.218	121.51
825.396	144.04
825.574	123.56
825.751	131.75
825.929	199.34
826.107	154.28
826.284	135.85
826.462	160.42
826.639	39.59
826.817	27.31
826.994	90.79
827.172	58.03
827.349	197.29
827.527	98.99
827.704	129.7
827.882	94.89
828.059	80.55
828.237	27.31
828.414	225.96
828.591	-3.41
828.769	117.42
828.946	80.55
829.124	29.35
829.301	72.36
829.478	76.46
829.655	98.99
829.833	55.98
830.01	-36.18
830.187	92.84
830.364	107.18
830.542	148.14
830.719	156.33
830.896	62.12
831.073	158.38
831.25	92.84
831.427	141.99
831.604	119.46
831.782	41.64
831.959	101.03
832.136	141.99
832.313	88.75
832.49	39.59
832.667	74.41
832.844	76.46
833.021	125.61
833.198	68.27
833.374	98.99
833.551	90.79
833.728	15.02
833.905	121.51
834.082	-27.99
834.259	103.08
834.436	94.89
834.612	86.7
834.789	129.7
834.966	82.6
835.143	60.07
835.319	47.79
835.496	125.61
835.673	119.46
835.85	68.27
836.026	62.12
836.203	27.31
836.38	78.51
836.556	21.16
836.733	-15.7
836.909	82.6
837.086	45.74
837.262	70.31
837.439	23.21
837.616	39.59
837.792	31.4
837.968	41.64
838.145	-21.85
838.321	109.22
838.498	117.42
838.674	160.42
838.851	47.79
839.027	49.83
839.203	39.59
839.38	62.12
839.556	-5.46
839.732	31.4
839.909	82.6
840.085	78.51
840.261	27.31
840.437	55.98
840.614	49.83
840.79	25.26
840.966	101.03
841.142	94.89
841.318	98.99
841.494	78.51
841.671	70.31
841.847	107.18
842.023	64.17
842.199	78.51
842.375	166.57
842.551	-17.75
842.727	55.98
842.903	72.36
843.079	-5.46
843.255	94.89
843.431	19.11
843.607	78.51
843.783	-21.85
843.959	78.51
844.134	4.78
844.31	127.66
844.486	21.16
844.662	55.98
844.838	53.93
845.013	64.17
845.189	78.51
845.365	23.21
845.541	76.46
845.716	6.83
845.892	37.55
846.068	-21.85
846.244	94.89
846.419	123.56
846.595	-13.65
846.77	19.11
846.946	47.79
847.122	-7.51
847.297	49.83
847.473	62.12
847.648	-40.28
847.824	-11.61
847.999	45.74
848.175	76.46
848.35	51.88
848.526	45.74
848.701	96.94
848.876	172.71
849.052	23.21
849.227	53.93
849.403	68.27
849.578	51.88
849.753	49.83
849.929	80.55
850.104	70.31
850.279	68.27
850.454	51.88
850.63	37.55
850.805	37.55
850.98	64.17
851.155	51.88
851.33	150.18
851.505	-19.8
851.681	117.42
851.856	8.87
852.031	78.51
852.206	-13.65
852.381	-21.85
852.556	-19.8
852.731	70.31
852.906	45.74
853.081	25.26
853.256	96.94
853.431	60.07
853.606	6.83
853.781	-44.37
853.956	8.87
854.131	45.74
854.305	-3.41
854.48	55.98
854.655	33.45
854.83	58.03
855.005	-3.41
855.18	39.59
855.354	-11.61
855.529	-9.56
855.704	64.17
855.879	15.02
856.053	-44.37
856.228	-13.65
856.403	-9.56
856.577	55.98
856.752	-83.28
856.926	80.55
857.101	-7.51
857.276	-9.56
857.45	45.74
857.625	49.83
857.799	41.64
857.974	47.79
858.148	-19.8
858.323	70.31
858.497	80.55
858.672	0.68
858.846	-27.99
859.02	53.93
859.195	-25.94
859.369	41.64
859.543	29.35
859.718	10.92
859.892	88.75
860.066	-13.65
860.241	-25.94
860.415	25.26
860.589	86.7
860.763	58.03
860.938	31.4
861.112	86.7
861.286	-73.04
861.46	43.69
861.634	74.41
861.808	41.64
861.982	53.93
862.157	-46.42
862.331	-23.89
862.505	0.68
862.679	-54.61
862.853	6.83
863.027	39.59
863.201	29.35
863.375	-7.51
863.549	23.21
863.722	68.27
863.896	76.46
864.07	6.83
864.244	-34.13
864.418	21.16
864.592	23.21
864.766	39.59
864.939	-7.51
865.113	-75.09
865.287	19.11
865.461	-73.04
865.634	-3.41
865.808	8.87
865.982	2.73
866.156	-15.7
866.329	-38.23
866.503	2.73
866.676	31.4
866.85	12.97
867.024	43.69
867.197	15.02
867.371	-38.23
867.544	45.74
867.718	-11.61
867.891	35.5
868.065	10.92
868.238	51.88
868.412	-19.8
868.585	43.69
868.759	-9.56
868.932	-17.75
869.105	2.73
869.279	12.97
869.452	21.16
869.625	49.83
869.799	17.07
869.972	-19.8
870.145	-30.04
870.319	45.74
870.492	51.88
870.665	-52.56
870.838	-13.65
871.011	6.83
871.185	37.55
871.358	-71
871.531	4.78
871.704	-21.85
871.877	-23.89
872.05	25.26
872.223	-11.61
872.396	72.36
872.569	66.22
872.742	-52.56
872.915	62.12
873.088	-23.89
873.261	-19.8
873.434	12.97
873.607	72.36
873.78	33.45
873.953	-36.18
874.126	60.07
874.299	-58.71
874.471	10.92
874.644	33.45
874.817	58.03
874.99	88.75
875.163	-34.13
875.335	37.55
875.508	-62.8
875.681	55.98
875.853	-13.65
876.026	-19.8
876.199	84.65
876.371	-19.8
876.544	-7.51
876.717	98.99
876.889	-1.37
877.062	53.93
877.234	-3.41
877.407	29.35
877.579	41.64
877.752	29.35
877.924	15.02
878.097	-36.18
878.269	25.26
878.442	74.41
878.614	37.55
878.786	39.59
878.959	-23.89
879.131	0.68
879.303	-87.38
879.476	29.35
879.648	10.92
879.82	15.02
879.993	31.4
880.165	49.83
880.337	15.02
880.509	-9.56
880.681	-68.95
880.854	-50.52
881.026	12.97
881.198	78.51
881.37	0.68
881.542	37.55
881.714	10.92
881.886	0.68
882.058	60.07
882.23	37.55
882.402	17.07
882.574	45.74
882.746	15.02
882.918	64.17
883.09	12.97
883.262	80.55
883.434	41.64
883.606	-11.61
883.778	-15.7
883.95	53.93
884.122	-62.8
884.293	0.68
884.465	10.92
884.637	21.16
884.809	17.07
884.98	47.79
885.152	10.92
885.324	70.31
885.496	-32.08
885.667	47.79
885.839	19.11
886.011	60.07
886.182	64.17
886.354	35.5
886.525	45.74
886.697	27.31
886.869	70.31
887.04	-1.37
887.212	-9.56
887.383	45.74
887.555	60.07
887.726	-36.18
887.897	-21.85
888.069	6.83
888.24	35.5
888.412	41.64
888.583	60.07
888.754	-44.37
888.926	-52.56
889.097	45.74
889.268	-75.09
889.44	-15.7
889.611	29.35
889.782	-5.46
889.953	-38.23
890.125	-5.46
890.296	-38.23
890.467	-19.8
890.638	25.26
890.809	35.5
890.98	33.45
891.151	12.97
891.323	35.5
891.494	-17.75
891.665	-15.7
891.836	12.97
892.007	35.5
892.178	43.69
892.349	25.26
892.52	-23.89
892.691	23.21
892.862	55.98
893.032	-9.56
893.203	6.83
893.374	15.02
893.545	39.59
893.716	19.11
893.887	-23.89
894.057	-36.18
894.228	27.31
894.399	-7.51
894.57	74.41
894.74	6.83
894.911	-11.61
895.082	-81.24
895.253	-36.18
895.423	17.07
895.594	6.83
895.764	43.69
895.935	10.92
896.106	-5.46
896.276	-87.38
896.447	12.97
896.617	-42.32
896.788	-36.18
896.958	6.83
897.129	-34.13
897.299	15.02
897.47	29.35
897.64	-9.56
897.81	-44.37
897.981	41.64
898.151	37.55
898.322	27.31
898.492	27.31
898.662	-13.65
898.832	2.73
899.003	-62.8
899.173	-3.41
899.343	-25.94
899.513	-27.99
