Data from USB4F104151__15__12-41-01-383.txt Node

Date: Fri Mar 14 12:41:01 EDT 2025
User: louis
Spectrometer: USB4F10415
Trigger mode: 4
Integration Time (sec): 3.000000E-2
Scans to average: 1
Electric dark correction enabled: true
Nonlinearity correction enabled: false
Boxcar width: 0
XAxis mode: Wavelengths
Number of Pixels in Spectrum: 3648
>>>>>Begin Spectral Data<<<<<
178.204	-178
178.424	-178
178.644	-178
178.864	-137.04
179.084	-184.15
179.304	26.79
179.524	-38.74
179.744	47.27
179.964	57.51
180.184	-1.88
180.404	0.17
180.624	-83.8
180.844	88.23
181.064	-48.98
181.283	22.7
181.503	-10.07
181.723	-59.22
181.943	12.46
182.163	61.61
182.383	4.27
182.602	-1.88
182.822	84.14
183.042	51.37
183.262	4.27
183.482	22.7
183.701	30.89
183.921	-24.4
184.141	-85.84
184.361	0.17
184.58	39.08
184.8	43.18
185.02	-42.84
185.239	67.75
185.459	53.42
185.679	16.55
185.898	-79.7
186.118	0.17
186.338	-40.79
186.557	82.09
186.777	16.55
186.997	2.22
187.216	-46.93
187.436	2.22
187.655	32.94
187.875	75.95
188.095	-81.75
188.314	37.03
188.534	-18.26
188.753	-38.74
188.973	12.46
189.192	26.79
189.412	24.75
189.631	14.51
189.851	14.51
190.07	6.31
190.29	-3.93
190.509	118.95
190.729	-18.26
190.948	14.51
191.168	104.62
191.387	82.09
191.607	0.17
191.826	-22.36
192.045	-36.69
192.265	-24.4
192.484	26.79
192.704	24.75
192.923	-8.02
193.142	123.05
193.362	51.37
193.581	30.89
193.8	4.27
194.02	77.99
194.239	71.85
194.458	77.99
194.678	39.08
194.897	43.18
195.116	71.85
195.335	32.94
195.555	18.6
195.774	-22.36
195.993	90.28
196.212	-28.5
196.432	4.27
196.651	-8.02
196.87	-28.5
197.089	86.19
197.308	4.27
197.528	0.17
197.747	-10.07
197.966	49.32
198.185	39.08
198.404	45.23
198.623	53.42
198.842	67.75
199.062	26.79
199.281	20.65
199.5	34.99
199.719	34.99
199.938	90.28
200.157	43.18
200.376	14.51
200.595	0.17
200.814	18.6
201.033	28.84
201.252	32.94
201.471	143.53
201.69	43.18
201.909	-57.17
202.128	71.85
202.347	41.13
202.566	6.31
202.785	45.23
203.004	-22.36
203.223	139.43
203.442	-22.36
203.661	32.94
203.879	18.6
204.098	80.04
204.317	16.55
204.536	92.33
204.755	28.84
204.974	88.23
205.193	32.94
205.411	127.14
205.63	32.94
205.849	-20.31
206.068	39.08
206.287	32.94
206.505	2.22
206.724	-1.88
206.943	-57.17
207.162	8.36
207.381	47.27
207.599	-53.08
207.818	45.23
208.037	-1.88
208.255	-55.12
208.474	16.55
208.693	-24.4
208.911	102.57
209.13	12.46
209.349	-28.5
209.567	67.75
209.786	-14.17
210.005	80.04
210.223	12.46
210.442	-48.98
210.661	-63.32
210.879	-1.88
211.098	18.6
211.316	-10.07
211.535	90.28
211.753	-32.6
211.972	59.56
212.191	-10.07
212.409	55.47
212.628	-30.55
212.846	-5.97
213.065	135.34
213.283	-34.64
213.502	37.03
213.72	-24.4
213.938	30.89
214.157	133.29
214.375	69.8
214.594	16.55
214.812	22.7
215.031	22.7
215.249	-30.55
215.467	30.89
215.686	22.7
215.904	18.6
216.122	73.9
216.341	45.23
216.559	43.18
216.778	10.41
216.996	22.7
217.214	39.08
217.432	63.66
217.651	8.36
217.869	-14.17
218.087	28.84
218.306	24.75
218.524	53.42
218.742	88.23
218.96	59.56
219.179	-36.69
219.397	-57.17
219.615	135.34
219.833	8.36
220.051	-3.93
220.27	24.75
220.488	0.17
220.706	63.66
220.924	28.84
221.142	4.27
221.36	-1.88
221.578	18.6
221.796	55.47
222.015	45.23
222.233	6.31
222.451	86.19
222.669	-24.4
222.887	22.7
223.105	-20.31
223.323	41.13
223.541	-34.64
223.759	8.36
223.977	-3.93
224.195	47.27
224.413	-14.17
224.631	26.79
224.849	45.23
225.067	73.9
225.285	37.03
225.503	55.47
225.721	-8.02
225.939	-10.07
226.157	0.17
226.375	45.23
226.592	-22.36
226.81	8.36
227.028	2.22
227.246	149.67
227.464	65.71
227.682	18.6
227.9	43.18
228.117	14.51
228.335	24.75
228.553	-12.12
228.771	6.31
228.989	10.41
229.206	2.22
229.424	-22.36
229.642	-1.88
229.86	57.51
230.077	6.31
230.295	53.42
230.513	61.61
230.731	34.99
230.948	94.38
231.166	86.19
231.384	-20.31
231.601	-26.45
231.819	24.75
232.037	-22.36
232.254	-28.5
232.472	61.61
232.689	69.8
232.907	71.85
233.125	75.95
233.342	-8.02
233.56	14.51
233.777	30.89
233.995	84.14
234.213	63.66
234.43	4.27
234.648	-22.36
234.865	10.41
235.083	75.95
235.3	61.61
235.518	-28.5
235.735	92.33
235.953	96.43
236.17	77.99
236.388	75.95
236.605	12.46
236.822	28.84
237.04	69.8
237.257	26.79
237.475	8.36
237.692	8.36
237.909	-10.07
238.127	41.13
238.344	98.47
238.562	133.29
238.779	-22.36
238.996	55.47
239.214	26.79
239.431	137.38
239.648	28.84
239.865	10.41
240.083	73.9
240.3	92.33
240.517	45.23
240.735	16.55
240.952	75.95
241.169	98.47
241.386	14.51
241.603	16.55
241.821	37.03
242.038	121
242.255	-36.69
242.472	45.23
242.689	75.95
242.907	34.99
243.124	55.47
243.341	26.79
243.558	-59.22
243.775	-30.55
243.992	-73.56
244.209	14.51
244.426	127.14
244.643	73.9
244.86	0.17
245.078	69.8
245.295	41.13
245.512	2.22
245.729	-36.69
245.946	34.99
246.163	22.7
246.38	94.38
246.597	28.84
246.814	-30.55
247.031	22.7
247.248	26.79
247.464	-3.93
247.681	63.66
247.898	30.89
248.115	61.61
248.332	30.89
248.549	30.89
248.766	75.95
248.983	49.32
249.2	18.6
249.417	71.85
249.633	-12.12
249.85	-30.55
250.067	59.56
250.284	37.03
250.501	39.08
250.717	82.09
250.934	4.27
251.151	65.71
251.368	61.61
251.585	84.14
251.801	63.66
252.018	-22.36
252.235	-46.93
252.451	32.94
252.668	12.46
252.885	57.51
253.102	-5.97
253.318	-3.93
253.535	16.55
253.752	-34.64
253.968	22.7
254.185	4.27
254.401	8.36
254.618	71.85
254.835	-1.88
255.051	55.47
255.268	59.56
255.484	55.47
255.701	49.32
255.917	-44.88
256.134	14.51
256.351	63.66
256.567	49.32
256.784	-5.97
257	49.32
257.217	71.85
257.433	0.17
257.65	114.86
257.866	75.95
258.082	28.84
258.299	-16.21
258.515	32.94
258.732	-14.17
258.948	34.99
259.165	20.65
259.381	18.6
259.597	-3.93
259.814	-28.5
260.03	-12.12
260.246	39.08
260.463	-32.6
260.679	80.04
260.895	59.56
261.112	0.17
261.328	-34.64
261.544	-5.97
261.761	90.28
261.977	55.47
262.193	12.46
262.409	-71.51
262.626	51.37
262.842	32.94
263.058	55.47
263.274	6.31
263.49	-30.55
263.707	47.27
263.923	43.18
264.139	-16.21
264.355	10.41
264.571	47.27
264.787	96.43
265.004	49.32
265.22	-51.03
265.436	75.95
265.652	43.18
265.868	28.84
266.084	-16.21
266.3	16.55
266.516	16.55
266.732	-8.02
266.948	51.37
267.164	-3.93
267.38	49.32
267.596	90.28
267.812	26.79
268.028	51.37
268.244	-36.69
268.46	-44.88
268.676	-10.07
268.892	51.37
269.108	10.41
269.324	-24.4
269.54	108.71
269.756	67.75
269.972	-38.74
270.188	-48.98
270.403	18.6
270.619	2.22
270.835	-1.88
271.051	49.32
271.267	28.84
271.483	41.13
271.698	57.51
271.914	82.09
272.13	77.99
272.346	30.89
272.562	-10.07
272.777	69.8
272.993	-32.6
273.209	16.55
273.425	39.08
273.64	34.99
273.856	-20.31
274.072	24.75
274.287	57.51
274.503	18.6
274.719	37.03
274.934	69.8
275.15	10.41
275.366	43.18
275.581	24.75
275.797	45.23
276.012	-18.26
276.228	88.23
276.444	8.36
276.659	53.42
276.875	-61.27
277.09	22.7
277.306	53.42
277.521	28.84
277.737	-22.36
277.952	49.32
278.168	65.71
278.383	94.38
278.599	-1.88
278.814	30.89
279.03	-1.88
279.245	6.31
279.461	45.23
279.676	84.14
279.892	47.27
280.107	20.65
280.322	-28.5
280.538	4.27
280.753	-12.12
280.969	61.61
281.184	-12.12
281.399	47.27
281.615	47.27
281.83	96.43
282.045	20.65
282.26	-28.5
282.476	30.89
282.691	63.66
282.906	-36.69
283.122	43.18
283.337	-5.97
283.552	125.1
283.767	-3.93
283.983	18.6
284.198	16.55
284.413	12.46
284.628	32.94
284.843	57.51
285.058	55.47
285.274	10.41
285.489	43.18
285.704	0.17
285.919	-20.31
286.134	45.23
286.349	43.18
286.564	110.76
286.779	32.94
286.995	8.36
287.21	-12.12
287.425	24.75
287.64	57.51
287.855	71.85
288.07	-53.08
288.285	24.75
288.5	-22.36
288.715	12.46
288.93	14.51
289.145	41.13
289.36	100.52
289.575	14.51
289.79	53.42
290.004	-14.17
290.219	39.08
290.434	63.66
290.649	47.27
290.864	26.79
291.079	4.27
291.294	82.09
291.509	43.18
291.724	20.65
291.938	16.55
292.153	12.46
292.368	-1.88
292.583	84.14
292.798	30.89
293.012	-12.12
293.227	28.84
293.442	57.51
293.657	30.89
293.871	55.47
294.086	32.94
294.301	-16.21
294.516	49.32
294.73	-67.41
294.945	-8.02
295.16	47.27
295.374	59.56
295.589	-3.93
295.804	24.75
296.018	2.22
296.233	96.43
296.447	57.51
296.662	53.42
296.877	-16.21
297.091	69.8
297.306	30.89
297.52	71.85
297.735	112.81
297.949	98.47
298.164	57.51
298.378	8.36
298.593	-44.88
298.807	55.47
299.022	28.84
299.236	22.7
299.451	4.27
299.665	106.67
299.88	18.6
300.094	-16.21
300.309	67.75
300.523	47.27
300.737	16.55
300.952	55.47
301.166	116.9
301.381	67.75
301.595	49.32
301.809	55.47
302.024	24.75
302.238	-8.02
302.452	80.04
302.667	26.79
302.881	110.76
303.095	45.23
303.309	32.94
303.524	-81.75
303.738	92.33
303.952	55.47
304.166	51.37
304.381	-46.93
304.595	59.56
304.809	-34.64
305.023	20.65
305.237	8.36
305.452	39.08
305.666	75.95
305.88	12.46
306.094	49.32
306.308	73.9
306.522	39.08
306.736	151.72
306.95	-12.12
307.164	24.75
307.379	67.75
307.593	106.67
307.807	71.85
308.021	51.37
308.235	43.18
308.449	67.75
308.663	-14.17
308.877	69.8
309.091	61.61
309.305	47.27
309.519	-85.84
309.733	32.94
309.947	-32.6
310.161	55.47
310.374	88.23
310.588	65.71
310.802	-12.12
311.016	28.84
311.23	14.51
311.444	34.99
311.658	22.7
311.872	75.95
312.085	80.04
312.299	75.95
312.513	88.23
312.727	-16.21
312.941	-26.45
313.154	88.23
313.368	34.99
313.582	47.27
313.796	-8.02
314.009	59.56
314.223	43.18
314.437	41.13
314.651	65.71
314.864	45.23
315.078	92.33
315.292	59.56
315.505	86.19
315.719	55.47
315.933	61.61
316.146	92.33
316.36	8.36
316.573	84.14
316.787	14.51
317.001	30.89
317.214	2.22
317.428	41.13
317.641	26.79
317.855	16.55
318.068	37.03
318.282	-5.97
318.495	131.24
318.709	108.71
318.922	10.41
319.136	-18.26
319.349	12.46
319.563	22.7
319.776	61.61
319.99	8.36
320.203	43.18
320.417	-34.64
320.63	37.03
320.843	110.76
321.057	-46.93
321.27	-26.45
321.483	80.04
321.697	63.66
321.91	39.08
322.124	84.14
322.337	-16.21
322.55	67.75
322.763	37.03
322.977	37.03
323.19	16.55
323.403	39.08
323.617	-57.17
323.83	-5.97
324.043	47.27
324.256	34.99
324.469	39.08
324.683	37.03
324.896	37.03
325.109	-55.12
325.322	-26.45
325.535	53.42
325.748	51.37
325.962	98.47
326.175	24.75
326.388	65.71
326.601	90.28
326.814	-30.55
327.027	63.66
327.24	123.05
327.453	53.42
327.666	77.99
327.879	69.8
328.092	51.37
328.305	59.56
328.518	0.17
328.731	-12.12
328.944	20.65
329.157	43.18
329.37	45.23
329.583	41.13
329.796	106.67
330.009	4.27
330.222	4.27
330.435	45.23
330.648	57.51
330.861	45.23
331.073	82.09
331.286	67.75
331.499	75.95
331.712	63.66
331.925	-5.97
332.138	-32.6
332.35	34.99
332.563	32.94
332.776	32.94
332.989	0.17
333.202	-10.07
333.414	41.13
333.627	-26.45
333.84	108.71
334.053	-1.88
334.265	0.17
334.478	8.36
334.691	86.19
334.903	57.51
335.116	8.36
335.329	22.7
335.541	32.94
335.754	59.56
335.966	90.28
336.179	73.9
336.392	32.94
336.604	26.79
336.817	30.89
337.029	106.67
337.242	55.47
337.454	26.79
337.667	24.75
337.88	61.61
338.092	65.71
338.305	43.18
338.517	-36.69
338.729	100.52
338.942	73.9
339.154	-20.31
339.367	34.99
339.579	51.37
339.792	-24.4
340.004	37.03
340.217	118.95
340.429	100.52
340.641	-63.32
340.854	4.27
341.066	47.27
341.278	51.37
341.491	133.29
341.703	106.67
341.915	10.41
342.128	20.65
342.34	59.56
342.552	-16.21
342.764	69.8
342.977	49.32
343.189	-1.88
343.401	88.23
343.613	16.55
343.826	10.41
344.038	-18.26
344.25	65.71
344.462	-12.12
344.674	39.08
344.886	-32.6
345.099	98.47
345.311	59.56
345.523	28.84
345.735	45.23
345.947	43.18
346.159	39.08
346.371	51.37
346.583	37.03
346.795	139.43
347.007	34.99
347.219	41.13
347.431	125.1
347.643	94.38
347.855	24.75
348.067	84.14
348.279	32.94
348.491	43.18
348.703	22.7
348.915	51.37
349.127	37.03
349.339	92.33
349.551	-8.02
349.763	45.23
349.975	73.9
350.187	65.71
350.399	16.55
350.61	59.56
350.822	26.79
351.034	98.47
351.246	-10.07
351.458	106.67
351.669	77.99
351.881	110.76
352.093	55.47
352.305	164.01
352.517	77.99
352.728	8.36
352.94	59.56
353.152	98.47
353.363	10.41
353.575	59.56
353.787	51.37
353.999	94.38
354.21	145.58
354.422	37.03
354.633	-8.02
354.845	4.27
355.057	75.95
355.268	65.71
355.48	67.75
355.692	47.27
355.903	84.14
356.115	123.05
356.326	24.75
356.538	106.67
356.749	51.37
356.961	106.67
357.172	-10.07
357.384	86.19
357.595	67.75
357.807	43.18
358.018	-5.97
358.23	39.08
358.441	137.38
358.653	82.09
358.864	30.89
359.075	75.95
359.287	-8.02
359.498	80.04
359.709	77.99
359.921	-16.21
360.132	65.71
360.344	22.7
360.555	47.27
360.766	8.36
360.977	80.04
361.189	37.03
361.4	100.52
361.611	100.52
361.823	84.14
362.034	59.56
362.245	39.08
362.456	75.95
362.667	10.41
362.879	80.04
363.09	88.23
363.301	37.03
363.512	18.6
363.723	39.08
363.935	20.65
364.146	94.38
364.357	63.66
364.568	123.05
364.779	34.99
364.99	55.47
365.201	22.7
365.412	59.56
365.623	18.6
365.834	90.28
366.045	45.23
366.256	32.94
366.467	125.1
366.678	8.36
366.889	57.51
367.1	14.51
367.311	67.75
367.522	26.79
367.733	-42.84
367.944	59.56
368.155	12.46
368.366	51.37
368.577	63.66
368.788	61.61
368.999	12.46
369.209	39.08
369.42	135.34
369.631	61.61
369.842	63.66
370.053	22.7
370.264	61.61
370.474	37.03
370.685	39.08
370.896	39.08
371.107	127.14
371.317	47.27
371.528	82.09
371.739	59.56
371.95	86.19
372.16	71.85
372.371	14.51
372.582	51.37
372.792	90.28
373.003	133.29
373.214	49.32
373.424	26.79
373.635	18.6
373.846	106.67
374.056	37.03
374.267	8.36
374.477	20.65
374.688	47.27
374.898	43.18
375.109	51.37
375.319	65.71
375.53	100.52
375.74	61.61
375.951	43.18
376.161	8.36
376.372	73.9
376.582	114.86
376.793	59.56
377.003	32.94
377.214	30.89
377.424	47.27
377.635	61.61
377.845	63.66
378.055	108.71
378.266	82.09
378.476	34.99
378.686	94.38
378.897	121
379.107	125.1
379.317	92.33
379.528	82.09
379.738	39.08
379.948	20.65
380.158	63.66
380.369	12.46
380.579	49.32
380.789	69.8
380.999	65.71
381.21	129.19
381.42	164.01
381.63	-40.79
381.84	86.19
382.05	67.75
382.261	100.52
382.471	77.99
382.681	6.31
382.891	22.7
383.101	16.55
383.311	-36.69
383.521	59.56
383.731	71.85
383.941	43.18
384.151	125.1
384.361	20.65
384.571	94.38
384.781	49.32
384.991	125.1
385.201	155.82
385.411	100.52
385.621	53.42
385.831	12.46
386.041	80.04
386.251	59.56
386.461	8.36
386.671	84.14
386.881	84.14
387.091	43.18
387.301	106.67
387.511	34.99
387.72	30.89
387.93	28.84
388.14	-3.93
388.35	18.6
388.56	104.62
388.769	63.66
388.979	98.47
389.189	2.22
389.399	47.27
389.609	51.37
389.818	32.94
390.028	51.37
390.238	88.23
390.447	14.51
390.657	20.65
390.867	118.95
391.076	41.13
391.286	53.42
391.496	106.67
391.705	45.23
391.915	125.1
392.125	116.9
392.334	65.71
392.544	82.09
392.753	75.95
392.963	63.66
393.172	110.76
393.382	20.65
393.591	155.82
393.801	51.37
394.01	104.62
394.22	34.99
394.429	73.9
394.639	57.51
394.848	125.1
395.058	118.95
395.267	41.13
395.477	77.99
395.686	47.27
395.895	127.14
396.105	170.15
396.314	159.91
396.524	92.33
396.733	30.89
396.942	112.81
397.152	104.62
397.361	149.67
397.57	82.09
397.78	98.47
397.989	145.58
398.198	180.39
398.407	71.85
398.617	73.9
398.826	88.23
399.035	65.71
399.244	80.04
399.453	168.1
399.663	149.67
399.872	106.67
400.081	129.19
400.29	133.29
400.499	139.43
400.708	106.67
400.917	88.23
401.127	155.82
401.336	129.19
401.545	223.4
401.754	182.44
401.963	164.01
402.172	112.81
402.381	182.44
402.59	131.24
402.799	90.28
403.008	247.97
403.217	221.35
403.426	84.14
403.635	127.14
403.844	168.1
404.053	137.38
404.262	125.1
404.471	260.26
404.68	164.01
404.888	170.15
405.097	233.64
405.306	141.48
405.515	178.34
405.724	215.21
405.933	194.73
406.142	153.77
406.35	231.59
406.559	223.4
406.768	168.1
406.977	338.09
407.185	256.17
407.394	311.46
407.603	227.5
407.812	252.07
408.02	313.51
408.229	354.47
408.438	321.7
408.646	258.21
408.855	264.36
409.064	362.66
409.272	268.45
409.481	401.57
409.69	342.18
409.898	348.33
410.107	432.29
410.315	381.09
410.524	456.87
410.733	432.29
410.941	362.66
411.15	538.79
411.358	514.21
411.567	481.44
411.775	497.83
411.984	497.83
412.192	546.98
412.401	516.26
412.609	540.83
412.818	569.51
413.026	643.23
413.234	583.84
413.443	632.99
413.651	620.71
413.86	809.12
414.068	809.12
414.276	821.41
414.485	776.35
414.693	768.16
414.901	821.41
415.11	932
415.318	919.71
415.526	934.04
415.734	995.48
415.943	999.58
416.151	1034.39
416.359	1024.16
416.567	1067.16
416.776	1212.57
416.984	1239.19
417.192	1214.62
417.4	1327.25
417.608	1251.48
417.817	1255.58
418.025	1321.11
418.233	1433.75
418.441	1464.47
418.649	1446.04
418.857	1603.73
419.065	1702.03
419.273	1724.56
419.481	1794.19
419.689	1867.92
419.897	1849.49
420.105	1933.45
420.313	1964.17
420.521	2082.95
420.729	2199.69
420.937	2136.2
421.145	2211.98
421.353	2297.99
421.561	2504.84
421.769	2416.77
421.977	2629.76
422.185	2627.71
422.393	2760.83
422.601	2887.81
422.809	2836.61
423.017	2973.82
423.224	3076.22
423.432	3117.18
423.64	3145.85
423.848	3442.81
424.056	3334.26
424.263	3582.07
424.471	3586.16
424.679	3829.87
424.887	3768.43
425.094	4028.53
425.302	4114.54
425.51	4055.15
425.718	4221.03
425.925	4391.02
426.133	4591.72
426.341	4724.83
426.548	5007.45
426.756	4989.02
426.964	5242.97
427.171	5398.62
427.379	5537.88
427.586	5630.04
427.794	5701.72
428.001	6123.6
428.209	6176.84
428.417	6193.23
428.624	6619.21
428.832	6598.73
429.039	6670.4
429.247	6596.68
429.454	7241.79
429.662	7499.83
429.869	7125.05
430.076	7778.36
430.284	7544.89
430.491	7917.62
430.699	8425.51
430.906	8484.91
431.114	8529.96
431.321	8933.41
431.528	9003.04
431.736	9611.29
431.943	9865.24
432.15	9633.82
432.358	9711.64
432.565	10283.02
432.772	10178.58
432.979	10723.34
433.187	10915.84
433.394	10891.27
433.601	11775.99
433.808	11694.07
434.016	11563
434.223	12238.83
434.43	12845.03
434.637	12787.69
434.844	13344.74
435.052	13576.16
435.259	13639.64
435.466	13879.25
435.673	13811.67
435.88	14553.04
436.087	15304.64
436.294	15200.19
436.501	15040.45
436.708	15318.98
436.915	15775.67
437.122	16431.02
437.329	16465.84
437.537	16861.1
437.743	17092.52
437.95	17178.53
438.157	18026.39
438.364	18665.36
438.571	18712.46
438.778	18653.07
438.985	20496.24
439.192	19644.29
439.399	20359.03
439.606	19857.28
439.813	21186.41
440.02	22255.45
440.227	22001.5
440.433	21704.54
440.64	22404.95
440.847	22048.6
441.054	22656.85
441.261	24131.39
441.467	23629.63
441.674	24504.12
441.881	25388.84
442.088	25300.78
442.294	24813.36
442.501	25755.43
442.708	26365.72
442.914	27313.93
443.121	28112.64
443.328	27729.67
443.534	29650.66
443.741	28659.45
443.948	28346.11
444.154	30547.67
444.361	30097.12
444.568	30547.67
444.774	30539.48
444.981	30725.85
445.187	31874.76
445.394	32612.03
445.6	32923.32
445.807	35653.26
446.013	34109.09
446.22	35094.16
446.426	36423.29
446.633	36206.21
446.839	37838.44
447.046	36224.64
447.252	38112.87
447.459	38288.99
447.665	38219.36
447.871	39923.27
448.078	41492.02
448.284	39308.88
448.491	40236.61
448.697	42116.65
448.903	42364.45
449.11	42657.31
449.316	42405.41
449.522	42780.19
449.728	44406.28
449.935	44779.01
450.141	44740.1
450.347	45387.25
450.553	43789.84
450.76	44740.1
450.966	46071.28
451.172	45538.8
451.378	46575.08
451.584	45868.53
451.791	47039.96
451.997	47035.87
452.203	47177.18
452.409	47316.44
452.615	47377.88
452.821	45678.07
453.027	44797.44
453.233	47144.41
453.44	45886.96
453.646	46030.32
453.852	46464.49
454.058	47386.07
454.264	45520.37
454.47	46769.63
454.676	45164.03
454.882	47162.84
455.088	42860.06
455.294	43695.63
455.5	44469.76
455.705	44879.36
455.911	42636.83
456.117	42241.57
456.323	41862.7
456.529	39454.29
456.735	40853.05
456.941	40185.41
457.147	39476.82
457.352	38379.11
457.558	37895.78
457.764	38084.2
457.97	37318.26
458.176	36406.91
458.381	36527.74
458.587	34449.05
458.793	34528.92
458.999	32861.88
459.204	35149.46
459.41	34231.97
459.616	31944.39
459.821	31633.1
460.027	31837.89
460.233	31184.59
460.438	29961.95
460.644	30273.24
460.85	28690.16
461.055	28108.54
461.261	28104.45
461.466	26148.64
461.672	25419.56
461.878	27178.76
462.083	25532.2
462.289	24631.09
462.494	24837.94
462.7	23328.58
462.905	22802.25
463.111	23586.63
463.316	23744.32
463.522	23347.01
463.727	23385.93
463.932	23201.61
464.138	23086.92
464.343	23207.75
464.549	22527.83
464.754	23392.07
464.959	22826.83
465.165	22785.87
465.37	22073.18
465.575	21213.03
465.781	22093.66
465.986	22531.92
466.191	21585.76
466.397	20991.85
466.602	20127.61
466.807	21063.53
467.012	21026.67
467.218	20594.54
467.423	20418.42
467.628	20588.4
467.833	21497.7
468.038	20641.65
468.244	20148.09
468.449	20928.36
468.654	20193.14
468.859	20184.95
469.064	20051.83
469.269	19371.91
469.474	19267.46
469.679	19767.17
469.885	19328.9
470.09	19482.5
470.295	19476.35
470.5	18921.35
470.705	18886.54
470.91	18628.49
471.115	18634.64
471.32	18708.37
471.525	18528.14
471.73	18229.14
471.935	18042.78
472.139	17547.17
472.344	17665.95
472.549	17414.05
472.754	17309.6
472.959	16840.62
473.164	16390.06
473.369	16631.72
473.574	17022.89
473.778	16969.64
473.983	16447.41
474.188	16578.48
474.393	15925.18
474.598	16058.29
474.802	15437.76
475.007	15712.19
475.212	15683.52
475.417	15237.06
475.621	15151.04
475.826	15149
476.031	14860.23
476.235	14514.13
476.44	14940.1
476.645	14290.9
476.849	14833.61
477.054	14378.96
477.259	13938.65
477.463	13995.99
477.668	13627.35
477.872	13780.95
478.077	13701.08
478.282	13520.86
478.486	13414.37
478.691	13103.07
478.895	13217.76
479.1	13021.16
479.304	12949.48
479.509	12586.99
479.713	13244.38
479.918	12670.95
480.122	12554.22
480.326	12660.71
480.531	12726.25
480.735	12455.92
480.94	12218.35
481.144	13064.16
481.348	12279.79
481.553	12339.18
481.757	12054.51
481.961	12097.52
482.166	12322.8
482.37	12333.04
482.574	12204.02
482.778	12308.46
482.983	12421.1
483.187	12163.06
483.391	12351.47
483.595	12240.88
483.8	12152.82
484.004	12263.41
484.208	12273.65
484.412	12242.93
484.616	12058.61
484.821	12091.38
485.025	11943.92
485.229	12093.43
485.433	11775.99
485.637	12097.52
485.841	12036.08
486.045	12244.98
486.249	12302.32
486.453	11972.6
486.657	12261.36
486.861	12238.83
487.065	11784.18
487.269	11991.03
487.473	11970.55
487.677	12107.76
487.881	12214.26
488.085	12163.06
488.289	12077.04
488.493	12107.76
488.697	12347.37
488.901	12103.67
489.105	12199.92
489.309	12216.3
489.512	12304.37
489.716	12431.34
489.92	12283.89
490.124	12316.65
490.328	12560.36
490.531	12218.35
490.735	12490.73
490.939	12546.03
491.143	12447.72
491.346	12546.03
491.55	12591.08
491.754	12558.32
491.958	12771.3
492.161	12482.54
492.365	12816.36
492.569	12785.64
492.772	12804.07
492.976	12797.93
493.18	12734.44
493.383	13107.17
493.587	13086.69
493.79	13377.5
493.994	13174.75
494.197	13205.47
494.401	13357.02
494.605	13176.8
494.808	13529.05
495.012	13754.33
495.215	13600.73
495.419	13645.79
495.622	13993.94
495.825	14022.61
496.029	13993.94
496.232	14405.58
496.436	14309.33
496.639	14557.13
496.843	14532.56
497.046	14825.42
497.249	14794.7
497.453	14811.08
497.656	15200.19
497.859	15099.84
498.063	15241.15
498.266	15677.37
498.469	15536.06
498.673	15888.31
498.876	16170.93
499.079	16023.48
499.282	16351.15
499.485	16525.23
499.689	16596.91
499.892	17090.47
500.095	16897.96
500.298	17270.69
500.501	17026.98
500.705	17715.1
500.908	17942.42
501.111	18130.84
501.314	18061.21
501.517	18147.22
501.72	18630.54
501.923	18571.15
502.126	18943.88
502.329	19236.74
502.532	19367.81
502.735	19259.27
502.938	19812.22
503.141	19804.03
503.344	20045.69
503.547	20187
503.75	20432.75
503.953	20975.47
504.156	21069.67
504.359	21149.54
504.562	21096.3
504.765	21688.16
504.968	21694.3
505.17	22146.9
505.373	22017.88
505.576	22331.22
505.779	22777.68
505.982	22800.21
506.185	23316.29
506.387	23340.87
506.59	23633.73
506.793	24012.6
506.996	24008.51
507.198	24575.8
507.401	24475.45
507.604	24727.35
507.807	25165.61
508.009	25200.43
508.212	25431.85
508.415	25605.92
508.617	26011.42
508.82	26365.72
509.022	25970.46
509.225	26775.31
509.428	26980.11
509.63	27092.75
509.833	27322.12
510.035	27975.42
510.238	27889.41
510.44	28229.37
510.643	28626.68
510.845	28892.91
511.048	28661.49
511.25	29122.29
511.453	29370.09
511.655	30213.85
511.858	30090.98
512.06	30443.23
512.262	30312.16
512.465	30719.7
512.667	30863.06
512.87	31270.61
513.072	31379.15
513.274	31938.24
513.477	32480.96
513.679	32452.28
513.881	33001.14
514.084	32915.12
514.286	32999.09
514.488	33328.81
514.69	34025.12
514.893	34227.87
515.095	34231.97
515.297	34743.96
515.499	34829.98
515.701	35358.35
515.904	35485.33
516.106	35667.59
516.308	35948.17
516.51	36658.81
516.712	36656.76
516.914	36630.14
517.116	37461.62
517.318	37414.51
517.52	37733.99
517.722	38039.14
517.925	38194.79
518.127	38461.02
518.329	38766.17
518.531	38774.36
518.733	39550.54
518.935	39790.16
519.136	39534.16
519.338	40533.57
519.54	40683.07
519.742	40885.82
519.944	40869.44
520.146	41504.31
520.348	41674.29
520.55	42059.3
520.752	42225.19
520.954	42987.03
521.155	42671.65
521.357	43161.11
521.559	43525.65
521.761	43867.66
521.963	43644.43
522.164	43814.41
522.366	44516.87
522.568	44269.06
522.77	44776.96
522.971	45315.58
523.173	45270.52
523.375	45331.96
523.576	45714.93
523.778	45782.51
523.98	46333.42
524.181	46560.74
524.383	46437.86
524.584	47300.06
524.786	46745.06
524.988	47099.36
525.189	47465.94
525.391	47705.55
525.592	47850.96
525.794	48004.56
525.995	47986.13
526.197	48066
526.398	48432.58
526.6	48647.62
526.801	48956.86
527.003	49153.47
527.204	49044.93
527.406	49626.55
527.607	49667.51
527.808	49761.72
528.01	49223.1
528.211	49245.63
528.412	50527.66
528.614	49860.02
528.815	49630.65
529.016	50249.13
529.218	50056.62
529.419	49857.97
529.62	50515.37
529.822	50472.36
530.023	50474.41
530.224	50245.04
530.425	50263.47
530.626	49956.27
530.828	50089.39
531.029	51441.05
531.23	50628.01
531.431	50560.42
531.632	50783.65
531.833	51201.44
532.035	50924.96
532.236	51117.47
532.437	50929.06
532.638	51127.71
532.839	51289.5
533.04	51355.04
533.241	50275.76
533.442	52004.24
533.643	51391.9
533.844	51561.88
534.045	51678.61
534.246	51113.37
534.447	51615.13
534.648	51406.23
534.849	51563.93
535.05	50953.63
535.251	51264.92
535.451	51318.17
535.652	51549.59
535.853	51461.53
536.054	51484.06
536.255	51580.31
536.456	51240.35
536.657	51619.22
536.857	51264.92
537.058	51266.97
537.259	51365.27
537.46	51348.89
537.66	51385.75
537.861	51338.65
538.062	51158.43
538.263	51635.61
538.463	51207.58
538.664	51565.98
538.865	51621.27
539.065	51527.06
539.266	50865.57
539.466	52000.15
539.667	51240.35
539.868	51821.97
540.068	51099.04
540.269	51203.49
540.469	51340.7
540.67	51174.81
540.87	51115.42
541.071	51320.22
541.271	51695
541.472	51219.87
541.672	51230.11
541.873	51008.93
542.073	50906.53
542.274	51606.94
542.474	50861.47
542.675	50865.57
542.875	51283.36
543.075	51107.23
543.276	50210.22
543.476	51430.81
543.676	50988.45
543.877	51015.07
544.077	51439
544.277	51316.12
544.478	50662.82
544.678	51381.66
544.878	50638.25
545.078	51303.84
545.279	50605.48
545.479	50286
545.679	50593.19
545.879	50783.65
546.079	50566.57
546.28	50812.32
546.48	50505.13
546.68	50795.94
546.88	50687.4
547.08	50701.73
547.28	50640.29
547.48	50349.48
547.68	50812.32
547.88	50345.39
548.081	50912.67
548.281	50871.71
548.481	50568.62
548.681	51084.7
548.881	50474.41
549.081	50961.83
549.28	50453.93
549.48	50988.45
549.68	50623.91
549.88	50744.74
550.08	50386.35
550.28	50363.82
550.48	50187.69
550.68	50884
550.88	50263.47
551.08	50521.51
551.279	50492.84
551.479	49728.95
551.679	50341.29
551.879	50109.87
552.079	50748.84
552.278	50288.04
552.478	50148.78
552.678	50021.81
552.878	50556.33
553.077	50077.1
553.277	49642.93
553.477	50388.39
553.676	50179.5
553.876	49671.6
554.076	49653.17
554.275	50060.72
554.475	49266.11
554.674	50154.93
554.874	49814.96
555.074	49804.72
555.273	49724.85
555.473	50159.02
555.672	49601.97
555.872	50075.05
556.071	49870.26
556.271	50081.2
556.47	49561.01
556.67	49284.54
556.869	49712.56
557.068	49802.67
557.268	49280.44
557.467	49509.82
557.667	49479.1
557.866	49583.54
558.065	49364.41
558.265	49165.76
558.464	49157.56
558.663	49860.02
558.863	48561.61
559.062	49690.04
559.261	48995.78
559.461	49345.98
559.66	48289.23
559.859	48999.87
560.058	48211.4
560.258	48735.68
560.457	48397.77
560.656	48721.35
560.855	48618.95
561.054	48973.25
561.253	48205.26
561.453	48203.21
561.652	48627.14
561.851	48694.72
562.05	48041.42
562.249	47824.34
562.448	48760.26
562.647	48291.27
562.846	48375.24
563.045	47984.08
563.244	47766.99
563.443	48422.34
563.642	47554.01
563.841	48012.75
564.04	47523.29
564.239	47992.27
564.438	47255
564.637	47676.88
564.836	47570.39
565.035	47232.47
565.234	47347.16
565.432	46728.67
565.631	46999.01
565.83	46747.11
566.029	46923.23
566.228	47117.79
566.427	46906.85
566.625	46814.69
566.824	46509.54
567.023	46730.72
567.222	46214.63
567.42	46777.82
567.619	46233.07
567.818	46122.47
568.016	46437.86
568.215	46480.87
568.414	46145
568.612	46278.12
568.811	45878.77
569.01	45942.25
569.208	45297.14
569.407	45610.48
569.605	45247.99
569.804	45927.92
570.002	44987.9
570.201	45833.71
570.4	44942.84
570.598	44895.74
570.797	45045.24
570.995	44979.71
571.193	44457.48
571.392	44971.52
571.59	44662.27
571.789	45100.54
571.987	44793.34
572.186	44465.67
572.384	44070.41
572.582	44404.23
572.781	44539.4
572.979	43998.73
573.177	44154.38
573.376	44559.87
573.574	43795.98
573.772	44158.47
573.971	43503.12
574.169	43693.58
574.367	43265.56
574.565	44090.89
574.763	43122.2
574.962	43539.99
575.16	43179.54
575.358	43277.85
575.556	42835.49
575.754	43351.57
575.952	42878.49
576.151	43277.85
576.349	43064.86
576.547	42714.65
576.745	42475.04
576.943	42935.84
577.141	42522.15
577.339	42559.01
577.537	41932.33
577.735	42032.68
577.933	41963.05
578.131	42128.94
578.329	41758.25
578.527	41631.28
578.725	41842.22
578.923	42008.11
579.121	41725.49
579.319	41594.42
579.516	41686.57
579.714	41256.5
579.912	41041.46
580.11	41233.97
580.308	41004.6
580.506	40525.38
580.704	40123.97
580.901	41125.43
581.099	40818.24
581.297	40396.35
581.495	39984.71
581.692	40488.51
581.89	39822.92
582.088	40631.87
582.285	40029.77
582.483	40390.21
582.681	40197.7
582.878	40166.98
583.076	39568.97
583.274	39976.52
583.471	39417.43
583.669	39636.56
583.866	39284.31
584.064	39392.85
584.262	38925.91
584.459	39308.88
584.657	39089.75
584.854	39044.69
585.052	38215.27
585.249	38915.67
585.447	38772.32
585.644	38309.47
585.841	38260.32
586.039	38501.98
586.236	38211.17
586.434	38016.61
586.631	37715.56
586.828	38047.33
587.026	37946.98
587.223	37858.92
587.42	37578.35
587.618	37992.04
587.815	37308.02
588.012	37176.95
588.21	37019.25
588.407	37756.52
588.604	36863.61
588.801	37009.01
588.999	36597.37
589.196	36982.39
589.393	37013.11
589.59	36466.3
589.787	36312.7
589.984	36646.52
590.182	36406.91
590.379	36458.11
590.576	35835.53
590.773	35886.73
590.97	35655.31
591.167	36097.67
591.364	35489.42
591.561	35692.17
591.758	35167.89
591.955	35147.41
592.152	35544.72
592.349	35073.68
592.546	35303.06
592.743	34961.05
592.94	34612.89
593.137	34983.57
593.334	35014.29
593.531	34784.92
593.727	34553.5
593.924	34602.65
594.121	34231.97
594.318	34688.67
594.515	34301.6
594.712	34283.17
594.908	34053.8
595.105	33947.3
595.302	33482.41
595.499	33468.08
595.696	33345.2
595.892	33488.56
596.089	33420.97
596.286	33549.99
596.482	33265.33
596.679	32908.98
596.876	33345.2
597.072	33029.81
597.269	33007.28
597.466	32593.59
597.662	32530.11
597.859	32767.67
598.055	32796.34
598.252	32376.51
598.448	32298.69
598.645	32161.47
598.841	32026.31
599.038	32192.19
599.234	32038.59
599.431	31729.35
599.627	31930.05
599.824	31975.11
600.02	31610.57
600.217	31729.35
600.413	31735.49
600.609	31330
600.806	31463.11
601.002	31418.06
601.198	31065.81
601.395	31135.44
601.591	30740.18
601.787	30678.74
601.984	30801.62
602.18	30660.31
602.376	30670.55
602.572	30277.34
602.769	30113.5
602.965	30306.01
603.161	30254.81
603.357	29925.09
603.553	30252.77
603.75	30009.06
603.946	30125.79
604.142	30041.82
604.338	29552.36
604.534	29777.64
604.73	29384.43
604.926	29363.95
605.122	29724.39
605.318	29177.58
605.514	28915.44
605.71	28948.21
605.906	29142.77
606.102	28901.11
606.298	29107.95
606.494	29116.14
606.69	28876.53
606.886	28987.12
607.082	28450.55
607.278	28460.79
607.474	28280.57
607.67	28645.11
607.866	27817.73
608.062	28466.94
608.257	28575.48
608.453	28256
608.649	28376.83
608.845	27909.89
609.041	27873.03
609.236	28212.99
609.432	27981.57
609.628	27967.23
609.824	27662.08
610.019	27787.01
610.215	27797.25
610.411	27725.57
610.606	27385.61
610.802	27633.41
610.998	27414.28
611.193	27318.03
611.389	27358.99
611.584	27426.57
611.78	27195.15
611.976	27270.92
612.171	27379.46
612.367	26812.18
612.562	27092.75
612.758	26730.26
612.953	26570.52
613.149	27172.62
613.344	26879.76
613.539	27207.44
613.735	27090.7
613.93	26775.31
614.126	26705.68
614.321	26846.99
614.517	26820.37
614.712	26699.54
614.907	26373.91
615.103	26591
615.298	26236.7
615.493	26564.37
615.688	26062.62
615.884	26646.29
616.079	26064.67
616.274	26361.62
616.47	26005.28
616.665	26193.69
616.86	26122.01
617.055	26113.82
617.25	26005.28
617.445	26021.66
617.641	25302.82
617.836	25804.58
618.031	25487.14
618.226	25700.13
618.421	25411.37
618.616	25884.45
618.811	25024.3
619.006	25722.66
619.201	25138.99
619.396	25331.5
619.591	24844.08
619.786	24780.59
619.981	24284.98
620.176	24889.13
620.371	24405.81
620.566	24606.52
620.761	24092.48
620.956	24160.06
621.151	24028.99
621.346	24180.54
621.541	23766.85
621.735	23916.35
621.93	23510.85
622.125	23744.32
622.32	23449.41
622.515	23297.86
622.709	23228.23
622.904	22884.17
623.099	23150.41
623.294	22845.26
623.488	22583.12
623.683	23222.09
623.878	22366.04
624.072	22822.73
624.267	22495.06
624.462	22259.54
624.656	21999.45
624.851	21905.24
625.046	21880.67
625.24	21710.69
625.435	21569.38
625.629	21380.96
625.824	21116.78
626.018	21145.45
626.213	20838.25
626.407	21358.44
626.602	20572.02
626.796	20950.89
626.991	21012.33
627.185	20655.98
627.38	20819.82
627.574	20313.97
627.768	20252.53
627.963	19996.54
628.157	20156.28
628.352	20393.84
628.546	19767.17
628.74	20238.2
628.935	19224.45
629.129	19648.38
629.323	19457.92
629.517	19244.93
629.712	19304.32
629.906	19363.72
630.1	19103.62
630.294	19070.86
630.489	18608.01
630.683	19072.9
630.877	18835.34
631.071	18509.71
631.265	18698.13
631.459	18528.14
631.653	18390.93
631.848	18225.04
632.042	17995.67
632.236	18118.55
632.43	18071.45
632.624	17979.29
632.818	18055.06
633.012	17672.09
633.206	17719.2
633.4	17506.21
633.594	17156
633.788	17350.56
633.982	17409.95
634.176	17422.24
634.369	17231.78
634.563	17199.01
634.757	16986.02
634.951	16748.46
635.145	16705.45
635.339	16787.37
635.533	16527.28
635.726	16457.65
635.92	16469.94
636.114	16523.18
636.308	15968.18
636.501	16283.57
636.695	16330.67
636.889	15962.04
637.083	15865.78
637.276	15558.59
637.47	15761.34
637.664	15785.91
637.857	15460.29
638.051	15732.67
638.244	15370.18
638.438	15372.22
638.632	15124.42
638.825	14903.24
639.019	15198.15
639.212	15054.79
639.406	14880.71
639.599	14747.59
639.793	14733.26
639.986	14880.71
640.18	14856.14
640.373	14536.65
640.567	14782.41
640.76	14413.77
640.954	14450.64
641.147	14256.08
641.34	14247.89
641.534	14182.35
641.727	14262.23
641.92	14239.7
642.114	14161.87
642.307	13928.41
642.5	13934.55
642.694	13404.13
642.887	13625.31
643.08	13484
643.273	13551.58
643.467	13318.11
643.66	13420.51
643.853	13248.48
644.046	12974.05
644.239	13262.82
644.432	13064.16
644.626	12763.11
644.819	13135.84
645.012	12906.47
645.205	12888.04
645.398	12931.05
645.591	12593.13
645.784	12640.23
645.977	12464.11
646.17	12562.41
646.363	12347.37
646.556	12392.43
646.749	12324.85
646.942	12374
647.135	12146.67
647.328	12122.1
647.521	12201.97
647.714	12068.85
647.907	12025.84
648.099	11689.98
648.292	11964.4
648.485	11790.33
648.678	11751.42
648.871	11421.69
649.064	11599.87
649.256	11737.08
649.449	11421.69
649.642	11352.06
649.835	11188.22
650.027	11294.72
650.22	11356.16
650.413	11001.86
650.605	11239.42
650.798	11151.36
650.991	11014.15
651.183	10801.16
651.376	10938.37
651.568	10960.9
651.761	10874.88
651.954	10815.49
652.146	10838.02
652.339	10745.86
652.531	10596.36
652.724	10496.01
652.916	10422.28
653.109	10401.8
653.301	10197.01
653.494	10350.6
653.686	10070.03
653.879	10268.69
654.071	10002.45
654.263	10022.93
654.456	10149.9
654.648	9994.26
654.84	9906.2
655.033	10063.89
655.225	9662.49
655.417	9740.31
655.61	9773.08
655.802	9670.68
655.994	9603.1
656.186	9525.27
656.379	9525.27
656.571	9549.85
656.763	9486.36
656.955	9429.02
657.148	9281.57
657.34	9314.33
657.532	9162.78
657.724	9177.12
657.916	9148.45
658.108	8927.27
658.3	8906.79
658.492	8972.32
658.684	8994.85
658.876	8847.4
659.068	8802.34
659.26	8751.14
659.452	8947.75
659.644	8765.48
659.836	8663.08
660.028	8583.21
660.22	8679.46
660.412	8474.67
660.604	8538.15
660.796	8556.58
660.988	8495.15
661.18	8351.79
661.372	8359.98
661.563	8366.12
661.755	8294.44
661.947	8233.01
662.139	8171.57
662.331	8151.09
662.522	8099.89
662.714	8024.11
662.906	8040.5
663.097	7890.99
663.289	7911.47
663.481	7817.27
663.673	7591.99
663.864	7712.82
664.056	7616.57
664.247	7850.03
664.439	7721.01
664.631	7714.87
664.822	7653.43
665.014	7522.36
665.205	7524.41
665.397	7485.5
665.588	7491.64
665.78	7395.39
665.971	7315.52
666.163	7329.85
666.354	7583.8
666.546	7153.73
666.737	7243.84
666.929	7305.28
667.12	7172.16
667.311	7067.71
667.503	7182.4
667.694	7028.8
667.885	7006.27
668.077	6983.74
668.268	6766.66
668.459	6953.02
668.651	6926.4
668.842	6821.95
669.033	6854.72
669.224	6619.21
669.416	6862.91
669.607	6570.05
669.798	6836.29
669.989	6848.58
670.18	6828.1
670.371	6832.19
670.563	6793.28
670.754	6666.31
670.945	6432.84
671.136	6582.34
671.327	6481.99
671.518	6547.53
671.709	6520.9
671.9	6588.49
672.091	6459.46
672.282	6408.26
672.473	6119.5
672.664	6371.4
672.855	6348.87
673.046	6441.03
673.237	6305.87
673.428	6410.31
673.619	6301.77
673.809	6234.19
674	6291.53
674.191	6099.02
674.382	6266.96
674.573	6094.93
674.764	6101.07
674.954	6142.03
675.145	5879.89
675.336	6086.73
675.527	5996.62
675.717	6060.11
675.908	5904.46
676.099	5951.57
676.289	6000.72
676.48	5935.18
676.671	5785.68
676.861	5718.1
677.052	5845.07
677.243	5673.04
677.433	5742.68
677.624	5797.97
677.814	5744.72
678.005	5728.34
678.195	5611.61
678.386	5838.93
678.576	5584.98
678.767	5562.45
678.957	5689.43
679.148	5699.67
679.338	5589.08
679.529	5599.32
679.719	5554.26
679.909	5486.68
680.1	5527.64
680.29	5738.58
680.481	5554.26
680.671	5511.25
680.861	5464.15
681.052	5474.39
681.242	5427.29
681.432	5431.38
681.622	5394.52
681.813	5423.19
682.003	5437.53
682.193	5404.76
682.383	5298.27
682.573	5482.58
682.764	5224.54
682.954	5361.75
683.144	5326.94
683.334	5245.02
683.524	5406.81
683.714	5212.25
683.904	5136.48
684.094	5216.35
684.284	5275.74
684.474	5257.31
684.664	5163.1
684.854	5253.21
685.044	5101.66
685.234	5165.15
685.424	5126.24
685.614	5046.37
685.804	5072.99
685.994	5101.66
686.184	4954.21
686.374	5060.7
686.564	4978.78
686.753	4984.93
686.943	5011.55
687.133	4976.73
687.323	4903.01
687.513	4974.69
687.702	4948.06
687.892	4794.47
688.082	4931.68
688.272	4819.04
688.461	4794.47
688.651	4839.52
688.841	4579.43
689.03	4706.4
689.22	4532.33
689.41	4696.16
689.599	4630.63
689.789	4759.65
689.979	4687.97
690.168	4671.59
690.358	4419.69
690.547	4362.34
690.737	4546.66
690.926	4425.83
691.116	4563.05
691.305	4601.96
691.495	4503.65
691.684	4321.38
691.874	4526.18
692.063	4376.68
692.252	4456.55
692.442	4427.88
692.631	4249.71
692.82	4261.99
693.01	4345.96
693.199	4309.1
693.388	4221.03
693.578	4081.77
693.767	4126.83
693.956	4196.46
694.146	4102.25
694.335	4147.31
694.524	3977.33
694.713	4186.22
694.902	4030.57
695.092	4024.43
695.281	3985.52
695.47	4079.72
695.659	3973.23
695.848	3975.28
696.037	3969.13
696.226	4128.88
696.415	3899.5
696.604	3928.17
696.793	3836.02
696.982	3864.69
697.171	4046.96
697.36	3846.26
697.549	3817.58
697.738	3870.83
697.927	3809.39
698.116	3903.6
698.305	3829.87
698.494	3879.02
698.683	3713.14
698.872	3827.82
699.061	3774.58
699.25	3729.52
699.438	3719.28
699.627	3692.66
699.816	3870.83
700.005	3768.43
700.193	3770.48
700.382	3813.49
700.571	3649.65
700.76	3778.67
700.948	3711.09
701.137	3614.84
701.326	3635.32
701.514	3637.36
701.703	3719.28
701.892	3596.4
702.08	3774.58
702.269	3532.92
702.457	3520.63
702.646	3661.94
702.834	3590.26
703.023	3604.6
703.212	3612.79
703.4	3641.46
703.589	3477.62
703.777	3602.55
703.965	3481.72
704.154	3514.49
704.342	3537.01
704.531	3571.83
704.719	3563.64
704.907	3410.04
705.096	3451
705.284	3580.02
705.472	3514.49
705.661	3512.44
705.849	3512.44
706.037	3473.53
706.226	3666.03
706.414	3377.27
706.602	3500.15
706.79	3516.53
706.979	3381.37
707.167	3379.32
707.355	3399.8
707.543	3414.13
707.731	3436.66
707.919	3412.09
708.107	3430.52
708.296	3483.77
708.484	3448.95
708.672	3326.07
708.86	3403.89
709.048	3391.61
709.236	3489.91
709.424	3522.68
709.612	3487.86
709.8	3383.42
709.988	3436.66
710.176	3467.38
710.364	3369.08
710.551	3410.04
710.739	3424.37
710.927	3278.97
711.115	3287.16
711.303	3401.85
711.491	3328.12
711.679	3373.18
711.866	3309.69
712.054	3371.13
712.242	3197.05
712.43	3438.71
712.617	3295.35
712.805	3407.99
712.993	3364.98
713.181	3281.02
713.368	3442.81
713.556	3295.35
713.744	3207.29
713.931	3334.26
714.119	3281.02
714.306	3348.6
714.494	3354.74
714.682	3395.7
714.869	3238.01
715.057	3352.7
715.244	3141.75
715.432	3285.11
715.619	3285.11
715.807	3266.68
715.994	3276.92
716.182	3332.22
716.369	3186.81
716.556	3289.21
716.744	3164.28
716.931	3246.2
717.119	3244.15
717.306	3274.87
717.493	3223.67
717.681	3203.19
717.868	3201.15
718.055	3305.59
718.242	3203.19
718.43	3297.4
718.617	3088.51
718.804	3164.28
718.991	3186.81
719.179	3100.8
719.366	3293.3
719.553	3125.37
719.74	3127.42
719.927	3137.66
720.114	3178.62
720.301	3244.15
720.488	3117.18
720.676	3268.73
720.863	3395.7
721.05	3176.57
721.237	3123.32
721.424	3231.87
721.611	3190.91
721.798	3098.75
721.985	3074.17
722.172	3211.39
722.358	2969.73
722.545	3135.61
722.732	3119.23
722.919	3190.91
723.106	3059.84
723.293	3195
723.48	3211.39
723.667	3178.62
723.853	3203.19
724.04	3186.81
724.227	3100.8
724.414	3092.6
724.6	3098.75
724.787	3133.56
724.974	3180.67
725.161	3235.96
725.347	3129.47
725.534	3201.15
725.72	3178.62
725.907	3080.32
726.094	3061.88
726.28	3076.22
726.467	3031.16
726.653	3135.61
726.84	3029.12
727.027	3252.35
727.213	3008.64
727.4	3121.28
727.586	3131.51
727.773	3303.54
727.959	3106.94
728.145	3209.34
728.332	3195
728.518	3043.45
728.705	3215.48
728.891	3088.51
729.077	3082.36
729.264	2990.21
729.45	3117.18
729.636	3209.34
729.823	2996.35
730.009	3184.76
730.195	3203.19
730.382	3086.46
730.568	3012.73
730.754	3149.95
730.94	3137.66
731.126	3281.02
731.313	3102.84
731.499	3260.54
731.685	3072.12
731.871	3049.6
732.057	3119.23
732.243	3166.33
732.429	3084.41
732.615	3180.67
732.801	3252.35
732.987	3231.87
733.173	3215.48
733.359	3059.84
733.545	3154.04
733.731	3154.04
733.917	3244.15
734.103	3231.87
734.289	3125.37
734.475	3156.09
734.661	3313.78
734.847	3197.05
735.033	3246.2
735.219	3172.47
735.404	3133.56
735.59	3037.31
735.776	3117.18
735.962	3199.1
736.148	3160.19
736.333	3166.33
736.519	3108.99
736.705	3256.44
736.89	3164.28
737.076	3178.62
737.262	3186.81
737.447	3065.98
737.633	3121.28
737.819	3115.13
738.004	3117.18
738.19	3211.39
738.375	3059.84
738.561	3121.28
738.747	3096.7
738.932	3164.28
739.118	3117.18
739.303	3221.63
739.489	3223.67
739.674	3092.6
739.859	3111.04
740.045	3154.04
740.23	3090.56
740.416	3076.22
740.601	3082.36
740.786	3076.22
740.972	3016.83
741.157	3160.19
741.342	3104.89
741.528	2992.25
741.713	3125.37
741.898	3072.12
742.084	2998.4
742.269	3014.78
742.454	3106.94
742.639	3004.54
742.824	3000.44
743.01	2973.82
743.195	3029.12
743.38	2994.3
743.565	3006.59
743.75	2986.11
743.935	2982.01
744.12	3125.37
744.305	2949.25
744.49	2879.61
744.675	2814.08
744.86	2908.29
745.045	3041.4
745.23	3043.45
745.415	2844.8
745.6	2982.01
745.785	2896
745.97	2998.4
746.155	2908.29
746.34	2865.28
746.525	2842.75
746.71	3014.78
746.895	2836.61
747.079	2775.17
747.264	2775.17
747.449	2896
747.634	2730.11
747.819	2730.11
748.003	2656.39
748.188	2779.26
748.373	2736.26
748.557	2619.52
748.742	2648.19
748.927	2762.88
749.111	2637.95
749.296	2574.47
749.481	2642.05
749.665	2543.75
749.85	2551.94
750.034	2615.43
750.219	2666.63
750.404	2549.89
750.588	2494.6
750.773	2582.66
750.957	2478.21
751.141	2535.56
751.326	2560.13
751.51	2431.11
751.695	2574.47
751.879	2324.62
752.064	2607.23
752.248	2441.35
752.432	2400.39
752.617	2484.36
752.801	2322.57
752.985	2336.9
753.17	2334.86
753.354	2263.18
753.538	2353.29
753.722	2377.86
753.907	2332.81
754.091	2304.14
754.275	2144.39
754.459	2214.02
754.643	2107.53
754.828	2228.36
755.012	2211.98
755.196	2158.73
755.38	2189.45
755.564	2162.83
755.748	2123.91
755.932	2140.3
756.116	2105.48
756.3	2021.52
756.484	2091.15
756.668	2074.76
756.852	1943.69
757.036	2060.43
757.22	2042
757.404	2019.47
757.588	1867.92
757.772	1986.7
757.956	2003.08
758.14	1947.79
758.323	1855.63
758.507	2029.71
758.691	1968.27
758.875	1822.86
759.059	1839.25
759.242	1880.21
759.426	1804.43
759.61	1933.45
759.794	1837.2
759.977	1896.59
760.161	1978.51
760.345	1925.26
760.528	1884.3
760.712	1865.87
760.895	1816.72
761.079	1878.16
761.263	1697.94
761.446	1845.39
761.63	1724.56
761.813	1786
761.997	1900.69
762.18	1736.85
762.364	1642.64
762.547	1673.36
762.731	1753.23
762.914	1773.71
763.098	1714.32
763.281	1695.89
763.464	1763.47
763.648	1656.98
763.831	1640.59
764.015	1693.84
764.198	1636.5
764.381	1675.41
764.564	1591.44
764.748	1659.03
764.931	1640.59
765.114	1656.98
765.297	1536.15
765.481	1591.44
765.664	1659.03
765.847	1646.74
766.03	1654.93
766.213	1583.25
766.397	1462.42
766.58	1497.24
766.763	1491.09
766.946	1605.78
767.129	1474.71
767.312	1523.86
767.495	1495.19
767.678	1468.56
767.861	1575.06
768.044	1478.8
768.227	1548.44
768.41	1491.09
768.593	1511.57
768.776	1446.04
768.959	1562.77
769.142	1439.89
769.324	1446.04
769.507	1425.56
769.69	1439.89
769.873	1470.61
770.056	1550.48
770.239	1482.9
770.421	1421.46
770.604	1458.32
770.787	1435.8
770.97	1503.38
771.152	1329.3
771.335	1487
771.518	1349.78
771.7	1474.71
771.883	1351.83
772.066	1425.56
772.248	1382.55
772.431	1376.41
772.613	1228.95
772.796	1298.58
772.978	1329.3
773.161	1364.12
773.343	1376.41
773.526	1216.66
773.708	1257.62
773.891	1241.24
774.073	1249.43
774.256	1339.54
774.438	1380.5
774.621	1323.16
774.803	1310.87
774.985	1224.86
775.168	1337.49
775.35	1151.13
775.532	1278.1
775.715	1271.96
775.897	1294.49
776.079	1140.89
776.261	1179.8
776.444	1124.51
776.626	1153.18
776.808	1089.69
776.99	1030.3
777.173	1163.42
777.355	1116.31
777.537	1165.46
777.719	1142.94
777.901	1126.55
778.083	1093.79
778.265	1130.65
778.447	1003.68
778.629	1120.41
778.811	993.44
778.993	1022.11
779.175	1058.97
779.357	1026.2
779.539	938.14
779.721	893.09
779.903	1114.27
780.085	923.8
780.267	903.32
780.449	1032.35
780.631	952.48
780.812	913.56
780.994	972.96
781.176	956.57
781.358	880.8
781.54	893.09
781.721	929.95
781.903	886.94
782.085	882.85
782.267	878.75
782.448	858.27
782.63	831.65
782.812	856.22
782.993	850.08
783.175	876.7
783.357	833.69
783.538	893.09
783.72	805.02
783.901	794.78
784.083	866.46
784.264	811.17
784.446	778.4
784.627	827.55
784.809	766.11
784.99	774.3
785.172	800.93
785.353	710.82
785.535	694.43
785.716	729.25
785.897	690.34
786.079	704.67
786.26	710.82
786.441	710.82
786.623	635.04
786.804	819.36
786.985	696.48
787.167	815.26
787.348	680.1
787.529	639.14
787.71	770.21
787.891	671.9
788.073	700.58
788.254	778.4
788.435	694.43
788.616	721.06
788.797	567.46
788.978	635.04
789.159	612.51
789.34	583.84
789.522	579.75
789.703	581.79
789.884	733.34
790.065	618.66
790.246	612.51
790.427	577.7
790.607	571.55
790.788	540.83
790.969	542.88
791.15	622.75
791.331	702.62
791.512	520.35
791.693	528.55
791.874	575.65
792.054	626.85
792.235	700.58
792.416	579.75
792.597	546.98
792.778	551.07
792.958	553.12
793.139	575.65
793.32	606.37
793.5	522.4
793.681	516.26
793.862	579.75
794.042	379.04
794.223	536.74
794.404	454.82
794.584	448.68
794.765	487.59
794.945	460.96
795.126	499.88
795.306	444.58
795.487	463.01
795.667	477.35
795.848	508.07
796.028	522.4
796.209	383.14
796.389	381.09
796.57	510.11
796.75	481.44
796.93	411.81
797.111	454.82
797.291	448.68
797.471	463.01
797.652	495.78
797.832	362.66
798.012	442.53
798.192	458.92
798.373	458.92
798.553	391.33
798.733	413.86
798.913	424.1
799.093	454.82
799.274	379.04
799.454	432.29
799.634	299.17
799.814	417.96
799.994	401.57
800.174	422.05
800.354	436.39
800.534	364.71
800.714	452.77
800.894	413.86
801.074	356.52
801.254	370.85
801.434	393.38
801.614	364.71
801.794	290.98
801.974	1056.92
802.154	409.76
802.334	393.38
802.514	356.52
802.693	358.57
802.873	360.61
803.053	436.39
803.233	415.91
803.413	321.7
803.592	331.94
803.772	301.22
803.952	395.43
804.131	336.04
804.311	377
804.491	448.68
804.67	266.41
804.85	268.45
805.03	360.61
805.209	333.99
805.389	200.87
805.568	311.46
805.748	311.46
805.928	319.65
806.107	346.28
806.287	329.89
806.466	356.52
806.646	282.79
806.825	303.27
807.004	254.12
807.184	356.52
807.363	231.59
807.543	333.99
807.722	340.13
807.901	329.89
808.081	368.81
808.26	254.12
808.439	358.57
808.619	286.89
808.798	241.83
808.977	338.09
809.156	391.33
809.336	340.13
809.515	262.31
809.694	293.03
809.873	270.5
810.052	266.41
810.231	303.27
810.411	260.26
810.59	286.89
810.769	278.69
810.948	260.26
811.127	217.26
811.306	311.46
811.485	274.6
811.664	387.24
811.843	196.78
812.022	239.78
812.201	305.32
812.38	270.5
812.559	229.54
812.737	305.32
812.916	233.64
813.095	200.87
813.274	284.84
813.453	311.46
813.632	260.26
813.811	207.02
813.989	219.3
814.168	231.59
814.347	159.91
814.526	225.45
814.704	274.6
814.883	276.65
815.062	229.54
815.24	258.21
815.419	252.07
815.598	321.7
815.776	180.39
815.955	178.34
816.133	121
816.312	229.54
816.49	225.45
816.669	204.97
816.847	90.28
817.026	250.02
817.204	239.78
817.383	155.82
817.561	180.39
817.74	260.26
817.918	200.87
818.097	121
818.275	239.78
818.453	225.45
818.632	262.31
818.81	243.88
818.988	204.97
819.167	217.26
819.345	221.35
819.523	139.43
819.701	143.53
819.879	268.45
820.058	176.3
820.236	174.25
820.414	108.71
820.592	184.49
820.77	182.44
820.948	174.25
821.127	155.82
821.305	207.02
821.483	104.62
821.661	237.74
821.839	188.58
822.017	192.68
822.195	211.11
822.373	121
822.551	131.24
822.729	247.97
822.907	110.76
823.085	131.24
823.262	200.87
823.44	196.78
823.618	164.01
823.796	153.77
823.974	121
824.152	131.24
824.329	75.95
824.507	141.48
824.685	106.67
824.863	229.54
825.04	207.02
825.218	196.78
825.396	137.38
825.574	202.92
825.751	188.58
825.929	217.26
826.107	110.76
826.284	215.21
826.462	108.71
826.639	168.1
826.817	145.58
826.994	178.34
827.172	123.05
827.349	207.02
827.527	178.34
827.704	227.5
827.882	190.63
828.059	147.62
828.237	149.67
828.414	121
828.591	100.52
828.769	139.43
828.946	149.67
829.124	102.57
829.301	135.34
829.478	63.66
829.655	164.01
829.833	121
830.01	102.57
830.187	143.53
830.364	108.71
830.542	200.87
830.719	204.97
830.896	131.24
831.073	92.33
831.25	153.77
831.427	192.68
831.604	100.52
831.782	164.01
831.959	200.87
832.136	102.57
832.313	131.24
832.49	147.62
832.667	84.14
832.844	114.86
833.021	135.34
833.198	155.82
833.374	153.77
833.551	159.91
833.728	133.29
833.905	145.58
834.082	69.8
834.259	168.1
834.436	139.43
834.612	131.24
834.789	168.1
834.966	92.33
835.143	92.33
835.319	61.61
835.496	63.66
835.673	77.99
835.85	157.86
836.026	143.53
836.203	190.63
836.38	147.62
836.556	159.91
836.733	49.32
836.909	198.82
837.086	127.14
837.262	82.09
837.439	57.51
837.616	-16.21
837.792	121
837.968	90.28
838.145	145.58
838.321	118.95
838.498	37.03
838.674	47.27
838.851	84.14
839.027	118.95
839.203	55.47
839.38	127.14
839.556	108.71
839.732	112.81
839.909	55.47
840.085	84.14
840.261	37.03
840.437	82.09
840.614	45.23
840.79	108.71
840.966	26.79
841.142	116.9
841.318	22.7
841.494	53.42
841.671	55.47
841.847	129.19
842.023	12.46
842.199	92.33
842.375	82.09
842.551	49.32
842.727	59.56
842.903	121
843.079	65.71
843.255	82.09
843.431	57.51
843.607	22.7
843.783	-22.36
843.959	77.99
844.134	86.19
844.31	137.38
844.486	125.1
844.662	6.31
844.838	94.38
845.013	118.95
845.189	8.36
845.365	88.23
845.541	-34.64
845.716	116.9
845.892	82.09
846.068	73.9
846.244	90.28
846.419	86.19
846.595	16.55
846.77	77.99
846.946	47.27
847.122	34.99
847.297	121
847.473	145.58
847.648	47.27
847.824	157.86
847.999	8.36
848.175	116.9
848.35	86.19
848.526	84.14
848.701	55.47
848.876	123.05
849.052	110.76
849.227	121
849.403	4.27
849.578	57.51
849.753	94.38
849.929	18.6
850.104	84.14
850.279	90.28
850.454	30.89
850.63	47.27
850.805	55.47
850.98	61.61
851.155	86.19
851.33	24.75
851.505	43.18
851.681	94.38
851.856	45.23
852.031	143.53
852.206	45.23
852.381	51.37
852.556	4.27
852.731	8.36
852.906	118.95
853.081	100.52
853.256	102.57
853.431	116.9
853.606	-12.12
853.781	-1.88
853.956	-26.45
854.131	26.79
854.305	12.46
854.48	41.13
854.655	53.42
854.83	92.33
855.005	4.27
855.18	20.65
855.354	26.79
855.529	80.04
855.704	65.71
855.879	30.89
856.053	30.89
856.228	102.57
856.403	-36.69
856.577	53.42
856.752	-5.97
856.926	18.6
857.101	59.56
857.276	24.75
857.45	10.41
857.625	131.24
857.799	0.17
857.974	65.71
858.148	-18.26
858.323	47.27
858.497	-24.4
858.672	8.36
858.846	34.99
859.02	135.34
859.195	88.23
859.369	-14.17
859.543	112.81
859.718	65.71
859.892	30.89
860.066	20.65
860.241	65.71
860.415	61.61
860.589	55.47
860.763	-3.93
860.938	73.9
861.112	77.99
861.286	18.6
861.46	-55.12
861.634	34.99
861.808	59.56
861.982	-51.03
862.157	-8.02
862.331	-22.36
862.505	-20.31
862.679	22.7
862.853	20.65
863.027	2.22
863.201	98.47
863.375	71.85
863.549	45.23
863.722	0.17
863.896	45.23
864.07	-14.17
864.244	-40.79
864.418	10.41
864.592	100.52
864.766	108.71
864.939	100.52
865.113	51.37
865.287	-10.07
865.461	24.75
865.634	59.56
865.808	94.38
865.982	55.47
866.156	84.14
866.329	45.23
866.503	45.23
866.676	53.42
866.85	-28.5
867.024	-57.17
867.197	43.18
867.371	-12.12
867.544	65.71
867.718	0.17
867.891	114.86
868.065	-1.88
868.238	61.61
868.412	82.09
868.585	-53.08
868.759	0.17
868.932	6.31
869.105	-8.02
869.279	108.71
869.452	6.31
869.625	49.32
869.799	0.17
869.972	-16.21
870.145	-16.21
870.319	57.51
870.492	-22.36
870.665	-53.08
870.838	-14.17
871.011	-42.84
871.185	18.6
871.358	-51.03
871.531	47.27
871.704	30.89
871.877	32.94
872.05	-16.21
872.223	2.22
872.396	30.89
872.569	94.38
872.742	-48.98
872.915	-12.12
873.088	41.13
873.261	-1.88
873.434	61.61
873.607	2.22
873.78	65.71
873.953	-36.69
874.126	12.46
874.299	20.65
874.471	18.6
874.644	16.55
874.817	73.9
874.99	82.09
875.163	-16.21
875.335	16.55
875.508	43.18
875.681	108.71
875.853	18.6
876.026	4.27
876.199	-38.74
876.371	-14.17
876.544	18.6
876.717	-26.45
876.889	-18.26
877.062	106.67
877.234	16.55
877.407	-24.4
877.579	75.95
877.752	67.75
877.924	-5.97
878.097	43.18
878.269	-8.02
878.442	20.65
878.614	37.03
878.786	-32.6
878.959	43.18
879.131	-12.12
879.303	-38.74
879.476	24.75
879.648	49.32
879.82	-98.13
879.993	61.61
880.165	-42.84
880.337	18.6
880.509	-12.12
880.681	8.36
880.854	-42.84
881.026	94.38
881.198	34.99
881.37	14.51
881.542	4.27
881.714	8.36
881.886	-61.27
882.058	57.51
882.23	-3.93
882.402	-3.93
882.574	47.27
882.746	73.9
882.918	24.75
883.09	-36.69
883.262	20.65
883.434	0.17
883.606	53.42
883.778	10.41
883.95	98.47
884.122	0.17
884.293	32.94
884.465	6.31
884.637	0.17
884.809	-30.55
884.98	39.08
885.152	37.03
885.324	41.13
885.496	-36.69
885.667	-16.21
885.839	-14.17
886.011	24.75
886.182	12.46
886.354	28.84
886.525	10.41
886.697	-1.88
886.869	-34.64
887.04	-20.31
887.212	-26.45
887.383	61.61
887.555	-5.97
887.726	-57.17
887.897	-71.51
888.069	10.41
888.24	14.51
888.412	4.27
888.583	30.89
888.754	-30.55
888.926	43.18
889.097	4.27
889.268	-12.12
889.44	-3.93
889.611	-42.84
889.782	-10.07
889.953	49.32
890.125	90.28
890.296	-18.26
890.467	-85.84
890.638	88.23
890.809	20.65
890.98	-38.74
891.151	28.84
891.323	-5.97
891.494	-10.07
891.665	30.89
891.836	37.03
892.007	-5.97
892.178	20.65
892.349	2.22
892.52	-69.46
892.691	16.55
892.862	30.89
893.032	-10.07
893.203	-26.45
893.374	-18.26
893.545	84.14
893.716	-48.98
893.887	57.51
894.057	-59.22
894.228	61.61
894.399	-28.5
894.57	53.42
894.74	57.51
894.911	6.31
895.082	-5.97
895.253	-46.93
895.423	12.46
895.594	84.14
895.764	73.9
895.935	0.17
896.106	75.95
896.276	14.51
896.447	6.31
896.617	-5.97
896.788	37.03
896.958	-55.12
897.129	4.27
897.299	-32.6
897.47	30.89
897.64	88.23
897.81	-1.88
897.981	2.22
898.151	-132.95
898.322	-30.55
898.492	67.75
898.662	-14.17
898.832	20.65
899.003	4.27
899.173	-46.93
899.343	0.17
899.513	-40.79
