Data from USB4F104151__27__12-41-12-596.txt Node

Date: Fri Mar 14 12:41:12 EDT 2025
User: louis
Spectrometer: USB4F10415
Trigger mode: 4
Integration Time (sec): 3.000000E-2
Scans to average: 1
Electric dark correction enabled: true
Nonlinearity correction enabled: false
Boxcar width: 0
XAxis mode: Wavelengths
Number of Pixels in Spectrum: 3648
>>>>>Begin Spectral Data<<<<<
178.204	-125.95
178.424	-125.95
178.644	-125.95
178.864	-132.09
179.084	-105.47
179.304	82.94
179.524	-29.7
179.744	-46.08
179.964	15.36
180.184	-9.22
180.404	46.08
180.624	3.07
180.844	-1.02
181.064	-84.99
181.283	27.65
181.503	-58.37
181.723	54.27
181.943	-76.8
182.163	113.66
182.383	48.13
182.602	54.27
182.822	78.85
183.042	64.51
183.262	44.03
183.482	-27.65
183.701	17.41
183.921	74.75
184.141	-3.07
184.361	136.19
184.58	5.12
184.8	-21.5
185.02	19.46
185.239	89.09
185.459	-11.26
185.679	93.18
185.898	-52.22
186.118	115.71
186.338	54.27
186.557	99.33
186.777	46.08
186.997	46.08
187.216	29.7
187.436	64.51
187.655	97.28
187.875	23.55
188.095	29.7
188.314	39.94
188.534	27.65
188.753	3.07
188.973	60.42
189.192	107.52
189.412	41.98
189.631	37.89
189.851	48.13
190.07	138.24
190.29	33.79
190.509	-1.02
190.729	33.79
190.948	48.13
191.168	218.11
191.387	56.32
191.607	-80.89
191.826	99.33
192.045	-21.5
192.265	-1.02
192.484	-66.56
192.704	-9.22
192.923	60.42
193.142	87.04
193.362	84.99
193.581	9.22
193.8	80.89
194.02	23.55
194.239	-19.46
194.458	13.31
194.678	5.12
194.897	41.98
195.116	-1.02
195.335	50.18
195.555	87.04
195.774	31.74
195.993	76.8
196.212	29.7
196.432	31.74
196.651	23.55
196.87	74.75
197.089	54.27
197.308	93.18
197.528	56.32
197.747	19.46
197.966	54.27
198.185	80.89
198.404	62.46
198.623	82.94
198.842	70.65
199.062	72.7
199.281	44.03
199.5	-13.31
199.719	3.07
199.938	52.22
200.157	91.13
200.376	29.7
200.595	64.51
200.814	91.13
201.033	52.22
201.252	44.03
201.471	35.84
201.69	17.41
201.909	13.31
202.128	33.79
202.347	56.32
202.566	15.36
202.785	29.7
203.004	11.26
203.223	62.46
203.442	97.28
203.661	41.98
203.879	5.12
204.098	87.04
204.317	46.08
204.536	107.52
204.755	125.95
204.974	66.56
205.193	84.99
205.411	80.89
205.63	95.23
205.849	74.75
206.068	19.46
206.287	-37.89
206.505	99.33
206.724	-23.55
206.943	37.89
207.162	33.79
207.381	72.7
207.599	-11.26
207.818	41.98
208.037	7.17
208.255	17.41
208.474	72.7
208.693	-9.22
208.911	25.6
209.13	99.33
209.349	101.37
209.567	25.6
209.786	15.36
210.005	19.46
210.223	-3.07
210.442	-3.07
210.661	82.94
210.879	37.89
211.098	25.6
211.316	54.27
211.535	70.65
211.753	-64.51
211.972	70.65
212.191	-39.94
212.409	72.7
212.628	84.99
212.846	41.98
213.065	89.09
213.283	54.27
213.502	1.02
213.72	41.98
213.938	91.13
214.157	-19.46
214.375	82.94
214.594	21.5
214.812	29.7
215.031	37.89
215.249	15.36
215.467	7.17
215.686	19.46
215.904	48.13
216.122	5.12
216.341	54.27
216.559	66.56
216.778	-17.41
216.996	31.74
217.214	19.46
217.432	9.22
217.651	21.5
217.869	15.36
218.087	25.6
218.306	23.55
218.524	19.46
218.742	99.33
218.96	117.76
219.179	68.61
219.397	46.08
219.615	97.28
219.833	62.46
220.051	25.6
220.27	105.47
220.488	-5.12
220.706	-3.07
220.924	107.52
221.142	87.04
221.36	31.74
221.578	50.18
221.796	60.42
222.015	76.8
222.233	50.18
222.451	105.47
222.669	54.27
222.887	41.98
223.105	25.6
223.323	87.04
223.541	-17.41
223.759	31.74
223.977	19.46
224.195	84.99
224.413	19.46
224.631	5.12
224.849	74.75
225.067	111.61
225.285	13.31
225.503	-5.12
225.721	-46.08
225.939	-33.79
226.157	29.7
226.375	183.29
226.592	19.46
226.81	105.47
227.028	125.95
227.246	80.89
227.464	13.31
227.682	76.8
227.9	82.94
228.117	107.52
228.335	136.19
228.553	27.65
228.771	-5.12
228.989	37.89
229.206	-3.07
229.424	76.8
229.642	19.46
229.86	7.17
230.077	50.18
230.295	13.31
230.513	113.66
230.731	41.98
230.948	80.89
231.166	52.22
231.384	58.37
231.601	1.02
231.819	125.95
232.037	66.56
232.254	-11.26
232.472	9.22
232.689	19.46
232.907	31.74
233.125	58.37
233.342	87.04
233.56	70.65
233.777	64.51
233.995	101.37
234.213	87.04
234.43	78.85
234.648	115.71
234.865	-21.5
235.083	84.99
235.3	27.65
235.518	41.98
235.735	121.85
235.953	78.85
236.17	19.46
236.388	62.46
236.605	56.32
236.822	56.32
237.04	101.37
237.257	80.89
237.475	-15.36
237.692	62.46
237.909	29.7
238.127	70.65
238.344	41.98
238.562	31.74
238.779	60.42
238.996	-56.32
239.214	82.94
239.431	125.95
239.648	89.09
239.865	72.7
240.083	41.98
240.3	25.6
240.517	-35.84
240.735	82.94
240.952	109.57
241.169	31.74
241.386	84.99
241.603	35.84
241.821	70.65
242.038	115.71
242.255	60.42
242.472	5.12
242.689	103.42
242.907	105.47
243.124	97.28
243.341	25.6
243.558	-13.31
243.775	1.02
243.992	29.7
244.209	21.5
244.426	19.46
244.643	74.75
244.86	-21.5
245.078	19.46
245.295	9.22
245.512	44.03
245.729	-46.08
245.946	64.51
246.163	103.42
246.38	21.5
246.597	11.26
246.814	11.26
247.031	-1.02
247.248	-25.6
247.464	80.89
247.681	46.08
247.898	109.57
248.115	132.09
248.332	13.31
248.549	119.81
248.766	113.66
248.983	39.94
249.2	152.57
249.417	58.37
249.633	54.27
249.85	101.37
250.067	54.27
250.284	41.98
250.501	117.76
250.717	76.8
250.934	-19.46
251.151	-9.22
251.368	13.31
251.585	3.07
251.801	54.27
252.018	29.7
252.235	107.52
252.451	-17.41
252.668	68.61
252.885	95.23
253.102	9.22
253.318	11.26
253.535	-5.12
253.752	89.09
253.968	62.46
254.185	41.98
254.401	78.85
254.618	31.74
254.835	5.12
255.051	56.32
255.268	54.27
255.484	76.8
255.701	11.26
255.917	76.8
256.134	-29.7
256.351	70.65
256.567	-11.26
256.784	54.27
257	35.84
257.217	48.13
257.433	31.74
257.65	25.6
257.866	44.03
258.082	15.36
258.299	27.65
258.515	56.32
258.732	56.32
258.948	23.55
259.165	-25.6
259.381	27.65
259.597	35.84
259.814	25.6
260.03	50.18
260.246	37.89
260.463	25.6
260.679	95.23
260.895	105.47
261.112	109.57
261.328	72.7
261.544	41.98
261.761	107.52
261.977	1.02
262.193	-54.27
262.409	35.84
262.626	41.98
262.842	25.6
263.058	1.02
263.274	62.46
263.49	60.42
263.707	64.51
263.923	82.94
264.139	21.5
264.355	15.36
264.571	48.13
264.787	19.46
265.004	35.84
265.22	35.84
265.436	60.42
265.652	25.6
265.868	78.85
266.084	54.27
266.3	46.08
266.516	-3.07
266.732	-9.22
266.948	21.5
267.164	35.84
267.38	93.18
267.596	64.51
267.812	62.46
268.028	74.75
268.244	33.79
268.46	128
268.676	17.41
268.892	56.32
269.108	-25.6
269.324	-33.79
269.54	-21.5
269.756	84.99
269.972	7.17
270.188	37.89
270.403	11.26
270.619	29.7
270.835	68.61
271.051	107.52
271.267	66.56
271.483	82.94
271.698	74.75
271.914	46.08
272.13	46.08
272.346	54.27
272.562	15.36
272.777	78.85
272.993	1.02
273.209	56.32
273.425	15.36
273.64	62.46
273.856	54.27
274.072	82.94
274.287	7.17
274.503	80.89
274.719	27.65
274.934	5.12
275.15	29.7
275.366	15.36
275.581	74.75
275.797	72.7
276.012	1.02
276.228	48.13
276.444	39.94
276.659	128
276.875	70.65
277.09	97.28
277.306	19.46
277.521	72.7
277.737	89.09
277.952	60.42
278.168	7.17
278.383	62.46
278.599	19.46
278.814	140.29
279.03	3.07
279.245	21.5
279.461	35.84
279.676	54.27
279.892	-54.27
280.107	21.5
280.322	29.7
280.538	46.08
280.753	-1.02
280.969	70.65
281.184	78.85
281.399	97.28
281.615	13.31
281.83	9.22
282.045	72.7
282.26	1.02
282.476	41.98
282.691	13.31
282.906	41.98
283.122	35.84
283.337	66.56
283.552	19.46
283.767	23.55
283.983	54.27
284.198	-23.55
284.413	80.89
284.628	27.65
284.843	29.7
285.058	84.99
285.274	9.22
285.489	29.7
285.704	64.51
285.919	-27.65
286.134	19.46
286.349	39.94
286.564	25.6
286.779	66.56
286.995	64.51
287.21	7.17
287.425	103.42
287.64	7.17
287.855	13.31
288.07	-87.04
288.285	105.47
288.5	105.47
288.715	33.79
288.93	19.46
289.145	5.12
289.36	56.32
289.575	11.26
289.79	154.62
290.004	37.89
290.219	64.51
290.434	64.51
290.649	-7.17
290.864	15.36
291.079	35.84
291.294	72.7
291.509	21.5
291.724	48.13
291.938	84.99
292.153	78.85
292.368	-21.5
292.583	41.98
292.798	111.61
293.012	52.22
293.227	52.22
293.442	-7.17
293.657	111.61
293.871	80.89
294.086	27.65
294.301	119.81
294.516	123.9
294.73	35.84
294.945	37.89
295.16	91.13
295.374	93.18
295.589	78.85
295.804	-25.6
296.018	37.89
296.233	25.6
296.447	52.22
296.662	35.84
296.877	31.74
297.091	48.13
297.306	56.32
297.52	48.13
297.735	128
297.949	119.81
298.164	50.18
298.378	-11.26
298.593	48.13
298.807	39.94
299.022	13.31
299.236	89.09
299.451	117.76
299.665	11.26
299.88	23.55
300.094	70.65
300.309	29.7
300.523	87.04
300.737	-5.12
300.952	70.65
301.166	48.13
301.381	5.12
301.595	52.22
301.809	-9.22
302.024	74.75
302.238	37.89
302.452	136.19
302.667	35.84
302.881	64.51
303.095	95.23
303.309	84.99
303.524	5.12
303.738	97.28
303.952	66.56
304.166	74.75
304.381	62.46
304.595	-7.17
304.809	66.56
305.023	29.7
305.237	64.51
305.452	111.61
305.666	107.52
305.88	138.24
306.094	58.37
306.308	107.52
306.522	60.42
306.736	54.27
306.95	107.52
307.164	56.32
307.379	23.55
307.593	146.43
307.807	58.37
308.021	105.47
308.235	74.75
308.449	68.61
308.663	-25.6
308.877	168.96
309.091	35.84
309.305	103.42
309.519	21.5
309.733	123.9
309.947	21.5
310.161	-9.22
310.374	72.7
310.588	154.62
310.802	89.09
311.016	29.7
311.23	119.81
311.444	21.5
311.658	15.36
311.872	9.22
312.085	78.85
312.299	93.18
312.513	56.32
312.727	123.9
312.941	33.79
313.154	46.08
313.368	-60.42
313.582	72.7
313.796	74.75
314.009	142.33
314.223	11.26
314.437	50.18
314.651	103.42
314.864	23.55
315.078	48.13
315.292	54.27
315.505	84.99
315.719	-3.07
315.933	46.08
316.146	60.42
316.36	74.75
316.573	109.57
316.787	1.02
317.001	72.7
317.214	3.07
317.428	64.51
317.641	1.02
317.855	5.12
318.068	27.65
318.282	101.37
318.495	80.89
318.709	113.66
318.922	97.28
319.136	52.22
319.349	89.09
319.563	70.65
319.776	3.07
319.99	21.5
320.203	95.23
320.417	27.65
320.63	58.37
320.843	125.95
321.057	-15.36
321.27	56.32
321.483	80.89
321.697	60.42
321.91	72.7
322.124	29.7
322.337	39.94
322.55	35.84
322.763	113.66
322.977	5.12
323.19	-37.89
323.403	76.8
323.617	121.85
323.83	103.42
324.043	123.9
324.256	80.89
324.469	31.74
324.683	130.05
324.896	66.56
325.109	41.98
325.322	15.36
325.535	35.84
325.748	35.84
325.962	152.57
326.175	33.79
326.388	1.02
326.601	33.79
326.814	54.27
327.027	95.23
327.24	87.04
327.453	11.26
327.666	29.7
327.879	95.23
328.092	89.09
328.305	58.37
328.518	-3.07
328.731	-5.12
328.944	70.65
329.157	76.8
329.37	11.26
329.583	111.61
329.796	58.37
330.009	31.74
330.222	105.47
330.435	103.42
330.648	95.23
330.861	46.08
331.073	31.74
331.286	89.09
331.499	48.13
331.712	15.36
331.925	41.98
332.138	76.8
332.35	54.27
332.563	50.18
332.776	89.09
332.989	21.5
333.202	41.98
333.414	52.22
333.627	99.33
333.84	15.36
334.053	125.95
334.265	-29.7
334.478	58.37
334.691	74.75
334.903	78.85
335.116	60.42
335.329	48.13
335.541	54.27
335.754	19.46
335.966	19.46
336.179	25.6
336.392	101.37
336.604	50.18
336.817	50.18
337.029	72.7
337.242	58.37
337.454	58.37
337.667	-13.31
337.88	48.13
338.092	89.09
338.305	58.37
338.517	82.94
338.729	113.66
338.942	148.48
339.154	52.22
339.367	-1.02
339.579	74.75
339.792	60.42
340.004	50.18
340.217	52.22
340.429	64.51
340.641	-1.02
340.854	25.6
341.066	52.22
341.278	97.28
341.491	117.76
341.703	41.98
341.915	33.79
342.128	9.22
342.34	39.94
342.552	62.46
342.764	56.32
342.977	66.56
343.189	109.57
343.401	134.14
343.613	-5.12
343.826	7.17
344.038	21.5
344.25	66.56
344.462	60.42
344.674	99.33
344.886	80.89
345.099	97.28
345.311	93.18
345.523	78.85
345.735	-11.26
345.947	109.57
346.159	64.51
346.371	91.13
346.583	35.84
346.795	103.42
347.007	44.03
347.219	64.51
347.431	-7.17
347.643	21.5
347.855	66.56
348.067	99.33
348.279	-19.46
348.491	132.09
348.703	97.28
348.915	5.12
349.127	21.5
349.339	136.19
349.551	60.42
349.763	37.89
349.975	-11.26
350.187	78.85
350.399	130.05
350.61	68.61
350.822	62.46
351.034	130.05
351.246	31.74
351.458	44.03
351.669	80.89
351.881	74.75
352.093	33.79
352.305	70.65
352.517	84.99
352.728	46.08
352.94	97.28
353.152	60.42
353.363	68.61
353.575	74.75
353.787	48.13
353.999	101.37
354.21	70.65
354.422	48.13
354.633	62.46
354.845	68.61
355.057	97.28
355.268	56.32
355.48	111.61
355.692	37.89
355.903	54.27
356.115	21.5
356.326	31.74
356.538	107.52
356.749	29.7
356.961	119.81
357.172	23.55
357.384	68.61
357.595	111.61
357.807	44.03
358.018	15.36
358.23	130.05
358.441	111.61
358.653	115.71
358.864	58.37
359.075	39.94
359.287	-21.5
359.498	70.65
359.709	62.46
359.921	109.57
360.132	50.18
360.344	27.65
360.555	70.65
360.766	62.46
360.977	-19.46
361.189	144.38
361.4	80.89
361.611	72.7
361.823	33.79
362.034	115.71
362.245	46.08
362.456	64.51
362.667	35.84
362.879	33.79
363.09	95.23
363.301	121.85
363.512	113.66
363.723	70.65
363.935	7.17
364.146	95.23
364.357	136.19
364.568	48.13
364.779	41.98
364.99	117.76
365.201	54.27
365.412	105.47
365.623	101.37
365.834	29.7
366.045	41.98
366.256	87.04
366.467	76.8
366.678	44.03
366.889	76.8
367.1	39.94
367.311	66.56
367.522	58.37
367.733	160.77
367.944	33.79
368.155	33.79
368.366	21.5
368.577	50.18
368.788	82.94
368.999	15.36
369.209	103.42
369.42	56.32
369.631	128
369.842	105.47
370.053	99.33
370.264	84.99
370.474	60.42
370.685	105.47
370.896	68.61
371.107	66.56
371.317	97.28
371.528	39.94
371.739	87.04
371.95	68.61
372.16	113.66
372.371	62.46
372.582	82.94
372.792	76.8
373.003	111.61
373.214	72.7
373.424	89.09
373.635	97.28
373.846	121.85
374.056	68.61
374.267	101.37
374.477	66.56
374.688	95.23
374.898	5.12
375.109	27.65
375.319	52.22
375.53	101.37
375.74	87.04
375.951	87.04
376.161	33.79
376.372	105.47
376.582	138.24
376.793	91.13
377.003	84.99
377.214	70.65
377.424	48.13
377.635	54.27
377.845	7.17
378.055	56.32
378.266	35.84
378.476	99.33
378.686	113.66
378.897	101.37
379.107	95.23
379.317	66.56
379.528	64.51
379.738	140.29
379.948	-1.02
380.158	130.05
380.369	31.74
380.579	87.04
380.789	33.79
380.999	41.98
381.21	44.03
381.42	193.53
381.63	31.74
381.84	52.22
382.05	84.99
382.261	97.28
382.471	72.7
382.681	87.04
382.891	146.43
383.101	60.42
383.311	44.03
383.521	29.7
383.731	109.57
383.941	58.37
384.151	78.85
384.361	115.71
384.571	95.23
384.781	74.75
384.991	134.14
385.201	125.95
385.411	80.89
385.621	50.18
385.831	66.56
386.041	66.56
386.251	31.74
386.461	95.23
386.671	80.89
386.881	-17.41
387.091	68.61
387.301	121.85
387.511	29.7
387.72	123.9
387.93	113.66
388.14	19.46
388.35	97.28
388.56	111.61
388.769	93.18
388.979	89.09
389.189	35.84
389.399	82.94
389.609	138.24
389.818	70.65
390.028	89.09
390.238	113.66
390.447	17.41
390.657	82.94
390.867	46.08
391.076	39.94
391.286	76.8
391.496	154.62
391.705	13.31
391.915	123.9
392.125	207.87
392.334	113.66
392.544	95.23
392.753	60.42
392.963	130.05
393.172	142.33
393.382	70.65
393.591	138.24
393.801	41.98
394.01	99.33
394.22	136.19
394.429	95.23
394.639	152.57
394.848	144.38
395.058	156.67
395.267	91.13
395.477	109.57
395.686	181.25
395.895	142.33
396.105	160.77
396.314	166.91
396.524	78.85
396.733	193.53
396.942	105.47
397.152	115.71
397.361	160.77
397.57	181.25
397.78	136.19
397.989	97.28
398.198	152.57
398.407	46.08
398.617	142.33
398.826	115.71
399.035	115.71
399.244	216.06
399.453	128
399.663	218.11
399.872	185.34
400.081	99.33
400.29	228.35
400.499	70.65
400.708	146.43
400.917	134.14
401.127	175.1
401.336	111.61
401.545	168.96
401.754	140.29
401.963	152.57
402.172	113.66
402.381	93.18
402.59	107.52
402.799	140.29
403.008	211.96
403.217	187.39
403.426	238.59
403.635	134.14
403.844	160.77
404.053	189.44
404.262	164.86
404.471	246.78
404.68	226.3
404.888	193.53
405.097	91.13
405.306	199.68
405.515	230.4
405.724	244.73
405.933	185.34
406.142	185.34
406.35	214.01
406.559	173.05
406.768	250.88
406.977	234.49
407.185	277.5
407.394	220.16
407.603	193.53
407.812	273.4
408.02	271.36
408.229	244.73
408.438	302.08
408.646	291.84
408.855	306.17
409.064	343.03
409.272	371.71
409.481	414.71
409.69	367.61
409.898	373.75
410.107	414.71
410.315	418.81
410.524	441.34
410.733	486.39
410.941	433.15
411.15	510.97
411.358	414.71
411.567	523.26
411.775	396.28
411.984	517.11
412.192	553.98
412.401	551.93
412.609	568.31
412.818	564.22
413.026	627.7
413.234	658.42
413.443	605.17
413.651	678.9
413.86	637.94
414.068	752.63
414.276	820.21
414.485	752.63
414.693	764.92
414.901	857.07
415.11	809.97
415.318	936.95
415.526	869.36
415.734	1002.48
415.943	943.09
416.151	1018.86
416.359	1016.82
416.567	1022.96
416.776	1031.15
416.984	1156.08
417.192	1151.98
417.4	1238
417.608	1229.81
417.817	1274.86
418.025	1348.59
418.233	1491.95
418.441	1393.64
418.649	1416.17
418.857	1518.57
419.065	1647.59
419.273	1565.67
419.481	1674.21
419.689	1700.84
419.897	1901.54
420.105	1973.22
420.313	1907.68
420.521	1936.35
420.729	2085.86
420.937	2106.34
421.145	2151.39
421.353	2319.32
421.561	2391
421.769	2417.63
421.977	2462.68
422.185	2550.75
422.393	2655.19
422.601	2757.59
422.809	2773.97
423.017	3003.35
423.224	2978.77
423.432	3005.39
423.64	3083.22
423.848	3296.21
424.056	3265.49
424.263	3580.87
424.471	3666.89
424.679	3539.91
424.887	3685.32
425.094	3800.01
425.302	3969.99
425.51	4006.85
425.718	4027.33
425.925	4148.16
426.133	4238.27
426.341	4516.8
426.548	4977.59
426.756	4840.37
426.964	4944.82
427.171	5225.39
427.379	5325.74
427.586	5393.33
427.794	5438.38
428.001	5702.57
428.209	5993.38
428.417	5903.27
428.624	6341.54
428.832	6357.92
429.039	6263.71
429.247	6308.77
429.454	6943.64
429.662	7535.5
429.869	6906.77
430.076	7316.37
430.284	7152.53
430.491	7539.6
430.699	7906.18
430.906	7992.2
431.114	8027.01
431.321	8463.23
431.528	8510.33
431.736	9069.43
431.943	9390.96
432.15	9315.19
432.358	9345.91
432.565	9913.19
432.772	9917.29
432.979	10337.12
433.187	10320.74
433.394	10533.73
433.601	11230.04
433.808	11324.24
434.016	11375.44
434.223	11828.04
434.43	12251.97
434.637	12376.9
434.844	12833.6
435.052	12968.76
435.259	13089.59
435.466	13220.66
435.673	13067.06
435.88	14084.91
436.087	14615.33
436.294	14805.79
436.501	14345
436.708	14656.29
436.915	15022.87
437.122	15760.14
437.329	15532.82
437.537	16268.04
437.743	16380.68
437.95	16372.49
438.157	17044.22
438.364	17844.98
438.571	17885.94
438.778	17613.56
438.985	19442.39
439.192	18754.27
439.399	19311.32
439.606	18961.12
439.813	20097.74
440.02	21330.62
440.227	20785.86
440.433	20554.44
440.64	21252.8
440.847	20904.64
441.054	21666.49
441.261	23286.43
441.467	22889.12
441.674	23313.05
441.881	23841.43
442.088	24232.59
442.294	23732.89
442.501	24627.85
442.708	24881.8
442.914	25911.92
443.121	27138.66
443.328	26249.84
443.534	28228.18
443.741	27357.79
443.948	26874.47
444.154	29258.31
444.361	29059.65
444.568	29026.89
444.774	29071.94
444.981	29409.86
445.187	29979.19
445.394	31339.04
445.6	30825
445.807	33962.49
446.013	32807.44
446.22	33210.89
446.426	34564.59
446.633	34796.01
446.839	36053.47
447.046	34537.97
447.252	36708.82
447.459	36385.24
447.665	36123.1
447.871	37636.55
448.078	39524.77
448.284	37605.83
448.491	38459.83
448.697	40239.51
448.903	40933.78
449.11	40864.14
449.316	40731.03
449.522	41568.65
449.728	42027.39
449.935	42279.29
450.141	42371.45
450.347	43391.34
450.553	42080.64
450.76	42563.96
450.966	43856.23
451.172	43604.33
451.378	44743
451.584	43409.77
451.791	44581.21
451.997	44679.51
452.203	45132.11
452.409	45670.73
452.615	45201.74
452.821	43395.43
453.027	42764.66
453.233	45322.57
453.44	43379.05
453.646	43716.96
453.852	44564.82
454.058	45259.09
454.264	43884.9
454.47	44478.81
454.676	43565.42
454.882	44845.4
455.088	40876.43
455.294	41718.15
455.5	42066.3
455.705	42643.83
455.911	40714.64
456.117	39924.13
456.323	39567.78
456.529	37929.41
456.735	39098.8
456.941	38152.63
457.147	37386.69
457.352	36463.06
457.558	36147.67
457.764	36053.47
457.97	35373.54
458.176	34361.84
458.381	34970.09
458.587	33038.86
458.793	33223.17
458.999	31121.96
459.204	33313.28
459.41	32512.53
459.616	30628.4
459.821	30390.83
460.027	29979.19
460.233	29717.05
460.438	28648.01
460.644	28285.52
460.85	27298.4
461.055	26604.14
461.261	26815.08
461.466	24695.43
461.672	24038.03
461.878	25766.52
462.083	23929.49
462.289	23270.04
462.494	23239.33
462.7	22196.91
462.905	21885.62
463.111	22629.03
463.316	22594.22
463.522	22295.21
463.727	22252.2
463.932	22332.08
464.138	21858.99
464.343	22098.61
464.549	21535.42
464.754	22162.09
464.959	21877.43
465.165	21936.82
465.37	21125.82
465.575	20396.74
465.781	21150.4
465.986	21125.82
466.191	20957.89
466.397	20202.19
466.602	18977.5
466.807	19921.62
467.012	19870.42
467.218	19563.22
467.423	19802.83
467.628	19532.5
467.833	20320.97
468.038	19630.8
468.244	19178.2
468.449	19919.57
468.654	19608.28
468.859	19239.64
469.064	19067.61
469.269	18311.91
469.474	18365.16
469.679	18764.51
469.885	18471.65
470.09	18483.94
470.295	18494.18
470.5	17976.05
470.705	18174.7
470.91	17642.23
471.115	17357.56
471.32	17906.41
471.525	17713.91
471.73	17126.14
471.935	17019.64
472.139	16581.38
472.344	16759.55
472.549	16462.6
472.754	16380.68
472.959	16272.14
473.164	15940.36
473.369	15747.86
473.574	16343.81
473.778	16003.85
473.983	15891.21
474.188	15657.75
474.393	15282.97
474.598	15108.89
474.802	15065.88
475.007	14959.39
475.212	14928.67
475.417	14328.61
475.621	14361.38
475.826	14539.55
476.031	14156.58
476.235	13935.4
476.44	14127.91
476.645	13937.45
476.849	14181.16
477.054	13699.89
477.259	13501.23
477.463	13523.76
477.668	13157.18
477.872	13263.67
478.077	12952.38
478.282	12733.25
478.486	12624.7
478.691	12792.64
478.895	12571.46
479.1	12464.96
479.304	12675.9
479.509	12438.34
479.713	12436.29
479.918	12073.8
480.122	11871.05
480.326	12178.25
480.531	11828.04
480.735	11924.3
480.94	11645.77
481.144	12051.27
481.348	11756.36
481.553	11596.62
481.757	11547.47
481.961	11817.8
482.166	12053.32
482.37	11766.6
482.574	11608.91
482.778	11653.97
482.983	11752.27
483.187	11584.34
483.391	11774.8
483.595	11551.57
483.8	11727.69
484.004	11645.77
484.208	11500.37
484.412	11539.28
484.616	11651.92
484.821	11674.45
485.025	11443.03
485.229	11617.1
485.433	11715.41
485.637	11807.56
485.841	11498.32
486.045	11563.86
486.249	11608.91
486.453	11613.01
486.657	11483.98
486.861	11539.28
487.065	11324.24
487.269	11670.35
487.473	11557.71
487.677	11852.62
487.881	11645.77
488.085	11531.09
488.289	11672.4
488.493	11578.19
488.697	11739.98
488.901	11795.28
489.105	11580.24
489.309	11520.85
489.512	11823.95
489.716	11815.76
489.92	11637.58
490.124	11494.22
490.328	11979.59
490.531	11852.62
490.735	12200.77
490.939	11854.67
491.143	12084.04
491.346	11879.24
491.55	11801.42
491.754	12143.43
491.958	12204.87
492.161	12006.22
492.365	12178.25
492.569	12135.24
492.772	12284.74
492.976	12374.85
493.18	12475.2
493.383	12598.08
493.587	12718.91
493.79	12892.99
493.994	12686.14
494.197	12636.99
494.401	12913.47
494.605	12899.13
494.808	13163.32
495.012	13355.83
495.215	13144.89
495.419	13220.66
495.622	13275.96
495.825	13591.34
496.029	13349.68
496.232	13843.24
496.436	13787.95
496.639	14119.72
496.843	13581.1
497.046	14467.88
497.249	14381.86
497.453	14469.92
497.656	14674.72
497.859	14600.99
498.063	14789.41
498.266	15033.11
498.469	14891.8
498.673	15035.16
498.876	15424.28
499.079	15647.51
499.282	15436.56
499.485	15938.32
499.689	16069.39
499.892	16132.87
500.095	16151.31
500.298	16661.25
500.501	16663.3
500.705	17181.43
500.908	17033.98
501.111	17224.44
501.314	17345.27
501.517	17324.79
501.72	17640.18
501.923	17691.38
502.126	18207.47
502.329	18033.39
502.532	18426.6
502.735	18569.96
502.938	18889.44
503.141	19059.42
503.344	19454.68
503.547	19086.04
503.75	19688.15
503.953	19931.86
504.156	20036.3
504.359	20050.64
504.562	20220.62
504.765	20751.04
504.968	21086.91
505.17	21045.95
505.373	21353.15
505.576	21586.61
505.779	21564.09
505.982	21887.67
506.185	22401.71
506.387	22182.57
506.59	22450.86
506.793	23001.76
506.996	22907.55
507.198	23487.13
507.401	23216.8
507.604	23448.22
507.807	24384.14
508.009	24064.66
508.212	24322.7
508.415	24580.74
508.617	25072.26
508.82	25213.57
509.022	25088.64
509.225	25586.3
509.428	25678.46
509.63	25805.43
509.833	26126.96
510.035	26669.67
510.238	26606.19
510.44	26878.57
510.643	27484.76
510.845	27605.59
511.048	27538.01
511.25	27701.85
511.453	27896.41
511.655	28832.33
511.858	28375.63
512.06	28789.32
512.262	28985.93
512.465	29129.28
512.667	29680.19
512.87	29749.82
513.072	30001.72
513.274	30442.03
513.477	30607.92
513.679	30632.49
513.881	31371.81
514.084	31332.9
514.286	31609.37
514.488	31509.02
514.69	32250.39
514.893	32674.32
515.095	32139.8
515.297	32713.23
515.499	32705.04
515.701	33546.75
515.904	33866.24
516.106	33876.48
516.308	34255.35
516.51	34324.98
516.712	34490.87
516.914	34845.16
517.116	35764.7
517.318	35328.48
517.52	35768.8
517.722	35568.1
517.925	36331.99
518.127	36837.84
518.329	36626.9
518.531	36557.27
518.733	37386.69
518.935	37458.37
519.136	37530.05
519.338	37978.56
519.54	38328.76
519.742	38523.32
519.944	38672.82
520.146	39086.51
520.348	39479.72
520.55	39739.81
520.752	39385.51
520.954	40153.5
521.155	40075.68
521.357	40591.76
521.559	41015.69
521.761	41365.9
521.963	41300.36
522.164	41474.44
522.366	41349.51
522.568	41699.72
522.77	41968
522.971	42250.62
523.173	42168.7
523.375	42776.95
523.576	42725.75
523.778	42779
523.98	43295.08
524.181	43401.58
524.383	43342.19
524.584	43817.32
524.786	43860.32
524.988	43690.34
525.189	44591.45
525.391	44437.85
525.592	44302.68
525.794	44730.71
525.995	44804.44
526.197	44683.61
526.398	44734.81
526.6	45515.08
526.801	45486.41
527.003	45285.71
527.204	45298
527.406	45869.38
527.607	46006.59
527.808	46070.08
528.01	45521.23
528.211	45787.46
528.412	46627.13
528.614	46342.46
528.815	46141.76
529.016	46928.18
529.218	46190.91
529.419	46659.9
529.62	46950.71
529.822	46711.1
530.023	46397.76
530.224	46805.3
530.425	46666.04
530.626	46444.86
530.828	46500.15
531.029	47532.33
531.23	46772.53
531.431	47028.53
531.632	46592.31
531.833	47352.11
532.035	46969.14
532.236	47120.69
532.437	47253.81
532.638	46762.29
532.839	47055.15
533.04	46915.89
533.241	46936.37
533.442	47120.69
533.643	47528.23
533.844	47192.37
534.045	47296.81
534.246	47020.34
534.447	47243.57
534.648	47167.79
534.849	47585.58
535.05	46829.88
535.251	47253.81
535.451	46909.75
535.652	47620.39
535.853	47241.52
536.054	47167.79
536.255	47243.57
536.456	46514.49
536.657	47939.88
536.857	47393.07
537.058	47114.55
537.259	47302.96
537.46	47305.01
537.66	47049.01
537.861	47100.21
538.062	46985.52
538.263	47446.32
538.463	46909.75
538.664	46721.34
538.865	47515.95
539.065	47419.69
539.266	46713.14
539.466	47452.46
539.667	46580.03
539.868	46985.52
540.068	47132.98
540.269	47055.15
540.469	47159.6
540.67	46561.59
540.87	46762.29
541.071	46788.92
541.271	47161.65
541.472	47075.63
541.672	46645.56
541.873	46752.05
542.073	46397.76
542.274	47102.26
542.474	47026.48
542.675	46422.33
542.875	47075.63
543.075	46612.79
543.276	46039.36
543.476	46569.79
543.676	46469.43
543.877	46561.59
544.077	46711.1
544.277	46389.56
544.478	46614.84
544.678	46479.67
544.878	46207.29
545.078	46475.58
545.279	46264.64
545.479	46086.46
545.679	46502.2
545.879	46235.97
546.079	46467.39
546.28	46451
546.48	45715.78
546.68	46346.56
546.88	46289.21
547.08	46737.72
547.28	46532.92
547.48	45470.03
547.68	46348.6
547.88	45748.55
548.081	46301.5
548.281	46209.34
548.481	45893.96
548.681	46569.79
548.881	45791.56
549.081	46324.03
549.28	46076.22
549.48	46422.33
549.68	46012.74
549.88	46537.02
550.08	45637.96
550.28	45791.56
550.48	45967.68
550.68	46500.15
550.88	46172.48
551.08	45842.76
551.279	46070.08
551.479	45631.82
551.679	45943.11
551.879	45855.04
552.079	46080.32
552.278	45726.02
552.478	45846.85
552.678	46096.7
552.878	46070.08
553.077	45449.55
553.277	45011.28
553.477	46180.67
553.676	45455.69
553.876	46012.74
554.076	45439.31
554.275	45627.72
554.475	45429.07
554.674	45771.08
554.874	45674.82
555.074	45744.45
555.273	45625.67
555.473	45597
555.672	45390.16
555.872	45398.35
556.071	45599.05
556.271	45549.9
556.47	45054.29
556.67	45121.87
556.869	45314.38
557.068	45597
557.268	44753.24
557.467	45584.71
557.667	44915.03
557.866	44962.13
558.065	44896.59
558.265	44845.4
558.464	44802.39
558.663	45381.96
558.863	44534.1
559.062	45310.28
559.261	44613.98
559.461	45568.33
559.66	44005.73
559.859	44636.5
560.058	44327.26
560.258	44933.46
560.457	44415.32
560.656	44978.51
560.855	44544.34
561.054	44632.41
561.253	44048.74
561.453	44138.85
561.652	44243.29
561.851	44443.99
562.05	43778.4
562.249	43977.06
562.448	44144.99
562.647	43823.46
562.846	44208.48
563.045	44020.06
563.244	43770.21
563.443	43952.48
563.642	43676.01
563.841	43942.24
564.04	43489.64
564.239	44220.77
564.438	43622.76
564.637	43749.73
564.836	43643.24
565.035	42709.36
565.234	43190.64
565.432	43045.23
565.631	43301.23
565.83	43700.58
566.029	43301.23
566.228	43094.38
566.427	42918.26
566.625	43088.24
566.824	42557.81
567.023	43313.52
567.222	42398.07
567.42	43278.7
567.619	42762.61
567.818	42602.87
568.016	42580.34
568.215	42729.84
568.414	41900.42
568.612	42402.17
568.811	42267
569.01	42350.97
569.208	42133.89
569.407	42062.21
569.605	41679.24
569.804	42285.43
570.002	41853.31
570.201	42262.91
570.4	41755.01
570.598	42084.73
570.797	41505.16
570.995	41636.23
571.193	41283.98
571.392	41845.12
571.59	41413
571.789	41253.26
571.987	41181.58
572.186	41195.92
572.384	40970.64
572.582	41245.07
572.781	41468.3
572.979	40438.17
573.177	40835.47
573.376	40767.89
573.574	40515.99
573.772	40655.25
573.971	40346.01
574.169	40362.39
574.367	40184.22
574.565	40642.96
574.763	40427.93
574.962	39963.04
575.16	39803.3
575.358	40354.2
575.556	39467.43
575.754	40503.7
575.952	39606.69
576.151	40255.9
576.349	39723.43
576.547	39860.64
576.745	39688.61
576.943	39580.07
577.141	39512.49
577.339	39614.88
577.537	39727.52
577.735	39162.28
577.933	39297.45
578.131	39125.42
578.329	39149.99
578.527	38644.15
578.725	38801.84
578.923	39047.6
579.121	38685.11
579.319	38633.91
579.516	38850.99
579.714	38687.15
579.912	38228.41
580.11	38248.89
580.308	38431.16
580.506	37937.6
580.704	37480.9
580.901	38076.86
581.099	38271.42
581.297	37845.44
581.495	37732.8
581.692	37829.05
581.89	37288.39
582.088	38089.15
582.285	37458.37
582.483	37624.26
582.681	37716.42
582.878	36895.18
583.076	37118.41
583.274	37865.92
583.471	36528.59
583.669	36915.66
583.866	36694.48
584.064	36862.41
584.262	36338.13
584.459	36850.13
584.657	36479.44
584.854	36426.2
585.052	35863
585.249	36403.67
585.447	36180.44
585.644	36008.41
585.841	36239.83
586.039	36143.58
586.236	35631.58
586.434	35430.88
586.631	35545.57
586.828	35973.6
587.026	35670.5
587.223	35529.19
587.42	35277.29
587.618	35224.04
587.815	34730.48
588.012	35166.7
588.21	35019.24
588.407	34996.71
588.604	34554.35
588.801	34843.12
588.999	34513.39
589.196	34605.55
589.393	34308.6
589.59	34357.75
589.787	34224.63
589.984	34114.04
590.182	33950.2
590.379	34007.55
590.576	33739.26
590.773	34068.98
590.97	33841.66
591.167	33782.27
591.364	33413.63
591.561	33378.82
591.758	33174.02
591.955	33221.13
592.152	33255.94
592.349	33202.69
592.546	33270.28
592.743	33098.25
592.94	32725.52
593.137	32842.25
593.334	32891.4
593.531	32385.55
593.727	32739.85
593.924	32444.94
594.121	32109.08
594.318	32129.56
594.515	32178.71
594.712	32455.18
594.908	31961.62
595.105	32504.34
595.302	31879.71
595.499	31949.34
595.696	31605.28
595.892	31103.53
596.089	31431.2
596.286	31928.86
596.482	31382.05
596.679	31177.25
596.876	31769.12
597.072	30978.6
597.269	30712.36
597.466	30925.35
597.662	30435.89
597.859	30804.52
598.055	30937.64
598.252	30587.44
598.448	30356.02
598.645	30761.51
598.841	30308.91
599.038	30306.87
599.234	30190.13
599.431	29927.99
599.627	29676.09
599.824	29835.83
600.02	30128.69
600.217	29540.93
600.413	29667.9
600.609	29368.9
600.806	29176.39
601.002	29416
601.198	29282.88
601.395	29026.89
601.591	29100.61
601.787	29186.63
601.984	28971.59
602.18	29585.98
602.376	28580.43
602.572	28709.45
602.769	28678.73
602.965	28465.74
603.161	28320.34
603.357	28381.77
603.553	28140.11
603.75	28217.94
603.946	28068.44
604.142	28299.86
604.338	27556.44
604.534	28174.93
604.73	27560.54
604.926	27630.17
605.122	27757.14
605.318	27173.47
605.514	27542.11
605.71	27388.51
605.906	27288.16
606.102	27486.81
606.298	27320.93
606.494	27189.86
606.69	27124.32
606.886	27314.78
607.082	26942.05
607.278	26536.56
607.474	26468.97
607.67	26870.37
607.866	26550.89
608.062	26796.65
608.257	26548.84
608.453	26616.43
608.649	26673.77
608.845	26550.89
609.041	26366.57
609.236	26712.68
609.432	26208.88
609.628	26253.94
609.824	26206.83
610.019	26241.65
610.215	26180.21
610.411	25918.07
610.606	26008.18
610.802	26217.07
610.998	25758.33
611.193	26153.58
611.389	25774.71
611.584	25913.97
611.78	25623.16
611.976	25586.3
612.171	25410.17
612.367	25619.07
612.562	25549.43
612.758	25424.51
612.953	25514.62
613.149	25637.5
613.344	25440.89
613.539	25557.63
613.735	25383.55
613.93	25340.54
614.126	25391.74
614.321	25645.69
614.517	25125.5
614.712	25160.32
614.907	25143.94
615.103	25328.25
615.298	25019.01
615.493	25401.98
615.688	24758.92
615.884	25082.5
616.079	24980.1
616.274	24951.43
616.47	24615.56
616.665	24550.03
616.86	24908.42
617.055	24842.88
617.25	24627.85
617.445	24662.66
617.641	24451.72
617.836	24742.53
618.031	23896.72
618.226	24314.51
618.421	24093.33
618.616	24312.46
618.811	23954.07
619.006	24363.66
619.201	23560.86
619.396	23474.84
619.591	23487.13
619.786	23669.4
619.981	23306.91
620.176	23577.24
620.371	23173.79
620.566	23114.4
620.761	22762.15
620.956	23161.5
621.151	22839.97
621.346	22698.66
621.541	22659.75
621.735	22792.87
621.93	22340.27
622.125	22528.68
622.32	21916.34
622.515	22186.67
622.709	21918.39
622.904	22100.65
623.099	21801.65
623.294	21930.67
623.488	21768.88
623.683	21596.85
623.878	21285.56
624.072	21254.84
624.267	21131.97
624.462	21203.64
624.656	20931.26
624.851	20945.6
625.046	20900.55
625.24	20828.87
625.435	20333.26
625.629	20400.84
625.824	19944.14
626.018	20191.95
626.213	20030.16
626.407	19952.34
626.602	19794.64
626.796	19987.15
626.991	19964.62
627.185	19501.78
627.38	19608.28
627.574	19464.92
627.768	19247.83
627.963	19116.76
628.157	19004.13
628.352	19086.04
628.546	18668.26
628.74	18801.38
628.935	18488.04
629.129	18227.95
629.323	18352.87
629.517	18254.57
629.712	18326.25
629.906	17998.57
630.1	17971.95
630.294	17965.81
630.489	17957.61
630.683	17855.22
630.877	17566.45
631.071	17482.49
631.265	17468.15
631.459	17406.71
631.653	17087.23
631.848	17408.76
632.042	17119.99
632.236	16935.68
632.43	16915.2
632.624	17001.21
632.818	16761.6
633.012	16579.33
633.206	16614.15
633.4	16716.54
633.594	16397.06
633.788	16546.56
633.982	16620.29
634.176	16331.53
634.369	16194.31
634.563	16272.14
634.757	16085.77
634.951	16059.15
635.145	15858.45
635.339	15766.29
635.533	15825.68
635.726	15731.47
635.92	15381.27
636.114	15696.66
636.308	15477.52
636.501	15229.72
636.695	15344.41
636.889	15254.3
637.083	15211.29
637.276	14930.72
637.47	14687.01
637.664	15000.35
637.857	14947.1
638.051	14588.71
638.244	14689.06
638.438	14547.75
638.632	14502.69
638.825	14306.09
639.019	14261.03
639.212	14332.71
639.406	14345
639.599	14127.91
639.793	14086.95
639.986	13890.35
640.18	13994.79
640.373	13716.27
640.567	13753.13
640.76	13634.35
640.954	13767.47
641.147	13554.48
641.34	13497.14
641.534	13386.55
641.727	13699.89
641.92	13427.51
642.114	13130.55
642.307	13210.42
642.5	13060.92
642.694	12821.31
642.887	12856.12
643.08	12962.62
643.273	12772.16
643.467	12829.5
643.66	12612.42
643.853	12657.47
644.046	12544.83
644.239	12411.71
644.432	12561.22
644.626	12411.71
644.819	12264.26
645.012	12452.67
645.205	12393.28
645.398	12190.53
645.591	12198.73
645.784	12116.81
645.977	11875.15
646.17	12053.32
646.363	11703.12
646.556	11729.74
646.749	11805.52
646.942	11715.41
647.135	11314
647.328	11760.46
647.521	11455.31
647.714	11375.44
647.907	11346.77
648.099	11266.9
648.292	11227.99
648.485	11080.53
648.678	11039.58
648.871	11019.1
649.064	10988.38
649.256	11021.14
649.449	10971.99
649.642	10902.36
649.835	10652.51
650.027	10783.58
650.22	10654.56
650.413	10668.89
650.605	10593.12
650.798	10490.72
650.991	10380.13
651.183	10546.02
651.376	10386.27
651.568	10296.16
651.761	10244.96
651.954	9972.58
652.146	10091.37
652.339	10259.3
652.531	10038.12
652.724	10136.42
652.916	9767.79
653.109	9802.6
653.301	9968.49
653.494	9716.59
653.686	9644.91
653.879	9722.73
654.071	9747.31
654.263	9458.54
654.456	9665.39
654.648	9532.27
654.84	9251.7
655.033	9448.3
655.225	9372.53
655.417	9216.88
655.61	9190.26
655.802	9317.23
655.994	9130.87
656.186	9233.27
656.379	8891.26
656.571	8854.39
656.763	8872.82
656.955	8809.34
657.148	8846.2
657.34	8731.51
657.532	8786.81
657.724	8751.99
657.916	8708.99
658.108	8743.8
658.3	8600.44
658.492	8590.2
658.684	8469.37
658.876	8315.78
659.068	8442.75
659.26	8332.16
659.452	8387.46
659.644	8160.13
659.836	8227.71
660.028	8481.66
660.22	8008.58
660.412	8131.46
660.604	7984.01
660.796	8080.26
660.988	8096.64
661.18	7969.67
661.372	7908.23
661.563	7938.95
661.755	7811.98
661.947	7719.82
662.139	8033.16
662.331	7623.56
662.522	7498.64
662.714	7674.76
662.906	7508.88
663.097	7695.24
663.289	7533.45
663.481	7453.58
663.673	7402.38
663.864	7429.01
664.056	7271.31
664.247	7250.83
664.439	7170.96
664.631	7218.07
664.822	7144.34
665.014	7185.3
665.205	7121.81
665.397	7191.44
665.588	7201.68
665.78	6882.2
665.971	7056.28
666.163	6857.62
666.354	6982.55
666.546	6691.74
666.737	6716.31
666.929	6861.72
667.12	6808.47
667.311	6878.1
667.503	6851.48
667.694	6722.46
667.885	6605.72
668.077	6599.58
668.268	6433.69
668.459	6532
668.651	6511.52
668.842	6505.37
669.033	6550.43
669.224	6390.69
669.416	6362.01
669.607	6497.18
669.798	6185.89
669.989	6359.97
670.18	6415.26
670.371	6296.48
670.563	6216.61
670.754	6296.48
670.945	6189.99
671.136	6087.59
671.327	6101.92
671.518	6013.86
671.709	6015.91
671.9	6140.83
672.091	6140.83
672.282	5968.8
672.473	5911.46
672.664	5940.13
672.855	5809.06
673.046	5735.34
673.237	6050.72
673.428	5809.06
673.619	5829.54
673.809	5821.35
674	5616.55
674.191	5639.08
674.382	5680.04
674.573	5733.29
674.764	5571.5
674.954	5680.04
675.145	5583.79
675.336	5510.06
675.527	5518.25
675.717	5426.09
675.908	5524.4
676.099	5491.63
676.289	5442.48
676.48	5319.6
676.671	5360.56
676.861	5413.81
677.052	5243.82
677.243	5323.69
677.433	5215.15
677.624	5321.65
677.814	5295.02
678.005	5307.31
678.195	5270.45
678.386	5067.7
678.576	5231.54
678.767	5039.03
678.957	5108.66
679.148	5122.99
679.338	5241.78
679.529	5047.22
679.719	4936.63
679.909	5075.89
680.1	4950.96
680.29	5217.2
680.481	4783.03
680.671	5016.5
680.861	4844.47
681.052	5043.12
681.242	4836.28
681.432	4912.05
681.622	4801.46
681.813	4783.03
682.003	4912.05
682.193	4756.41
682.383	4922.29
682.573	4715.45
682.764	4713.4
682.954	4707.26
683.144	4813.75
683.334	4623.29
683.524	4905.91
683.714	4817.85
683.904	4613.05
684.094	4697.02
684.284	4588.47
684.474	4891.57
684.664	4682.68
684.854	4711.35
685.044	4563.9
685.234	4576.19
685.424	4563.9
685.614	4481.98
685.804	4486.08
685.994	4500.41
686.184	4533.18
686.374	4481.98
686.564	4316.09
686.753	4477.88
686.943	4223.94
687.133	4467.64
687.323	4570.04
687.513	4430.78
687.702	4436.92
687.892	4330.43
688.082	4099.01
688.272	4301.76
688.461	4213.7
688.651	4242.37
688.841	4150.21
689.03	4156.35
689.22	4250.56
689.41	4025.28
689.599	4086.72
689.789	4006.85
689.979	4017.09
690.168	4000.71
690.358	4072.39
690.547	3904.45
690.737	4062.15
690.926	3888.07
691.116	3922.88
691.305	4060.1
691.495	3863.49
691.684	3974.08
691.874	3789.77
692.063	3838.92
692.252	3746.76
692.442	3865.54
692.631	3757
692.82	3707.85
693.01	3632.07
693.199	3613.64
693.388	3748.81
693.578	3646.41
693.767	3566.54
693.956	3732.42
694.146	3519.43
694.335	3630.02
694.524	3568.59
694.713	3546.06
694.902	3515.34
695.092	3478.47
695.281	3484.62
695.47	3515.34
695.659	3458
695.848	3431.37
696.037	3498.95
696.226	3478.47
696.415	3445.71
696.604	3398.6
696.793	3320.78
696.982	3343.31
697.171	3351.5
697.36	3316.69
697.549	3335.12
697.738	3288.01
697.927	3189.71
698.116	3351.5
698.305	3208.14
698.494	3144.66
698.683	3249.1
698.872	3347.4
699.061	3175.38
699.25	3218.38
699.438	3056.59
699.627	3081.17
699.816	3167.18
700.005	3099.6
700.193	3193.81
700.382	3232.72
700.571	3019.73
700.76	3050.45
700.948	3163.09
701.137	3021.78
701.326	2980.82
701.514	3064.79
701.703	3095.5
701.892	3124.18
702.08	3120.08
702.269	2921.43
702.457	2816.98
702.646	3025.87
702.834	2917.33
703.023	2788.31
703.212	3091.41
703.4	2862.04
703.589	2882.52
703.777	2956.24
703.965	2816.98
704.154	2931.67
704.342	2835.41
704.531	2931.67
704.719	2765.78
704.907	2905.04
705.096	2814.93
705.284	2776.02
705.472	2743.25
705.661	2776.02
705.849	2712.53
706.037	2714.58
706.226	2810.84
706.414	2784.21
706.602	2743.25
706.79	2878.42
706.979	2724.82
707.167	2816.98
707.355	2675.67
707.543	2657.24
707.731	2708.44
707.919	2739.16
708.107	2667.48
708.296	2626.52
708.484	2681.82
708.672	2603.99
708.86	2704.34
709.048	2735.06
709.236	2665.43
709.424	2716.63
709.612	2603.99
709.8	2665.43
709.988	2585.56
710.176	2657.24
710.364	2577.37
710.551	2638.81
710.739	2577.37
710.927	2585.56
711.115	2589.66
711.303	2698.2
711.491	2524.12
711.679	2474.97
711.866	2563.03
712.054	2589.66
712.242	2573.27
712.43	2614.23
712.617	2442.2
712.805	2444.25
712.993	2511.83
713.181	2622.42
713.368	2538.46
713.556	2581.46
713.744	2427.87
713.931	2597.85
714.119	2550.75
714.306	2436.06
714.494	2524.12
714.682	2481.11
714.869	2417.63
715.057	2528.22
715.244	2458.59
715.432	2345.95
715.619	2542.55
715.807	2477.02
715.994	2477.02
716.182	2485.21
716.369	2520.03
716.556	2446.3
716.744	2491.35
716.931	2460.63
717.119	2397.15
717.306	2386.91
717.493	2380.76
717.681	2587.61
717.868	2368.48
718.055	2341.85
718.242	2409.44
718.43	2370.52
718.617	2479.07
718.804	2391
718.991	2393.05
719.179	2321.37
719.366	2429.91
719.553	2319.32
719.74	2348
719.927	2411.48
720.114	2380.76
720.301	2204.64
720.488	2257.89
720.676	2393.05
720.863	2378.72
721.05	2335.71
721.237	2440.15
721.424	2350.04
721.611	2241.5
721.798	2255.84
721.985	2259.93
722.172	2261.98
722.358	2360.28
722.545	2378.72
722.732	2304.99
722.919	2239.45
723.106	2331.61
723.293	2309.08
723.48	2397.15
723.667	2323.42
723.853	2325.47
724.04	2264.03
724.227	2304.99
724.414	2304.99
724.6	2186.21
724.787	2288.61
724.974	2403.29
725.161	2393.05
725.347	2329.56
725.534	2272.22
725.72	2352.09
725.907	2237.41
726.094	2384.86
726.28	2194.4
726.467	2403.29
726.653	2296.8
726.84	2225.12
727.027	2356.19
727.213	2161.63
727.4	2386.91
727.586	2204.64
727.773	2333.66
727.959	2364.38
728.145	2292.7
728.332	2253.79
728.518	2212.83
728.705	2280.41
728.891	2251.74
729.077	2401.24
729.264	2261.98
729.45	2304.99
729.636	2280.41
729.823	2257.89
730.009	2194.4
730.195	2331.61
730.382	2286.56
730.568	2257.89
730.754	2384.86
730.94	2360.28
731.126	2255.84
731.313	2286.56
731.499	2155.49
731.685	2284.51
731.871	2300.89
732.057	2227.17
732.243	2350.04
732.429	2315.23
732.615	2276.32
732.801	2372.57
732.987	2327.52
733.173	2194.4
733.359	2243.55
733.545	2249.69
733.731	2290.65
733.917	2413.53
734.103	2284.51
734.289	2278.37
734.475	2360.28
734.661	2317.28
734.847	2294.75
735.033	2388.96
735.219	2327.52
735.404	2259.93
735.59	2337.76
735.776	2194.4
735.962	2302.94
736.148	2374.62
736.333	2210.78
736.519	2259.93
736.705	2327.52
736.89	2243.55
737.076	2266.08
737.262	2218.97
737.447	2190.3
737.633	2372.57
737.819	2257.89
738.004	2218.97
738.19	2202.59
738.375	2128.86
738.561	2288.61
738.747	2296.8
738.932	2239.45
739.118	2348
739.303	2307.04
739.489	2253.79
739.674	2276.32
739.859	2163.68
740.045	2266.08
740.23	2231.26
740.416	2251.74
740.601	2290.65
740.786	2221.02
740.972	2290.65
741.157	2202.59
741.342	2184.16
741.528	2112.48
741.713	2182.11
741.898	2202.59
742.084	2235.36
742.269	2292.7
742.454	2282.46
742.639	2282.46
742.824	2165.73
743.01	2145.25
743.195	2249.69
743.38	2350.04
743.565	2145.25
743.75	2270.17
743.935	2341.85
744.12	2218.97
744.305	2089.95
744.49	2135.01
744.675	2178.01
744.86	2157.54
745.045	2159.58
745.23	2190.3
745.415	2108.38
745.6	2194.4
745.785	2171.87
745.97	2102.24
746.155	2171.87
746.34	2126.82
746.525	2132.96
746.71	2104.29
746.895	2028.51
747.079	2092
747.264	2096.1
747.449	2024.42
747.634	2137.06
747.819	1987.55
748.003	2030.56
748.188	2024.42
748.373	2003.94
748.557	1995.75
748.742	1907.68
748.927	2051.04
749.111	1997.79
749.296	1821.67
749.481	1999.84
749.665	1989.6
749.85	1940.45
750.034	2022.37
750.219	1887.2
750.404	1891.3
750.588	1864.68
750.773	1876.96
750.957	1956.83
751.141	1809.38
751.326	1901.54
751.51	1764.33
751.695	1899.49
751.879	1860.58
752.064	1868.77
752.248	1823.72
752.432	1860.58
752.617	1663.97
752.801	1844.2
752.985	1741.8
753.17	1809.38
753.354	1747.94
753.538	1817.57
753.722	1725.41
753.907	1633.26
754.091	1741.8
754.275	1680.36
754.459	1725.41
754.643	1623.02
754.828	1616.87
755.012	1618.92
755.196	1565.67
755.38	1565.67
755.564	1629.16
755.748	1594.34
755.932	1676.26
756.116	1606.63
756.3	1573.86
756.484	1637.35
756.668	1551.34
756.852	1534.95
757.036	1588.2
757.22	1559.53
757.404	1493.99
757.588	1522.66
757.772	1524.71
757.956	1465.32
758.14	1553.38
758.323	1522.66
758.507	1483.75
758.691	1487.85
758.875	1528.81
759.059	1479.66
759.242	1397.74
759.426	1403.88
759.61	1444.84
759.794	1446.89
759.977	1473.51
760.161	1498.09
760.345	1391.59
760.528	1362.92
760.712	1369.07
760.895	1287.15
761.079	1387.5
761.263	1393.64
761.446	1360.88
761.63	1297.39
761.813	1395.69
761.997	1305.58
762.18	1448.94
762.364	1272.81
762.547	1291.24
762.731	1285.1
762.914	1291.24
763.098	1283.05
763.281	1264.62
763.464	1321.96
763.648	1350.64
763.831	1283.05
764.015	1184.75
764.198	1268.72
764.381	1295.34
764.564	1217.52
764.748	1215.47
764.931	1260.52
765.114	1301.48
765.297	1274.86
765.481	1115.12
765.664	1258.48
765.847	1283.05
766.03	1293.29
766.213	1215.47
766.397	1291.24
766.58	1258.48
766.763	1268.72
766.946	1235.95
767.129	1174.51
767.312	1209.33
767.495	1102.83
767.678	1088.5
767.861	1147.89
768.044	1139.69
768.227	1145.84
768.41	1119.21
768.593	1149.93
768.776	1072.11
768.959	1119.21
769.142	1156.08
769.324	1160.17
769.507	1037.3
769.69	1123.31
769.873	1119.21
770.056	1154.03
770.239	1043.44
770.421	1213.42
770.604	1111.02
770.787	1127.41
770.97	1022.96
771.152	1031.15
771.335	1141.74
771.518	982
771.7	1102.83
771.883	1094.64
772.066	984.05
772.248	1192.94
772.431	1059.82
772.613	1090.54
772.796	1008.62
772.978	959.47
773.161	1074.16
773.343	1070.06
773.526	988.14
773.708	1000.43
773.891	945.14
774.073	998.38
774.256	1004.53
774.438	1043.44
774.621	967.67
774.803	967.67
774.985	865.27
775.168	945.14
775.35	965.62
775.532	990.19
775.715	914.42
775.897	893.94
776.079	787.44
776.261	904.18
776.444	928.75
776.626	941.04
776.808	865.27
776.99	881.65
777.173	949.23
777.355	828.4
777.537	945.14
777.719	891.89
777.901	885.75
778.083	795.64
778.265	713.72
778.447	875.51
778.629	779.25
778.811	865.27
778.993	881.65
779.175	766.96
779.357	830.45
779.539	787.44
779.721	803.83
779.903	834.55
780.085	773.11
780.267	707.57
780.449	721.91
780.631	758.77
780.812	832.5
780.994	711.67
781.176	740.34
781.358	740.34
781.54	705.53
781.721	822.26
781.903	678.9
782.085	607.22
782.267	791.54
782.448	660.47
782.63	658.42
782.812	764.92
782.993	658.42
783.175	635.89
783.357	562.17
783.538	683
783.72	642.04
783.901	635.89
784.083	627.7
784.264	578.55
784.446	625.65
784.627	652.28
784.809	652.28
784.99	644.09
785.172	678.9
785.353	646.13
785.535	590.84
785.716	578.55
785.897	539.64
786.079	547.83
786.26	541.69
786.441	660.47
786.623	605.17
786.804	543.74
786.985	605.17
787.167	582.65
787.348	517.11
787.529	480.25
787.71	590.84
787.891	553.98
788.073	586.74
788.254	576.5
788.435	574.46
788.616	543.74
788.797	478.2
788.978	527.35
789.159	427
789.34	451.58
789.522	545.78
789.703	506.87
789.884	474.1
790.065	472.06
790.246	474.1
790.427	476.15
790.607	463.86
790.788	525.3
790.969	404.47
791.15	525.3
791.331	441.34
791.512	406.52
791.693	424.95
791.874	467.96
792.054	465.91
792.235	465.91
792.416	451.58
792.597	336.89
792.778	437.24
792.958	457.72
793.139	410.62
793.32	484.34
793.5	435.19
793.681	474.1
793.862	404.47
794.042	416.76
794.223	312.32
794.404	490.49
794.584	334.84
794.765	338.94
794.945	431.1
795.126	390.14
795.306	457.72
795.487	416.76
795.667	392.19
795.848	472.06
796.028	474.1
796.209	396.28
796.389	326.65
796.57	334.84
796.75	375.8
796.93	408.57
797.111	371.71
797.291	312.32
797.471	367.61
797.652	343.03
797.832	261.12
798.012	441.34
798.192	383.99
798.373	400.38
798.553	326.65
798.733	441.34
798.913	300.03
799.093	297.98
799.274	310.27
799.454	310.27
799.634	349.18
799.814	386.04
799.994	312.32
800.174	316.41
800.354	347.13
800.534	345.08
800.714	287.74
800.894	281.6
801.074	269.31
801.254	320.51
801.434	345.08
801.614	269.31
801.794	250.88
801.974	1018.86
802.154	281.6
802.334	199.68
802.514	226.3
802.693	351.23
802.873	244.73
803.053	318.46
803.233	291.84
803.413	338.94
803.592	314.36
803.772	263.16
803.952	355.32
804.131	314.36
804.311	310.27
804.491	369.66
804.67	310.27
804.85	271.36
805.03	277.5
805.209	291.84
805.389	259.07
805.568	171.01
805.748	281.6
805.928	244.73
806.107	246.78
806.287	322.56
806.466	248.83
806.646	226.3
806.825	259.07
807.004	111.61
807.184	293.88
807.363	269.31
807.543	306.17
807.722	269.31
807.901	205.82
808.081	332.79
808.26	140.29
808.439	222.2
808.619	244.73
808.798	220.16
808.977	232.44
809.156	279.55
809.336	209.92
809.515	230.4
809.694	146.43
809.873	228.35
810.052	273.4
810.231	250.88
810.411	295.93
810.59	197.63
810.769	203.77
810.948	306.17
811.127	160.77
811.306	162.81
811.485	236.54
811.664	234.49
811.843	265.21
812.022	232.44
812.201	187.39
812.38	193.53
812.559	138.24
812.737	187.39
812.916	195.58
813.095	205.82
813.274	191.49
813.453	269.31
813.632	283.64
813.811	250.88
813.989	197.63
814.168	195.58
814.347	138.24
814.526	279.55
814.704	273.4
814.883	238.59
815.062	181.25
815.24	232.44
815.419	164.86
815.598	209.92
815.776	193.53
815.955	254.97
816.133	166.91
816.312	211.96
816.49	166.91
816.669	175.1
816.847	177.15
817.026	203.77
817.204	164.86
817.383	166.91
817.561	177.15
817.74	160.77
817.918	173.05
818.097	144.38
818.275	144.38
818.453	203.77
818.632	230.4
818.81	140.29
818.988	216.06
819.167	101.37
819.345	144.38
819.523	185.34
819.701	183.29
819.879	205.82
820.058	160.77
820.236	181.25
820.414	140.29
820.592	183.29
820.77	87.04
820.948	128
821.127	140.29
821.305	207.87
821.483	111.61
821.661	132.09
821.839	111.61
822.017	146.43
822.195	121.85
822.373	203.77
822.551	173.05
822.729	179.2
822.907	156.67
823.085	113.66
823.262	171.01
823.44	125.95
823.618	148.48
823.796	166.91
823.974	87.04
824.152	164.86
824.329	160.77
824.507	173.05
824.685	179.2
824.863	123.9
825.04	158.72
825.218	154.62
825.396	87.04
825.574	164.86
825.751	148.48
825.929	117.76
826.107	39.94
826.284	136.19
826.462	150.53
826.639	70.65
826.817	103.42
826.994	138.24
827.172	185.34
827.349	146.43
827.527	109.57
827.704	130.05
827.882	136.19
828.059	128
828.237	70.65
828.414	158.72
828.591	11.26
828.769	111.61
828.946	105.47
829.124	173.05
829.301	121.85
829.478	156.67
829.655	152.57
829.833	160.77
830.01	103.42
830.187	132.09
830.364	62.46
830.542	121.85
830.719	187.39
830.896	121.85
831.073	70.65
831.25	166.91
831.427	144.38
831.604	216.06
831.782	87.04
831.959	121.85
832.136	146.43
832.313	185.34
832.49	95.23
832.667	160.77
832.844	150.53
833.021	101.37
833.198	121.85
833.374	136.19
833.551	107.52
833.728	138.24
833.905	91.13
834.082	62.46
834.259	74.75
834.436	58.37
834.612	99.33
834.789	154.62
834.966	164.86
835.143	119.81
835.319	78.85
835.496	152.57
835.673	203.77
835.85	119.81
836.026	140.29
836.203	154.62
836.38	35.84
836.556	87.04
836.733	62.46
836.909	128
837.086	82.94
837.262	82.94
837.439	64.51
837.616	125.95
837.792	128
837.968	179.2
838.145	138.24
838.321	103.42
838.498	138.24
838.674	144.38
838.851	119.81
839.027	93.18
839.203	60.42
839.38	78.85
839.556	103.42
839.732	72.7
839.909	70.65
840.085	113.66
840.261	70.65
840.437	95.23
840.614	80.89
840.79	101.37
840.966	91.13
841.142	29.7
841.318	84.99
841.494	115.71
841.671	158.72
841.847	91.13
842.023	58.37
842.199	70.65
842.375	39.94
842.551	31.74
842.727	99.33
842.903	56.32
843.079	39.94
843.255	93.18
843.431	91.13
843.607	95.23
843.783	84.99
843.959	146.43
844.134	68.61
844.31	78.85
844.486	3.07
844.662	68.61
844.838	134.14
845.013	23.55
845.189	134.14
845.365	39.94
845.541	44.03
845.716	11.26
845.892	144.38
846.068	72.7
846.244	80.89
846.419	66.56
846.595	46.08
846.77	-3.07
846.946	89.09
847.122	9.22
847.297	62.46
847.473	99.33
847.648	13.31
847.824	64.51
847.999	-13.31
848.175	78.85
848.35	91.13
848.526	93.18
848.701	50.18
848.876	113.66
849.052	148.48
849.227	19.46
849.403	80.89
849.578	80.89
849.753	29.7
849.929	103.42
850.104	-19.46
850.279	64.51
850.454	35.84
850.63	78.85
850.805	68.61
850.98	93.18
851.155	66.56
851.33	66.56
851.505	33.79
851.681	39.94
851.856	-3.07
852.031	54.27
852.206	89.09
852.381	3.07
852.556	39.94
852.731	-9.22
852.906	80.89
853.081	78.85
853.256	119.81
853.431	-66.56
853.606	23.55
853.781	5.12
853.956	-3.07
854.131	15.36
854.305	25.6
854.48	44.03
854.655	39.94
854.83	89.09
855.005	46.08
855.18	54.27
855.354	52.22
855.529	62.46
855.704	101.37
855.879	68.61
856.053	93.18
856.228	93.18
856.403	15.36
856.577	78.85
856.752	25.6
856.926	78.85
857.101	78.85
857.276	-39.94
857.45	58.37
857.625	93.18
857.799	1.02
857.974	64.51
858.148	37.89
858.323	101.37
858.497	19.46
858.672	58.37
858.846	-50.18
859.02	105.47
859.195	54.27
859.369	95.23
859.543	68.61
859.718	87.04
859.892	91.13
860.066	66.56
860.241	-15.36
860.415	54.27
860.589	-25.6
860.763	111.61
860.938	101.37
861.112	89.09
861.286	13.31
861.46	82.94
861.634	25.6
861.808	95.23
861.982	9.22
862.157	60.42
862.331	74.75
862.505	82.94
862.679	48.13
862.853	54.27
863.027	29.7
863.201	70.65
863.375	11.26
863.549	1.02
863.722	89.09
863.896	70.65
864.07	35.84
864.244	52.22
864.418	31.74
864.592	19.46
864.766	-3.07
864.939	50.18
865.113	89.09
865.287	44.03
865.461	-11.26
865.634	74.75
865.808	-5.12
865.982	41.98
866.156	1.02
866.329	44.03
866.503	46.08
866.676	54.27
866.85	80.89
867.024	27.65
867.197	62.46
867.371	66.56
867.544	-17.41
867.718	72.7
867.891	7.17
868.065	99.33
868.238	-27.65
868.412	76.8
868.585	21.5
868.759	68.61
868.932	19.46
869.105	21.5
869.279	29.7
869.452	-27.65
869.625	64.51
869.799	50.18
869.972	80.89
870.145	37.89
870.319	103.42
870.492	19.46
870.665	-11.26
870.838	39.94
871.011	-72.7
871.185	1.02
871.358	23.55
871.531	62.46
871.704	5.12
871.877	29.7
872.05	19.46
872.223	44.03
872.396	60.42
872.569	13.31
872.742	3.07
872.915	107.52
873.088	44.03
873.261	13.31
873.434	56.32
873.607	107.52
873.78	66.56
873.953	7.17
874.126	5.12
874.299	37.89
874.471	3.07
874.644	84.99
874.817	35.84
874.99	58.37
875.163	-19.46
875.335	7.17
875.508	103.42
875.681	134.14
875.853	-25.6
876.026	15.36
876.199	-66.56
876.371	31.74
876.544	25.6
876.717	-29.7
876.889	-37.89
877.062	-7.17
877.234	37.89
877.407	60.42
877.579	68.61
877.752	33.79
877.924	-9.22
878.097	89.09
878.269	74.75
878.442	121.85
878.614	27.65
878.786	50.18
878.959	15.36
879.131	48.13
879.303	21.5
879.476	82.94
879.648	41.98
879.82	9.22
879.993	23.55
880.165	-25.6
880.337	-76.8
880.509	72.7
880.681	-27.65
880.854	54.27
881.026	74.75
881.198	39.94
881.37	66.56
881.542	-19.46
881.714	107.52
881.886	70.65
882.058	48.13
882.23	84.99
882.402	60.42
882.574	70.65
882.746	80.89
882.918	46.08
883.09	31.74
883.262	31.74
883.434	78.85
883.606	29.7
883.778	-37.89
883.95	80.89
884.122	31.74
884.293	97.28
884.465	35.84
884.637	74.75
884.809	9.22
884.98	37.89
885.152	46.08
885.324	60.42
885.496	66.56
885.667	-15.36
885.839	39.94
886.011	72.7
886.182	11.26
886.354	-39.94
886.525	44.03
886.697	87.04
886.869	-17.41
887.04	62.46
887.212	66.56
887.383	84.99
887.555	37.89
887.726	78.85
887.897	5.12
888.069	54.27
888.24	107.52
888.412	-23.55
888.583	19.46
888.754	64.51
888.926	15.36
889.097	27.65
889.268	13.31
889.44	-33.79
889.611	-7.17
889.782	62.46
889.953	39.94
890.125	74.75
890.296	-23.55
890.467	-29.7
890.638	37.89
890.809	3.07
890.98	-21.5
891.151	89.09
891.323	37.89
891.494	54.27
891.665	-44.03
891.836	-44.03
892.007	15.36
892.178	44.03
892.349	19.46
892.52	-76.8
892.691	-17.41
892.862	35.84
893.032	-19.46
893.203	-9.22
893.374	-37.89
893.545	105.47
893.716	1.02
893.887	66.56
894.057	5.12
894.228	54.27
894.399	-58.37
894.57	119.81
894.74	80.89
894.911	-7.17
895.082	17.41
895.253	19.46
895.423	-9.22
895.594	44.03
895.764	56.32
895.935	48.13
896.106	68.61
896.276	21.5
896.447	9.22
896.617	89.09
896.788	23.55
896.958	48.13
897.129	-46.08
897.299	-5.12
897.47	87.04
897.64	25.6
897.81	37.89
897.981	66.56
898.151	48.13
898.322	46.08
898.492	80.89
898.662	-11.26
898.832	56.32
899.003	13.31
899.173	-1.02
899.343	29.7
899.513	33.79
