Data from USB4F104151__19__12-41-04-316.txt Node

Date: Fri Mar 14 12:41:04 EDT 2025
User: louis
Spectrometer: USB4F10415
Trigger mode: 4
Integration Time (sec): 3.000000E-2
Scans to average: 1
Electric dark correction enabled: true
Nonlinearity correction enabled: false
Boxcar width: 0
XAxis mode: Wavelengths
Number of Pixels in Spectrum: 3648
>>>>>Begin Spectral Data<<<<<
178.204	-181.25
178.424	-181.25
178.644	-181.25
178.864	-89.09
179.084	-158.72
179.304	11.26
179.524	-11.26
179.744	31.74
179.964	15.36
180.184	-11.26
180.404	23.55
180.624	-7.17
180.844	1.02
181.064	-37.89
181.283	-7.17
181.503	-13.31
181.723	5.12
181.943	-78.85
182.163	138.24
182.383	-1.02
182.602	48.13
182.822	62.46
183.042	1.02
183.262	23.55
183.482	-13.31
183.701	44.03
183.921	-1.02
184.141	-27.65
184.361	-1.02
184.58	-11.26
184.8	46.08
185.02	-27.65
185.239	23.55
185.459	27.65
185.679	-1.02
185.898	-74.75
186.118	54.27
186.338	74.75
186.557	-64.51
186.777	-31.74
186.997	9.22
187.216	-31.74
187.436	5.12
187.655	23.55
187.875	1.02
188.095	27.65
188.314	50.18
188.534	70.65
188.753	13.31
188.973	9.22
189.192	25.6
189.412	-5.12
189.631	82.94
189.851	-5.12
190.07	21.5
190.29	-99.33
190.509	52.22
190.729	7.17
190.948	74.75
191.168	89.09
191.387	95.23
191.607	15.36
191.826	37.89
192.045	15.36
192.265	-17.41
192.484	27.65
192.704	15.36
192.923	5.12
193.142	128
193.362	62.46
193.581	15.36
193.8	31.74
194.02	-3.07
194.239	41.98
194.458	13.31
194.678	-52.22
194.897	-17.41
195.116	13.31
195.335	17.41
195.555	48.13
195.774	27.65
195.993	13.31
196.212	-19.46
196.432	-35.84
196.651	-21.5
196.87	-41.98
197.089	31.74
197.308	-46.08
197.528	11.26
197.747	-27.65
197.966	-1.02
198.185	95.23
198.404	-11.26
198.623	39.94
198.842	56.32
199.062	-7.17
199.281	54.27
199.5	97.28
199.719	-64.51
199.938	27.65
200.157	5.12
200.376	19.46
200.595	82.94
200.814	-1.02
201.033	33.79
201.252	54.27
201.471	87.04
201.69	46.08
201.909	76.8
202.128	-64.51
202.347	-17.41
202.566	13.31
202.785	-27.65
203.004	31.74
203.223	54.27
203.442	58.37
203.661	-62.46
203.879	17.41
204.098	54.27
204.317	-19.46
204.536	74.75
204.755	-29.7
204.974	76.8
205.193	23.55
205.411	46.08
205.63	13.31
205.849	15.36
206.068	23.55
206.287	-70.65
206.505	52.22
206.724	-25.6
206.943	-19.46
207.162	-37.89
207.381	21.5
207.599	41.98
207.818	35.84
208.037	41.98
208.255	-17.41
208.474	-29.7
208.693	48.13
208.911	37.89
209.13	-27.65
209.349	52.22
209.567	52.22
209.786	46.08
210.005	5.12
210.223	17.41
210.442	-5.12
210.661	-56.32
210.879	23.55
211.098	62.46
211.316	33.79
211.535	-11.26
211.753	37.89
211.972	84.99
212.191	-7.17
212.409	-9.22
212.628	80.89
212.846	29.7
213.065	11.26
213.283	-3.07
213.502	29.7
213.72	44.03
213.938	-25.6
214.157	-35.84
214.375	31.74
214.594	23.55
214.812	-11.26
215.031	-39.94
215.249	-13.31
215.467	33.79
215.686	-41.98
215.904	76.8
216.122	64.51
216.341	17.41
216.559	13.31
216.778	-13.31
216.996	9.22
217.214	23.55
217.432	25.6
217.651	-13.31
217.869	-31.74
218.087	-1.02
218.306	25.6
218.524	78.85
218.742	-9.22
218.96	-5.12
219.179	-74.75
219.397	37.89
219.615	87.04
219.833	-15.36
220.051	-27.65
220.27	5.12
220.488	37.89
220.706	5.12
220.924	-17.41
221.142	3.07
221.36	-11.26
221.578	7.17
221.796	-15.36
222.015	-3.07
222.233	52.22
222.451	-3.07
222.669	9.22
222.887	21.5
223.105	5.12
223.323	-35.84
223.541	-11.26
223.759	31.74
223.977	-17.41
224.195	11.26
224.413	-56.32
224.631	72.7
224.849	-1.02
225.067	54.27
225.285	-21.5
225.503	-5.12
225.721	-70.65
225.939	70.65
226.157	44.03
226.375	74.75
226.592	-19.46
226.81	25.6
227.028	15.36
227.246	76.8
227.464	11.26
227.682	107.52
227.9	58.37
228.117	9.22
228.335	27.65
228.553	-35.84
228.771	-15.36
228.989	11.26
229.206	-52.22
229.424	5.12
229.642	-27.65
229.86	-11.26
230.077	64.51
230.295	76.8
230.513	37.89
230.731	74.75
230.948	29.7
231.166	13.31
231.384	-35.84
231.601	-64.51
231.819	70.65
232.037	41.98
232.254	-1.02
232.472	-19.46
232.689	-13.31
232.907	72.7
233.125	41.98
233.342	46.08
233.56	3.07
233.777	-7.17
233.995	17.41
234.213	29.7
234.43	1.02
234.648	13.31
234.865	-17.41
235.083	5.12
235.3	-5.12
235.518	-23.55
235.735	-5.12
235.953	48.13
236.17	17.41
236.388	29.7
236.605	-33.79
236.822	91.13
237.04	37.89
237.257	-9.22
237.475	-37.89
237.692	64.51
237.909	9.22
238.127	-48.13
238.344	-15.36
238.562	70.65
238.779	-9.22
238.996	-19.46
239.214	-58.37
239.431	-9.22
239.648	21.5
239.865	11.26
240.083	56.32
240.3	-5.12
240.517	-52.22
240.735	-21.5
240.952	41.98
241.169	17.41
241.386	-17.41
241.603	-72.7
241.821	-93.18
242.038	33.79
242.255	-33.79
242.472	33.79
242.689	29.7
242.907	78.85
243.124	15.36
243.341	-27.65
243.558	-7.17
243.775	72.7
243.992	-23.55
244.209	-9.22
244.426	19.46
244.643	101.37
244.86	25.6
245.078	-25.6
245.295	33.79
245.512	-54.27
245.729	-17.41
245.946	5.12
246.163	-5.12
246.38	52.22
246.597	19.46
246.814	-27.65
247.031	5.12
247.248	3.07
247.464	21.5
247.681	-11.26
247.898	-46.08
248.115	-23.55
248.332	-62.46
248.549	60.42
248.766	91.13
248.983	44.03
249.2	-25.6
249.417	95.23
249.633	13.31
249.85	31.74
250.067	-17.41
250.284	-64.51
250.501	54.27
250.717	21.5
250.934	-54.27
251.151	60.42
251.368	-39.94
251.585	1.02
251.801	-21.5
252.018	-37.89
252.235	15.36
252.451	-44.03
252.668	-117.76
252.885	56.32
253.102	13.31
253.318	5.12
253.535	-13.31
253.752	-58.37
253.968	-41.98
254.185	-56.32
254.401	-23.55
254.618	64.51
254.835	27.65
255.051	5.12
255.268	-11.26
255.484	21.5
255.701	54.27
255.917	78.85
256.134	-15.36
256.351	50.18
256.567	17.41
256.784	-15.36
257	-25.6
257.217	39.94
257.433	-3.07
257.65	27.65
257.866	105.47
258.082	19.46
258.299	-35.84
258.515	46.08
258.732	-23.55
258.948	-41.98
259.165	35.84
259.381	64.51
259.597	-11.26
259.814	-7.17
260.03	5.12
260.246	44.03
260.463	27.65
260.679	56.32
260.895	33.79
261.112	101.37
261.328	-35.84
261.544	13.31
261.761	23.55
261.977	13.31
262.193	-56.32
262.409	-58.37
262.626	11.26
262.842	70.65
263.058	-3.07
263.274	44.03
263.49	-19.46
263.707	35.84
263.923	91.13
264.139	-9.22
264.355	-17.41
264.571	84.99
264.787	50.18
265.004	103.42
265.22	39.94
265.436	31.74
265.652	58.37
265.868	23.55
266.084	15.36
266.3	-13.31
266.516	-50.18
266.732	-27.65
266.948	23.55
267.164	9.22
267.38	25.6
267.596	76.8
267.812	68.61
268.028	107.52
268.244	-41.98
268.46	15.36
268.676	-19.46
268.892	50.18
269.108	-7.17
269.324	29.7
269.54	-17.41
269.756	62.46
269.972	39.94
270.188	-78.85
270.403	-7.17
270.619	23.55
270.835	-62.46
271.051	-46.08
271.267	46.08
271.483	-3.07
271.698	-25.6
271.914	13.31
272.13	-37.89
272.346	-35.84
272.562	17.41
272.777	1.02
272.993	-31.74
273.209	50.18
273.425	1.02
273.64	23.55
273.856	31.74
274.072	21.5
274.287	-9.22
274.503	11.26
274.719	-17.41
274.934	-33.79
275.15	-87.04
275.366	-3.07
275.581	-74.75
275.797	3.07
276.012	-46.08
276.228	17.41
276.444	27.65
276.659	44.03
276.875	9.22
277.09	23.55
277.306	-37.89
277.521	117.76
277.737	-1.02
277.952	35.84
278.168	60.42
278.383	48.13
278.599	33.79
278.814	-50.18
279.03	-46.08
279.245	46.08
279.461	-13.31
279.676	62.46
279.892	-89.09
280.107	9.22
280.322	-17.41
280.538	31.74
280.753	-66.56
280.969	5.12
281.184	-11.26
281.399	93.18
281.615	1.02
281.83	41.98
282.045	-107.52
282.26	54.27
282.476	48.13
282.691	74.75
282.906	3.07
283.122	111.61
283.337	11.26
283.552	50.18
283.767	-1.02
283.983	11.26
284.198	-58.37
284.413	-33.79
284.628	-44.03
284.843	-35.84
285.058	25.6
285.274	46.08
285.489	-19.46
285.704	80.89
285.919	-41.98
286.134	-17.41
286.349	15.36
286.564	1.02
286.779	58.37
286.995	17.41
287.21	-13.31
287.425	15.36
287.64	3.07
287.855	-19.46
288.07	-66.56
288.285	-9.22
288.5	-39.94
288.715	7.17
288.93	5.12
289.145	-7.17
289.36	25.6
289.575	-35.84
289.79	3.07
290.004	1.02
290.219	-48.13
290.434	-19.46
290.649	-17.41
290.864	-84.99
291.079	46.08
291.294	-44.03
291.509	15.36
291.724	19.46
291.938	52.22
292.153	-1.02
292.368	25.6
292.583	23.55
292.798	101.37
293.012	37.89
293.227	95.23
293.442	-50.18
293.657	25.6
293.871	13.31
294.086	64.51
294.301	37.89
294.516	58.37
294.73	39.94
294.945	3.07
295.16	-15.36
295.374	84.99
295.589	-31.74
295.804	41.98
296.018	1.02
296.233	19.46
296.447	109.57
296.662	-15.36
296.877	134.14
297.091	91.13
297.306	39.94
297.52	-29.7
297.735	-48.13
297.949	50.18
298.164	21.5
298.378	-62.46
298.593	-13.31
298.807	-15.36
299.022	5.12
299.236	62.46
299.451	15.36
299.665	-46.08
299.88	13.31
300.094	37.89
300.309	87.04
300.523	11.26
300.737	3.07
300.952	-35.84
301.166	64.51
301.381	-39.94
301.595	23.55
301.809	-17.41
302.024	33.79
302.238	-7.17
302.452	-1.02
302.667	-37.89
302.881	39.94
303.095	29.7
303.309	-3.07
303.524	-15.36
303.738	60.42
303.952	62.46
304.166	23.55
304.381	-54.27
304.595	48.13
304.809	-13.31
305.023	37.89
305.237	50.18
305.452	11.26
305.666	-7.17
305.88	19.46
306.094	-37.89
306.308	95.23
306.522	44.03
306.736	-56.32
306.95	13.31
307.164	-50.18
307.379	54.27
307.593	-11.26
307.807	80.89
308.021	-64.51
308.235	56.32
308.449	23.55
308.663	-5.12
308.877	80.89
309.091	3.07
309.305	87.04
309.519	9.22
309.733	46.08
309.947	-56.32
310.161	21.5
310.374	21.5
310.588	46.08
310.802	-44.03
311.016	54.27
311.23	19.46
311.444	-17.41
311.658	41.98
311.872	39.94
312.085	97.28
312.299	1.02
312.513	17.41
312.727	62.46
312.941	66.56
313.154	54.27
313.368	-33.79
313.582	3.07
313.796	35.84
314.009	-5.12
314.223	35.84
314.437	33.79
314.651	-9.22
314.864	80.89
315.078	7.17
315.292	-23.55
315.505	19.46
315.719	-60.42
315.933	11.26
316.146	25.6
316.36	54.27
316.573	9.22
316.787	54.27
317.001	-27.65
317.214	-99.33
317.428	130.05
317.641	-52.22
317.855	29.7
318.068	31.74
318.282	70.65
318.495	66.56
318.709	1.02
318.922	19.46
319.136	68.61
319.349	44.03
319.563	19.46
319.776	44.03
319.99	-50.18
320.203	76.8
320.417	-15.36
320.63	68.61
320.843	113.66
321.057	-13.31
321.27	5.12
321.483	31.74
321.697	39.94
321.91	54.27
322.124	64.51
322.337	9.22
322.55	-39.94
322.763	1.02
322.977	39.94
323.19	3.07
323.403	-29.7
323.617	19.46
323.83	44.03
324.043	1.02
324.256	-39.94
324.469	-62.46
324.683	15.36
324.896	31.74
325.109	-15.36
325.322	23.55
325.535	60.42
325.748	64.51
325.962	-7.17
326.175	-29.7
326.388	-9.22
326.601	-29.7
326.814	54.27
327.027	3.07
327.24	48.13
327.453	-44.03
327.666	117.76
327.879	3.07
328.092	66.56
328.305	-7.17
328.518	1.02
328.731	-19.46
328.944	29.7
329.157	-11.26
329.37	95.23
329.583	37.89
329.796	31.74
330.009	-95.23
330.222	9.22
330.435	1.02
330.648	11.26
330.861	46.08
331.073	-27.65
331.286	-11.26
331.499	15.36
331.712	-19.46
331.925	70.65
332.138	48.13
332.35	87.04
332.563	-1.02
332.776	74.75
332.989	-3.07
333.202	56.32
333.414	-44.03
333.627	46.08
333.84	-48.13
334.053	-5.12
334.265	54.27
334.478	-7.17
334.691	-1.02
334.903	31.74
335.116	-27.65
335.329	-3.07
335.541	-19.46
335.754	37.89
335.966	41.98
336.179	1.02
336.392	48.13
336.604	17.41
336.817	-1.02
337.029	-9.22
337.242	-3.07
337.454	9.22
337.667	41.98
337.88	-1.02
338.092	13.31
338.305	58.37
338.517	13.31
338.729	60.42
338.942	70.65
339.154	48.13
339.367	-35.84
339.579	103.42
339.792	35.84
340.004	-13.31
340.217	35.84
340.429	39.94
340.641	-9.22
340.854	25.6
341.066	19.46
341.278	19.46
341.491	33.79
341.703	17.41
341.915	-76.8
342.128	7.17
342.34	7.17
342.552	17.41
342.764	58.37
342.977	-41.98
343.189	62.46
343.401	-1.02
343.613	31.74
343.826	19.46
344.038	23.55
344.25	64.51
344.462	35.84
344.674	-44.03
344.886	21.5
345.099	11.26
345.311	19.46
345.523	58.37
345.735	-9.22
345.947	62.46
346.159	21.5
346.371	17.41
346.583	31.74
346.795	52.22
347.007	-25.6
347.219	37.89
347.431	29.7
347.643	46.08
347.855	29.7
348.067	35.84
348.279	-44.03
348.491	-21.5
348.703	109.57
348.915	-3.07
349.127	31.74
349.339	25.6
349.551	-46.08
349.763	-3.07
349.975	-9.22
350.187	64.51
350.399	84.99
350.61	82.94
350.822	62.46
351.034	-19.46
351.246	19.46
351.458	25.6
351.669	64.51
351.881	97.28
352.093	13.31
352.305	9.22
352.517	-64.51
352.728	23.55
352.94	48.13
353.152	33.79
353.363	1.02
353.575	72.7
353.787	44.03
353.999	35.84
354.21	-23.55
354.422	35.84
354.633	33.79
354.845	21.5
355.057	87.04
355.268	60.42
355.48	-19.46
355.692	-3.07
355.903	5.12
356.115	27.65
356.326	-29.7
356.538	62.46
356.749	76.8
356.961	21.5
357.172	-33.79
357.384	13.31
357.595	117.76
357.807	-41.98
358.018	31.74
358.23	115.71
358.441	62.46
358.653	48.13
358.864	107.52
359.075	7.17
359.287	70.65
359.498	60.42
359.709	7.17
359.921	-56.32
360.132	-15.36
360.344	58.37
360.555	-5.12
360.766	37.89
360.977	37.89
361.189	39.94
361.4	37.89
361.611	97.28
361.823	1.02
362.034	21.5
362.245	44.03
362.456	-46.08
362.667	48.13
362.879	15.36
363.09	-1.02
363.301	33.79
363.512	9.22
363.723	5.12
363.935	-5.12
364.146	37.89
364.357	54.27
364.568	41.98
364.779	-44.03
364.99	19.46
365.201	1.02
365.412	37.89
365.623	-33.79
365.834	113.66
366.045	31.74
366.256	60.42
366.467	25.6
366.678	9.22
366.889	23.55
367.1	76.8
367.311	52.22
367.522	62.46
367.733	89.09
367.944	44.03
368.155	15.36
368.366	21.5
368.577	13.31
368.788	19.46
368.999	-41.98
369.209	-35.84
369.42	111.61
369.631	84.99
369.842	35.84
370.053	54.27
370.264	66.56
370.474	11.26
370.685	29.7
370.896	144.38
371.107	64.51
371.317	48.13
371.528	44.03
371.739	107.52
371.95	56.32
372.16	50.18
372.371	-31.74
372.582	11.26
372.792	23.55
373.003	17.41
373.214	101.37
373.424	52.22
373.635	5.12
373.846	56.32
374.056	-15.36
374.267	46.08
374.477	9.22
374.688	80.89
374.898	84.99
375.109	23.55
375.319	19.46
375.53	11.26
375.74	58.37
375.951	56.32
376.161	39.94
376.372	56.32
376.582	37.89
376.793	9.22
377.003	-17.41
377.214	58.37
377.424	-7.17
377.635	23.55
377.845	-11.26
378.055	-7.17
378.266	-52.22
378.476	13.31
378.686	-19.46
378.897	21.5
379.107	111.61
379.317	-9.22
379.528	37.89
379.738	-15.36
379.948	68.61
380.158	50.18
380.369	-3.07
380.579	99.33
380.789	35.84
380.999	35.84
381.21	70.65
381.42	80.89
381.63	7.17
381.84	80.89
382.05	11.26
382.261	84.99
382.471	58.37
382.681	15.36
382.891	105.47
383.101	-1.02
383.311	-27.65
383.521	23.55
383.731	37.89
383.941	95.23
384.151	27.65
384.361	-15.36
384.571	-37.89
384.781	62.46
384.991	80.89
385.201	111.61
385.411	41.98
385.621	-27.65
385.831	50.18
386.041	21.5
386.251	-9.22
386.461	13.31
386.671	68.61
386.881	72.7
387.091	27.65
387.301	9.22
387.511	52.22
387.72	9.22
387.93	78.85
388.14	-3.07
388.35	-13.31
388.56	25.6
388.769	23.55
388.979	-9.22
389.189	17.41
389.399	9.22
389.609	72.7
389.818	56.32
390.028	56.32
390.238	115.71
390.447	25.6
390.657	64.51
390.867	-52.22
391.076	-3.07
391.286	52.22
391.496	89.09
391.705	64.51
391.915	78.85
392.125	113.66
392.334	-19.46
392.544	-39.94
392.753	23.55
392.963	19.46
393.172	23.55
393.382	31.74
393.591	128
393.801	31.74
394.01	95.23
394.22	111.61
394.429	82.94
394.639	-27.65
394.848	72.7
395.058	76.8
395.267	-7.17
395.477	17.41
395.686	103.42
395.895	138.24
396.105	97.28
396.314	68.61
396.524	121.85
396.733	-48.13
396.942	62.46
397.152	68.61
397.361	136.19
397.57	95.23
397.78	56.32
397.989	119.81
398.198	134.14
398.407	64.51
398.617	87.04
398.826	60.42
399.035	89.09
399.244	58.37
399.453	39.94
399.663	62.46
399.872	44.03
400.081	-13.31
400.29	111.61
400.499	91.13
400.708	119.81
400.917	64.51
401.127	37.89
401.336	41.98
401.545	144.38
401.754	66.56
401.963	105.47
402.172	62.46
402.381	35.84
402.59	95.23
402.799	168.96
403.008	119.81
403.217	76.8
403.426	101.37
403.635	23.55
403.844	142.33
404.053	146.43
404.262	97.28
404.471	138.24
404.68	76.8
404.888	164.86
405.097	119.81
405.306	95.23
405.515	111.61
405.724	95.23
405.933	107.52
406.142	103.42
406.35	179.2
406.559	117.76
406.768	111.61
406.977	216.06
407.185	171.01
407.394	203.77
407.603	168.96
407.812	168.96
408.02	226.3
408.229	144.38
408.438	144.38
408.646	164.86
408.855	189.44
409.064	248.83
409.272	257.02
409.481	240.64
409.69	248.83
409.898	228.35
410.107	238.59
410.315	369.66
410.524	279.55
410.733	334.84
410.941	236.54
411.15	322.56
411.358	359.42
411.567	312.32
411.775	336.89
411.984	367.61
412.192	336.89
412.401	334.84
412.609	427
412.818	519.16
413.026	508.92
413.234	494.58
413.443	465.91
413.651	474.1
413.86	490.49
414.068	594.93
414.276	474.1
414.485	484.34
414.693	611.32
414.901	576.5
415.11	625.65
415.318	644.09
415.526	619.51
415.734	777.2
415.943	769.01
416.151	809.97
416.359	805.88
416.567	771.06
416.776	752.63
416.984	885.75
417.192	883.7
417.4	865.27
417.608	902.13
417.817	908.27
418.025	977.91
418.233	924.66
418.441	1094.64
418.649	1016.82
418.857	1209.33
419.065	1219.57
419.273	1203.18
419.481	1248.24
419.689	1235.95
419.897	1473.51
420.105	1342.44
420.313	1467.37
420.521	1467.37
420.729	1563.62
420.937	1539.05
421.145	1631.21
421.353	1633.26
421.561	1803.24
421.769	1868.77
421.977	1874.92
422.185	1844.2
422.393	1901.54
422.601	2167.77
422.809	2096.1
423.017	2053.09
423.224	2231.26
423.432	2282.46
423.64	2341.85
423.848	2505.69
424.056	2399.2
424.263	2552.79
424.471	2685.91
424.679	2679.77
424.887	2741.21
425.094	2894.8
425.302	2943.96
425.51	2964.43
425.718	3046.35
425.925	3197.9
426.133	3269.58
426.341	3580.87
426.548	3609.54
426.756	3556.3
426.964	3750.85
427.171	3849.16
427.379	4002.75
427.586	3937.22
427.794	4266.94
428.001	4256.7
428.209	4535.23
428.417	4471.74
428.624	4793.27
428.832	4846.52
429.039	4826.04
429.247	4670.39
429.454	5313.45
429.662	5489.58
429.869	5118.9
430.076	5727.14
430.284	5372.85
430.491	5477.29
430.699	5954.47
430.906	6024.1
431.114	6024.1
431.321	6189.99
431.528	6425.5
431.736	6863.77
431.943	7093.14
432.15	6908.82
432.358	6929.3
432.565	7338.9
432.772	7373.71
432.979	7996.29
433.187	7791.5
433.394	7859.08
433.601	8598.4
433.808	8430.46
434.016	8264.58
434.223	8934.26
434.43	9405.3
434.637	9184.12
434.844	9653.1
435.052	9923.43
435.259	9821.03
435.466	9980.78
435.673	9782.12
435.88	10316.64
436.087	11121.49
436.294	11017.05
436.501	10888.03
436.708	10988.38
436.915	11494.22
437.122	11848.52
437.329	11940.68
437.537	12215.11
437.743	12776.25
437.95	12204.87
438.157	12790.59
438.364	13382.45
438.571	13284.15
438.778	13347.64
438.985	14797.6
439.192	14086.95
439.399	14691.1
439.606	14242.6
439.813	15217.43
440.02	16022.28
440.227	15887.12
440.433	15502.1
440.64	16128.78
440.847	15840.01
441.054	16425.73
441.261	17482.49
441.467	17380.09
441.674	17574.64
441.881	18352.87
442.088	18250.47
442.294	18084.59
442.501	18459.37
442.708	18854.62
442.914	19653.33
443.121	20458.18
443.328	19917.52
443.534	21322.43
443.741	20781.76
443.948	20460.23
444.154	21969.58
444.361	21691.06
444.568	22387.37
444.774	21799.6
444.981	22274.73
445.187	22784.68
445.394	23786.13
445.6	23587.48
445.807	26063.47
446.013	24502.92
446.22	24939.14
446.426	26002.04
446.633	26106.48
446.839	27142.75
447.046	26006.13
447.252	27585.12
447.459	27599.45
447.665	27544.16
447.871	29028.93
448.078	29874.74
448.284	28609.1
448.491	29362.75
448.697	30515.76
448.903	31162.92
449.11	31384.1
449.316	30738.99
449.522	30949.93
449.728	32154.13
449.935	32295.44
450.141	32277.01
450.347	32905.74
450.553	31777.31
450.76	32115.22
450.966	33354.24
451.172	33278.47
451.378	33847.8
451.584	33108.49
451.791	34056.7
451.997	34085.37
452.203	34462.19
452.409	34136.57
452.615	34204.15
452.821	33214.98
453.027	32813.58
453.233	34445.81
453.44	33102.34
453.646	33487.36
453.852	33534.46
454.058	34241.01
454.264	33229.32
454.47	33493.5
454.676	32911.88
454.882	34595.31
455.088	31042.09
455.294	31683.1
455.5	32104.98
455.705	31896.09
455.911	30974.5
456.117	30362.16
456.323	29981.24
456.529	28539.47
456.735	29807.16
456.941	28731.98
457.147	28375.63
457.352	27548.25
457.558	27177.57
457.764	27525.72
457.97	26727.02
458.176	26399.34
458.381	26323.57
458.587	24580.74
458.793	24920.71
458.999	23470.75
459.204	25285.25
459.41	24832.65
459.616	22870.69
459.821	22782.63
460.027	22796.96
460.233	22536.87
460.438	21228.22
460.644	21742.26
460.85	20523.72
461.055	20468.42
461.261	20136.65
461.466	18522.85
461.672	18096.88
461.878	19235.55
462.083	18211.56
462.289	17711.86
462.494	17402.61
462.7	16888.57
462.905	16421.64
463.111	16884.48
463.316	17185.53
463.522	16685.83
463.727	16888.57
463.932	16610.05
464.138	16554.76
464.343	16489.22
464.549	16104.2
464.754	16648.96
464.959	16481.03
465.165	16403.21
465.37	15717.14
465.575	15575.83
465.781	16016.14
465.986	16110.35
466.191	15440.66
466.397	15020.83
466.602	14209.83
466.807	14930.72
467.012	15033.11
467.218	14963.48
467.423	14482.21
467.628	14947.1
467.833	15436.56
468.038	14854.94
468.244	14373.67
468.449	14992.16
468.654	14504.74
468.859	14414.63
469.064	14443.3
469.269	13728.56
469.474	13783.85
469.679	14228.26
469.885	13523.76
470.09	13804.33
470.295	13804.33
470.5	13572.91
470.705	13728.56
470.91	13329.2
471.115	13222.71
471.32	13349.68
471.525	13185.85
471.73	12970.81
471.935	12831.55
472.139	12444.48
472.344	12618.56
472.549	12528.45
472.754	12301.12
472.959	12147.53
473.164	11885.39
473.369	11985.74
473.574	12217.16
473.778	12053.32
473.983	11795.28
474.188	11907.91
474.393	11443.03
474.598	11197.27
474.802	11416.4
475.007	10959.7
475.212	11254.61
475.417	10713.95
475.621	10763.1
475.826	10836.83
476.031	10638.17
476.235	10394.47
476.44	10556.25
476.645	10081.13
476.849	10242.92
477.054	10150.76
477.259	10095.46
477.463	10142.57
477.668	9935.72
477.872	9896.81
478.077	9669.48
478.282	9530.22
478.486	9560.94
478.691	9374.58
478.895	9311.09
479.1	9421.68
479.304	9108.34
479.509	9012.09
479.713	9081.72
479.918	8999.8
480.122	8768.38
480.326	8921.98
480.531	8989.56
480.735	8889.21
480.94	8854.39
481.144	8913.78
481.348	8801.15
481.553	8655.74
481.757	8502.14
481.961	8735.61
482.166	9124.72
482.37	8618.88
482.574	8577.92
482.778	8510.33
482.983	8610.68
483.187	8688.51
483.391	8670.08
483.595	8743.8
483.8	8420.22
484.004	8665.98
484.208	8848.25
484.412	8600.44
484.616	8745.85
484.821	8481.66
485.025	8434.56
485.229	8797.05
485.433	8471.42
485.637	8512.38
485.841	8364.93
486.045	8551.29
486.249	8610.68
486.453	8653.69
486.657	8745.85
486.861	8475.52
487.065	8352.64
487.269	8670.08
487.473	8409.98
487.677	8592.25
487.881	8848.25
488.085	8659.84
488.289	8586.11
488.493	8524.67
488.697	8764.28
488.901	8590.2
489.105	8442.75
489.309	8766.33
489.512	8780.67
489.716	8657.79
489.92	8760.19
490.124	8547.2
490.328	8895.35
490.531	8792.95
490.735	8760.19
490.939	8735.61
491.143	8639.36
491.346	8655.74
491.55	9046.9
491.754	9067.38
491.958	9003.89
492.161	9214.84
492.365	9055.09
492.569	9223.03
492.772	9065.33
492.976	9214.84
493.18	8977.27
493.383	9165.68
493.587	9507.69
493.79	9431.92
493.994	9268.08
494.197	9317.23
494.401	9495.41
494.605	9630.57
494.808	9714.54
495.012	9589.61
495.215	9634.67
495.419	9857.9
495.622	9710.44
495.825	9866.09
496.029	9829.23
496.232	10117.99
496.436	10226.53
496.639	10345.31
496.843	10355.55
497.046	10445.66
497.249	10736.48
497.453	10595.17
497.656	10777.44
497.859	10828.63
498.063	10871.64
498.266	11252.56
498.469	10953.56
498.673	11064.15
498.876	11334.48
499.079	11498.32
499.282	11471.7
499.485	11613.01
499.689	11443.03
499.892	11932.49
500.095	11946.83
500.298	12426.05
500.501	12184.39
500.705	12460.87
500.908	12632.9
501.111	12800.83
501.314	12704.57
501.517	12985.15
501.72	13134.65
501.923	13165.37
502.126	13312.82
502.329	13730.61
502.532	13925.16
502.735	13841.2
502.938	13957.93
503.141	14007.08
503.344	14447.4
503.547	14361.38
503.75	14486.31
503.953	14695.2
504.156	14930.72
504.359	14914.33
504.562	15100.7
504.765	15407.89
504.968	15416.08
505.17	15729.42
505.373	15569.68
505.576	15989.52
505.779	15987.47
505.982	16274.18
506.185	16409.35
506.387	16501.51
506.59	16911.1
506.793	17122.04
506.996	16954.11
507.198	17552.12
507.401	17330.94
507.604	17459.96
507.807	17914.61
508.009	18107.12
508.212	18086.64
508.415	18410.22
508.617	18641.64
508.82	18830.05
509.022	18471.65
509.225	19147.48
509.428	19155.68
509.63	19335.9
509.833	19555.03
510.035	19976.91
510.238	19763.92
510.44	20132.56
510.643	20069.07
510.845	20673.22
511.048	20677.32
511.25	20730.56
511.453	20882.11
511.655	21779.12
511.858	21334.71
512.06	21406.39
512.262	21736.12
512.465	21856.95
512.667	22221.48
512.87	22370.99
513.072	22391.47
513.274	22807.2
513.477	22977.19
513.679	23106.21
513.881	23335.58
514.084	23653.02
514.286	23653.02
514.488	23784.09
514.69	24662.66
514.893	24402.57
515.095	24722.05
515.297	24935.04
515.499	25082.5
515.701	25420.41
515.904	25782.9
516.106	25784.95
516.308	26116.72
516.51	26096.24
516.712	26149.49
516.914	26255.98
517.116	27204.19
517.318	26821.22
517.52	27116.13
517.722	27212.38
517.925	27462.24
518.127	28109.4
518.329	27810.39
518.531	27712.09
518.733	28469.84
518.935	28861
519.136	28904.01
519.338	29053.51
519.54	29067.84
519.742	29491.77
519.944	29676.09
520.146	29934.14
520.348	29880.89
520.55	30341.68
520.752	30272.05
520.954	30894.63
521.155	30540.33
521.357	31232.55
521.559	31302.18
521.761	32014.87
521.963	31756.83
522.164	32037.4
522.366	31984.15
522.568	32424.47
522.77	32465.42
522.971	33223.17
523.173	32739.85
523.375	33325.57
523.576	33022.47
523.778	33288.71
523.98	33581.57
524.181	33970.68
524.383	34005.5
524.584	34251.25
524.786	34109.94
524.988	34066.94
525.189	34576.88
525.391	34929.13
525.592	35097.06
525.794	35275.24
525.995	35265
526.197	35328.48
526.398	35308.01
526.6	35803.61
526.801	35826.14
527.003	35805.66
527.204	35643.87
527.406	36504.02
527.607	36182.49
527.808	36639.18
528.01	35959.26
528.211	36110.81
528.412	36835.79
528.614	36823.5
528.815	36391.38
529.016	37106.12
529.218	36671.95
529.419	36549.07
529.62	37104.07
529.822	37194.18
530.023	37222.86
530.224	37136.84
530.425	36874.7
530.626	36909.52
530.828	37167.56
531.029	37892.54
531.23	37341.64
531.431	37253.58
531.632	37548.48
531.833	37747.14
532.035	37456.32
532.236	37847.49
532.437	37855.68
532.638	37423.56
532.839	37904.83
533.04	38003.13
533.241	37732.8
533.442	38050.24
533.643	38148.54
533.844	38177.21
534.045	38072.76
534.246	37939.65
534.447	38189.5
534.648	38031.8
534.849	37919.17
535.05	37884.35
535.251	38179.26
535.451	37716.42
535.652	38273.46
535.853	37540.29
536.054	38175.16
536.255	38265.27
536.456	37878.21
536.657	38281.66
536.857	37640.64
537.058	37781.95
537.259	38252.98
537.46	38101.43
537.66	37947.84
537.861	38044.09
538.062	37925.31
538.263	38363.57
538.463	37638.59
538.664	37896.64
538.865	37904.83
539.065	38209.98
539.266	37458.37
539.466	38300.09
539.667	37947.84
539.868	38238.65
540.068	37976.51
540.269	37925.31
540.469	38246.84
540.67	37824.96
540.87	38281.66
541.071	37661.12
541.271	37863.87
541.472	37931.45
541.672	38031.8
541.873	37786.05
542.073	37364.17
542.274	38158.78
542.474	37786.05
542.675	37585.35
542.875	38099.39
543.075	37775.81
543.276	37298.63
543.476	37706.18
543.676	37634.5
543.877	38158.78
544.077	37646.79
544.277	37720.51
544.478	37792.19
544.678	38058.43
544.878	37999.04
545.078	37704.13
545.279	37319.11
545.479	37503.43
545.679	37849.53
545.879	37556.67
546.079	37851.58
546.28	37241.29
546.48	37091.79
546.68	37814.72
546.88	37444.04
547.08	37740.99
547.28	37904.83
547.48	37085.64
547.68	37611.97
547.88	37284.3
548.081	37646.79
548.281	37728.7
548.481	37018.06
548.681	37409.22
548.881	37149.13
549.081	37317.06
549.28	37525.96
549.48	37661.12
549.68	37470.66
549.88	37605.83
550.08	37097.93
550.28	37095.88
550.48	37366.21
550.68	37620.16
550.88	37138.89
551.08	37106.12
551.279	37605.83
551.479	37147.08
551.679	37597.63
551.879	37032.39
552.079	37398.98
552.278	37319.11
552.478	37304.77
552.678	37317.06
552.878	37243.34
553.077	37421.51
553.277	36862.41
553.477	37638.59
553.676	37192.14
553.876	37071.31
554.076	36958.67
554.275	36778.45
554.475	36645.33
554.674	37417.41
554.874	37206.47
555.074	36643.28
555.273	37026.25
555.473	37355.97
555.672	36612.56
555.872	36667.86
556.071	36694.48
556.271	37063.11
556.47	36544.98
556.67	36288.98
556.869	36131.29
557.068	36868.56
557.268	36467.16
557.467	36790.73
557.667	36061.66
557.866	36446.68
558.065	36465.11
558.265	36229.59
558.464	36254.17
558.663	36653.52
558.863	35785.18
559.062	36344.28
559.261	35815.9
559.461	36331.99
559.66	35701.22
559.859	35977.69
560.058	35699.17
560.258	36041.18
560.457	35762.65
560.656	35754.46
560.855	35992.03
561.054	35955.16
561.253	35344.87
561.453	36067.8
561.652	35791.33
561.851	36008.41
562.05	35809.76
562.249	35236.33
562.448	36211.16
562.647	35260.9
562.846	35176.94
563.045	35408.36
563.244	35369.44
563.443	35627.49
563.642	34843.12
563.841	35070.44
564.04	35103.21
564.239	35424.74
564.438	34679.28
564.637	34877.93
564.836	34828.78
565.035	34482.67
565.234	35074.54
565.432	34626.03
565.631	34591.22
565.83	34744.81
566.029	34501.11
566.228	34628.08
566.427	34134.52
566.625	33999.35
566.824	33745.41
567.023	34210.29
567.222	33491.46
567.42	34212.34
567.619	33862.14
567.818	33982.97
568.016	33835.52
568.215	34175.48
568.414	33643.01
568.612	34236.92
568.811	33458.69
569.01	33092.1
569.208	33042.95
569.407	32946.7
569.605	33014.28
569.804	33427.97
570.002	32784.91
570.201	33405.44
570.4	32717.32
570.598	32727.56
570.797	32702.99
570.995	32766.48
571.193	32412.18
571.392	32627.21
571.59	32463.38
571.789	32348.69
571.987	32305.68
572.186	32490
572.384	32150.04
572.582	32236.05
572.781	32279.06
572.979	31824.41
573.177	32113.17
573.376	31961.62
573.574	31988.25
573.772	31949.34
573.971	31791.64
574.169	31601.18
574.367	31484.45
574.565	31461.92
574.763	31250.98
574.962	31062.57
575.16	30978.6
575.358	31126.05
575.556	31091.24
575.754	31347.23
575.952	30593.58
576.151	30896.68
576.349	30616.11
576.547	30208.56
576.745	30771.75
576.943	30569.01
577.141	30548.53
577.339	30358.06
577.537	30257.71
577.735	30317.11
577.933	29889.08
578.131	30194.23
578.329	30026.29
578.527	29866.55
578.725	29737.53
578.923	30075.45
579.121	29897.27
579.319	29805.11
579.516	29786.68
579.714	29522.49
579.912	29704.76
580.11	29407.81
580.308	29387.33
580.506	29274.69
580.704	28844.62
580.901	29225.54
581.099	29192.77
581.297	28629.58
581.495	29067.84
581.692	28920.39
581.89	28592.72
582.088	28928.58
582.285	28406.35
582.483	28695.11
582.681	28295.76
582.878	28576.33
583.076	28435.02
583.274	28746.31
583.471	27959.89
583.669	28015.19
583.866	28260.94
584.064	28082.77
584.262	27767.38
584.459	27914.84
584.657	27898.45
584.854	27640.41
585.052	27087.46
585.249	27779.67
585.447	27843.16
585.644	27325.02
585.841	27716.19
586.039	27531.87
586.236	27038.31
586.434	27318.88
586.631	27181.67
586.828	26983.01
587.026	27048.55
587.223	26935.91
587.42	26659.43
587.618	26731.11
587.815	26389.1
588.012	26169.97
588.21	26413.68
588.407	26864.23
588.604	26471.02
588.801	26042.99
588.999	26249.84
589.196	25946.74
589.393	26301.04
589.59	26161.78
589.787	25907.83
589.984	25647.74
590.182	25477.76
590.379	26135.15
590.576	25727.61
590.773	25756.28
590.97	25535.1
591.167	25660.02
591.364	25014.91
591.561	25574.01
591.758	24945.28
591.955	25221.76
592.152	25332.35
592.349	25033.35
592.546	25152.13
592.743	24840.84
592.94	24363.66
593.137	24814.21
593.334	24724.1
593.531	24189.58
593.727	24504.97
593.924	24476.3
594.121	24044.18
594.318	24535.69
594.515	24144.53
594.712	24181.39
594.908	24066.7
595.105	24248.97
595.302	23802.52
595.499	23995.03
595.696	23855.76
595.892	23599.77
596.089	23835.28
596.286	23859.86
596.482	23476.89
596.679	23659.16
596.876	23569.05
597.072	23454.36
597.269	23421.59
597.466	23390.88
597.662	23143.07
597.859	23411.35
598.055	23229.09
598.252	22868.64
598.448	22846.12
598.645	22925.99
598.841	22842.02
599.038	22614.69
599.234	22598.31
599.431	22514.34
599.627	22575.78
599.824	22608.55
600.02	22246.06
600.217	22500.01
600.413	22321.84
600.609	22155.95
600.806	22303.4
601.002	22010.54
601.198	21734.07
601.395	21891.76
601.591	22000.3
601.787	21764.79
601.984	21805.75
602.18	22010.54
602.376	21410.49
602.572	21367.48
602.769	21600.95
602.965	21222.08
603.161	21467.83
603.357	21199.55
603.553	21244.6
603.75	21097.15
603.946	21088.96
604.142	21191.36
604.338	21052.09
604.534	21091.01
604.73	20445.9
604.926	20654.79
605.122	20771.52
605.318	20472.52
605.514	20320.97
605.71	20660.93
605.906	20499.14
606.102	20540.1
606.298	20607.69
606.494	20261.58
606.69	20181.71
606.886	20404.94
607.082	20255.43
607.278	20296.39
607.474	19770.07
607.67	20110.03
607.866	19819.22
608.062	20198.09
608.257	19731.15
608.453	19669.72
608.649	20013.77
608.845	19837.65
609.041	19909.33
609.236	19692.24
609.432	19593.94
609.628	19616.47
609.824	19624.66
610.019	19591.89
610.215	19589.85
610.411	19593.94
610.606	19497.69
610.802	19544.79
610.998	19270.36
611.193	19084
611.389	19247.83
611.584	19172.06
611.78	19018.46
611.976	19108.57
612.171	19299.03
612.367	19129.05
612.562	19022.56
612.758	18830.05
612.953	18807.52
613.149	18936.54
613.344	18709.22
613.539	18969.31
613.735	18930.4
613.93	18774.75
614.126	18764.51
614.321	18649.83
614.517	18803.43
614.712	18733.79
614.907	18553.57
615.103	18643.68
615.298	18305.77
615.493	18881.25
615.688	18318.06
615.884	18660.07
616.079	18023.15
616.274	18469.61
616.47	18090.73
616.665	18348.78
616.86	18094.83
617.055	18064.11
617.25	18113.26
617.445	18383.59
617.641	17916.65
617.836	17949.42
618.031	17806.06
618.226	17974
618.421	17699.57
618.616	17814.26
618.811	17494.77
619.006	17648.37
619.201	17437.43
619.396	17582.84
619.591	17081.08
619.786	17494.77
619.981	17224.44
620.176	17283.83
620.371	17142.52
620.566	17189.63
620.761	17040.12
620.956	17220.35
621.151	16804.61
621.346	16837.38
621.541	16519.94
621.735	16820.99
621.93	16413.45
622.125	16659.2
622.32	16376.58
622.515	16188.17
622.709	16153.35
622.904	16022.28
623.099	16016.14
623.294	16020.24
623.488	15958.8
623.683	16059.15
623.878	15713.04
624.072	15659.79
624.267	15694.61
624.462	15493.91
624.656	15172.38
624.851	15465.24
625.046	15291.16
625.24	15256.34
625.435	15041.31
625.629	15051.55
625.824	14887.71
626.018	14801.69
626.213	14611.23
626.407	14727.97
626.602	14453.54
626.796	14666.53
626.991	14605.09
627.185	14273.32
627.38	14152.49
627.574	14213.93
627.768	14095.14
627.963	14267.17
628.157	14189.35
628.352	13916.97
628.546	13892.4
628.74	13888.3
628.935	13419.32
629.129	13591.34
629.323	13583.15
629.517	13370.16
629.712	13497.14
629.906	13548.34
630.1	13423.41
630.294	13321.01
630.489	13151.03
630.683	13243.19
630.877	12970.81
631.071	13065.02
631.265	13089.59
631.459	12784.44
631.653	12868.41
631.848	12778.3
632.042	12694.33
632.236	12559.17
632.43	12579.65
632.624	12618.56
632.818	12407.62
633.012	12127.05
633.206	12157.77
633.4	12264.26
633.594	11856.72
633.788	12102.47
633.982	12036.94
634.176	11936.59
634.369	11973.45
634.563	11807.56
634.757	11916.11
634.951	11924.3
635.145	11621.2
635.339	11754.32
635.533	11660.11
635.726	11596.62
635.92	11238.23
636.114	11432.79
636.308	11273.04
636.501	11402.07
636.695	11342.67
636.889	11162.45
637.083	11162.45
637.276	10928.99
637.47	10984.28
637.664	10904.41
637.857	10838.87
638.051	10906.46
638.244	10695.52
638.438	10500.96
638.632	10619.74
638.825	10369.89
639.019	10519.39
639.212	10443.62
639.406	10537.82
639.599	10312.55
639.793	10373.99
639.986	10138.47
640.18	10349.41
640.373	10204
640.567	10079.08
640.76	10019.69
640.954	9913.19
641.147	9952.1
641.34	9843.56
641.534	9956.2
641.727	9769.83
641.92	9536.37
642.114	9661.29
642.307	9593.71
642.5	9522.03
642.694	9628.53
642.887	9444.21
643.08	9546.61
643.273	9397.1
643.467	9343.86
643.66	9292.66
643.853	9380.72
644.046	9220.98
644.239	9282.42
644.432	9034.61
644.626	8989.56
644.819	8807.29
645.012	9012.09
645.205	8917.88
645.398	8756.09
645.591	8887.16
645.784	8420.22
645.977	8729.47
646.17	8944.5
646.363	8586.11
646.556	8434.56
646.749	8465.28
646.942	8633.21
647.135	8469.37
647.328	8387.46
647.521	8432.51
647.714	8074.12
647.907	8293.25
648.099	8049.54
648.292	8272.77
648.485	8147.84
648.678	8041.35
648.871	8098.69
649.064	7979.91
649.256	8012.68
649.449	7973.77
649.642	7826.31
649.835	7871.37
650.027	7904.14
650.22	7783.31
650.413	7756.68
650.605	7863.18
650.798	7650.19
650.991	7486.35
651.183	7703.43
651.376	7537.55
651.568	7551.88
651.761	7361.42
651.954	7320.46
652.146	7334.8
652.339	7228.31
652.531	7525.26
652.724	7226.26
652.916	7050.13
653.109	7127.96
653.301	7119.76
653.494	7205.78
653.686	6957.97
653.879	7025.56
654.071	6933.4
654.263	6783.9
654.456	6984.6
654.648	7062.42
654.84	6841.24
655.033	6661.02
655.225	6798.23
655.417	6611.87
655.61	6706.07
655.802	6589.34
655.994	6658.97
656.186	6628.25
656.379	6515.61
656.571	6484.89
656.763	6669.21
656.955	6331.3
657.148	6550.43
657.34	6353.82
657.532	6413.21
657.724	6353.82
657.916	6306.72
658.108	6247.33
658.3	6149.03
658.492	6216.61
658.684	6235.04
658.876	6048.68
659.068	6247.33
659.26	6011.81
659.452	6249.38
659.644	5970.85
659.836	5919.65
660.028	6046.63
660.22	5942.18
660.412	5880.74
660.604	5860.26
660.796	5895.08
660.988	5766.06
661.18	5704.62
661.372	5790.63
661.563	5774.25
661.755	5759.91
661.947	5704.62
662.139	5698.47
662.331	5571.5
662.522	5591.98
662.714	5634.99
662.906	5645.23
663.097	5436.33
663.289	5503.92
663.481	5436.33
663.673	5520.3
663.864	5456.81
664.056	5399.47
664.247	5395.37
664.439	5286.83
664.631	5432.24
664.822	5280.69
665.014	5198.77
665.205	5092.27
665.397	5143.47
665.588	5309.36
665.78	5125.04
665.971	5141.43
666.163	5378.99
666.354	5204.91
666.546	5057.46
666.737	4852.66
666.929	5069.75
667.12	5084.08
667.311	5028.79
667.503	5028.79
667.694	4926.39
667.885	4953.01
668.077	4916.15
668.268	4783.03
668.459	4967.35
668.651	4846.52
668.842	4721.59
669.033	4729.78
669.224	4713.4
669.416	4754.36
669.607	4651.96
669.798	4651.96
669.989	4715.45
670.18	4723.64
670.371	4533.18
670.563	4635.58
670.754	4733.88
670.945	4735.93
671.136	4658.1
671.327	4570.04
671.518	4604.86
671.709	4498.36
671.9	4688.82
672.091	4611
672.282	4584.38
672.473	4330.43
672.664	4389.82
672.855	4375.49
673.046	4608.95
673.237	4527.03
673.428	4418.49
673.619	4383.68
673.809	4225.98
674	4234.18
674.191	4463.55
674.382	4187.07
674.573	4268.99
674.764	4342.72
674.954	4371.39
675.145	4240.32
675.336	4365.25
675.527	4223.94
675.717	4303.81
675.908	4139.97
676.099	4266.94
676.289	4211.65
676.48	4148.16
676.671	4209.6
676.861	4174.78
677.052	4117.44
677.243	4215.74
677.433	4182.98
677.624	4148.16
677.814	4070.34
678.005	4213.7
678.195	4189.12
678.386	4137.92
678.576	4062.15
678.767	4072.39
678.957	4060.1
679.148	4015.04
679.338	4148.16
679.529	4115.39
679.719	4031.43
679.909	4213.7
680.1	4101.06
680.29	3955.65
680.481	4156.35
680.671	4146.11
680.861	3953.6
681.052	4015.04
681.242	3939.27
681.432	3916.74
681.622	4078.53
681.813	3941.32
682.003	3959.75
682.193	3867.59
682.383	4019.14
682.573	3937.22
682.764	3892.16
682.954	3949.51
683.144	3898.31
683.334	3892.16
683.524	3914.69
683.714	4051.91
683.904	3967.94
684.094	3918.79
684.284	3943.36
684.474	3855.3
684.664	3843.01
684.854	3953.6
685.044	3789.77
685.234	3830.73
685.424	3814.34
685.614	3904.45
685.804	3769.29
685.994	3787.72
686.184	3826.63
686.374	3847.11
686.564	3804.1
686.753	3761.09
686.943	3763.14
687.133	3728.33
687.323	3709.9
687.513	3617.74
687.702	3601.35
687.892	3597.26
688.082	3685.32
688.272	3554.25
688.461	3660.74
688.651	3554.25
688.841	3613.64
689.03	3552.2
689.22	3597.26
689.41	3531.72
689.599	3597.26
689.789	3476.43
689.979	3478.47
690.168	3498.95
690.358	3390.41
690.547	3369.93
690.737	3380.17
690.926	3419.08
691.116	3212.24
691.305	3494.86
691.495	3290.06
691.684	3298.25
691.874	3251.15
692.063	3275.73
692.252	3320.78
692.442	3234.77
692.631	3216.33
692.82	3236.81
693.01	3232.72
693.199	3191.76
693.388	3122.13
693.578	3144.66
693.767	3169.23
693.956	3144.66
694.146	3085.26
694.335	3083.22
694.524	3089.36
694.713	3118.03
694.902	3134.42
695.092	2968.53
695.281	3046.35
695.47	3011.54
695.659	3027.92
695.848	3052.5
696.037	2952.15
696.226	3054.55
696.415	2866.13
696.604	3099.6
696.793	3036.11
696.982	3009.49
697.171	2927.57
697.36	3017.68
697.549	2911.19
697.738	3015.63
697.927	2898.9
698.116	2898.9
698.305	2954.19
698.494	2911.19
698.683	3005.39
698.872	3052.5
699.061	2868.18
699.25	2847.7
699.438	2937.81
699.627	2882.52
699.816	2929.62
700.005	2880.47
700.193	2886.61
700.382	2903
700.571	2843.6
700.76	2917.33
700.948	2814.93
701.137	2792.41
701.326	2692.05
701.514	2855.89
701.703	2849.75
701.892	2882.52
702.08	2939.86
702.269	2847.7
702.457	2804.69
702.646	2802.65
702.834	2845.65
703.023	2876.37
703.212	2855.89
703.4	2739.16
703.589	2763.73
703.777	2788.31
703.965	2735.06
704.154	2800.6
704.342	2804.69
704.531	2894.8
704.719	2755.54
704.907	2816.98
705.096	2851.8
705.284	2681.82
705.472	2782.17
705.661	2825.17
705.849	2802.65
706.037	2825.17
706.226	2733.01
706.414	2812.89
706.602	2610.14
706.79	2726.87
706.979	2784.21
707.167	2849.75
707.355	2767.83
707.543	2712.53
707.731	2796.5
707.919	2866.13
708.107	2722.77
708.296	2739.16
708.484	2677.72
708.672	2761.69
708.86	2712.53
709.048	2761.69
709.236	2690.01
709.424	2784.21
709.612	2741.21
709.8	2690.01
709.988	2782.17
710.176	2550.75
710.364	2784.21
710.551	2673.62
710.739	2591.7
710.927	2659.29
711.115	2712.53
711.303	2661.34
711.491	2573.27
711.679	2659.29
711.866	2716.63
712.054	2675.67
712.242	2685.91
712.43	2726.87
712.617	2757.59
712.805	2730.97
712.993	2692.05
713.181	2679.77
713.368	2612.18
713.556	2587.61
713.744	2614.23
713.931	2730.97
714.119	2630.62
714.306	2657.24
714.494	2739.16
714.682	2796.5
714.869	2653.14
715.057	2624.47
715.244	2575.32
715.432	2673.62
715.619	2661.34
715.807	2751.45
715.994	2724.82
716.182	2776.02
716.369	2671.58
716.556	2659.29
716.744	2755.54
716.931	2554.84
717.119	2716.63
717.306	2675.67
717.493	2675.67
717.681	2628.57
717.868	2706.39
718.055	2612.18
718.242	2647
718.43	2653.14
718.617	2698.2
718.804	2614.23
718.991	2663.38
719.179	2634.71
719.366	2583.51
719.553	2679.77
719.74	2573.27
719.927	2790.36
720.114	2663.38
720.301	2583.51
720.488	2659.29
720.676	2595.8
720.863	2655.19
721.05	2753.49
721.237	2690.01
721.424	2610.14
721.611	2708.44
721.798	2644.95
721.985	2571.22
722.172	2661.34
722.358	2642.9
722.545	2677.72
722.732	2747.35
722.919	2649.05
723.106	2673.62
723.293	2624.47
723.48	2663.38
723.667	2790.36
723.853	2573.27
724.04	2718.68
724.227	2687.96
724.414	2612.18
724.6	2690.01
724.787	2739.16
724.974	2581.46
725.161	2540.51
725.347	2608.09
725.534	2657.24
725.72	2792.41
725.907	2642.9
726.094	2724.82
726.28	2696.15
726.467	2733.01
726.653	2685.91
726.84	2769.88
727.027	2722.77
727.213	2630.62
727.4	2681.82
727.586	2687.96
727.773	2585.56
727.959	2700.25
728.145	2628.57
728.332	2657.24
728.518	2593.75
728.705	2708.44
728.891	2704.34
729.077	2679.77
729.264	2644.95
729.45	2763.73
729.636	2690.01
729.823	2624.47
730.009	2710.49
730.195	2784.21
730.382	2704.34
730.568	2714.58
730.754	2683.86
730.94	2710.49
731.126	2694.1
731.313	2722.77
731.499	2827.22
731.685	2653.14
731.871	2735.06
732.057	2849.75
732.243	2608.09
732.429	2696.15
732.615	2714.58
732.801	2718.68
732.987	2679.77
733.173	2655.19
733.359	2823.12
733.545	2671.58
733.731	2730.97
733.917	2759.64
734.103	2825.17
734.289	2728.92
734.475	2642.9
734.661	2757.59
734.847	2761.69
735.033	2769.88
735.219	2851.8
735.404	2827.22
735.59	2733.01
735.776	2821.08
735.962	2706.39
736.148	2839.51
736.333	2831.32
736.519	2743.25
736.705	2823.12
736.89	2745.3
737.076	2747.35
737.262	2677.72
737.447	2849.75
737.633	2747.35
737.819	2816.98
738.004	2616.28
738.19	2747.35
738.375	2661.34
738.561	2741.21
738.747	2765.78
738.932	2759.64
739.118	2755.54
739.303	2741.21
739.489	2573.27
739.674	2708.44
739.859	2640.86
740.045	2782.17
740.23	2712.53
740.416	2558.94
740.601	2571.22
740.786	2675.67
740.972	2683.86
741.157	2679.77
741.342	2644.95
741.528	2694.1
741.713	2696.15
741.898	2720.73
742.084	2718.68
742.269	2642.9
742.454	2696.15
742.639	2687.96
742.824	2792.41
743.01	2649.05
743.195	2704.34
743.38	2618.33
743.565	2603.99
743.75	2497.5
743.935	2554.84
744.12	2581.46
744.305	2536.41
744.49	2468.83
744.675	2571.22
744.86	2503.64
745.045	2499.55
745.23	2587.61
745.415	2626.52
745.6	2618.33
745.785	2442.2
745.97	2505.69
746.155	2560.98
746.34	2563.03
746.525	2544.6
746.71	2569.18
746.895	2526.17
747.079	2452.44
747.264	2372.57
747.449	2368.48
747.634	2380.76
747.819	2472.92
748.003	2456.54
748.188	2354.14
748.373	2378.72
748.557	2462.68
748.742	2300.89
748.927	2341.85
749.111	2403.29
749.296	2399.2
749.481	2360.28
749.665	2341.85
749.85	2221.02
750.034	2333.66
750.219	2401.24
750.404	2317.28
750.588	2268.13
750.773	2153.44
750.957	2165.73
751.141	2307.04
751.326	2173.92
751.51	2214.88
751.695	2171.87
751.879	2141.15
752.064	2247.65
752.248	2104.29
752.432	2169.82
752.617	2173.92
752.801	2075.62
752.985	2130.91
753.17	2040.8
753.354	2083.81
753.538	2124.77
753.722	1993.7
753.907	2028.51
754.091	1981.41
754.275	2130.91
754.459	2008.03
754.643	1958.88
754.828	1965.03
755.012	2012.13
755.196	1983.46
755.38	1919.97
755.564	1856.48
755.748	1887.2
755.932	1805.28
756.116	1864.68
756.3	1874.92
756.484	1879.01
756.668	1922.02
756.852	1930.21
757.036	1860.58
757.22	1719.27
757.404	1756.13
757.588	1678.31
757.772	1745.89
757.956	1770.47
758.14	1719.27
758.323	1704.93
758.507	1797.09
758.691	1786.85
758.875	1643.49
759.059	1825.76
759.242	1799.14
759.426	1563.62
759.61	1663.97
759.794	1627.11
759.977	1668.07
760.161	1672.17
760.345	1608.68
760.528	1659.88
760.712	1604.58
760.895	1659.88
761.079	1582.06
761.263	1487.85
761.446	1543.14
761.63	1559.53
761.813	1653.73
761.997	1553.38
762.18	1549.29
762.364	1565.67
762.547	1407.98
762.731	1485.8
762.914	1500.14
763.098	1414.12
763.281	1444.84
763.464	1520.62
763.648	1434.6
763.831	1340.4
764.015	1440.75
764.198	1518.57
764.381	1438.7
764.564	1457.13
764.748	1418.22
764.931	1477.61
765.114	1422.31
765.297	1553.38
765.481	1467.37
765.664	1432.55
765.847	1389.55
766.03	1420.27
766.213	1385.45
766.397	1330.16
766.58	1489.9
766.763	1371.12
766.946	1315.82
767.129	1250.28
767.312	1330.16
767.495	1330.16
767.678	1317.87
767.861	1334.25
768.044	1383.4
768.227	1356.78
768.41	1303.53
768.593	1410.03
768.776	1194.99
768.959	1272.81
769.142	1369.07
769.324	1278.96
769.507	1285.1
769.69	1281
769.873	1227.76
770.056	1238
770.239	1209.33
770.421	1303.53
770.604	1207.28
770.787	1233.9
770.97	1264.62
771.152	1133.55
771.335	1242.09
771.518	1104.88
771.7	1166.32
771.883	1162.22
772.066	1178.61
772.248	1158.13
772.431	1225.71
772.613	1205.23
772.796	1106.93
772.978	1231.85
773.161	1225.71
773.343	1158.13
773.526	1137.65
773.708	1045.49
773.891	1047.54
774.073	1182.7
774.256	996.34
774.438	1131.5
774.621	1022.96
774.803	1086.45
774.985	998.38
775.168	1070.06
775.35	1051.63
775.532	1061.87
775.715	969.71
775.897	994.29
776.079	957.43
776.261	1072.11
776.444	975.86
776.626	955.38
776.808	938.99
776.99	900.08
777.173	969.71
777.355	867.31
777.537	1057.78
777.719	877.55
777.901	928.75
778.083	943.09
778.265	918.51
778.447	1031.15
778.629	861.17
778.811	883.7
778.993	893.94
779.175	928.75
779.357	857.07
779.539	887.79
779.721	902.13
779.903	865.27
780.085	805.88
780.267	801.78
780.449	818.16
780.631	908.27
780.812	855.03
780.994	764.92
781.176	789.49
781.358	893.94
781.54	797.68
781.721	781.3
781.903	832.5
782.085	760.82
782.267	875.51
782.448	728.05
782.63	789.49
782.812	674.81
782.993	699.38
783.175	791.54
783.357	646.13
783.538	719.86
783.72	689.14
783.901	709.62
784.083	723.96
784.264	648.18
784.446	619.51
784.627	734.2
784.809	662.52
784.99	633.85
785.172	685.05
785.353	658.42
785.535	621.56
785.716	642.04
785.897	588.79
786.079	603.13
786.26	644.09
786.441	621.56
786.623	513.02
786.804	558.07
786.985	574.46
787.167	648.18
787.348	662.52
787.529	590.84
787.71	560.12
787.891	619.51
788.073	498.68
788.254	578.55
788.435	621.56
788.616	547.83
788.797	519.16
788.978	527.35
789.159	504.82
789.34	535.54
789.522	480.25
789.703	474.1
789.884	564.22
790.065	513.02
790.246	564.22
790.427	488.44
790.607	644.09
790.788	564.22
790.969	517.11
791.15	506.87
791.331	470.01
791.512	443.39
791.693	568.31
791.874	470.01
792.054	594.93
792.235	517.11
792.416	467.96
792.597	467.96
792.778	519.16
792.958	510.97
793.139	369.66
793.32	435.19
793.5	398.33
793.681	406.52
793.862	482.3
794.042	467.96
794.223	373.75
794.404	394.23
794.584	343.03
794.765	357.37
794.945	429.05
795.126	345.08
795.306	398.33
795.487	406.52
795.667	449.53
795.848	429.05
796.028	314.36
796.209	455.67
796.389	470.01
796.57	422.91
796.75	373.75
796.93	400.38
797.111	383.99
797.291	371.71
797.471	367.61
797.652	295.93
797.832	377.85
798.012	427
798.192	343.03
798.373	383.99
798.553	386.04
798.733	386.04
798.913	383.99
799.093	302.08
799.274	484.34
799.454	435.19
799.634	224.25
799.814	308.22
799.994	291.84
800.174	318.46
800.354	347.13
800.534	246.78
800.714	367.61
800.894	291.84
801.074	273.4
801.254	383.99
801.434	349.18
801.614	291.84
801.794	259.07
801.974	957.43
802.154	252.92
802.334	316.41
802.514	291.84
802.693	310.27
802.873	304.12
803.053	347.13
803.233	279.55
803.413	353.27
803.592	308.22
803.772	324.6
803.952	201.72
804.131	267.26
804.311	254.97
804.491	340.99
804.67	285.69
804.85	242.68
805.03	304.12
805.209	257.02
805.389	279.55
805.568	195.58
805.748	230.4
805.928	283.64
806.107	281.6
806.287	252.92
806.466	269.31
806.646	242.68
806.825	326.65
807.004	195.58
807.184	144.38
807.363	240.64
807.543	216.06
807.722	230.4
807.901	279.55
808.081	248.83
808.26	150.53
808.439	214.01
808.619	259.07
808.798	244.73
808.977	238.59
809.156	275.45
809.336	263.16
809.515	236.54
809.694	252.92
809.873	146.43
810.052	340.99
810.231	261.12
810.411	203.77
810.59	279.55
810.769	197.63
810.948	324.6
811.127	111.61
811.306	273.4
811.485	179.2
811.664	224.25
811.843	175.1
812.022	244.73
812.201	211.96
812.38	171.01
812.559	226.3
812.737	162.81
812.916	226.3
813.095	220.16
813.274	246.78
813.453	130.05
813.632	220.16
813.811	259.07
813.989	154.62
814.168	197.63
814.347	150.53
814.526	185.34
814.704	216.06
814.883	197.63
815.062	128
815.24	179.2
815.419	203.77
815.598	152.57
815.776	181.25
815.955	185.34
816.133	107.52
816.312	259.07
816.49	152.57
816.669	168.96
816.847	134.14
817.026	164.86
817.204	183.29
817.383	154.62
817.561	115.71
817.74	281.6
817.918	119.81
818.097	209.92
818.275	177.15
818.453	175.1
818.632	162.81
818.81	154.62
818.988	162.81
819.167	222.2
819.345	146.43
819.523	128
819.701	144.38
819.879	185.34
820.058	140.29
820.236	142.33
820.414	89.09
820.592	76.8
820.77	158.72
820.948	99.33
821.127	181.25
821.305	191.49
821.483	162.81
821.661	205.82
821.839	140.29
822.017	214.01
822.195	216.06
822.373	207.87
822.551	177.15
822.729	117.76
822.907	140.29
823.085	195.58
823.262	191.49
823.44	183.29
823.618	134.14
823.796	146.43
823.974	123.9
824.152	97.28
824.329	74.75
824.507	162.81
824.685	152.57
824.863	80.89
825.04	78.85
825.218	183.29
825.396	226.3
825.574	95.23
825.751	134.14
825.929	156.67
826.107	115.71
826.284	74.75
826.462	117.76
826.639	128
826.817	140.29
826.994	89.09
827.172	105.47
827.349	119.81
827.527	103.42
827.704	78.85
827.882	150.53
828.059	146.43
828.237	101.37
828.414	144.38
828.591	21.5
828.769	95.23
828.946	113.66
829.124	173.05
829.301	183.29
829.478	44.03
829.655	68.61
829.833	37.89
830.01	46.08
830.187	152.57
830.364	121.85
830.542	168.96
830.719	91.13
830.896	91.13
831.073	87.04
831.25	136.19
831.427	91.13
831.604	99.33
831.782	56.32
831.959	103.42
832.136	66.56
832.313	89.09
832.49	138.24
832.667	146.43
832.844	138.24
833.021	66.56
833.198	113.66
833.374	111.61
833.551	33.79
833.728	76.8
833.905	132.09
834.082	97.28
834.259	54.27
834.436	121.85
834.612	66.56
834.789	132.09
834.966	58.37
835.143	3.07
835.319	54.27
835.496	74.75
835.673	121.85
835.85	113.66
836.026	113.66
836.203	123.9
836.38	152.57
836.556	93.18
836.733	25.6
836.909	156.67
837.086	76.8
837.262	58.37
837.439	1.02
837.616	-19.46
837.792	107.52
837.968	9.22
838.145	9.22
838.321	13.31
838.498	89.09
838.674	123.9
838.851	46.08
839.027	21.5
839.203	68.61
839.38	15.36
839.556	87.04
839.732	109.57
839.909	125.95
840.085	37.89
840.261	109.57
840.437	101.37
840.614	27.65
840.79	46.08
840.966	60.42
841.142	39.94
841.318	115.71
841.494	74.75
841.671	64.51
841.847	29.7
842.023	97.28
842.199	76.8
842.375	119.81
842.551	89.09
842.727	5.12
842.903	105.47
843.079	58.37
843.255	101.37
843.431	19.46
843.607	99.33
843.783	3.07
843.959	89.09
844.134	29.7
844.31	136.19
844.486	37.89
844.662	72.7
844.838	33.79
845.013	56.32
845.189	62.46
845.365	62.46
845.541	-3.07
845.716	44.03
845.892	93.18
846.068	7.17
846.244	-1.02
846.419	74.75
846.595	37.89
846.77	74.75
846.946	46.08
847.122	78.85
847.297	-5.12
847.473	109.57
847.648	-23.55
847.824	84.99
847.999	72.7
848.175	56.32
848.35	111.61
848.526	105.47
848.701	136.19
848.876	39.94
849.052	58.37
849.227	64.51
849.403	-33.79
849.578	11.26
849.753	56.32
849.929	66.56
850.104	-35.84
850.279	-17.41
850.454	87.04
850.63	52.22
850.805	9.22
850.98	84.99
851.155	-15.36
851.33	25.6
851.505	-27.65
851.681	-17.41
851.856	-11.26
852.031	105.47
852.206	74.75
852.381	-25.6
852.556	3.07
852.731	48.13
852.906	44.03
853.081	72.7
853.256	44.03
853.431	33.79
853.606	-17.41
853.781	-11.26
853.956	-37.89
854.131	-9.22
854.305	87.04
854.48	-31.74
854.655	11.26
854.83	56.32
855.005	23.55
855.18	72.7
855.354	15.36
855.529	-31.74
855.704	-5.12
855.879	76.8
856.053	-17.41
856.228	-27.65
856.403	-29.7
856.577	-5.12
856.752	-58.37
856.926	66.56
857.101	56.32
857.276	-23.55
857.45	5.12
857.625	-9.22
857.799	3.07
857.974	23.55
858.148	37.89
858.323	27.65
858.497	-7.17
858.672	25.6
858.846	19.46
859.02	54.27
859.195	15.36
859.369	23.55
859.543	31.74
859.718	13.31
859.892	62.46
860.066	13.31
860.241	17.41
860.415	-19.46
860.589	3.07
860.763	11.26
860.938	-48.13
861.112	31.74
861.286	-39.94
861.46	50.18
861.634	13.31
861.808	80.89
861.982	-1.02
862.157	48.13
862.331	29.7
862.505	-1.02
862.679	29.7
862.853	-46.08
863.027	13.31
863.201	82.94
863.375	9.22
863.549	21.5
863.722	-3.07
863.896	31.74
864.07	3.07
864.244	-3.07
864.418	-21.5
864.592	-27.65
864.766	64.51
864.939	-44.03
865.113	35.84
865.287	21.5
865.461	-7.17
865.634	17.41
865.808	-29.7
865.982	62.46
866.156	33.79
866.329	-7.17
866.503	70.65
866.676	56.32
866.85	25.6
867.024	-33.79
867.197	-84.99
867.371	7.17
867.544	-15.36
867.718	29.7
867.891	33.79
868.065	-15.36
868.238	-52.22
868.412	7.17
868.585	-19.46
868.759	5.12
868.932	-11.26
869.105	-52.22
869.279	27.65
869.452	13.31
869.625	5.12
869.799	-9.22
869.972	-23.55
870.145	-50.18
870.319	46.08
870.492	13.31
870.665	27.65
870.838	21.5
871.011	-72.7
871.185	11.26
871.358	-35.84
871.531	9.22
871.704	39.94
871.877	23.55
872.05	1.02
872.223	-29.7
872.396	-13.31
872.569	-3.07
872.742	-5.12
872.915	62.46
873.088	46.08
873.261	-41.98
873.434	62.46
873.607	29.7
873.78	11.26
873.953	-33.79
874.126	-19.46
874.299	5.12
874.471	15.36
874.644	54.27
874.817	-19.46
874.99	56.32
875.163	-35.84
875.335	-27.65
875.508	3.07
875.681	76.8
875.853	3.07
876.026	-70.65
876.199	-29.7
876.371	-44.03
876.544	9.22
876.717	-68.61
876.889	64.51
877.062	97.28
877.234	25.6
877.407	-15.36
877.579	-11.26
877.752	27.65
877.924	19.46
878.097	15.36
878.269	-80.89
878.442	15.36
878.614	-31.74
878.786	-29.7
878.959	29.7
879.131	-27.65
879.303	-11.26
879.476	-52.22
879.648	25.6
879.82	-9.22
879.993	-66.56
880.165	78.85
880.337	-31.74
880.509	29.7
880.681	-7.17
880.854	23.55
881.026	-15.36
881.198	128
881.37	25.6
881.542	44.03
881.714	17.41
881.886	-31.74
882.058	7.17
882.23	21.5
882.402	-9.22
882.574	-52.22
882.746	31.74
882.918	7.17
883.09	56.32
883.262	-44.03
883.434	11.26
883.606	-13.31
883.778	-7.17
883.95	13.31
884.122	-50.18
884.293	46.08
884.465	-37.89
884.637	31.74
884.809	-60.42
884.98	21.5
885.152	-11.26
885.324	31.74
885.496	5.12
885.667	-70.65
885.839	-29.7
886.011	-35.84
886.182	-17.41
886.354	-1.02
886.525	33.79
886.697	-15.36
886.869	-3.07
887.04	5.12
887.212	-27.65
887.383	33.79
887.555	19.46
887.726	21.5
887.897	-23.55
888.069	-15.36
888.24	-48.13
888.412	-3.07
888.583	-25.6
888.754	-17.41
888.926	-74.75
889.097	58.37
889.268	-87.04
889.44	58.37
889.611	3.07
889.782	-17.41
889.953	-82.94
890.125	66.56
890.296	-25.6
890.467	-11.26
890.638	-5.12
890.809	-50.18
890.98	-41.98
891.151	11.26
891.323	15.36
891.494	-11.26
891.665	11.26
891.836	-11.26
892.007	-37.89
892.178	31.74
892.349	-3.07
892.52	-44.03
892.691	-72.7
892.862	-25.6
893.032	-50.18
893.203	13.31
893.374	-48.13
893.545	29.7
893.716	-31.74
893.887	-62.46
894.057	-39.94
894.228	37.89
894.399	-37.89
894.57	41.98
894.74	-41.98
894.911	5.12
895.082	17.41
895.253	-15.36
895.423	-66.56
895.594	-37.89
895.764	-46.08
895.935	15.36
896.106	1.02
896.276	37.89
896.447	78.85
896.617	-33.79
896.788	-19.46
896.958	-101.37
897.129	-1.02
897.299	-39.94
897.47	-31.74
897.64	93.18
897.81	-64.51
897.981	1.02
898.151	-66.56
898.322	23.55
898.492	-15.36
898.662	13.31
898.832	5.12
899.003	-27.65
899.173	-17.41
899.343	-50.18
899.513	-66.56
