Data from USB4F104151__81__12-42-26-297.txt Node

Date: Fri Mar 14 12:42:26 EDT 2025
User: louis
Spectrometer: USB4F10415
Trigger mode: 4
Integration Time (sec): 3.000000E-2
Scans to average: 1
Electric dark correction enabled: true
Nonlinearity correction enabled: false
Boxcar width: 0
XAxis mode: Wavelengths
Number of Pixels in Spectrum: 3648
>>>>>Begin Spectral Data<<<<<
178.204	-108.03
178.424	-108.03
178.644	-108.03
178.864	-60.93
179.084	-157.18
179.304	43.52
179.524	-56.83
179.744	-62.98
179.964	31.23
180.184	33.28
180.404	35.33
180.624	72.19
180.844	-36.35
181.064	-69.12
181.283	-7.68
181.503	18.94
181.723	-1.54
181.943	-30.21
182.163	55.81
182.383	2.56
182.602	123.39
182.822	-32.26
183.042	115.2
183.262	-22.02
183.482	12.8
183.701	2.56
183.921	-62.98
184.141	-67.07
184.361	59.9
184.58	20.99
184.8	88.57
185.02	-58.88
185.239	115.2
185.459	20.99
185.679	43.52
185.898	-13.82
186.118	57.86
186.338	4.61
186.557	66.05
186.777	8.7
186.997	-13.82
187.216	64
187.436	55.81
187.655	-26.11
187.875	31.23
188.095	20.99
188.314	14.85
188.534	43.52
188.753	-32.26
188.973	-3.58
189.192	64
189.412	51.71
189.631	33.28
189.851	0.51
190.07	45.57
190.29	-28.16
190.509	57.86
190.729	25.09
190.948	117.25
191.168	135.68
191.387	90.62
191.607	64
191.826	-9.73
192.045	-32.26
192.265	31.23
192.484	-15.87
192.704	88.57
192.923	-11.78
193.142	74.24
193.362	-7.68
193.581	74.24
193.8	45.57
194.02	123.39
194.239	39.42
194.458	55.81
194.678	29.18
194.897	39.42
195.116	27.14
195.335	82.43
195.555	61.95
195.774	27.14
195.993	-26.11
196.212	76.29
196.432	-3.58
196.651	61.95
196.87	-34.3
197.089	64
197.308	86.53
197.528	51.71
197.747	37.38
197.966	31.23
198.185	59.9
198.404	-36.35
198.623	-17.92
198.842	117.25
199.062	94.72
199.281	33.28
199.5	49.66
199.719	53.76
199.938	117.25
200.157	53.76
200.376	96.77
200.595	80.38
200.814	8.7
201.033	6.66
201.252	8.7
201.471	-24.06
201.69	43.52
201.909	61.95
202.128	27.14
202.347	-9.73
202.566	-24.06
202.785	-15.87
203.004	2.56
203.223	47.62
203.442	37.38
203.661	6.66
203.879	70.14
204.098	51.71
204.317	80.38
204.536	113.15
204.755	74.24
204.974	66.05
205.193	2.56
205.411	104.96
205.63	115.2
205.849	39.42
206.068	-15.87
206.287	-1.54
206.505	31.23
206.724	96.77
206.943	47.62
207.162	-3.58
207.381	33.28
207.599	10.75
207.818	14.85
208.037	27.14
208.255	-17.92
208.474	41.47
208.693	68.09
208.911	53.76
209.13	31.23
209.349	18.94
209.567	76.29
209.786	57.86
210.005	25.09
210.223	29.18
210.442	10.75
210.661	72.19
210.879	-26.11
211.098	31.23
211.316	-17.92
211.535	78.33
211.753	-17.92
211.972	4.61
212.191	12.8
212.409	29.18
212.628	74.24
212.846	-15.87
213.065	6.66
213.283	55.81
213.502	0.51
213.72	-17.92
213.938	-9.73
214.157	25.09
214.375	41.47
214.594	10.75
214.812	90.62
215.031	31.23
215.249	8.7
215.467	-11.78
215.686	35.33
215.904	47.62
216.122	-7.68
216.341	141.82
216.559	33.28
216.778	45.57
216.996	47.62
217.214	68.09
217.432	39.42
217.651	-19.97
217.869	6.66
218.087	31.23
218.306	37.38
218.524	41.47
218.742	57.86
218.96	66.05
219.179	14.85
219.397	84.48
219.615	72.19
219.833	76.29
220.051	-58.88
220.27	154.11
220.488	39.42
220.706	72.19
220.924	-30.21
221.142	8.7
221.36	-11.78
221.578	76.29
221.796	57.86
222.015	47.62
222.233	6.66
222.451	92.67
222.669	45.57
222.887	59.9
223.105	16.9
223.323	45.57
223.541	-42.5
223.759	47.62
223.977	66.05
224.195	127.49
224.413	47.62
224.631	35.33
224.849	94.72
225.067	43.52
225.285	-15.87
225.503	-34.3
225.721	10.75
225.939	70.14
226.157	-7.68
226.375	117.25
226.592	14.85
226.81	-3.58
227.028	49.66
227.246	70.14
227.464	102.91
227.682	61.95
227.9	78.33
228.117	74.24
228.335	12.8
228.553	70.14
228.771	-7.68
228.989	-3.58
229.206	10.75
229.424	92.67
229.642	12.8
229.86	23.04
230.077	27.14
230.295	-52.74
230.513	131.58
230.731	14.85
230.948	113.15
231.166	80.38
231.384	25.09
231.601	2.56
231.819	55.81
232.037	-7.68
232.254	-15.87
232.472	61.95
232.689	-65.02
232.907	33.28
233.125	4.61
233.342	35.33
233.56	72.19
233.777	57.86
233.995	20.99
234.213	109.05
234.43	74.24
234.648	53.76
234.865	6.66
235.083	23.04
235.3	-22.02
235.518	111.1
235.735	111.1
235.953	-38.4
236.17	12.8
236.388	-15.87
236.605	53.76
236.822	121.34
237.04	61.95
237.257	-34.3
237.475	43.52
237.692	47.62
237.909	27.14
238.127	-19.97
238.344	61.95
238.562	64
238.779	-7.68
238.996	39.42
239.214	45.57
239.431	64
239.648	12.8
239.865	37.38
240.083	76.29
240.3	31.23
240.517	25.09
240.735	76.29
240.952	117.25
241.169	45.57
241.386	43.52
241.603	-7.68
241.821	-15.87
242.038	25.09
242.255	76.29
242.472	-48.64
242.689	133.63
242.907	107.01
243.124	57.86
243.341	-46.59
243.558	61.95
243.775	-19.97
243.992	16.9
244.209	59.9
244.426	123.39
244.643	49.66
244.86	74.24
245.078	100.86
245.295	49.66
245.512	70.14
245.729	35.33
245.946	33.28
246.163	4.61
246.38	68.09
246.597	-1.54
246.814	57.86
247.031	76.29
247.248	-22.02
247.464	25.09
247.681	121.34
247.898	-9.73
248.115	170.49
248.332	49.66
248.549	35.33
248.766	135.68
248.983	125.44
249.2	64
249.417	29.18
249.633	-26.11
249.85	82.43
250.067	-17.92
250.284	-17.92
250.501	61.95
250.717	64
250.934	-38.4
251.151	66.05
251.368	57.86
251.585	37.38
251.801	82.43
252.018	6.66
252.235	66.05
252.451	-1.54
252.668	-13.82
252.885	133.63
253.102	80.38
253.318	59.9
253.535	-32.26
253.752	41.47
253.968	-60.93
254.185	-5.63
254.401	94.72
254.618	76.29
254.835	31.23
255.051	113.15
255.268	33.28
255.484	90.62
255.701	39.42
255.917	74.24
256.134	14.85
256.351	72.19
256.567	25.09
256.784	0.51
257	-13.82
257.217	96.77
257.433	16.9
257.65	43.52
257.866	139.77
258.082	29.18
258.299	25.09
258.515	72.19
258.732	102.91
258.948	14.85
259.165	80.38
259.381	-22.02
259.597	53.76
259.814	8.7
260.03	18.94
260.246	43.52
260.463	43.52
260.679	31.23
260.895	78.33
261.112	102.91
261.328	-11.78
261.544	66.05
261.761	170.49
261.977	23.04
262.193	45.57
262.409	33.28
262.626	92.67
262.842	4.61
263.058	-1.54
263.274	96.77
263.49	84.48
263.707	29.18
263.923	55.81
264.139	6.66
264.355	43.52
264.571	113.15
264.787	43.52
265.004	78.33
265.22	80.38
265.436	113.15
265.652	20.99
265.868	123.39
266.084	12.8
266.3	-11.78
266.516	-11.78
266.732	-9.73
266.948	41.47
267.164	39.42
267.38	57.86
267.596	53.76
267.812	94.72
268.028	14.85
268.244	-7.68
268.46	-30.21
268.676	72.19
268.892	68.09
269.108	-7.68
269.324	-32.26
269.54	51.71
269.756	27.14
269.972	-1.54
270.188	57.86
270.403	-42.5
270.619	18.94
270.835	-1.54
271.051	55.81
271.267	45.57
271.483	0.51
271.698	102.91
271.914	-1.54
272.13	59.9
272.346	39.42
272.562	0.51
272.777	68.09
272.993	35.33
273.209	14.85
273.425	150.01
273.64	-32.26
273.856	70.14
274.072	72.19
274.287	12.8
274.503	14.85
274.719	74.24
274.934	35.33
275.15	115.2
275.366	27.14
275.581	18.94
275.797	-5.63
276.012	6.66
276.228	6.66
276.444	10.75
276.659	20.99
276.875	29.18
277.09	14.85
277.306	39.42
277.521	111.1
277.737	-52.74
277.952	88.57
278.168	-42.5
278.383	39.42
278.599	0.51
278.814	102.91
279.03	80.38
279.245	111.1
279.461	16.9
279.676	115.2
279.892	-50.69
280.107	43.52
280.322	64
280.538	43.52
280.753	100.86
280.969	78.33
281.184	66.05
281.399	78.33
281.615	-13.82
281.83	47.62
282.045	-3.58
282.26	4.61
282.476	-26.11
282.691	66.05
282.906	35.33
283.122	41.47
283.337	0.51
283.552	37.38
283.767	10.75
283.983	39.42
284.198	74.24
284.413	12.8
284.628	-5.63
284.843	125.44
285.058	43.52
285.274	72.19
285.489	47.62
285.704	78.33
285.919	74.24
286.134	-1.54
286.349	76.29
286.564	16.9
286.779	137.73
286.995	39.42
287.21	-52.74
287.425	33.28
287.64	-3.58
287.855	33.28
288.07	-32.26
288.285	74.24
288.5	84.48
288.715	59.9
288.93	12.8
289.145	76.29
289.36	152.06
289.575	20.99
289.79	-42.5
290.004	25.09
290.219	104.96
290.434	35.33
290.649	-38.4
290.864	-24.06
291.079	4.61
291.294	76.29
291.509	8.7
291.724	45.57
291.938	59.9
292.153	47.62
292.368	-17.92
292.583	61.95
292.798	47.62
293.012	-15.87
293.227	88.57
293.442	-7.68
293.657	64
293.871	147.97
294.086	16.9
294.301	125.44
294.516	-7.68
294.73	-3.58
294.945	31.23
295.16	43.52
295.374	119.29
295.589	82.43
295.804	57.86
296.018	88.57
296.233	14.85
296.447	70.14
296.662	-1.54
296.877	68.09
297.091	109.05
297.306	78.33
297.52	-7.68
297.735	104.96
297.949	55.81
298.164	125.44
298.378	0.51
298.593	53.76
298.807	6.66
299.022	74.24
299.236	98.81
299.451	90.62
299.665	-28.16
299.88	29.18
300.094	4.61
300.309	37.38
300.523	45.57
300.737	84.48
300.952	43.52
301.166	57.86
301.381	70.14
301.595	-9.73
301.809	35.33
302.024	39.42
302.238	33.28
302.452	107.01
302.667	45.57
302.881	84.48
303.095	29.18
303.309	-38.4
303.524	72.19
303.738	72.19
303.952	53.76
304.166	59.9
304.381	41.47
304.595	66.05
304.809	76.29
305.023	10.75
305.237	45.57
305.452	94.72
305.666	39.42
305.88	27.14
306.094	-1.54
306.308	86.53
306.522	0.51
306.736	-9.73
306.95	31.23
307.164	68.09
307.379	23.04
307.593	68.09
307.807	66.05
308.021	53.76
308.235	76.29
308.449	39.42
308.663	37.38
308.877	107.01
309.091	53.76
309.305	53.76
309.519	29.18
309.733	55.81
309.947	-28.16
310.161	117.25
310.374	61.95
310.588	92.67
310.802	57.86
311.016	14.85
311.23	57.86
311.444	53.76
311.658	12.8
311.872	64
312.085	98.81
312.299	131.58
312.513	33.28
312.727	14.85
312.941	18.94
313.154	84.48
313.368	119.29
313.582	43.52
313.796	74.24
314.009	86.53
314.223	94.72
314.437	35.33
314.651	80.38
314.864	64
315.078	82.43
315.292	2.56
315.505	104.96
315.719	49.66
315.933	14.85
316.146	-48.64
316.36	29.18
316.573	55.81
316.787	-1.54
317.001	96.77
317.214	43.52
317.428	92.67
317.641	59.9
317.855	135.68
318.068	72.19
318.282	53.76
318.495	72.19
318.709	84.48
318.922	8.7
319.136	68.09
319.349	31.23
319.563	33.28
319.776	76.29
319.99	41.47
320.203	47.62
320.417	61.95
320.63	109.05
320.843	137.73
321.057	10.75
321.27	-7.68
321.483	72.19
321.697	94.72
321.91	51.71
322.124	4.61
322.337	4.61
322.55	78.33
322.763	102.91
322.977	-48.64
323.19	45.57
323.403	8.7
323.617	82.43
323.83	92.67
324.043	8.7
324.256	25.09
324.469	0.51
324.683	74.24
324.896	10.75
325.109	27.14
325.322	-26.11
325.535	-13.82
325.748	70.14
325.962	72.19
326.175	53.76
326.388	6.66
326.601	104.96
326.814	37.38
327.027	55.81
327.24	104.96
327.453	55.81
327.666	35.33
327.879	29.18
328.092	47.62
328.305	43.52
328.518	39.42
328.731	61.95
328.944	43.52
329.157	61.95
329.37	43.52
329.583	61.95
329.796	96.77
330.009	-60.93
330.222	94.72
330.435	43.52
330.648	86.53
330.861	55.81
331.073	72.19
331.286	41.47
331.499	6.66
331.712	59.9
331.925	39.42
332.138	29.18
332.35	100.86
332.563	49.66
332.776	88.57
332.989	51.71
333.202	156.16
333.414	-11.78
333.627	6.66
333.84	115.2
334.053	45.57
334.265	0.51
334.478	-46.59
334.691	27.14
334.903	39.42
335.116	-40.45
335.329	35.33
335.541	92.67
335.754	139.77
335.966	86.53
336.179	78.33
336.392	90.62
336.604	39.42
336.817	115.2
337.029	111.1
337.242	113.15
337.454	129.53
337.667	113.15
337.88	102.91
338.092	72.19
338.305	27.14
338.517	100.86
338.729	104.96
338.942	72.19
339.154	51.71
339.367	55.81
339.579	70.14
339.792	18.94
340.004	53.76
340.217	76.29
340.429	109.05
340.641	-1.54
340.854	55.81
341.066	-52.74
341.278	68.09
341.491	49.66
341.703	0.51
341.915	123.39
342.128	82.43
342.34	-32.26
342.552	27.14
342.764	12.8
342.977	113.15
343.189	107.01
343.401	29.18
343.613	10.75
343.826	76.29
344.038	53.76
344.25	18.94
344.462	-1.54
344.674	121.34
344.886	25.09
345.099	64
345.311	109.05
345.523	27.14
345.735	31.23
345.947	96.77
346.159	49.66
346.371	121.34
346.583	4.61
346.795	117.25
347.007	-17.92
347.219	33.28
347.431	98.81
347.643	125.44
347.855	18.94
348.067	72.19
348.279	12.8
348.491	39.42
348.703	41.47
348.915	84.48
349.127	53.76
349.339	88.57
349.551	0.51
349.763	31.23
349.975	-26.11
350.187	66.05
350.399	35.33
350.61	82.43
350.822	29.18
351.034	41.47
351.246	37.38
351.458	43.52
351.669	-13.82
351.881	76.29
352.093	104.96
352.305	74.24
352.517	68.09
352.728	121.34
352.94	31.23
353.152	49.66
353.363	123.39
353.575	16.9
353.787	125.44
353.999	61.95
354.21	96.77
354.422	-5.63
354.633	100.86
354.845	27.14
355.057	18.94
355.268	53.76
355.48	35.33
355.692	68.09
355.903	80.38
356.115	18.94
356.326	-40.45
356.538	92.67
356.749	121.34
356.961	72.19
357.172	35.33
357.384	-32.26
357.595	166.4
357.807	16.9
358.018	25.09
358.23	-30.21
358.441	104.96
358.653	51.71
358.864	-17.92
359.075	57.86
359.287	57.86
359.498	14.85
359.709	152.06
359.921	29.18
360.132	86.53
360.344	31.23
360.555	31.23
360.766	29.18
360.977	41.47
361.189	82.43
361.4	45.57
361.611	45.57
361.823	53.76
362.034	82.43
362.245	-15.87
362.456	70.14
362.667	86.53
362.879	55.81
363.09	59.9
363.301	57.86
363.512	72.19
363.723	123.39
363.935	74.24
364.146	61.95
364.357	-11.78
364.568	96.77
364.779	31.23
364.99	82.43
365.201	88.57
365.412	174.59
365.623	10.75
365.834	133.63
366.045	25.09
366.256	35.33
366.467	61.95
366.678	57.86
366.889	-7.68
367.1	41.47
367.311	80.38
367.522	57.86
367.733	12.8
367.944	176.64
368.155	47.62
368.366	55.81
368.577	111.1
368.788	82.43
368.999	107.01
369.209	92.67
369.42	152.06
369.631	88.57
369.842	49.66
370.053	82.43
370.264	145.92
370.474	14.85
370.685	70.14
370.896	66.05
371.107	57.86
371.317	102.91
371.528	86.53
371.739	109.05
371.95	66.05
372.16	41.47
372.371	70.14
372.582	41.47
372.792	137.73
373.003	98.81
373.214	66.05
373.424	123.39
373.635	10.75
373.846	107.01
374.056	14.85
374.267	107.01
374.477	98.81
374.688	31.23
374.898	41.47
375.109	66.05
375.319	37.38
375.53	102.91
375.74	59.9
375.951	53.76
376.161	57.86
376.372	164.35
376.582	-9.73
376.793	82.43
377.003	33.28
377.214	61.95
377.424	35.33
377.635	74.24
377.845	47.62
378.055	84.48
378.266	53.76
378.476	88.57
378.686	55.81
378.897	82.43
379.107	78.33
379.317	133.63
379.528	64
379.738	174.59
379.948	61.95
380.158	94.72
380.369	72.19
380.579	107.01
380.789	43.52
380.999	74.24
381.21	66.05
381.42	100.86
381.63	-1.54
381.84	39.42
382.05	109.05
382.261	61.95
382.471	143.87
382.681	94.72
382.891	68.09
383.101	29.18
383.311	123.39
383.521	64
383.731	66.05
383.941	82.43
384.151	143.87
384.361	18.94
384.571	88.57
384.781	59.9
384.991	117.25
385.201	113.15
385.411	76.29
385.621	143.87
385.831	160.25
386.041	59.9
386.251	78.33
386.461	25.09
386.671	66.05
386.881	92.67
387.091	8.7
387.301	78.33
387.511	76.29
387.72	61.95
387.93	64
388.14	66.05
388.35	41.47
388.56	113.15
388.769	121.34
388.979	23.04
389.189	-1.54
389.399	119.29
389.609	16.9
389.818	96.77
390.028	88.57
390.238	98.81
390.447	82.43
390.657	98.81
390.867	68.09
391.076	4.61
391.286	76.29
391.496	125.44
391.705	100.86
391.915	41.47
392.125	119.29
392.334	88.57
392.544	88.57
392.753	123.39
392.963	92.67
393.172	70.14
393.382	70.14
393.591	193.02
393.801	102.91
394.01	139.77
394.22	96.77
394.429	66.05
394.639	68.09
394.848	84.48
395.058	92.67
395.267	135.68
395.477	180.73
395.686	45.57
395.895	156.16
396.105	168.45
396.314	113.15
396.524	100.86
396.733	45.57
396.942	100.86
397.152	90.62
397.361	260.6
397.57	98.81
397.78	113.15
397.989	188.93
398.198	313.85
398.407	96.77
398.617	94.72
398.826	119.29
399.035	109.05
399.244	92.67
399.453	178.69
399.663	170.49
399.872	201.21
400.081	156.16
400.29	197.12
400.499	113.15
400.708	197.12
400.917	137.73
401.127	131.58
401.336	84.48
401.545	178.69
401.754	156.16
401.963	172.54
402.172	156.16
402.381	176.64
402.59	150.01
402.799	221.69
403.008	229.88
403.217	150.01
403.426	107.01
403.635	125.44
403.844	205.31
404.053	274.94
404.262	184.83
404.471	219.64
404.68	256.51
404.888	168.45
405.097	184.83
405.306	164.35
405.515	299.52
405.724	211.45
405.933	317.95
406.142	248.32
406.35	246.27
406.559	193.02
406.768	227.84
406.977	354.81
407.185	348.67
407.394	342.52
407.603	215.55
407.812	346.62
408.02	322.04
408.229	276.99
408.438	315.9
408.646	358.91
408.855	334.33
409.064	358.91
409.272	309.76
409.481	387.58
409.69	356.86
409.898	412.15
410.107	326.14
410.315	475.64
410.524	459.26
410.733	520.7
410.941	547.32
411.15	532.98
411.358	453.11
411.567	596.47
411.775	608.76
411.984	547.32
412.192	635.38
412.401	647.67
412.609	672.25
412.818	655.86
413.026	666.1
413.234	725.49
413.443	727.54
413.651	739.83
413.86	711.16
414.068	870.9
414.276	836.08
414.485	825.84
414.693	907.76
414.901	893.43
415.11	932.34
415.318	997.87
415.526	983.54
415.734	983.54
415.943	1004.02
416.151	1151.47
416.359	1081.84
416.567	1108.46
416.776	1235.44
416.984	1339.88
417.192	1399.27
417.4	1323.5
417.608	1411.56
417.817	1440.23
418.025	1540.58
418.233	1745.38
418.441	1577.45
418.649	1606.12
418.857	1892.84
419.065	1804.77
419.273	1839.59
419.481	1819.11
419.689	2023.91
419.897	2040.29
420.105	2005.47
420.313	2245.09
420.521	2284
420.729	2214.37
420.937	2306.52
421.145	2402.78
421.353	2601.43
421.561	2701.78
421.769	2783.7
421.977	2824.66
422.185	2904.53
422.393	2951.63
422.601	3111.38
422.809	3140.05
423.017	3084.75
423.224	3389.9
423.432	3461.58
423.64	3516.87
423.848	3844.55
424.056	3797.45
424.263	4008.39
424.471	3883.46
424.679	4116.93
424.887	4297.15
425.094	4381.12
425.302	4420.03
425.51	4747.7
425.718	4784.57
425.925	4753.85
426.133	5091.76
426.341	5253.55
426.548	5525.93
426.756	5530.03
426.964	5466.54
427.171	5829.03
427.379	6037.92
427.586	6203.81
427.794	6244.77
428.001	6388.13
428.209	6953.37
428.417	6816.15
428.624	7373.2
428.832	7291.28
429.039	7414.16
429.247	7135.64
429.454	7967.11
429.662	8472.96
429.869	7895.43
430.076	8534.4
430.284	8262.02
430.491	8628.6
430.699	9040.25
430.906	9138.55
431.114	9228.66
431.321	9429.36
431.528	9857.39
431.736	10144.1
431.943	10871.13
432.15	10402.15
432.358	10717.53
432.565	11182.42
432.772	11028.82
432.979	11778.38
433.187	11784.52
433.394	12081.48
433.601	12910.91
433.808	12720.45
434.016	12859.71
434.223	13418.8
434.43	14063.91
434.637	13906.22
434.844	14866.72
435.052	14887.2
435.259	14831.9
435.466	15216.92
435.673	14946.59
435.88	15941.9
436.087	16822.53
436.294	16890.11
436.501	16474.37
436.708	16691.46
436.915	17371.38
437.122	18262.25
437.329	17912.05
437.537	18450.66
437.743	18979.04
437.95	18772.19
438.157	19708.12
438.364	20187.34
438.571	20537.54
438.778	20265.16
438.985	22249.64
439.192	21495.99
439.399	22169.77
439.606	21665.97
439.813	22915.23
440.02	24402.06
440.227	23937.17
440.433	23941.27
440.64	24735.88
440.847	24340.62
441.054	24758.41
441.261	26898.53
441.467	25976.95
441.674	26654.83
441.881	27385.95
442.088	27881.56
442.294	27568.22
442.501	28006.48
442.708	28698.7
442.914	29968.44
443.121	31146.02
443.328	30423.09
443.534	32626.7
443.741	31387.68
443.948	30783.53
444.154	33363.97
444.361	33247.24
444.568	33241.09
444.774	33361.92
444.981	33751.04
445.187	34836.46
445.394	35958.75
445.6	35583.97
445.807	39258.02
446.013	37398.47
446.22	38293.43
446.426	39554.98
446.633	40062.88
446.839	40933.26
447.046	39356.33
447.252	41723.78
447.459	41559.94
447.665	41475.98
447.871	43421.55
448.078	44975.95
448.284	43018.1
448.491	44279.64
448.697	46186.3
448.903	46792.5
449.11	47048.5
449.316	46006.08
449.522	46491.45
449.728	48273.18
449.935	48744.22
450.141	48705.3
450.347	49403.66
450.553	47898.41
450.76	49248.02
450.966	50214.66
451.172	49702.67
451.378	50757.37
451.584	49702.67
451.791	51384.05
451.997	51277.55
452.203	51738.35
452.409	52002.53
452.615	51855.08
452.821	49696.52
453.027	49477.39
453.233	52309.73
453.44	49741.58
453.646	51093.24
453.852	50781.95
454.058	51502.83
454.264	50360.06
454.47	51095.28
454.676	49805.06
454.882	51324.66
455.088	47085.36
455.294	47961.89
455.5	48639.77
455.705	48842.52
455.911	47195.95
456.117	46417.72
456.323	45555.53
456.529	43464.55
456.735	45330.25
456.941	44253.02
457.147	43343.72
457.352	42334.07
457.558	41914.24
457.764	42043.26
457.97	41332.62
458.176	40175.51
458.381	39837.6
458.587	38289.34
458.793	38254.52
458.999	36425.68
459.204	39225.26
459.41	37541.83
459.616	35391.46
459.821	35301.35
460.027	35244.01
460.233	34303.99
460.438	32890.89
460.644	33206.28
460.85	31580.19
461.055	31526.94
461.261	31313.95
461.466	28717.13
461.672	28121.17
461.878	30173.24
462.083	28078.16
462.289	27385.95
462.494	26972.26
462.7	25858.17
462.905	25557.11
463.111	26112.11
463.316	26273.9
463.522	25532.54
463.727	25909.36
463.932	25669.75
464.138	25524.35
464.343	25593.98
464.549	24746.12
464.754	25737.34
464.959	25200.77
465.165	25036.93
465.37	23840.92
465.575	23478.43
465.781	24586.38
465.986	24483.98
466.191	23646.36
466.397	23337.12
466.602	22040.75
466.807	22888.61
467.012	22771.88
467.218	22724.77
467.423	22714.53
467.628	22833.32
467.833	23427.23
468.038	22419.63
468.244	21829.81
468.449	22993.06
468.654	22300.84
468.859	21926.07
469.064	21981.36
469.269	21278.91
469.474	21344.44
469.679	21864.63
469.885	21014.72
470.09	21455.03
470.295	21307.58
470.5	20394.18
470.705	20865.22
470.91	20326.6
471.115	20170.96
471.32	20523.21
471.525	20252.87
471.73	19833.04
471.935	19968.21
472.139	18825.44
472.344	19429.59
472.549	19169.5
472.754	18796.77
472.959	18628.84
473.164	18319.59
473.369	18157.8
473.574	18583.78
473.778	18438.37
473.983	18378.98
474.188	18151.66
474.393	17187.07
474.598	17416.44
474.802	17326.33
475.007	17219.83
475.212	17328.38
475.417	16658.69
475.621	16791.81
475.826	16886.01
476.031	16361.73
476.235	15882.51
476.44	16369.93
476.645	15726.86
476.849	16298.25
477.054	15728.91
477.259	15661.33
477.463	15679.76
477.668	15243.54
477.872	15266.07
478.077	15135
478.282	14600.48
478.486	14555.43
478.691	14403.88
478.895	14479.65
479.1	14598.43
479.304	14448.93
479.509	13941.04
479.713	14334.25
479.918	13887.79
480.122	13404.47
480.326	13771.05
480.531	14029.1
480.735	13486.39
480.94	13283.64
481.144	13992.23
481.348	13353.27
481.553	13465.91
481.757	12994.87
481.961	13216.05
482.166	13443.38
482.37	13261.11
482.574	13320.5
482.778	13334.84
482.983	13652.27
483.187	13502.77
483.391	13244.73
483.595	13238.58
483.8	12998.97
484.004	13285.69
484.208	13349.17
484.412	13220.15
484.616	13127.99
484.821	13158.71
485.025	13144.38
485.229	13291.83
485.433	13062.46
485.637	13361.46
485.841	13101.37
486.045	13297.97
486.249	13154.62
486.453	13134.14
486.657	13179.19
486.861	13171
487.065	12927.29
487.269	13181.24
487.473	12962.11
487.677	12912.95
487.881	13375.8
488.085	13357.36
488.289	13326.64
488.493	13185.33
488.697	13181.24
488.901	13117.75
489.105	13420.85
489.309	13318.45
489.512	13326.64
489.716	13494.58
489.92	13236.53
490.124	13265.21
490.328	13601.07
490.531	13396.28
490.735	13357.36
490.939	13582.64
491.143	13222.2
491.346	13545.78
491.55	13664.56
491.754	13799.73
491.958	13867.31
492.161	13859.12
492.365	13857.07
492.569	13779.25
492.772	13750.57
492.976	14102.82
493.18	13885.74
493.383	14326.05
493.587	14432.55
493.79	14469.41
493.994	14059.82
494.197	14422.31
494.401	14297.38
494.605	14625.06
494.808	14911.77
495.012	14653.73
495.215	14754.08
495.419	15106.33
495.622	14758.17
495.825	15042.84
496.029	14934.3
496.232	15431.96
496.436	15137.05
496.639	16011.53
496.843	15503.64
497.046	15862.03
497.249	15999.24
497.453	16245
497.656	16253.19
497.859	16482.56
498.063	16408.84
498.266	17000.7
498.469	17004.8
498.673	17129.72
498.876	17342.71
499.079	17352.95
499.282	17547.51
499.485	17942.77
499.689	18030.83
499.892	17848.56
500.095	18213.1
500.298	18557.16
500.501	18368.74
500.705	19005.66
500.908	18979.04
501.111	19216.6
501.314	19644.63
501.517	19826.9
501.72	19974.35
501.923	20011.21
502.126	20416.71
502.329	20676.8
502.532	20840.64
502.735	20711.62
502.938	21287.1
503.141	21250.24
503.344	21369.02
503.547	21721.27
503.75	22249.64
503.953	22249.64
504.156	22286.51
504.359	22577.32
504.562	22427.82
504.765	22931.62
504.968	23431.32
505.17	23638.17
505.373	23861.4
505.576	24201.36
505.779	24154.26
505.982	24684.68
506.185	24912
506.387	24844.42
506.59	25286.78
506.793	25942.13
506.996	25585.79
507.198	26609.77
507.401	26331.25
507.604	26720.36
507.807	27019.36
508.009	27293.79
508.212	27099.23
508.415	27414.62
508.617	27988.05
508.82	28178.51
509.022	28002.39
509.225	28907.59
509.428	28880.97
509.63	29100.1
509.833	29177.92
510.035	30173.24
510.238	29960.25
510.44	30423.09
510.643	30412.85
510.845	30842.92
511.048	30691.37
511.25	31141.92
511.453	31193.12
511.655	32405.52
511.858	32045.08
512.06	32237.59
512.262	32708.62
512.465	32497.68
512.667	32864.27
512.87	33509.38
513.072	33617.92
513.274	34281.46
513.477	34088.95
513.679	34869.23
513.881	34801.64
514.084	35170.28
514.286	35135.46
514.488	35844.06
514.69	36356.05
514.893	36437.97
515.095	36392.92
515.297	36992.97
515.499	37042.12
515.701	37240.78
515.904	37887.93
516.106	38096.83
516.308	38229.94
516.51	38789.04
516.712	38717.36
516.914	39151.53
517.116	39851.94
517.318	39749.54
517.52	39946.14
517.722	40109.98
517.925	40535.96
518.127	41090.96
518.329	41074.57
518.531	41039.76
518.733	41842.56
518.935	41830.27
519.136	41848.71
519.338	42862.45
519.54	42764.15
519.742	43151.21
519.944	43366.25
520.146	44210.01
520.348	44113.76
520.55	44220.25
520.752	44101.47
520.954	45291.34
521.155	44750.68
521.357	45176.65
521.559	45537.1
521.761	46069.57
521.963	46270.27
522.164	46012.23
522.366	46407.48
522.568	47021.87
522.77	47157.04
522.971	47601.45
523.173	47152.94
523.375	47550.25
523.576	47730.47
523.778	48273.18
523.98	48019.24
524.181	48701.21
524.383	48578.33
524.584	49061.65
524.786	49444.62
524.988	48994.07
525.189	49256.21
525.391	49942.28
525.592	49755.91
525.794	50122.5
525.995	49944.33
526.197	50476.8
526.398	49829.64
526.6	50937.59
526.801	50441.98
527.003	51062.52
527.204	51140.34
527.406	51320.56
527.607	51039.99
527.808	51599.08
528.01	50943.73
528.211	51246.83
528.412	52053.73
528.614	51607.28
528.815	52039.4
529.016	52360.93
529.218	51615.47
529.419	52123.36
529.62	51754.73
529.822	51883.75
530.023	52420.32
530.224	52340.45
530.425	52401.89
530.626	52221.67
530.828	52233.95
531.029	53167.83
531.23	52111.08
531.431	52692.7
531.632	53016.28
531.833	53018.33
532.035	52664.03
532.236	52864.73
532.437	52942.55
532.638	52659.93
532.839	53096.15
533.04	53079.77
533.241	52211.43
533.442	53372.63
533.643	52704.99
533.844	52819.67
534.045	53262.04
534.246	52254.43
534.447	53624.53
534.648	52563.68
534.849	53202.64
535.05	52729.56
535.251	52817.63
535.451	52874.97
535.652	52893.4
535.853	52860.63
536.054	53169.88
536.255	53407.44
536.456	52348.64
536.657	53429.97
536.857	52721.37
537.058	52664.03
537.259	53065.43
537.46	52848.35
537.66	53194.45
537.861	52975.32
538.062	53040.85
538.263	53067.48
538.463	52418.27
538.664	52645.6
538.865	52893.4
539.065	53028.57
539.266	52330.21
539.466	52979.42
539.667	52844.25
539.868	53352.15
540.068	52766.43
540.269	52504.29
540.469	52995.8
540.67	52647.64
540.87	52496.09
541.071	52518.62
541.271	53044.95
541.472	52694.75
541.672	52555.49
541.873	52162.28
542.073	52246.24
542.274	53176.02
542.474	52448.99
542.675	52199.14
542.875	52645.6
543.075	52322.02
543.276	52066.02
543.476	52985.56
543.676	52248.29
543.877	52438.75
544.077	51914.47
544.277	52295.39
544.478	52430.56
544.678	52895.45
544.878	52076.26
545.078	52608.73
545.279	51838.7
545.479	51810.03
545.679	52569.82
545.879	52016.87
546.079	52094.69
546.28	51844.84
546.48	52217.57
546.68	51707.63
546.88	51871.46
547.08	51908.33
547.28	51703.53
547.48	51228.4
547.68	52315.87
547.88	51666.67
548.081	51883.75
548.281	51730.15
548.481	51703.53
548.681	52143.84
548.881	51449.58
549.081	51724.01
549.28	51287.79
549.48	52225.76
549.68	51758.83
549.88	52270.82
550.08	51752.68
550.28	52213.48
550.48	51906.28
550.68	51850.98
550.88	51527.41
551.08	51365.62
551.279	51877.61
551.479	51767.02
551.679	51511.02
551.879	51199.73
552.079	51689.2
552.278	51463.92
552.478	51742.44
552.678	51652.33
552.878	51857.13
553.077	51570.41
553.277	50890.49
553.477	52006.63
553.676	51597.04
553.876	51199.73
554.076	51377.9
554.275	51216.11
554.475	50360.06
554.674	51320.56
554.874	51218.16
555.074	51171.06
555.273	50779.9
555.473	50878.2
555.672	50771.71
555.872	51222.26
556.071	50517.76
556.271	51099.38
556.47	50949.88
556.67	50425.6
556.869	50568.96
557.068	50456.32
557.268	50661.11
557.467	50704.12
557.667	50697.98
557.866	50321.15
558.065	50573.05
558.265	49807.11
558.464	49899.27
558.663	50743.03
558.863	50308.86
559.062	50968.31
559.261	49858.31
559.461	50607.87
559.66	49712.91
559.859	49895.17
560.058	49942.28
560.258	49755.91
560.457	49336.08
560.656	49788.68
560.855	49598.22
561.054	50155.27
561.253	49317.65
561.453	49264.4
561.652	49583.88
561.851	50059.01
562.05	49198.87
562.249	48867.09
562.448	49649.42
562.647	49647.37
562.846	49501.96
563.045	49229.58
563.244	48600.86
563.443	49514.25
563.642	48787.22
563.841	48836.37
564.04	48983.83
564.239	49469.2
564.438	48613.15
564.637	48975.64
564.836	48881.43
565.035	47865.64
565.234	48322.33
565.432	48484.12
565.631	48461.6
565.83	48623.39
566.029	47994.66
566.228	48123.68
566.427	47703.85
566.625	47712.04
566.824	47634.22
567.023	48174.88
567.222	46782.26
567.42	47628.07
567.619	47843.11
567.818	47488.81
568.016	47527.72
568.215	47806.25
568.414	47318.83
568.612	47839.01
568.811	47097.65
569.01	47654.7
569.208	46917.43
569.407	47730.47
569.605	46520.12
569.804	47322.93
570.002	46454.59
570.201	47132.46
570.4	46546.75
570.598	46628.66
570.797	46153.54
570.995	46561.08
571.193	46257.98
571.392	46300.99
571.59	46253.89
571.789	46028.61
571.987	46016.32
572.186	46149.44
572.384	45774.66
572.582	46147.39
572.781	45682.5
572.979	45539.15
573.177	45952.83
573.376	45815.62
573.574	45436.75
573.772	45616.97
573.971	45270.86
574.169	44928.85
574.367	44771.16
574.565	45254.48
574.763	45510.47
574.962	44822.36
575.16	44717.91
575.358	44552.02
575.556	44085.09
575.754	45037.39
575.952	44267.36
576.151	44492.63
576.349	44343.13
576.547	44613.46
576.745	44177.25
576.943	44193.63
577.141	44257.12
577.339	43827.04
577.537	43698.02
577.735	43972.45
577.933	43308.91
578.131	43884.39
578.329	43362.15
578.527	43249.52
578.725	43530.09
578.923	43419.5
579.121	42796.91
579.319	42649.46
579.516	43061.1
579.714	42930.03
579.912	42280.83
580.11	43188.08
580.308	42813.3
580.506	42633.08
580.704	42080.13
580.901	42409.85
581.099	42334.07
581.297	41928.58
581.495	41920.38
581.692	42143.61
581.89	41715.59
582.088	42057.6
582.285	41447.3
582.483	41979.78
582.681	41609.09
582.878	41500.55
583.076	41185.16
583.274	41398.15
583.471	40757.14
583.669	41045.9
583.866	40957.84
584.064	40730.51
584.262	40581.01
584.459	41031.57
584.657	40658.84
584.854	40652.69
585.052	39911.33
585.249	40320.92
585.447	40093.6
585.644	39774.11
585.841	40099.74
586.039	40138.65
586.236	39460.77
586.434	39440.29
586.631	39595.94
586.828	39462.82
587.026	39571.36
587.223	39354.28
587.42	39198.63
587.618	39341.99
587.815	38578.1
588.012	38770.61
588.21	39239.59
588.407	39194.54
588.604	38700.98
588.801	38270.9
588.999	38625.2
589.196	38287.29
589.393	38412.21
589.59	38281.14
589.787	37998.52
589.984	37742.53
590.182	37476.29
590.379	37670.85
590.576	37486.53
590.773	37619.65
590.97	37205.96
591.167	37836.73
591.364	37167.05
591.561	37158.86
591.758	36560.85
591.955	36704.21
592.152	37240.78
592.349	36247.51
592.546	36648.91
592.743	36726.74
592.94	36341.72
593.137	36622.29
593.334	36730.83
593.531	35706.85
593.727	36327.38
593.924	36231.13
594.121	35864.54
594.318	36304.85
594.515	35540.96
594.712	36059.1
594.908	35522.53
595.105	36071.39
595.302	35069.93
595.499	35467.23
595.696	35354.6
595.892	34727.92
596.089	34959.34
596.286	35041.26
596.482	34732.01
596.679	34641.9
596.876	34543.6
597.072	34148.34
597.269	34539.5
597.466	34289.65
597.662	34293.75
597.859	34158.58
598.055	34103.29
598.252	33929.21
598.448	33675.26
598.645	33796.09
598.841	33308.68
599.038	33607.68
599.234	33634.3
599.431	33208.33
599.627	32919.56
599.824	33431.55
600.02	32983.05
600.217	33148.93
600.413	33105.93
600.609	32563.22
600.806	32604.17
601.002	32716.81
601.198	32151.57
601.395	32458.77
601.591	32329.75
601.787	32165.91
601.984	32045.08
602.18	32153.62
602.376	32229.4
602.572	31815.71
602.769	31752.22
602.965	31729.69
603.161	31784.99
603.357	31541.28
603.553	31373.35
603.75	31576.09
603.946	31227.94
604.142	31336.48
604.338	30824.49
604.534	30883.88
604.73	30490.67
604.926	30724.14
605.122	30857.26
605.318	30718
605.514	30410.8
605.71	30277.68
605.906	30050.36
606.102	30513.2
606.298	29816.89
606.494	30152.76
606.69	29982.77
606.886	29896.76
607.082	29837.37
607.278	29986.87
607.474	29685.82
607.67	29847.61
607.866	29515.84
608.062	29841.46
608.257	29460.54
608.453	29438.01
608.649	29661.24
608.845	29315.14
609.041	29196.35
609.236	29483.07
609.432	28866.63
609.628	28950.6
609.824	28917.83
610.019	28686.41
610.215	29175.87
610.411	28997.7
610.606	28594.25
610.802	29075.52
610.998	28907.59
611.193	28811.34
611.389	28344.4
611.584	28438.61
611.78	28260.43
611.976	28360.78
612.171	28469.33
612.367	28194.9
612.562	28051.54
612.758	27998.29
612.953	28072.02
613.149	28246.1
613.344	27750.49
613.539	28541
613.735	28174.42
613.93	27990.1
614.126	27621.47
614.321	28051.54
614.517	28004.44
614.712	27793.5
614.907	27691.1
615.103	27770.97
615.298	26839.14
615.493	27637.85
615.688	27437.15
615.884	27928.66
616.079	27467.87
616.274	27494.49
616.47	27289.7
616.665	27375.71
616.86	26988.64
617.055	26865.77
617.25	27156.58
617.445	26992.74
617.641	26630.25
617.836	26910.82
618.031	26447.98
618.226	26742.89
618.421	26609.77
618.616	26726.5
618.811	26083.44
619.006	26822.76
619.201	26067.06
619.396	26249.33
619.591	25858.17
619.786	26062.96
619.981	25591.93
620.176	25882.74
620.371	25583.74
620.566	25626.74
620.761	25581.69
620.956	25639.03
621.151	25112.7
621.346	25208.96
621.541	25084.03
621.735	24795.27
621.93	24512.65
622.125	24565.9
622.32	24316.04
622.515	24596.62
622.709	24266.89
622.904	24268.94
623.099	24189.07
623.294	24176.78
623.488	23574.68
623.683	23875.73
623.878	23793.81
624.072	23611.54
624.267	23578.78
624.462	23414.94
624.656	23050.4
624.851	23120.03
625.046	22864.04
625.24	22608.04
625.435	22298.8
625.629	22522.02
625.824	22450.35
626.018	22583.46
626.213	22057.14
626.407	22083.76
626.602	22010.03
626.796	21948.59
626.991	21799.09
627.185	21670.07
627.38	21571.77
627.574	21338.3
627.768	21237.95
627.963	21190.84
628.157	20762.82
628.352	20916.42
628.546	21110.97
628.74	20764.87
628.935	20785.35
629.129	20441.29
629.323	20379.85
629.517	20125.9
629.712	20103.37
629.906	20191.44
630.1	19697.88
630.294	19914.96
630.489	19751.12
630.683	19777.75
630.877	19687.64
631.071	19585.24
631.265	19605.72
631.459	19491.03
631.653	19106.01
631.848	19353.82
632.042	19167.45
632.236	18825.44
632.43	18671.84
632.624	18690.27
632.818	18821.34
633.012	18503.91
633.206	18243.82
633.4	18561.25
633.594	18225.39
633.788	18133.23
633.982	17991.92
634.176	18340.07
634.369	17764.59
634.563	17836.27
634.757	17512.69
634.951	17666.29
635.145	17631.47
635.339	17729.78
635.533	17273.08
635.726	17338.62
635.92	16947.45
636.114	17006.84
636.308	16924.93
636.501	16980.22
636.695	16990.46
636.889	16742.66
637.083	16566.53
637.276	16697.6
637.47	16441.61
637.664	16535.81
637.857	16208.14
638.051	16187.66
638.244	15970.57
638.438	16029.96
638.632	15941.9
638.825	15952.14
639.019	15845.65
639.212	15917.33
639.406	15642.9
639.599	15868.17
639.793	15524.12
639.986	15255.83
640.18	15274.26
640.373	15276.31
640.567	15102.23
640.76	15257.88
640.954	15028.51
641.147	14850.33
641.34	14889.24
641.534	14809.37
641.727	14932.25
641.92	14805.28
642.114	14539.04
642.307	14629.15
642.5	14291.24
642.694	14303.53
642.887	14096.68
643.08	14274.85
643.273	14106.92
643.467	14194.98
643.66	13863.21
643.853	13889.84
644.046	13889.84
644.239	13881.64
644.432	13711.66
644.626	13709.61
644.819	13623.6
645.012	13617.46
645.205	13343.03
645.398	13697.33
645.591	13332.79
645.784	13480.24
645.977	13207.86
646.17	12996.92
646.363	13050.17
646.556	12802.36
646.749	12788.03
646.942	13058.36
647.135	12613.95
647.328	12745.02
647.521	12859.71
647.714	12353.86
647.907	12433.73
648.099	12499.27
648.292	12599.62
648.485	12284.23
648.678	12120.39
648.871	12185.93
649.064	12212.55
649.256	12032.33
649.449	11886.92
649.642	11979.08
649.835	11792.72
650.027	11878.73
650.22	11895.11
650.413	11727.18
650.605	11702.61
650.798	11721.04
650.991	11436.37
651.183	11440.47
651.376	11241.81
651.568	11532.62
651.761	11182.42
651.954	11250
652.146	11225.43
652.339	11129.17
652.531	11049.3
652.724	11151.7
652.916	10910.04
653.109	10738.01
653.301	11157.85
653.494	11145.56
653.686	10746.2
653.879	10729.82
654.071	10686.81
654.263	10555.74
654.456	10494.3
654.648	10529.12
654.84	10447.2
655.033	10242.4
655.225	10199.4
655.417	10271.08
655.61	10199.4
655.802	10156.39
655.994	10066.28
656.186	9980.26
656.379	10152.29
656.571	9814.38
656.763	9773.42
656.955	10010.98
657.148	9904.49
657.34	9679.21
657.532	9595.25
657.724	9550.19
657.916	9615.73
658.108	9449.84
658.3	9507.18
658.492	9566.57
658.684	9341.3
658.876	9435.5
659.068	9486.7
659.26	9218.42
659.452	9259.38
659.644	9226.61
659.836	9255.28
660.028	9095.54
660.22	8681.85
660.412	8925.56
660.604	8718.71
660.796	8890.74
660.988	8825.21
661.18	8700.28
661.372	8638.84
661.563	8659.32
661.755	8563.07
661.947	8874.36
662.139	8550.78
662.331	8415.62
662.522	8477.05
662.714	8475.01
662.906	8352.13
663.097	8413.57
663.289	8384.9
663.481	8049.03
663.673	8227.2
663.864	8116.61
664.056	8096.13
664.247	8073.6
664.439	8089.99
664.631	7915.91
664.822	8126.85
665.014	7833.99
665.205	7965.06
665.397	7817.61
665.588	7756.17
665.78	7967.11
665.971	7905.67
666.163	7541.13
666.354	7598.48
666.546	7549.32
666.737	7471.5
666.929	7477.65
667.12	7397.78
667.311	7395.73
667.503	7559.56
667.694	7377.3
667.885	7350.67
668.077	7229.84
668.268	7391.63
668.459	7170.45
668.651	7088.53
668.842	7176.59
669.033	7317.9
669.224	7184.79
669.416	7235.99
669.607	7092.63
669.798	7143.83
669.989	6992.28
670.18	6943.13
670.371	6914.45
670.563	6822.3
670.754	7000.47
670.945	6885.78
671.136	6857.11
671.327	6848.92
671.518	6750.62
671.709	6760.86
671.9	6769.05
672.091	6726.04
672.282	6609.31
672.473	6492.57
672.664	6705.56
672.855	6570.4
673.046	6662.55
673.237	6562.2
673.428	6545.82
673.619	6494.62
673.809	6461.85
674	6424.99
674.191	6363.55
674.382	6316.45
674.573	6361.5
674.764	6298.02
674.954	6406.56
675.145	6295.97
675.336	6306.21
675.527	6312.35
675.717	6345.12
675.908	6162.85
676.099	6001.06
676.289	6160.8
676.48	6209.95
676.671	6199.71
676.861	5939.62
677.052	5982.63
677.243	6066.6
677.433	5874.09
677.624	5958.05
677.814	5902.76
678.005	5945.77
678.195	5859.75
678.386	5786.02
678.576	5743.02
678.767	5831.08
678.957	5874.09
679.148	5657
679.338	5890.47
679.529	5554.6
679.719	5677.48
679.909	5867.94
680.1	5790.12
680.29	5738.92
680.481	5714.34
680.671	5724.58
680.861	5548.46
681.052	5538.22
681.242	5501.36
681.432	5747.11
681.622	5568.94
681.813	5628.33
682.003	5634.47
682.193	5509.55
682.383	5429.68
682.573	5470.64
682.764	5509.55
682.954	5314.99
683.144	5435.82
683.334	5444.01
683.524	5523.88
683.714	5497.26
683.904	5341.61
684.094	5552.56
684.284	5437.87
684.474	5466.54
684.664	5382.57
684.854	5349.81
685.044	5241.26
685.234	5054.9
685.424	5339.57
685.614	5214.64
685.804	5132.72
685.994	5310.89
686.184	5245.36
686.374	5218.74
686.564	5030.32
686.753	5142.96
686.943	4983.22
687.133	5032.37
687.323	5032.37
687.513	5108.15
687.702	4997.56
687.892	5024.18
688.082	4833.72
688.272	4835.77
688.461	4776.38
688.651	4682.17
688.841	4995.51
689.03	4874.68
689.22	4815.29
689.41	4725.18
689.599	4598.2
689.789	4813.24
689.979	4716.98
690.168	4700.6
690.358	4620.73
690.547	4737.46
690.737	4544.95
690.926	4571.58
691.116	4504
691.305	4506.04
691.495	4538.81
691.684	4485.56
691.874	4637.11
692.063	4532.67
692.252	4383.17
692.442	4409.79
692.631	4360.64
692.82	4372.93
693.01	4288.96
693.199	4397.5
693.388	4284.86
693.578	4110.79
693.767	4139.46
693.956	4155.84
694.146	4184.51
694.335	4047.3
694.524	4118.98
694.713	4159.94
694.902	4041.15
695.092	4028.87
695.281	3996.1
695.47	4104.64
695.659	3924.42
695.848	3951.04
696.037	3955.14
696.226	4024.77
696.415	3873.22
696.604	4041.15
696.793	3961.28
696.982	3830.21
697.171	3905.99
697.36	3881.41
697.549	3836.36
697.738	3686.86
697.927	3799.49
698.116	3738.05
698.305	3813.83
698.494	3822.02
698.683	3840.45
698.872	3707.34
699.061	3695.05
699.25	3658.18
699.438	3768.77
699.627	3566.03
699.816	3635.66
700.005	3637.7
700.193	3619.27
700.382	3719.62
700.571	3633.61
700.76	3627.46
700.948	3559.88
701.137	3578.31
701.326	3652.04
701.514	3613.13
701.703	3598.79
701.892	3549.64
702.08	3572.17
702.269	3467.72
702.457	3434.96
702.646	3512.78
702.834	3355.08
703.023	3621.32
703.212	3533.26
703.4	3459.53
703.589	3535.31
703.777	3424.72
703.965	3340.75
704.154	3394
704.342	3359.18
704.531	3324.37
704.719	3414.48
704.907	3408.33
705.096	3260.88
705.284	3285.45
705.472	3359.18
705.661	3316.17
705.849	3236.3
706.037	3369.42
706.226	3389.9
706.414	3422.67
706.602	3217.87
706.79	3305.93
706.979	3140.05
707.167	3301.84
707.355	3424.72
707.543	3430.86
707.731	3275.21
707.919	3394
708.107	3193.3
708.296	3289.55
708.484	3178.96
708.672	3185.1
708.86	3097.04
709.048	3197.39
709.236	3213.77
709.424	3217.87
709.612	3320.27
709.8	3209.68
709.988	3185.1
710.176	3185.1
710.364	3193.3
710.551	3320.27
710.739	3189.2
710.927	3090.9
711.115	3058.13
711.303	3209.68
711.491	3238.35
711.679	3101.14
711.866	3148.24
712.054	3162.58
712.242	3105.23
712.43	3107.28
712.617	3054.03
712.805	3068.37
712.993	3133.9
713.181	3094.99
713.368	3140.05
713.556	3113.42
713.744	3080.66
713.931	3221.97
714.119	3090.9
714.306	3043.79
714.494	2949.59
714.682	2939.35
714.869	2957.78
715.057	3115.47
715.244	3074.51
715.432	3097.04
715.619	3045.84
715.807	2982.35
715.994	3060.18
716.182	3117.52
716.369	3047.89
716.556	3152.34
716.744	3051.99
716.931	3092.94
717.119	3115.47
717.306	3027.41
717.493	3090.9
717.681	3142.1
717.868	3033.55
718.055	3021.27
718.242	3172.82
718.43	3070.42
718.617	3054.03
718.804	3008.98
718.991	3133.9
719.179	2980.31
719.366	2904.53
719.553	3000.79
719.74	2949.59
719.927	2947.54
720.114	3008.98
720.301	3072.47
720.488	2935.25
720.676	2951.63
720.863	2865.62
721.05	3027.41
721.237	2974.16
721.424	3031.51
721.611	3037.65
721.798	2916.82
721.985	2916.82
722.172	3072.47
722.358	3045.84
722.545	3017.17
722.732	2990.55
722.919	2900.44
723.106	2818.52
723.293	3002.83
723.48	3054.03
723.667	3008.98
723.853	2933.2
724.04	2963.92
724.227	2859.48
724.414	2879.96
724.6	2810.33
724.787	2986.45
724.974	2933.2
725.161	2963.92
725.347	2945.49
725.534	3039.7
725.72	3015.12
725.907	3047.89
726.094	2943.44
726.28	2970.07
726.467	2918.87
726.653	3039.7
726.84	3008.98
727.027	2988.5
727.213	2937.3
727.4	2963.92
727.586	3025.36
727.773	3094.99
727.959	2949.59
728.145	2976.21
728.332	3019.22
728.518	3043.79
728.705	3045.84
728.891	3004.88
729.077	3178.96
729.264	3148.24
729.45	3041.75
729.636	3105.23
729.823	2986.45
730.009	3078.61
730.195	2953.68
730.382	3035.6
730.568	2933.2
730.754	3094.99
730.94	2994.64
731.126	3008.98
731.313	3080.66
731.499	3021.27
731.685	2992.59
731.871	3039.7
732.057	2982.35
732.243	3101.14
732.429	3181.01
732.615	3033.55
732.801	3125.71
732.987	3021.27
733.173	3082.7
733.359	3054.03
733.545	3131.86
733.731	3088.85
733.917	3164.62
734.103	3062.23
734.289	3168.72
734.475	3094.99
734.661	3205.58
734.847	3178.96
735.033	3070.42
735.219	3129.81
735.404	3086.8
735.59	3080.66
735.776	3070.42
735.962	3158.48
736.148	3148.24
736.333	3146.19
736.519	3213.77
736.705	3092.94
736.89	3131.86
737.076	3181.01
737.262	3090.9
737.447	3129.81
737.633	3121.62
737.819	3197.39
738.004	3168.72
738.19	3013.07
738.375	3185.1
738.561	3176.91
738.747	3166.67
738.932	3150.29
739.118	3181.01
739.303	3156.43
739.489	3142.1
739.674	3187.15
739.859	3117.52
740.045	3054.03
740.23	3035.6
740.416	3015.12
740.601	3129.81
740.786	3035.6
740.972	3060.18
741.157	3168.72
741.342	3131.86
741.528	3097.04
741.713	2992.59
741.898	3176.91
742.084	3158.48
742.269	3133.9
742.454	3008.98
742.639	3105.23
742.824	3004.88
743.01	3019.22
743.195	3103.18
743.38	3015.12
743.565	2990.55
743.75	3099.09
743.935	2943.44
744.12	3082.7
744.305	2908.63
744.49	3047.89
744.675	3066.32
744.86	2949.59
745.045	2970.07
745.23	3015.12
745.415	2996.69
745.6	3068.37
745.785	3002.83
745.97	2902.48
746.155	2961.87
746.34	2941.4
746.525	2896.34
746.71	2943.44
746.895	2798.04
747.079	2771.41
747.264	2912.72
747.449	2947.54
747.634	2959.83
747.819	2789.85
748.003	2734.55
748.188	2808.28
748.373	2804.18
748.557	2859.48
748.742	2714.07
748.927	2845.14
749.111	2834.9
749.296	2798.04
749.481	2687.45
749.665	2757.08
749.85	2669.02
750.034	2767.32
750.219	2709.97
750.404	2650.58
750.588	2640.34
750.773	2599.38
750.957	2746.84
751.141	2574.81
751.326	2515.42
751.51	2558.42
751.695	2601.43
751.879	2537.95
752.064	2687.45
752.248	2580.95
752.432	2533.85
752.617	2523.61
752.801	2468.31
752.985	2470.36
753.17	2560.47
753.354	2447.83
753.538	2376.16
753.722	2449.88
753.907	2476.51
754.091	2476.51
754.275	2382.3
754.459	2386.4
754.643	2396.64
754.828	2394.59
755.012	2222.56
755.196	2345.44
755.38	2247.13
755.564	2298.33
755.748	2316.76
755.932	2263.52
756.116	2163.17
756.3	2284
756.484	2197.98
756.668	2259.42
756.852	2204.13
757.036	2327
757.22	2169.31
757.404	2157.02
757.588	2109.92
757.772	2251.23
757.956	2236.89
758.14	2161.12
758.323	2056.67
758.507	2169.31
758.691	2030.05
758.875	2163.17
759.059	2085.34
759.242	2019.81
759.426	1984.99
759.61	2040.29
759.794	2095.58
759.977	2019.81
760.161	2122.21
760.345	1991.14
760.528	1964.51
760.712	1958.37
760.895	1931.75
761.079	1901.03
761.263	1948.13
761.446	1868.26
761.63	1931.75
761.813	1962.47
761.997	1901.03
762.18	1821.16
762.364	1948.13
762.547	1860.07
762.731	1886.69
762.914	1870.31
763.098	1808.87
763.281	1794.53
763.464	1880.55
763.648	1911.27
763.831	1815.01
764.015	1804.77
764.198	1786.34
764.381	1823.2
764.564	1737.19
764.748	1747.43
764.931	1726.95
765.114	1780.2
765.297	1718.76
765.481	1759.72
765.664	1772
765.847	1743.33
766.03	1849.83
766.213	1679.85
766.397	1614.31
766.58	1683.94
766.763	1735.14
766.946	1628.65
767.129	1599.98
767.312	1694.18
767.495	1544.68
767.678	1634.79
767.861	1757.67
768.044	1667.56
768.227	1630.7
768.41	1581.54
768.593	1690.09
768.776	1673.7
768.959	1636.84
769.142	1688.04
769.324	1579.5
769.507	1530.34
769.69	1628.65
769.873	1489.39
770.056	1530.34
770.239	1507.82
770.421	1561.06
770.604	1585.64
770.787	1575.4
770.97	1462.76
771.152	1436.14
771.335	1542.63
771.518	1452.52
771.7	1524.2
771.883	1534.44
772.066	1434.09
772.248	1432.04
772.431	1456.62
772.613	1427.95
772.796	1333.74
772.978	1354.22
773.161	1409.51
773.343	1249.77
773.526	1378.79
773.708	1384.94
773.891	1276.4
774.073	1380.84
774.256	1274.35
774.438	1315.31
774.621	1243.63
774.803	1462.76
774.985	1303.02
775.168	1288.68
775.35	1257.96
775.532	1294.83
775.715	1227.25
775.897	1311.21
776.079	1204.72
776.261	1313.26
776.444	1243.63
776.626	1266.16
776.808	1311.21
776.99	1145.33
777.173	1225.2
777.355	1190.38
777.537	1219.05
777.719	1192.43
777.901	1192.43
778.083	1116.65
778.265	1092.08
778.447	1116.65
778.629	1083.89
778.811	1106.42
778.993	1124.85
779.175	1141.23
779.357	1133.04
779.539	1024.5
779.721	1139.18
779.903	1120.75
780.085	1008.11
780.267	1028.59
780.449	1192.43
780.631	1063.41
780.812	1024.5
780.994	1020.4
781.176	1128.94
781.358	954.87
781.54	948.72
781.721	1014.26
781.903	1028.59
782.085	956.91
782.267	989.68
782.448	870.9
782.63	911.86
782.812	952.82
782.993	973.3
783.175	870.9
783.357	872.95
783.538	1044.98
783.72	877.04
783.901	856.56
784.083	864.75
784.264	770.55
784.446	829.94
784.627	780.79
784.809	834.04
784.99	831.99
785.172	844.28
785.353	858.61
785.535	711.16
785.716	782.84
785.897	735.73
786.079	801.27
786.26	764.4
786.441	791.03
786.623	799.22
786.804	731.64
786.985	721.4
787.167	760.31
787.348	741.88
787.529	694.77
787.71	799.22
787.891	748.02
788.073	664.05
788.254	662.01
788.435	745.97
788.616	698.87
788.797	743.92
788.978	760.31
789.159	709.11
789.34	696.82
789.522	682.49
789.703	651.77
789.884	649.72
790.065	713.21
790.246	702.97
790.427	582.14
790.607	645.62
790.788	688.63
790.969	647.67
791.15	666.1
791.331	539.13
791.512	555.51
791.693	567.8
791.874	532.98
792.054	625.14
792.235	643.57
792.416	545.27
792.597	479.74
792.778	602.61
792.958	600.57
793.139	559.61
793.32	629.24
793.5	602.61
793.681	594.42
793.862	557.56
794.042	586.23
794.223	471.54
794.404	508.41
794.584	561.66
794.765	606.71
794.945	559.61
795.126	633.33
795.306	584.18
795.487	483.83
795.667	508.41
795.848	481.78
796.028	535.03
796.209	549.37
796.389	528.89
796.57	555.51
796.75	453.11
796.93	555.51
797.111	530.94
797.291	455.16
797.471	535.03
797.652	401.91
797.832	477.69
798.012	524.79
798.192	492.02
798.373	383.48
798.553	455.16
798.733	506.36
798.913	453.11
799.093	524.79
799.274	444.92
799.454	467.45
799.634	502.26
799.814	446.97
799.994	420.35
800.174	414.2
800.354	483.83
800.534	442.87
800.714	471.54
800.894	469.5
801.074	389.63
801.254	440.83
801.434	410.11
801.614	326.14
801.794	336.38
801.974	1096.18
802.154	428.54
802.334	412.15
802.514	322.04
802.693	434.68
802.873	340.47
803.053	430.59
803.233	393.72
803.413	422.39
803.592	358.91
803.772	315.9
803.952	371.19
804.131	340.47
804.311	346.62
804.491	422.39
804.67	326.14
804.85	444.92
805.03	459.26
805.209	422.39
805.389	346.62
805.568	358.91
805.748	391.67
805.928	354.81
806.107	367.1
806.287	344.57
806.466	414.2
806.646	258.56
806.825	385.53
807.004	252.41
807.184	317.95
807.363	381.43
807.543	395.77
807.722	287.23
807.901	371.19
808.081	336.38
808.26	279.04
808.439	242.17
808.619	229.88
808.798	274.94
808.977	305.66
809.156	393.72
809.336	340.47
809.515	258.56
809.694	285.18
809.873	289.28
810.052	328.19
810.231	262.65
810.411	324.09
810.59	375.29
810.769	233.98
810.948	307.71
811.127	270.84
811.306	250.36
811.485	229.88
811.664	324.09
811.843	354.81
812.022	291.32
812.201	225.79
812.38	246.27
812.559	266.75
812.737	248.32
812.916	268.8
813.095	252.41
813.274	264.7
813.453	299.52
813.632	272.89
813.811	250.36
813.989	225.79
814.168	307.71
814.347	205.31
814.526	260.6
814.704	350.71
814.883	291.32
815.062	211.45
815.24	223.74
815.419	213.5
815.598	272.89
815.776	250.36
815.955	279.04
816.133	231.93
816.312	276.99
816.49	123.39
816.669	231.93
816.847	223.74
817.026	225.79
817.204	276.99
817.383	213.5
817.561	215.55
817.74	180.73
817.918	242.17
818.097	156.16
818.275	178.69
818.453	221.69
818.632	256.51
818.81	139.77
818.988	287.23
819.167	217.6
819.345	225.79
819.523	154.11
819.701	262.65
819.879	262.65
820.058	227.84
820.236	201.21
820.414	223.74
820.592	223.74
820.77	242.17
820.948	215.55
821.127	219.64
821.305	195.07
821.483	145.92
821.661	166.4
821.839	131.58
822.017	174.59
822.195	154.11
822.373	188.93
822.551	180.73
822.729	223.74
822.907	174.59
823.085	170.49
823.262	193.02
823.44	190.97
823.618	215.55
823.796	197.12
823.974	160.25
824.152	211.45
824.329	150.01
824.507	147.97
824.685	113.15
824.863	137.73
825.04	164.35
825.218	203.26
825.396	193.02
825.574	100.86
825.751	123.39
825.929	205.31
826.107	156.16
826.284	201.21
826.462	248.32
826.639	203.26
826.817	174.59
826.994	168.45
827.172	231.93
827.349	174.59
827.527	168.45
827.704	115.2
827.882	131.58
828.059	123.39
828.237	135.68
828.414	152.06
828.591	76.29
828.769	154.11
828.946	94.72
829.124	178.69
829.301	141.82
829.478	125.44
829.655	207.36
829.833	170.49
830.01	109.05
830.187	199.16
830.364	119.29
830.542	147.97
830.719	184.83
830.896	152.06
831.073	164.35
831.25	190.97
831.427	217.6
831.604	164.35
831.782	104.96
831.959	195.07
832.136	131.58
832.313	137.73
832.49	102.91
832.667	152.06
832.844	82.43
833.021	119.29
833.198	231.93
833.374	152.06
833.551	100.86
833.728	92.67
833.905	162.3
834.082	135.68
834.259	88.57
834.436	225.79
834.612	88.57
834.789	121.34
834.966	117.25
835.143	100.86
835.319	141.82
835.496	72.19
835.673	102.91
835.85	119.29
836.026	84.48
836.203	199.16
836.38	145.92
836.556	88.57
836.733	129.53
836.909	109.05
837.086	154.11
837.262	74.24
837.439	199.16
837.616	123.39
837.792	72.19
837.968	104.96
838.145	74.24
838.321	82.43
838.498	150.01
838.674	207.36
838.851	117.25
839.027	39.42
839.203	115.2
839.38	39.42
839.556	45.57
839.732	176.64
839.909	139.77
840.085	154.11
840.261	98.81
840.437	82.43
840.614	35.33
840.79	76.29
840.966	107.01
841.142	104.96
841.318	94.72
841.494	64
841.671	51.71
841.847	88.57
842.023	98.81
842.199	98.81
842.375	74.24
842.551	66.05
842.727	16.9
842.903	207.36
843.079	70.14
843.255	47.62
843.431	76.29
843.607	113.15
843.783	-73.21
843.959	90.62
844.134	104.96
844.31	107.01
844.486	10.75
844.662	86.53
844.838	84.48
845.013	66.05
845.189	98.81
845.365	84.48
845.541	88.57
845.716	23.04
845.892	78.33
846.068	23.04
846.244	68.09
846.419	113.15
846.595	0.51
846.77	92.67
846.946	41.47
847.122	129.53
847.297	-24.06
847.473	84.48
847.648	94.72
847.824	53.76
847.999	61.95
848.175	39.42
848.35	80.38
848.526	107.01
848.701	57.86
848.876	107.01
849.052	102.91
849.227	207.36
849.403	4.61
849.578	41.47
849.753	74.24
849.929	160.25
850.104	4.61
850.279	49.66
850.454	-3.58
850.63	147.97
850.805	96.77
850.98	84.48
851.155	6.66
851.33	35.33
851.505	61.95
851.681	82.43
851.856	49.66
852.031	39.42
852.206	104.96
852.381	84.48
852.556	64
852.731	68.09
852.906	82.43
853.081	94.72
853.256	121.34
853.431	49.66
853.606	37.38
853.781	92.67
853.956	47.62
854.131	49.66
854.305	-34.3
854.48	154.11
854.655	49.66
854.83	-9.73
855.005	78.33
855.18	66.05
855.354	-17.92
855.529	64
855.704	66.05
855.879	27.14
856.053	18.94
856.228	31.23
856.403	47.62
856.577	23.04
856.752	53.76
856.926	70.14
857.101	61.95
857.276	61.95
857.45	57.86
857.625	109.05
857.799	68.09
857.974	45.57
858.148	-22.02
858.323	43.52
858.497	-1.54
858.672	31.23
858.846	-13.82
859.02	88.57
859.195	10.75
859.369	64
859.543	27.14
859.718	6.66
859.892	64
860.066	39.42
860.241	76.29
860.415	33.28
860.589	18.94
860.763	70.14
860.938	55.81
861.112	33.28
861.286	107.01
861.46	98.81
861.634	33.28
861.808	84.48
861.982	78.33
862.157	43.52
862.331	45.57
862.505	25.09
862.679	16.9
862.853	-44.54
863.027	68.09
863.201	35.33
863.375	18.94
863.549	104.96
863.722	-22.02
863.896	59.9
864.07	49.66
864.244	-28.16
864.418	68.09
864.592	-13.82
864.766	86.53
864.939	70.14
865.113	14.85
865.287	43.52
865.461	31.23
865.634	35.33
865.808	20.99
865.982	59.9
866.156	6.66
866.329	-1.54
866.503	49.66
866.676	8.7
866.85	57.86
867.024	-17.92
867.197	74.24
867.371	78.33
867.544	55.81
867.718	-17.92
867.891	39.42
868.065	-5.63
868.238	2.56
868.412	70.14
868.585	43.52
868.759	2.56
868.932	33.28
869.105	39.42
869.279	10.75
869.452	0.51
869.625	35.33
869.799	80.38
869.972	-36.35
870.145	37.38
870.319	14.85
870.492	92.67
870.665	55.81
870.838	66.05
871.011	18.94
871.185	-54.78
871.358	6.66
871.531	20.99
871.704	18.94
871.877	94.72
872.05	-24.06
872.223	41.47
872.396	61.95
872.569	57.86
872.742	-22.02
872.915	-26.11
873.088	16.9
873.261	6.66
873.434	29.18
873.607	76.29
873.78	72.19
873.953	39.42
874.126	45.57
874.299	27.14
874.471	31.23
874.644	-13.82
874.817	64
874.99	8.7
875.163	70.14
875.335	78.33
875.508	16.9
875.681	18.94
875.853	-62.98
876.026	68.09
876.199	74.24
876.371	-3.58
876.544	39.42
876.717	47.62
876.889	0.51
877.062	135.68
877.234	29.18
877.407	2.56
877.579	-15.87
877.752	86.53
877.924	-24.06
878.097	-9.73
878.269	53.76
878.442	16.9
878.614	16.9
878.786	45.57
878.959	49.66
879.131	78.33
879.303	16.9
879.476	-11.78
879.648	27.14
879.82	51.71
879.993	31.23
880.165	45.57
880.337	29.18
880.509	72.19
880.681	16.9
880.854	35.33
881.026	33.28
881.198	23.04
881.37	-46.59
881.542	10.75
881.714	-7.68
881.886	-1.54
882.058	68.09
882.23	70.14
882.402	2.56
882.574	72.19
882.746	47.62
882.918	-9.73
883.09	35.33
883.262	51.71
883.434	12.8
883.606	-69.12
883.778	2.56
883.95	6.66
884.122	-7.68
884.293	-19.97
884.465	55.81
884.637	29.18
884.809	2.56
884.98	18.94
885.152	18.94
885.324	2.56
885.496	6.66
885.667	47.62
885.839	-11.78
886.011	-38.4
886.182	-7.68
886.354	23.04
886.525	25.09
886.697	27.14
886.869	-22.02
887.04	70.14
887.212	31.23
887.383	47.62
887.555	82.43
887.726	41.47
887.897	14.85
888.069	35.33
888.24	4.61
888.412	0.51
888.583	-44.54
888.754	78.33
888.926	-48.64
889.097	45.57
889.268	-32.26
889.44	8.7
889.611	-30.21
889.782	43.52
889.953	-73.21
890.125	12.8
890.296	6.66
890.467	12.8
890.638	12.8
890.809	72.19
890.98	18.94
891.151	31.23
891.323	29.18
891.494	47.62
891.665	-13.82
891.836	0.51
892.007	2.56
892.178	20.99
892.349	-3.58
892.52	-69.12
892.691	-5.63
892.862	49.66
893.032	-13.82
893.203	39.42
893.374	41.47
893.545	14.85
893.716	23.04
893.887	18.94
894.057	29.18
894.228	18.94
894.399	-26.11
894.57	104.96
894.74	35.33
894.911	23.04
895.082	12.8
895.253	25.09
895.423	10.75
895.594	72.19
895.764	6.66
895.935	8.7
896.106	6.66
896.276	-30.21
896.447	84.48
896.617	-24.06
896.788	-19.97
896.958	-65.02
897.129	35.33
897.299	4.61
897.47	49.66
897.64	8.7
897.81	27.14
897.981	-15.87
898.151	80.38
898.322	18.94
898.492	2.56
898.662	-22.02
898.832	0.51
899.003	84.48
899.173	-11.78
899.343	6.66
899.513	-28.16
