Data from USB4F104151__61__12-42-01-639.txt Node

Date: Fri Mar 14 12:42:01 EDT 2025
User: louis
Spectrometer: USB4F10415
Trigger mode: 4
Integration Time (sec): 3.000000E-2
Scans to average: 1
Electric dark correction enabled: true
Nonlinearity correction enabled: false
Boxcar width: 0
XAxis mode: Wavelengths
Number of Pixels in Spectrum: 3648
>>>>>Begin Spectral Data<<<<<
178.204	-162.47
178.424	-162.47
178.644	-162.47
178.864	-197.29
179.084	-133.8
179.304	44.37
179.524	-62.12
179.744	-4.78
179.964	54.61
180.184	44.37
180.404	21.85
180.624	-25.26
180.844	-17.07
181.064	-53.93
181.283	-62.12
181.503	17.75
181.723	42.32
181.943	-0.68
182.163	109.91
182.383	7.51
182.602	25.94
182.822	34.13
183.042	3.41
183.262	19.8
183.482	71
183.701	1.37
183.921	-49.83
184.141	48.47
184.361	21.85
184.58	-8.87
184.8	21.85
185.02	36.18
185.239	68.95
185.459	11.61
185.679	32.08
185.898	-101.03
186.118	54.61
186.338	-58.03
186.557	50.52
186.777	54.61
186.997	27.99
187.216	38.23
187.436	56.66
187.655	-6.83
187.875	-33.45
188.095	-55.98
188.314	62.8
188.534	54.61
188.753	25.94
188.973	46.42
189.192	27.99
189.412	-60.07
189.631	50.52
189.851	-47.79
190.07	-4.78
190.29	-15.02
190.509	27.99
190.729	-23.21
190.948	44.37
191.168	132.44
191.387	25.94
191.607	60.76
191.826	27.99
192.045	-0.68
192.265	30.04
192.484	1.37
192.704	-21.16
192.923	-8.87
193.142	109.91
193.362	71
193.581	50.52
193.8	62.8
194.02	91.48
194.239	66.9
194.458	25.94
194.678	-21.16
194.897	30.04
195.116	60.76
195.335	32.08
195.555	3.41
195.774	17.75
195.993	32.08
196.212	-35.5
196.432	58.71
196.651	-15.02
196.87	-10.92
197.089	64.85
197.308	30.04
197.528	30.04
197.747	-103.08
197.966	-6.83
198.185	42.32
198.404	56.66
198.623	56.66
198.842	68.95
199.062	48.47
199.281	97.62
199.5	-15.02
199.719	52.56
199.938	7.51
200.157	44.37
200.376	23.89
200.595	-6.83
200.814	79.19
201.033	85.33
201.252	52.56
201.471	54.61
201.69	62.8
201.909	-39.59
202.128	75.09
202.347	30.04
202.566	79.19
202.785	30.04
203.004	13.65
203.223	75.09
203.442	25.94
203.661	-0.68
203.879	32.08
204.098	32.08
204.317	15.7
204.536	44.37
204.755	5.46
204.974	54.61
205.193	79.19
205.411	91.48
205.63	-31.4
205.849	15.7
206.068	5.46
206.287	73.04
206.505	-15.02
206.724	25.94
206.943	42.32
207.162	38.23
207.381	23.89
207.599	-15.02
207.818	30.04
208.037	7.51
208.255	11.61
208.474	32.08
208.693	38.23
208.911	71
209.13	42.32
209.349	93.52
209.567	54.61
209.786	17.75
210.005	56.66
210.223	46.42
210.442	19.8
210.661	48.47
210.879	27.99
211.098	5.46
211.316	79.19
211.535	68.95
211.753	-29.35
211.972	40.28
212.191	62.8
212.409	21.85
212.628	-70.31
212.846	36.18
213.065	38.23
213.283	107.86
213.502	-21.16
213.72	-15.02
213.938	11.61
214.157	-10.92
214.375	13.65
214.594	52.56
214.812	-6.83
215.031	52.56
215.249	1.37
215.467	17.75
215.686	25.94
215.904	40.28
216.122	-21.16
216.341	122.2
216.559	50.52
216.778	64.85
216.996	7.51
217.214	15.7
217.432	19.8
217.651	-27.31
217.869	-76.46
218.087	50.52
218.306	-31.4
218.524	83.28
218.742	-70.31
218.96	-2.73
219.179	44.37
219.397	3.41
219.615	32.08
219.833	91.48
220.051	3.41
220.27	50.52
220.488	-109.22
220.706	48.47
220.924	-4.78
221.142	15.7
221.36	-19.11
221.578	34.13
221.796	30.04
222.015	-45.74
222.233	34.13
222.451	101.72
222.669	32.08
222.887	21.85
223.105	-15.02
223.323	36.18
223.541	5.46
223.759	56.66
223.977	1.37
224.195	64.85
224.413	54.61
224.631	23.89
224.849	56.66
225.067	103.76
225.285	7.51
225.503	27.99
225.721	56.66
225.939	-47.79
226.157	42.32
226.375	40.28
226.592	3.41
226.81	-70.31
227.028	58.71
227.246	208.21
227.464	46.42
227.682	-25.26
227.9	40.28
228.117	-35.5
228.335	-15.02
228.553	21.85
228.771	-6.83
228.989	-41.64
229.206	13.65
229.424	52.56
229.642	-109.22
229.86	25.94
230.077	-37.55
230.295	5.46
230.513	56.66
230.731	36.18
230.948	83.28
231.166	91.48
231.384	23.89
231.601	-2.73
231.819	5.46
232.037	-58.03
232.254	27.99
232.472	46.42
232.689	-0.68
232.907	-4.78
233.125	-15.02
233.342	13.65
233.56	23.89
233.777	32.08
233.995	1.37
234.213	36.18
234.43	-4.78
234.648	77.14
234.865	60.76
235.083	68.95
235.3	46.42
235.518	-8.87
235.735	118.1
235.953	46.42
236.17	54.61
236.388	93.52
236.605	7.51
236.822	81.24
237.04	60.76
237.257	19.8
237.475	19.8
237.692	36.18
237.909	52.56
238.127	34.13
238.344	-25.26
238.562	66.9
238.779	-27.31
238.996	-64.17
239.214	-6.83
239.431	-0.68
239.648	109.91
239.865	5.46
240.083	5.46
240.3	17.75
240.517	15.7
240.735	46.42
240.952	46.42
241.169	77.14
241.386	25.94
241.603	5.46
241.821	3.41
242.038	30.04
242.255	-25.26
242.472	-41.64
242.689	17.75
242.907	-15.02
243.124	5.46
243.341	-55.98
243.558	-76.46
243.775	-29.35
243.992	17.75
244.209	42.32
244.426	34.13
244.643	-21.16
244.86	-35.5
245.078	34.13
245.295	7.51
245.512	38.23
245.729	-45.74
245.946	-17.07
246.163	13.65
246.38	54.61
246.597	34.13
246.814	-47.79
247.031	-39.59
247.248	-6.83
247.464	66.9
247.681	-41.64
247.898	7.51
248.115	58.71
248.332	11.61
248.549	34.13
248.766	111.96
248.983	11.61
249.2	71
249.417	13.65
249.633	15.7
249.85	52.56
250.067	-21.16
250.284	-15.02
250.501	-27.31
250.717	54.61
250.934	-17.07
251.151	17.75
251.368	21.85
251.585	19.8
251.801	-21.16
252.018	-82.6
252.235	52.56
252.451	9.56
252.668	-21.16
252.885	30.04
253.102	-49.83
253.318	3.41
253.535	21.85
253.752	27.99
253.968	-58.03
254.185	-60.07
254.401	-60.07
254.618	85.33
254.835	-70.31
255.051	19.8
255.268	-0.68
255.484	60.76
255.701	13.65
255.917	66.9
256.134	-0.68
256.351	-17.07
256.567	5.46
256.784	15.7
257	-19.11
257.217	48.47
257.433	21.85
257.65	71
257.866	27.99
258.082	-23.21
258.299	-45.74
258.515	11.61
258.732	-29.35
258.948	-35.5
259.165	-19.11
259.381	-12.97
259.597	13.65
259.814	-2.73
260.03	-53.93
260.246	95.57
260.463	34.13
260.679	48.47
260.895	-10.92
261.112	-27.31
261.328	-0.68
261.544	-19.11
261.761	-66.22
261.977	50.52
262.193	-45.74
262.409	3.41
262.626	21.85
262.842	75.09
263.058	-19.11
263.274	-6.83
263.49	-0.68
263.707	-45.74
263.923	-15.02
264.139	62.8
264.355	79.19
264.571	105.81
264.787	-27.31
265.004	-33.45
265.22	-0.68
265.436	19.8
265.652	-6.83
265.868	79.19
266.084	25.94
266.3	17.75
266.516	21.85
266.732	13.65
266.948	-21.16
267.164	66.9
267.38	40.28
267.596	83.28
267.812	3.41
268.028	17.75
268.244	3.41
268.46	-4.78
268.676	25.94
268.892	58.71
269.108	25.94
269.324	-27.31
269.54	34.13
269.756	68.95
269.972	-17.07
270.188	27.99
270.403	-62.12
270.619	36.18
270.835	32.08
271.051	38.23
271.267	-0.68
271.483	11.61
271.698	25.94
271.914	54.61
272.13	34.13
272.346	91.48
272.562	-19.11
272.777	32.08
272.993	-31.4
273.209	30.04
273.425	52.56
273.64	15.7
273.856	27.99
274.072	13.65
274.287	25.94
274.503	124.24
274.719	54.61
274.934	30.04
275.15	-76.46
275.366	60.76
275.581	-33.45
275.797	34.13
276.012	13.65
276.228	11.61
276.444	3.41
276.659	44.37
276.875	44.37
277.09	56.66
277.306	44.37
277.521	23.89
277.737	77.14
277.952	44.37
278.168	25.94
278.383	9.56
278.599	68.95
278.814	60.76
279.03	11.61
279.245	58.71
279.461	-70.31
279.676	15.7
279.892	-0.68
280.107	21.85
280.322	1.37
280.538	7.51
280.753	34.13
280.969	99.67
281.184	-29.35
281.399	79.19
281.615	-39.59
281.83	1.37
282.045	-2.73
282.26	32.08
282.476	36.18
282.691	75.09
282.906	50.52
283.122	-47.79
283.337	-23.21
283.552	-0.68
283.767	-17.07
283.983	40.28
284.198	42.32
284.413	19.8
284.628	-27.31
284.843	-53.93
285.058	83.28
285.274	36.18
285.489	44.37
285.704	46.42
285.919	-25.26
286.134	-68.27
286.349	1.37
286.564	13.65
286.779	44.37
286.995	-2.73
287.21	-74.41
287.425	-17.07
287.64	3.41
287.855	73.04
288.07	-8.87
288.285	77.14
288.5	3.41
288.715	62.8
288.93	1.37
289.145	-66.22
289.36	83.28
289.575	-10.92
289.79	34.13
290.004	-27.31
290.219	40.28
290.434	-10.92
290.649	48.47
290.864	21.85
291.079	58.71
291.294	-17.07
291.509	62.8
291.724	-4.78
291.938	15.7
292.153	66.9
292.368	1.37
292.583	-25.26
292.798	64.85
293.012	56.66
293.227	11.61
293.442	5.46
293.657	46.42
293.871	34.13
294.086	27.99
294.301	89.43
294.516	42.32
294.73	44.37
294.945	36.18
295.16	7.51
295.374	-12.97
295.589	66.9
295.804	46.42
296.018	134.48
296.233	-12.97
296.447	-2.73
296.662	-96.94
296.877	124.24
297.091	27.99
297.306	7.51
297.52	68.95
297.735	34.13
297.949	62.8
298.164	52.56
298.378	75.09
298.593	-62.12
298.807	23.89
299.022	19.8
299.236	142.68
299.451	5.46
299.665	27.99
299.88	19.8
300.094	3.41
300.309	19.8
300.523	-17.07
300.737	23.89
300.952	13.65
301.166	9.56
301.381	23.89
301.595	-31.4
301.809	42.32
302.024	-58.03
302.238	23.89
302.452	42.32
302.667	9.56
302.881	27.99
303.095	17.75
303.309	50.52
303.524	13.65
303.738	23.89
303.952	-27.31
304.166	-33.45
304.381	-10.92
304.595	48.47
304.809	13.65
305.023	52.56
305.237	62.8
305.452	38.23
305.666	40.28
305.88	-37.55
306.094	17.75
306.308	40.28
306.522	97.62
306.736	71
306.95	46.42
307.164	3.41
307.379	44.37
307.593	50.52
307.807	89.43
308.021	-17.07
308.235	71
308.449	7.51
308.663	-4.78
308.877	50.52
309.091	19.8
309.305	25.94
309.519	23.89
309.733	66.9
309.947	1.37
310.161	15.7
310.374	-15.02
310.588	95.57
310.802	-31.4
311.016	-10.92
311.23	7.51
311.444	77.14
311.658	56.66
311.872	85.33
312.085	48.47
312.299	64.85
312.513	79.19
312.727	7.51
312.941	-49.83
313.154	-2.73
313.368	30.04
313.582	13.65
313.796	91.48
314.009	62.8
314.223	25.94
314.437	1.37
314.651	-19.11
314.864	-25.26
315.078	38.23
315.292	-45.74
315.505	-0.68
315.719	23.89
315.933	27.99
316.146	83.28
316.36	25.94
316.573	71
316.787	64.85
317.001	83.28
317.214	-4.78
317.428	15.7
317.641	-70.31
317.855	7.51
318.068	-58.03
318.282	54.61
318.495	-25.26
318.709	132.44
318.922	-19.11
319.136	42.32
319.349	-4.78
319.563	-19.11
319.776	64.85
319.99	-4.78
320.203	27.99
320.417	-4.78
320.63	-15.02
320.843	64.85
321.057	21.85
321.27	36.18
321.483	3.41
321.697	132.44
321.91	5.46
322.124	46.42
322.337	58.71
322.55	-0.68
322.763	7.51
322.977	91.48
323.19	25.94
323.403	11.61
323.617	23.89
323.83	32.08
324.043	7.51
324.256	17.75
324.469	42.32
324.683	97.62
324.896	-31.4
325.109	-19.11
325.322	-51.88
325.535	-17.07
325.748	77.14
325.962	-10.92
326.175	-4.78
326.388	19.8
326.601	-33.45
326.814	-2.73
327.027	32.08
327.24	85.33
327.453	-47.79
327.666	114
327.879	81.24
328.092	38.23
328.305	77.14
328.518	9.56
328.731	-31.4
328.944	17.75
329.157	91.48
329.37	30.04
329.583	54.61
329.796	83.28
330.009	64.85
330.222	25.94
330.435	50.52
330.648	-29.35
330.861	21.85
331.073	-19.11
331.286	23.89
331.499	71
331.712	-15.02
331.925	9.56
332.138	-6.83
332.35	32.08
332.563	-12.97
332.776	101.72
332.989	50.52
333.202	-37.55
333.414	17.75
333.627	93.52
333.84	7.51
334.053	15.7
334.265	19.8
334.478	-23.21
334.691	-21.16
334.903	58.71
335.116	1.37
335.329	25.94
335.541	54.61
335.754	77.14
335.966	27.99
336.179	-43.69
336.392	17.75
336.604	40.28
336.817	46.42
337.029	3.41
337.242	38.23
337.454	116.05
337.667	21.85
337.88	93.52
338.092	27.99
338.305	38.23
338.517	83.28
338.729	-15.02
338.942	58.71
339.154	-19.11
339.367	27.99
339.579	58.71
339.792	-35.5
340.004	38.23
340.217	-10.92
340.429	-37.55
340.641	-51.88
340.854	-19.11
341.066	11.61
341.278	83.28
341.491	-12.97
341.703	-0.68
341.915	85.33
342.128	38.23
342.34	-27.31
342.552	71
342.764	13.65
342.977	38.23
343.189	23.89
343.401	25.94
343.613	-29.35
343.826	-45.74
344.038	-15.02
344.25	-15.02
344.462	19.8
344.674	40.28
344.886	54.61
345.099	89.43
345.311	85.33
345.523	52.56
345.735	-66.22
345.947	11.61
346.159	68.95
346.371	32.08
346.583	21.85
346.795	109.91
347.007	-6.83
347.219	44.37
347.431	-8.87
347.643	68.95
347.855	38.23
348.067	124.24
348.279	-60.07
348.491	52.56
348.703	68.95
348.915	-31.4
349.127	-15.02
349.339	91.48
349.551	32.08
349.763	60.76
349.975	-10.92
350.187	48.47
350.399	25.94
350.61	34.13
350.822	38.23
351.034	87.38
351.246	-25.26
351.458	40.28
351.669	107.86
351.881	60.76
352.093	52.56
352.305	87.38
352.517	-10.92
352.728	116.05
352.94	54.61
353.152	68.95
353.363	-33.45
353.575	48.47
353.787	87.38
353.999	56.66
354.21	73.04
354.422	-35.5
354.633	46.42
354.845	40.28
355.057	13.65
355.268	-10.92
355.48	154.96
355.692	52.56
355.903	-4.78
356.115	32.08
356.326	-53.93
356.538	30.04
356.749	1.37
356.961	75.09
357.172	58.71
357.384	-4.78
357.595	165.2
357.807	-0.68
358.018	34.13
358.23	50.52
358.441	89.43
358.653	11.61
358.864	64.85
359.075	21.85
359.287	32.08
359.498	101.72
359.709	48.47
359.921	-39.59
360.132	62.8
360.344	50.52
360.555	5.46
360.766	83.28
360.977	-35.5
361.189	58.71
361.4	11.61
361.611	103.76
361.823	54.61
362.034	44.37
362.245	7.51
362.456	60.76
362.667	73.04
362.879	54.61
363.09	79.19
363.301	62.8
363.512	-2.73
363.723	-37.55
363.935	48.47
364.146	89.43
364.357	-2.73
364.568	87.38
364.779	23.89
364.99	23.89
365.201	56.66
365.412	64.85
365.623	-17.07
365.834	79.19
366.045	101.72
366.256	34.13
366.467	79.19
366.678	77.14
366.889	9.56
367.1	44.37
367.311	30.04
367.522	-33.45
367.733	77.14
367.944	-10.92
368.155	66.9
368.366	-15.02
368.577	38.23
368.788	52.56
368.999	34.13
369.209	-2.73
369.42	157.01
369.631	101.72
369.842	75.09
370.053	101.72
370.264	7.51
370.474	52.56
370.685	9.56
370.896	40.28
371.107	60.76
371.317	105.81
371.528	-37.55
371.739	85.33
371.95	118.1
372.16	99.67
372.371	-2.73
372.582	19.8
372.792	36.18
373.003	54.61
373.214	7.51
373.424	-8.87
373.635	25.94
373.846	118.1
374.056	19.8
374.267	134.48
374.477	5.46
374.688	83.28
374.898	23.89
375.109	21.85
375.319	15.7
375.53	42.32
375.74	64.85
375.951	62.8
376.161	36.18
376.372	54.61
376.582	13.65
376.793	-2.73
377.003	-12.97
377.214	1.37
377.424	124.24
377.635	46.42
377.845	42.32
378.055	154.96
378.266	11.61
378.476	-41.64
378.686	-21.16
378.897	27.99
379.107	52.56
379.317	89.43
379.528	13.65
379.738	128.34
379.948	19.8
380.158	91.48
380.369	99.67
380.579	-12.97
380.789	50.52
380.999	27.99
381.21	-51.88
381.42	68.95
381.63	25.94
381.84	34.13
382.05	46.42
382.261	93.52
382.471	87.38
382.681	9.56
382.891	111.96
383.101	27.99
383.311	40.28
383.521	91.48
383.731	66.9
383.941	34.13
384.151	25.94
384.361	60.76
384.571	11.61
384.781	83.28
384.991	138.58
385.201	50.52
385.411	44.37
385.621	19.8
385.831	77.14
386.041	68.95
386.251	50.52
386.461	21.85
386.671	38.23
386.881	114
387.091	52.56
387.301	91.48
387.511	42.32
387.72	111.96
387.93	99.67
388.14	15.7
388.35	130.39
388.56	71
388.769	56.66
388.979	50.52
389.189	3.41
389.399	30.04
389.609	-4.78
389.818	38.23
390.028	-6.83
390.238	19.8
390.447	77.14
390.657	62.8
390.867	38.23
391.076	5.46
391.286	30.04
391.496	48.47
391.705	-8.87
391.915	85.33
392.125	85.33
392.334	140.63
392.544	27.99
392.753	95.57
392.963	-66.22
393.172	66.9
393.382	17.75
393.591	17.75
393.801	81.24
394.01	159.06
394.22	-15.02
394.429	62.8
394.639	83.28
394.848	75.09
395.058	15.7
395.267	103.76
395.477	79.19
395.686	105.81
395.895	101.72
396.105	97.62
396.314	109.91
396.524	120.15
396.733	91.48
396.942	79.19
397.152	116.05
397.361	122.2
397.57	105.81
397.78	60.76
397.989	81.24
398.198	150.87
398.407	19.8
398.617	66.9
398.826	111.96
399.035	81.24
399.244	91.48
399.453	46.42
399.663	87.38
399.872	159.06
400.081	44.37
400.29	107.86
400.499	148.82
400.708	124.24
400.917	95.57
401.127	136.53
401.336	25.94
401.545	89.43
401.754	161.11
401.963	126.29
402.172	27.99
402.381	52.56
402.59	19.8
402.799	105.81
403.008	134.48
403.217	128.34
403.426	83.28
403.635	101.72
403.844	124.24
404.053	114
404.262	79.19
404.471	163.15
404.68	173.39
404.888	173.39
405.097	111.96
405.306	175.44
405.515	173.39
405.724	232.79
405.933	228.69
406.142	187.73
406.35	224.59
406.559	122.2
406.768	132.44
406.977	220.5
407.185	167.25
407.394	265.55
407.603	159.06
407.812	224.59
408.02	335.18
408.229	202.07
408.438	193.87
408.646	187.73
408.855	230.74
409.064	314.7
409.272	202.07
409.481	251.22
409.69	255.31
409.898	220.5
410.107	324.94
410.315	339.28
410.524	329.04
410.733	431.44
410.941	394.58
411.15	271.7
411.358	435.53
411.567	413.01
411.775	402.77
411.984	419.15
412.192	435.53
412.401	410.96
412.609	474.45
412.818	472.4
413.026	566.6
413.234	460.11
413.443	460.11
413.651	554.32
413.86	531.79
414.068	611.66
414.276	650.57
414.485	609.61
414.693	603.47
414.901	660.81
415.11	621.9
415.318	699.72
415.526	775.5
415.734	783.69
415.943	748.87
416.151	888.14
416.359	769.35
416.567	826.7
416.776	927.05
416.984	886.09
417.192	1031.49
417.4	1021.25
417.608	972.1
417.817	1082.69
418.025	980.29
418.233	1248.58
418.441	1074.5
418.649	1207.62
418.857	1260.87
419.065	1242.43
419.273	1172.8
419.481	1336.64
419.689	1391.94
419.897	1535.29
420.105	1482.05
420.313	1572.16
420.521	1586.49
420.729	1672.51
420.937	1721.66
421.145	1779
421.353	1858.87
421.561	1922.36
421.769	1965.37
421.977	2043.19
422.185	2032.95
422.393	2118.97
422.601	2194.74
422.809	2135.35
423.017	2192.69
423.224	2444.59
423.432	2450.74
423.64	2544.94
423.848	2759.98
424.056	2581.81
424.263	2854.19
424.471	2809.13
424.679	2946.34
424.887	3022.12
425.094	3132.71
425.302	3181.86
425.51	3280.16
425.718	3403.04
425.925	3310.88
426.133	3554.59
426.341	3755.29
426.548	3966.23
426.756	3947.8
426.964	3947.8
427.171	4009.24
427.379	4318.48
427.586	4386.07
427.794	4570.38
428.001	4846.86
428.209	4941.07
428.417	4746.51
428.624	5233.93
428.832	5170.44
429.039	5225.73
429.247	5244.17
429.454	5672.19
429.662	6151.42
429.869	5608.7
430.076	6143.22
430.284	5963
430.491	6130.94
430.699	6546.67
430.906	6442.23
431.114	6550.77
431.321	6833.39
431.528	6962.41
431.736	7519.46
431.943	7849.18
432.15	7441.64
432.358	7584.99
432.565	8043.74
432.772	8148.18
432.979	8422.61
433.187	8664.27
433.394	8592.59
433.601	9217.22
433.808	9155.79
434.016	9233.61
434.223	9647.3
434.43	10042.56
434.637	9899.2
434.844	10546.36
435.052	10685.62
435.259	10777.78
435.466	11005.1
435.673	10695.86
435.88	11252.91
436.087	12002.46
436.294	12006.56
436.501	11556
436.708	12039.33
436.915	12231.83
437.122	12799.12
437.329	12702.87
437.537	13323.4
437.743	13548.68
437.95	13536.39
438.157	14058.62
438.364	14642.29
438.571	14414.97
438.778	14625.91
438.985	15952.99
439.192	15307.88
439.399	15998.05
439.606	15627.37
439.813	16348.25
440.02	17527.88
440.227	17173.58
440.433	17001.55
440.64	17278.03
440.847	17284.17
441.054	17781.83
441.261	18861.11
441.467	18672.7
441.674	19000.37
441.881	19823.65
442.088	19987.49
442.294	19694.63
442.501	20048.93
442.708	20507.68
442.914	21457.93
443.121	22307.84
443.328	21853.19
443.534	22928.38
443.741	22588.41
443.948	22174.72
444.154	23729.13
444.361	23641.07
444.568	23866.35
444.774	23950.31
444.981	24273.89
445.187	24714.2
445.394	26063.82
445.6	25650.13
445.807	28085.16
446.013	26768.32
446.22	27282.36
446.426	28265.38
446.633	28550.05
446.839	29709.2
447.046	28615.58
447.252	30081.93
447.459	29954.96
447.665	30045.07
447.871	31130.49
448.078	32564.07
448.284	31159.16
448.491	31921.01
448.697	32918.37
448.903	33885.01
449.11	33715.03
449.316	33215.32
449.522	33739.6
449.728	34968.38
449.935	35126.08
450.141	35054.4
450.347	35892.02
450.553	34523.97
450.76	35363.64
450.966	36383.53
451.172	35865.39
451.378	36989.73
451.584	36391.72
451.791	37004.06
451.997	36999.97
452.203	37686.04
452.409	37622.55
452.615	37417.75
452.821	36137.77
453.027	35412.79
453.233	37200.67
453.44	35969.84
453.646	36666.15
453.852	36623.14
454.058	37034.78
454.264	35957.55
454.47	36977.44
454.676	35709.75
454.882	37167.9
455.088	33925.97
455.294	34575.17
455.5	35107.65
455.705	35433.27
455.911	34007.89
456.117	33293.15
456.323	33000.29
456.529	31437.69
456.735	32703.33
456.941	31632.24
457.147	30837.63
457.352	30552.96
457.558	30038.92
457.764	29989.77
457.97	29369.24
458.176	28672.93
458.381	28883.87
458.587	27302.84
458.793	27433.91
458.999	25959.37
459.204	27798.45
459.41	27077.56
459.616	25551.82
459.821	25238.48
460.027	25342.93
460.233	24632.29
460.438	23628.78
460.644	23849.96
460.85	22817.79
461.055	22475.77
461.261	22291.46
461.466	20577.31
461.672	20171.81
461.878	21607.44
462.083	20026.4
462.289	19715.11
462.494	19389.49
462.7	18588.73
462.905	18091.07
463.111	18766.9
463.316	18678.84
463.522	18334.78
463.727	18439.23
463.932	18289.73
464.138	18172.99
464.343	18246.72
464.549	17900.61
464.754	18299.97
464.959	18101.31
465.165	17841.22
465.37	17368.14
465.575	16809.04
465.781	17599.56
465.986	17359.95
466.191	16899.16
466.397	16895.06
466.602	15864.93
466.807	16272.48
467.012	16450.65
467.218	16180.32
467.423	16219.23
467.628	16385.12
467.833	16901.2
468.038	16290.91
468.244	15535.21
468.449	16454.75
468.654	15883.36
468.859	15844.45
469.064	15561.83
469.269	14953.59
469.474	15244.4
469.679	15473.77
469.885	15156.33
470.09	15393.9
470.295	15504.49
470.5	14863.47
470.705	14937.2
470.91	14597.24
471.115	14507.13
471.32	14736.5
471.525	14699.64
471.73	14140.54
471.935	13945.98
472.139	13773.96
472.344	13896.83
472.549	13808.77
472.754	13579.4
472.959	13261.96
473.164	13145.23
473.369	12780.69
473.574	13419.66
473.778	13235.34
473.983	13134.99
474.188	13212.81
474.393	12459.16
474.598	12479.64
474.802	12512.41
475.007	12250.27
475.212	12444.82
475.417	11879.58
475.621	11842.72
475.826	11832.48
476.031	11748.51
476.235	11375.78
476.44	11777.19
476.645	11414.7
476.849	11332.78
477.054	11322.54
477.259	11240.62
477.463	11158.7
477.668	10869.94
477.872	10869.94
478.077	10695.86
478.282	10400.95
478.486	10644.66
478.691	10233.02
478.895	10278.07
479.1	10233.02
479.304	10290.36
479.509	9972.93
479.713	10228.92
479.918	9866.43
480.122	9729.22
480.326	9764.03
480.531	9993.4
480.735	9684.16
480.94	9780.42
481.144	10026.17
481.348	9462.98
481.553	9866.43
481.757	9479.36
481.961	9653.44
482.166	9774.27
482.37	9641.15
482.574	9360.58
482.778	9641.15
482.983	9635.01
483.187	9544.9
483.391	9536.71
483.595	9536.71
483.8	9516.23
484.004	9614.53
484.208	9508.04
484.412	9542.85
484.616	9583.81
484.821	9835.71
485.025	9399.49
485.229	9661.63
485.433	9495.75
485.637	9540.8
485.841	9444.55
486.045	9313.48
486.249	9718.98
486.453	9465.03
486.657	9544.9
486.861	9610.43
487.065	9362.63
487.269	9563.33
487.473	9245.9
487.677	9446.6
487.881	9336.01
488.085	9475.27
488.289	9432.26
488.493	9391.3
488.697	9483.46
488.901	9514.18
489.105	9714.88
489.309	9551.04
489.512	9798.85
489.716	9501.89
489.92	9678.02
490.124	9675.97
490.328	9641.15
490.531	9581.76
490.735	9848
490.939	9618.63
491.143	9753.79
491.346	9675.97
491.55	9936.06
491.754	9950.4
491.958	9968.83
492.161	10075.32
492.365	10273.98
492.569	10124.47
492.772	9962.69
492.976	10216.63
493.18	10024.12
493.383	9997.5
493.587	10464.44
493.79	10468.53
493.994	10372.28
494.197	10288.31
494.401	10409.14
494.605	10624.18
494.808	10591.41
495.012	10609.84
495.215	10914.99
495.419	10853.55
495.622	10810.54
495.825	10929.33
496.029	11119.79
496.232	11154.6
496.436	11197.61
496.639	11474.09
496.843	11377.83
497.046	11807.91
497.249	11680.93
497.453	11941.02
497.656	11932.83
497.859	11891.87
498.063	11971.74
498.266	12387.48
498.469	12174.49
498.673	12491.93
498.876	12397.72
499.079	12473.49
499.282	12473.49
499.485	13024.4
499.689	12811.41
499.892	13077.65
500.095	13411.46
500.298	13411.46
500.501	13354.12
500.705	13767.81
500.908	13898.88
501.111	14109.82
501.314	14118.01
501.517	14290.04
501.72	14558.33
501.923	14498.94
502.126	14613.62
502.329	15176.81
502.532	14853.23
502.735	15234.16
502.938	15397.99
503.141	15420.52
503.344	15711.33
503.547	15565.93
503.75	15979.62
503.953	16462.94
504.156	16174.17
504.359	16464.99
504.562	16493.66
504.765	16888.92
504.968	16999.51
505.17	17149.01
505.373	17034.32
505.576	17570.89
505.779	17468.49
505.982	17982.53
506.185	18144.32
506.387	18381.88
506.59	18469.95
506.793	18601.02
506.996	18570.3
507.198	19229.74
507.401	19024.95
507.604	19172.4
507.807	19645.48
508.009	19668.01
508.212	19780.65
508.415	20157.47
508.617	20378.65
508.82	20409.37
509.022	20216.86
509.225	20900.89
509.428	20894.74
509.63	20872.21
509.833	21333.01
510.035	21558.28
510.238	21675.02
510.44	22051.84
510.643	22184.96
510.845	22473.73
511.048	22512.64
511.25	22395.9
511.453	22862.84
511.655	23352.31
511.858	23206.9
512.06	23268.34
512.262	23505.9
512.465	23772.14
512.667	23954.41
512.87	24255.46
513.072	24447.97
513.274	24908.76
513.477	24869.85
513.679	25261.01
513.881	25525.2
514.084	25893.83
514.286	25838.54
514.488	25875.4
514.69	26792.89
514.893	26522.56
515.095	26731.45
515.297	27040.7
515.499	27012.03
515.701	27362.23
515.904	27714.48
516.106	27696.05
516.308	28246.95
516.51	28115.88
516.712	28472.23
516.914	28629.92
517.116	28785.57
517.318	28748.7
517.52	29180.82
517.722	29322.13
517.925	29709.2
518.127	29795.21
518.329	30069.64
518.531	29629.33
518.733	30491.52
518.935	31136.63
519.136	30681.99
519.338	31064.96
519.54	31085.44
519.742	31552.37
519.944	31734.64
520.146	32088.94
520.348	32295.78
520.55	32549.73
520.752	32271.21
520.954	33078.11
521.155	32619.36
521.357	33413.98
521.559	33327.96
521.761	33770.32
521.963	33844.05
522.164	33848.14
522.366	33827.67
522.568	34384.71
522.77	34358.09
522.971	34954.05
523.173	34415.43
523.375	35289.91
523.576	35105.6
523.778	35195.71
523.98	35633.97
524.181	35711.8
524.383	35744.56
524.584	36182.83
524.786	36352.81
524.988	36141.87
525.189	36461.35
525.391	37010.21
525.592	36817.7
525.794	36973.35
525.995	36866.85
526.197	36690.73
526.398	36926.24
526.6	37172
526.801	37221.15
527.003	37505.82
527.204	37503.77
527.406	37991.19
527.607	37800.72
527.808	38148.88
528.01	37591.83
528.211	38019.86
528.412	38445.83
528.614	38310.67
528.815	38361.87
529.016	38626.06
529.218	38071.06
529.419	38884.1
529.62	38738.69
529.822	38697.73
530.023	38669.06
530.224	38927.11
530.425	38619.91
530.626	38361.87
530.828	38470.41
531.029	39398.14
531.23	38398.73
531.431	38468.36
531.632	38871.81
531.833	39039.75
532.035	39011.07
532.236	39009.03
532.437	39207.68
532.638	38787.85
532.839	39037.7
533.04	39283.45
533.241	38959.87
533.442	39396.09
533.643	39222.01
533.844	38902.53
534.045	39418.62
534.246	38568.71
534.447	39197.44
534.648	39117.57
534.849	39523.07
535.05	38507.27
535.251	39375.61
535.451	38746.89
535.652	39340.8
535.853	38755.08
536.054	39359.23
536.255	39314.17
536.456	39088.9
536.657	39248.64
536.857	39103.23
537.058	38826.76
537.259	39443.2
537.46	39412.48
537.66	39015.17
537.861	38867.72
538.062	39217.92
538.263	39136
538.463	38759.17
538.664	39435
538.865	38976.26
539.065	39346.94
539.266	38853.38
539.466	39531.26
539.667	38669.06
539.868	39367.42
540.068	39172.86
540.269	39029.51
540.469	39119.62
540.67	38918.92
540.87	38914.82
541.071	39287.55
541.271	38859.52
541.472	38675.21
541.672	38918.92
541.873	38603.53
542.073	38609.67
542.274	39236.35
542.474	38703.88
542.675	38791.94
542.875	39340.8
543.075	38791.94
543.276	38509.32
543.476	39107.33
543.676	38519.56
543.877	39209.73
544.077	39000.83
544.277	38609.67
544.478	38626.06
544.678	38755.08
544.878	38470.41
545.078	38644.49
545.279	38312.72
545.479	38402.83
545.679	38486.79
545.879	38505.23
546.079	38628.1
546.28	38527.75
546.48	38480.65
546.68	38650.63
546.88	38726.41
547.08	38699.78
547.28	38404.88
547.48	38159.12
547.68	38943.49
547.88	38202.13
548.081	38535.95
548.281	38566.66
548.481	38120.21
548.681	38583.05
548.881	38425.36
549.081	38429.45
549.28	38320.91
549.48	38683.4
549.68	38718.21
549.88	38859.52
550.08	38226.7
550.28	38159.12
550.48	38159.12
550.68	38683.4
550.88	38169.36
551.08	38056.72
551.279	38202.13
551.479	38109.97
551.679	38402.83
551.879	37874.45
552.079	38269.71
552.278	37600.02
552.478	38003.47
552.678	37960.47
552.878	38476.55
553.077	38107.92
553.277	37763.86
553.477	38152.98
553.676	38112.02
553.876	37931.79
554.076	37810.96
554.275	37776.15
554.475	37702.42
554.674	38056.72
554.874	37782.29
555.074	37663.51
555.273	37770
555.473	38200.08
555.672	37491.48
555.872	37665.56
556.071	37798.68
556.271	37837.59
556.47	37323.55
556.67	37036.83
556.869	37436.19
557.068	37505.82
557.268	37180.19
557.467	37358.36
557.667	37516.06
557.866	37337.88
558.065	37346.08
558.265	36942.63
558.464	37323.55
558.663	37747.48
558.863	37172
559.062	37421.85
559.261	37057.31
559.461	37710.61
559.66	36946.72
559.859	37051.17
560.058	36834.08
560.258	37065.5
560.457	37096.22
560.656	36956.96
560.855	36500.26
561.054	36856.61
561.253	36721.44
561.453	36844.32
561.652	36819.75
561.851	37102.37
562.05	36635.43
562.249	36662.05
562.448	36717.35
562.647	36709.16
562.846	36500.26
563.045	36518.7
563.244	35877.68
563.443	36774.69
563.642	36123.44
563.841	36467.5
564.04	35924.79
564.239	36391.72
564.438	35914.55
564.637	36096.81
564.836	35928.88
565.035	35896.11
565.234	35902.26
565.432	35894.07
565.631	35937.07
565.83	35930.93
566.029	35830.58
566.228	35425.08
566.427	35590.97
566.625	35392.31
566.824	35195.71
567.023	35826.48
567.222	35033.92
567.42	35629.88
567.619	35435.32
567.818	35144.51
568.016	35121.98
568.215	35253.05
568.414	35058.49
568.612	35218.24
568.811	34925.38
569.01	35091.26
569.208	34214.73
569.407	35177.28
569.605	34351.95
569.804	35050.3
570.002	34536.26
570.201	34702.15
570.4	34491.21
570.598	34147.15
570.797	34044.75
570.995	34425.67
571.193	34249.55
571.392	34239.31
571.59	33962.83
571.789	34147.15
571.987	34034.51
572.186	33815.38
572.384	33534.81
572.582	33862.48
572.781	34210.64
572.979	33491.8
573.177	33663.83
573.376	33659.73
573.574	33166.17
573.772	33796.95
573.971	32922.46
574.169	33502.04
574.367	33325.91
574.565	33475.41
574.763	33000.29
574.962	32918.37
575.16	32662.37
575.358	33327.96
575.556	32910.18
575.754	33362.78
575.952	32975.71
576.151	33127.26
576.349	32367.46
576.547	32740.19
576.745	32901.98
576.943	32693.09
577.141	32605.03
577.339	32527.21
577.537	32230.25
577.735	32346.98
577.933	31996.78
578.131	32523.11
578.329	31966.06
578.527	32072.56
578.725	32043.88
578.923	32045.93
579.121	31841.14
579.319	31773.55
579.516	31695.73
579.714	32187.24
579.912	31386.49
580.11	31710.07
580.308	32037.74
580.506	31243.13
580.704	30598.02
580.901	31460.21
581.099	31353.72
581.297	31015.8
581.495	31087.48
581.692	31202.17
581.89	30849.92
582.088	30962.56
582.285	30854.01
582.483	30636.93
582.681	30661.51
582.878	30692.22
583.076	30313.35
583.274	30444.42
583.471	29817.74
583.669	30260.1
583.866	30180.23
584.064	30280.58
584.262	29870.99
584.459	30360.45
584.657	30258.06
584.854	30258.06
585.052	29932.43
585.249	29760.4
585.447	29653.9
585.644	29496.21
585.841	29711.25
586.039	29653.9
586.236	29176.73
586.434	29193.11
586.631	29227.93
586.828	29305.75
587.026	29205.4
587.223	29117.34
587.42	28914.59
587.618	28797.85
587.815	28742.56
588.012	28650.4
588.21	28535.71
588.407	28996.51
588.604	28449.7
588.801	28359.59
588.999	28699.55
589.196	28169.13
589.393	27993
589.59	27929.52
589.787	27909.04
589.984	27954.09
590.182	27558.83
590.379	27909.04
590.576	27794.35
590.773	27792.3
590.97	27700.14
591.167	28001.19
591.364	27329.46
591.561	27483.06
591.758	27139
591.955	26897.34
592.152	27659.18
592.349	27102.14
592.546	27442.1
592.743	26885.05
592.94	26471.36
593.137	26971.07
593.334	26917.82
593.531	26321.86
593.727	26813.37
593.924	26522.56
594.121	26332.1
594.318	26334.15
594.515	26350.53
594.712	26674.11
594.908	26301.38
595.105	26082.25
595.302	25811.92
595.499	26297.28
595.696	26043.34
595.892	25488.34
596.089	25656.27
596.286	25801.68
596.482	25789.39
596.679	25502.67
596.876	25504.72
597.072	25527.25
597.269	25521.1
597.466	25269.2
597.662	25162.71
597.859	24937.43
598.055	25189.33
598.252	24779.74
598.448	24849.37
598.645	24581.09
598.841	24724.44
599.038	24976.34
599.234	24890.33
599.431	24462.3
599.627	24636.38
599.824	24425.44
600.02	24169.44
600.217	24144.87
600.413	24286.18
600.609	24302.56
600.806	24153.06
601.002	24337.38
601.198	23792.62
601.395	23684.08
601.591	23712.75
601.787	23868.39
601.984	23718.89
602.18	23727.08
602.376	23491.57
602.572	23593.97
602.769	23378.93
602.965	23254
603.161	23340.02
603.357	23190.52
603.553	22993.91
603.75	23290.87
603.946	22959.1
604.142	22842.36
604.338	22629.37
604.534	22930.42
604.73	22770.68
604.926	22375.42
605.122	22623.23
605.318	22510.59
605.514	22549.5
605.71	22336.51
605.906	22496.25
606.102	22502.4
606.298	22318.08
606.494	22139.91
606.69	22463.49
606.886	22158.34
607.082	22070.28
607.278	22137.86
607.474	22062.08
607.67	21949.45
607.866	21769.23
608.062	21953.54
608.257	21617.68
608.453	22098.95
608.649	21748.75
608.845	21607.44
609.041	21711.88
609.236	21586.96
609.432	21564.43
609.628	21724.17
609.824	21410.83
610.019	21261.33
610.215	21285.9
610.411	21394.45
610.606	21433.36
610.802	21445.65
610.998	20960.28
611.193	21156.88
611.389	20876.31
611.584	21163.03
611.78	20696.09
611.976	20886.55
612.171	21185.55
612.367	20812.82
612.562	20874.26
612.758	20505.63
612.953	20497.44
613.149	20780.06
613.344	20503.58
613.539	20907.03
613.735	20677.66
613.93	20798.49
614.126	20411.42
614.321	21091.35
614.517	20624.41
614.712	20665.37
614.907	20282.4
615.103	20427.81
615.298	20407.33
615.493	20374.56
615.688	20173.86
615.884	20462.62
616.079	20116.51
616.274	20266.02
616.47	20372.51
616.665	20147.23
616.86	20220.96
617.055	19807.27
617.25	20028.45
617.445	20093.99
617.641	19491.88
617.836	19887.14
618.031	19631.15
618.226	19893.29
618.421	19631.15
618.616	19598.38
618.811	19446.83
619.006	19723.3
619.201	19027
619.396	19405.87
619.591	19366.96
619.786	19293.23
619.981	18736.18
620.176	18992.18
620.371	18791.48
620.566	18998.32
620.761	18932.79
620.956	19090.48
621.151	18605.11
621.346	18910.26
621.541	18754.62
621.735	18654.26
621.93	18222.14
622.125	18285.63
622.32	18000.96
622.515	18027.59
622.709	18084.93
622.904	17972.29
623.099	17642.57
623.294	17857.6
623.488	17765.45
623.683	17587.27
623.878	17630.28
624.072	17433.68
624.267	17329.23
624.462	17568.84
624.656	17298.51
624.851	17013.84
625.046	16979.03
625.24	16948.31
625.435	16823.38
625.629	16641.11
625.824	16870.48
626.018	16559.19
626.213	16436.31
626.407	16569.43
626.602	16026.72
626.796	16192.61
626.991	16223.33
627.185	15950.95
627.38	15780.96
627.574	15834.21
627.768	15643.75
627.963	15680.61
628.157	15389.8
628.352	15586.41
628.546	15092.85
628.74	15240.3
628.935	15350.89
629.129	15314.03
629.323	15025.26
629.517	15142
629.712	14812.28
629.906	14834.8
630.1	14578.81
630.294	14689.4
630.489	14681.21
630.683	14566.52
630.877	14423.16
631.071	14226.56
631.265	14242.94
631.459	14265.47
631.653	14173.31
631.848	14111.87
632.042	13804.67
632.236	13896.83
632.43	13765.76
632.624	13626.5
632.818	13741.19
633.012	13696.13
633.206	13819.01
633.4	13733
633.594	13395.08
633.788	13591.69
633.982	13489.29
634.176	13356.17
634.369	13204.62
634.563	13251.72
634.757	13063.31
634.951	13112.46
635.145	13204.62
635.339	12930.19
635.533	12565.65
635.726	12907.66
635.92	12651.67
636.114	12713.11
636.308	12598.42
636.501	12610.71
636.695	12522.65
636.889	12555.41
637.083	12135.58
637.276	12072.09
637.47	12143.77
637.664	12231.83
637.857	12117.15
638.051	12053.66
638.244	11840.67
638.438	11932.83
638.632	11768.99
638.825	11701.41
639.019	11748.51
639.212	11594.92
639.406	11719.84
639.599	11418.79
639.793	11547.81
639.986	11414.7
640.18	11369.64
640.373	11472.04
640.567	11111.6
640.76	11115.69
640.954	11197.61
641.147	10828.98
641.34	11027.63
641.534	10919.09
641.727	10824.88
641.92	10892.46
642.114	10857.65
642.307	10648.75
642.5	10745.01
642.694	10605.75
642.887	10595.51
643.08	10591.41
643.273	10681.52
643.467	10357.94
643.66	10278.07
643.853	10376.38
644.046	10212.54
644.239	10173.63
644.432	10228.92
644.626	9915.58
644.819	10177.72
645.012	10259.64
645.205	9893.05
645.398	9917.63
645.591	9854.14
645.784	9768.13
645.977	9645.25
646.17	9647.3
646.363	9690.31
646.556	9505.99
646.749	9716.93
646.942	9598.15
647.135	9325.77
647.328	9438.41
647.521	9465.03
647.714	9411.78
647.907	9204.94
648.099	9241.8
648.292	9379.01
648.485	9272.52
648.678	9049.29
648.871	9082.06
649.064	8961.23
649.256	9080.01
649.449	8869.07
649.642	8879.31
649.835	8768.72
650.027	8678.61
650.22	8664.27
650.413	8680.66
650.605	8557.78
650.798	8627.41
650.991	8580.31
651.183	8479.96
651.376	8520.92
651.568	8504.53
651.761	8203.48
651.954	8320.21
652.146	8215.77
652.339	8252.63
652.531	8148.18
652.724	8111.32
652.916	7994.59
653.109	7886.05
653.301	7990.49
653.494	8008.92
653.686	8066.27
653.879	7976.16
654.071	7892.19
654.263	7871.71
654.456	7822.56
654.648	7892.19
654.84	7761.12
655.033	7650.53
655.225	7671.01
655.417	7558.37
655.61	7746.78
655.802	7396.58
655.994	7517.41
656.186	7365.86
656.379	7372
656.571	7468.26
656.763	7421.16
656.955	7101.67
657.148	7359.72
657.34	7312.61
657.532	7183.59
657.724	7064.81
657.916	7101.67
658.108	7212.26
658.3	6905.07
658.492	7140.58
658.684	6991.08
658.876	7036.14
659.068	6909.16
659.26	6771.95
659.452	6794.48
659.644	6722.8
659.836	6706.41
660.028	6661.36
660.22	6518
660.412	6581.49
660.604	6620.4
660.796	6438.13
660.988	6511.86
661.18	6313.2
661.372	6474.99
661.563	6356.21
661.755	6438.13
661.947	6552.82
662.139	6415.6
662.331	6204.66
662.522	6143.22
662.714	6180.09
662.906	6350.07
663.097	6198.52
663.289	6034.68
663.481	6139.13
663.673	6067.45
663.864	6182.14
664.056	6055.16
664.247	6157.56
664.439	6006.01
664.631	5926.14
664.822	5903.61
665.014	5934.33
665.205	5981.43
665.397	5864.7
665.588	5754.11
665.78	5721.34
665.971	5659.9
666.163	5713.15
666.354	5721.34
666.546	5649.66
666.737	5620.99
666.929	5676.29
667.12	5659.9
667.311	5600.51
667.503	5588.22
667.694	5512.45
667.885	5541.12
668.077	5444.87
668.268	5451.01
668.459	5377.28
668.651	5379.33
668.842	5367.04
669.033	5342.47
669.224	5399.81
669.416	5348.61
669.607	5342.47
669.798	5225.73
669.989	5244.17
670.18	5008.65
670.371	5098.76
670.563	5080.33
670.754	5047.56
670.945	5035.27
671.136	5184.77
671.327	5006.6
671.518	4891.91
671.709	5027.08
671.9	5039.37
672.091	5020.94
672.282	4885.77
672.473	4912.39
672.664	4857.1
672.855	4914.44
673.046	4709.65
673.237	4820.24
673.428	4936.97
673.619	4748.56
673.809	4611.34
674	4789.52
674.191	4787.47
674.382	4740.36
674.573	4734.22
674.764	4689.17
674.954	4752.65
675.145	4627.73
675.336	4709.65
675.527	4592.91
675.717	4564.24
675.908	4588.82
676.099	4601.1
676.289	4566.29
676.48	4576.53
676.671	4470.03
676.861	4644.11
677.052	4523.28
677.243	4386.07
677.433	4381.97
677.624	4435.22
677.814	4343.06
678.005	4547.86
678.195	4449.55
678.386	4388.11
678.576	4166.93
678.767	4396.31
678.957	4316.44
679.148	4396.31
679.338	4386.07
679.529	4345.11
679.719	4281.62
679.909	4140.31
680.1	4156.69
680.29	4304.15
680.481	4087.06
680.671	4205.85
680.861	4136.21
681.052	4263.19
681.242	4138.26
681.432	4267.28
681.622	4232.47
681.813	3986.71
682.003	4056.34
682.193	3974.42
682.383	4144.41
682.573	4115.73
682.764	4091.16
682.954	3992.86
683.144	3951.9
683.334	3949.85
683.524	4080.92
683.714	4089.11
683.904	3958.04
684.094	3976.47
684.284	3996.95
684.474	4017.43
684.664	3974.42
684.854	3937.56
685.044	3777.82
685.234	4005.14
685.424	3882.27
685.614	3958.04
685.804	3841.31
685.994	3857.69
686.184	3816.73
686.374	3896.6
686.564	3964.18
686.753	3849.5
686.943	3794.2
687.133	3853.59
687.323	3829.02
687.513	3816.73
687.702	3749.15
687.892	3808.54
688.082	3808.54
688.272	3685.66
688.461	3753.24
688.651	3650.85
688.841	3695.9
689.03	3646.75
689.22	3601.69
689.41	3566.88
689.599	3550.5
689.789	3515.68
689.979	3433.76
690.168	3536.16
690.358	3427.62
690.547	3527.97
690.737	3476.77
690.926	3480.86
691.116	3454.24
691.305	3366.18
691.495	3335.46
691.684	3237.16
691.874	3353.89
692.063	3265.83
692.252	3357.99
692.442	3251.49
692.631	3251.49
692.82	3407.14
693.01	3280.16
693.199	3271.97
693.388	3173.67
693.578	3306.79
693.767	3161.38
693.956	3165.48
694.146	3038.5
694.335	3071.27
694.524	3003.69
694.713	3052.84
694.902	3104.04
695.092	2975.02
695.281	3163.43
695.47	3073.32
695.659	2987.3
695.848	2975.02
696.037	2977.06
696.226	3083.56
696.415	2895.15
696.604	2972.97
696.793	2944.3
696.982	3036.45
697.171	2813.23
697.36	2866.47
697.549	2725.16
697.738	2774.31
697.927	2794.79
698.116	2835.75
698.305	2798.89
698.494	2977.06
698.683	2739.5
698.872	2778.41
699.061	2757.93
699.25	2741.55
699.438	2690.35
699.627	2802.99
699.816	2700.59
700.005	2837.8
700.193	2712.88
700.382	2678.06
700.571	2665.77
700.76	2544.94
700.948	2766.12
701.137	2772.27
701.326	2680.11
701.514	2585.9
701.703	2694.44
701.892	2737.45
702.08	2559.28
702.269	2602.29
702.457	2622.77
702.646	2663.72
702.834	2528.56
703.023	2579.76
703.212	2610.48
703.4	2585.9
703.589	2585.9
703.777	2575.66
703.965	2452.78
704.154	2596.14
704.342	2620.72
704.531	2573.61
704.719	2489.65
704.907	2483.5
705.096	2524.46
705.284	2456.88
705.472	2506.03
705.661	2467.12
705.849	2563.37
706.037	2544.94
706.226	2559.28
706.414	2393.39
706.602	2438.45
706.79	2336.05
706.979	2516.27
707.167	2368.82
707.355	2393.39
707.543	2506.03
707.731	2551.09
707.919	2463.02
708.107	2458.93
708.296	2450.74
708.484	2446.64
708.672	2471.22
708.86	2424.11
709.048	2487.6
709.236	2331.95
709.424	2397.49
709.612	2454.83
709.8	2354.48
709.988	2346.29
710.176	2344.24
710.364	2483.5
710.551	2352.43
710.739	2352.43
710.927	2450.74
711.115	2354.48
711.303	2403.63
711.491	2432.3
711.679	2354.48
711.866	2354.48
712.054	2489.65
712.242	2293.04
712.43	2454.83
712.617	2403.63
712.805	2311.47
712.993	2444.59
713.181	2325.81
713.368	2311.47
713.556	2268.47
713.744	2327.86
713.931	2417.97
714.119	2262.32
714.306	2426.16
714.494	2350.39
714.682	2293.04
714.869	2272.56
715.057	2301.23
715.244	2239.8
715.432	2471.22
715.619	2184.5
715.807	2407.73
715.994	2288.95
716.182	2383.15
716.369	2305.33
716.556	2309.43
716.744	2270.51
716.931	2391.34
717.119	2290.99
717.306	2280.75
717.493	2325.81
717.681	2135.35
717.868	2327.86
718.055	2186.55
718.242	2420.02
718.43	2344.24
718.617	2385.2
718.804	2264.37
718.991	2389.3
719.179	2323.76
719.366	2256.18
719.553	2362.67
719.74	2321.71
719.927	2297.14
720.114	2334
720.301	2319.67
720.488	2354.48
720.676	2264.37
720.863	2456.88
721.05	2403.63
721.237	2231.6
721.424	2450.74
721.611	2258.23
721.798	2229.56
721.985	2366.77
722.172	2221.36
722.358	2331.95
722.545	2295.09
722.732	2305.33
722.919	2389.3
723.106	2247.99
723.293	2360.63
723.48	2250.03
723.667	2346.29
723.853	2209.08
724.04	2344.24
724.227	2358.58
724.414	2235.7
724.6	2401.58
724.787	2338.1
724.974	2473.26
725.161	2334
725.347	2221.36
725.534	2299.19
725.72	2297.14
725.907	2284.85
726.094	2360.63
726.28	2241.84
726.467	2352.43
726.653	2342.19
726.84	2334
727.027	2465.07
727.213	2264.37
727.4	2336.05
727.586	2288.95
727.773	2456.88
727.959	2315.57
728.145	2346.29
728.332	2413.87
728.518	2475.31
728.705	2409.78
728.891	2295.09
729.077	2415.92
729.264	2364.72
729.45	2381.11
729.636	2506.03
729.823	2430.26
730.009	2342.19
730.195	2553.13
730.382	2415.92
730.568	2374.96
730.754	2358.58
730.94	2454.83
731.126	2409.78
731.313	2528.56
731.499	2442.54
731.685	2383.15
731.871	2424.11
732.057	2493.74
732.243	2542.89
732.429	2415.92
732.615	2534.7
732.801	2456.88
732.987	2389.3
733.173	2444.59
733.359	2473.26
733.545	2360.63
733.731	2409.78
733.917	2463.02
734.103	2563.37
734.289	2381.11
734.475	2393.39
734.661	2557.23
734.847	2575.66
735.033	2399.54
735.219	2469.17
735.404	2571.57
735.59	2397.49
735.776	2432.3
735.962	2587.95
736.148	2522.41
736.333	2592.05
736.519	2473.26
736.705	2495.79
736.89	2481.46
737.076	2530.61
737.262	2434.35
737.447	2616.62
737.633	2561.33
737.819	2473.26
738.004	2430.26
738.19	2614.57
738.375	2469.17
738.561	2534.7
738.747	2508.08
738.932	2477.36
739.118	2661.68
739.303	2528.56
739.489	2592.05
739.674	2530.61
739.859	2506.03
740.045	2399.54
740.23	2563.37
740.416	2561.33
740.601	2551.09
740.786	2612.53
740.972	2471.22
741.157	2581.81
741.342	2463.02
741.528	2643.24
741.713	2583.85
741.898	2649.39
742.084	2389.3
742.269	2626.86
742.454	2438.45
742.639	2624.81
742.824	2549.04
743.01	2497.84
743.195	2559.28
743.38	2444.59
743.565	2471.22
743.75	2471.22
743.935	2463.02
744.12	2456.88
744.305	2327.86
744.49	2358.58
744.675	2551.09
744.86	2553.13
745.045	2610.48
745.23	2442.54
745.415	2377.01
745.6	2540.85
745.785	2485.55
745.97	2290.99
746.155	2374.96
746.34	2563.37
746.525	2399.54
746.71	2456.88
746.895	2381.11
747.079	2383.15
747.264	2389.3
747.449	2452.78
747.634	2403.63
747.819	2352.43
748.003	2303.28
748.188	2223.41
748.373	2266.42
748.557	2362.67
748.742	2299.19
748.927	2348.34
749.111	2319.67
749.296	2354.48
749.481	2313.52
749.665	2282.8
749.85	2227.51
750.034	2284.85
750.219	2282.8
750.404	2229.56
750.588	2315.57
750.773	2184.5
750.957	2223.41
751.141	2129.2
751.326	2114.87
751.51	2235.7
751.695	2022.71
751.879	2368.82
752.064	2182.45
752.248	2215.22
752.432	2166.07
752.617	2145.59
752.801	2190.64
752.985	2039.09
753.17	2147.64
753.354	2086.2
753.538	1930.55
753.722	2016.57
753.907	2108.73
754.091	2082.1
754.275	1971.51
754.459	1991.99
754.643	1893.69
754.828	2065.72
755.012	1981.75
755.196	1959.22
755.38	1996.09
755.564	1938.74
755.748	1873.21
755.932	1916.22
756.116	1889.59
756.3	1738.04
756.484	1903.93
756.668	1817.91
756.852	1914.17
757.036	1822.01
757.22	1789.24
757.404	1846.59
757.588	1811.77
757.772	1813.82
757.956	1725.76
758.14	1801.53
758.323	1762.62
758.507	1836.35
758.691	1721.66
758.875	1717.56
759.059	1639.74
759.242	1713.47
759.426	1709.37
759.61	1727.8
759.794	1707.32
759.977	1785.15
760.161	1815.87
760.345	1594.69
760.528	1709.37
760.712	1733.95
760.895	1668.41
761.079	1699.13
761.263	1584.45
761.446	1604.92
761.63	1654.08
761.813	1652.03
761.997	1580.35
762.18	1617.21
762.364	1611.07
762.547	1477.95
762.731	1590.59
762.914	1512.77
763.098	1551.68
763.281	1721.66
763.464	1512.77
763.648	1545.53
763.831	1496.38
764.015	1469.76
764.198	1502.53
764.381	1586.49
764.564	1441.09
764.748	1473.85
764.931	1492.29
765.114	1418.56
765.297	1555.77
765.481	1346.88
765.664	1512.77
765.847	1447.23
766.03	1455.42
766.213	1355.07
766.397	1490.24
766.58	1436.99
766.763	1432.9
766.946	1451.33
767.129	1355.07
767.312	1449.28
767.495	1459.52
767.678	1357.12
767.861	1391.94
768.044	1389.89
768.227	1436.99
768.41	1299.78
768.593	1428.8
768.776	1396.03
768.959	1355.07
769.142	1424.7
769.324	1342.78
769.507	1355.07
769.69	1328.45
769.873	1164.61
770.056	1420.61
770.239	1344.83
770.421	1353.02
770.604	1312.07
770.787	1281.35
770.97	1348.93
771.152	1215.81
771.335	1301.83
771.518	1195.33
771.7	1293.63
771.883	1260.87
772.066	1303.87
772.248	1281.35
772.431	1346.88
772.613	1330.5
772.796	1207.62
772.978	1217.86
773.161	1234.24
773.343	1254.72
773.526	1277.25
773.708	1178.95
773.891	1172.8
774.073	1121.6
774.256	1142.08
774.438	1193.28
774.621	1121.6
774.803	1232.19
774.985	1156.42
775.168	1111.36
775.35	1166.66
775.532	1092.93
775.715	986.44
775.897	1086.79
776.079	1051.97
776.261	1185.09
776.444	1150.28
776.626	1051.97
776.808	996.68
776.99	965.96
777.173	1109.32
777.355	996.68
777.537	1035.59
777.719	972.1
777.901	1017.16
778.083	1021.25
778.265	980.29
778.447	1002.82
778.629	931.14
778.811	912.71
778.993	1015.11
779.175	884.04
779.357	900.42
779.539	832.84
779.721	875.85
779.903	1017.16
780.085	918.86
780.267	925
780.449	894.28
780.631	931.14
780.812	857.42
780.994	865.61
781.176	838.98
781.358	822.6
781.54	838.98
781.721	781.64
781.903	828.74
782.085	859.46
782.267	826.7
782.448	759.11
782.63	744.78
782.812	832.84
782.993	781.64
783.175	863.56
783.357	822.6
783.538	785.74
783.72	720.2
783.901	789.83
784.083	677.2
784.264	671.05
784.446	736.59
784.627	652.62
784.809	683.34
784.99	720.2
785.172	677.2
785.353	656.72
785.535	683.34
785.716	664.91
785.897	607.56
786.079	658.76
786.26	660.81
786.441	730.44
786.623	597.32
786.804	650.57
786.985	628.04
787.167	681.29
787.348	578.89
787.529	607.56
787.71	701.77
787.891	638.28
788.073	660.81
788.254	537.93
788.435	681.29
788.616	615.76
788.797	591.18
788.978	642.38
789.159	552.27
789.34	537.93
789.522	574.8
789.703	537.93
789.884	556.36
790.065	537.93
790.246	562.51
790.427	601.42
790.607	552.27
790.788	613.71
790.969	554.32
791.15	539.98
791.331	492.88
791.512	562.51
791.693	464.21
791.874	539.98
792.054	546.13
792.235	560.46
792.416	519.5
792.597	521.55
792.778	413.01
792.958	529.74
793.139	476.49
793.32	494.93
793.5	410.96
793.681	509.26
793.862	482.64
794.042	470.35
794.223	439.63
794.404	482.64
794.584	396.62
794.765	509.26
794.945	499.02
795.126	419.15
795.306	433.49
795.487	410.96
795.667	427.34
795.848	423.25
796.028	410.96
796.209	417.1
796.389	494.93
796.57	378.19
796.75	415.06
796.93	441.68
797.111	380.24
797.291	388.43
797.471	453.97
797.652	404.82
797.832	386.38
798.012	480.59
798.192	384.34
798.373	347.47
798.553	374.1
798.733	382.29
798.913	386.38
799.093	365.9
799.274	421.2
799.454	413.01
799.634	394.58
799.814	415.06
799.994	443.73
800.174	367.95
800.354	402.77
800.534	372.05
800.714	365.9
800.894	339.28
801.074	312.66
801.254	271.7
801.434	353.62
801.614	322.9
801.794	271.7
801.974	927.05
802.154	361.81
802.334	316.75
802.514	349.52
802.693	265.55
802.873	298.32
803.053	335.18
803.233	286.03
803.413	271.7
803.592	343.38
803.772	324.94
803.952	339.28
804.131	197.97
804.311	324.94
804.491	306.51
804.67	245.07
804.85	300.37
805.03	306.51
805.209	353.62
805.389	343.38
805.568	349.52
805.748	214.35
805.928	296.27
806.107	283.99
806.287	269.65
806.466	277.84
806.646	312.66
806.825	245.07
807.004	294.22
807.184	337.23
807.363	357.71
807.543	294.22
807.722	204.11
807.901	263.51
808.081	275.79
808.26	220.5
808.439	324.94
808.619	189.78
808.798	232.79
808.977	283.99
809.156	367.95
809.336	228.69
809.515	331.09
809.694	240.98
809.873	251.22
810.052	322.9
810.231	216.4
810.411	265.55
810.59	292.18
810.769	197.97
810.948	222.55
811.127	101.72
811.306	161.11
811.485	247.12
811.664	283.99
811.843	220.5
812.022	218.45
812.201	150.87
812.38	275.79
812.559	232.79
812.737	163.15
812.916	200.02
813.095	175.44
813.274	238.93
813.453	269.65
813.632	290.13
813.811	271.7
813.989	130.39
814.168	267.6
814.347	251.22
814.526	159.06
814.704	226.64
814.883	273.75
815.062	200.02
815.24	251.22
815.419	273.75
815.598	161.11
815.776	140.63
815.955	189.78
816.133	122.2
816.312	318.8
816.49	173.39
816.669	183.63
816.847	177.49
817.026	236.88
817.204	210.26
817.383	167.25
817.561	214.35
817.74	210.26
817.918	240.98
818.097	111.96
818.275	267.6
818.453	157.01
818.632	206.16
818.81	130.39
818.988	214.35
819.167	173.39
819.345	255.31
819.523	214.35
819.701	216.4
819.879	148.82
820.058	177.49
820.236	148.82
820.414	218.45
820.592	130.39
820.77	154.96
820.948	79.19
821.127	146.77
821.305	177.49
821.483	154.96
821.661	185.68
821.839	146.77
822.017	200.02
822.195	91.48
822.373	167.25
822.551	99.67
822.729	163.15
822.907	111.96
823.085	181.59
823.262	157.01
823.44	138.58
823.618	124.24
823.796	111.96
823.974	32.08
824.152	140.63
824.329	116.05
824.507	173.39
824.685	171.35
824.863	154.96
825.04	126.29
825.218	185.68
825.396	126.29
825.574	206.16
825.751	150.87
825.929	142.68
826.107	150.87
826.284	163.15
826.462	179.54
826.639	173.39
826.817	118.1
826.994	122.2
827.172	134.48
827.349	136.53
827.527	34.13
827.704	95.57
827.882	154.96
828.059	181.59
828.237	169.3
828.414	124.24
828.591	64.85
828.769	114
828.946	85.33
829.124	107.86
829.301	30.04
829.478	116.05
829.655	105.81
829.833	134.48
830.01	38.23
830.187	114
830.364	120.15
830.542	103.76
830.719	132.44
830.896	130.39
831.073	81.24
831.25	130.39
831.427	185.68
831.604	126.29
831.782	142.68
831.959	101.72
832.136	91.48
832.313	85.33
832.49	-4.78
832.667	77.14
832.844	34.13
833.021	107.86
833.198	177.49
833.374	132.44
833.551	142.68
833.728	50.52
833.905	114
834.082	36.18
834.259	169.3
834.436	101.72
834.612	79.19
834.789	58.71
834.966	89.43
835.143	132.44
835.319	3.41
835.496	126.29
835.673	79.19
835.85	79.19
836.026	101.72
836.203	95.57
836.38	-10.92
836.556	75.09
836.733	71
836.909	52.56
837.086	42.32
837.262	54.61
837.439	38.23
837.616	27.99
837.792	120.15
837.968	105.81
838.145	87.38
838.321	105.81
838.498	21.85
838.674	118.1
838.851	107.86
839.027	25.94
839.203	128.34
839.38	124.24
839.556	-10.92
839.732	103.76
839.909	95.57
840.085	140.63
840.261	60.76
840.437	87.38
840.614	7.51
840.79	38.23
840.966	44.37
841.142	120.15
841.318	44.37
841.494	56.66
841.671	95.57
841.847	13.65
842.023	-0.68
842.199	122.2
842.375	58.71
842.551	62.8
842.727	83.28
842.903	161.11
843.079	-6.83
843.255	161.11
843.431	87.38
843.607	111.96
843.783	-10.92
843.959	128.34
844.134	46.42
844.31	87.38
844.486	73.04
844.662	11.61
844.838	21.85
845.013	142.68
845.189	83.28
845.365	167.25
845.541	71
845.716	5.46
845.892	118.1
846.068	48.47
846.244	-29.35
846.419	17.75
846.595	-2.73
846.77	15.7
846.946	75.09
847.122	38.23
847.297	48.47
847.473	99.67
847.648	19.8
847.824	105.81
847.999	7.51
848.175	9.56
848.35	36.18
848.526	91.48
848.701	130.39
848.876	73.04
849.052	79.19
849.227	52.56
849.403	91.48
849.578	30.04
849.753	87.38
849.929	25.94
850.104	52.56
850.279	-10.92
850.454	13.65
850.63	58.71
850.805	5.46
850.98	97.62
851.155	52.56
851.33	50.52
851.505	21.85
851.681	-8.87
851.856	3.41
852.031	36.18
852.206	79.19
852.381	87.38
852.556	103.76
852.731	79.19
852.906	97.62
853.081	38.23
853.256	83.28
853.431	36.18
853.606	-31.4
853.781	-37.55
853.956	56.66
854.131	42.32
854.305	-12.97
854.48	68.95
854.655	71
854.83	25.94
855.005	23.89
855.18	91.48
855.354	64.85
855.529	-8.87
855.704	23.89
855.879	25.94
856.053	83.28
856.228	40.28
856.403	-58.03
856.577	91.48
856.752	34.13
856.926	38.23
857.101	73.04
857.276	124.24
857.45	34.13
857.625	118.1
857.799	-17.07
857.974	15.7
858.148	-31.4
858.323	19.8
858.497	-17.07
858.672	128.34
858.846	54.61
859.02	36.18
859.195	7.51
859.369	71
859.543	23.89
859.718	23.89
859.892	19.8
860.066	-6.83
860.241	21.85
860.415	50.52
860.589	34.13
860.763	40.28
860.938	15.7
861.112	-37.55
861.286	-17.07
861.46	27.99
861.634	30.04
861.808	109.91
861.982	21.85
862.157	30.04
862.331	15.7
862.505	34.13
862.679	-8.87
862.853	23.89
863.027	-29.35
863.201	122.2
863.375	-10.92
863.549	62.8
863.722	25.94
863.896	91.48
864.07	-23.21
864.244	-43.69
864.418	107.86
864.592	-29.35
864.766	81.24
864.939	21.85
865.113	-10.92
865.287	105.81
865.461	27.99
865.634	-12.97
865.808	97.62
865.982	83.28
866.156	83.28
866.329	-21.16
866.503	-6.83
866.676	58.71
866.85	-27.31
867.024	36.18
867.197	19.8
867.371	103.76
867.544	-12.97
867.718	56.66
867.891	109.91
868.065	36.18
868.238	-2.73
868.412	21.85
868.585	21.85
868.759	23.89
868.932	-6.83
869.105	95.57
869.279	27.99
869.452	-15.02
869.625	38.23
869.799	15.7
869.972	-29.35
870.145	-0.68
870.319	-15.02
870.492	11.61
870.665	15.7
870.838	9.56
871.011	-17.07
871.185	11.61
871.358	42.32
871.531	25.94
871.704	-17.07
871.877	-33.45
872.05	-45.74
872.223	-15.02
872.396	-21.16
872.569	50.52
872.742	34.13
872.915	-19.11
873.088	40.28
873.261	1.37
873.434	91.48
873.607	17.75
873.78	38.23
873.953	19.8
874.126	77.14
874.299	-10.92
874.471	-19.11
874.644	11.61
874.817	71
874.99	46.42
875.163	27.99
875.335	42.32
875.508	85.33
875.681	30.04
875.853	-4.78
876.026	-0.68
876.199	-19.11
876.371	5.46
876.544	-0.68
876.717	89.43
876.889	34.13
877.062	38.23
877.234	44.37
877.407	-10.92
877.579	1.37
877.752	81.24
877.924	17.75
878.097	7.51
878.269	25.94
878.442	-2.73
878.614	-37.55
878.786	-19.11
878.959	44.37
879.131	17.75
879.303	-98.99
879.476	11.61
879.648	3.41
879.82	-12.97
879.993	11.61
880.165	-35.5
880.337	56.66
880.509	17.75
880.681	-41.64
880.854	-27.31
881.026	105.81
881.198	19.8
881.37	13.65
881.542	-47.79
881.714	75.09
881.886	81.24
882.058	3.41
882.23	64.85
882.402	27.99
882.574	-0.68
882.746	32.08
882.918	44.37
883.09	64.85
883.262	34.13
883.434	-12.97
883.606	-25.26
883.778	19.8
883.95	34.13
884.122	25.94
884.293	32.08
884.465	5.46
884.637	7.51
884.809	5.46
884.98	23.89
885.152	-10.92
885.324	-33.45
885.496	11.61
885.667	38.23
885.839	-15.02
886.011	60.76
886.182	-66.22
886.354	-0.68
886.525	27.99
886.697	42.32
886.869	30.04
887.04	19.8
887.212	-2.73
887.383	34.13
887.555	-17.07
887.726	-8.87
887.897	-21.16
888.069	68.95
888.24	19.8
888.412	-15.02
888.583	-0.68
888.754	-29.35
888.926	-86.7
889.097	60.76
889.268	-10.92
889.44	32.08
889.611	-53.93
889.782	-70.31
889.953	32.08
890.125	-25.26
890.296	-150.18
890.467	3.41
890.638	58.71
890.809	42.32
890.98	-53.93
891.151	62.8
891.323	5.46
891.494	81.24
891.665	-76.46
891.836	-25.26
892.007	62.8
892.178	-21.16
892.349	-0.68
892.52	-43.69
892.691	-60.07
892.862	54.61
893.032	-74.41
893.203	-49.83
893.374	13.65
893.545	42.32
893.716	-53.93
893.887	52.56
894.057	-88.75
894.228	21.85
894.399	-31.4
894.57	48.47
894.74	-45.74
894.911	87.38
895.082	-17.07
895.253	-2.73
895.423	-43.69
895.594	60.76
895.764	15.7
895.935	-27.31
896.106	68.95
896.276	-76.46
896.447	11.61
896.617	-53.93
896.788	-31.4
896.958	-49.83
897.129	-12.97
897.299	-64.17
897.47	34.13
897.64	-60.07
897.81	9.56
897.981	-21.16
898.151	23.89
898.322	25.94
898.492	34.13
898.662	38.23
898.832	11.61
899.003	17.75
899.173	11.61
899.343	-37.55
899.513	-6.83
