Data from USB4F104151__77__12-42-22-277.txt Node

Date: Fri Mar 14 12:42:22 EDT 2025
User: louis
Spectrometer: USB4F10415
Trigger mode: 4
Integration Time (sec): 3.000000E-2
Scans to average: 1
Electric dark correction enabled: true
Nonlinearity correction enabled: false
Boxcar width: 0
XAxis mode: Wavelengths
Number of Pixels in Spectrum: 3648
>>>>>Begin Spectral Data<<<<<
178.204	-99.84
178.424	-99.84
178.644	-99.84
178.864	-103.93
179.084	-202.24
179.304	-60.93
179.524	16.9
179.744	-19.97
179.964	23.04
180.184	-13.82
180.404	49.66
180.624	14.85
180.844	-26.11
181.064	-34.3
181.283	27.14
181.503	0.51
181.723	23.04
181.943	-34.3
182.163	41.47
182.383	43.52
182.602	61.95
182.822	96.77
183.042	100.86
183.262	59.9
183.482	57.86
183.701	72.19
183.921	10.75
184.141	12.8
184.361	76.29
184.58	6.66
184.8	96.77
185.02	-13.82
185.239	82.43
185.459	53.76
185.679	8.7
185.898	-42.5
186.118	96.77
186.338	47.62
186.557	-24.06
186.777	-34.3
186.997	23.04
187.216	-26.11
187.436	107.01
187.655	94.72
187.875	100.86
188.095	57.86
188.314	6.66
188.534	57.86
188.753	113.15
188.973	96.77
189.192	61.95
189.412	55.81
189.631	90.62
189.851	53.76
190.07	86.53
190.29	45.57
190.509	57.86
190.729	-7.68
190.948	80.38
191.168	131.58
191.387	14.85
191.607	0.51
191.826	47.62
192.045	20.99
192.265	-24.06
192.484	-17.92
192.704	27.14
192.923	27.14
193.142	61.95
193.362	127.49
193.581	57.86
193.8	6.66
194.02	47.62
194.239	86.53
194.458	14.85
194.678	14.85
194.897	12.8
195.116	16.9
195.335	31.23
195.555	33.28
195.774	31.23
195.993	76.29
196.212	74.24
196.432	-13.82
196.651	-3.58
196.87	8.7
197.089	59.9
197.308	57.86
197.528	98.81
197.747	33.28
197.966	102.91
198.185	74.24
198.404	-1.54
198.623	57.86
198.842	84.48
199.062	8.7
199.281	94.72
199.5	16.9
199.719	-3.58
199.938	70.14
200.157	80.38
200.376	100.86
200.595	57.86
200.814	74.24
201.033	51.71
201.252	-38.4
201.471	-1.54
201.69	100.86
201.909	53.76
202.128	31.23
202.347	55.81
202.566	59.9
202.785	23.04
203.004	-1.54
203.223	92.67
203.442	57.86
203.661	35.33
203.879	12.8
204.098	31.23
204.317	61.95
204.536	104.96
204.755	100.86
204.974	35.33
205.193	8.7
205.411	162.3
205.63	156.16
205.849	57.86
206.068	51.71
206.287	-1.54
206.505	139.77
206.724	57.86
206.943	64
207.162	-15.87
207.381	98.81
207.599	33.28
207.818	59.9
208.037	25.09
208.255	-5.63
208.474	78.33
208.693	35.33
208.911	61.95
209.13	18.94
209.349	18.94
209.567	27.14
209.786	51.71
210.005	64
210.223	39.42
210.442	-44.54
210.661	84.48
210.879	61.95
211.098	53.76
211.316	16.9
211.535	74.24
211.753	37.38
211.972	16.9
212.191	20.99
212.409	12.8
212.628	41.47
212.846	12.8
213.065	74.24
213.283	80.38
213.502	51.71
213.72	27.14
213.938	18.94
214.157	51.71
214.375	109.05
214.594	6.66
214.812	59.9
215.031	14.85
215.249	43.52
215.467	27.14
215.686	64
215.904	88.57
216.122	-44.54
216.341	-3.58
216.559	31.23
216.778	39.42
216.996	80.38
217.214	59.9
217.432	80.38
217.651	31.23
217.869	47.62
218.087	-32.26
218.306	31.23
218.524	53.76
218.742	47.62
218.96	31.23
219.179	-7.68
219.397	29.18
219.615	121.34
219.833	-24.06
220.051	43.52
220.27	98.81
220.488	55.81
220.706	123.39
220.924	88.57
221.142	41.47
221.36	55.81
221.578	25.09
221.796	53.76
222.015	8.7
222.233	43.52
222.451	100.86
222.669	-3.58
222.887	43.52
223.105	-9.73
223.323	27.14
223.541	-3.58
223.759	31.23
223.977	25.09
224.195	61.95
224.413	-42.5
224.631	-19.97
224.849	45.57
225.067	117.25
225.285	45.57
225.503	61.95
225.721	4.61
225.939	61.95
226.157	-19.97
226.375	219.64
226.592	74.24
226.81	14.85
227.028	115.2
227.246	102.91
227.464	29.18
227.682	88.57
227.9	16.9
228.117	100.86
228.335	53.76
228.553	-11.78
228.771	37.38
228.989	16.9
229.206	66.05
229.424	25.09
229.642	4.61
229.86	4.61
230.077	23.04
230.295	31.23
230.513	59.9
230.731	137.73
230.948	139.77
231.166	92.67
231.384	70.14
231.601	51.71
231.819	86.53
232.037	37.38
232.254	45.57
232.472	2.56
232.689	-7.68
232.907	121.34
233.125	64
233.342	57.86
233.56	70.14
233.777	-7.68
233.995	82.43
234.213	16.9
234.43	80.38
234.648	76.29
234.865	18.94
235.083	41.47
235.3	68.09
235.518	111.1
235.735	33.28
235.953	14.85
236.17	-36.35
236.388	25.09
236.605	51.71
236.822	68.09
237.04	55.81
237.257	107.01
237.475	16.9
237.692	39.42
237.909	10.75
238.127	117.25
238.344	35.33
238.562	66.05
238.779	6.66
238.996	-9.73
239.214	8.7
239.431	18.94
239.648	14.85
239.865	78.33
240.083	82.43
240.3	43.52
240.517	47.62
240.735	35.33
240.952	53.76
241.169	104.96
241.386	37.38
241.603	64
241.821	10.75
242.038	23.04
242.255	113.15
242.472	49.66
242.689	55.81
242.907	59.9
243.124	25.09
243.341	61.95
243.558	55.81
243.775	27.14
243.992	31.23
244.209	74.24
244.426	92.67
244.643	31.23
244.86	45.57
245.078	80.38
245.295	31.23
245.512	6.66
245.729	12.8
245.946	66.05
246.163	10.75
246.38	-9.73
246.597	29.18
246.814	0.51
247.031	16.9
247.248	51.71
247.464	23.04
247.681	117.25
247.898	23.04
248.115	-13.82
248.332	20.99
248.549	119.29
248.766	55.81
248.983	68.09
249.2	109.05
249.417	98.81
249.633	-28.16
249.85	39.42
250.067	16.9
250.284	70.14
250.501	84.48
250.717	35.33
250.934	129.53
251.151	-52.74
251.368	-44.54
251.585	35.33
251.801	29.18
252.018	72.19
252.235	119.29
252.451	20.99
252.668	49.66
252.885	76.29
253.102	35.33
253.318	55.81
253.535	-46.59
253.752	-40.45
253.968	80.38
254.185	33.28
254.401	16.9
254.618	-7.68
254.835	20.99
255.051	-17.92
255.268	90.62
255.484	61.95
255.701	70.14
255.917	66.05
256.134	-17.92
256.351	8.7
256.567	-5.63
256.784	31.23
257	61.95
257.217	137.73
257.433	-1.54
257.65	27.14
257.866	76.29
258.082	104.96
258.299	64
258.515	37.38
258.732	-19.97
258.948	10.75
259.165	51.71
259.381	14.85
259.597	8.7
259.814	47.62
260.03	29.18
260.246	27.14
260.463	33.28
260.679	150.01
260.895	-65.02
261.112	20.99
261.328	-3.58
261.544	39.42
261.761	8.7
261.977	53.76
262.193	-50.69
262.409	125.44
262.626	55.81
262.842	90.62
263.058	16.9
263.274	47.62
263.49	121.34
263.707	8.7
263.923	66.05
264.139	-3.58
264.355	31.23
264.571	102.91
264.787	111.1
265.004	20.99
265.22	29.18
265.436	68.09
265.652	35.33
265.868	35.33
266.084	41.47
266.3	43.52
266.516	-28.16
266.732	84.48
266.948	27.14
267.164	64
267.38	39.42
267.596	96.77
267.812	98.81
268.028	8.7
268.244	-38.4
268.46	82.43
268.676	64
268.892	55.81
269.108	29.18
269.324	-19.97
269.54	35.33
269.756	57.86
269.972	43.52
270.188	20.99
270.403	8.7
270.619	64
270.835	82.43
271.051	-24.06
271.267	-36.35
271.483	0.51
271.698	64
271.914	27.14
272.13	53.76
272.346	41.47
272.562	64
272.777	18.94
272.993	78.33
273.209	76.29
273.425	14.85
273.64	14.85
273.856	23.04
274.072	6.66
274.287	6.66
274.503	133.63
274.719	61.95
274.934	35.33
275.15	41.47
275.366	-5.63
275.581	-77.31
275.797	23.04
276.012	-1.54
276.228	41.47
276.444	29.18
276.659	133.63
276.875	82.43
277.09	4.61
277.306	47.62
277.521	0.51
277.737	16.9
277.952	49.66
278.168	25.09
278.383	61.95
278.599	-1.54
278.814	35.33
279.03	6.66
279.245	68.09
279.461	41.47
279.676	82.43
279.892	104.96
280.107	14.85
280.322	27.14
280.538	129.53
280.753	39.42
280.969	-3.58
281.184	27.14
281.399	92.67
281.615	8.7
281.83	86.53
282.045	16.9
282.26	0.51
282.476	20.99
282.691	49.66
282.906	31.23
283.122	39.42
283.337	-1.54
283.552	64
283.767	57.86
283.983	-9.73
284.198	-9.73
284.413	61.95
284.628	-62.98
284.843	78.33
285.058	82.43
285.274	25.09
285.489	23.04
285.704	78.33
285.919	37.38
286.134	74.24
286.349	70.14
286.564	47.62
286.779	113.15
286.995	47.62
287.21	59.9
287.425	102.91
287.64	-7.68
287.855	94.72
288.07	-81.41
288.285	80.38
288.5	61.95
288.715	72.19
288.93	6.66
289.145	12.8
289.36	49.66
289.575	14.85
289.79	66.05
290.004	12.8
290.219	88.57
290.434	16.9
290.649	0.51
290.864	113.15
291.079	53.76
291.294	35.33
291.509	-36.35
291.724	80.38
291.938	86.53
292.153	74.24
292.368	59.9
292.583	27.14
292.798	76.29
293.012	98.81
293.227	-1.54
293.442	23.04
293.657	47.62
293.871	96.77
294.086	80.38
294.301	64
294.516	-7.68
294.73	29.18
294.945	59.9
295.16	-7.68
295.374	37.38
295.589	66.05
295.804	12.8
296.018	127.49
296.233	111.1
296.447	25.09
296.662	-9.73
296.877	102.91
297.091	117.25
297.306	45.57
297.52	2.56
297.735	-19.97
297.949	33.28
298.164	86.53
298.378	49.66
298.593	-48.64
298.807	-67.07
299.022	37.38
299.236	45.57
299.451	31.23
299.665	-11.78
299.88	18.94
300.094	-3.58
300.309	2.56
300.523	55.81
300.737	78.33
300.952	61.95
301.166	64
301.381	16.9
301.595	8.7
301.809	74.24
302.024	2.56
302.238	96.77
302.452	14.85
302.667	74.24
302.881	84.48
303.095	131.58
303.309	-3.58
303.524	33.28
303.738	23.04
303.952	35.33
304.166	76.29
304.381	-44.54
304.595	53.76
304.809	10.75
305.023	37.38
305.237	47.62
305.452	12.8
305.666	66.05
305.88	121.34
306.094	152.06
306.308	8.7
306.522	113.15
306.736	29.18
306.95	53.76
307.164	76.29
307.379	39.42
307.593	100.86
307.807	43.52
308.021	27.14
308.235	-9.73
308.449	-44.54
308.663	18.94
308.877	115.2
309.091	129.53
309.305	20.99
309.519	-46.59
309.733	80.38
309.947	27.14
310.161	64
310.374	59.9
310.588	92.67
310.802	16.9
311.016	84.48
311.23	64
311.444	49.66
311.658	86.53
311.872	72.19
312.085	64
312.299	90.62
312.513	115.2
312.727	74.24
312.941	14.85
313.154	166.4
313.368	61.95
313.582	14.85
313.796	72.19
314.009	119.29
314.223	107.01
314.437	31.23
314.651	31.23
314.864	-26.11
315.078	57.86
315.292	35.33
315.505	33.28
315.719	16.9
315.933	47.62
316.146	53.76
316.36	96.77
316.573	25.09
316.787	53.76
317.001	41.47
317.214	-3.58
317.428	33.28
317.641	70.14
317.855	45.57
318.068	0.51
318.282	88.57
318.495	66.05
318.709	88.57
318.922	45.57
319.136	33.28
319.349	107.01
319.563	25.09
319.776	64
319.99	131.58
320.203	92.67
320.417	-11.78
320.63	-22.02
320.843	35.33
321.057	35.33
321.27	0.51
321.483	20.99
321.697	115.2
321.91	39.42
322.124	41.47
322.337	53.76
322.55	43.52
322.763	20.99
322.977	43.52
323.19	-24.06
323.403	-5.63
323.617	-5.63
323.83	66.05
324.043	20.99
324.256	20.99
324.469	2.56
324.683	41.47
324.896	86.53
325.109	104.96
325.322	64
325.535	84.48
325.748	41.47
325.962	64
326.175	64
326.388	115.2
326.601	41.47
326.814	-28.16
327.027	37.38
327.24	72.19
327.453	61.95
327.666	82.43
327.879	86.53
328.092	102.91
328.305	100.86
328.518	53.76
328.731	6.66
328.944	39.42
329.157	84.48
329.37	41.47
329.583	53.76
329.796	-1.54
330.009	-1.54
330.222	61.95
330.435	31.23
330.648	47.62
330.861	109.05
331.073	61.95
331.286	51.71
331.499	20.99
331.712	-17.92
331.925	74.24
332.138	41.47
332.35	139.77
332.563	59.9
332.776	90.62
332.989	10.75
333.202	25.09
333.414	31.23
333.627	61.95
333.84	41.47
334.053	111.1
334.265	18.94
334.478	16.9
334.691	41.47
334.903	23.04
335.116	78.33
335.329	14.85
335.541	53.76
335.754	68.09
335.966	20.99
336.179	35.33
336.392	111.1
336.604	111.1
336.817	51.71
337.029	72.19
337.242	88.57
337.454	86.53
337.667	90.62
337.88	59.9
338.092	10.75
338.305	31.23
338.517	12.8
338.729	23.04
338.942	80.38
339.154	80.38
339.367	64
339.579	111.1
339.792	-34.3
340.004	111.1
340.217	68.09
340.429	64
340.641	33.28
340.854	-9.73
341.066	72.19
341.278	147.97
341.491	119.29
341.703	41.47
341.915	0.51
342.128	25.09
342.34	80.38
342.552	80.38
342.764	-9.73
342.977	80.38
343.189	49.66
343.401	121.34
343.613	-13.82
343.826	68.09
344.038	119.29
344.25	125.44
344.462	92.67
344.674	20.99
344.886	117.25
345.099	43.52
345.311	104.96
345.523	109.05
345.735	45.57
345.947	10.75
346.159	61.95
346.371	109.05
346.583	41.47
346.795	86.53
347.007	86.53
347.219	59.9
347.431	-11.78
347.643	90.62
347.855	14.85
348.067	104.96
348.279	-9.73
348.491	66.05
348.703	80.38
348.915	20.99
349.127	4.61
349.339	59.9
349.551	20.99
349.763	25.09
349.975	41.47
350.187	92.67
350.399	64
350.61	53.76
350.822	107.01
351.034	47.62
351.246	49.66
351.458	-1.54
351.669	113.15
351.881	14.85
352.093	111.1
352.305	76.29
352.517	84.48
352.728	119.29
352.94	49.66
353.152	121.34
353.363	61.95
353.575	90.62
353.787	78.33
353.999	96.77
354.21	104.96
354.422	-15.87
354.633	72.19
354.845	23.04
355.057	57.86
355.268	14.85
355.48	43.52
355.692	-42.5
355.903	27.14
356.115	49.66
356.326	10.75
356.538	131.58
356.749	90.62
356.961	129.53
357.172	35.33
357.384	16.9
357.595	137.73
357.807	61.95
358.018	47.62
358.23	29.18
358.441	107.01
358.653	37.38
358.864	45.57
359.075	78.33
359.287	66.05
359.498	49.66
359.709	121.34
359.921	10.75
360.132	100.86
360.344	51.71
360.555	53.76
360.766	127.49
360.977	29.18
361.189	125.44
361.4	-19.97
361.611	92.67
361.823	176.64
362.034	88.57
362.245	-9.73
362.456	10.75
362.667	86.53
362.879	86.53
363.09	104.96
363.301	70.14
363.512	-1.54
363.723	193.02
363.935	74.24
364.146	53.76
364.357	35.33
364.568	61.95
364.779	16.9
364.99	84.48
365.201	35.33
365.412	51.71
365.623	-7.68
365.834	111.1
366.045	98.81
366.256	104.96
366.467	25.09
366.678	2.56
366.889	57.86
367.1	72.19
367.311	123.39
367.522	121.34
367.733	47.62
367.944	117.25
368.155	121.34
368.366	49.66
368.577	98.81
368.788	61.95
368.999	16.9
369.209	100.86
369.42	150.01
369.631	145.92
369.842	94.72
370.053	0.51
370.264	76.29
370.474	-3.58
370.685	45.57
370.896	88.57
371.107	74.24
371.317	49.66
371.528	12.8
371.739	-13.82
371.95	86.53
372.16	23.04
372.371	-13.82
372.582	45.57
372.792	45.57
373.003	131.58
373.214	53.76
373.424	170.49
373.635	31.23
373.846	82.43
374.056	170.49
374.267	68.09
374.477	53.76
374.688	64
374.898	8.7
375.109	18.94
375.319	102.91
375.53	53.76
375.74	53.76
375.951	100.86
376.161	43.52
376.372	139.77
376.582	55.81
376.793	76.29
377.003	43.52
377.214	45.57
377.424	70.14
377.635	41.47
377.845	37.38
378.055	47.62
378.266	47.62
378.476	49.66
378.686	53.76
378.897	90.62
379.107	113.15
379.317	55.81
379.528	74.24
379.738	55.81
379.948	121.34
380.158	119.29
380.369	-58.88
380.579	80.38
380.789	111.1
380.999	90.62
381.21	96.77
381.42	197.12
381.63	10.75
381.84	123.39
382.05	61.95
382.261	80.38
382.471	49.66
382.681	125.44
382.891	84.48
383.101	57.86
383.311	37.38
383.521	59.9
383.731	147.97
383.941	45.57
384.151	111.1
384.361	90.62
384.571	82.43
384.781	37.38
384.991	2.56
385.201	113.15
385.411	115.2
385.621	152.06
385.831	123.39
386.041	18.94
386.251	41.47
386.461	117.25
386.671	61.95
386.881	78.33
387.091	84.48
387.301	115.2
387.511	-38.4
387.72	115.2
387.93	102.91
388.14	51.71
388.35	51.71
388.56	123.39
388.769	61.95
388.979	86.53
389.189	41.47
389.399	135.68
389.609	119.29
389.818	88.57
390.028	86.53
390.238	74.24
390.447	109.05
390.657	119.29
390.867	33.28
391.076	64
391.286	113.15
391.496	92.67
391.705	86.53
391.915	139.77
392.125	143.87
392.334	80.38
392.544	100.86
392.753	154.11
392.963	123.39
393.172	88.57
393.382	96.77
393.591	139.77
393.801	127.49
394.01	98.81
394.22	78.33
394.429	96.77
394.639	102.91
394.848	88.57
395.058	115.2
395.267	102.91
395.477	104.96
395.686	57.86
395.895	104.96
396.105	133.63
396.314	129.53
396.524	127.49
396.733	119.29
396.942	170.49
397.152	125.44
397.361	115.2
397.57	86.53
397.78	109.05
397.989	150.01
398.198	186.88
398.407	164.35
398.617	209.4
398.826	135.68
399.035	59.9
399.244	170.49
399.453	113.15
399.663	72.19
399.872	186.88
400.081	92.67
400.29	147.97
400.499	172.54
400.708	217.6
400.917	123.39
401.127	45.57
401.336	115.2
401.545	147.97
401.754	215.55
401.963	209.4
402.172	135.68
402.381	115.2
402.59	113.15
402.799	172.54
403.008	188.93
403.217	139.77
403.426	174.59
403.635	113.15
403.844	199.16
404.053	199.16
404.262	180.73
404.471	145.92
404.68	248.32
404.888	166.4
405.097	266.75
405.306	231.93
405.515	242.17
405.724	201.21
405.933	145.92
406.142	201.21
406.35	242.17
406.559	219.64
406.768	201.21
406.977	256.51
407.185	244.22
407.394	315.9
407.603	266.75
407.812	322.04
408.02	309.76
408.229	326.14
408.438	336.38
408.646	385.53
408.855	340.47
409.064	354.81
409.272	317.95
409.481	346.62
409.69	340.47
409.898	332.28
410.107	385.53
410.315	385.53
410.524	393.72
410.733	438.78
410.941	473.59
411.15	475.64
411.358	465.4
411.567	504.31
411.775	559.61
411.984	522.74
412.192	502.26
412.401	594.42
412.609	512.5
412.818	690.68
413.026	647.67
413.234	678.39
413.443	707.06
413.651	600.57
413.86	795.12
414.068	805.36
414.276	829.94
414.485	719.35
414.693	852.47
414.901	834.04
415.11	838.13
415.318	760.31
415.526	958.96
415.734	924.15
415.943	1001.97
416.151	1057.26
416.359	1036.78
416.567	1036.78
416.776	1128.94
416.984	1184.24
417.192	1296.88
417.4	1227.25
417.608	1153.52
417.817	1229.29
418.025	1405.42
418.233	1550.82
418.441	1434.09
418.649	1513.96
418.857	1546.73
419.065	1597.93
419.273	1704.42
419.481	1718.76
419.689	1817.06
419.897	1825.25
420.105	1913.31
420.313	1948.13
420.521	2025.95
420.729	2019.81
420.937	2060.77
421.145	2232.8
421.353	2408.92
421.561	2390.49
421.769	2453.98
421.977	2554.33
422.185	2453.98
422.393	2863.57
422.601	2818.52
422.809	2828.76
423.017	2720.21
423.224	2972.11
423.432	3156.43
423.64	3150.29
423.848	3451.34
424.056	3314.13
424.263	3475.91
424.471	3598.79
424.679	3723.72
424.887	3901.89
425.094	3963.33
425.302	3971.52
425.51	4182.46
425.718	4202.94
425.925	4200.9
426.133	4401.6
426.341	4719.03
426.548	4880.82
426.756	5011.89
426.964	5042.61
427.171	5147.06
427.379	5482.92
427.586	5638.57
427.794	5568.94
428.001	5896.61
428.209	6275.49
428.417	6066.6
428.624	6488.48
428.832	6672.79
429.039	6521.24
429.247	6558.11
429.454	7035.28
429.662	7707.02
429.869	7111.06
430.076	7549.32
430.284	7590.28
430.491	7825.8
430.699	8188.29
430.906	8155.52
431.114	8178.05
431.321	8612.22
431.528	8731
431.736	9331.06
431.943	9628.01
432.15	9462.13
432.358	9515.37
432.565	10101.09
432.772	9879.91
432.979	10420.58
433.187	10920.28
433.394	10746.2
433.601	11651.41
433.808	11647.31
434.016	11462.99
434.223	11938.12
434.43	12603.71
434.637	12355.91
434.844	13445.43
435.052	13619.5
435.259	13496.63
435.466	13930.8
435.673	13388.08
435.88	14440.74
436.087	15089.95
436.294	15077.66
436.501	14606.63
436.708	15055.13
436.915	15663.38
437.122	16232.71
437.329	16257.29
437.537	16546.05
437.743	17326.33
437.95	17006.84
438.157	17633.52
438.364	18106.6
438.571	18274.54
438.778	18399.46
438.985	20353.23
439.192	19316.95
439.399	19851.47
439.606	19531.99
439.813	20836.55
440.02	21942.45
440.227	21719.22
440.433	21199.04
440.64	21354.68
440.847	22026.42
441.054	22343.85
441.261	24082.58
441.467	23500.95
441.674	24109.2
441.881	24602.76
442.088	24864.9
442.294	24897.67
442.501	25329.79
442.708	25819.25
442.914	26656.87
443.121	27824.22
443.328	27205.73
443.534	28713.03
443.741	28137.55
443.948	27779.16
444.154	29691.96
444.361	29718.59
444.568	29882.42
444.774	29900.86
444.981	30259.25
445.187	30924.84
445.394	32135.19
445.6	32213.01
445.807	34781.17
446.013	33409.03
446.22	34547.7
446.426	35262.44
446.633	35923.93
446.839	36995.02
447.046	35540.96
447.252	37470.15
447.459	37754.82
447.665	37234.63
447.871	38965.17
448.078	40834.96
448.284	38940.59
448.491	39684
448.697	41148.3
448.903	42028.93
449.11	42473.34
449.316	41404.3
449.522	42420.09
449.728	43609.96
449.935	43429.74
450.141	43693.93
450.347	44900.18
450.553	43075.44
450.76	43775.84
450.966	45305.68
451.172	45014.87
451.378	45821.76
451.584	45039.44
451.791	45932.36
451.997	45969.22
452.203	46755.64
452.409	46841.65
452.615	46944.05
452.821	44709.72
453.027	44187.49
453.233	46688.06
453.44	45182.8
453.646	45702.98
453.852	45778.76
454.058	46741.3
454.264	45270.86
454.47	46061.38
454.676	45021.01
454.882	46051.14
455.088	42590.07
455.294	43014
455.5	44062.56
455.705	44476.25
455.911	42282.87
456.117	41742.21
456.323	40996.75
456.529	39450.53
456.735	40699.79
456.941	39722.91
457.147	39112.62
457.352	38301.62
457.558	37482.44
457.764	37306.31
457.97	36935.63
458.176	35993.56
458.381	36102.11
458.587	34746.35
458.793	34224.12
458.999	32487.44
459.204	35153.9
459.41	33849.34
459.616	31623.2
459.821	31692.83
460.027	31375.39
460.233	31004.71
460.438	29407.3
460.644	29816.89
460.85	28244.05
461.055	28098.64
461.261	28061.78
461.466	26022
461.672	25069.7
461.878	26818.66
462.083	25081.99
462.289	24957.06
462.494	24240.27
462.7	23126.18
462.905	23091.36
463.111	23591.06
463.316	23421.08
463.522	23218.33
463.727	23380.12
463.932	22689.96
464.138	22788.26
464.343	22950.05
464.549	22038.7
464.754	22933.67
464.959	22567.08
465.165	22911.14
465.37	21958.83
465.575	21326.01
465.781	21698.74
465.986	22382.76
466.191	21196.99
466.397	20658.37
466.602	19943.63
466.807	20598.98
467.012	20824.26
467.218	20422.86
467.423	20308.17
467.628	20375.75
467.833	21350.59
468.038	20367.56
468.244	19921.1
468.449	20775.11
468.654	20025.55
468.859	19804.37
469.064	19849.43
469.269	18677.99
469.474	19347.67
469.679	19525.85
469.885	19005.66
470.09	19296.47
470.295	19017.95
470.5	18544.87
470.705	18682.08
470.91	18206.95
471.115	18122.99
471.32	18366.7
471.525	18192.62
471.73	17928.43
471.935	17500.4
472.139	17101.05
472.344	17492.21
472.549	17156.35
472.754	17053.95
472.959	16724.22
473.164	16210.18
473.369	16255.24
473.574	16883.97
473.778	16634.11
473.983	16208.14
474.188	16627.97
474.393	15737.1
474.598	15819.02
474.802	15462.68
475.007	15345.94
475.212	15540.5
475.417	15196.44
475.621	14905.63
475.826	15014.17
476.031	14913.82
476.235	14432.55
476.44	14647.58
476.645	14340.39
476.849	14287.14
477.054	14321.96
477.259	14057.77
477.463	13949.23
477.668	13650.22
477.872	13844.78
478.077	13504.82
478.282	13295.93
478.486	12919.1
478.691	13201.72
478.895	12953.91
479.1	12941.63
479.304	12802.36
479.509	12474.69
479.713	12683.58
479.918	12538.18
480.122	12222.79
480.326	12384.58
480.531	12337.48
480.735	12216.65
480.94	12233.03
481.144	12781.88
481.348	12075.34
481.553	12083.53
481.757	11868.49
481.961	12058.95
482.166	12286.28
482.37	12263.75
482.574	11780.43
482.778	12054.86
482.983	12230.98
483.187	12104.01
483.391	11923.79
483.595	11821.39
483.8	11850.06
484.004	11981.13
484.208	12042.57
484.412	11874.63
484.616	11966.79
484.821	11833.68
485.025	11829.58
485.229	12075.34
485.433	11882.83
485.637	11972.94
485.841	11819.34
486.045	11794.76
486.249	12063.05
486.453	12147.01
486.657	11940.17
486.861	11770.19
487.065	11663.69
487.269	11725.13
487.473	11518.29
487.677	12089.67
487.881	11809.1
488.085	11837.77
488.289	11999.56
488.493	11901.26
488.697	12052.81
488.901	12048.71
489.105	11972.94
489.309	12054.86
489.512	12097.86
489.716	12001.61
489.92	12024.14
490.124	11835.72
490.328	12312.9
490.531	12116.3
490.735	12337.48
490.939	12081.48
491.143	12136.77
491.346	12220.74
491.55	12319.04
491.754	12519.74
491.958	12226.89
492.161	12390.72
492.365	12650.81
492.569	12609.86
492.772	12458.31
492.976	12726.59
493.18	12872
493.383	12761.41
493.587	13001.02
493.79	12921.15
493.994	12765.5
494.197	13041.98
494.401	13062.46
494.605	13199.67
494.808	13132.09
495.012	13453.62
495.215	13392.18
495.419	13564.21
495.622	13513.01
495.825	13652.27
496.029	13623.6
496.232	14170.41
496.436	13953.32
496.639	14176.55
496.843	14188.84
497.046	14602.53
497.249	14491.94
497.453	14684.45
497.656	14805.28
497.859	14571.81
498.063	15227.16
498.266	15532.31
498.469	15304.98
498.673	15321.37
498.876	15626.51
499.079	15728.91
499.282	15755.54
499.485	16210.18
499.689	16017.68
499.892	16591.11
500.095	16650.5
500.298	16769.28
500.501	16724.22
500.705	17178.87
500.908	17119.48
501.111	17578.23
501.314	17406.2
501.517	18008.3
501.72	17875.18
501.923	17879.28
502.126	18409.7
502.329	18981.09
502.532	18800.87
502.735	18993.37
502.938	19247.32
503.141	19259.61
503.344	19501.27
503.547	19734.74
503.75	19933.39
503.953	20041.93
504.156	20304.07
504.359	20826.31
504.562	20734.15
504.765	21156.03
504.968	21270.72
505.17	21235.9
505.373	21397.69
505.576	21776.56
505.779	22210.73
505.982	22511.78
506.185	22896.8
506.387	22657.19
506.59	23120.03
506.793	23054.5
506.996	23400.6
507.198	23976.08
507.401	23720.09
507.604	24027.28
507.807	24256.65
508.009	24596.62
508.212	24803.46
508.415	25178.24
508.617	25507.96
508.82	25208.96
509.022	25733.24
509.225	26159.22
509.428	26187.89
509.63	26284.14
509.833	26517.61
510.035	27009.12
510.238	26843.24
510.44	27547.74
510.643	27646.04
510.845	27856.98
511.048	27740.25
511.25	28295.25
511.453	28403.79
511.655	29249.6
511.858	29179.97
512.06	29513.79
512.262	29435.97
512.465	29659.2
512.667	29861.94
512.87	30224.43
513.072	30703.66
513.274	30980.14
513.477	30945.32
513.679	31197.22
513.881	31508.51
514.084	32370.71
514.286	32053.27
514.488	32251.92
514.69	33267.72
514.893	32960.52
515.095	33132.55
515.297	33249.28
515.499	33687.55
515.701	34070.52
515.904	34433.01
516.106	34420.72
516.308	34596.85
516.51	35117.03
516.712	34916.33
516.914	35520.48
517.116	35954.65
517.318	36134.87
517.52	36583.38
517.722	36712.4
517.925	36720.59
518.127	37109.71
518.329	37322.69
518.531	37332.93
518.733	37959.61
518.935	37912.51
519.136	38188.99
519.338	38713.27
519.54	38727.6
519.742	39444.39
519.944	39296.94
520.146	40284.06
520.348	40495
520.55	40251.29
520.752	40232.86
520.954	40722.32
521.155	40480.66
521.357	41176.97
521.559	41901.95
521.761	42358.65
521.963	41619.33
522.164	42415.99
522.366	42145.66
522.568	42698.61
522.77	42469.24
522.971	43173.74
523.173	42997.62
523.375	43569
523.576	43386.73
523.778	43257.71
523.98	43890.53
524.181	44463.96
524.383	44037.98
524.584	44670.81
524.786	44920.66
524.988	44468.06
525.189	44785.49
525.391	45268.81
525.592	45367.12
525.794	45289.29
525.995	45410.12
526.197	45764.42
526.398	45715.27
526.6	46106.43
526.801	46061.38
527.003	46407.48
527.204	46622.52
527.406	46464.83
527.607	46892.85
527.808	46823.22
528.01	46413.63
528.211	46776.12
528.412	47808.29
528.614	47382.32
528.815	47454
529.016	47656.74
529.218	47318.83
529.419	47568.68
529.62	47519.53
529.822	47306.54
530.023	47236.91
530.224	47896.36
530.425	47580.97
530.626	47474.48
530.828	47349.55
531.029	48242.46
531.23	48346.91
531.431	47814.44
531.632	48277.28
531.833	47918.88
532.035	47978.28
532.236	48133.92
532.437	48183.07
532.638	47832.87
532.839	47978.28
533.04	48547.61
533.241	48133.92
533.442	48801.56
533.643	48400.16
533.844	48111.39
534.045	48242.46
534.246	48353.05
534.447	48410.4
534.648	48062.24
534.849	48701.21
535.05	47929.12
535.251	48396.06
535.451	47859.49
535.652	48508.7
535.853	48437.02
536.054	48457.5
536.255	48551.71
536.456	48002.85
536.657	48860.95
536.857	48224.03
537.058	48072.48
537.259	48789.27
537.46	47916.84
537.66	48170.78
537.861	48434.97
538.062	48109.35
538.263	48183.07
538.463	48318.24
538.664	48078.63
538.865	48346.91
539.065	48328.48
539.266	47902.5
539.466	48527.13
539.667	47617.83
539.868	48334.62
540.068	48523.04
540.269	47785.77
540.469	48574.23
540.67	47841.06
540.87	47933.22
541.071	47988.52
541.271	48234.27
541.472	48346.91
541.672	47879.97
541.873	47548.2
542.073	47464.24
542.274	48418.59
542.474	47910.69
542.675	47576.87
542.875	48215.84
543.075	47855.4
543.276	47441.71
543.476	48463.64
543.676	48019.24
543.877	48060.19
544.077	47998.76
544.277	47652.65
544.478	47517.48
544.678	47998.76
544.878	47724.33
545.078	47791.91
545.279	47644.46
545.479	47003.44
545.679	47263.53
545.879	47333.17
546.079	47630.12
546.28	47486.76
546.48	47310.64
546.68	47634.22
546.88	47681.32
547.08	47490.86
547.28	47476.52
547.48	47200.05
547.68	47200.05
547.88	47306.54
548.081	47427.37
548.281	46974.77
548.481	47179.57
548.681	47691.56
548.881	47421.23
549.081	47400.75
549.28	47218.48
549.48	47322.93
549.68	47484.72
549.88	47488.81
550.08	46667.58
550.28	47302.45
550.48	47306.54
550.68	47456.04
550.88	46798.65
551.08	46880.56
551.279	47382.32
551.479	46860.08
551.679	47003.44
551.879	47322.93
552.079	47054.64
552.278	46901.04
552.478	47177.52
552.678	47150.9
552.878	47333.17
553.077	46792.5
553.277	46587.71
553.477	47482.67
553.676	46425.92
553.876	46821.17
554.076	46606.14
554.275	46681.91
554.475	46421.82
554.674	46444.35
554.874	46552.89
555.074	46352.19
555.273	46651.19
555.473	46690.1
555.672	46387
555.872	46520.12
556.071	46667.58
556.271	46792.5
556.47	46276.41
556.67	45897.54
556.869	46176.06
557.068	46384.96
557.268	46010.18
557.467	45875.01
557.667	46042.95
557.866	46061.38
558.065	45791.05
558.265	45901.64
558.464	45745.99
558.663	46118.72
558.863	45569.86
559.062	46358.33
559.261	45451.08
559.461	46057.28
559.66	45365.07
559.859	45754.18
560.058	45430.6
560.258	45508.43
560.457	45092.69
560.656	45330.25
560.855	45242.19
561.054	45619.02
561.253	45002.58
561.453	45160.27
561.652	45735.75
561.851	45469.51
562.05	44873.56
562.249	44795.73
562.448	45242.19
562.647	45006.67
562.846	45229.9
563.045	44873.56
563.244	44701.53
563.443	45031.25
563.642	44443.48
563.841	44654.42
564.04	43802.47
564.239	44902.23
564.438	43945.83
564.637	44566.36
564.836	44762.96
565.035	44425.05
565.234	44320.6
565.432	43882.34
565.631	43810.66
565.83	44293.98
566.029	44304.22
566.228	44267.36
566.427	43861.86
566.625	43857.76
566.824	43929.44
567.023	43980.64
567.222	43335.53
567.42	44021.6
567.619	43794.28
567.818	43583.33
568.016	43403.11
568.215	43503.46
568.414	43007.86
568.612	43816.8
568.811	43431.79
569.01	43339.63
569.208	42768.24
569.407	42940.27
569.605	42553.21
569.804	43399.02
570.002	42096.51
570.201	42841.97
570.4	42542.97
570.598	42106.75
570.797	41887.62
570.995	42524.54
571.193	41799.55
571.392	41858.95
571.59	41901.95
571.789	42448.76
571.987	41811.84
572.186	41686.92
572.384	41621.38
572.582	41691.01
572.781	42166.14
572.979	41398.15
573.177	41910.14
573.376	41375.62
573.574	41463.69
573.772	41701.25
573.971	41381.77
574.169	41346.95
574.367	40949.65
574.565	41234.31
574.763	41084.81
574.962	41080.72
575.16	40384.41
575.358	41072.53
575.556	40611.73
575.754	40488.85
575.952	40570.77
576.151	40847.25
576.349	40478.61
576.547	39978.91
576.745	40421.27
576.943	40019.87
577.141	40114.08
577.339	39698.34
577.537	39673.76
577.735	39896.99
577.933	39665.57
578.131	39704.48
578.329	39237.55
578.527	39319.46
578.725	39522.21
578.923	39755.68
579.121	38995.88
579.319	38913.97
579.516	39448.49
579.714	39563.17
579.912	39167.91
580.11	38920.11
580.308	38739.89
580.506	38834.1
580.704	38180.79
580.901	38793.14
581.099	38676.4
581.297	38301.62
581.495	38352.82
581.692	38563.76
581.89	38131.64
582.088	38414.26
582.285	38107.07
582.483	37875.65
582.681	37971.9
582.878	37584.83
583.076	37566.4
583.274	38109.11
583.471	37308.36
583.669	37586.88
583.866	37216.2
584.064	37697.47
584.262	36986.83
584.459	37349.32
584.657	37097.42
584.854	37296.07
585.052	36433.88
585.249	37228.49
585.447	36648.91
585.644	36409.3
585.841	36315.09
586.039	36800.46
586.236	36124.63
586.434	36417.49
586.631	36184.02
586.828	36319.19
587.026	36231.13
587.223	36028.38
587.42	35444.71
587.618	35960.8
587.815	35248.1
588.012	35561.44
588.21	35092.46
588.407	35608.54
588.604	35418.08
588.801	35002.35
588.999	35010.54
589.196	34926.57
589.393	34834.41
589.59	34824.17
589.787	34703.34
589.984	34586.61
590.182	34392.05
590.379	34551.79
590.576	34351.09
590.773	34504.69
590.97	34093.05
591.167	34031.61
591.364	33716.22
591.561	33894.39
591.758	33470.47
591.955	33933.31
592.152	33697.79
592.349	33394.69
592.546	33325.06
592.743	33935.35
592.94	32868.36
593.137	33396.74
593.334	33093.64
593.531	32616.46
593.727	33116.17
593.924	32960.52
594.121	32827.4
594.318	32749.58
594.515	32417.81
594.712	32884.75
594.908	32432.15
595.105	32604.17
595.302	31989.78
595.499	32200.72
595.696	32137.24
595.892	31709.21
596.089	32131.09
596.286	31971.35
596.482	31690.78
596.679	31502.37
596.876	31909.91
597.072	31488.03
597.269	31334.43
597.466	30847.02
597.662	31348.77
597.859	30718
598.055	30986.28
598.252	30689.32
598.448	30801.96
598.645	30904.36
598.841	30642.22
599.038	30900.26
599.234	30537.77
599.431	30445.62
599.627	30392.37
599.824	30228.53
600.02	29931.58
600.217	30060.6
600.413	30060.6
600.609	29952.05
600.806	30115.89
601.002	29837.37
601.198	29478.97
601.395	29411.39
601.591	29497.41
601.787	29765.69
601.984	29151.3
602.18	29276.23
602.376	29210.69
602.572	29171.78
602.769	29360.19
602.965	28512.33
603.161	28573.77
603.357	28674.12
603.553	28598.35
603.75	28629.07
603.946	28319.82
604.142	28330.06
604.338	28037.2
604.534	28270.67
604.73	28407.89
604.926	28137.55
605.122	28047.44
605.318	27748.44
605.514	27560.03
605.71	27549.79
605.906	27664.47
606.102	27533.4
606.298	27447.39
606.494	27447.39
606.69	27322.46
606.886	27244.64
607.082	26906.73
607.278	27531.36
607.474	26794.09
607.67	26941.54
607.866	26693.74
608.062	27344.99
608.257	27086.95
608.453	26945.64
608.649	27121.76
608.845	26728.55
609.041	26564.71
609.236	26816.61
609.432	26675.3
609.628	26679.4
609.824	26628.2
610.019	26564.71
610.215	26523.76
610.411	26400.88
610.606	26173.55
610.802	26394.73
610.998	26163.31
611.193	26091.63
611.389	26101.87
611.584	25987.19
611.78	25890.93
611.976	26052.72
612.171	26122.35
612.367	25712.76
612.562	25829.49
612.758	25647.22
612.953	25288.83
613.149	25811.06
613.344	25442.43
613.539	25841.78
613.735	25426.04
613.93	25657.46
614.126	25368.7
614.321	25811.06
614.517	25450.62
614.712	25000.07
614.907	25442.43
615.103	25319.55
615.298	25163.9
615.493	25497.72
615.688	24942.72
615.884	25329.79
616.079	24965.25
616.274	24950.92
616.47	24858.76
616.665	25049.22
616.86	24912
617.055	24699.02
617.25	24428.68
617.445	24852.61
617.641	24391.82
617.836	24465.55
618.031	24338.57
618.226	24469.64
618.421	24348.81
618.616	24703.11
618.811	23986.32
619.006	24359.05
619.201	24010.9
619.396	23873.68
619.591	23572.63
619.786	23699.61
619.981	23654.55
620.176	23724.18
620.371	23437.47
620.566	23462.04
620.761	23378.08
620.956	23724.18
621.151	22929.57
621.346	23023.78
621.541	22698.15
621.735	22913.19
621.93	22767.78
622.125	22692.01
622.32	22509.74
622.515	22352.04
622.709	22364.33
622.904	22194.35
623.099	22022.32
623.294	22007.98
623.488	21768.37
623.683	21883.06
623.878	21602.49
624.072	21612.73
624.267	21555.38
624.462	21293.24
624.656	21029.06
624.851	21012.67
625.046	20824.26
625.24	20838.59
625.435	20580.55
625.629	20879.55
625.824	20543.69
626.018	20355.27
626.213	20115.66
626.407	20347.08
626.602	19929.3
626.796	20101.33
626.991	19806.42
627.185	19669.2
627.38	19806.42
627.574	19503.32
627.768	19519.7
627.963	19376.34
628.157	19134.68
628.352	19290.33
628.546	18972.89
628.74	19169.5
628.935	18786.53
629.129	19114.2
629.323	18573.54
629.517	18450.66
629.712	18753.76
629.906	18399.46
630.1	17975.53
630.294	18307.3
630.489	18030.83
630.683	18360.55
630.877	17635.57
631.071	18014.45
631.265	17692.91
631.459	17502.45
631.653	17514.74
631.848	17688.82
632.042	17244.41
632.236	17357.05
632.43	17197.31
632.624	17047.8
632.818	16845.05
633.012	16662.79
633.206	16734.46
633.4	16795.9
633.594	16357.64
633.788	16670.98
633.982	16556.29
634.176	16396.55
634.369	16337.16
634.563	16316.68
634.757	16240.9
634.951	16351.49
635.145	15952.14
635.339	16185.61
635.533	15763.73
635.726	15966.48
635.92	15507.73
636.114	15708.43
636.308	15622.42
636.501	15595.79
636.695	15302.93
636.889	15530.26
637.083	15085.85
637.276	15354.13
637.47	15032.6
637.664	15028.51
637.857	14979.36
638.051	14881.05
638.244	14676.26
638.438	14643.49
638.632	14674.21
638.825	14504.23
639.019	14483.75
639.212	14260.52
639.406	14491.94
639.599	14237.99
639.793	14178.6
639.986	14000.43
640.18	14149.93
640.373	14037.29
640.567	13740.33
640.76	14029.1
640.954	13674.8
641.147	13562.16
641.34	13633.84
641.534	13556.02
641.727	13629.74
641.92	13472.05
642.114	13412.66
642.307	13246.77
642.5	13228.34
642.694	13097.27
642.887	12960.06
643.08	13125.94
643.273	13001.02
643.467	12624.19
643.66	12673.34
643.853	12917.05
644.046	12552.51
644.239	12673.34
644.432	12523.84
644.626	12249.41
644.819	12456.26
645.012	12061
645.205	12384.58
645.398	12106.06
645.591	12194.12
645.784	12196.17
645.977	11741.52
646.17	11811.15
646.363	12073.29
646.556	11931.98
646.749	11901.26
646.942	11901.26
647.135	11569.49
647.328	11610.45
647.521	11684.17
647.714	11254.1
647.907	11391.31
648.099	11346.26
648.292	11409.75
648.485	11471.18
648.678	11297.11
648.871	11231.57
649.064	11082.07
649.256	11313.49
649.449	10930.52
649.642	10940.76
649.835	10883.42
650.027	10699.1
650.22	10826.07
650.413	10738.01
650.605	10793.31
650.798	10809.69
650.991	10563.93
651.183	10594.65
651.376	10443.1
651.568	10275.17
651.761	10232.16
651.954	10262.88
652.146	10299.75
652.339	10357.09
652.531	10092.9
652.724	9908.58
652.916	9703.79
653.109	9828.71
653.301	10008.94
653.494	9916.78
653.686	9814.38
653.879	9836.91
654.071	9621.87
654.263	9498.99
654.456	9642.35
654.648	9501.04
654.84	9529.71
655.033	9511.28
655.225	9365.87
655.417	9408.88
655.61	9423.22
655.802	9230.71
655.994	9249.14
656.186	9277.81
656.379	9308.53
656.571	9087.35
656.763	9056.63
656.955	8982.9
657.148	8798.59
657.34	9056.63
657.532	8653.18
657.724	8978.81
657.916	8593.79
658.108	8679.8
658.3	8622.46
658.492	8688
658.684	8434.05
658.876	8407.42
659.068	8388.99
659.26	8419.71
659.452	8305.03
659.644	8450.43
659.836	8509.82
660.028	8411.52
660.22	8182.15
660.412	8118.66
660.604	8208.77
660.796	8073.6
660.988	8094.08
661.18	7985.54
661.372	8008.07
661.563	8079.75
661.755	7930.25
661.947	7977.35
662.139	7895.43
662.331	7776.65
662.522	7778.7
662.714	7508.37
662.906	7483.79
663.097	7737.74
663.289	7684.49
663.481	7418.25
663.673	7645.58
663.864	7461.26
664.056	7430.54
664.247	7315.86
664.439	7149.97
664.631	7367.06
664.822	7405.97
665.014	7100.82
665.205	7152.02
665.397	7240.08
665.588	7164.31
665.78	7084.44
665.971	7147.92
666.163	7197.07
666.354	7002.52
666.546	7092.63
666.737	7016.85
666.929	6785.43
667.12	6934.93
667.311	6943.13
667.503	6736.28
667.694	6834.58
667.885	6605.21
668.077	6863.26
668.268	6674.84
668.459	6887.83
668.651	6711.71
668.842	6597.02
669.033	6683.03
669.224	6578.59
669.416	6476.19
669.607	6533.53
669.798	6232.48
669.989	6465.95
670.18	6336.93
670.371	6285.73
670.563	6367.65
670.754	6431.13
670.945	6250.91
671.136	6429.09
671.327	6183.33
671.518	6220.19
671.709	6039.97
671.9	6125.99
672.091	6056.36
672.282	6105.51
672.473	6037.92
672.664	6117.79
672.855	6013.35
673.046	6052.26
673.237	5990.82
673.428	5984.68
673.619	6054.31
673.809	5921.19
674	5743.02
674.191	5984.68
674.382	5894.57
674.573	5869.99
674.764	5681.58
674.954	5759.4
675.145	5777.83
675.336	5738.92
675.527	5642.67
675.717	5738.92
675.908	5683.63
676.099	5759.4
676.289	5405.1
676.48	5685.67
676.671	5540.27
676.861	5562.8
677.052	5677.48
677.243	5499.31
677.433	5419.44
677.624	5515.69
677.814	5388.72
678.005	5515.69
678.195	5386.67
678.386	5433.77
678.576	5509.55
678.767	5413.29
678.957	5405.1
679.148	5497.26
679.338	5448.11
679.529	5403.05
679.719	5325.23
679.909	5433.77
680.1	5407.15
680.29	5247.41
680.481	5298.61
680.671	5208.5
680.861	5224.88
681.052	5169.59
681.242	5046.71
681.432	5196.21
681.622	5079.47
681.813	5202.35
682.003	5161.39
682.193	5050.8
682.383	5097.91
682.573	5188.02
682.764	5024.18
682.954	5009.84
683.144	5069.23
683.334	5028.28
683.524	4940.21
683.714	4975.03
683.904	4964.79
684.094	4956.6
684.284	5011.89
684.474	4948.4
684.664	4927.92
684.854	4958.64
685.044	4893.11
685.234	4823.48
685.424	4790.71
685.614	4825.53
685.804	4854.2
685.994	4874.68
686.184	4759.99
686.374	4702.65
686.564	4682.17
686.753	4678.07
686.943	4727.22
687.133	4712.89
687.323	4624.83
687.513	4651.45
687.702	4540.86
687.892	4704.7
688.082	4479.42
688.272	4616.63
688.461	4460.99
688.651	4553.15
688.841	4583.87
689.03	4444.6
689.22	4518.33
689.41	4497.85
689.599	4487.61
689.789	4379.07
689.979	4356.54
690.168	4282.81
690.358	4221.38
690.547	4372.93
690.737	4356.54
690.926	4440.51
691.116	4250.05
691.305	4305.34
691.495	4231.62
691.684	4186.56
691.874	4098.5
692.063	4219.33
692.252	4063.68
692.442	4055.49
692.631	4004.29
692.82	4121.03
693.01	3779.01
693.199	3936.71
693.388	4012.48
693.578	3897.8
693.767	3922.37
693.956	3875.27
694.146	3856.84
694.335	3836.36
694.524	3803.59
694.713	3799.49
694.902	3717.58
695.092	3748.29
695.281	3815.88
695.47	3752.39
695.659	3776.97
695.848	3662.28
696.037	3660.23
696.226	3709.38
696.415	3652.04
696.604	3621.32
696.793	3609.03
696.982	3633.61
697.171	3576.27
697.36	3570.12
697.549	3559.88
697.738	3512.78
697.927	3363.28
698.116	3373.52
698.305	3348.94
698.494	3424.72
698.683	3355.08
698.872	3543.5
699.061	3285.45
699.25	3369.42
699.438	3312.08
699.627	3353.04
699.816	3434.96
700.005	3191.25
700.193	3367.37
700.382	3402.19
700.571	3172.82
700.76	3391.95
700.948	3398.09
701.137	3353.04
701.326	3299.79
701.514	3230.16
701.703	3350.99
701.892	3199.44
702.08	3150.29
702.269	3357.13
702.457	3224.01
702.646	3238.35
702.834	3121.62
703.023	3217.87
703.212	3074.51
703.4	3084.75
703.589	3092.94
703.777	3187.15
703.965	3107.28
704.154	3068.37
704.342	3127.76
704.531	3121.62
704.719	3181.01
704.907	3162.58
705.096	3080.66
705.284	2992.59
705.472	3066.32
705.661	3021.27
705.849	3103.18
706.037	3127.76
706.226	3045.84
706.414	3086.8
706.602	2947.54
706.79	3060.18
706.979	3043.79
707.167	3101.14
707.355	2877.91
707.543	3094.99
707.731	2925.01
707.919	3062.23
708.107	2972.11
708.296	2839
708.484	3051.99
708.672	2920.92
708.86	2886.1
709.048	2951.63
709.236	2941.4
709.424	3045.84
709.612	2869.72
709.8	2937.3
709.988	2912.72
710.176	2914.77
710.364	3021.27
710.551	2933.2
710.739	2890.2
710.927	2795.99
711.115	2836.95
711.303	2931.16
711.491	2822.61
711.679	2929.11
711.866	2920.92
712.054	2918.87
712.242	2836.95
712.43	2904.53
712.617	2716.12
712.805	2888.15
712.993	2879.96
713.181	2740.69
713.368	2974.16
713.556	2988.5
713.744	2789.85
713.931	2951.63
714.119	2853.33
714.306	2769.37
714.494	2890.2
714.682	2791.89
714.869	2759.13
715.057	2931.16
715.244	2699.73
715.432	2851.28
715.619	2752.98
715.807	2832.85
715.994	2894.29
716.182	2818.52
716.369	2798.04
716.556	2910.68
716.744	2767.32
716.931	2769.37
717.119	2761.17
717.306	2722.26
717.493	2851.28
717.681	2787.8
717.868	2965.97
718.055	2900.44
718.242	2726.36
718.43	2865.62
718.617	2712.02
718.804	2857.43
718.991	2814.42
719.179	2931.16
719.366	2789.85
719.553	2806.23
719.74	2763.22
719.927	2787.8
720.114	2769.37
720.301	2793.94
720.488	2769.37
720.676	2712.02
720.863	2806.23
721.05	2709.97
721.237	2730.45
721.424	2779.61
721.611	2863.57
721.798	2689.49
721.985	2773.46
722.172	2765.27
722.358	2671.06
722.545	2707.93
722.732	2646.49
722.919	2765.27
723.106	2722.26
723.293	2707.93
723.48	2789.85
723.667	2693.59
723.853	2918.87
724.04	2826.71
724.227	2732.5
724.414	2789.85
724.6	2736.6
724.787	2914.77
724.974	2636.25
725.161	2828.76
725.347	2685.4
725.534	2775.51
725.72	2763.22
725.907	2804.18
726.094	2857.43
726.28	2769.37
726.467	2755.03
726.653	2691.54
726.84	2824.66
727.027	2714.07
727.213	2812.37
727.4	2849.24
727.586	2752.98
727.773	2804.18
727.959	2781.65
728.145	2851.28
728.332	2773.46
728.518	2810.33
728.705	2798.04
728.891	2832.85
729.077	2781.65
729.264	2773.46
729.45	2671.06
729.636	2814.42
729.823	2761.17
730.009	2867.67
730.195	2873.81
730.382	2818.52
730.568	2865.62
730.754	2937.3
730.94	2771.41
731.126	2814.42
731.313	2845.14
731.499	2664.92
731.685	2755.03
731.871	2830.8
732.057	2955.73
732.243	2816.47
732.429	2906.58
732.615	2914.77
732.801	2920.92
732.987	2873.81
733.173	2802.13
733.359	2910.68
733.545	2873.81
733.731	2834.9
733.917	2802.13
734.103	2904.53
734.289	3027.41
734.475	2839
734.661	2920.92
734.847	2839
735.033	2765.27
735.219	2935.25
735.404	2951.63
735.59	3119.57
735.776	2994.64
735.962	2976.21
736.148	2976.21
736.333	3025.36
736.519	2888.15
736.705	3027.41
736.89	3051.99
737.076	2875.86
737.262	2933.2
737.447	2988.5
737.633	3002.83
737.819	2904.53
738.004	2845.14
738.19	2941.4
738.375	2853.33
738.561	3068.37
738.747	2929.11
738.932	2841.04
739.118	2984.4
739.303	2963.92
739.489	2947.54
739.674	2894.29
739.859	2972.11
740.045	2828.76
740.23	3076.56
740.416	2748.89
740.601	3017.17
740.786	2939.35
740.972	2859.48
741.157	2859.48
741.342	2798.04
741.528	3076.56
741.713	2994.64
741.898	2912.72
742.084	2888.15
742.269	2970.07
742.454	2875.86
742.639	2922.96
742.824	2925.01
743.01	2828.76
743.195	2906.58
743.38	2906.58
743.565	2824.66
743.75	3004.88
743.935	2857.43
744.12	2910.68
744.305	2900.44
744.49	2963.92
744.675	2822.61
744.86	2763.22
745.045	2816.47
745.23	2798.04
745.415	2755.03
745.6	2900.44
745.785	2816.47
745.97	2773.46
746.155	2730.45
746.34	2798.04
746.525	2759.13
746.71	2824.66
746.895	2744.79
747.079	2736.6
747.264	2851.28
747.449	2640.34
747.634	2730.45
747.819	2845.14
748.003	2628.06
748.188	2658.78
748.373	2593.24
748.557	2652.63
748.742	2875.86
748.927	2558.42
749.111	2601.43
749.296	2679.26
749.481	2689.49
749.665	2650.58
749.85	2527.71
750.034	2453.98
750.219	2609.62
750.404	2503.13
750.588	2523.61
750.773	2453.98
750.957	2595.29
751.141	2410.97
751.326	2460.12
751.51	2419.16
751.695	2496.99
751.879	2468.31
752.064	2470.36
752.248	2378.2
752.432	2441.69
752.617	2359.77
752.801	2363.87
752.985	2382.3
753.17	2415.07
753.354	2329.05
753.538	2417.12
753.722	2232.8
753.907	2382.3
754.091	2247.13
754.275	2306.52
754.459	2277.85
754.643	2118.11
754.828	2200.03
755.012	2236.89
755.196	2259.42
755.38	2052.58
755.564	2216.41
755.748	2122.21
755.932	2159.07
756.116	2077.15
756.3	2240.99
756.484	2101.73
756.668	2150.88
756.852	2032.1
757.036	2091.49
757.22	2050.53
757.404	1991.14
757.588	1921.51
757.772	2019.81
757.956	1960.42
758.14	2099.68
758.323	1962.47
758.507	1999.33
758.691	1907.17
758.875	1976.8
759.059	2081.25
759.242	1960.42
759.426	1845.73
759.61	1974.75
759.794	1890.79
759.977	1995.23
760.161	1896.93
760.345	1954.27
760.528	1786.34
760.712	1917.41
760.895	1927.65
761.079	1804.77
761.263	1821.16
761.446	1821.16
761.63	1788.39
761.813	1858.02
761.997	1794.53
762.18	1761.77
762.364	1843.68
762.547	1815.01
762.731	1751.53
762.914	1774.05
763.098	1835.49
763.281	1698.28
763.464	1546.73
763.648	1704.42
763.831	1683.94
764.015	1673.7
764.198	1606.12
764.381	1704.42
764.564	1755.62
764.748	1688.04
764.931	1733.09
765.114	1636.84
765.297	1724.9
765.481	1655.27
765.664	1700.33
765.847	1561.06
766.03	1776.1
766.213	1677.8
766.397	1794.53
766.58	1589.74
766.763	1694.18
766.946	1489.39
767.129	1579.5
767.312	1602.02
767.495	1651.17
767.678	1640.93
767.861	1593.83
768.044	1698.28
768.227	1534.44
768.41	1626.6
768.593	1569.26
768.776	1571.3
768.959	1606.12
769.142	1442.28
769.324	1532.39
769.507	1491.43
769.69	1571.3
769.873	1378.79
770.056	1468.91
770.239	1569.26
770.421	1499.63
770.604	1532.39
770.787	1423.85
770.97	1448.43
771.152	1493.48
771.335	1524.2
771.518	1468.91
771.7	1456.62
771.883	1473
772.066	1391.08
772.248	1337.84
772.431	1452.52
772.613	1458.67
772.796	1374.7
772.978	1274.35
773.161	1464.81
773.343	1352.17
773.526	1227.25
773.708	1307.12
773.891	1202.67
774.073	1305.07
774.256	1372.65
774.438	1253.87
774.621	1229.29
774.803	1272.3
774.985	1315.31
775.168	1372.65
775.35	1260.01
775.532	1225.2
775.715	1227.25
775.897	1227.25
776.079	1237.49
776.261	1212.91
776.444	1194.48
776.626	1200.62
776.808	1184.24
776.99	1157.61
777.173	1233.39
777.355	1190.38
777.537	1212.91
777.719	1104.37
777.901	1264.11
778.083	1249.77
778.265	1055.22
778.447	1069.55
778.629	1120.75
778.811	1038.83
778.993	979.44
779.175	1040.88
779.357	1059.31
779.539	905.71
779.721	1018.35
779.903	1061.36
780.085	1061.36
780.267	1001.97
780.449	1012.21
780.631	911.86
780.812	1034.74
780.994	979.44
781.176	971.25
781.358	1006.06
781.54	1004.02
781.721	1024.5
781.903	940.53
782.085	954.87
782.267	1010.16
782.448	852.47
782.63	889.33
782.812	915.95
782.993	848.37
783.175	954.87
783.357	854.51
783.538	956.91
783.72	784.88
783.901	860.66
784.083	842.23
784.264	834.04
784.446	782.84
784.627	745.97
784.809	915.95
784.99	750.07
785.172	844.28
785.353	831.99
785.535	756.21
785.716	813.56
785.897	735.73
786.079	809.46
786.26	780.79
786.441	764.4
786.623	733.68
786.804	752.12
786.985	737.78
787.167	776.69
787.348	799.22
787.529	717.3
787.71	768.5
787.891	717.3
788.073	633.33
788.254	719.35
788.435	721.4
788.616	686.58
788.797	690.68
788.978	686.58
789.159	633.33
789.34	623.09
789.522	619
789.703	633.33
789.884	641.53
790.065	649.72
790.246	659.96
790.427	633.33
790.607	678.39
790.788	573.94
790.969	569.85
791.15	635.38
791.331	612.85
791.512	619
791.693	633.33
791.874	530.94
792.054	627.19
792.235	537.08
792.416	606.71
792.597	506.36
792.778	565.75
792.958	651.77
793.139	549.37
793.32	524.79
793.5	543.22
793.681	596.47
793.862	578.04
794.042	492.02
794.223	483.83
794.404	451.07
794.584	541.18
794.765	487.93
794.945	522.74
795.126	485.88
795.306	549.37
795.487	416.25
795.667	481.78
795.848	481.78
796.028	514.55
796.209	475.64
796.389	465.4
796.57	528.89
796.75	489.98
796.93	537.08
797.111	498.17
797.291	500.22
797.471	498.17
797.652	455.16
797.832	451.07
798.012	489.98
798.192	426.49
798.373	489.98
798.553	434.68
798.733	473.59
798.913	391.67
799.093	363
799.274	395.77
799.454	424.44
799.634	449.02
799.814	385.53
799.994	369.15
800.174	410.11
800.354	418.3
800.534	373.24
800.714	492.02
800.894	401.91
801.074	336.38
801.254	410.11
801.434	440.83
801.614	377.34
801.794	350.71
801.974	1139.18
802.154	328.19
802.334	422.39
802.514	295.42
802.693	322.04
802.873	369.15
803.053	373.24
803.233	365.05
803.413	403.96
803.592	291.32
803.772	412.15
803.952	373.24
804.131	322.04
804.311	410.11
804.491	403.96
804.67	379.39
804.85	360.95
805.03	352.76
805.209	403.96
805.389	297.47
805.568	373.24
805.748	252.41
805.928	266.75
806.107	449.02
806.287	297.47
806.466	367.1
806.646	260.6
806.825	348.67
807.004	346.62
807.184	344.57
807.363	342.52
807.543	317.95
807.722	401.91
807.901	348.67
808.081	385.53
808.26	203.26
808.439	346.62
808.619	293.37
808.798	309.76
808.977	309.76
809.156	320
809.336	373.24
809.515	313.85
809.694	266.75
809.873	291.32
810.052	307.71
810.231	315.9
810.411	281.08
810.59	311.8
810.769	283.13
810.948	289.28
811.127	199.16
811.306	285.18
811.485	252.41
811.664	289.28
811.843	305.66
812.022	270.84
812.201	287.23
812.38	289.28
812.559	229.88
812.737	305.66
812.916	293.37
813.095	195.07
813.274	215.55
813.453	301.56
813.632	281.08
813.811	332.28
813.989	240.12
814.168	303.61
814.347	262.65
814.526	215.55
814.704	287.23
814.883	252.41
815.062	170.49
815.24	274.94
815.419	211.45
815.598	287.23
815.776	182.78
815.955	221.69
816.133	207.36
816.312	287.23
816.49	281.08
816.669	211.45
816.847	240.12
817.026	219.64
817.204	186.88
817.383	190.97
817.561	184.83
817.74	279.04
817.918	217.6
818.097	117.25
818.275	129.53
818.453	211.45
818.632	305.66
818.81	227.84
818.988	209.4
819.167	205.31
819.345	223.74
819.523	184.83
819.701	233.98
819.879	291.32
820.058	197.12
820.236	248.32
820.414	244.22
820.592	211.45
820.77	154.11
820.948	203.26
821.127	139.77
821.305	182.78
821.483	233.98
821.661	193.02
821.839	168.45
822.017	188.93
822.195	168.45
822.373	231.93
822.551	240.12
822.729	113.15
822.907	156.16
823.085	188.93
823.262	170.49
823.44	160.25
823.618	223.74
823.796	197.12
823.974	225.79
824.152	92.67
824.329	227.84
824.507	176.64
824.685	131.58
824.863	217.6
825.04	268.8
825.218	141.82
825.396	139.77
825.574	186.88
825.751	160.25
825.929	213.5
826.107	113.15
826.284	98.81
826.462	156.16
826.639	158.21
826.817	139.77
826.994	213.5
827.172	96.77
827.349	199.16
827.527	139.77
827.704	199.16
827.882	156.16
828.059	123.39
828.237	131.58
828.414	227.84
828.591	82.43
828.769	188.93
828.946	76.29
829.124	147.97
829.301	160.25
829.478	125.44
829.655	129.53
829.833	178.69
830.01	102.91
830.187	166.4
830.364	127.49
830.542	68.09
830.719	270.84
830.896	94.72
831.073	102.91
831.25	80.38
831.427	129.53
831.604	76.29
831.782	68.09
831.959	121.34
832.136	125.44
832.313	98.81
832.49	156.16
832.667	74.24
832.844	170.49
833.021	145.92
833.198	199.16
833.374	107.01
833.551	188.93
833.728	152.06
833.905	137.73
834.082	92.67
834.259	127.49
834.436	190.97
834.612	102.91
834.789	102.91
834.966	133.63
835.143	68.09
835.319	96.77
835.496	178.69
835.673	117.25
835.85	154.11
836.026	76.29
836.203	195.07
836.38	182.78
836.556	115.2
836.733	154.11
836.909	188.93
837.086	47.62
837.262	80.38
837.439	59.9
837.616	84.48
837.792	158.21
837.968	82.43
838.145	86.53
838.321	92.67
838.498	109.05
838.674	172.54
838.851	80.38
839.027	109.05
839.203	90.62
839.38	43.52
839.556	74.24
839.732	127.49
839.909	94.72
840.085	133.63
840.261	119.29
840.437	107.01
840.614	111.1
840.79	100.86
840.966	90.62
841.142	70.14
841.318	84.48
841.494	59.9
841.671	68.09
841.847	98.81
842.023	115.2
842.199	170.49
842.375	129.53
842.551	111.1
842.727	68.09
842.903	135.68
843.079	41.47
843.255	160.25
843.431	43.52
843.607	61.95
843.783	68.09
843.959	125.44
844.134	-30.21
844.31	86.53
844.486	64
844.662	45.57
844.838	80.38
845.013	154.11
845.189	90.62
845.365	107.01
845.541	78.33
845.716	78.33
845.892	78.33
846.068	76.29
846.244	94.72
846.419	96.77
846.595	59.9
846.77	47.62
846.946	51.71
847.122	98.81
847.297	41.47
847.473	115.2
847.648	-11.78
847.824	107.01
847.999	20.99
848.175	14.85
848.35	94.72
848.526	135.68
848.701	29.18
848.876	98.81
849.052	117.25
849.227	27.14
849.403	41.47
849.578	121.34
849.753	121.34
849.929	102.91
850.104	35.33
850.279	158.21
850.454	49.66
850.63	162.3
850.805	74.24
850.98	20.99
851.155	-1.54
851.33	76.29
851.505	51.71
851.681	150.01
851.856	174.59
852.031	55.81
852.206	70.14
852.381	78.33
852.556	98.81
852.731	64
852.906	61.95
853.081	141.82
853.256	10.75
853.431	23.04
853.606	104.96
853.781	14.85
853.956	41.47
854.131	121.34
854.305	82.43
854.48	84.48
854.655	43.52
854.83	35.33
855.005	10.75
855.18	96.77
855.354	47.62
855.529	107.01
855.704	55.81
855.879	49.66
856.053	74.24
856.228	74.24
856.403	47.62
856.577	78.33
856.752	27.14
856.926	123.39
857.101	82.43
857.276	45.57
857.45	29.18
857.625	70.14
857.799	27.14
857.974	-3.58
858.148	-22.02
858.323	45.57
858.497	29.18
858.672	53.76
858.846	53.76
859.02	104.96
859.195	-30.21
859.369	6.66
859.543	84.48
859.718	76.29
859.892	-7.68
860.066	61.95
860.241	35.33
860.415	57.86
860.589	47.62
860.763	4.61
860.938	68.09
861.112	107.01
861.286	6.66
861.46	4.61
861.634	64
861.808	84.48
861.982	18.94
862.157	-32.26
862.331	66.05
862.505	35.33
862.679	59.9
862.853	16.9
863.027	12.8
863.201	27.14
863.375	47.62
863.549	2.56
863.722	20.99
863.896	37.38
864.07	-19.97
864.244	43.52
864.418	23.04
864.592	51.71
864.766	47.62
864.939	64
865.113	41.47
865.287	70.14
865.461	33.28
865.634	-7.68
865.808	90.62
865.982	82.43
866.156	4.61
866.329	-83.45
866.503	55.81
866.676	20.99
866.85	53.76
867.024	61.95
867.197	35.33
867.371	117.25
867.544	78.33
867.718	-15.87
867.891	80.38
868.065	-3.58
868.238	10.75
868.412	70.14
868.585	-13.82
868.759	35.33
868.932	-22.02
869.105	4.61
869.279	61.95
869.452	2.56
869.625	39.42
869.799	-1.54
869.972	-15.87
870.145	8.7
870.319	-1.54
870.492	-9.73
870.665	-15.87
870.838	-5.63
871.011	-28.16
871.185	33.28
871.358	-7.68
871.531	51.71
871.704	-19.97
871.877	-48.64
872.05	14.85
872.223	8.7
872.396	78.33
872.569	10.75
872.742	8.7
872.915	39.42
873.088	76.29
873.261	-3.58
873.434	100.86
873.607	53.76
873.78	72.19
873.953	-7.68
874.126	51.71
874.299	82.43
874.471	109.05
874.644	37.38
874.817	74.24
874.99	78.33
875.163	0.51
875.335	35.33
875.508	16.9
875.681	4.61
875.853	-48.64
876.026	12.8
876.199	31.23
876.371	92.67
876.544	66.05
876.717	27.14
876.889	25.09
877.062	84.48
877.234	-36.35
877.407	80.38
877.579	90.62
877.752	-11.78
877.924	25.09
878.097	109.05
878.269	4.61
878.442	61.95
878.614	-19.97
878.786	4.61
878.959	39.42
879.131	37.38
879.303	33.28
879.476	16.9
879.648	18.94
879.82	61.95
879.993	31.23
880.165	-36.35
880.337	-36.35
880.509	64
880.681	14.85
880.854	53.76
881.026	70.14
881.198	74.24
881.37	0.51
881.542	76.29
881.714	45.57
881.886	2.56
882.058	-30.21
882.23	27.14
882.402	59.9
882.574	16.9
882.746	-5.63
882.918	84.48
883.09	76.29
883.262	47.62
883.434	18.94
883.606	4.61
883.778	-15.87
883.95	25.09
884.122	-1.54
884.293	-1.54
884.465	66.05
884.637	-5.63
884.809	-79.36
884.98	41.47
885.152	119.29
885.324	53.76
885.496	16.9
885.667	64
885.839	8.7
886.011	90.62
886.182	16.9
886.354	2.56
886.525	41.47
886.697	20.99
886.869	-1.54
887.04	0.51
887.212	98.81
887.383	53.76
887.555	4.61
887.726	0.51
887.897	31.23
888.069	-24.06
888.24	2.56
888.412	16.9
888.583	-17.92
888.754	27.14
888.926	-28.16
889.097	-15.87
889.268	-42.5
889.44	-36.35
889.611	53.76
889.782	0.51
889.953	-97.79
890.125	53.76
890.296	-11.78
890.467	70.14
890.638	-30.21
890.809	16.9
890.98	20.99
891.151	12.8
891.323	88.57
891.494	10.75
891.665	2.56
891.836	23.04
892.007	-24.06
892.178	100.86
892.349	70.14
892.52	2.56
892.691	-50.69
892.862	20.99
893.032	-56.83
893.203	-71.17
893.374	55.81
893.545	90.62
893.716	4.61
893.887	2.56
894.057	-36.35
894.228	64
894.399	18.94
894.57	55.81
894.74	29.18
894.911	53.76
895.082	-9.73
895.253	27.14
895.423	47.62
895.594	16.9
895.764	47.62
895.935	-24.06
896.106	-17.92
896.276	-28.16
896.447	39.42
896.617	4.61
896.788	33.28
896.958	107.01
897.129	-7.68
897.299	31.23
897.47	49.66
897.64	-5.63
897.81	33.28
897.981	84.48
898.151	-15.87
898.322	6.66
898.492	-56.83
898.662	37.38
898.832	-7.68
899.003	-9.73
899.173	-34.3
899.343	-17.92
899.513	-17.92
