Data from USB4F104151__53__12-41-44-751.txt Node

Date: Fri Mar 14 12:41:44 EDT 2025
User: louis
Spectrometer: USB4F10415
Trigger mode: 4
Integration Time (sec): 3.000000E-2
Scans to average: 1
Electric dark correction enabled: true
Nonlinearity correction enabled: false
Boxcar width: 0
XAxis mode: Wavelengths
Number of Pixels in Spectrum: 3648
>>>>>Begin Spectral Data<<<<<
178.204	-67.07
178.424	-67.07
178.644	-67.07
178.864	-159.23
179.084	-120.32
179.304	0.51
179.524	33.28
179.744	-71.17
179.964	25.09
180.184	-22.02
180.404	29.18
180.624	14.85
180.844	33.28
181.064	-44.54
181.283	39.42
181.503	18.94
181.723	-56.83
181.943	-48.64
182.163	64
182.383	-22.02
182.602	76.29
182.822	39.42
183.042	8.7
183.262	-32.26
183.482	-5.63
183.701	66.05
183.921	-11.78
184.141	-48.64
184.361	8.7
184.58	27.14
184.8	55.81
185.02	20.99
185.239	25.09
185.459	88.57
185.679	88.57
185.898	-30.21
186.118	45.57
186.338	70.14
186.557	-13.82
186.777	-22.02
186.997	-22.02
187.216	53.76
187.436	88.57
187.655	10.75
187.875	49.66
188.095	-15.87
188.314	-7.68
188.534	64
188.753	29.18
188.973	4.61
189.192	80.38
189.412	109.05
189.631	8.7
189.851	27.14
190.07	47.62
190.29	-3.58
190.509	39.42
190.729	18.94
190.948	47.62
191.168	113.15
191.387	18.94
191.607	-9.73
191.826	72.19
192.045	45.57
192.265	80.38
192.484	-46.59
192.704	31.23
192.923	-17.92
193.142	23.04
193.362	53.76
193.581	117.25
193.8	61.95
194.02	-13.82
194.239	-81.41
194.458	6.66
194.678	-32.26
194.897	6.66
195.116	-42.5
195.335	64
195.555	61.95
195.774	10.75
195.993	109.05
196.212	-11.78
196.432	41.47
196.651	14.85
196.87	16.9
197.089	82.43
197.308	78.33
197.528	45.57
197.747	-48.64
197.966	98.81
198.185	53.76
198.404	14.85
198.623	14.85
198.842	86.53
199.062	90.62
199.281	70.14
199.5	135.68
199.719	8.7
199.938	41.47
200.157	53.76
200.376	102.91
200.595	53.76
200.814	117.25
201.033	-79.36
201.252	107.01
201.471	14.85
201.69	109.05
201.909	88.57
202.128	-36.35
202.347	-36.35
202.566	37.38
202.785	-13.82
203.004	-7.68
203.223	78.33
203.442	41.47
203.661	-7.68
203.879	-1.54
204.098	84.48
204.317	-13.82
204.536	70.14
204.755	47.62
204.974	43.52
205.193	-32.26
205.411	98.81
205.63	35.33
205.849	2.56
206.068	4.61
206.287	29.18
206.505	80.38
206.724	-7.68
206.943	-11.78
207.162	66.05
207.381	18.94
207.599	35.33
207.818	-58.88
208.037	4.61
208.255	0.51
208.474	39.42
208.693	43.52
208.911	-30.21
209.13	-48.64
209.349	12.8
209.567	29.18
209.786	82.43
210.005	47.62
210.223	57.86
210.442	-36.35
210.661	55.81
210.879	35.33
211.098	-9.73
211.316	-19.97
211.535	-1.54
211.753	37.38
211.972	-26.11
212.191	-60.93
212.409	0.51
212.628	57.86
212.846	68.09
213.065	14.85
213.283	90.62
213.502	88.57
213.72	-9.73
213.938	53.76
214.157	0.51
214.375	16.9
214.594	41.47
214.812	80.38
215.031	100.86
215.249	25.09
215.467	98.81
215.686	-5.63
215.904	2.56
216.122	-28.16
216.341	-11.78
216.559	23.04
216.778	125.44
216.996	-9.73
217.214	-79.36
217.432	-13.82
217.651	47.62
217.869	-7.68
218.087	109.05
218.306	-5.63
218.524	47.62
218.742	-71.17
218.96	41.47
219.179	59.9
219.397	80.38
219.615	31.23
219.833	18.94
220.051	33.28
220.27	27.14
220.488	-38.4
220.706	27.14
220.924	4.61
221.142	0.51
221.36	57.86
221.578	78.33
221.796	35.33
222.015	43.52
222.233	61.95
222.451	23.04
222.669	-11.78
222.887	29.18
223.105	-13.82
223.323	-62.98
223.541	-1.54
223.759	2.56
223.977	37.38
224.195	45.57
224.413	27.14
224.631	33.28
224.849	-13.82
225.067	119.29
225.285	14.85
225.503	27.14
225.721	-17.92
225.939	-19.97
226.157	-34.3
226.375	113.15
226.592	-85.5
226.81	39.42
227.028	92.67
227.246	154.11
227.464	27.14
227.682	18.94
227.9	-7.68
228.117	35.33
228.335	49.66
228.553	-58.88
228.771	111.1
228.989	76.29
229.206	31.23
229.424	-19.97
229.642	29.18
229.86	-73.21
230.077	66.05
230.295	-22.02
230.513	55.81
230.731	14.85
230.948	76.29
231.166	2.56
231.384	37.38
231.601	23.04
231.819	-7.68
232.037	8.7
232.254	33.28
232.472	25.09
232.689	84.48
232.907	39.42
233.125	84.48
233.342	-17.92
233.56	35.33
233.777	10.75
233.995	94.72
234.213	88.57
234.43	51.71
234.648	-28.16
234.865	18.94
235.083	96.77
235.3	82.43
235.518	10.75
235.735	182.78
235.953	55.81
236.17	31.23
236.388	-15.87
236.605	-17.92
236.822	51.71
237.04	61.95
237.257	-28.16
237.475	39.42
237.692	29.18
237.909	70.14
238.127	66.05
238.344	47.62
238.562	25.09
238.779	27.14
238.996	82.43
239.214	23.04
239.431	102.91
239.648	20.99
239.865	35.33
240.083	25.09
240.3	94.72
240.517	47.62
240.735	20.99
240.952	80.38
241.169	18.94
241.386	72.19
241.603	25.09
241.821	6.66
242.038	86.53
242.255	113.15
242.472	25.09
242.689	68.09
242.907	82.43
243.124	59.9
243.341	39.42
243.558	8.7
243.775	43.52
243.992	-3.58
244.209	-7.68
244.426	86.53
244.643	59.9
244.86	14.85
245.078	43.52
245.295	68.09
245.512	49.66
245.729	-7.68
245.946	16.9
246.163	23.04
246.38	14.85
246.597	96.77
246.814	57.86
247.031	31.23
247.248	-11.78
247.464	66.05
247.681	43.52
247.898	43.52
248.115	25.09
248.332	-91.65
248.549	59.9
248.766	94.72
248.983	72.19
249.2	10.75
249.417	23.04
249.633	-73.21
249.85	-9.73
250.067	14.85
250.284	68.09
250.501	37.38
250.717	33.28
250.934	18.94
251.151	8.7
251.368	16.9
251.585	2.56
251.801	72.19
252.018	23.04
252.235	43.52
252.451	31.23
252.668	-24.06
252.885	86.53
253.102	41.47
253.318	43.52
253.535	43.52
253.752	8.7
253.968	66.05
254.185	8.7
254.401	39.42
254.618	66.05
254.835	-30.21
255.051	61.95
255.268	18.94
255.484	66.05
255.701	27.14
255.917	-1.54
256.134	66.05
256.351	23.04
256.567	64
256.784	10.75
257	-3.58
257.217	94.72
257.433	-38.4
257.65	92.67
257.866	51.71
258.082	-17.92
258.299	-22.02
258.515	-9.73
258.732	16.9
258.948	35.33
259.165	-24.06
259.381	59.9
259.597	-5.63
259.814	70.14
260.03	4.61
260.246	-62.98
260.463	59.9
260.679	80.38
260.895	66.05
261.112	27.14
261.328	-44.54
261.544	59.9
261.761	129.53
261.977	-1.54
262.193	-91.65
262.409	-5.63
262.626	66.05
262.842	64
263.058	8.7
263.274	37.38
263.49	123.39
263.707	59.9
263.923	25.09
264.139	47.62
264.355	94.72
264.571	94.72
264.787	61.95
265.004	94.72
265.22	-7.68
265.436	31.23
265.652	-36.35
265.868	74.24
266.084	14.85
266.3	29.18
266.516	0.51
266.732	53.76
266.948	16.9
267.164	37.38
267.38	78.33
267.596	43.52
267.812	57.86
268.028	23.04
268.244	18.94
268.46	-19.97
268.676	-9.73
268.892	29.18
269.108	-38.4
269.324	-36.35
269.54	27.14
269.756	51.71
269.972	-19.97
270.188	43.52
270.403	0.51
270.619	-24.06
270.835	37.38
271.051	4.61
271.267	18.94
271.483	-28.16
271.698	-52.74
271.914	49.66
272.13	14.85
272.346	64
272.562	137.73
272.777	0.51
272.993	41.47
273.209	-26.11
273.425	39.42
273.64	23.04
273.856	53.76
274.072	-24.06
274.287	-26.11
274.503	31.23
274.719	23.04
274.934	33.28
275.15	-3.58
275.366	31.23
275.581	43.52
275.797	10.75
276.012	33.28
276.228	45.57
276.444	45.57
276.659	41.47
276.875	-40.45
277.09	-50.69
277.306	41.47
277.521	35.33
277.737	-9.73
277.952	135.68
278.168	72.19
278.383	35.33
278.599	-30.21
278.814	16.9
279.03	12.8
279.245	131.58
279.461	53.76
279.676	-17.92
279.892	-30.21
280.107	-15.87
280.322	-22.02
280.538	18.94
280.753	51.71
280.969	-32.26
281.184	-11.78
281.399	35.33
281.615	23.04
281.83	78.33
282.045	10.75
282.26	-22.02
282.476	82.43
282.691	-22.02
282.906	39.42
283.122	82.43
283.337	25.09
283.552	59.9
283.767	57.86
283.983	59.9
284.198	16.9
284.413	49.66
284.628	-32.26
284.843	20.99
285.058	104.96
285.274	-26.11
285.489	-62.98
285.704	61.95
285.919	6.66
286.134	61.95
286.349	57.86
286.564	2.56
286.779	55.81
286.995	78.33
287.21	-52.74
287.425	33.28
287.64	35.33
287.855	14.85
288.07	0.51
288.285	143.87
288.5	39.42
288.715	31.23
288.93	25.09
289.145	88.57
289.36	16.9
289.575	-24.06
289.79	47.62
290.004	12.8
290.219	84.48
290.434	12.8
290.649	-44.54
290.864	49.66
291.079	-28.16
291.294	-32.26
291.509	51.71
291.724	41.47
291.938	-44.54
292.153	39.42
292.368	14.85
292.583	20.99
292.798	31.23
293.012	55.81
293.227	-11.78
293.442	14.85
293.657	23.04
293.871	45.57
294.086	-17.92
294.301	78.33
294.516	10.75
294.73	55.81
294.945	35.33
295.16	45.57
295.374	80.38
295.589	-5.63
295.804	-42.5
296.018	127.49
296.233	-22.02
296.447	117.25
296.662	8.7
296.877	107.01
297.091	10.75
297.306	-22.02
297.52	-13.82
297.735	86.53
297.949	-9.73
298.164	59.9
298.378	59.9
298.593	-9.73
298.807	37.38
299.022	16.9
299.236	45.57
299.451	109.05
299.665	55.81
299.88	121.34
300.094	41.47
300.309	10.75
300.523	33.28
300.737	25.09
300.952	74.24
301.166	74.24
301.381	43.52
301.595	-17.92
301.809	76.29
302.024	25.09
302.238	-1.54
302.452	66.05
302.667	47.62
302.881	100.86
303.095	104.96
303.309	98.81
303.524	39.42
303.738	23.04
303.952	14.85
304.166	64
304.381	-15.87
304.595	57.86
304.809	20.99
305.023	121.34
305.237	14.85
305.452	14.85
305.666	133.63
305.88	55.81
306.094	27.14
306.308	39.42
306.522	82.43
306.736	102.91
306.95	12.8
307.164	-58.88
307.379	-15.87
307.593	20.99
307.807	6.66
308.021	12.8
308.235	59.9
308.449	74.24
308.663	35.33
308.877	51.71
309.091	0.51
309.305	-34.3
309.519	-5.63
309.733	53.76
309.947	33.28
310.161	39.42
310.374	45.57
310.588	78.33
310.802	-67.07
311.016	39.42
311.23	80.38
311.444	8.7
311.658	68.09
311.872	107.01
312.085	-9.73
312.299	82.43
312.513	39.42
312.727	45.57
312.941	25.09
313.154	51.71
313.368	27.14
313.582	-1.54
313.796	102.91
314.009	61.95
314.223	74.24
314.437	14.85
314.651	18.94
314.864	-22.02
315.078	35.33
315.292	-9.73
315.505	-19.97
315.719	45.57
315.933	49.66
316.146	115.2
316.36	47.62
316.573	45.57
316.787	39.42
317.001	72.19
317.214	-58.88
317.428	-22.02
317.641	53.76
317.855	-22.02
318.068	0.51
318.282	41.47
318.495	74.24
318.709	66.05
318.922	14.85
319.136	47.62
319.349	147.97
319.563	-38.4
319.776	45.57
319.99	-13.82
320.203	43.52
320.417	43.52
320.63	27.14
320.843	57.86
321.057	55.81
321.27	33.28
321.483	150.01
321.697	47.62
321.91	88.57
322.124	72.19
322.337	86.53
322.55	14.85
322.763	6.66
322.977	23.04
323.19	-22.02
323.403	70.14
323.617	66.05
323.83	-58.88
324.043	35.33
324.256	0.51
324.469	29.18
324.683	111.1
324.896	41.47
325.109	47.62
325.322	16.9
325.535	41.47
325.748	74.24
325.962	-5.63
326.175	64
326.388	14.85
326.601	64
326.814	4.61
327.027	84.48
327.24	111.1
327.453	-22.02
327.666	88.57
327.879	49.66
328.092	20.99
328.305	2.56
328.518	-34.3
328.731	2.56
328.944	23.04
329.157	49.66
329.37	-48.64
329.583	147.97
329.796	20.99
330.009	12.8
330.222	27.14
330.435	82.43
330.648	43.52
330.861	109.05
331.073	49.66
331.286	70.14
331.499	137.73
331.712	45.57
331.925	53.76
332.138	23.04
332.35	76.29
332.563	-5.63
332.776	53.76
332.989	49.66
333.202	59.9
333.414	45.57
333.627	66.05
333.84	-7.68
334.053	55.81
334.265	6.66
334.478	2.56
334.691	59.9
334.903	-1.54
335.116	64
335.329	6.66
335.541	31.23
335.754	113.15
335.966	27.14
336.179	-32.26
336.392	2.56
336.604	92.67
336.817	70.14
337.029	12.8
337.242	37.38
337.454	12.8
337.667	27.14
337.88	53.76
338.092	74.24
338.305	59.9
338.517	59.9
338.729	-30.21
338.942	51.71
339.154	27.14
339.367	4.61
339.579	64
339.792	-19.97
340.004	66.05
340.217	27.14
340.429	33.28
340.641	10.75
340.854	41.47
341.066	0.51
341.278	39.42
341.491	82.43
341.703	51.71
341.915	53.76
342.128	51.71
342.34	-42.5
342.552	6.66
342.764	70.14
342.977	31.23
343.189	-7.68
343.401	94.72
343.613	-54.78
343.826	33.28
344.038	35.33
344.25	31.23
344.462	0.51
344.674	-36.35
344.886	31.23
345.099	123.39
345.311	29.18
345.523	59.9
345.735	-13.82
345.947	0.51
346.159	96.77
346.371	104.96
346.583	20.99
346.795	92.67
347.007	88.57
347.219	82.43
347.431	92.67
347.643	111.1
347.855	16.9
348.067	43.52
348.279	43.52
348.491	0.51
348.703	47.62
348.915	25.09
349.127	-30.21
349.339	55.81
349.551	8.7
349.763	27.14
349.975	98.81
350.187	45.57
350.399	84.48
350.61	6.66
350.822	-3.58
351.034	57.86
351.246	16.9
351.458	0.51
351.669	43.52
351.881	33.28
352.093	51.71
352.305	33.28
352.517	49.66
352.728	104.96
352.94	76.29
353.152	-19.97
353.363	16.9
353.575	35.33
353.787	76.29
353.999	-30.21
354.21	72.19
354.422	14.85
354.633	55.81
354.845	20.99
355.057	23.04
355.268	66.05
355.48	49.66
355.692	90.62
355.903	47.62
356.115	33.28
356.326	16.9
356.538	80.38
356.749	16.9
356.961	55.81
357.172	14.85
357.384	39.42
357.595	90.62
357.807	47.62
358.018	64
358.23	80.38
358.441	143.87
358.653	6.66
358.864	53.76
359.075	-83.45
359.287	-9.73
359.498	84.48
359.709	-32.26
359.921	-1.54
360.132	47.62
360.344	14.85
360.555	86.53
360.766	-1.54
360.977	86.53
361.189	78.33
361.4	39.42
361.611	104.96
361.823	107.01
362.034	41.47
362.245	33.28
362.456	16.9
362.667	41.47
362.879	84.48
363.09	31.23
363.301	86.53
363.512	96.77
363.723	29.18
363.935	23.04
364.146	35.33
364.357	-38.4
364.568	104.96
364.779	37.38
364.99	53.76
365.201	2.56
365.412	0.51
365.623	-65.02
365.834	18.94
366.045	80.38
366.256	90.62
366.467	55.81
366.678	35.33
366.889	10.75
367.1	90.62
367.311	-1.54
367.522	64
367.733	-17.92
367.944	109.05
368.155	78.33
368.366	49.66
368.577	123.39
368.788	68.09
368.999	47.62
369.209	59.9
369.42	68.09
369.631	123.39
369.842	49.66
370.053	33.28
370.264	125.44
370.474	-9.73
370.685	43.52
370.896	78.33
371.107	64
371.317	104.96
371.528	82.43
371.739	66.05
371.95	55.81
372.16	-11.78
372.371	33.28
372.582	61.95
372.792	-56.83
373.003	115.2
373.214	76.29
373.424	-13.82
373.635	31.23
373.846	49.66
374.056	94.72
374.267	78.33
374.477	39.42
374.688	92.67
374.898	59.9
375.109	78.33
375.319	82.43
375.53	23.04
375.74	66.05
375.951	16.9
376.161	66.05
376.372	68.09
376.582	12.8
376.793	35.33
377.003	14.85
377.214	-24.06
377.424	39.42
377.635	43.52
377.845	-54.78
378.055	78.33
378.266	27.14
378.476	49.66
378.686	90.62
378.897	80.38
379.107	33.28
379.317	109.05
379.528	78.33
379.738	41.47
379.948	-22.02
380.158	74.24
380.369	80.38
380.579	12.8
380.789	-22.02
380.999	64
381.21	100.86
381.42	107.01
381.63	-1.54
381.84	53.76
382.05	70.14
382.261	86.53
382.471	90.62
382.681	82.43
382.891	66.05
383.101	109.05
383.311	-36.35
383.521	55.81
383.731	88.57
383.941	88.57
384.151	25.09
384.361	27.14
384.571	37.38
384.781	125.44
384.991	92.67
385.201	117.25
385.411	102.91
385.621	57.86
385.831	70.14
386.041	78.33
386.251	55.81
386.461	43.52
386.671	100.86
386.881	82.43
387.091	61.95
387.301	72.19
387.511	96.77
387.72	107.01
387.93	76.29
388.14	35.33
388.35	29.18
388.56	35.33
388.769	104.96
388.979	47.62
389.189	70.14
389.399	102.91
389.609	6.66
389.818	109.05
390.028	51.71
390.238	131.58
390.447	98.81
390.657	68.09
390.867	47.62
391.076	86.53
391.286	70.14
391.496	121.34
391.705	98.81
391.915	94.72
392.125	43.52
392.334	66.05
392.544	129.53
392.753	14.85
392.963	100.86
393.172	176.64
393.382	92.67
393.591	125.44
393.801	98.81
394.01	127.49
394.22	129.53
394.429	47.62
394.639	70.14
394.848	96.77
395.058	18.94
395.267	143.87
395.477	33.28
395.686	145.92
395.895	172.54
396.105	127.49
396.314	115.2
396.524	72.19
396.733	127.49
396.942	109.05
397.152	164.35
397.361	145.92
397.57	88.57
397.78	47.62
397.989	82.43
398.198	90.62
398.407	37.38
398.617	88.57
398.826	90.62
399.035	113.15
399.244	166.4
399.453	147.97
399.663	170.49
399.872	147.97
400.081	117.25
400.29	125.44
400.499	68.09
400.708	27.14
400.917	55.81
401.127	133.63
401.336	178.69
401.545	160.25
401.754	174.59
401.963	158.21
402.172	94.72
402.381	82.43
402.59	66.05
402.799	129.53
403.008	109.05
403.217	129.53
403.426	61.95
403.635	131.58
403.844	150.01
404.053	176.64
404.262	76.29
404.471	180.73
404.68	205.31
404.888	143.87
405.097	94.72
405.306	186.88
405.515	143.87
405.724	178.69
405.933	143.87
406.142	225.79
406.35	270.84
406.559	242.17
406.768	203.26
406.977	272.89
407.185	180.73
407.394	180.73
407.603	133.63
407.812	213.5
408.02	248.32
408.229	176.64
408.438	213.5
408.646	221.69
408.855	180.73
409.064	236.03
409.272	326.14
409.481	291.32
409.69	262.65
409.898	244.22
410.107	352.76
410.315	287.23
410.524	326.14
410.733	358.91
410.941	305.66
411.15	326.14
411.358	301.56
411.567	442.87
411.775	416.25
411.984	432.63
412.192	430.59
412.401	416.25
412.609	524.79
412.818	465.4
413.026	483.83
413.234	539.13
413.443	502.26
413.651	547.32
413.86	524.79
414.068	627.19
414.276	653.81
414.485	686.58
414.693	694.77
414.901	643.57
415.11	733.68
415.318	700.92
415.526	729.59
415.734	831.99
415.943	823.8
416.151	858.61
416.359	858.61
416.567	928.24
416.776	872.95
416.984	1010.16
417.192	932.34
417.4	1053.17
417.608	948.72
417.817	1024.5
418.025	1102.32
418.233	1192.43
418.441	1188.33
418.649	1221.1
418.857	1327.6
419.065	1354.22
419.273	1337.84
419.481	1419.75
419.689	1556.97
419.897	1563.11
420.105	1632.74
420.313	1501.67
420.521	1616.36
420.729	1665.51
420.937	1663.46
421.145	1767.91
421.353	1890.79
421.561	1999.33
421.769	2011.62
421.977	2058.72
422.185	2132.45
422.393	2206.17
422.601	2331.1
422.809	2486.75
423.017	2327
423.224	2431.45
423.432	2664.92
423.64	2623.96
423.848	2732.5
424.056	2720.21
424.263	2804.18
424.471	2785.75
424.679	3004.88
424.887	3107.28
425.094	3158.48
425.302	3199.44
425.51	3371.47
425.718	3480.01
425.925	3389.9
426.133	3592.65
426.341	3819.97
426.548	4049.35
426.756	4131.26
426.964	4108.74
427.171	4190.66
427.379	4510.14
427.586	4497.85
427.794	4653.5
428.001	4934.07
428.209	5058.99
428.417	4934.07
428.624	5351.85
428.832	5210.54
429.039	5253.55
429.247	5351.85
429.454	5740.97
429.662	6066.6
429.869	5714.34
430.076	6168.99
430.284	5990.82
430.491	6257.06
430.699	6644.12
430.906	6728.09
431.114	6658.46
431.321	7014.8
431.528	7190.93
431.736	7487.89
431.943	8063.36
432.15	7846.28
432.358	7881.1
432.565	8249.73
432.772	8014.21
432.979	8690.04
433.187	8761.72
433.394	8726.91
433.601	9396.59
433.808	9341.3
434.016	9335.15
434.223	9951.59
434.43	10326.37
434.637	10295.65
434.844	10735.96
435.052	10996.06
435.259	11131.22
435.466	11163.99
435.673	10932.57
435.88	11639.12
436.087	12222.79
436.294	12114.25
436.501	12091.72
436.708	12101.96
436.915	12644.67
437.122	12998.97
437.329	13046.07
437.537	13541.68
437.743	13924.65
437.95	13682.99
438.157	14633.25
438.364	14786.85
438.571	14782.75
438.778	14983.45
438.985	16140.55
439.192	15704.34
439.399	16150.79
439.606	16009.48
439.813	16691.46
440.02	17823.98
440.227	17563.89
440.433	17225.98
440.64	17959.15
440.847	17926.38
441.054	18120.94
441.261	19419.35
441.467	19126.49
441.674	19605.72
441.881	20394.18
442.088	20066.51
442.294	20043.98
442.501	20357.32
442.708	20822.21
442.914	21858.48
443.121	22782.12
443.328	22034.61
443.534	23689.37
443.741	22986.91
443.948	22603.94
444.154	24508.55
444.361	24438.92
444.568	24189.07
444.774	24197.26
444.981	24793.22
445.187	25274.49
445.394	26431.6
445.6	26284.14
445.807	28801.1
446.013	27727.96
446.22	28065.88
446.426	29124.68
446.633	29378.62
446.839	30517.29
447.046	28938.31
447.252	30453.81
447.459	30730.28
447.665	30388.27
447.871	32081.94
448.078	33687.55
448.284	31701.02
448.491	32442.38
448.697	33839.1
448.903	34258.93
449.11	34402.29
449.316	33888.25
449.522	34772.97
449.728	35418.08
449.935	35612.64
450.141	35839.97
450.347	36536.27
450.553	35452.9
450.76	35854.3
450.966	36966.35
451.172	36372.44
451.378	37621.7
451.584	36575.19
451.791	37873.6
451.997	37492.68
452.203	38137.79
452.409	37937.09
452.615	38287.29
452.821	36964.3
453.027	36114.39
453.233	38047.68
453.44	36960.2
453.646	36992.97
453.852	37429.19
454.058	37857.21
454.264	36347.86
454.47	37113.8
454.676	36566.99
454.882	37937.09
455.088	34486.26
455.294	34883.56
455.5	35524.58
455.705	35825.63
455.911	34580.46
456.117	33460.23
456.323	33568.77
456.529	31746.08
456.735	33110.02
456.941	32245.78
457.147	31703.07
457.352	30930.98
457.558	30206
457.764	30357.55
457.97	30095.41
458.176	29356.1
458.381	29120.58
458.587	27918.42
458.793	27895.89
458.999	26304.62
459.204	28213.33
459.41	27418.72
459.616	25675.9
459.821	25759.86
460.027	25679.99
460.233	24856.71
460.438	23715.99
460.644	24172.69
460.85	23132.32
461.055	22767.78
461.261	22841.51
461.466	21184.7
461.672	20441.29
461.878	21555.38
462.083	20185.29
462.289	19738.83
462.494	19634.39
462.7	18950.37
462.905	18499.81
463.111	19132.64
463.316	19237.08
463.522	18352.36
463.727	18499.81
463.932	18731.23
464.138	18344.17
464.343	18741.47
464.549	17983.73
464.754	18315.5
464.959	18231.53
465.165	18217.19
465.37	17604.85
465.575	16945.41
465.781	17910
465.986	17549.56
466.191	17027.32
466.397	16539.91
466.602	15999.24
466.807	16754.94
467.012	16605.44
467.218	16726.27
467.423	16408.84
467.628	16748.8
467.833	17174.78
468.038	16529.67
468.244	15874.32
468.449	16609.54
468.654	16050.44
468.859	16212.23
469.064	15855.89
469.269	15180.06
469.474	15194.39
469.679	15761.68
469.885	15391
470.09	15577.36
470.295	15407.38
470.5	14897.44
470.705	15139.1
470.91	14698.78
471.115	14498.08
471.32	14858.53
471.525	14737.7
471.73	14498.08
471.935	14426.4
472.139	13680.94
472.344	14104.87
472.549	13965.61
472.754	13881.64
472.959	13383.99
473.164	13250.87
473.369	13037.88
473.574	13560.11
473.778	13363.51
473.983	13101.37
474.188	13127.99
474.393	12470.59
474.598	12593.47
474.802	12572.99
475.007	12300.61
475.212	12486.98
475.417	11811.15
475.621	12210.5
475.826	12069.19
476.031	11954.51
476.235	11702.61
476.44	11663.69
476.645	11596.11
476.849	11542.86
477.054	11460.95
477.259	11237.72
477.463	11178.33
477.668	10996.06
477.872	11077.97
478.077	10778.97
478.282	10608.99
478.486	10729.82
478.691	10469.73
478.895	10404.19
479.1	10490.21
479.304	10252.64
479.509	10205.54
479.713	10140.01
479.918	10010.98
480.122	10010.98
480.326	9957.74
480.531	10004.84
480.735	9810.28
480.94	9718.12
481.144	10166.63
481.348	9726.32
481.553	9709.93
481.757	9394.54
481.961	9797.99
482.166	9740.65
482.37	9826.67
482.574	9599.34
482.778	9628.01
482.983	9886.06
483.187	9636.2
483.391	9789.8
483.595	9644.4
483.8	9429.36
484.004	9746.8
484.208	9884.01
484.412	9605.49
484.616	9570.67
484.821	9773.42
485.025	9365.87
485.229	9623.92
485.433	9601.39
485.637	9685.36
485.841	9650.54
486.045	9572.72
486.249	9570.67
486.453	9550.19
486.657	9527.66
486.861	9539.95
487.065	9388.4
487.269	9556.33
487.473	9494.9
487.677	9621.87
487.881	9685.36
488.085	9492.85
488.289	9750.89
488.493	9589.1
488.697	9767.27
488.901	9619.82
489.105	9580.91
489.309	9695.6
489.512	9744.75
489.716	9597.29
489.92	9822.57
490.124	9724.27
490.328	9736.56
490.531	9621.87
490.735	9595.25
490.939	9656.68
491.143	9740.65
491.346	9843.05
491.55	9927.02
491.754	10056.04
491.958	9967.98
492.161	9853.29
492.365	9998.7
492.569	10064.23
492.772	10291.55
492.976	10101.09
493.18	10166.63
493.383	10365.28
493.587	10332.51
493.79	10514.78
493.994	10119.53
494.197	10256.74
494.401	10406.24
494.605	10602.85
494.808	10979.67
495.012	10744.16
495.215	10776.92
495.419	10799.45
495.622	10926.43
495.825	11057.5
496.029	11073.88
496.232	11407.7
496.436	11256.15
496.639	11460.95
496.843	11485.52
497.046	11718.99
497.249	11794.76
497.453	11780.43
497.656	11850.06
497.859	11917.64
498.063	12091.72
498.266	12597.57
498.469	12048.71
498.673	12501.31
498.876	12585.28
499.079	12831.04
499.282	12661.05
499.485	13138.23
499.689	13060.41
499.892	13324.6
500.095	13148.47
500.298	13654.32
500.501	13429.04
500.705	13873.45
500.908	14094.63
501.111	14166.31
501.314	14221.61
501.517	14405.92
501.72	14616.86
501.923	14518.56
502.126	14952.73
502.329	15061.27
502.532	14997.79
502.735	15374.61
502.938	15722.77
503.141	15786.26
503.344	15669.52
503.547	15753.49
503.75	16249.1
503.953	16365.83
504.156	16511.24
504.359	16681.22
504.562	16900.35
504.765	17246.46
504.968	17074.43
505.17	17475.83
505.373	17293.56
505.576	17692.91
505.779	17887.47
505.982	17789.17
506.185	18297.06
506.387	18325.74
506.59	18252.01
506.793	18700.51
506.996	18747.62
507.198	19063.01
507.401	19210.46
507.604	19464.41
507.807	19615.96
508.009	19808.47
508.212	19966.16
508.415	20134.09
508.617	20220.11
508.82	20551.88
509.022	20326.6
509.225	21065.92
509.428	21086.4
509.63	21303.48
509.833	21317.82
510.035	21852.34
510.238	21723.32
510.44	22073.52
510.643	22376.62
510.845	22644.9
511.048	22413.48
511.25	22894.75
511.453	22915.23
511.655	23611.54
511.858	23408.79
512.06	23654.55
512.262	23967.89
512.465	23894.16
512.667	24207.5
512.87	24518.79
513.072	24828.04
513.274	25112.7
513.477	25063.55
513.679	25405.56
513.881	25606.27
514.084	26015.86
514.286	25864.31
514.488	25933.94
514.69	26851.43
514.893	26894.44
515.095	26490.99
515.297	27136.1
515.499	27048.04
515.701	27193.44
515.904	27773.02
516.106	27656.28
516.308	28088.4
516.51	28487.76
516.712	28356.69
516.914	28700.75
517.116	29157.44
517.318	29472.83
517.52	29106.24
517.722	29530.17
517.925	29722.68
518.127	30064.69
518.329	30332.98
518.531	30158.9
518.733	30814.25
518.935	30869.54
519.136	31129.64
519.338	31471.65
519.54	31483.94
519.742	31707.16
519.944	31692.83
520.146	32182.29
520.348	32475.15
520.55	32305.17
520.752	32426
520.954	32944.14
521.155	32536.59
521.357	33208.33
521.559	33554.43
521.761	33726.46
521.963	33947.64
522.164	33914.87
522.366	34144.25
522.568	34607.09
522.77	34371.57
522.971	34865.13
523.173	34801.64
523.375	35239.91
523.576	35129.32
523.778	35297.25
523.98	35540.96
524.181	35530.72
524.383	35788.77
524.584	35962.84
524.786	36147.16
524.988	36315.09
525.189	36384.72
525.391	36800.46
525.592	36859.85
525.794	37187.53
525.995	37042.12
526.197	37005.26
526.398	37095.37
526.6	37222.34
526.801	37451.72
527.003	37439.43
527.204	37447.62
527.406	37765.06
527.607	37846.97
527.808	38309.82
528.01	37658.56
528.211	37787.58
528.412	38733.74
528.614	38156.22
528.815	38391.73
529.016	38592.44
529.218	38000.57
529.419	38653.87
529.62	38459.32
529.822	38657.97
530.023	38633.39
530.224	39067.56
530.425	38150.07
530.626	38119.35
530.828	38786.99
531.029	39053.23
531.23	38688.69
531.431	39004.08
531.632	39212.97
531.833	39227.31
532.035	38600.63
532.236	38922.16
532.437	39593.89
532.638	39196.59
532.839	39016.36
533.04	38846.38
533.241	39262.12
533.442	39397.29
533.643	39110.57
533.844	39395.24
534.045	39077.8
534.246	39014.32
534.447	39618.47
534.648	39255.98
534.849	39536.55
535.05	39126.95
535.251	39303.08
535.451	39002.03
535.652	39532.45
535.853	39241.64
536.054	39010.22
536.255	39393.19
536.456	38752.18
536.657	39700.39
536.857	39034.8
537.058	39034.8
537.259	39638.95
537.46	39339.94
537.66	38995.88
537.861	39393.19
538.062	38959.02
538.263	39397.29
538.463	39208.87
538.664	39235.5
538.865	38956.97
539.065	39200.68
539.266	38907.82
539.466	39294.89
539.667	38442.93
539.868	39491.49
540.068	39133.1
540.269	39045.04
540.469	39391.14
540.67	38922.16
540.87	38887.34
541.071	38393.78
541.271	38801.33
541.472	38942.64
541.672	38635.44
541.873	38455.22
542.073	38236.09
542.274	39430.05
542.474	38979.5
542.675	38653.87
542.875	39018.41
543.075	38803.38
543.276	38027.2
543.476	38985.65
543.676	38815.66
543.877	38684.59
544.077	38676.4
544.277	38649.78
544.478	38602.67
544.678	38897.58
544.878	38731.7
545.078	38786.99
545.279	38715.31
545.479	38361.01
545.679	38365.11
545.879	38598.58
546.079	38649.78
546.28	38344.63
546.48	38236.09
546.68	38627.25
546.88	38447.03
547.08	38598.58
547.28	38301.62
547.48	38145.98
547.68	38516.66
547.88	37978.04
548.081	38447.03
548.281	38164.41
548.481	38256.57
548.681	38592.44
548.881	38438.84
549.081	38391.73
549.28	38010.81
549.48	38383.54
549.68	38029.24
549.88	38735.79
550.08	38229.94
550.28	38404.02
550.48	38250.42
550.68	38295.48
550.88	37869.5
551.08	38262.71
551.279	38272.95
551.479	38000.57
551.679	38098.87
551.879	37953.47
552.079	38410.17
552.278	37533.64
552.478	38096.83
552.678	37787.58
552.878	38033.34
553.077	37648.32
553.277	37492.68
553.477	38326.2
553.676	37961.66
553.876	38188.99
554.076	37889.98
554.275	37642.18
554.475	37404.61
554.674	37855.17
554.874	37988.28
555.074	37595.07
555.273	37623.75
555.473	37734.34
555.672	37871.55
555.872	37498.82
556.071	37326.79
556.271	37984.19
556.47	37427.14
556.67	36956.11
556.869	37347.27
557.068	37210.06
557.268	37248.97
557.467	37298.12
557.667	37625.79
557.866	37355.46
558.065	37396.42
558.265	37128.14
558.464	37054.41
558.663	37027.79
558.863	37040.07
559.062	37396.42
559.261	36468.69
559.461	37466.05
559.66	36347.86
559.859	37195.72
560.058	36517.84
560.258	36538.32
560.457	36409.3
560.656	36999.12
560.855	36450.26
561.054	36538.32
561.253	36579.28
561.453	36804.56
561.652	36362.2
561.851	36800.46
562.05	36442.07
562.249	36280.28
562.448	36806.61
562.647	36362.2
562.846	36210.65
563.045	36186.07
563.244	35876.83
563.443	36118.49
563.642	35276.77
563.841	36040.67
564.04	35868.64
564.239	36276.18
564.438	35571.68
564.637	36059.1
564.836	35960.8
565.035	35413.99
565.234	35985.37
565.432	35411.94
565.631	35332.07
565.83	35659.74
566.029	35467.23
566.228	35080.17
566.427	35663.84
566.625	35026.92
566.824	35338.21
567.023	35614.69
567.222	34865.13
567.42	35287.01
567.619	34922.48
567.818	34963.43
568.016	34973.67
568.215	35321.83
568.414	34566.13
568.612	35399.65
568.811	34752.49
569.01	35047.4
569.208	34086.9
569.407	34928.62
569.605	34465.78
569.804	35012.59
570.002	34080.76
570.201	34576.37
570.4	34236.41
570.598	34246.65
570.797	34129.91
570.995	34293.75
571.193	33810.43
571.392	34314.23
571.59	33912.83
571.789	33970.17
571.987	34058.23
572.186	33622.01
572.384	33804.28
572.582	33798.14
572.781	34027.51
572.979	33486.85
573.177	33607.68
573.376	33695.74
573.574	33038.34
573.772	33701.89
573.971	33157.13
574.169	33167.37
574.367	32823.31
574.565	33470.47
574.763	33177.61
574.962	32927.75
575.16	32682
575.358	32653.33
575.556	32526.35
575.754	32782.35
575.952	32593.93
576.151	32729.1
576.349	32413.71
576.547	32372.75
576.745	32036.89
576.943	32438.29
577.141	32411.67
577.339	32387.09
577.537	32178.2
577.735	32079.89
577.933	32141.33
578.131	31836.19
578.329	31703.07
578.527	31572
578.725	31565.85
578.923	31979.54
579.121	31531.04
579.319	31438.88
579.516	31723.55
579.714	31154.21
579.912	31520.8
580.11	31477.79
580.308	31201.32
580.506	30967.85
580.704	30666.8
580.901	31172.64
581.099	31334.43
581.297	30691.37
581.495	30754.86
581.692	30955.56
581.89	30492.72
582.088	30709.8
582.285	30529.58
582.483	30844.97
582.681	30570.54
582.878	30115.89
583.076	29923.38
583.274	30318.64
583.471	30179.38
583.669	30001.21
583.866	29798.46
584.064	30013.49
584.262	29562.94
584.459	29960.25
584.657	29556.8
584.854	29700.15
585.052	29462.59
585.249	29380.67
585.447	29468.73
585.644	29073.48
585.841	29472.83
586.039	29296.7
586.236	29128.77
586.434	28993.61
586.631	28803.14
586.828	28835.91
587.026	28893.26
587.223	28735.56
587.42	28811.34
587.618	28934.21
587.815	28276.82
588.012	28485.71
588.21	28301.39
588.407	28598.35
588.604	28045.4
588.801	28221.52
588.999	28248.14
589.196	28194.9
589.393	27910.23
589.59	27869.27
589.787	28074.07
589.984	27394.14
590.182	27748.44
590.379	27709.53
590.576	27660.38
590.773	27529.31
590.97	27277.41
591.167	27586.65
591.364	27121.76
591.561	27375.71
591.758	26744.94
591.955	27168.87
592.152	27011.17
592.349	26896.49
592.546	27023.46
592.743	26929.25
592.94	26574.95
593.137	26708.07
593.334	26460.27
593.531	26251.38
593.727	26398.83
593.924	26445.93
594.121	26237.04
594.318	26454.12
594.515	25897.08
594.712	26304.62
594.908	26024.05
595.105	26314.86
595.302	25772.15
595.499	25739.38
595.696	25753.72
595.892	25401.47
596.089	25602.17
596.286	25823.35
596.482	25350.27
596.679	25532.54
596.876	25268.35
597.072	25276.54
597.269	25315.45
597.466	25028.74
597.662	24998.02
597.859	24926.34
598.055	25030.79
598.252	24608.9
598.448	24785.03
598.645	24692.87
598.841	24236.17
599.038	24369.29
599.234	24506.51
599.431	24144.02
599.627	24131.73
599.824	24244.37
600.02	23851.16
600.217	24428.68
600.413	24082.58
600.609	24133.78
600.806	23636.12
601.002	23746.71
601.198	23662.74
601.395	23529.62
601.591	23599.26
601.787	23503
601.984	23687.32
602.18	23668.89
602.376	23380.12
602.572	23261.34
602.769	23165.09
602.965	22913.19
603.161	23109.79
603.357	22898.85
603.553	23085.22
603.75	22712.49
603.946	22546.6
604.142	22958.24
604.338	22433.96
604.534	22720.68
604.73	22562.98
604.926	22157.49
605.122	22536.36
605.318	22223.02
605.514	22151.34
605.71	22384.81
605.906	22218.92
606.102	22163.63
606.298	22315.18
606.494	21956.78
606.69	21786.8
606.886	21897.39
607.082	21809.33
607.278	22061.23
607.474	21698.74
607.67	21868.72
607.866	21313.72
608.062	21835.95
608.257	21516.47
608.453	21586.1
608.649	21797.04
608.845	21463.22
609.041	21147.84
609.236	21455.03
609.432	21156.03
609.628	21254.33
609.824	21076.16
610.019	21067.97
610.215	21219.52
610.411	21145.79
610.606	21027.01
610.802	21106.88
610.998	20723.91
611.193	20955.33
611.389	20838.59
611.584	20854.98
611.78	20867.27
611.976	20924.61
612.171	20678.85
612.367	20549.83
612.562	20824.26
612.758	20418.76
612.953	20404.42
613.149	20838.59
613.344	20506.82
613.539	20961.47
613.735	20529.35
613.93	20232.4
614.126	20302.03
614.321	20453.58
614.517	20209.87
614.712	20289.74
614.907	20254.92
615.103	20453.58
615.298	19982.54
615.493	20695.24
615.688	19992.78
615.884	20394.18
616.079	19738.83
616.274	20072.65
616.47	20021.45
616.665	19957.97
616.86	19886.29
617.055	19896.53
617.25	19722.45
617.445	19814.61
617.641	19634.39
617.836	19757.27
618.031	19603.67
618.226	19880.14
618.421	19124.44
618.616	19448.02
618.811	19208.41
619.006	19273.95
619.201	19198.17
619.396	18909.41
619.591	18931.94
619.786	19044.57
619.981	18649.32
620.176	19146.97
620.371	18348.26
620.566	18776.29
620.761	18811.1
620.956	18612.45
621.151	18266.35
621.346	18526.44
621.541	18325.74
621.735	18284.78
621.93	18084.08
622.125	18069.74
622.32	17563.89
622.515	17846.51
622.709	18030.83
622.904	17801.46
623.099	17658.1
623.294	17512.69
623.488	17416.44
623.683	17369.33
623.878	17084.67
624.072	17234.17
624.267	17066.24
624.462	16974.08
624.656	16976.12
624.851	16935.17
625.046	16666.88
625.24	16787.71
625.435	16496.9
625.629	16570.63
625.824	16193.8
626.018	16283.91
626.213	16136.46
626.407	16107.79
626.602	15968.52
626.796	16249.1
626.991	16089.35
627.185	15675.66
627.38	15507.73
627.574	15716.62
627.768	15657.23
627.963	15335.7
628.157	15343.89
628.352	15210.78
628.546	15438.1
628.74	15304.98
628.935	14932.25
629.129	15085.85
629.323	14547.23
629.517	15139.1
629.712	14657.82
629.906	14848.29
630.1	14510.37
630.294	14534.95
630.489	14244.13
630.683	14571.81
630.877	14311.72
631.071	14051.63
631.265	14342.44
631.459	14068.01
631.653	13936.94
631.848	14113.06
632.042	13875.5
632.236	13801.77
632.43	13635.89
632.624	13535.54
632.818	13492.53
633.012	13433.14
633.206	13361.46
633.4	13470
633.594	13199.67
633.788	13355.32
633.982	13269.3
634.176	13080.89
634.369	13035.83
634.563	12988.73
634.757	12933.43
634.951	12882.24
635.145	12804.41
635.339	12853.56
635.533	12804.41
635.726	12736.83
635.92	12237.13
636.114	12507.46
636.308	12302.66
636.501	12411.2
636.695	12583.23
636.889	12091.72
637.083	12398.91
637.276	12065.1
637.47	12130.63
637.664	11837.77
637.857	12030.28
638.051	11817.29
638.244	11778.38
638.438	11649.36
638.632	11596.11
638.825	11489.62
639.019	11762
639.212	11362.64
639.406	11299.16
639.599	11315.54
639.793	11272.53
639.986	11270.48
640.18	11252.05
640.373	11118.93
640.567	10946.9
640.76	11131.22
640.954	10715.48
641.147	10742.11
641.34	10844.51
641.534	10860.89
641.727	10846.55
641.92	10565.98
642.114	10613.09
642.307	10572.13
642.5	10506.59
642.694	10447.2
642.887	10287.46
643.08	10506.59
643.273	10230.12
643.467	10223.97
643.66	10099.05
643.853	10109.29
644.046	9922.92
644.239	10133.86
644.432	10023.27
644.626	9959.78
644.819	9906.54
645.012	9910.63
645.205	9996.65
645.398	9777.51
645.591	9732.46
645.784	9539.95
645.977	9617.77
646.17	9501.04
646.363	9478.51
646.556	9410.93
646.749	9329.01
646.942	9316.72
647.135	9335.15
647.328	9460.08
647.521	9257.33
647.714	9011.57
647.907	9134.45
648.099	8905.08
648.292	9101.69
648.485	9046.39
648.678	8880.5
648.871	8874.36
649.064	8659.32
649.256	8890.74
649.449	8747.39
649.642	8657.28
649.835	8493.44
650.027	8573.31
650.22	8763.77
650.413	8464.77
650.605	8597.88
650.798	8683.9
650.991	8515.97
651.183	8282.5
651.376	8321.41
651.568	8341.89
651.761	8274.31
651.954	8137.09
652.146	8100.23
652.339	8061.32
652.531	8046.98
652.724	7872.9
652.916	7741.83
653.109	7852.42
653.301	7946.63
653.494	7889.29
653.686	7790.99
653.879	7946.63
654.071	7872.9
654.263	7508.37
654.456	7707.02
654.648	7639.44
654.84	7500.17
655.033	7625.1
655.225	7451.02
655.417	7416.21
655.61	7670.15
655.802	7410.06
655.994	7416.21
656.186	7561.61
656.379	7211.41
656.571	7424.4
656.763	7031.19
656.955	7205.27
657.148	7147.92
657.34	7215.51
657.532	6996.37
657.724	7158.16
657.916	7043.48
658.108	6838.68
658.3	7008.66
658.492	6967.7
658.684	6865.3
658.876	6744.47
659.068	6709.66
659.26	6756.76
659.452	6713.75
659.644	6560.16
659.836	6558.11
660.028	6572.44
660.22	6658.46
660.412	6508.96
660.604	6355.36
660.796	6599.07
660.988	6476.19
661.18	6392.22
661.372	6441.37
661.563	6414.75
661.755	6357.41
661.947	6269.34
662.139	6185.38
662.331	6066.6
662.522	6146.47
662.714	6183.33
662.906	6134.18
663.097	6142.37
663.289	6076.84
663.481	6128.03
663.673	6093.22
663.864	5929.38
664.056	5894.57
664.247	6107.55
664.439	5849.51
664.631	5839.27
664.822	5695.91
665.014	5849.51
665.205	5794.22
665.397	5865.89
665.588	5626.28
665.78	5657
665.971	5671.34
666.163	5646.76
666.354	5738.92
666.546	5671.34
666.737	5460.4
666.929	5558.7
667.12	5548.46
667.311	5527.98
667.503	5464.49
667.694	5403.05
667.885	5489.07
668.077	5407.15
668.268	5360.05
668.459	5327.28
668.651	5288.37
668.842	5339.57
669.033	5429.68
669.224	5247.41
669.416	5347.76
669.607	5216.69
669.798	4995.51
669.989	5151.15
670.18	5011.89
670.371	5020.08
670.563	5013.94
670.754	5118.39
670.945	5063.09
671.136	5048.75
671.327	4997.56
671.518	5110.19
671.709	4962.74
671.9	4936.12
672.091	4854.2
672.282	4952.5
672.473	4993.46
672.664	4792.76
672.855	4784.57
673.046	4944.31
673.237	4712.89
673.428	4809.14
673.619	4770.23
673.809	4841.91
674	4692.41
674.191	4762.04
674.382	4645.31
674.573	4759.99
674.764	4694.46
674.954	4716.98
675.145	4739.51
675.336	4592.06
675.527	4647.35
675.717	4583.87
675.908	4368.83
676.099	4618.68
676.289	4506.04
676.48	4538.81
676.671	4430.27
676.861	4524.47
677.052	4428.22
677.243	4401.6
677.433	4364.73
677.624	4372.93
677.814	4415.93
678.005	4428.22
678.195	4321.73
678.386	4286.91
678.576	4338.11
678.767	4288.96
678.957	4348.35
679.148	4327.87
679.338	4313.53
679.529	4323.77
679.719	4243.9
679.909	4301.25
680.1	4415.93
680.29	4350.4
680.481	4266.43
680.671	4137.41
680.861	4166.08
681.052	4155.84
681.242	4159.94
681.432	4166.08
681.622	4069.83
681.813	4198.85
682.003	4073.92
682.193	4102.59
682.383	4131.26
682.573	4168.13
682.764	3977.67
682.954	4178.37
683.144	4143.55
683.334	4194.75
683.524	4053.44
683.714	3916.23
683.904	3992
684.094	4080.07
684.284	4002.24
684.474	4041.15
684.664	3940.8
684.854	4020.67
685.044	3903.94
685.234	3951.04
685.424	4024.77
685.614	3926.47
685.804	4043.2
685.994	3942.85
686.184	3998.15
686.374	3826.12
686.564	3881.41
686.753	3887.56
686.943	3697.1
687.133	3682.76
687.323	3891.65
687.513	3811.78
687.702	3686.86
687.892	3582.41
688.082	3873.22
688.272	3656.14
688.461	3703.24
688.651	3635.66
688.841	3598.79
689.03	3676.62
689.22	3596.75
689.41	3621.32
689.599	3711.43
689.789	3613.13
689.979	3596.75
690.168	3652.04
690.358	3584.46
690.547	3428.81
690.737	3391.95
690.926	3545.55
691.116	3367.37
691.305	3492.3
691.495	3373.52
691.684	3359.18
691.874	3400.14
692.063	3420.62
692.252	3310.03
692.442	3422.67
692.631	3219.92
692.82	3367.37
693.01	3283.41
693.199	3152.34
693.388	3148.24
693.578	3156.43
693.767	3275.21
693.956	3320.27
694.146	3164.62
694.335	3086.8
694.524	3133.9
694.713	3150.29
694.902	3070.42
695.092	3035.6
695.281	3060.18
695.47	3000.79
695.659	2982.35
695.848	3070.42
696.037	3006.93
696.226	2998.74
696.415	3058.13
696.604	3013.07
696.793	3035.6
696.982	3021.27
697.171	2863.57
697.36	2972.11
697.549	2968.02
697.738	2845.14
697.927	2884.05
698.116	2865.62
698.305	2939.35
698.494	2933.2
698.683	2949.59
698.872	2828.76
699.061	2951.63
699.25	2820.56
699.438	2769.37
699.627	2798.04
699.816	2841.04
700.005	2746.84
700.193	2769.37
700.382	2669.02
700.571	2804.18
700.76	2826.71
700.948	2804.18
701.137	2720.21
701.326	2750.93
701.514	2703.83
701.703	2628.06
701.892	2519.51
702.08	2681.3
702.269	2691.54
702.457	2587.1
702.646	2617.82
702.834	2687.45
703.023	2626.01
703.212	2750.93
703.4	2599.38
703.589	2558.42
703.777	2525.66
703.965	2558.42
704.154	2634.2
704.342	2589.14
704.531	2607.58
704.719	2546.14
704.907	2554.33
705.096	2535.9
705.284	2644.44
705.472	2476.51
705.661	2607.58
705.849	2499.03
706.037	2531.8
706.226	2494.94
706.414	2496.99
706.602	2435.55
706.79	2529.75
706.979	2546.14
707.167	2511.32
707.355	2437.59
707.543	2462.17
707.731	2456.03
707.919	2474.46
708.107	2425.31
708.296	2478.55
708.484	2390.49
708.672	2382.3
708.86	2501.08
709.048	2449.88
709.236	2435.55
709.424	2382.3
709.612	2488.79
709.8	2413.02
709.988	2404.83
710.176	2365.92
710.364	2464.22
710.551	2437.59
710.739	2570.71
710.927	2453.98
711.115	2372.06
711.303	2380.25
711.491	2406.88
711.679	2353.63
711.866	2486.75
712.054	2468.31
712.242	2357.72
712.43	2388.44
712.617	2298.33
712.805	2429.4
712.993	2337.24
713.181	2404.83
713.368	2404.83
713.556	2423.26
713.744	2361.82
713.931	2439.64
714.119	2406.88
714.306	2380.25
714.494	2253.28
714.682	2273.76
714.869	2341.34
715.057	2318.81
715.244	2398.68
715.432	2382.3
715.619	2437.59
715.807	2370.01
715.994	2316.76
716.182	2302.43
716.369	2486.75
716.556	2417.12
716.744	2462.17
716.931	2388.44
717.119	2359.77
717.306	2347.48
717.493	2396.64
717.681	2529.75
717.868	2449.88
718.055	2331.1
718.242	2300.38
718.43	2337.24
718.617	2361.82
718.804	2267.61
718.991	2324.96
719.179	2392.54
719.366	2378.2
719.553	2392.54
719.74	2410.97
719.927	2327
720.114	2408.92
720.301	2372.06
720.488	2253.28
720.676	2318.81
720.863	2386.4
721.05	2421.21
721.237	2435.55
721.424	2390.49
721.611	2300.38
721.798	2363.87
721.985	2269.66
722.172	2402.78
722.358	2327
722.545	2462.17
722.732	2255.33
722.919	2406.88
723.106	2429.4
723.293	2359.77
723.48	2374.11
723.667	2370.01
723.853	2408.92
724.04	2421.21
724.227	2324.96
724.414	2361.82
724.6	2415.07
724.787	2361.82
724.974	2329.05
725.161	2300.38
725.347	2492.89
725.534	2505.18
725.72	2341.34
725.907	2402.78
726.094	2372.06
726.28	2304.48
726.467	2480.6
726.653	2320.86
726.84	2382.3
727.027	2472.41
727.213	2357.72
727.4	2380.25
727.586	2466.27
727.773	2490.84
727.959	2408.92
728.145	2456.03
728.332	2372.06
728.518	2537.95
728.705	2410.97
728.891	2415.07
729.077	2482.65
729.264	2462.17
729.45	2517.47
729.636	2542.04
729.823	2390.49
730.009	2337.24
730.195	2435.55
730.382	2400.73
730.568	2533.85
730.754	2488.79
730.94	2537.95
731.126	2476.51
731.313	2626.01
731.499	2638.3
731.685	2574.81
731.871	2523.61
732.057	2572.76
732.243	2458.07
732.429	2630.1
732.615	2585.05
732.801	2472.41
732.987	2521.56
733.173	2507.23
733.359	2574.81
733.545	2537.95
733.731	2531.8
733.917	2652.63
734.103	2615.77
734.289	2576.86
734.475	2562.52
734.661	2531.8
734.847	2587.1
735.033	2550.23
735.219	2701.78
735.404	2677.21
735.59	2593.24
735.776	2513.37
735.962	2630.1
736.148	2664.92
736.333	2605.53
736.519	2630.1
736.705	2562.52
736.89	2626.01
737.076	2677.21
737.262	2630.1
737.447	2716.12
737.633	2636.25
737.819	2761.17
738.004	2589.14
738.19	2722.26
738.375	2648.54
738.561	2695.64
738.747	2605.53
738.932	2714.07
739.118	2701.78
739.303	2769.37
739.489	2752.98
739.674	2603.48
739.859	2732.5
740.045	2669.02
740.23	2623.96
740.416	2517.47
740.601	2589.14
740.786	2701.78
740.972	2611.67
741.157	2562.52
741.342	2658.78
741.528	2664.92
741.713	2691.54
741.898	2703.83
742.084	2552.28
742.269	2642.39
742.454	2626.01
742.639	2636.25
742.824	2589.14
743.01	2623.96
743.195	2722.26
743.38	2611.67
743.565	2720.21
743.75	2757.08
743.935	2607.58
744.12	2703.83
744.305	2570.71
744.49	2626.01
744.675	2554.33
744.86	2431.45
745.045	2515.42
745.23	2529.75
745.415	2603.48
745.6	2531.8
745.785	2574.81
745.97	2572.76
746.155	2623.96
746.34	2519.51
746.525	2484.7
746.71	2685.4
746.895	2564.57
747.079	2595.29
747.264	2415.07
747.449	2601.43
747.634	2449.88
747.819	2439.64
748.003	2488.79
748.188	2439.64
748.373	2476.51
748.557	2556.38
748.742	2421.21
748.927	2361.82
749.111	2308.57
749.296	2402.78
749.481	2396.64
749.665	2388.44
749.85	2310.62
750.034	2431.45
750.219	2279.9
750.404	2277.85
750.588	2234.85
750.773	2261.47
750.957	2314.72
751.141	2351.58
751.326	2286.05
751.51	2286.05
751.695	2302.43
751.879	2193.89
752.064	2343.39
752.248	2247.13
752.432	2296.28
752.617	2146.78
752.801	2214.37
752.985	2195.93
753.17	2150.88
753.354	2195.93
753.538	2087.39
753.722	2150.88
753.907	2062.82
754.091	2122.21
754.275	2077.15
754.459	2064.86
754.643	1993.19
754.828	1980.9
755.012	2048.48
755.196	2038.24
755.38	2013.67
755.564	1948.13
755.748	2005.47
755.932	1995.23
756.116	1966.56
756.3	1917.41
756.484	1946.08
756.668	1970.66
756.852	1810.92
757.036	1931.75
757.22	1982.95
757.404	1833.44
757.588	1819.11
757.772	1886.69
757.956	1978.85
758.14	1944.03
758.323	1810.92
758.507	1964.51
758.691	1884.64
758.875	1855.97
759.059	1829.35
759.242	1796.58
759.426	1759.72
759.61	1692.13
759.794	1714.66
759.977	1749.48
760.161	1829.35
760.345	1796.58
760.528	1710.57
760.712	1712.61
760.895	1765.86
761.079	1702.37
761.263	1634.79
761.446	1718.76
761.63	1694.18
761.813	1665.51
761.997	1636.84
762.18	1599.98
762.364	1673.7
762.547	1589.74
762.731	1669.61
762.914	1563.11
763.098	1683.94
763.281	1612.26
763.464	1661.41
763.648	1530.34
763.831	1487.34
764.015	1540.58
764.198	1597.93
764.381	1606.12
764.564	1589.74
764.748	1485.29
764.931	1540.58
765.114	1501.67
765.297	1534.44
765.481	1569.26
765.664	1571.3
765.847	1542.63
766.03	1581.54
766.213	1489.39
766.397	1522.15
766.58	1599.98
766.763	1448.43
766.946	1419.75
767.129	1450.47
767.312	1417.71
767.495	1464.81
767.678	1450.47
767.861	1499.63
768.044	1442.28
768.227	1434.09
768.41	1450.47
768.593	1376.75
768.776	1360.36
768.959	1448.43
769.142	1397.23
769.324	1352.17
769.507	1427.95
769.69	1343.98
769.873	1389.03
770.056	1491.43
770.239	1323.5
770.421	1391.08
770.604	1378.79
770.787	1290.73
770.97	1364.46
771.152	1266.16
771.335	1354.22
771.518	1294.83
771.7	1331.69
771.883	1288.68
772.066	1305.07
772.248	1311.21
772.431	1374.7
772.613	1341.93
772.796	1206.77
772.978	1327.6
773.161	1333.74
773.343	1266.16
773.526	1151.47
773.708	1253.87
773.891	1257.96
774.073	1167.85
774.256	1100.27
774.438	1255.92
774.621	1096.18
774.803	1143.28
774.985	1161.71
775.168	1210.86
775.35	1145.33
775.532	1061.36
775.715	1116.65
775.897	1145.33
776.079	1094.13
776.261	1145.33
776.444	1104.37
776.626	1085.94
776.808	1151.47
776.99	1063.41
777.173	1006.06
777.355	1157.61
777.537	1008.11
777.719	1085.94
777.901	1044.98
778.083	1092.08
778.265	1020.4
778.447	1016.3
778.629	1030.64
778.811	956.91
778.993	1026.54
779.175	938.48
779.357	993.78
779.539	907.76
779.721	965.11
779.903	958.96
780.085	940.53
780.267	977.39
780.449	967.15
780.631	991.73
780.812	952.82
780.994	805.36
781.176	795.12
781.358	905.71
781.54	825.84
781.721	879.09
781.903	862.71
782.085	815.6
782.267	866.8
782.448	807.41
782.63	885.23
782.812	858.61
782.993	850.42
783.175	811.51
783.357	707.06
783.538	748.02
783.72	764.4
783.901	815.6
784.083	791.03
784.264	748.02
784.446	750.07
784.627	721.4
784.809	739.83
784.99	748.02
785.172	729.59
785.353	803.32
785.535	694.77
785.716	645.62
785.897	688.63
786.079	616.95
786.26	688.63
786.441	797.17
786.623	635.38
786.804	694.77
786.985	686.58
787.167	688.63
787.348	680.44
787.529	651.77
787.71	700.92
787.891	582.14
788.073	512.5
788.254	623.09
788.435	688.63
788.616	700.92
788.797	657.91
788.978	659.96
789.159	580.09
789.34	682.49
789.522	590.33
789.703	522.74
789.884	561.66
790.065	563.7
790.246	598.52
790.427	563.7
790.607	588.28
790.788	627.19
790.969	625.14
791.15	565.75
791.331	539.13
791.512	551.42
791.693	475.64
791.874	528.89
792.054	543.22
792.235	514.55
792.416	565.75
792.597	438.78
792.778	532.98
792.958	504.31
793.139	459.26
793.32	463.35
793.5	457.21
793.681	528.89
793.862	494.07
794.042	524.79
794.223	440.83
794.404	510.46
794.584	412.15
794.765	494.07
794.945	449.02
795.126	506.36
795.306	524.79
795.487	455.16
795.667	465.4
795.848	551.42
796.028	444.92
796.209	481.78
796.389	397.82
796.57	473.59
796.75	371.19
796.93	442.87
797.111	371.19
797.291	375.29
797.471	387.58
797.652	363
797.832	428.54
798.012	342.52
798.192	338.43
798.373	371.19
798.553	348.67
798.733	360.95
798.913	383.48
799.093	391.67
799.274	430.59
799.454	412.15
799.634	328.19
799.814	381.43
799.994	410.11
800.174	422.39
800.354	375.29
800.534	322.04
800.714	371.19
800.894	363
801.074	315.9
801.254	293.37
801.434	358.91
801.614	233.98
801.794	358.91
801.974	1020.4
802.154	344.57
802.334	395.77
802.514	313.85
802.693	373.24
802.873	352.76
803.053	377.34
803.233	363
803.413	332.28
803.592	303.61
803.772	338.43
803.952	295.42
804.131	315.9
804.311	324.09
804.491	297.47
804.67	317.95
804.85	258.56
805.03	326.14
805.209	322.04
805.389	354.81
805.568	299.52
805.748	324.09
805.928	354.81
806.107	317.95
806.287	276.99
806.466	432.63
806.646	336.38
806.825	268.8
807.004	258.56
807.184	305.66
807.363	311.8
807.543	346.62
807.722	252.41
807.901	268.8
808.081	281.08
808.26	274.94
808.439	291.32
808.619	287.23
808.798	231.93
808.977	283.13
809.156	287.23
809.336	301.56
809.515	281.08
809.694	295.42
809.873	330.23
810.052	293.37
810.231	303.61
810.411	330.23
810.59	256.51
810.769	238.08
810.948	197.12
811.127	213.5
811.306	248.32
811.485	229.88
811.664	340.47
811.843	246.27
812.022	236.03
812.201	229.88
812.38	283.13
812.559	178.69
812.737	254.46
812.916	186.88
813.095	256.51
813.274	180.73
813.453	205.31
813.632	203.26
813.811	293.37
813.989	227.84
814.168	285.18
814.347	139.77
814.526	279.04
814.704	242.17
814.883	252.41
815.062	217.6
815.24	295.42
815.419	219.64
815.598	131.58
815.776	131.58
815.955	190.97
816.133	213.5
816.312	172.54
816.49	272.89
816.669	184.83
816.847	186.88
817.026	162.3
817.204	207.36
817.383	242.17
817.561	201.21
817.74	305.66
817.918	221.69
818.097	98.81
818.275	170.49
818.453	168.45
818.632	80.38
818.81	221.69
818.988	160.25
819.167	170.49
819.345	135.68
819.523	137.73
819.701	180.73
819.879	227.84
820.058	160.25
820.236	223.74
820.414	156.16
820.592	236.03
820.77	182.78
820.948	227.84
821.127	188.93
821.305	190.97
821.483	184.83
821.661	240.12
821.839	119.29
822.017	133.63
822.195	125.44
822.373	207.36
822.551	135.68
822.729	233.98
822.907	113.15
823.085	184.83
823.262	197.12
823.44	72.19
823.618	131.58
823.796	162.3
823.974	123.39
824.152	180.73
824.329	104.96
824.507	107.01
824.685	141.82
824.863	178.69
825.04	176.64
825.218	141.82
825.396	100.86
825.574	104.96
825.751	201.21
825.929	162.3
826.107	119.29
826.284	125.44
826.462	184.83
826.639	123.39
826.817	182.78
826.994	123.39
827.172	162.3
827.349	162.3
827.527	176.64
827.704	162.3
827.882	150.01
828.059	154.11
828.237	119.29
828.414	172.54
828.591	143.87
828.769	76.29
828.946	107.01
829.124	158.21
829.301	184.83
829.478	150.01
829.655	131.58
829.833	131.58
830.01	0.51
830.187	170.49
830.364	61.95
830.542	121.34
830.719	92.67
830.896	164.35
831.073	68.09
831.25	141.82
831.427	133.63
831.604	80.38
831.782	100.86
831.959	113.15
832.136	166.4
832.313	154.11
832.49	80.38
832.667	170.49
832.844	162.3
833.021	70.14
833.198	86.53
833.374	133.63
833.551	127.49
833.728	141.82
833.905	119.29
834.082	86.53
834.259	64
834.436	115.2
834.612	45.57
834.789	102.91
834.966	39.42
835.143	80.38
835.319	139.77
835.496	152.06
835.673	94.72
835.85	129.53
836.026	66.05
836.203	125.44
836.38	109.05
836.556	72.19
836.733	109.05
836.909	178.69
837.086	131.58
837.262	88.57
837.439	27.14
837.616	115.2
837.792	109.05
837.968	-24.06
838.145	102.91
838.321	109.05
838.498	80.38
838.674	33.28
838.851	61.95
839.027	59.9
839.203	84.48
839.38	133.63
839.556	68.09
839.732	80.38
839.909	76.29
840.085	47.62
840.261	70.14
840.437	117.25
840.614	141.82
840.79	61.95
840.966	-5.63
841.142	57.86
841.318	53.76
841.494	111.1
841.671	68.09
841.847	47.62
842.023	47.62
842.199	80.38
842.375	139.77
842.551	-34.3
842.727	-22.02
842.903	111.1
843.079	43.52
843.255	135.68
843.431	115.2
843.607	160.25
843.783	-3.58
843.959	115.2
844.134	76.29
844.31	127.49
844.486	92.67
844.662	84.48
844.838	82.43
845.013	141.82
845.189	88.57
845.365	20.99
845.541	72.19
845.716	57.86
845.892	82.43
846.068	10.75
846.244	121.34
846.419	41.47
846.595	72.19
846.77	94.72
846.946	145.92
847.122	31.23
847.297	84.48
847.473	135.68
847.648	64
847.824	72.19
847.999	23.04
848.175	-24.06
848.35	39.42
848.526	182.78
848.701	39.42
848.876	59.9
849.052	80.38
849.227	88.57
849.403	12.8
849.578	74.24
849.753	76.29
849.929	64
850.104	-9.73
850.279	100.86
850.454	94.72
850.63	92.67
850.805	8.7
850.98	53.76
851.155	0.51
851.33	102.91
851.505	29.18
851.681	111.1
851.856	27.14
852.031	23.04
852.206	35.33
852.381	47.62
852.556	76.29
852.731	61.95
852.906	111.1
853.081	6.66
853.256	53.76
853.431	4.61
853.606	23.04
853.781	31.23
853.956	51.71
854.131	137.73
854.305	33.28
854.48	39.42
854.655	25.09
854.83	29.18
855.005	-15.87
855.18	137.73
855.354	70.14
855.529	133.63
855.704	66.05
855.879	139.77
856.053	80.38
856.228	23.04
856.403	33.28
856.577	23.04
856.752	33.28
856.926	47.62
857.101	39.42
857.276	2.56
857.45	88.57
857.625	-17.92
857.799	64
857.974	102.91
858.148	-15.87
858.323	8.7
858.497	-19.97
858.672	43.52
858.846	-15.87
859.02	31.23
859.195	8.7
859.369	31.23
859.543	14.85
859.718	23.04
859.892	90.62
860.066	6.66
860.241	-7.68
860.415	33.28
860.589	-15.87
860.763	0.51
860.938	12.8
861.112	102.91
861.286	47.62
861.46	29.18
861.634	39.42
861.808	27.14
861.982	10.75
862.157	47.62
862.331	-48.64
862.505	39.42
862.679	-40.45
862.853	82.43
863.027	80.38
863.201	68.09
863.375	-30.21
863.549	20.99
863.722	57.86
863.896	72.19
864.07	29.18
864.244	-22.02
864.418	37.38
864.592	100.86
864.766	23.04
864.939	-26.11
865.113	14.85
865.287	113.15
865.461	-3.58
865.634	49.66
865.808	31.23
865.982	23.04
866.156	25.09
866.329	-40.45
866.503	-9.73
866.676	-1.54
866.85	64
867.024	57.86
867.197	88.57
867.371	57.86
867.544	6.66
867.718	61.95
867.891	57.86
868.065	-9.73
868.238	31.23
868.412	53.76
868.585	23.04
868.759	-62.98
868.932	-44.54
869.105	-32.26
869.279	16.9
869.452	53.76
869.625	20.99
869.799	70.14
869.972	-3.58
870.145	64
870.319	14.85
870.492	43.52
870.665	-11.78
870.838	23.04
871.011	-60.93
871.185	-15.87
871.358	4.61
871.531	78.33
871.704	-17.92
871.877	47.62
872.05	47.62
872.223	-60.93
872.396	20.99
872.569	-19.97
872.742	-50.69
872.915	53.76
873.088	20.99
873.261	-36.35
873.434	43.52
873.607	-19.97
873.78	35.33
873.953	-73.21
874.126	78.33
874.299	88.57
874.471	-3.58
874.644	35.33
874.817	94.72
874.99	0.51
875.163	-17.92
875.335	61.95
875.508	-26.11
875.681	39.42
875.853	25.09
876.026	8.7
876.199	35.33
876.371	18.94
876.544	-52.74
876.717	2.56
876.889	78.33
877.062	-15.87
877.234	-5.63
877.407	10.75
877.579	20.99
877.752	90.62
877.924	88.57
878.097	61.95
878.269	20.99
878.442	72.19
878.614	-13.82
878.786	78.33
878.959	-32.26
879.131	53.76
879.303	-26.11
879.476	47.62
879.648	29.18
879.82	18.94
879.993	27.14
880.165	0.51
880.337	35.33
880.509	25.09
880.681	49.66
880.854	90.62
881.026	25.09
881.198	20.99
881.37	-58.88
881.542	-9.73
881.714	0.51
881.886	20.99
882.058	-36.35
882.23	-58.88
882.402	41.47
882.574	35.33
882.746	14.85
882.918	64
883.09	72.19
883.262	18.94
883.434	82.43
883.606	2.56
883.778	27.14
883.95	82.43
884.122	-26.11
884.293	35.33
884.465	0.51
884.637	47.62
884.809	8.7
884.98	-81.41
885.152	10.75
885.324	37.38
885.496	-17.92
885.667	31.23
885.839	-3.58
886.011	78.33
886.182	2.56
886.354	12.8
886.525	80.38
886.697	12.8
886.869	-24.06
887.04	18.94
887.212	82.43
887.383	74.24
887.555	-26.11
887.726	-65.02
887.897	33.28
888.069	-11.78
888.24	-69.12
888.412	-34.3
888.583	-50.69
888.754	-3.58
888.926	25.09
889.097	-15.87
889.268	16.9
889.44	59.9
889.611	-79.36
889.782	-22.02
889.953	16.9
890.125	78.33
890.296	-9.73
890.467	-1.54
890.638	-7.68
890.809	41.47
890.98	6.66
891.151	-24.06
891.323	37.38
891.494	-40.45
891.665	47.62
891.836	18.94
892.007	49.66
892.178	61.95
892.349	4.61
892.52	49.66
892.691	-7.68
892.862	8.7
893.032	33.28
893.203	-3.58
893.374	29.18
893.545	96.77
893.716	-30.21
893.887	12.8
894.057	-1.54
894.228	8.7
894.399	-11.78
894.57	31.23
894.74	49.66
894.911	64
895.082	-1.54
895.253	-22.02
895.423	-15.87
895.594	-5.63
895.764	16.9
895.935	0.51
896.106	18.94
896.276	-24.06
896.447	-24.06
896.617	47.62
896.788	-19.97
896.958	25.09
897.129	-24.06
897.299	35.33
897.47	-1.54
897.64	-15.87
897.81	68.09
897.981	-3.58
898.151	8.7
898.322	10.75
898.492	27.14
898.662	-22.02
898.832	8.7
899.003	25.09
899.173	86.53
899.343	39.42
899.513	4.61
