Data from USB4F104151__21__12-41-05-125.txt Node

Date: Fri Mar 14 12:41:05 EDT 2025
User: louis
Spectrometer: USB4F10415
Trigger mode: 4
Integration Time (sec): 3.000000E-2
Scans to average: 1
Electric dark correction enabled: true
Nonlinearity correction enabled: false
Boxcar width: 0
XAxis mode: Wavelengths
Number of Pixels in Spectrum: 3648
>>>>>Begin Spectral Data<<<<<
178.204	-133.12
178.424	-133.12
178.644	-133.12
178.864	-182.27
179.084	-122.88
179.304	-106.49
179.524	75.77
179.744	-24.58
179.964	77.82
180.184	-6.14
180.404	14.34
180.624	-4.1
180.844	30.72
181.064	0
181.283	-4.1
181.503	8.19
181.723	-61.44
181.943	-75.77
182.163	49.15
182.383	40.96
182.602	30.72
182.822	20.48
183.042	-20.48
183.262	-8.19
183.482	90.11
183.701	0
183.921	4.1
184.141	32.77
184.361	59.39
184.58	36.86
184.8	10.24
185.02	-38.91
185.239	104.45
185.459	14.34
185.679	73.73
185.898	-51.2
186.118	4.1
186.338	-61.44
186.557	30.72
186.777	45.06
186.997	8.19
187.216	-14.34
187.436	92.16
187.655	26.62
187.875	75.77
188.095	-4.1
188.314	30.72
188.534	16.38
188.753	-8.19
188.973	67.58
189.192	53.25
189.412	4.1
189.631	53.25
189.851	4.1
190.07	51.2
190.29	-24.58
190.509	-20.48
190.729	-10.24
190.948	-61.44
191.168	104.45
191.387	34.82
191.607	-12.29
191.826	79.87
192.045	-20.48
192.265	4.1
192.484	28.67
192.704	-2.05
192.923	-40.96
193.142	88.06
193.362	96.25
193.581	36.86
193.8	43.01
194.02	45.06
194.239	94.21
194.458	73.73
194.678	30.72
194.897	-18.43
195.116	20.48
195.335	-14.34
195.555	55.3
195.774	0
195.993	2.05
196.212	14.34
196.432	-24.58
196.651	-28.67
196.87	20.48
197.089	43.01
197.308	57.34
197.528	88.06
197.747	65.53
197.966	-12.29
198.185	28.67
198.404	-45.06
198.623	-18.43
198.842	24.58
199.062	45.06
199.281	161.79
199.5	47.1
199.719	-10.24
199.938	147.45
200.157	-40.96
200.376	24.58
200.595	69.63
200.814	36.86
201.033	-32.77
201.252	34.82
201.471	61.44
201.69	-12.29
201.909	10.24
202.128	-28.67
202.347	16.38
202.566	47.1
202.785	-24.58
203.004	69.63
203.223	20.48
203.442	-34.82
203.661	69.63
203.879	94.21
204.098	38.91
204.317	22.53
204.536	65.53
204.755	-22.53
204.974	18.43
205.193	-53.25
205.411	112.64
205.63	-24.58
205.849	4.1
206.068	28.67
206.287	36.86
206.505	4.1
206.724	2.05
206.943	40.96
207.162	-6.14
207.381	36.86
207.599	-18.43
207.818	-4.1
208.037	67.58
208.255	34.82
208.474	22.53
208.693	63.49
208.911	20.48
209.13	-22.53
209.349	16.38
209.567	2.05
209.786	-28.67
210.005	16.38
210.223	-2.05
210.442	-4.1
210.661	53.25
210.879	-38.91
211.098	26.62
211.316	-36.86
211.535	49.15
211.753	-22.53
211.972	40.96
212.191	24.58
212.409	24.58
212.628	30.72
212.846	-6.14
213.065	55.3
213.283	45.06
213.502	-6.14
213.72	47.1
213.938	36.86
214.157	2.05
214.375	30.72
214.594	2.05
214.812	-67.58
215.031	20.48
215.249	20.48
215.467	-18.43
215.686	6.14
215.904	10.24
216.122	71.68
216.341	67.58
216.559	-40.96
216.778	-10.24
216.996	30.72
217.214	20.48
217.432	-24.58
217.651	26.62
217.869	79.87
218.087	100.35
218.306	98.3
218.524	26.62
218.742	20.48
218.96	12.29
219.179	16.38
219.397	-18.43
219.615	14.34
219.833	43.01
220.051	18.43
220.27	38.91
220.488	24.58
220.706	14.34
220.924	20.48
221.142	16.38
221.36	-16.38
221.578	16.38
221.796	-24.58
222.015	59.39
222.233	45.06
222.451	63.49
222.669	-18.43
222.887	45.06
223.105	-4.1
223.323	71.68
223.541	14.34
223.759	30.72
223.977	55.3
224.195	-16.38
224.413	102.4
224.631	4.1
224.849	36.86
225.067	53.25
225.285	75.77
225.503	24.58
225.721	20.48
225.939	61.44
226.157	47.1
226.375	100.35
226.592	67.58
226.81	110.59
227.028	18.43
227.246	98.3
227.464	12.29
227.682	59.39
227.9	30.72
228.117	53.25
228.335	18.43
228.553	24.58
228.771	4.1
228.989	51.2
229.206	36.86
229.424	28.67
229.642	43.01
229.86	-18.43
230.077	38.91
230.295	8.19
230.513	118.78
230.731	12.29
230.948	96.25
231.166	53.25
231.384	-20.48
231.601	-10.24
231.819	32.77
232.037	-2.05
232.254	49.15
232.472	-38.91
232.689	40.96
232.907	81.92
233.125	-26.62
233.342	49.15
233.56	-4.1
233.777	-6.14
233.995	36.86
234.213	24.58
234.43	40.96
234.648	-20.48
234.865	63.49
235.083	67.58
235.3	8.19
235.518	-2.05
235.735	57.34
235.953	79.87
236.17	38.91
236.388	8.19
236.605	-47.1
236.822	45.06
237.04	40.96
237.257	59.39
237.475	10.24
237.692	38.91
237.909	59.39
238.127	4.1
238.344	30.72
238.562	16.38
238.779	-18.43
238.996	-26.62
239.214	65.53
239.431	6.14
239.648	-16.38
239.865	10.24
240.083	53.25
240.3	2.05
240.517	-14.34
240.735	-6.14
240.952	51.2
241.169	36.86
241.386	26.62
241.603	34.82
241.821	-20.48
242.038	69.63
242.255	-20.48
242.472	10.24
242.689	65.53
242.907	90.11
243.124	-24.58
243.341	4.1
243.558	6.14
243.775	-28.67
243.992	59.39
244.209	30.72
244.426	73.73
244.643	47.1
244.86	-10.24
245.078	-24.58
245.295	32.77
245.512	43.01
245.729	0
245.946	12.29
246.163	32.77
246.38	12.29
246.597	32.77
246.814	65.53
247.031	12.29
247.248	69.63
247.464	73.73
247.681	32.77
247.898	40.96
248.115	86.01
248.332	-16.38
248.549	131.07
248.766	63.49
248.983	8.19
249.2	83.97
249.417	67.58
249.633	10.24
249.85	59.39
250.067	-2.05
250.284	69.63
250.501	-14.34
250.717	53.25
250.934	38.91
251.151	-8.19
251.368	49.15
251.585	4.1
251.801	45.06
252.018	36.86
252.235	30.72
252.451	-2.05
252.668	-8.19
252.885	40.96
253.102	32.77
253.318	-12.29
253.535	-53.25
253.752	28.67
253.968	10.24
254.185	-16.38
254.401	0
254.618	-22.53
254.835	30.72
255.051	86.01
255.268	6.14
255.484	63.49
255.701	-16.38
255.917	14.34
256.134	-43.01
256.351	30.72
256.567	51.2
256.784	47.1
257	-69.63
257.217	24.58
257.433	20.48
257.65	36.86
257.866	43.01
258.082	-28.67
258.299	14.34
258.515	49.15
258.732	0
258.948	20.48
259.165	-2.05
259.381	-71.68
259.597	12.29
259.814	135.17
260.03	28.67
260.246	-28.67
260.463	26.62
260.679	-32.77
260.895	-12.29
261.112	55.3
261.328	-24.58
261.544	-12.29
261.761	104.45
261.977	63.49
262.193	30.72
262.409	55.3
262.626	20.48
262.842	51.2
263.058	-18.43
263.274	26.62
263.49	22.53
263.707	45.06
263.923	63.49
264.139	-98.3
264.355	36.86
264.571	47.1
264.787	65.53
265.004	124.93
265.22	16.38
265.436	36.86
265.652	45.06
265.868	30.72
266.084	-45.06
266.3	88.06
266.516	-6.14
266.732	14.34
266.948	2.05
267.164	20.48
267.38	8.19
267.596	-6.14
267.812	16.38
268.028	12.29
268.244	30.72
268.46	51.2
268.676	83.97
268.892	108.54
269.108	-24.58
269.324	4.1
269.54	69.63
269.756	75.77
269.972	-28.67
270.188	106.49
270.403	-43.01
270.619	47.1
270.835	-28.67
271.051	-22.53
271.267	34.82
271.483	16.38
271.698	26.62
271.914	53.25
272.13	30.72
272.346	49.15
272.562	108.54
272.777	38.91
272.993	28.67
273.209	34.82
273.425	0
273.64	40.96
273.856	-40.96
274.072	0
274.287	-34.82
274.503	49.15
274.719	55.3
274.934	-8.19
275.15	-92.16
275.366	16.38
275.581	-2.05
275.797	36.86
276.012	-20.48
276.228	47.1
276.444	10.24
276.659	53.25
276.875	30.72
277.09	88.06
277.306	79.87
277.521	90.11
277.737	-30.72
277.952	-16.38
278.168	-16.38
278.383	47.1
278.599	0
278.814	12.29
279.03	16.38
279.245	43.01
279.461	20.48
279.676	45.06
279.892	106.49
280.107	43.01
280.322	-32.77
280.538	65.53
280.753	-20.48
280.969	55.3
281.184	22.53
281.399	112.64
281.615	30.72
281.83	43.01
282.045	-75.77
282.26	67.58
282.476	0
282.691	81.92
282.906	55.3
283.122	59.39
283.337	36.86
283.552	8.19
283.767	-20.48
283.983	67.58
284.198	-16.38
284.413	-2.05
284.628	-18.43
284.843	12.29
285.058	-28.67
285.274	0
285.489	-22.53
285.704	139.26
285.919	-20.48
286.134	20.48
286.349	18.43
286.564	75.77
286.779	53.25
286.995	55.3
287.21	-10.24
287.425	6.14
287.64	57.34
287.855	-10.24
288.07	-6.14
288.285	55.3
288.5	96.25
288.715	133.12
288.93	-24.58
289.145	53.25
289.36	-4.1
289.575	22.53
289.79	69.63
290.004	43.01
290.219	81.92
290.434	34.82
290.649	16.38
290.864	61.44
291.079	22.53
291.294	-30.72
291.509	-20.48
291.724	65.53
291.938	110.59
292.153	-43.01
292.368	-28.67
292.583	55.3
292.798	47.1
293.012	34.82
293.227	34.82
293.442	0
293.657	26.62
293.871	40.96
294.086	43.01
294.301	67.58
294.516	53.25
294.73	32.77
294.945	-16.38
295.16	26.62
295.374	45.06
295.589	34.82
295.804	75.77
296.018	-30.72
296.233	43.01
296.447	102.4
296.662	16.38
296.877	16.38
297.091	-67.58
297.306	-12.29
297.52	57.34
297.735	12.29
297.949	2.05
298.164	114.69
298.378	28.67
298.593	-8.19
298.807	57.34
299.022	47.1
299.236	18.43
299.451	73.73
299.665	53.25
299.88	10.24
300.094	34.82
300.309	53.25
300.523	22.53
300.737	36.86
300.952	45.06
301.166	6.14
301.381	-40.96
301.595	4.1
301.809	100.35
302.024	45.06
302.238	40.96
302.452	81.92
302.667	2.05
302.881	96.25
303.095	47.1
303.309	18.43
303.524	10.24
303.738	8.19
303.952	45.06
304.166	-18.43
304.381	-2.05
304.595	0
304.809	51.2
305.023	79.87
305.237	-47.1
305.452	-53.25
305.666	16.38
305.88	43.01
306.094	22.53
306.308	106.49
306.522	88.06
306.736	-6.14
306.95	77.82
307.164	67.58
307.379	-12.29
307.593	24.58
307.807	2.05
308.021	26.62
308.235	24.58
308.449	-12.29
308.663	65.53
308.877	112.64
309.091	28.67
309.305	55.3
309.519	-12.29
309.733	36.86
309.947	-10.24
310.161	36.86
310.374	47.1
310.588	40.96
310.802	-26.62
311.016	-8.19
311.23	100.35
311.444	-36.86
311.658	12.29
311.872	2.05
312.085	67.58
312.299	-16.38
312.513	16.38
312.727	38.91
312.941	16.38
313.154	34.82
313.368	-14.34
313.582	32.77
313.796	75.77
314.009	-61.44
314.223	96.25
314.437	69.63
314.651	77.82
314.864	28.67
315.078	-32.77
315.292	-2.05
315.505	-12.29
315.719	-4.1
315.933	28.67
316.146	63.49
316.36	28.67
316.573	30.72
316.787	118.78
317.001	61.44
317.214	34.82
317.428	77.82
317.641	36.86
317.855	118.78
318.068	63.49
318.282	-18.43
318.495	61.44
318.709	73.73
318.922	-28.67
319.136	98.3
319.349	43.01
319.563	4.1
319.776	20.48
319.99	-18.43
320.203	55.3
320.417	0
320.63	59.39
320.843	73.73
321.057	8.19
321.27	36.86
321.483	77.82
321.697	120.83
321.91	36.86
322.124	59.39
322.337	14.34
322.55	-12.29
322.763	53.25
322.977	45.06
323.19	12.29
323.403	71.68
323.617	102.4
323.83	20.48
324.043	12.29
324.256	131.07
324.469	34.82
324.683	10.24
324.896	55.3
325.109	16.38
325.322	-79.87
325.535	-10.24
325.748	24.58
325.962	-2.05
326.175	-98.3
326.388	-24.58
326.601	6.14
326.814	38.91
327.027	45.06
327.24	36.86
327.453	-18.43
327.666	32.77
327.879	118.78
328.092	120.83
328.305	-2.05
328.518	43.01
328.731	-8.19
328.944	-16.38
329.157	-34.82
329.37	-6.14
329.583	22.53
329.796	98.3
330.009	-2.05
330.222	38.91
330.435	2.05
330.648	43.01
330.861	83.97
331.073	71.68
331.286	69.63
331.499	-16.38
331.712	-4.1
331.925	108.54
332.138	-6.14
332.35	88.06
332.563	22.53
332.776	90.11
332.989	22.53
333.202	47.1
333.414	-14.34
333.627	-6.14
333.84	-36.86
334.053	67.58
334.265	36.86
334.478	55.3
334.691	16.38
334.903	22.53
335.116	24.58
335.329	73.73
335.541	45.06
335.754	196.61
335.966	22.53
336.179	10.24
336.392	63.49
336.604	86.01
336.817	47.1
337.029	71.68
337.242	-16.38
337.454	94.21
337.667	34.82
337.88	24.58
338.092	34.82
338.305	-16.38
338.517	-18.43
338.729	10.24
338.942	28.67
339.154	4.1
339.367	14.34
339.579	90.11
339.792	24.58
340.004	135.17
340.217	34.82
340.429	59.39
340.641	4.1
340.854	-43.01
341.066	-36.86
341.278	12.29
341.491	69.63
341.703	30.72
341.915	-4.1
342.128	75.77
342.34	14.34
342.552	-51.2
342.764	124.93
342.977	63.49
343.189	63.49
343.401	120.83
343.613	-43.01
343.826	10.24
344.038	-45.06
344.25	63.49
344.462	-16.38
344.674	-14.34
344.886	73.73
345.099	8.19
345.311	18.43
345.523	94.21
345.735	26.62
345.947	8.19
346.159	-22.53
346.371	2.05
346.583	-45.06
346.795	137.21
347.007	40.96
347.219	92.16
347.431	30.72
347.643	22.53
347.855	-32.77
348.067	90.11
348.279	-69.63
348.491	22.53
348.703	40.96
348.915	63.49
349.127	30.72
349.339	-14.34
349.551	106.49
349.763	90.11
349.975	51.2
350.187	118.78
350.399	67.58
350.61	69.63
350.822	-6.14
351.034	34.82
351.246	38.91
351.458	12.29
351.669	-18.43
351.881	77.82
352.093	114.69
352.305	71.68
352.517	86.01
352.728	0
352.94	34.82
353.152	45.06
353.363	16.38
353.575	63.49
353.787	34.82
353.999	36.86
354.21	110.59
354.422	-34.82
354.633	-16.38
354.845	40.96
355.057	-12.29
355.268	24.58
355.48	79.87
355.692	-10.24
355.903	45.06
356.115	0
356.326	-14.34
356.538	65.53
356.749	16.38
356.961	73.73
357.172	12.29
357.384	32.77
357.595	92.16
357.807	59.39
358.018	43.01
358.23	59.39
358.441	153.6
358.653	28.67
358.864	36.86
359.075	86.01
359.287	59.39
359.498	-22.53
359.709	88.06
359.921	-20.48
360.132	92.16
360.344	71.68
360.555	-4.1
360.766	61.44
360.977	-12.29
361.189	92.16
361.4	32.77
361.611	-4.1
361.823	-4.1
362.034	51.2
362.245	-32.77
362.456	108.54
362.667	6.14
362.879	43.01
363.09	53.25
363.301	32.77
363.512	32.77
363.723	24.58
363.935	51.2
364.146	40.96
364.357	38.91
364.568	10.24
364.779	30.72
364.99	22.53
365.201	57.34
365.412	118.78
365.623	36.86
365.834	110.59
366.045	6.14
366.256	92.16
366.467	18.43
366.678	114.69
366.889	18.43
367.1	6.14
367.311	88.06
367.522	49.15
367.733	59.39
367.944	47.1
368.155	88.06
368.366	45.06
368.577	51.2
368.788	16.38
368.999	10.24
369.209	30.72
369.42	141.31
369.631	81.92
369.842	-2.05
370.053	118.78
370.264	63.49
370.474	104.45
370.685	-34.82
370.896	69.63
371.107	126.97
371.317	57.34
371.528	14.34
371.739	77.82
371.95	43.01
372.16	24.58
372.371	28.67
372.582	79.87
372.792	22.53
373.003	30.72
373.214	65.53
373.424	-2.05
373.635	10.24
373.846	90.11
374.056	43.01
374.267	88.06
374.477	71.68
374.688	0
374.898	73.73
375.109	65.53
375.319	34.82
375.53	131.07
375.74	49.15
375.951	116.73
376.161	77.82
376.372	14.34
376.582	-4.1
376.793	12.29
377.003	34.82
377.214	94.21
377.424	102.4
377.635	114.69
377.845	90.11
378.055	90.11
378.266	0
378.476	12.29
378.686	28.67
378.897	73.73
379.107	59.39
379.317	16.38
379.528	12.29
379.738	53.25
379.948	30.72
380.158	79.87
380.369	51.2
380.579	116.73
380.789	49.15
380.999	65.53
381.21	20.48
381.42	47.1
381.63	-4.1
381.84	96.25
382.05	51.2
382.261	34.82
382.471	49.15
382.681	59.39
382.891	36.86
383.101	-26.62
383.311	2.05
383.521	98.3
383.731	40.96
383.941	96.25
384.151	114.69
384.361	40.96
384.571	22.53
384.781	106.49
384.991	180.22
385.201	63.49
385.411	63.49
385.621	110.59
385.831	96.25
386.041	20.48
386.251	63.49
386.461	104.45
386.671	114.69
386.881	122.88
387.091	43.01
387.301	30.72
387.511	16.38
387.72	61.44
387.93	79.87
388.14	-12.29
388.35	24.58
388.56	139.26
388.769	40.96
388.979	26.62
389.189	61.44
389.399	-34.82
389.609	30.72
389.818	55.3
390.028	40.96
390.238	100.35
390.447	59.39
390.657	40.96
390.867	10.24
391.076	36.86
391.286	-8.19
391.496	22.53
391.705	77.82
391.915	77.82
392.125	38.91
392.334	-12.29
392.544	149.5
392.753	98.3
392.963	-47.1
393.172	79.87
393.382	-61.44
393.591	110.59
393.801	67.58
394.01	206.84
394.22	75.77
394.429	65.53
394.639	79.87
394.848	176.13
395.058	139.26
395.267	36.86
395.477	108.54
395.686	126.97
395.895	49.15
396.105	169.98
396.314	108.54
396.524	38.91
396.733	49.15
396.942	79.87
397.152	55.3
397.361	135.17
397.57	124.93
397.78	75.77
397.989	98.3
398.198	176.13
398.407	53.25
398.617	40.96
398.826	75.77
399.035	67.58
399.244	114.69
399.453	131.07
399.663	43.01
399.872	104.45
400.081	61.44
400.29	112.64
400.499	57.34
400.708	120.83
400.917	81.92
401.127	73.73
401.336	59.39
401.545	102.4
401.754	77.82
401.963	124.93
402.172	116.73
402.381	55.3
402.59	61.44
402.799	163.84
403.008	137.21
403.217	112.64
403.426	167.93
403.635	57.34
403.844	59.39
404.053	112.64
404.262	94.21
404.471	149.5
404.68	172.03
404.888	65.53
405.097	165.89
405.306	145.41
405.515	126.97
405.724	151.55
405.933	204.8
406.142	161.79
406.35	149.5
406.559	194.56
406.768	196.61
406.977	184.32
407.185	161.79
407.394	180.22
407.603	114.69
407.812	219.13
408.02	266.24
408.229	145.41
408.438	266.24
408.646	215.04
408.855	141.31
409.064	245.76
409.272	237.56
409.481	280.57
409.69	184.32
409.898	237.56
410.107	319.48
410.315	233.47
410.524	268.28
410.733	260.09
410.941	270.33
411.15	452.6
411.358	311.29
411.567	417.79
411.775	370.68
411.984	423.93
412.192	421.88
412.401	458.74
412.609	430.07
412.818	438.27
413.026	454.65
413.234	485.37
413.443	483.32
413.651	544.76
413.86	466.94
414.068	587.77
414.276	595.96
414.485	522.23
414.693	600.05
414.901	696.31
415.11	618.49
415.318	663.54
415.526	679.93
415.734	702.45
415.943	747.51
416.151	815.09
416.359	800.76
416.567	788.47
416.776	858.1
416.984	931.83
417.192	892.91
417.4	870.39
417.608	940.02
417.817	886.77
418.025	958.45
418.233	1126.38
418.441	1091.57
418.649	1062.9
418.857	1204.21
419.065	1218.54
419.273	1198.06
419.481	1206.25
419.689	1302.51
419.897	1398.76
420.105	1370.09
420.313	1492.97
420.521	1501.16
420.729	1398.76
420.937	1521.64
421.145	1673.19
421.353	1757.16
421.561	1769.44
421.769	1650.66
421.977	1902.56
422.185	1873.89
422.393	2033.63
422.601	2088.93
422.809	2078.69
423.017	2093.02
423.224	2211.81
423.432	2297.82
423.64	2211.81
423.848	2467.8
424.056	2357.21
424.263	2533.34
424.471	2586.58
424.679	2662.36
424.887	2783.19
425.094	2951.12
425.302	2981.84
425.51	2990.03
425.718	3186.64
425.925	3123.15
426.133	3338.19
426.341	3487.69
426.548	3624.9
426.756	3530.7
426.964	3614.66
427.171	3749.83
427.379	4022.21
427.586	4100.03
427.794	4151.23
428.001	4306.88
428.209	4616.12
428.417	4507.58
428.624	4798.39
428.832	4661.18
429.039	4675.51
429.247	4704.18
429.454	5195.7
429.662	5570.47
429.869	5248.94
430.076	5658.54
430.284	5396.4
430.491	5674.92
430.699	5873.57
430.906	5914.53
431.114	6086.56
431.321	6260.64
431.528	6436.77
431.736	6924.18
431.943	7315.34
432.15	6911.89
432.358	7022.48
432.565	7313.3
432.772	7483.28
432.979	7874.44
433.187	7729.03
433.394	8009.61
433.601	8517.5
433.808	8558.46
434.016	8392.58
434.223	8736.63
434.43	9179
434.637	9146.23
434.844	9686.89
435.052	9756.52
435.259	9678.7
435.466	9883.5
435.673	9844.59
435.88	10454.88
436.087	10841.95
436.294	11134.81
436.501	10780.51
436.708	10919.77
436.915	11351.89
437.122	11849.55
437.329	11810.64
437.537	12138.31
437.743	12418.88
437.95	12427.07
438.157	13066.04
438.364	13070.14
438.571	13303.6
438.778	13514.55
438.985	14763.81
439.192	14008.11
439.399	14432.04
439.606	14292.77
439.813	15040.28
440.02	16236.3
440.227	15775.5
440.433	15525.65
440.64	16176.91
440.847	16129.8
441.054	16242.44
441.261	17282.81
441.467	17194.75
441.674	17542.9
441.881	18249.45
442.088	17915.63
442.294	17977.07
442.501	18702.05
442.708	19031.77
442.914	19674.84
443.121	20428.49
443.328	19924.69
443.534	21202.62
443.741	20629.19
443.948	20305.61
444.154	21694.13
444.361	21728.95
444.568	22111.92
444.774	21982.9
444.981	22419.11
445.187	23010.98
445.394	23672.47
445.6	23494.3
445.807	25947.76
446.013	24671.88
446.22	25126.53
446.426	26381.93
446.633	26347.12
446.839	27493.98
447.046	25941.62
447.252	27373.15
447.459	27731.54
447.665	27467.36
447.871	28587.6
448.078	29894.2
448.284	28565.07
448.491	29240.9
448.697	30586.41
448.903	30938.66
449.11	31165.99
449.316	30420.53
449.522	31249.96
449.728	31792.67
449.935	32235.03
450.141	31913.5
450.347	32937.48
450.553	31704.6
450.76	32228.88
450.966	33515.01
451.172	32828.94
451.378	33803.77
451.584	33242.63
451.791	33922.55
451.997	33918.46
452.203	34190.84
452.409	34551.28
452.615	34131.45
452.821	33019.4
453.027	32577.04
453.233	34227.7
453.44	33113.61
453.646	33781.24
453.852	33695.23
454.058	33723.9
454.264	33052.17
454.47	34113.02
454.676	33197.57
454.882	33877.5
455.088	31075.88
455.294	31276.58
455.5	32243.22
455.705	32421.39
455.911	31102.5
456.117	30500.4
456.323	29963.83
456.529	28167.76
456.735	29539.9
456.941	28802.63
457.147	28044.88
457.352	27702.87
457.558	27086.43
457.764	27399.77
457.97	26758.76
458.176	26152.56
458.381	26080.88
458.587	25015.94
458.793	25034.37
458.999	23459.48
459.204	25130.62
459.41	24610.44
459.616	22967.97
459.821	22896.29
460.027	23041.7
460.233	22609.58
460.438	21726.9
460.644	21597.88
460.85	20471.5
461.055	20092.62
461.261	20408.01
461.466	18743.01
461.672	18190.06
461.878	19261.15
462.083	18298.6
462.289	17344.25
462.494	17669.87
462.7	16766.72
462.905	16502.53
463.111	17180.41
463.316	17014.52
463.522	16875.26
463.727	16832.26
463.932	16598.79
464.138	16533.25
464.343	16365.32
464.549	16047.88
464.754	16498.44
464.959	16320.26
465.165	16015.12
465.37	15703.82
465.575	15140.63
465.781	15855.37
465.986	15935.24
466.191	15548.18
466.397	15099.67
466.602	14329.64
466.807	15114.01
467.012	14921.5
467.218	14843.68
467.423	14511.91
467.628	14718.75
467.833	15154.97
468.038	14726.94
468.244	14370.6
468.449	14839.58
468.654	14407.46
468.859	14288.68
469.064	14325.54
469.269	13752.11
469.474	13784.88
469.679	14069.55
469.885	13618.99
470.09	13791.02
470.295	13668.14
470.5	13418.29
470.705	13659.95
470.91	13231.93
471.115	12908.35
471.32	13182.77
471.525	13053.75
471.73	12996.41
471.935	12871.48
472.139	12234.57
472.344	12398.4
472.549	12433.22
472.754	12449.6
472.959	12113.74
473.164	11800.4
473.369	11677.52
473.574	12097.35
473.778	11949.9
473.983	11870.03
474.188	11812.68
474.393	11183.96
474.598	11431.76
474.802	11253.59
475.007	11120.47
475.212	10987.35
475.417	10755.93
475.621	10755.93
475.826	10674.01
476.031	10540.9
476.235	10514.27
476.44	10594.14
476.645	10422.11
476.849	10368.87
477.054	10229.6
477.259	10037.09
477.463	9928.55
477.668	9844.59
477.872	10035.05
478.077	9504.62
478.282	9543.53
478.486	9541.49
478.691	9525.1
478.895	9373.55
479.1	9324.4
479.304	9234.29
479.509	9000.82
479.713	9262.96
479.918	9084.79
480.122	8888.18
480.326	9064.31
480.531	8947.58
480.735	8914.81
480.94	8810.36
481.144	9119.6
481.348	8630.14
481.553	8851.32
481.757	8681.34
481.961	8710.01
482.166	8830.84
482.37	8822.65
482.574	8494.97
482.778	8722.3
482.983	8705.92
483.187	8587.13
483.391	8523.65
483.595	8578.94
483.8	8525.69
484.004	8449.92
484.208	8775.55
484.412	8628.09
484.616	8697.72
484.821	8714.11
485.025	8443.78
485.229	8847.22
485.433	8484.73
485.637	8521.6
485.841	8396.67
486.045	8650.62
486.249	8667
486.453	8474.49
486.657	8699.77
486.861	8746.87
487.065	8451.97
487.269	8638.33
487.473	8411.01
487.677	8619.9
487.881	8650.62
488.085	8687.48
488.289	8660.86
488.493	8583.04
488.697	8697.72
488.901	8673.15
489.105	8472.45
489.309	8619.9
489.512	8654.72
489.716	8947.58
489.92	8589.18
490.124	8593.28
490.328	8812.41
490.531	8523.65
490.735	8781.69
490.939	8890.23
491.143	9056.12
491.346	8726.39
491.55	9025.4
491.754	9023.35
491.958	8931.19
492.161	9013.11
492.365	9060.21
492.569	8959.86
492.772	8820.6
492.976	9072.5
493.18	9191.28
493.383	9404.27
493.587	9359.22
493.79	9277.3
493.994	9338.74
494.197	9553.77
494.401	9455.47
494.605	9459.57
494.808	9615.21
495.012	9625.45
495.215	9805.67
495.419	9742.19
495.622	9686.89
495.825	9875.31
496.029	9928.55
496.232	10080.1
496.436	10057.57
496.639	10383.2
496.843	10166.12
497.046	10508.13
497.249	10567.52
497.453	10649.44
497.656	10923.87
497.859	10835.8
498.063	10858.33
498.266	11077.46
498.469	11013.98
498.673	11224.92
498.876	11507.54
499.079	11335.51
499.282	11411.28
499.485	11728.72
499.689	11611.98
499.892	11874.12
500.095	11951.95
500.298	12050.25
500.501	12400.45
500.705	12554.05
500.908	12564.29
501.111	12592.96
501.314	12762.94
501.517	12922.68
501.72	13201.21
501.923	13107
502.126	13379.38
502.329	13410.1
502.532	13635.38
502.735	13813.55
502.938	14051.11
503.141	14038.83
503.344	14241.57
503.547	14372.64
503.75	14386.98
503.953	14755.61
504.156	15103.77
504.359	15210.26
504.562	15154.97
504.765	15628.05
504.968	15574.8
505.17	15740.69
505.373	15679.25
505.576	15972.11
505.779	16236.3
505.982	16258.82
506.185	16504.58
506.387	16529.16
506.59	16838.4
506.793	17186.55
506.996	17032.96
507.198	17239.8
507.401	17565.43
507.604	17544.95
507.807	17831.66
508.009	17729.27
508.212	17995.5
508.415	18370.28
508.617	18388.71
508.82	18519.78
509.022	18654.95
509.225	19117.79
509.428	19320.54
509.63	19214.04
509.833	19623.64
510.035	19836.63
510.238	19941.07
510.44	20053.71
510.643	20147.92
510.845	20418.25
511.048	20377.29
511.25	20688.58
511.453	20887.23
511.655	21681.85
511.858	21343.93
512.06	21194.43
512.262	21653.17
512.465	21804.72
512.667	22140.59
512.87	22331.05
513.072	22290.09
513.274	23015.07
513.477	22892.19
513.679	22947.49
513.881	23205.53
514.084	23441.05
514.286	23547.54
514.488	23920.28
514.69	24417.93
514.893	24317.58
515.095	24391.31
515.297	24757.89
515.499	25073.28
515.701	25310.85
515.904	25470.59
516.106	25568.89
516.308	25970.29
516.51	26228.34
516.712	26392.17
516.914	26762.86
517.116	27070.05
517.318	26840.68
517.52	27362.91
517.722	27072.1
517.925	27670.11
518.127	27856.47
518.329	27971.16
518.531	27782.74
518.733	28323.41
518.935	28626.51
519.136	28726.86
519.338	29265.47
519.54	29453.89
519.742	29400.64
519.944	29707.83
520.146	29929.02
520.348	30477.87
520.55	30277.17
520.752	30271.03
520.954	31004.2
521.155	30903.85
521.357	31481.38
521.559	31508
521.761	31573.53
521.963	31483.42
522.164	31962.65
522.366	32140.82
522.568	32501.26
522.77	32413.2
522.971	33142.28
523.173	32663.05
523.375	33105.41
523.576	33162.76
523.778	33443.33
523.98	33443.33
524.181	33820.16
524.383	33414.66
524.584	34293.24
524.786	34248.18
524.988	33928.7
525.189	34645.49
525.391	34756.08
525.592	34893.29
525.794	34893.29
525.995	35040.75
526.197	35229.16
526.398	35694.05
526.6	35309.03
526.801	35825.12
527.003	35452.39
527.204	35612.13
527.406	36036.06
527.607	36519.38
527.808	36398.55
528.01	36298.2
528.211	36077.02
528.412	37115.34
528.614	36656.59
528.815	36928.97
529.016	36908.49
529.218	36763.09
529.419	36773.33
529.62	36926.92
529.822	37092.81
530.023	36849.1
530.224	36941.26
530.425	37215.69
530.626	36607.44
530.828	36916.68
531.029	37729.73
531.23	37357
531.431	37260.74
531.632	37547.46
531.833	37690.82
532.035	37733.82
532.236	37096.91
532.437	37862.85
532.638	37404.1
532.839	37625.28
533.04	37998.01
533.241	37400.01
533.442	38139.32
533.643	37848.51
533.844	37606.85
534.045	37957.05
534.246	37402.05
534.447	38008.25
534.648	37903.81
534.849	38006.2
535.05	37942.72
535.251	37643.71
535.451	37428.68
535.652	38170.04
535.853	38088.12
536.054	37965.24
536.255	38288.82
536.456	37569.99
536.657	37944.76
536.857	38049.21
537.058	37721.54
537.259	38385.08
537.46	37969.34
537.66	37868.99
537.861	37737.92
538.062	37891.52
538.263	38036.92
538.463	37981.63
538.664	37768.64
538.865	38211
539.065	38260.15
539.266	37641.67
539.466	38127.03
539.667	37299.65
539.868	38092.22
540.068	37598.66
540.269	37866.94
540.469	38014.4
540.67	37664.19
540.87	37899.71
541.071	38014.4
541.271	38143.42
541.472	37742.02
541.672	37514.69
541.873	37440.96
542.073	37295.56
542.274	37995.96
542.474	37385.67
542.675	37428.68
542.875	38122.94
543.075	37645.76
543.276	37645.76
543.476	38114.75
543.676	37744.06
543.877	37768.64
544.077	37832.13
544.277	37359.05
544.478	37588.42
544.678	38032.83
544.878	37465.54
545.078	37371.33
545.279	37709.25
545.479	37477.83
545.679	37699.01
545.879	37627.33
546.079	37373.38
546.28	37819.84
546.48	37297.61
546.68	37483.97
546.88	37658.05
547.08	37610.95
547.28	37260.74
547.48	36808.14
547.68	37615.04
547.88	37164.49
548.081	37451.2
548.281	37516.74
548.481	37510.6
548.681	37559.75
548.881	37483.97
549.081	37170.63
549.28	37250.5
549.48	37508.55
549.68	37010.89
549.88	37684.67
550.08	36941.26
550.28	37361.09
550.48	37088.71
550.68	37776.83
550.88	37295.56
551.08	37172.68
551.279	37266.89
551.479	37006.8
551.679	37328.33
551.879	37182.92
552.079	37230.02
552.278	37008.84
552.478	36949.45
552.678	37160.39
552.878	37559.75
553.077	37289.41
553.277	36654.54
553.477	37506.5
553.676	36836.81
553.876	37014.99
554.076	37055.95
554.275	36609.49
554.475	36523.47
554.674	36824.53
554.874	36881.87
555.074	37121.48
555.273	37062.09
555.473	37051.85
555.672	36599.25
555.872	36439.51
556.071	36580.82
556.271	36799.95
556.47	36548.05
556.67	35982.81
556.869	36400.6
557.068	36525.52
557.268	36247
557.467	36478.42
557.667	36152.79
557.866	36224.47
558.065	36199.9
558.265	36396.5
558.464	35929.56
558.663	36634.06
558.863	35784.16
559.062	36406.74
559.261	35769.82
559.461	36273.62
559.66	35954.14
559.859	35542.5
560.058	35743.2
560.258	35732.96
560.457	35866.08
560.656	35911.13
560.855	35806.69
561.054	35632.61
561.253	35364.32
561.453	35573.22
561.652	35855.84
561.851	35395.04
562.05	35393
562.249	35028.46
562.448	35585.5
562.647	35450.34
562.846	35274.21
563.045	35020.27
563.244	34846.19
563.443	35177.96
563.642	34749.93
563.841	34881
564.04	34430.45
564.239	34788.85
564.438	34784.75
564.637	35071.46
564.836	35057.13
565.035	34393.59
565.234	34754.03
565.432	34385.4
565.631	34442.74
565.83	34655.73
566.029	34235.89
566.228	34141.69
566.427	34006.52
566.625	33981.95
566.824	33887.74
567.023	34332.15
567.222	33498.62
567.42	34061.82
567.619	33502.72
567.818	33580.54
568.016	33621.5
568.215	34164.21
568.414	33613.31
568.612	33736.19
568.811	33455.62
569.01	33508.86
569.208	32923.15
569.407	33719.81
569.605	32960.01
569.804	33058.31
570.002	32400.91
570.201	33050.12
570.4	32501.26
570.598	32833.03
570.797	32538.13
570.995	32462.35
571.193	32144.92
571.392	32562.7
571.59	32376.34
571.789	32349.71
571.987	32200.21
572.186	32187.92
572.384	31884.83
572.582	32232.98
572.781	31952.41
572.979	31940.12
573.177	31874.59
573.376	32194.07
573.574	31866.39
573.772	31974.94
573.971	31548.96
574.169	31370.79
574.367	31329.83
574.565	31303.2
574.763	31168.04
574.962	31028.77
575.16	30707.24
575.358	31350.31
575.556	30565.93
575.754	31247.91
575.952	30559.79
576.151	31317.54
576.349	30662.19
576.547	30481.97
576.745	30541.36
576.943	30656.04
577.141	30385.71
577.339	30500.4
577.537	30244.4
577.735	30115.38
577.933	29937.21
578.131	30445.1
578.329	29728.31
578.527	29865.53
578.725	29742.65
578.923	29693.5
579.121	29922.87
579.319	29357.63
579.516	29605.44
579.714	29744.7
579.912	29308.48
580.11	29265.47
580.308	29521.47
580.506	29191.75
580.704	28950.09
580.901	29574.72
581.099	29257.28
581.297	28794.44
581.495	29040.2
581.692	28954.18
581.89	28810.82
582.088	29173.31
582.285	28563.02
582.483	28759.63
582.681	28614.22
582.878	28563.02
583.076	28130.9
583.274	28405.33
583.471	28259.92
583.669	28147.28
583.866	28083.8
584.064	28124.75
584.262	27829.85
584.459	28012.12
584.657	27942.49
584.854	27827.8
585.052	27117.15
585.249	27889.24
585.447	27840.09
585.644	27426.4
585.841	27567.71
586.039	27348.57
586.236	26885.73
586.434	27424.35
586.631	26779.24
586.828	27242.08
587.026	26814.05
587.223	27049.57
587.42	26850.92
587.618	26934.88
587.815	26146.42
588.012	26357.36
588.21	26470
588.407	26404.46
588.604	26513
588.801	25931.38
588.999	26388.08
589.196	26179.18
589.393	25785.97
589.59	25861.75
589.787	25779.83
589.984	25601.66
590.182	25661.05
590.379	25585.27
590.576	25452.16
590.773	25509.5
590.97	25347.71
591.167	25581.18
591.364	24903.3
591.561	25413.24
591.758	25271.93
591.955	24888.96
592.152	25130.62
592.349	24755.85
592.546	24845.96
592.743	24815.24
592.94	24579.72
593.137	25020.03
593.334	24893.06
593.531	24295.05
593.727	24399.5
593.924	24667.78
594.121	24624.78
594.318	24180.37
594.515	23985.81
594.712	24274.57
594.908	23989.91
595.105	24188.56
595.302	23838.36
595.499	23873.17
595.696	23656.09
595.892	23746.2
596.089	23869.08
596.286	23924.37
596.482	23651.99
596.679	23613.08
596.876	23533.21
597.072	23539.35
597.269	23254.69
597.466	23082.66
597.662	23393.95
597.859	23123.62
598.055	23113.38
598.252	22640.29
598.448	22693.54
598.645	22683.3
598.841	22204.08
599.038	22791.84
599.234	22730.41
599.431	22318.76
599.627	22376.11
599.824	22640.29
600.02	22523.56
600.217	22230.7
600.413	22384.3
600.609	22208.17
600.806	22126.25
601.002	22277.8
601.198	21884.59
601.395	21653.17
601.591	21817.01
601.787	21751.48
601.984	21833.39
602.18	21774
602.376	21384.89
602.572	21468.86
602.769	21151.42
602.965	21053.12
603.161	21214.91
603.357	21077.69
603.553	20913.86
603.75	21055.17
603.946	20838.08
604.142	21343.93
604.338	20866.75
604.534	20854.47
604.73	20813.51
604.926	20639.43
605.122	20922.05
605.318	20362.95
605.514	20498.12
605.71	20555.46
605.906	20631.24
606.102	20422.34
606.298	20405.96
606.494	20530.89
606.69	20473.54
606.886	20414.15
607.082	19945.17
607.278	20260.55
607.474	20154.06
607.67	20313.8
607.866	19574.49
608.062	20131.53
608.257	20045.52
608.453	19775.19
608.649	19838.67
608.845	19519.19
609.041	19838.67
609.236	19910.35
609.432	19498.71
609.628	19427.03
609.824	19594.97
610.019	19633.88
610.215	19566.29
610.411	19609.3
610.606	19431.13
610.802	19490.52
610.998	19158.75
611.193	19447.51
611.389	19082.97
611.584	18857.7
611.78	18857.7
611.976	19230.43
612.171	19195.61
612.367	18996.96
612.562	18804.45
612.758	18775.78
612.953	18650.85
613.149	19015.39
613.344	18745.06
613.539	18880.22
613.735	18882.27
613.93	18474.73
614.126	18663.14
614.321	18814.69
614.517	18691.81
614.712	18562.79
614.907	18730.72
615.103	18710.24
615.298	18622.18
615.493	18691.81
615.688	18243.31
615.884	18581.22
616.079	18331.37
616.274	18349.8
616.47	18245.35
616.665	18239.21
616.86	18165.48
617.055	18181.87
617.25	18118.38
617.445	18222.83
617.641	17993.45
617.836	18216.68
618.031	17839.86
618.226	18009.84
618.421	17737.46
618.616	17936.11
618.811	17450.74
619.006	17743.6
619.201	17299.19
619.396	17538.8
619.591	17254.14
619.786	17372.92
619.981	17192.7
620.176	17403.64
620.371	16897.79
620.566	17284.86
620.761	17028.86
620.956	16963.33
621.151	16744.19
621.346	17086.2
621.541	16637.7
621.735	16862.97
621.93	16555.78
622.125	16490.24
622.32	16240.39
622.515	16455.43
622.709	16086.79
622.904	16170.76
623.099	16078.6
623.294	16117.51
623.488	15996.68
623.683	15779.6
623.878	15623.95
624.072	15515.41
624.267	15417.11
624.462	15499.03
624.656	15253.27
624.851	15431.44
625.046	15005.47
625.24	15222.55
625.435	15120.15
625.629	15073.05
625.824	15023.9
626.018	14894.88
626.213	14604.07
626.407	14870.3
626.602	14722.85
626.796	14432.04
626.991	14542.63
627.185	14403.36
627.38	14464.8
627.574	14102.31
627.768	14006.06
627.963	14188.33
628.157	13911.85
628.352	14036.78
628.546	13647.66
628.74	13846.32
628.935	13778.73
629.129	13696.81
629.323	13453.11
629.517	13424.44
629.712	13389.62
629.906	13369.14
630.1	13178.68
630.294	13367.09
630.489	12945.21
630.683	13190.97
630.877	12875.58
631.071	12851
631.265	12957.5
631.459	12846.91
631.653	12754.75
631.848	12717.89
632.042	12568.38
632.236	12592.96
632.43	12422.98
632.624	12498.75
632.818	12347.2
633.012	12021.58
633.206	12308.29
633.4	12373.83
633.594	12072.78
633.788	12080.97
633.982	12148.55
634.176	11986.76
634.369	11704.14
634.563	11818.83
634.757	11648.85
634.951	11734.86
635.145	11730.76
635.339	11685.71
635.533	11464.53
635.726	11304.79
635.92	11317.08
636.114	11517.78
636.308	11136.85
636.501	11274.07
636.695	11226.96
636.889	11099.99
637.083	11061.08
637.276	10909.53
637.47	10874.71
637.664	11007.83
637.857	10819.42
638.051	10829.66
638.244	10870.62
638.438	10874.71
638.632	10651.49
638.825	10534.75
639.019	10522.46
639.212	10450.78
639.406	10497.89
639.599	10102.63
639.793	10407.78
639.986	10098.53
640.18	10270.56
640.373	10112.87
640.567	10119.01
640.76	10080.1
640.954	9985.9
641.147	9807.72
641.34	9893.74
641.534	9820.01
641.727	9721.71
641.92	9766.76
642.114	9615.21
642.307	9725.8
642.5	9580.4
642.694	9430.9
642.887	9297.78
643.08	9525.1
643.273	9449.33
643.467	9320.31
643.66	9158.52
643.853	9215.86
644.046	9088.89
644.239	8929.14
644.432	8996.73
644.626	8859.51
644.819	8896.38
645.012	8963.96
645.205	9011.06
645.398	8892.28
645.591	8810.36
645.784	8951.67
645.977	8630.14
646.17	8689.53
646.363	8720.25
646.556	8421.25
646.749	8507.26
646.942	8566.65
647.135	8394.62
647.328	8408.96
647.521	8425.34
647.714	8210.31
647.907	8357.76
648.099	8187.78
648.292	8253.31
648.485	8083.33
648.678	8095.62
648.871	8034.18
649.064	8122.24
649.256	8011.65
649.449	7905.16
649.642	7950.21
649.835	7759.75
650.027	7767.95
650.22	7679.88
650.413	7698.31
650.605	7681.93
650.798	7720.84
650.991	7550.86
651.183	7475.09
651.376	7448.46
651.568	7495.57
651.761	7372.69
651.954	7270.29
652.146	7376.78
652.339	7507.85
652.531	7380.88
652.724	7329.68
652.916	7270.29
653.109	7104.4
653.301	7118.74
653.494	7188.37
653.686	6938.52
653.879	7145.36
654.071	6944.66
654.263	6963.09
654.456	6956.95
654.648	7030.68
654.84	6746.01
655.033	6805.4
655.225	6735.77
655.417	6719.39
655.61	6821.78
655.802	6727.58
655.994	6592.41
656.186	6639.51
656.379	6541.21
656.571	6438.81
656.763	6516.64
656.955	6432.67
657.148	6573.98
657.34	6510.49
657.532	6328.22
657.724	6324.13
657.916	6195.11
658.108	6293.41
658.3	6367.13
658.492	6279.07
658.684	6131.62
658.876	6221.73
659.068	5926.82
659.26	6029.22
659.452	6229.92
659.644	6096.8
659.836	6088.61
660.028	5943.21
660.22	5846.95
660.412	6018.98
660.604	6025.12
660.796	5865.38
660.988	5705.64
661.18	5748.65
661.372	5629.87
661.563	5715.88
661.755	5650.35
661.947	5658.54
662.139	5767.08
662.331	5701.54
662.522	5572.52
662.714	5652.39
662.906	5517.23
663.097	5697.45
663.289	5316.53
663.481	5455.79
663.673	5547.95
663.864	5429.17
664.056	5271.47
664.247	5332.91
664.439	5347.25
664.631	5328.81
664.822	5357.49
665.014	5257.14
665.205	5281.71
665.397	5455.79
665.588	5156.79
665.78	5115.83
665.971	5064.63
666.163	5140.4
666.354	5126.07
666.546	5089.2
666.737	5044.15
666.929	5162.93
667.12	5025.72
667.311	5150.64
667.503	4913.08
667.694	4902.84
667.885	4929.46
668.077	4857.78
668.268	4978.61
668.459	4904.89
668.651	4984.76
668.842	4800.44
669.033	4870.07
669.224	4784.05
669.416	4806.58
669.607	4806.58
669.798	4577.21
669.989	4804.53
670.18	4728.76
670.371	4663.22
670.563	4652.98
670.754	4585.4
670.945	4644.79
671.136	4700.09
671.327	4652.98
671.518	4716.47
671.709	4579.26
671.9	4626.36
672.091	4646.84
672.282	4341.69
672.473	4245.44
672.664	4564.92
672.855	4519.87
673.046	4581.31
673.237	4495.29
673.428	4503.48
673.619	4472.76
673.809	4227.01
674	4495.29
674.191	4327.36
674.382	4241.34
674.573	4263.87
674.764	4245.44
674.954	4288.45
675.145	4296.64
675.336	4270.01
675.527	4310.97
675.717	4298.69
675.908	4196.29
676.099	4231.1
676.289	4259.77
676.48	4147.14
676.671	4085.7
676.861	4171.71
677.052	4181.95
677.243	4114.37
677.433	4067.27
677.624	4130.75
677.814	4184
678.005	4145.09
678.195	4110.27
678.386	4200.38
678.576	4175.81
678.767	3903.43
678.957	4263.87
679.148	4184
679.338	4122.56
679.529	4130.75
679.719	4044.74
679.909	4122.56
680.1	4075.46
680.29	4081.6
680.481	4202.43
680.671	3944.39
680.861	3981.25
681.052	4048.83
681.242	4104.13
681.432	3999.68
681.622	3952.58
681.813	3999.68
682.003	3993.54
682.193	3985.35
682.383	3925.96
682.573	3792.84
682.764	3968.96
682.954	4050.88
683.144	3942.34
683.334	3987.4
683.524	4007.87
683.714	3946.44
683.904	3819.46
684.094	3866.56
684.284	3934.15
684.474	3966.92
684.664	3882.95
684.854	3854.28
685.044	3766.21
685.234	3768.26
685.424	3968.96
685.614	3860.42
685.804	3864.52
685.994	3887.04
686.184	3940.29
686.374	3770.31
686.564	3698.63
686.753	3801.03
686.943	3766.21
687.133	3798.98
687.323	3635.14
687.513	3727.3
687.702	3835.85
687.892	3604.42
688.082	3768.26
688.272	3622.86
688.461	3647.43
688.651	3696.58
688.841	3583.95
689.03	3397.58
689.22	3497.93
689.41	3518.41
689.599	3391.44
689.789	3487.69
689.979	3475.4
690.168	3465.16
690.358	3459.02
690.547	3428.3
690.737	3512.27
690.926	3575.75
691.116	3297.23
691.305	3352.52
691.495	3291.09
691.684	3239.89
691.874	3315.66
692.063	3332.05
692.252	3178.45
692.442	3278.8
692.631	3254.22
692.82	3284.94
693.01	3297.23
693.199	3182.54
693.388	3221.45
693.578	3022.8
693.767	3129.3
693.956	3323.85
694.146	3200.98
694.335	3057.62
694.524	3106.77
694.713	3168.21
694.902	3198.93
695.092	3106.77
695.281	2975.7
695.47	3022.8
695.659	3088.34
695.848	2996.18
696.037	2951.12
696.226	3018.71
696.415	2949.07
696.604	2973.65
696.793	3026.9
696.982	3047.38
697.171	3051.47
697.36	2869.2
697.549	2904.02
697.738	3065.81
697.927	2891.73
698.116	2910.16
698.305	2815.96
698.494	2844.63
698.683	2887.64
698.872	2967.51
699.061	2914.26
699.25	2944.98
699.438	2877.4
699.627	2766.81
699.816	2891.73
700.005	2738.13
700.193	2887.64
700.382	2883.54
700.571	2789.33
700.76	2865.11
700.948	2830.29
701.137	2883.54
701.326	2844.63
701.514	2865.11
701.703	2916.31
701.892	2836.44
702.08	2910.16
702.269	2842.58
702.457	2869.2
702.646	2805.72
702.834	2863.06
703.023	2768.85
703.212	2824.15
703.4	2914.26
703.589	2775
703.777	2863.06
703.965	2858.96
704.154	2867.16
704.342	2820.05
704.531	2838.48
704.719	2717.65
704.907	2832.34
705.096	2731.99
705.284	2772.95
705.472	2867.16
705.661	2775
705.849	2910.16
706.037	2818
706.226	2781.14
706.414	2742.23
706.602	2721.75
706.79	2766.81
706.979	2688.98
707.167	2762.71
707.355	2756.57
707.543	2885.59
707.731	2754.52
707.919	2734.04
708.107	2648.02
708.296	2693.08
708.484	2570.2
708.672	2813.91
708.86	2711.51
709.048	2762.71
709.236	2709.46
709.424	2707.41
709.612	2746.33
709.8	2885.59
709.988	2725.85
710.176	2672.6
710.364	2881.49
710.551	2742.23
710.739	2707.41
710.927	2699.22
711.115	2719.7
711.303	2691.03
711.491	2846.68
711.679	2631.64
711.866	2826.2
712.054	2625.5
712.242	2660.31
712.43	2734.04
712.617	2668.5
712.805	2820.05
712.993	2641.88
713.181	2701.27
713.368	2801.62
713.556	2756.57
713.744	2684.89
713.931	2826.2
714.119	2654.17
714.306	2580.44
714.494	2729.94
714.682	2775
714.869	2701.27
715.057	2727.89
715.244	2758.61
715.432	2705.37
715.619	2740.18
715.807	2631.64
715.994	2686.93
716.182	2768.85
716.369	2643.93
716.556	2691.03
716.744	2590.68
716.931	2725.85
717.119	2678.74
717.306	2557.91
717.493	2650.07
717.681	2707.41
717.868	2836.44
718.055	2746.33
718.242	2621.4
718.43	2650.07
718.617	2752.47
718.804	2652.12
718.991	2557.91
719.179	2664.41
719.366	2650.07
719.553	2572.25
719.74	2705.37
719.927	2674.65
720.114	2664.41
720.301	2725.85
720.488	2584.54
720.676	2582.49
720.863	2805.72
721.05	2717.65
721.237	2727.89
721.424	2645.98
721.611	2592.73
721.798	2586.58
721.985	2688.98
722.172	2592.73
722.358	2652.12
722.545	2613.21
722.732	2619.35
722.919	2768.85
723.106	2676.7
723.293	2731.99
723.48	2682.84
723.667	2652.12
723.853	2684.89
724.04	2738.13
724.227	2723.8
724.414	2600.92
724.6	2691.03
724.787	2721.75
724.974	2723.8
725.161	2772.95
725.347	2674.65
725.534	2615.26
725.72	2787.29
725.907	2691.03
726.094	2748.37
726.28	2635.74
726.467	2676.7
726.653	2754.52
726.84	2715.61
727.027	2701.27
727.213	2637.78
727.4	2719.7
727.586	2731.99
727.773	2674.65
727.959	2715.61
728.145	2672.6
728.332	2744.28
728.518	2672.6
728.705	2709.46
728.891	2643.93
729.077	2719.7
729.264	2643.93
729.45	2797.53
729.636	2738.13
729.823	2562.01
730.009	2709.46
730.195	2736.09
730.382	2777.05
730.568	2623.45
730.754	2764.76
730.94	2705.37
731.126	2721.75
731.313	2715.61
731.499	2777.05
731.685	2701.27
731.871	2727.89
732.057	2795.48
732.243	2799.57
732.429	2785.24
732.615	2832.34
732.801	2781.14
732.987	2684.89
733.173	2779.09
733.359	2543.58
733.545	2770.9
733.731	2861.01
733.917	2818
734.103	2772.95
734.289	2729.94
734.475	2572.25
734.661	2695.13
734.847	2760.66
735.033	2793.43
735.219	2850.77
735.404	2777.05
735.59	2850.77
735.776	2770.9
735.962	2861.01
736.148	2772.95
736.333	2914.26
736.519	2770.9
736.705	2873.3
736.89	2781.14
737.076	2893.78
737.262	2799.57
737.447	2668.5
737.633	2824.15
737.819	2719.7
738.004	2684.89
738.19	2752.47
738.375	2797.53
738.561	2822.1
738.747	2807.77
738.932	2582.49
739.118	2815.96
739.303	2789.33
739.489	2785.24
739.674	2822.1
739.859	2666.46
740.045	2785.24
740.23	2756.57
740.416	2742.23
740.601	2623.45
740.786	2750.42
740.972	2641.88
741.157	2695.13
741.342	2666.46
741.528	2709.46
741.713	2822.1
741.898	2787.29
742.084	2734.04
742.269	2660.31
742.454	2756.57
742.639	2760.66
742.824	2688.98
743.01	2611.16
743.195	2684.89
743.38	2586.58
743.565	2602.97
743.75	2596.82
743.935	2691.03
744.12	2715.61
744.305	2582.49
744.49	2643.93
744.675	2465.75
744.86	2562.01
745.045	2609.11
745.23	2459.61
745.415	2541.53
745.6	2580.44
745.785	2572.25
745.97	2473.95
746.155	2475.99
746.34	2609.11
746.525	2486.23
746.71	2541.53
746.895	2398.17
747.079	2435.03
747.264	2465.75
747.449	2439.13
747.634	2482.14
747.819	2338.78
748.003	2457.56
748.188	2383.84
748.373	2351.07
748.557	2367.45
748.742	2402.27
748.927	2381.79
749.111	2402.27
749.296	2287.58
749.481	2289.63
749.665	2426.84
749.85	2240.48
750.034	2256.86
750.219	2279.39
750.404	2230.24
750.588	2340.83
750.773	2265.05
750.957	2226.14
751.141	2205.66
751.326	2297.82
751.51	2232.29
751.695	2179.04
751.879	2201.57
752.064	2187.23
752.248	2236.38
752.432	2160.61
752.617	2148.32
752.801	2105.31
752.985	2027.49
753.17	2133.98
753.354	2113.5
753.538	2148.32
753.722	2068.45
753.907	2119.65
754.091	1988.58
754.275	1968.1
754.459	2007.01
754.643	1937.38
754.828	1994.72
755.012	2084.83
755.196	1949.67
755.38	1884.13
755.564	2004.96
755.748	1935.33
755.932	2015.2
756.116	1882.08
756.3	1804.26
756.484	1877.99
756.668	1910.75
756.852	1705.96
757.036	1808.36
757.22	1767.4
757.404	1701.86
757.588	1818.6
757.772	1816.55
757.956	1771.49
758.14	1763.3
758.323	1787.88
758.507	1765.35
758.691	1705.96
758.875	1740.77
759.059	1691.62
759.242	1732.58
759.426	1654.76
759.61	1615.85
759.794	1662.95
759.977	1583.08
760.161	1642.47
760.345	1705.96
760.528	1716.2
760.712	1705.96
760.895	1554.41
761.079	1597.42
761.263	1542.12
761.446	1621.99
761.63	1658.85
761.813	1517.54
761.997	1632.23
762.18	1552.36
762.364	1615.85
762.547	1531.88
762.731	1535.98
762.914	1560.55
763.098	1626.09
763.281	1546.22
763.464	1456.11
763.648	1452.01
763.831	1454.06
764.015	1488.87
764.198	1552.36
764.381	1474.54
764.564	1427.43
764.748	1470.44
764.931	1445.87
765.114	1421.29
765.297	1540.07
765.481	1419.24
765.664	1347.56
765.847	1486.83
766.03	1490.92
766.213	1337.32
766.397	1433.58
766.58	1312.75
766.763	1433.58
766.946	1300.46
767.129	1366
767.312	1347.56
767.495	1251.31
767.678	1310.7
767.861	1372.14
768.044	1320.94
768.227	1388.52
768.41	1316.84
768.593	1327.08
768.776	1259.5
768.959	1249.26
769.142	1355.76
769.324	1331.18
769.507	1343.47
769.69	1302.51
769.873	1361.9
770.056	1265.64
770.239	1271.79
770.421	1267.69
770.604	1224.69
770.787	1282.03
770.97	1261.55
771.152	1155.05
771.335	1275.88
771.518	1173.49
771.7	1196.01
771.883	1177.58
772.066	1212.4
772.248	1046.51
772.431	1220.59
772.613	1081.33
772.796	1103.86
772.978	1177.58
773.161	1107.95
773.343	1183.73
773.526	1114.1
773.708	1159.15
773.891	1124.33
774.073	1124.33
774.256	1126.38
774.438	1181.68
774.621	1060.85
774.803	1034.22
774.985	976.88
775.168	1091.57
775.35	1066.99
775.532	1107.95
775.715	1066.99
775.897	1060.85
776.079	1052.66
776.261	1007.6
776.444	1107.95
776.626	944.11
776.808	1007.6
776.99	968.69
777.173	913.39
777.355	1085.42
777.537	980.98
777.719	958.45
777.901	915.44
778.083	1017.84
778.265	847.86
778.447	1005.55
778.629	837.62
778.811	897.01
778.993	851.95
779.175	946.16
779.357	888.82
779.539	864.24
779.721	804.85
779.903	864.24
780.085	792.56
780.267	870.39
780.449	796.66
780.631	862.19
780.812	868.34
780.994	831.48
781.176	831.48
781.358	757.75
781.54	788.47
781.721	794.61
781.903	753.65
782.085	702.45
782.267	796.66
782.448	735.22
782.63	731.12
782.812	772.08
782.993	675.83
783.175	743.41
783.357	761.84
783.538	702.45
783.72	679.93
783.901	770.04
784.083	854
784.264	669.69
784.446	657.4
784.627	620.53
784.809	653.3
784.99	634.87
785.172	620.53
785.353	684.02
785.535	636.92
785.716	600.05
785.897	608.25
786.079	620.53
786.26	696.31
786.441	671.73
786.623	724.98
786.804	550.9
786.985	552.95
787.167	614.39
787.348	593.91
787.529	651.25
787.71	638.97
787.891	534.52
788.073	575.48
788.254	524.28
788.435	634.87
788.616	600.05
788.797	583.67
788.978	577.53
789.159	534.52
789.34	628.73
789.522	600.05
789.703	550.9
789.884	528.38
790.065	542.71
790.246	606.2
790.427	528.38
790.607	522.23
790.788	511.99
790.969	479.22
791.15	511.99
791.331	499.7
791.512	471.03
791.693	456.7
791.874	518.14
792.054	479.22
792.235	471.03
792.416	528.38
792.597	413.69
792.778	495.61
792.958	462.84
793.139	479.22
793.32	438.27
793.5	487.42
793.681	438.27
793.862	466.94
794.042	473.08
794.223	446.46
794.404	425.98
794.584	366.59
794.765	448.51
794.945	458.74
795.126	432.12
795.306	507.9
795.487	421.88
795.667	378.87
795.848	407.55
796.028	403.45
796.209	501.75
796.389	337.91
796.57	403.45
796.75	425.98
796.93	438.27
797.111	307.2
797.291	380.92
797.471	391.16
797.652	380.92
797.832	393.21
798.012	417.79
798.192	366.59
798.373	348.15
798.553	346.11
798.733	385.02
798.913	370.68
799.093	307.2
799.274	434.17
799.454	319.48
799.634	323.58
799.814	378.87
799.994	268.28
800.174	438.27
800.354	327.67
800.534	399.35
800.714	339.96
800.894	301.05
801.074	278.52
801.254	331.77
801.434	436.22
801.614	243.71
801.794	337.91
801.974	940.02
802.154	282.62
802.334	368.63
802.514	280.57
802.693	321.53
802.873	346.11
803.053	296.96
803.233	385.02
803.413	258.04
803.592	239.61
803.772	321.53
803.952	325.63
804.131	303.1
804.311	296.96
804.491	366.59
804.67	276.48
804.85	231.42
805.03	305.15
805.209	309.24
805.389	253.95
805.568	200.7
805.748	231.42
805.928	284.67
806.107	251.9
806.287	225.28
806.466	323.58
806.646	288.76
806.825	299
807.004	221.18
807.184	307.2
807.363	266.24
807.543	206.84
807.722	270.33
807.901	251.9
808.081	268.28
808.26	227.32
808.439	282.62
808.619	204.8
808.798	247.8
808.977	262.14
809.156	276.48
809.336	294.91
809.515	198.65
809.694	237.56
809.873	233.47
810.052	290.81
810.231	319.48
810.411	253.95
810.59	301.05
810.769	241.66
810.948	241.66
811.127	264.19
811.306	278.52
811.485	151.55
811.664	202.75
811.843	225.28
812.022	196.61
812.201	243.71
812.38	256
812.559	292.86
812.737	225.28
812.916	165.89
813.095	221.18
813.274	274.43
813.453	256
813.632	296.96
813.811	202.75
813.989	184.32
814.168	192.51
814.347	167.93
814.526	268.28
814.704	237.56
814.883	258.04
815.062	245.76
815.24	272.38
815.419	165.89
815.598	180.22
815.776	212.99
815.955	212.99
816.133	184.32
816.312	182.27
816.49	204.8
816.669	139.26
816.847	194.56
817.026	186.37
817.204	169.98
817.383	120.83
817.561	122.88
817.74	176.13
817.918	202.75
818.097	167.93
818.275	165.89
818.453	180.22
818.632	268.28
818.81	180.22
818.988	178.17
819.167	161.79
819.345	172.03
819.523	163.84
819.701	131.07
819.879	251.9
820.058	120.83
820.236	188.41
820.414	143.36
820.592	174.08
820.77	112.64
820.948	110.59
821.127	112.64
821.305	47.1
821.483	159.74
821.661	194.56
821.839	151.55
822.017	106.49
822.195	184.32
822.373	196.61
822.551	118.78
822.729	190.46
822.907	124.93
823.085	208.89
823.262	120.83
823.44	143.36
823.618	118.78
823.796	176.13
823.974	139.26
824.152	114.69
824.329	100.35
824.507	196.61
824.685	47.1
824.863	161.79
825.04	157.69
825.218	176.13
825.396	147.45
825.574	88.06
825.751	108.54
825.929	172.03
826.107	100.35
826.284	118.78
826.462	151.55
826.639	159.74
826.817	118.78
826.994	102.4
827.172	141.31
827.349	190.46
827.527	137.21
827.704	126.97
827.882	131.07
828.059	94.21
828.237	116.73
828.414	167.93
828.591	92.16
828.769	90.11
828.946	100.35
829.124	153.6
829.301	155.65
829.478	73.73
829.655	137.21
829.833	137.21
830.01	63.49
830.187	149.5
830.364	65.53
830.542	73.73
830.719	116.73
830.896	120.83
831.073	49.15
831.25	114.69
831.427	169.98
831.604	163.84
831.782	59.39
831.959	102.4
832.136	116.73
832.313	104.45
832.49	79.87
832.667	143.36
832.844	88.06
833.021	194.56
833.198	116.73
833.374	100.35
833.551	90.11
833.728	65.53
833.905	98.3
834.082	22.53
834.259	94.21
834.436	67.58
834.612	161.79
834.789	98.3
834.966	112.64
835.143	55.3
835.319	114.69
835.496	104.45
835.673	26.62
835.85	151.55
836.026	36.86
836.203	45.06
836.38	129.02
836.556	100.35
836.733	51.2
836.909	174.08
837.086	147.45
837.262	67.58
837.439	73.73
837.616	55.3
837.792	133.12
837.968	30.72
838.145	63.49
838.321	55.3
838.498	88.06
838.674	86.01
838.851	53.25
839.027	-4.1
839.203	28.67
839.38	73.73
839.556	51.2
839.732	102.4
839.909	20.48
840.085	-24.58
840.261	61.44
840.437	55.3
840.614	10.24
840.79	188.41
840.966	81.92
841.142	53.25
841.318	-30.72
841.494	45.06
841.671	36.86
841.847	4.1
842.023	30.72
842.199	135.17
842.375	126.97
842.551	12.29
842.727	73.73
842.903	49.15
843.079	69.63
843.255	92.16
843.431	59.39
843.607	108.54
843.783	38.91
843.959	32.77
844.134	63.49
844.31	110.59
844.486	75.77
844.662	53.25
844.838	24.58
845.013	47.1
845.189	45.06
845.365	108.54
845.541	71.68
845.716	8.19
845.892	71.68
846.068	63.49
846.244	63.49
846.419	63.49
846.595	24.58
846.77	45.06
846.946	129.02
847.122	104.45
847.297	67.58
847.473	106.49
847.648	12.29
847.824	8.19
847.999	45.06
848.175	-2.05
848.35	69.63
848.526	129.02
848.701	131.07
848.876	104.45
849.052	69.63
849.227	75.77
849.403	32.77
849.578	-6.14
849.753	75.77
849.929	38.91
850.104	2.05
850.279	118.78
850.454	43.01
850.63	26.62
850.805	14.34
850.98	38.91
851.155	6.14
851.33	22.53
851.505	79.87
851.681	36.86
851.856	28.67
852.031	79.87
852.206	77.82
852.381	34.82
852.556	63.49
852.731	-20.48
852.906	14.34
853.081	55.3
853.256	98.3
853.431	57.34
853.606	38.91
853.781	26.62
853.956	28.67
854.131	69.63
854.305	22.53
854.48	96.25
854.655	0
854.83	34.82
855.005	30.72
855.18	53.25
855.354	43.01
855.529	30.72
855.704	61.44
855.879	36.86
856.053	-12.29
856.228	-14.34
856.403	-40.96
856.577	67.58
856.752	-8.19
856.926	57.34
857.101	94.21
857.276	53.25
857.45	45.06
857.625	61.44
857.799	2.05
857.974	63.49
858.148	-57.34
858.323	20.48
858.497	-12.29
858.672	30.72
858.846	38.91
859.02	28.67
859.195	20.48
859.369	20.48
859.543	16.38
859.718	-2.05
859.892	55.3
860.066	38.91
860.241	24.58
860.415	-20.48
860.589	4.1
860.763	18.43
860.938	12.29
861.112	63.49
861.286	65.53
861.46	92.16
861.634	20.48
861.808	75.77
861.982	30.72
862.157	-6.14
862.331	-30.72
862.505	-43.01
862.679	-45.06
862.853	65.53
863.027	-18.43
863.201	12.29
863.375	55.3
863.549	59.39
863.722	36.86
863.896	24.58
864.07	-28.67
864.244	47.1
864.418	0
864.592	30.72
864.766	47.1
864.939	81.92
865.113	14.34
865.287	75.77
865.461	-61.44
865.634	8.19
865.808	69.63
865.982	12.29
866.156	18.43
866.329	-4.1
866.503	26.62
866.676	-6.14
866.85	30.72
867.024	-26.62
867.197	-2.05
867.371	47.1
867.544	86.01
867.718	-8.19
867.891	-4.1
868.065	36.86
868.238	26.62
868.412	139.26
868.585	59.39
868.759	43.01
868.932	12.29
869.105	4.1
869.279	59.39
869.452	-16.38
869.625	88.06
869.799	-36.86
869.972	-63.49
870.145	-38.91
870.319	71.68
870.492	-30.72
870.665	28.67
870.838	69.63
871.011	-73.73
871.185	47.1
871.358	-51.2
871.531	59.39
871.704	-22.53
871.877	28.67
872.05	57.34
872.223	16.38
872.396	43.01
872.569	40.96
872.742	0
872.915	28.67
873.088	10.24
873.261	-8.19
873.434	14.34
873.607	-4.1
873.78	69.63
873.953	-28.67
874.126	12.29
874.299	40.96
874.471	-28.67
874.644	14.34
874.817	2.05
874.99	120.83
875.163	8.19
875.335	34.82
875.508	-8.19
875.681	73.73
875.853	-6.14
876.026	-6.14
876.199	43.01
876.371	67.58
876.544	18.43
876.717	2.05
876.889	57.34
877.062	30.72
877.234	-12.29
877.407	36.86
877.579	20.48
877.752	71.68
877.924	12.29
878.097	34.82
878.269	-2.05
878.442	28.67
878.614	-8.19
878.786	-49.15
878.959	71.68
879.131	49.15
879.303	0
879.476	0
879.648	26.62
879.82	-2.05
879.993	36.86
880.165	53.25
880.337	-28.67
880.509	12.29
880.681	-49.15
880.854	2.05
881.026	20.48
881.198	90.11
881.37	24.58
881.542	36.86
881.714	40.96
881.886	-18.43
882.058	-26.62
882.23	-20.48
882.402	-36.86
882.574	59.39
882.746	77.82
882.918	12.29
883.09	-86.01
883.262	2.05
883.434	8.19
883.606	2.05
883.778	20.48
883.95	45.06
884.122	6.14
884.293	-20.48
884.465	0
884.637	-2.05
884.809	6.14
884.98	-6.14
885.152	-38.91
885.324	71.68
885.496	2.05
885.667	6.14
885.839	-28.67
886.011	73.73
886.182	45.06
886.354	38.91
886.525	0
886.697	-20.48
886.869	6.14
887.04	6.14
887.212	14.34
887.383	8.19
887.555	-47.1
887.726	-2.05
887.897	49.15
888.069	-20.48
888.24	43.01
888.412	-26.62
888.583	40.96
888.754	-30.72
888.926	-2.05
889.097	-34.82
889.268	-59.39
889.44	-32.77
889.611	-40.96
889.782	12.29
889.953	18.43
890.125	20.48
890.296	-38.91
890.467	-26.62
890.638	65.53
890.809	22.53
890.98	-12.29
891.151	57.34
891.323	-12.29
891.494	36.86
891.665	2.05
891.836	-6.14
892.007	24.58
892.178	10.24
892.349	26.62
892.52	-51.2
892.691	-24.58
892.862	51.2
893.032	-26.62
893.203	6.14
893.374	49.15
893.545	98.3
893.716	8.19
893.887	71.68
894.057	36.86
894.228	-18.43
894.399	-63.49
894.57	73.73
894.74	-40.96
894.911	53.25
895.082	2.05
895.253	-30.72
895.423	8.19
895.594	45.06
895.764	32.77
895.935	-51.2
896.106	-47.1
896.276	-65.54
896.447	65.53
896.617	-8.19
896.788	22.53
896.958	14.34
897.129	53.25
897.299	-38.91
897.47	45.06
897.64	38.91
897.81	-10.24
897.981	38.91
898.151	53.25
898.322	26.62
898.492	-49.15
898.662	-40.96
898.832	-38.91
899.003	-6.14
899.173	-26.62
899.343	-8.19
899.513	-40.96
