Data from USB4F104151__33__12-41-18-384.txt Node

Date: Fri Mar 14 12:41:18 EDT 2025
User: louis
Spectrometer: USB4F10415
Trigger mode: 4
Integration Time (sec): 3.000000E-2
Scans to average: 1
Electric dark correction enabled: true
Nonlinearity correction enabled: false
Boxcar width: 0
XAxis mode: Wavelengths
Number of Pixels in Spectrum: 3648
>>>>>Begin Spectral Data<<<<<
178.204	-109.22
178.424	-109.22
178.644	-109.22
178.864	-182.95
179.084	-123.56
179.304	-47.79
179.524	15.7
179.744	32.08
179.964	48.47
180.184	32.08
180.404	-49.83
180.624	9.56
180.844	-27.31
181.064	-12.97
181.283	-19.11
181.503	-19.11
181.723	38.23
181.943	7.51
182.163	36.18
182.383	-27.31
182.602	40.28
182.822	81.24
183.042	56.66
183.262	-45.74
183.482	-6.83
183.701	44.37
183.921	38.23
184.141	-35.5
184.361	30.04
184.58	-51.88
184.8	75.09
185.02	101.72
185.239	114
185.459	-0.68
185.679	11.61
185.898	-0.68
186.118	44.37
186.338	-39.59
186.557	58.71
186.777	-2.73
186.997	-41.64
187.216	-4.78
187.436	44.37
187.655	-4.78
187.875	75.09
188.095	-33.45
188.314	85.33
188.534	3.41
188.753	-27.31
188.973	1.37
189.192	46.42
189.412	7.51
189.631	-19.11
189.851	-4.78
190.07	54.61
190.29	62.8
190.509	-51.88
190.729	15.7
190.948	79.19
191.168	146.77
191.387	62.8
191.607	23.89
191.826	-39.59
192.045	-8.87
192.265	-37.55
192.484	68.95
192.704	-10.92
192.923	-90.79
193.142	83.28
193.362	11.61
193.581	36.18
193.8	27.99
194.02	34.13
194.239	7.51
194.458	32.08
194.678	-41.64
194.897	73.04
195.116	62.8
195.335	50.52
195.555	83.28
195.774	-2.73
195.993	9.56
196.212	40.28
196.432	19.8
196.651	-41.64
196.87	64.85
197.089	27.99
197.308	68.95
197.528	46.42
197.747	-43.69
197.966	9.56
198.185	118.1
198.404	44.37
198.623	-58.03
198.842	19.8
199.062	-12.97
199.281	32.08
199.5	34.13
199.719	13.65
199.938	46.42
200.157	-19.11
200.376	62.8
200.595	17.75
200.814	11.61
201.033	-62.12
201.252	77.14
201.471	124.24
201.69	7.51
201.909	54.61
202.128	-15.02
202.347	42.32
202.566	1.37
202.785	-0.68
203.004	54.61
203.223	138.58
203.442	58.71
203.661	13.65
203.879	27.99
204.098	60.76
204.317	17.75
204.536	95.57
204.755	79.19
204.974	25.94
205.193	62.8
205.411	95.57
205.63	21.85
205.849	-25.26
206.068	-15.02
206.287	-82.6
206.505	17.75
206.724	-17.07
206.943	-6.83
207.162	-33.45
207.381	-8.87
207.599	-45.74
207.818	64.85
208.037	-6.83
208.255	-31.4
208.474	-43.69
208.693	-6.83
208.911	-19.11
209.13	3.41
209.349	40.28
209.567	32.08
209.786	17.75
210.005	97.62
210.223	13.65
210.442	-47.79
210.661	62.8
210.879	-15.02
211.098	-0.68
211.316	21.85
211.535	54.61
211.753	9.56
211.972	-119.46
212.191	-4.78
212.409	19.8
212.628	-60.07
212.846	81.24
213.065	-4.78
213.283	109.91
213.502	40.28
213.72	30.04
213.938	56.66
214.157	-17.07
214.375	-19.11
214.594	19.8
214.812	-4.78
215.031	48.47
215.249	-17.07
215.467	7.51
215.686	23.89
215.904	54.61
216.122	7.51
216.341	107.86
216.559	5.46
216.778	17.75
216.996	34.13
217.214	75.09
217.432	-17.07
217.651	-45.74
217.869	-2.73
218.087	13.65
218.306	-17.07
218.524	-8.87
218.742	-41.64
218.96	71
219.179	9.56
219.397	-8.87
219.615	118.1
219.833	-8.87
220.051	-72.36
220.27	-8.87
220.488	81.24
220.706	62.8
220.924	-45.74
221.142	-0.68
221.36	-45.74
221.578	50.52
221.796	44.37
222.015	56.66
222.233	17.75
222.451	21.85
222.669	5.46
222.887	3.41
223.105	99.67
223.323	-12.97
223.541	-31.4
223.759	66.9
223.977	9.56
224.195	81.24
224.413	-10.92
224.631	50.52
224.849	44.37
225.067	36.18
225.285	62.8
225.503	17.75
225.721	-92.84
225.939	54.61
226.157	54.61
226.375	87.38
226.592	-0.68
226.81	-72.36
227.028	11.61
227.246	116.05
227.464	38.23
227.682	101.72
227.9	54.61
228.117	-8.87
228.335	48.47
228.553	44.37
228.771	-8.87
228.989	-43.69
229.206	34.13
229.424	27.99
229.642	40.28
229.86	-15.02
230.077	32.08
230.295	-15.02
230.513	-66.22
230.731	73.04
230.948	62.8
231.166	81.24
231.384	-15.02
231.601	19.8
231.819	30.04
232.037	-55.98
232.254	-31.4
232.472	23.89
232.689	15.7
232.907	15.7
233.125	52.56
233.342	71
233.56	-10.92
233.777	79.19
233.995	-29.35
234.213	-2.73
234.43	36.18
234.648	1.37
234.865	17.75
235.083	44.37
235.3	44.37
235.518	9.56
235.735	19.8
235.953	40.28
236.17	-12.97
236.388	-45.74
236.605	42.32
236.822	54.61
237.04	66.9
237.257	54.61
237.475	42.32
237.692	68.95
237.909	54.61
238.127	-37.55
238.344	75.09
238.562	1.37
238.779	-62.12
238.996	17.75
239.214	25.94
239.431	38.23
239.648	1.37
239.865	75.09
240.083	27.99
240.3	1.37
240.517	-15.02
240.735	48.47
240.952	89.43
241.169	-23.21
241.386	-37.55
241.603	-0.68
241.821	3.41
242.038	54.61
242.255	87.38
242.472	30.04
242.689	30.04
242.907	-19.11
243.124	-43.69
243.341	7.51
243.558	-12.97
243.775	-41.64
243.992	-15.02
244.209	25.94
244.426	114
244.643	19.8
244.86	-23.21
245.078	-47.79
245.295	89.43
245.512	-6.83
245.729	60.76
245.946	-8.87
246.163	27.99
246.38	27.99
246.597	60.76
246.814	5.46
247.031	-2.73
247.248	-29.35
247.464	30.04
247.681	17.75
247.898	64.85
248.115	48.47
248.332	54.61
248.549	89.43
248.766	97.62
248.983	46.42
249.2	-72.36
249.417	15.7
249.633	64.85
249.85	5.46
250.067	-23.21
250.284	25.94
250.501	64.85
250.717	-27.31
250.934	-51.88
251.151	-90.79
251.368	-76.46
251.585	46.42
251.801	87.38
252.018	60.76
252.235	103.76
252.451	-23.21
252.668	68.95
252.885	-0.68
253.102	21.85
253.318	58.71
253.535	89.43
253.752	-43.69
253.968	42.32
254.185	-37.55
254.401	46.42
254.618	36.18
254.835	-19.11
255.051	32.08
255.268	27.99
255.484	15.7
255.701	27.99
255.917	25.94
256.134	-33.45
256.351	95.57
256.567	17.75
256.784	15.7
257	-105.13
257.217	122.2
257.433	132.44
257.65	21.85
257.866	32.08
258.082	-17.07
258.299	-17.07
258.515	19.8
258.732	-41.64
258.948	36.18
259.165	54.61
259.381	-27.31
259.597	48.47
259.814	-15.02
260.03	-21.16
260.246	11.61
260.463	32.08
260.679	114
260.895	-23.21
261.112	52.56
261.328	15.7
261.544	-0.68
261.761	75.09
261.977	-12.97
262.193	-25.26
262.409	120.15
262.626	19.8
262.842	62.8
263.058	27.99
263.274	7.51
263.49	40.28
263.707	111.96
263.923	9.56
264.139	23.89
264.355	44.37
264.571	62.8
264.787	109.91
265.004	46.42
265.22	17.75
265.436	-4.78
265.652	-29.35
265.868	107.86
266.084	52.56
266.3	-19.11
266.516	-35.5
266.732	40.28
266.948	56.66
267.164	79.19
267.38	-8.87
267.596	3.41
267.812	83.28
268.028	3.41
268.244	21.85
268.46	-6.83
268.676	5.46
268.892	1.37
269.108	-66.22
269.324	-23.21
269.54	-107.18
269.756	38.23
269.972	46.42
270.188	3.41
270.403	40.28
270.619	-68.27
270.835	-45.74
271.051	32.08
271.267	-21.16
271.483	13.65
271.698	5.46
271.914	48.47
272.13	-45.74
272.346	95.57
272.562	44.37
272.777	46.42
272.993	44.37
273.209	40.28
273.425	32.08
273.64	21.85
273.856	-4.78
274.072	46.42
274.287	-39.59
274.503	-10.92
274.719	17.75
274.934	56.66
275.15	-62.12
275.366	46.42
275.581	-23.21
275.797	50.52
276.012	52.56
276.228	23.89
276.444	-4.78
276.659	52.56
276.875	36.18
277.09	58.71
277.306	25.94
277.521	21.85
277.737	-15.02
277.952	30.04
278.168	-45.74
278.383	-4.78
278.599	46.42
278.814	38.23
279.03	7.51
279.245	19.8
279.461	-4.78
279.676	9.56
279.892	30.04
280.107	-25.26
280.322	-33.45
280.538	32.08
280.753	62.8
280.969	89.43
281.184	40.28
281.399	58.71
281.615	38.23
281.83	40.28
282.045	-68.27
282.26	15.7
282.476	-2.73
282.691	79.19
282.906	56.66
283.122	-43.69
283.337	1.37
283.552	-31.4
283.767	1.37
283.983	-45.74
284.198	64.85
284.413	48.47
284.628	-49.83
284.843	54.61
285.058	60.76
285.274	25.94
285.489	21.85
285.704	44.37
285.919	21.85
286.134	30.04
286.349	-49.83
286.564	32.08
286.779	124.24
286.995	-55.98
287.21	27.99
287.425	-23.21
287.64	-6.83
287.855	9.56
288.07	32.08
288.285	71
288.5	60.76
288.715	-37.55
288.93	-2.73
289.145	23.89
289.36	68.95
289.575	-17.07
289.79	25.94
290.004	32.08
290.219	101.72
290.434	21.85
290.649	56.66
290.864	66.9
291.079	13.65
291.294	13.65
291.509	71
291.724	-19.11
291.938	30.04
292.153	58.71
292.368	48.47
292.583	87.38
292.798	7.51
293.012	89.43
293.227	25.94
293.442	32.08
293.657	42.32
293.871	114
294.086	32.08
294.301	32.08
294.516	124.24
294.73	44.37
294.945	1.37
295.16	-4.78
295.374	36.18
295.589	40.28
295.804	13.65
296.018	30.04
296.233	44.37
296.447	52.56
296.662	38.23
296.877	105.81
297.091	79.19
297.306	58.71
297.52	56.66
297.735	44.37
297.949	23.89
298.164	30.04
298.378	-37.55
298.593	44.37
298.807	-58.03
299.022	56.66
299.236	13.65
299.451	27.99
299.665	-35.5
299.88	34.13
300.094	-29.35
300.309	95.57
300.523	-2.73
300.737	21.85
300.952	42.32
301.166	19.8
301.381	11.61
301.595	-35.5
301.809	9.56
302.024	-21.16
302.238	3.41
302.452	97.62
302.667	68.95
302.881	48.47
303.095	62.8
303.309	-25.26
303.524	50.52
303.738	21.85
303.952	81.24
304.166	56.66
304.381	17.75
304.595	56.66
304.809	54.61
305.023	34.13
305.237	-45.74
305.452	46.42
305.666	13.65
305.88	9.56
306.094	5.46
306.308	-15.02
306.522	-12.97
306.736	83.28
306.95	27.99
307.164	36.18
307.379	-0.68
307.593	64.85
307.807	89.43
308.021	75.09
308.235	44.37
308.449	87.38
308.663	-35.5
308.877	124.24
309.091	23.89
309.305	15.7
309.519	-51.88
309.733	-0.68
309.947	-12.97
310.161	11.61
310.374	50.52
310.588	42.32
310.802	7.51
311.016	-12.97
311.23	32.08
311.444	-4.78
311.658	34.13
311.872	87.38
312.085	30.04
312.299	81.24
312.513	-2.73
312.727	42.32
312.941	77.14
313.154	36.18
313.368	-35.5
313.582	60.76
313.796	71
314.009	42.32
314.223	-19.11
314.437	3.41
314.651	-6.83
314.864	-10.92
315.078	-0.68
315.292	-27.31
315.505	23.89
315.719	-6.83
315.933	40.28
316.146	-41.64
316.36	-2.73
316.573	71
316.787	52.56
317.001	50.52
317.214	19.8
317.428	87.38
317.641	23.89
317.855	62.8
318.068	103.76
318.282	-68.27
318.495	122.2
318.709	87.38
318.922	21.85
319.136	107.86
319.349	103.76
319.563	66.9
319.776	58.71
319.99	5.46
320.203	19.8
320.417	132.44
320.63	34.13
320.843	120.15
321.057	54.61
321.27	-12.97
321.483	50.52
321.697	38.23
321.91	64.85
322.124	19.8
322.337	81.24
322.55	46.42
322.763	93.52
322.977	15.7
323.19	44.37
323.403	13.65
323.617	34.13
323.83	36.18
324.043	62.8
324.256	-4.78
324.469	-35.5
324.683	95.57
324.896	79.19
325.109	44.37
325.322	-10.92
325.535	105.81
325.748	30.04
325.962	36.18
326.175	71
326.388	19.8
326.601	48.47
326.814	-15.02
327.027	25.94
327.24	91.48
327.453	23.89
327.666	95.57
327.879	185.68
328.092	-8.87
328.305	1.37
328.518	9.56
328.731	19.8
328.944	27.99
329.157	5.46
329.37	15.7
329.583	122.2
329.796	21.85
330.009	-8.87
330.222	19.8
330.435	38.23
330.648	25.94
330.861	64.85
331.073	7.51
331.286	-17.07
331.499	71
331.712	-23.21
331.925	36.18
332.138	93.52
332.35	-4.78
332.563	50.52
332.776	9.56
332.989	-2.73
333.202	25.94
333.414	32.08
333.627	73.04
333.84	30.04
334.053	13.65
334.265	60.76
334.478	-0.68
334.691	-17.07
334.903	11.61
335.116	-15.02
335.329	11.61
335.541	40.28
335.754	105.81
335.966	-15.02
336.179	32.08
336.392	73.04
336.604	77.14
336.817	50.52
337.029	50.52
337.242	101.72
337.454	48.47
337.667	34.13
337.88	81.24
338.092	46.42
338.305	50.52
338.517	-17.07
338.729	66.9
338.942	52.56
339.154	25.94
339.367	38.23
339.579	56.66
339.792	21.85
340.004	32.08
340.217	58.71
340.429	34.13
340.641	17.75
340.854	-23.21
341.066	7.51
341.278	87.38
341.491	32.08
341.703	50.52
341.915	54.61
342.128	48.47
342.34	11.61
342.552	-27.31
342.764	40.28
342.977	23.89
343.189	77.14
343.401	46.42
343.613	-43.69
343.826	36.18
344.038	21.85
344.25	87.38
344.462	-62.12
344.674	62.8
344.886	83.28
345.099	87.38
345.311	75.09
345.523	-39.59
345.735	15.7
345.947	23.89
346.159	15.7
346.371	15.7
346.583	9.56
346.795	93.52
347.007	71
347.219	34.13
347.431	30.04
347.643	25.94
347.855	-70.31
348.067	-0.68
348.279	13.65
348.491	91.48
348.703	32.08
348.915	13.65
349.127	68.95
349.339	58.71
349.551	40.28
349.763	36.18
349.975	42.32
350.187	87.38
350.399	30.04
350.61	27.99
350.822	32.08
351.034	17.75
351.246	38.23
351.458	58.71
351.669	77.14
351.881	19.8
352.093	83.28
352.305	81.24
352.517	-37.55
352.728	58.71
352.94	13.65
353.152	32.08
353.363	-55.98
353.575	99.67
353.787	79.19
353.999	34.13
354.21	77.14
354.422	32.08
354.633	68.95
354.845	5.46
355.057	62.8
355.268	68.95
355.48	50.52
355.692	66.9
355.903	27.99
356.115	85.33
356.326	-8.87
356.538	48.47
356.749	105.81
356.961	25.94
357.172	11.61
357.384	-4.78
357.595	32.08
357.807	-12.97
358.018	-8.87
358.23	56.66
358.441	101.72
358.653	7.51
358.864	-0.68
359.075	27.99
359.287	71
359.498	56.66
359.709	73.04
359.921	1.37
360.132	44.37
360.344	64.85
360.555	-17.07
360.766	38.23
360.977	130.39
361.189	44.37
361.4	66.9
361.611	77.14
361.823	75.09
362.034	87.38
362.245	23.89
362.456	-10.92
362.667	42.32
362.879	-35.5
363.09	-4.78
363.301	89.43
363.512	48.47
363.723	5.46
363.935	-64.17
364.146	68.95
364.357	38.23
364.568	60.76
364.779	3.41
364.99	60.76
365.201	-21.16
365.412	81.24
365.623	30.04
365.834	11.61
366.045	7.51
366.256	77.14
366.467	15.7
366.678	11.61
366.889	-6.83
367.1	-12.97
367.311	23.89
367.522	7.51
367.733	23.89
367.944	21.85
368.155	-8.87
368.366	48.47
368.577	-10.92
368.788	111.96
368.999	30.04
369.209	40.28
369.42	77.14
369.631	87.38
369.842	11.61
370.053	-12.97
370.264	89.43
370.474	13.65
370.685	46.42
370.896	44.37
371.107	44.37
371.317	99.67
371.528	-4.78
371.739	95.57
371.95	79.19
372.16	73.04
372.371	5.46
372.582	97.62
372.792	79.19
373.003	11.61
373.214	23.89
373.424	17.75
373.635	23.89
373.846	40.28
374.056	114
374.267	73.04
374.477	-12.97
374.688	-8.87
374.898	48.47
375.109	-19.11
375.319	77.14
375.53	13.65
375.74	52.56
375.951	19.8
376.161	-51.88
376.372	130.39
376.582	62.8
376.793	73.04
377.003	56.66
377.214	101.72
377.424	97.62
377.635	111.96
377.845	71
378.055	114
378.266	-49.83
378.476	40.28
378.686	54.61
378.897	60.76
379.107	9.56
379.317	46.42
379.528	60.76
379.738	21.85
379.948	15.7
380.158	114
380.369	54.61
380.579	19.8
380.789	19.8
380.999	13.65
381.21	-35.5
381.42	111.96
381.63	95.57
381.84	64.85
382.05	60.76
382.261	97.62
382.471	30.04
382.681	32.08
382.891	5.46
383.101	27.99
383.311	36.18
383.521	25.94
383.731	50.52
383.941	71
384.151	21.85
384.361	27.99
384.571	62.8
384.781	-8.87
384.991	42.32
385.201	66.9
385.411	50.52
385.621	17.75
385.831	30.04
386.041	40.28
386.251	32.08
386.461	138.58
386.671	48.47
386.881	40.28
387.091	15.7
387.301	32.08
387.511	50.52
387.72	71
387.93	97.62
388.14	79.19
388.35	99.67
388.56	81.24
388.769	27.99
388.979	-2.73
389.189	-17.07
389.399	44.37
389.609	95.57
389.818	132.44
390.028	50.52
390.238	85.33
390.447	54.61
390.657	27.99
390.867	46.42
391.076	34.13
391.286	15.7
391.496	-23.21
391.705	-10.92
391.915	114
392.125	122.2
392.334	109.91
392.544	95.57
392.753	34.13
392.963	54.61
393.172	111.96
393.382	7.51
393.591	116.05
393.801	5.46
394.01	148.82
394.22	58.71
394.429	73.04
394.639	83.28
394.848	142.68
395.058	71
395.267	-12.97
395.477	87.38
395.686	79.19
395.895	134.48
396.105	111.96
396.314	103.76
396.524	50.52
396.733	66.9
396.942	85.33
397.152	120.15
397.361	62.8
397.57	77.14
397.78	83.28
397.989	34.13
398.198	118.1
398.407	81.24
398.617	85.33
398.826	91.48
399.035	85.33
399.244	171.35
399.453	146.77
399.663	64.85
399.872	187.73
400.081	60.76
400.29	163.15
400.499	89.43
400.708	175.44
400.917	109.91
401.127	44.37
401.336	87.38
401.545	99.67
401.754	210.26
401.963	138.58
402.172	114
402.381	111.96
402.59	68.95
402.799	105.81
403.008	66.9
403.217	177.49
403.426	99.67
403.635	97.62
403.844	93.52
404.053	118.1
404.262	146.77
404.471	210.26
404.68	159.06
404.888	107.86
405.097	200.02
405.306	193.87
405.515	152.92
405.724	130.39
405.933	212.31
406.142	167.25
406.35	243.03
406.559	128.34
406.768	103.76
406.977	202.07
407.185	161.11
407.394	243.03
407.603	183.63
407.812	136.53
408.02	214.35
408.229	281.94
408.438	183.63
408.646	257.36
408.855	253.27
409.064	228.69
409.272	275.79
409.481	267.6
409.69	302.42
409.898	269.65
410.107	290.13
410.315	347.47
410.524	290.13
410.733	314.7
410.941	310.61
411.15	357.71
411.358	363.86
411.567	456.01
411.775	433.49
411.984	357.71
412.192	456.01
412.401	415.06
412.609	533.84
412.818	529.74
413.026	494.93
413.234	570.7
413.443	546.12
413.651	529.74
413.86	595.28
414.068	628.04
414.276	673.1
414.485	628.04
414.693	697.67
414.901	634.19
415.11	681.29
415.318	699.72
415.526	744.78
415.734	793.93
415.943	834.89
416.151	755.02
416.359	814.41
416.567	953.67
416.776	943.43
416.984	984.39
417.192	980.29
417.4	998.73
417.608	945.48
417.817	1056.07
418.025	1082.69
418.233	1183.04
418.441	1176.9
418.649	1219.91
418.857	1293.63
419.065	1357.12
419.273	1242.43
419.481	1344.83
419.689	1488.19
419.897	1518.91
420.105	1637.69
420.313	1688.89
420.521	1703.23
420.729	1785.15
420.937	1731.9
421.145	1867.06
421.353	1850.68
421.561	1977.66
421.769	2018.61
421.977	2086.2
422.185	2176.31
422.393	2268.47
422.601	2274.61
422.809	2368.82
423.017	2454.83
423.224	2452.78
423.432	2719.02
423.64	2532.65
423.848	2815.27
424.056	2807.08
424.263	2913.58
424.471	2848.04
424.679	3024.17
424.887	3220.77
425.094	3308.83
425.302	3185.96
425.51	3542.3
425.718	3542.3
425.925	3568.93
426.133	3767.58
426.341	3829.02
426.548	4148.5
426.756	4238.61
426.964	4128.02
427.171	4281.62
427.379	4465.94
427.586	4451.6
427.794	4726.03
428.001	4721.93
428.209	5137.67
428.417	4990.22
428.624	5455.11
428.832	5287.17
429.039	5401.86
429.247	5418.24
429.454	5965.05
429.662	6270.2
429.869	5911.8
430.076	6313.2
430.284	6065.4
430.491	6321.4
430.699	6808.81
430.906	6747.37
431.114	6968.55
431.321	7193.83
431.528	7251.17
431.736	7744.74
431.943	7978.2
432.15	7832.8
432.358	8010.97
432.565	8490.2
432.772	8281.3
432.979	8725.71
433.187	8842.45
433.394	8834.25
433.601	9467.08
433.808	9612.48
434.016	9651.39
434.223	9835.71
434.43	10355.9
434.637	10181.82
434.844	10986.67
435.052	11142.32
435.259	10851.5
435.466	11320.49
435.673	11115.69
435.88	11764.9
436.087	12588.18
436.294	12254.36
436.501	12203.16
436.708	12299.42
436.915	12766.35
437.122	13419.66
437.329	13227.15
437.537	13481.1
437.743	14115.97
437.95	13872.26
438.157	14453.88
438.364	14718.07
438.571	14902.39
438.778	15193.2
438.985	16409.69
439.192	15983.71
439.399	16315.48
439.606	15963.23
439.813	16936.02
440.02	17980.48
440.227	17300.56
440.433	17423.44
440.64	18465.85
440.847	17853.51
441.054	18314.3
441.261	19581.99
441.467	19184.69
441.674	19856.42
441.881	20249.63
442.088	20417.57
442.294	20177.95
442.501	20669.47
442.708	21304.34
442.914	21902.34
443.121	22789.11
443.328	22121.48
443.534	23942.12
443.741	23122.93
443.948	22877.18
444.154	24443.87
444.361	24495.07
444.568	24771.55
444.774	24306.66
444.981	24890.33
445.187	25529.3
445.394	26776.51
445.6	26100.68
445.807	28597.15
446.013	27661.23
446.22	28085.16
446.426	29004.7
446.633	29072.28
446.839	31011.71
447.046	29098.91
447.252	31202.17
447.459	30987.13
447.665	30626.69
447.871	32138.09
448.078	33674.07
448.284	31787.89
448.491	32834.4
448.697	34067.28
448.903	34329.42
449.11	34614.09
449.316	34075.47
449.522	34988.86
449.728	35924.79
449.935	36127.53
450.141	35756.85
450.347	36598.57
450.553	35439.42
450.76	36002.61
450.966	37223.2
451.172	36875.04
451.378	37708.57
451.584	36969.25
451.791	37817.11
451.997	37231.39
452.203	38636.3
452.409	38546.19
452.615	38107.92
452.821	36877.09
453.027	36444.97
453.233	38568.71
453.44	36967.2
453.646	37370.65
453.852	37163.81
454.058	38044.43
454.264	36526.89
454.47	37886.74
454.676	36473.64
454.882	37989.14
455.088	34857.79
455.294	35093.31
455.5	35701.56
455.705	35986.22
455.911	34808.64
456.117	33741.65
456.323	33579.86
456.529	32097.13
456.735	33301.34
456.941	32664.42
457.147	31859.57
457.352	30784.38
457.558	30520.2
457.764	31075.2
457.97	30006.16
458.176	29578.13
458.381	29139.86
458.587	27880.36
458.793	27884.46
458.999	26596.29
459.204	28525.47
459.41	27728.81
459.616	25732.04
459.821	26180.55
460.027	25625.55
460.233	25175
460.438	23901.16
460.644	24531.93
460.85	23262.19
461.055	22807.55
461.261	22895.61
461.466	21066.77
461.672	20444.19
461.878	21582.86
462.083	20331.55
462.289	19819.56
462.494	19809.32
462.7	18930.74
462.905	18428.99
463.111	19213.36
463.316	19393.58
463.522	18961.46
463.727	18932.79
463.932	18684.98
464.138	18775.09
464.343	18955.32
464.549	17923.14
464.754	18707.51
464.959	18588.73
465.165	18291.77
465.37	17691.72
465.575	17130.58
465.781	17771.59
465.986	17945.67
466.191	17202.25
466.397	16833.62
466.602	16360.54
466.807	16751.7
467.012	16948.31
467.218	16710.74
467.423	16489.56
467.628	16467.03
467.833	17304.65
468.038	16682.07
468.244	16282.72
468.449	16925.78
468.654	16219.23
468.859	16178.27
469.064	16039.01
469.269	15389.8
469.474	15666.28
469.679	15783.01
469.885	15457.39
470.09	15584.36
470.295	15600.74
470.5	15314.03
470.705	15584.36
470.91	15105.13
471.115	14953.59
471.32	14994.54
471.525	14886
471.73	14804.08
471.935	14625.91
472.139	14097.53
472.344	14091.39
472.549	14255.23
472.754	14115.97
472.959	13497.48
473.164	13493.38
473.369	13204.62
473.574	13681.8
473.778	13763.72
473.983	13327.5
474.188	13520.01
474.393	12756.11
474.598	12897.42
474.802	12860.56
475.007	12745.87
475.212	12666
475.417	11867.3
475.621	12039.33
475.826	12141.72
476.031	11818.15
476.235	11734.18
476.44	11984.03
476.645	11521.19
476.849	11711.65
477.054	11517.09
477.259	11451.56
477.463	11465.89
477.668	10937.52
477.872	11269.29
478.077	11328.68
478.282	10685.62
478.486	10695.86
478.691	10722.48
478.895	10693.81
479.1	10607.8
479.304	10566.84
479.509	10388.66
479.713	10509.49
479.918	10167.48
480.122	10198.2
480.326	10263.74
480.531	10380.47
480.735	10110.14
480.94	10013.88
481.144	10241.21
481.348	9942.21
481.553	10099.9
481.757	9706.69
481.961	9931.97
482.166	9983.17
482.37	9931.97
482.574	10015.93
482.778	9733.31
482.983	10101.95
483.187	9974.97
483.391	9927.87
483.595	9690.31
483.8	9835.71
484.004	9747.65
484.208	9946.3
484.412	9882.81
484.616	9845.95
484.821	9979.07
485.025	9639.11
485.229	9774.27
485.433	9854.14
485.637	9893.05
485.841	9821.38
486.045	9792.7
486.249	9934.01
486.453	9542.85
486.657	9917.63
486.861	9917.63
487.065	9923.77
487.269	9772.22
487.473	9755.84
487.677	9845.95
487.881	10050.75
488.085	9721.03
488.289	9891.01
488.493	9866.43
488.697	9870.53
488.901	9895.1
489.105	9901.25
489.309	9938.11
489.512	9864.38
489.716	9964.73
489.92	10013.88
490.124	9936.06
490.328	10126.52
490.531	9919.68
490.735	10233.02
490.939	10120.38
491.143	10181.82
491.346	10175.67
491.55	10419.38
491.754	10380.47
491.958	10245.31
492.161	10284.22
492.365	10362.04
492.569	10368.18
492.772	10312.89
492.976	10517.68
493.18	10669.23
493.383	10505.4
493.587	10822.83
493.79	10898.61
493.994	10730.67
494.197	10974.38
494.401	10914.99
494.605	11072.68
494.808	11107.5
495.012	11375.78
495.215	11361.45
495.419	11263.15
495.622	11230.38
495.825	11578.53
496.029	11539.62
496.232	11693.22
496.436	11707.55
496.639	12031.13
496.843	11828.38
497.046	11936.93
497.249	12219.55
497.453	12278.94
497.656	12696.72
497.859	12356.76
498.063	12616.85
498.266	12903.57
498.469	12770.45
498.673	12960.91
498.876	12981.39
499.079	13261.96
499.282	13425.8
499.485	13472.9
499.689	13593.73
499.892	13704.32
500.095	13937.79
500.298	14216.32
500.501	13845.63
500.705	14505.08
500.908	14601.33
501.111	14832.76
501.314	14634.1
501.517	14851.19
501.72	15137.9
501.923	15156.33
502.126	15408.23
502.329	15778.92
502.532	15660.13
502.735	15891.55
502.938	16260.19
503.141	16182.37
503.344	16352.35
503.547	16286.81
503.75	16811.09
503.953	17079.38
504.156	17114.19
504.359	17323.08
504.562	17298.51
504.765	17710.15
504.968	17677.38
505.17	18224.19
505.373	18093.12
505.576	18613.31
505.779	18760.76
505.982	18625.59
506.185	19078.19
506.387	19125.3
506.59	19342.38
506.793	19743.78
506.996	19291.18
507.198	20169.76
507.401	19805.22
507.604	20016.16
507.807	20311.07
508.009	20964.37
508.212	20896.79
508.415	21027.86
508.617	21472.27
508.82	21470.22
509.022	21482.51
509.225	21853.19
509.428	22066.18
509.63	22230.02
509.833	22111.24
510.035	23077.88
510.238	22516.73
510.44	23012.34
510.643	23237.62
510.845	23137.27
511.048	23307.25
511.25	23712.75
511.453	24097.77
511.655	24540.13
511.858	24351.71
512.06	24576.99
512.262	24810.46
512.465	24593.37
512.667	25199.57
512.87	25541.58
513.072	25480.14
513.274	26121.16
513.477	26067.91
513.679	26190.79
513.881	26639.29
514.084	26954.68
514.286	26868.67
514.488	26954.68
514.69	27794.35
514.893	27630.51
515.095	28103.59
515.297	27839.4
515.499	28255.14
515.701	28461.99
515.904	28945.31
516.106	28957.6
516.308	29291.41
516.51	29539.22
516.712	29653.9
516.914	29926.28
517.116	30294.92
517.318	30335.88
517.52	30303.11
517.722	30446.47
517.925	30845.82
518.127	31347.57
518.329	31511.41
518.531	31341.43
518.733	32064.36
518.935	32611.17
519.136	32084.84
519.338	32721.76
519.54	33006.43
519.742	32918.37
519.944	33008.48
520.146	33418.07
520.348	33862.48
520.55	33934.16
520.752	33921.87
520.954	34872.13
521.155	34386.76
521.357	34468.68
521.559	35318.59
521.761	35447.61
521.963	35185.47
522.164	35326.78
522.366	35689.27
522.568	35910.45
522.77	35853.11
522.971	36520.74
523.173	36459.31
523.375	36385.58
523.576	36506.41
523.778	36391.72
523.98	37120.8
524.181	37081.89
524.383	37319.45
524.584	37362.46
524.786	37806.87
524.988	37569.3
525.189	37917.46
525.391	37987.09
525.592	38046.48
525.794	38406.92
525.995	38613.77
526.197	38568.71
526.398	38460.17
526.6	39000.83
526.801	38509.32
527.003	39265.02
527.204	39052.03
527.406	38941.44
527.607	39287.55
527.808	39684.86
528.01	38847.24
528.211	39367.42
528.412	40325.87
528.614	40133.36
528.815	39785.21
529.016	40141.55
529.218	39828.21
529.419	40239.86
529.62	40274.67
529.822	39908.08
530.023	39951.09
530.224	39973.62
530.425	40116.98
530.626	39889.65
530.828	40102.64
531.029	40764.14
531.23	40286.96
531.431	40250.1
531.632	40125.17
531.833	40653.54
532.035	40557.29
532.236	40448.75
532.437	40710.89
532.638	40200.94
532.839	40614.63
533.04	40753.9
533.241	40545
533.442	41169.63
533.643	40588.01
533.844	40841.96
534.045	40897.25
534.246	40385.26
534.447	40964.84
534.648	40338.16
534.849	40710.89
535.05	40516.33
535.251	40524.52
535.451	40530.67
535.652	40665.83
535.853	40448.75
536.054	40981.22
536.255	40952.55
536.456	40207.09
536.657	41118.43
536.857	40475.37
537.058	40020.72
537.259	40897.25
537.46	40995.56
537.66	40628.97
537.861	40702.7
538.062	40446.7
538.263	40356.59
538.463	40508.14
538.664	40581.87
538.865	40714.98
539.065	40676.07
539.266	40614.63
539.466	40444.65
539.667	39860.98
539.868	41005.8
540.068	40401.64
540.269	40581.87
540.469	40559.34
540.67	40272.62
540.87	40274.67
541.071	40430.32
541.271	40301.29
541.472	40305.39
541.672	40202.99
541.873	40006.39
542.073	39938.8
542.274	40760.04
542.474	40145.65
542.675	39582.46
542.875	40354.54
543.075	40246
543.276	39869.17
543.476	40381.17
543.676	40157.94
543.877	40329.97
544.077	40098.55
544.277	40059.63
544.478	40162.03
544.678	40293.1
544.878	40383.21
545.078	39975.67
545.279	39867.12
545.479	39912.18
545.679	40026.87
545.879	39961.33
546.079	40039.15
546.28	39756.53
546.48	39549.69
546.68	39877.36
546.88	39998.19
547.08	39699.19
547.28	39830.26
547.48	39596.79
547.68	39944.95
547.88	39678.71
548.081	39813.88
548.281	39865.08
548.481	39801.59
548.681	40037.11
548.881	39803.64
549.081	39824.12
549.28	39703.29
549.48	39928.56
549.68	39652.09
549.88	40098.55
550.08	39508.73
550.28	39799.54
550.48	39637.75
550.68	39840.5
550.88	39580.41
551.08	39576.31
551.279	39664.38
551.479	39191.3
551.679	39928.56
551.879	39432.96
552.079	39748.34
552.278	39506.68
552.478	39654.14
552.678	39088.9
552.878	39115.52
553.077	39230.21
553.277	39068.42
553.477	39713.53
553.676	39232.25
553.876	39529.21
554.076	39305.98
554.275	39265.02
554.475	39099.14
554.674	39015.17
554.874	39142.14
555.074	38716.17
555.273	39480.06
555.473	39138.05
555.672	38951.68
555.872	39019.27
556.071	39154.43
556.271	38963.97
556.47	38740.74
556.67	38787.85
556.869	38714.12
557.068	38695.69
557.268	38689.54
557.467	38593.29
557.667	38763.27
557.866	38642.44
558.065	38738.69
558.265	38441.74
558.464	38388.49
558.663	38974.21
558.863	38314.76
559.062	38646.54
559.261	38044.43
559.461	39000.83
559.66	38222.61
559.859	38193.93
560.058	37860.12
560.258	38263.57
560.457	37978.9
560.656	38255.37
560.855	38228.75
561.054	38517.51
561.253	37939.99
561.453	38175.5
561.652	38513.42
561.851	38118.16
562.05	37718.81
562.249	37962.51
562.448	37825.3
562.647	37876.5
562.846	37729.05
563.045	37767.96
563.244	37739.29
563.443	37978.9
563.642	37243.68
563.841	37471
564.04	37335.84
564.239	37776.15
564.438	37471
564.637	37352.22
564.836	37276.44
565.035	36854.56
565.234	37014.3
565.432	36899.62
565.631	37081.89
565.83	37206.81
566.029	37133.09
566.228	36754.21
566.427	36789.03
566.625	36887.33
566.824	36786.98
567.023	36885.28
567.222	36289.32
567.42	36999.97
567.619	36778.79
567.818	36463.4
568.016	36668.2
568.215	36647.72
568.414	36105.01
568.612	36782.88
568.811	36080.43
569.01	36137.77
569.208	35818.29
569.407	36444.97
569.605	35935.02
569.804	36299.56
570.002	35758.9
570.201	36391.72
570.4	35785.52
570.598	35945.26
570.797	35730.23
570.995	35648.31
571.193	35232.57
571.392	35799.86
571.59	35201.85
571.789	35789.62
571.987	35468.09
572.186	35435.32
572.384	35277.63
572.582	35330.87
572.781	35400.51
572.979	34863.94
573.177	35009.34
573.376	35238.72
573.574	34339.66
573.772	35038.01
573.971	34689.86
574.169	34833.22
574.367	34171.72
574.565	34952
574.763	34440.01
574.962	34401.1
575.16	34376.52
575.358	34505.54
575.556	33692.5
575.754	34542.41
575.952	33971.02
576.151	34431.82
576.349	33911.63
576.547	34106.19
576.745	33872.72
576.943	34079.57
577.141	33741.65
577.339	33798.99
577.537	33755.99
577.735	33510.23
577.933	33608.53
578.131	33776.47
578.329	33444.69
578.527	32971.61
578.725	33313.62
578.923	33266.52
579.121	32940.89
579.319	32961.37
579.516	33270.62
579.714	33002.33
579.912	33352.54
580.11	32824.16
580.308	32693.09
580.506	32662.37
580.704	32387.94
580.901	32611.17
581.099	32848.74
581.297	32355.18
581.495	32129.9
581.692	32455.53
581.89	32195.43
582.088	32580.45
582.285	31882.09
582.483	32291.69
582.681	32195.43
582.878	32076.65
583.076	31605.62
583.274	31966.06
583.471	31579
583.669	31681.39
583.866	31396.73
584.064	31413.11
584.262	31103.87
584.459	31337.34
584.657	31247.22
584.854	31357.81
585.052	30909.31
585.249	31312.76
585.447	30952.32
585.644	30518.15
585.841	31075.2
586.039	30839.68
586.236	30471.04
586.434	30716.8
586.631	30423.94
586.828	30290.82
587.026	30290.82
587.223	30376.84
587.42	30081.93
587.618	30319.49
587.815	29991.82
588.012	29946.76
588.21	29574.03
588.407	30149.51
588.604	29750.16
588.801	29524.88
588.999	29739.92
589.196	29182.87
589.393	29418.39
589.59	29377.43
589.787	29143.96
589.984	29070.23
590.182	28953.5
590.379	29062.04
590.576	28930.97
590.773	28664.74
590.97	28783.52
591.167	28986.27
591.364	28521.38
591.561	28617.63
591.758	28570.53
591.955	28287.91
592.152	28582.82
592.349	27804.59
592.546	28406.69
592.743	28380.07
592.94	27925.42
593.137	27812.78
593.334	27964.33
593.531	27472.82
593.727	28081.06
593.924	27546.54
594.121	27286.45
594.318	27810.73
594.515	27265.97
594.712	27603.89
594.908	27302.84
595.105	27116.47
595.302	27231.16
595.499	27214.77
595.696	26911.67
595.892	26780.6
596.089	27116.47
596.286	26579.9
596.482	26463.17
596.679	26741.69
596.876	26639.29
597.072	26266.56
597.269	26229.7
597.466	25904.07
597.662	26459.07
597.859	26198.98
598.055	26407.87
598.252	25861.07
598.448	26168.26
598.645	26074.06
598.841	25646.03
599.038	26065.86
599.234	25701.33
599.431	25596.88
599.627	25500.62
599.824	25379.79
600.02	25076.69
600.217	25359.31
600.413	25367.51
600.609	25025.5
600.806	25250.77
601.002	24849.37
601.198	25164.76
601.395	24869.85
601.591	24706.01
601.787	24718.3
601.984	24873.95
602.18	24787.93
602.376	24531.93
602.572	24460.26
602.769	24191.97
602.965	24400.86
603.161	24562.65
603.357	23950.31
603.553	23962.6
603.75	24374.24
603.946	23653.36
604.142	23944.17
604.338	23913.45
604.534	23870.44
604.73	23587.82
604.926	23495.66
605.122	23618.54
605.318	23544.81
605.514	23380.98
605.71	23239.67
605.906	23444.46
606.102	23397.36
606.298	23217.14
606.494	23063.54
606.69	23104.5
606.886	23182.32
607.082	22621.18
607.278	23145.46
607.474	22791.16
607.67	22858.74
607.866	23041.01
608.062	22610.94
608.257	22596.6
608.453	22660.09
608.649	22789.11
608.845	22645.76
609.041	22686.72
609.236	22326.27
609.432	22477.82
609.628	22359.04
609.824	22270.98
610.019	22461.44
610.215	22162.44
610.411	22463.49
610.606	22035.46
610.802	22326.27
610.998	21945.35
611.193	22123.52
611.389	22113.28
611.584	21920.77
611.78	21801.99
611.976	22027.27
612.171	21824.52
612.367	22039.56
612.562	21644.3
612.758	21785.61
612.953	21629.96
613.149	21732.36
613.344	21228.56
613.539	21797.9
613.735	21312.53
613.93	21720.07
614.126	21523.47
614.321	21822.47
614.517	21511.18
614.712	21515.28
614.907	21148.69
615.103	21421.07
615.298	21134.35
615.493	21265.42
615.688	21355.54
615.884	21244.95
616.079	20884.5
616.274	21373.97
616.47	21134.35
616.665	21275.66
616.86	20974.61
617.055	21062.68
617.25	20759.58
617.445	21017.62
617.641	20620.31
617.836	20739.1
618.031	20147.23
618.226	20460.57
618.421	20751.38
618.616	20681.75
618.811	20366.37
619.006	20542.49
619.201	20130.85
619.396	20132.9
619.591	20022.31
619.786	20466.72
619.981	19770.41
620.176	19784.74
620.371	19465.26
620.566	19573.8
620.761	19678.25
620.956	19715.11
621.151	19317.81
621.346	19684.39
621.541	19176.5
621.735	19403.82
621.93	18955.32
622.125	19006.52
622.32	18783.29
622.515	18838.58
622.709	18621.5
622.904	18762.81
623.099	18695.22
623.294	18684.98
623.488	18259.01
623.683	18375.74
623.878	18054.21
624.072	18191.42
624.267	18158.66
624.462	17943.62
624.656	17744.97
624.851	17814.6
625.046	17624.14
625.24	17642.57
625.435	17325.13
625.629	17409.1
625.824	17101.9
626.018	17255.5
626.213	16702.55
626.407	17106
626.602	16555.1
626.796	16974.93
626.991	17009.75
627.185	16567.38
627.38	16571.48
627.574	16313.44
627.768	16344.16
627.963	16362.59
628.157	16118.88
628.352	16061.54
628.546	15916.13
628.74	16071.78
628.935	15850.6
629.129	15817.83
629.323	15635.56
629.517	15797.35
629.712	15643.75
629.906	15297.64
630.1	15119.47
630.294	15395.95
630.489	15234.16
630.683	15410.28
630.877	15037.55
631.071	14963.82
631.265	15066.22
631.459	14935.15
631.653	14417.02
631.848	14965.87
632.042	14419.07
632.236	14630.01
632.43	14498.94
632.624	14611.57
632.818	14214.27
633.012	14304.38
633.206	14111.87
633.4	13950.08
633.594	14062.72
633.788	13970.56
633.982	13798.53
634.176	13937.79
634.369	13825.15
634.563	13626.5
634.757	13739.14
634.951	13634.69
635.145	13649.03
635.339	13302.92
635.533	13606.02
635.726	13329.55
635.92	13327.5
636.114	13040.78
636.308	13075.6
636.501	13124.75
636.695	12995.73
636.889	12719.25
637.083	12827.79
637.276	12606.61
637.47	12672.15
637.664	12487.83
637.857	12545.17
638.051	12532.89
638.244	12633.24
638.438	12410.01
638.632	12514.45
638.825	12469.4
639.019	12244.12
639.212	12076.19
639.406	12176.54
639.599	11994.27
639.793	12020.89
639.986	11840.67
640.18	11687.08
640.373	11709.6
640.567	11773.09
640.76	11578.53
640.954	11674.79
641.147	11375.78
641.34	11291.82
641.534	11359.4
641.727	11205.8
641.92	11343.02
642.114	11230.38
642.307	11388.07
642.5	11328.68
642.694	10992.81
642.887	11195.56
643.08	11095.21
643.273	11023.53
643.467	10919.09
643.66	10730.67
643.853	10788.02
644.046	10656.95
644.239	10620.08
644.432	10632.37
644.626	10499.25
644.819	10550.45
645.012	10628.28
645.205	10304.7
645.398	10433.72
645.591	10259.64
645.784	10378.42
645.977	10239.16
646.17	10187.96
646.363	9958.59
646.556	9815.23
646.749	10128.57
646.942	9991.36
647.135	9995.45
647.328	9561.28
647.521	9643.2
647.714	9663.68
647.907	9643.2
648.099	9526.47
648.292	9514.18
648.485	9475.27
648.678	9467.08
648.871	9338.05
649.064	9256.14
649.256	9247.94
649.449	9360.58
649.642	9352.39
649.835	9161.93
650.027	9161.93
650.22	9108.68
650.413	9034.96
650.605	9088.2
650.798	9176.27
650.991	8789.2
651.183	9055.44
651.376	8879.31
651.568	8940.75
651.761	8676.56
651.954	8815.82
652.146	8611.03
652.339	8660.18
652.531	8404.18
652.724	8602.83
652.916	8301.78
653.109	8344.79
653.301	8307.93
653.494	8479.96
653.686	8109.27
653.879	8439
654.071	8230.1
654.263	8197.34
654.456	8226.01
654.648	8090.84
654.84	8000.73
655.033	8010.97
655.225	7970.01
655.417	7916.76
655.61	7746.78
655.802	7980.25
655.994	7566.56
656.186	7759.07
656.379	7675.1
656.571	7689.44
656.763	7628
656.955	7394.53
657.148	7494.88
657.34	7513.31
657.532	7187.69
657.724	7351.53
657.916	7441.64
658.108	7326.95
658.3	7255.27
658.492	7437.54
658.684	7365.86
658.876	7218.41
659.068	7107.82
659.26	7001.32
659.452	7077.1
659.644	7095.53
659.836	7156.97
660.028	7095.53
660.22	6954.22
660.412	6950.12
660.604	6870.25
660.796	6855.92
660.988	6839.53
661.18	6831.34
661.372	6784.24
661.563	6847.72
661.755	6554.87
661.947	6692.08
662.139	6757.61
662.331	6651.12
662.522	6544.63
662.714	6474.99
662.906	6405.36
663.097	6382.84
663.289	6460.66
663.481	6243.57
663.673	6366.45
663.864	6333.68
664.056	6114.55
664.247	6288.63
664.439	5979.39
664.631	6216.95
664.822	6225.14
665.014	6100.22
665.205	6044.92
665.397	5973.24
665.588	5967.1
665.78	5971.19
665.971	5993.72
666.163	5917.95
666.354	5963
666.546	5860.6
666.737	5948.67
666.929	5811.45
667.12	5737.73
667.311	5862.65
667.503	5782.78
667.694	5768.45
667.885	5786.88
668.077	5807.36
668.268	5600.51
668.459	5590.27
668.651	5620.99
668.842	5618.94
669.033	5365
669.224	5475.59
669.416	5319.94
669.607	5436.67
669.798	5321.99
669.989	5555.46
670.18	5397.76
670.371	5330.18
670.563	5309.7
670.754	5600.51
670.945	5270.79
671.136	5176.58
671.327	5168.39
671.518	5207.3
671.709	5213.45
671.9	5201.16
672.091	5156.1
672.282	5119.24
672.473	5000.46
672.664	5268.74
672.855	5049.61
673.046	5045.51
673.237	5014.79
673.428	4896.01
673.619	5156.1
673.809	4910.35
674	4838.67
674.191	4975.88
674.382	4687.12
674.573	4756.75
674.764	4678.93
674.954	4877.58
675.145	4779.28
675.336	4812.04
675.527	4789.52
675.717	4744.46
675.908	4621.58
676.099	4652.3
676.289	4584.72
676.48	4691.21
676.671	4627.73
676.861	4640.01
677.052	4633.87
677.243	4510.99
677.433	4754.7
677.624	4547.86
677.814	4486.42
678.005	4506.9
678.195	4564.24
678.386	4490.51
678.576	4388.11
678.767	4326.68
678.957	4457.75
679.148	4551.95
679.338	4427.03
679.529	4433.17
679.719	4287.76
679.909	4576.53
680.1	4298
680.29	4357.39
680.481	4412.69
680.671	4353.3
680.861	4388.11
681.052	4371.73
681.242	4193.56
681.432	4302.1
681.622	4300.05
681.813	4298
682.003	4203.8
682.193	4119.83
682.383	4185.37
682.573	4263.19
682.764	4130.07
682.954	4144.41
683.144	4197.65
683.334	4117.78
683.524	4160.79
683.714	4230.42
683.904	4199.7
684.094	4023.58
684.284	4125.97
684.474	4117.78
684.664	4089.11
684.854	4019.48
685.044	3960.09
685.234	3872.03
685.424	4107.54
685.614	3970.33
685.804	3980.57
685.994	3919.13
686.184	3855.64
686.374	3874.07
686.564	3843.35
686.753	3806.49
686.943	3773.72
687.133	3865.88
687.323	3736.86
687.513	3826.97
687.702	3745.05
687.892	3767.58
688.082	3675.42
688.272	3755.29
688.461	3601.69
688.651	3781.92
688.841	3568.93
689.03	3718.43
689.22	3519.78
689.41	3648.8
689.599	3599.65
689.789	3704.09
689.979	3566.88
690.168	3595.55
690.358	3626.27
690.547	3489.06
690.737	3669.28
690.926	3556.64
691.116	3366.18
691.305	3405.09
691.495	3378.47
691.684	3294.5
691.874	3390.75
692.063	3382.56
692.252	3386.66
692.442	3372.32
692.631	3372.32
692.82	3392.8
693.01	3233.06
693.199	3267.88
693.388	3204.39
693.578	3106.09
693.767	3126.57
693.956	3046.69
694.146	3087.65
694.335	3108.13
694.524	3218.72
694.713	3097.89
694.902	3085.61
695.092	2981.16
695.281	3063.08
695.47	2989.35
695.659	3153.19
695.848	2962.73
696.037	3030.31
696.226	2913.58
696.415	2897.19
696.604	2927.91
696.793	2915.62
696.982	2956.58
697.171	2954.54
697.36	2862.38
697.549	2913.58
697.738	2833.71
697.927	2923.82
698.116	2823.47
698.305	2829.61
698.494	2811.18
698.683	2729.26
698.872	2747.69
699.061	2815.27
699.25	2635.05
699.438	2749.74
699.627	2694.44
699.816	2815.27
700.005	2727.21
700.193	2741.55
700.382	2667.82
700.571	2630.96
700.76	2610.48
700.948	2716.97
701.137	2567.47
701.326	2612.53
701.514	2651.44
701.703	2624.81
701.892	2532.65
702.08	2628.91
702.269	2440.5
702.457	2624.81
702.646	2506.03
702.834	2565.42
703.023	2673.96
703.212	2563.37
703.4	2512.18
703.589	2442.54
703.777	2481.46
703.965	2479.41
704.154	2399.54
704.342	2469.17
704.531	2442.54
704.719	2456.88
704.907	2528.56
705.096	2471.22
705.284	2510.13
705.472	2463.02
705.661	2493.74
705.849	2413.87
706.037	2366.77
706.226	2420.02
706.414	2411.82
706.602	2409.78
706.79	2460.98
706.979	2290.99
707.167	2426.16
707.355	2354.48
707.543	2448.69
707.731	2358.58
707.919	2444.59
708.107	2290.99
708.296	2227.51
708.484	2319.67
708.672	2268.47
708.86	2370.87
709.048	2284.85
709.236	2346.29
709.424	2364.72
709.612	2329.91
709.8	2323.76
709.988	2247.99
710.176	2301.23
710.364	2270.51
710.551	2309.43
710.739	2358.58
710.927	2315.57
711.115	2245.94
711.303	2352.43
711.491	2233.65
711.679	2270.51
711.866	2356.53
712.054	2223.41
712.242	2082.1
712.43	2211.12
712.617	2139.44
712.805	2159.92
712.993	2278.71
713.181	2174.26
713.368	2223.41
713.556	2229.56
713.744	2166.07
713.931	2254.13
714.119	2176.31
714.306	2192.69
714.494	2202.93
714.682	2233.65
714.869	2247.99
715.057	2161.97
715.244	2168.12
715.432	2170.16
715.619	2147.64
715.807	2188.6
715.994	2147.64
716.182	2204.98
716.369	2194.74
716.556	2274.61
716.744	2102.58
716.931	2139.44
717.119	2219.32
717.306	2141.49
717.493	2092.34
717.681	2121.01
717.868	2178.36
718.055	2202.93
718.242	2106.68
718.43	2198.84
718.617	2153.78
718.804	2110.77
718.991	2178.36
719.179	2100.53
719.366	2071.86
719.553	2121.01
719.74	2137.4
719.927	2051.38
720.114	2075.96
720.301	2209.08
720.488	2078.01
720.676	2166.07
720.863	2088.25
721.05	2141.49
721.237	2215.22
721.424	2131.25
721.611	2098.49
721.798	2032.95
721.985	2049.33
722.172	2180.4
722.358	1994.04
722.545	2170.16
722.732	2051.38
722.919	2190.64
723.106	2125.11
723.293	2024.76
723.48	2045.24
723.667	2116.92
723.853	2166.07
724.04	2135.35
724.227	2229.56
724.414	2073.91
724.6	2170.16
724.787	2078.01
724.974	2073.91
725.161	2043.19
725.347	2035
725.534	2108.73
725.72	2080.05
725.907	2096.44
726.094	2102.58
726.28	2188.6
726.467	2118.97
726.653	2032.95
726.84	2172.21
727.027	2082.1
727.213	2051.38
727.4	2254.13
727.586	2157.88
727.773	2098.49
727.959	2153.78
728.145	2147.64
728.332	2127.16
728.518	2098.49
728.705	2135.35
728.891	2096.44
729.077	2100.53
729.264	2014.52
729.45	2114.87
729.636	2110.77
729.823	2182.45
730.009	2151.73
730.195	2047.29
730.382	2073.91
730.568	2073.91
730.754	2063.67
730.94	2090.29
731.126	2049.33
731.313	2153.78
731.499	1987.89
731.685	2145.59
731.871	2164.02
732.057	2141.49
732.243	2102.58
732.429	2143.54
732.615	2127.16
732.801	2204.98
732.987	2075.96
733.173	2141.49
733.359	2137.4
733.545	2139.44
733.731	2045.24
733.917	2196.79
734.103	2016.57
734.289	2172.21
734.475	2045.24
734.661	2266.42
734.847	2067.77
735.033	2170.16
735.219	2104.63
735.404	2121.01
735.59	2170.16
735.776	2110.77
735.962	2127.16
736.148	2200.88
736.333	2225.46
736.519	2178.36
736.705	2073.91
736.89	2202.93
737.076	2026.81
737.262	2104.63
737.447	2204.98
737.633	2096.44
737.819	2178.36
738.004	2080.05
738.19	2172.21
738.375	2102.58
738.561	2114.87
738.747	2118.97
738.932	2051.38
739.118	2225.46
739.303	2133.3
739.489	2123.06
739.674	2102.58
739.859	2084.15
740.045	2078.01
740.23	2043.19
740.416	2090.29
740.601	2161.97
740.786	2112.82
740.972	2188.6
741.157	2024.76
741.342	2182.45
741.528	2161.97
741.713	2127.16
741.898	2112.82
742.084	2110.77
742.269	2090.29
742.454	2063.67
742.639	2112.82
742.824	2086.2
743.01	2180.4
743.195	2010.42
743.38	2121.01
743.565	2114.87
743.75	2233.65
743.935	2067.77
744.12	2067.77
744.305	2073.91
744.49	2049.33
744.675	2172.21
744.86	2094.39
745.045	2045.24
745.23	2063.67
745.415	2053.43
745.6	2080.05
745.785	2133.3
745.97	2149.68
746.155	2012.47
746.34	2086.2
746.525	2069.81
746.71	2028.85
746.895	1946.94
747.079	2016.57
747.264	1979.7
747.449	2020.66
747.634	1971.51
747.819	2049.33
748.003	1867.06
748.188	2020.66
748.373	1869.11
748.557	1842.49
748.742	1920.31
748.927	2028.85
749.111	1895.74
749.296	1852.73
749.481	1926.46
749.665	1985.85
749.85	1910.07
750.034	1834.3
750.219	1860.92
750.404	1731.9
750.588	1930.55
750.773	1865.02
750.957	1877.3
751.141	1826.11
751.326	1774.91
751.51	1811.77
751.695	1799.48
751.879	1803.58
752.064	1899.83
752.248	1862.97
752.432	1811.77
752.617	1709.37
752.801	1733.95
752.985	1729.85
753.17	1715.52
753.354	1713.47
753.538	1725.76
753.722	1647.93
753.907	1717.56
754.091	1647.93
754.275	1635.64
754.459	1582.4
754.643	1664.32
754.828	1625.4
755.012	1658.17
755.196	1514.81
755.38	1553.73
755.564	1617.21
755.748	1537.34
755.932	1592.64
756.116	1461.57
756.3	1563.97
756.484	1504.57
756.668	1584.45
756.852	1432.9
757.036	1561.92
757.22	1396.03
757.404	1473.85
757.588	1416.51
757.772	1506.62
757.956	1494.33
758.14	1512.77
758.323	1326.4
758.507	1555.77
758.691	1406.27
758.875	1494.33
759.059	1494.33
759.242	1449.28
759.426	1410.37
759.61	1459.52
759.794	1443.14
759.977	1445.18
760.161	1357.12
760.345	1344.83
760.528	1369.41
760.712	1441.09
760.895	1332.55
761.079	1391.94
761.263	1393.98
761.446	1307.97
761.63	1342.78
761.813	1312.07
761.997	1350.98
762.18	1283.39
762.364	1301.83
762.547	1287.49
762.731	1310.02
762.914	1248.58
763.098	1367.36
763.281	1228.1
763.464	1115.46
763.648	1297.73
763.831	1307.97
764.015	1267.01
764.198	1267.01
764.381	1209.67
764.564	1213.76
764.748	1228.1
764.931	1303.87
765.114	1213.76
765.297	1283.39
765.481	1240.39
765.664	1211.71
765.847	1215.81
766.03	1176.9
766.213	1135.94
766.397	1158.47
766.58	1183.04
766.763	1148.23
766.946	1125.7
767.129	1211.71
767.312	1187.14
767.495	1205.57
767.678	1185.09
767.861	1068.36
768.044	1101.12
768.227	1162.56
768.41	1168.71
768.593	1117.51
768.776	1162.56
768.959	1107.27
769.142	1127.75
769.324	1070.41
769.507	1092.93
769.69	1162.56
769.873	1033.54
770.056	1158.47
770.239	1135.94
770.421	1137.99
770.604	1072.45
770.787	961.86
770.97	1060.17
771.152	1037.64
771.335	1072.45
771.518	1066.31
771.7	1019.21
771.883	1027.4
772.066	1033.54
772.248	1041.73
772.431	1156.42
772.613	1027.4
772.796	1035.59
772.978	986.44
773.161	994.63
773.343	933.19
773.526	992.58
773.708	953.67
773.891	857.42
774.073	881.99
774.256	978.25
774.438	1070.41
774.621	965.96
774.803	945.48
774.985	941.38
775.168	1008.97
775.35	914.76
775.532	879.94
775.715	892.23
775.897	877.9
776.079	955.72
776.261	863.56
776.444	920.9
776.626	781.64
776.808	857.42
776.99	785.74
777.173	836.94
777.355	855.37
777.537	855.37
777.719	892.23
777.901	820.55
778.083	789.83
778.265	744.78
778.447	781.64
778.629	728.39
778.811	806.22
778.993	775.5
779.175	828.74
779.357	818.5
779.539	716.11
779.721	744.78
779.903	750.92
780.085	732.49
780.267	783.69
780.449	703.82
780.631	806.22
780.812	714.06
780.994	767.31
781.176	730.44
781.358	677.2
781.54	742.73
781.721	623.95
781.903	642.38
782.085	685.39
782.267	642.38
782.448	640.33
782.63	666.96
782.812	669
782.993	648.52
783.175	687.43
783.357	634.19
783.538	626
783.72	601.42
783.901	609.61
784.083	658.76
784.264	574.8
784.446	580.94
784.627	515.41
784.809	617.8
784.99	599.37
785.172	595.28
785.353	580.94
785.535	525.65
785.716	628.04
785.897	593.23
786.079	568.65
786.26	599.37
786.441	626
786.623	542.03
786.804	578.89
786.985	570.7
787.167	548.17
787.348	511.31
787.529	539.98
787.71	615.76
787.891	488.78
788.073	480.59
788.254	408.91
788.435	511.31
788.616	568.65
788.797	511.31
788.978	521.55
789.159	453.97
789.34	456.01
789.522	476.49
789.703	511.31
789.884	425.29
790.065	421.2
790.246	517.45
790.427	429.39
790.607	505.17
790.788	533.84
790.969	333.14
791.15	517.45
791.331	337.23
791.512	439.63
791.693	357.71
791.874	427.34
792.054	384.34
792.235	511.31
792.416	370
792.597	351.57
792.778	413.01
792.958	492.88
793.139	324.94
793.32	451.92
793.5	384.34
793.681	456.01
793.862	431.44
794.042	394.58
794.223	335.18
794.404	402.77
794.584	306.51
794.765	384.34
794.945	337.23
795.126	451.92
795.306	398.67
795.487	298.32
795.667	365.9
795.848	417.1
796.028	382.29
796.209	462.16
796.389	316.75
796.57	318.8
796.75	308.56
796.93	302.42
797.111	273.75
797.291	417.1
797.471	324.94
797.652	329.04
797.832	281.94
798.012	359.76
798.192	339.28
798.373	238.93
798.553	275.79
798.733	300.37
798.913	273.75
799.093	224.59
799.274	271.7
799.454	296.27
799.634	324.94
799.814	296.27
799.994	306.51
800.174	326.99
800.354	277.84
800.534	220.5
800.714	329.04
800.894	292.18
801.074	263.51
801.254	240.98
801.434	394.58
801.614	300.37
801.794	290.13
801.974	920.9
802.154	296.27
802.334	265.55
802.514	257.36
802.693	269.65
802.873	275.79
803.053	355.66
803.233	281.94
803.413	234.83
803.592	300.37
803.772	232.79
803.952	333.14
804.131	240.98
804.311	251.22
804.491	245.07
804.67	253.27
804.85	349.52
805.03	208.21
805.209	267.6
805.389	210.26
805.568	179.54
805.748	216.4
805.928	212.31
806.107	259.41
806.287	243.03
806.466	257.36
806.646	228.69
806.825	257.36
807.004	251.22
807.184	232.79
807.363	175.44
807.543	251.22
807.722	216.4
807.901	200.02
808.081	226.64
808.26	202.07
808.439	206.16
808.619	206.16
808.798	173.39
808.977	247.12
809.156	216.4
809.336	269.65
809.515	302.42
809.694	163.15
809.873	163.15
810.052	277.84
810.231	222.55
810.411	222.55
810.59	226.64
810.769	189.78
810.948	191.83
811.127	177.49
811.306	152.92
811.485	206.16
811.664	257.36
811.843	167.25
812.022	257.36
812.201	185.68
812.38	181.59
812.559	191.83
812.737	185.68
812.916	191.83
813.095	253.27
813.274	157.01
813.453	128.34
813.632	148.82
813.811	249.17
813.989	189.78
814.168	212.31
814.347	109.91
814.526	120.15
814.704	122.2
814.883	253.27
815.062	210.26
815.24	204.11
815.419	154.96
815.598	181.59
815.776	77.14
815.955	193.87
816.133	140.63
816.312	167.25
816.49	136.53
816.669	195.92
816.847	107.86
817.026	193.87
817.204	191.83
817.383	169.3
817.561	105.81
817.74	187.73
817.918	136.53
818.097	120.15
818.275	157.01
818.453	144.72
818.632	210.26
818.81	122.2
818.988	142.68
819.167	77.14
819.345	161.11
819.523	161.11
819.701	122.2
819.879	103.76
820.058	154.96
820.236	148.82
820.414	163.15
820.592	118.1
820.77	212.31
820.948	169.3
821.127	159.06
821.305	91.48
821.483	126.29
821.661	114
821.839	157.01
822.017	124.24
822.195	120.15
822.373	97.62
822.551	146.77
822.729	114
822.907	128.34
823.085	116.05
823.262	169.3
823.44	177.49
823.618	150.87
823.796	101.72
823.974	101.72
824.152	136.53
824.329	83.28
824.507	163.15
824.685	118.1
824.863	64.85
825.04	66.9
825.218	157.01
825.396	52.56
825.574	111.96
825.751	60.76
825.929	140.63
826.107	56.66
826.284	204.11
826.462	128.34
826.639	95.57
826.817	138.58
826.994	73.04
827.172	95.57
827.349	189.78
827.527	109.91
827.704	71
827.882	154.96
828.059	103.76
828.237	36.18
828.414	89.43
828.591	11.61
828.769	111.96
828.946	68.95
829.124	83.28
829.301	136.53
829.478	71
829.655	132.44
829.833	85.33
830.01	93.52
830.187	179.54
830.364	56.66
830.542	34.13
830.719	79.19
830.896	146.77
831.073	89.43
831.25	148.82
831.427	58.71
831.604	91.48
831.782	64.85
831.959	66.9
832.136	89.43
832.313	79.19
832.49	42.32
832.667	138.58
832.844	79.19
833.021	91.48
833.198	32.08
833.374	52.56
833.551	68.95
833.728	75.09
833.905	77.14
834.082	38.23
834.259	75.09
834.436	103.76
834.612	27.99
834.789	187.73
834.966	138.58
835.143	144.72
835.319	85.33
835.496	111.96
835.673	97.62
835.85	58.71
836.026	83.28
836.203	87.38
836.38	38.23
836.556	83.28
836.733	81.24
836.909	185.68
837.086	17.75
837.262	56.66
837.439	23.89
837.616	9.56
837.792	13.65
837.968	27.99
838.145	48.47
838.321	15.7
838.498	7.51
838.674	130.39
838.851	48.47
839.027	15.7
839.203	60.76
839.38	109.91
839.556	-15.02
839.732	60.76
839.909	71
840.085	140.63
840.261	58.71
840.437	128.34
840.614	66.9
840.79	111.96
840.966	60.76
841.142	163.15
841.318	114
841.494	42.32
841.671	134.48
841.847	36.18
842.023	36.18
842.199	13.65
842.375	175.44
842.551	-15.02
842.727	111.96
842.903	95.57
843.079	30.04
843.255	42.32
843.431	91.48
843.607	42.32
843.783	25.94
843.959	62.8
844.134	64.85
844.31	68.95
844.486	38.23
844.662	-6.83
844.838	-10.92
845.013	157.01
845.189	144.72
845.365	62.8
845.541	64.85
845.716	89.43
845.892	66.9
846.068	15.7
846.244	9.56
846.419	83.28
846.595	66.9
846.77	-27.31
846.946	46.42
847.122	19.8
847.297	79.19
847.473	87.38
847.648	-12.97
847.824	85.33
847.999	-2.73
848.175	85.33
848.35	52.56
848.526	25.94
848.701	17.75
848.876	154.96
849.052	56.66
849.227	25.94
849.403	23.89
849.578	54.61
849.753	77.14
849.929	40.28
850.104	32.08
850.279	-0.68
850.454	-29.35
850.63	103.76
850.805	111.96
850.98	38.23
851.155	-12.97
851.33	27.99
851.505	21.85
851.681	-6.83
851.856	103.76
852.031	150.87
852.206	64.85
852.381	44.37
852.556	58.71
852.731	73.04
852.906	42.32
853.081	44.37
853.256	11.61
853.431	52.56
853.606	68.95
853.781	34.13
853.956	-27.31
854.131	50.52
854.305	30.04
854.48	44.37
854.655	-17.07
854.83	62.8
855.005	-12.97
855.18	71
855.354	122.2
855.529	13.65
855.704	9.56
855.879	124.24
856.053	-58.03
856.228	48.47
856.403	-72.36
856.577	30.04
856.752	-17.07
856.926	19.8
857.101	32.08
857.276	40.28
857.45	85.33
857.625	13.65
857.799	-15.02
857.974	-29.35
858.148	-98.99
858.323	-8.87
858.497	-0.68
858.672	5.46
858.846	40.28
859.02	68.95
859.195	-8.87
859.369	7.51
859.543	21.85
859.718	19.8
859.892	-25.26
860.066	132.44
860.241	-39.59
860.415	-62.12
860.589	21.85
860.763	87.38
860.938	-6.83
861.112	3.41
861.286	-53.93
861.46	11.61
861.634	-8.87
861.808	-19.11
861.982	-39.59
862.157	15.7
862.331	46.42
862.505	-51.88
862.679	-31.4
862.853	-8.87
863.027	15.7
863.201	107.86
863.375	36.18
863.549	23.89
863.722	-6.83
863.896	42.32
864.07	-2.73
864.244	81.24
864.418	79.19
864.592	17.75
864.766	15.7
864.939	-31.4
865.113	-19.11
865.287	71
865.461	5.46
865.634	32.08
865.808	68.95
865.982	17.75
866.156	-23.21
866.329	-15.02
866.503	17.75
866.676	7.51
866.85	5.46
867.024	46.42
867.197	7.51
867.371	56.66
867.544	-53.93
867.718	-17.07
867.891	50.52
868.065	17.75
868.238	-35.5
868.412	27.99
868.585	23.89
868.759	1.37
868.932	5.46
869.105	7.51
869.279	34.13
869.452	-53.93
869.625	3.41
869.799	-49.83
869.972	-12.97
870.145	-23.21
870.319	40.28
870.492	32.08
870.665	-49.83
870.838	-23.21
871.011	-12.97
871.185	32.08
871.358	-39.59
871.531	56.66
871.704	13.65
871.877	-58.03
872.05	-8.87
872.223	-19.11
872.396	7.51
872.569	-41.64
872.742	-43.69
872.915	1.37
873.088	36.18
873.261	1.37
873.434	9.56
873.607	-39.59
873.78	-8.87
873.953	38.23
874.126	-37.55
874.299	-23.21
874.471	9.56
874.644	77.14
874.817	3.41
874.99	21.85
875.163	44.37
875.335	-4.78
875.508	-10.92
875.681	73.04
875.853	-0.68
876.026	15.7
876.199	7.51
876.371	21.85
876.544	1.37
876.717	11.61
876.889	-39.59
877.062	19.8
877.234	-12.97
877.407	-4.78
877.579	-33.45
877.752	7.51
877.924	-15.02
878.097	9.56
878.269	15.7
878.442	3.41
878.614	1.37
878.786	68.95
878.959	42.32
879.131	15.7
879.303	-21.16
879.476	-31.4
879.648	11.61
879.82	5.46
879.993	-12.97
880.165	9.56
880.337	-19.11
880.509	56.66
880.681	-27.31
880.854	34.13
881.026	-45.74
881.198	81.24
881.37	34.13
881.542	-51.88
881.714	-47.79
881.886	-21.16
882.058	-64.17
882.23	32.08
882.402	5.46
882.574	5.46
882.746	25.94
882.918	60.76
883.09	7.51
883.262	-0.68
883.434	23.89
883.606	-0.68
883.778	3.41
883.95	25.94
884.122	32.08
884.293	-39.59
884.465	-31.4
884.637	38.23
884.809	-8.87
884.98	19.8
885.152	-21.16
885.324	-15.02
885.496	-2.73
885.667	-23.21
885.839	52.56
886.011	7.51
886.182	15.7
886.354	-12.97
886.525	7.51
886.697	3.41
886.869	-17.07
887.04	58.71
887.212	7.51
887.383	73.04
887.555	-53.93
887.726	-15.02
887.897	46.42
888.069	-19.11
888.24	-23.21
888.412	-23.21
888.583	-55.98
888.754	21.85
888.926	3.41
889.097	-21.16
889.268	-27.31
889.44	7.51
889.611	25.94
889.782	-12.97
889.953	5.46
890.125	-0.68
890.296	-23.21
890.467	66.9
890.638	-49.83
890.809	-15.02
890.98	-23.21
891.151	36.18
891.323	34.13
891.494	-53.93
891.665	-4.78
891.836	60.76
892.007	64.85
892.178	-6.83
892.349	36.18
892.52	-53.93
892.691	-6.83
892.862	11.61
893.032	5.46
893.203	-8.87
893.374	-6.83
893.545	19.8
893.716	-27.31
893.887	7.51
894.057	48.47
894.228	9.56
894.399	36.18
894.57	85.33
894.74	-0.68
894.911	52.56
895.082	-31.4
895.253	-68.27
895.423	-0.68
895.594	62.8
895.764	-35.5
895.935	-58.03
896.106	42.32
896.276	-58.03
896.447	-21.16
896.617	5.46
896.788	17.75
896.958	-2.73
897.129	-35.5
897.299	-78.51
897.47	-53.93
897.64	46.42
897.81	30.04
897.981	-25.26
898.151	-53.93
898.322	7.51
898.492	1.37
898.662	-35.5
898.832	-25.26
899.003	13.65
899.173	-12.97
899.343	-60.07
899.513	-10.92
