Data from USB4F104151__11__12-41-00-086.txt Node

Date: Fri Mar 14 12:41:00 EDT 2025
User: louis
Spectrometer: USB4F10415
Trigger mode: 4
Integration Time (sec): 3.000000E-2
Scans to average: 1
Electric dark correction enabled: true
Nonlinearity correction enabled: false
Boxcar width: 0
XAxis mode: Wavelengths
Number of Pixels in Spectrum: 3648
>>>>>Begin Spectral Data<<<<<
178.204	-100.01
178.424	-100.01
178.644	-100.01
178.864	-89.77
179.084	-95.91
179.304	22.87
179.524	-1.71
179.744	-40.62
179.964	82.26
180.184	-22.19
180.404	-18.09
180.624	-87.72
180.844	37.2
181.064	0.34
181.283	-16.04
181.503	18.77
181.723	24.92
181.943	0.34
182.163	10.58
182.383	84.31
182.602	78.16
182.822	45.4
183.042	39.25
183.262	-34.47
183.482	31.06
183.701	12.63
183.921	72.02
184.141	33.11
184.361	92.5
184.58	-28.33
184.8	39.25
185.02	37.2
185.239	55.64
185.459	-9.9
185.679	102.74
185.898	-13.99
186.118	47.44
186.338	80.21
186.557	88.4
186.777	-13.99
186.997	-48.81
187.216	35.16
187.436	108.88
187.655	104.79
187.875	24.92
188.095	39.25
188.314	145.75
188.534	33.11
188.753	51.54
188.973	6.49
189.192	47.44
189.412	57.68
189.631	94.55
189.851	76.12
190.07	20.82
190.29	-34.47
190.509	55.64
190.729	18.77
190.948	76.12
191.168	115.03
191.387	45.4
191.607	57.68
191.826	-16.04
192.045	78.16
192.265	-32.43
192.484	29.01
192.704	125.27
192.923	31.06
193.142	129.36
193.362	18.77
193.581	108.88
193.8	22.87
194.02	-11.95
194.239	16.73
194.458	49.49
194.678	8.53
194.897	37.2
195.116	47.44
195.335	55.64
195.555	16.73
195.774	-24.23
195.993	149.84
196.212	82.26
196.432	-22.19
196.651	18.77
196.87	47.44
197.089	47.44
197.308	78.16
197.528	63.83
197.747	2.39
197.966	43.35
198.185	96.6
198.404	67.92
198.623	47.44
198.842	51.54
199.062	104.79
199.281	72.02
199.5	67.92
199.719	29.01
199.938	24.92
200.157	115.03
200.376	145.75
200.595	16.73
200.814	-28.33
201.033	43.35
201.252	4.44
201.471	2.39
201.69	-1.71
201.909	65.88
202.128	53.59
202.347	63.83
202.566	110.93
202.785	45.4
203.004	63.83
203.223	104.79
203.442	24.92
203.661	29.01
203.879	45.4
204.098	57.68
204.317	65.88
204.536	80.21
204.755	-40.62
204.974	80.21
205.193	37.2
205.411	133.46
205.63	55.64
205.849	10.58
206.068	4.44
206.287	0.34
206.505	6.49
206.724	61.78
206.943	43.35
207.162	59.73
207.381	53.59
207.599	-28.33
207.818	67.92
208.037	110.93
208.255	51.54
208.474	47.44
208.693	55.64
208.911	-16.04
209.13	51.54
209.349	92.5
209.567	65.88
209.786	65.88
210.005	26.96
210.223	-3.75
210.442	43.35
210.661	55.64
210.879	59.73
211.098	35.16
211.316	69.97
211.535	63.83
211.753	51.54
211.972	53.59
212.191	-1.71
212.409	4.44
212.628	47.44
212.846	41.3
213.065	0.34
213.283	12.63
213.502	49.49
213.72	-11.95
213.938	76.12
214.157	8.53
214.375	127.32
214.594	47.44
214.812	67.92
215.031	108.88
215.249	10.58
215.467	2.39
215.686	-40.62
215.904	72.02
216.122	69.97
216.341	102.74
216.559	65.88
216.778	166.23
216.996	80.21
217.214	8.53
217.432	49.49
217.651	-48.81
217.869	31.06
218.087	63.83
218.306	20.82
218.524	29.01
218.742	39.25
218.96	94.55
219.179	59.73
219.397	2.39
219.615	121.17
219.833	8.53
220.051	-13.99
220.27	112.98
220.488	39.25
220.706	51.54
220.924	16.73
221.142	35.16
221.36	20.82
221.578	14.68
221.796	12.63
222.015	-11.95
222.233	94.55
222.451	106.84
222.669	2.39
222.887	26.96
223.105	24.92
223.323	47.44
223.541	43.35
223.759	112.98
223.977	-1.71
224.195	94.55
224.413	78.16
224.631	51.54
224.849	74.07
225.067	65.88
225.285	45.4
225.503	51.54
225.721	12.63
225.939	12.63
226.157	106.84
226.375	98.64
226.592	-13.99
226.81	26.96
227.028	31.06
227.246	20.82
227.464	80.21
227.682	82.26
227.9	6.49
228.117	-11.95
228.335	65.88
228.553	18.77
228.771	61.78
228.989	82.26
229.206	57.68
229.424	55.64
229.642	-3.75
229.86	47.44
230.077	55.64
230.295	37.2
230.513	43.35
230.731	67.92
230.948	45.4
231.166	106.84
231.384	80.21
231.601	53.59
231.819	84.31
232.037	-1.71
232.254	-16.04
232.472	115.03
232.689	-16.04
232.907	39.25
233.125	22.87
233.342	-5.8
233.56	67.92
233.777	59.73
233.995	84.31
234.213	98.64
234.43	80.21
234.648	61.78
234.865	80.21
235.083	-57
235.3	14.68
235.518	110.93
235.735	98.64
235.953	96.6
236.17	-32.43
236.388	43.35
236.605	22.87
236.822	4.44
237.04	69.97
237.257	67.92
237.475	10.58
237.692	33.11
237.909	53.59
238.127	-42.67
238.344	49.49
238.562	16.73
238.779	-40.62
238.996	-16.04
239.214	86.36
239.431	-11.95
239.648	41.3
239.865	18.77
240.083	96.6
240.3	55.64
240.517	35.16
240.735	41.3
240.952	98.64
241.169	88.4
241.386	43.35
241.603	33.11
241.821	6.49
242.038	43.35
242.255	104.79
242.472	24.92
242.689	59.73
242.907	127.32
243.124	39.25
243.341	51.54
243.558	-7.85
243.775	57.68
243.992	84.31
244.209	63.83
244.426	47.44
244.643	98.64
244.86	39.25
245.078	90.45
245.295	96.6
245.512	-13.99
245.729	-26.28
245.946	8.53
246.163	33.11
246.38	-18.09
246.597	49.49
246.814	37.2
247.031	88.4
247.248	49.49
247.464	94.55
247.681	86.36
247.898	39.25
248.115	45.4
248.332	14.68
248.549	67.92
248.766	141.65
248.983	72.02
249.2	47.44
249.417	39.25
249.633	90.45
249.85	78.16
250.067	-11.95
250.284	49.49
250.501	2.39
250.717	67.92
250.934	-40.62
251.151	100.69
251.368	31.06
251.585	29.01
251.801	31.06
252.018	-9.9
252.235	72.02
252.451	-32.43
252.668	24.92
252.885	74.07
253.102	82.26
253.318	100.69
253.535	-11.95
253.752	18.77
253.968	92.5
254.185	-3.75
254.401	74.07
254.618	39.25
254.835	37.2
255.051	104.79
255.268	67.92
255.484	80.21
255.701	-5.8
255.917	43.35
256.134	-13.99
256.351	-24.23
256.567	14.68
256.784	29.01
257	35.16
257.217	-18.09
257.433	61.78
257.65	141.65
257.866	110.93
258.082	47.44
258.299	45.4
258.515	67.92
258.732	112.98
258.948	61.78
259.165	51.54
259.381	115.03
259.597	47.44
259.814	115.03
260.03	35.16
260.246	22.87
260.463	67.92
260.679	43.35
260.895	-34.47
261.112	84.31
261.328	-5.8
261.544	8.53
261.761	127.32
261.977	55.64
262.193	24.92
262.409	110.93
262.626	67.92
262.842	96.6
263.058	-3.75
263.274	67.92
263.49	2.39
263.707	151.89
263.923	84.31
264.139	-7.85
264.355	65.88
264.571	35.16
264.787	90.45
265.004	51.54
265.22	53.59
265.436	110.93
265.652	-5.8
265.868	59.73
266.084	-3.75
266.3	72.02
266.516	-9.9
266.732	20.82
266.948	53.59
267.164	33.11
267.38	33.11
267.596	59.73
267.812	135.51
268.028	8.53
268.244	20.82
268.46	53.59
268.676	41.3
268.892	90.45
269.108	-32.43
269.324	72.02
269.54	31.06
269.756	151.89
269.972	8.53
270.188	12.63
270.403	-9.9
270.619	24.92
270.835	129.36
271.051	151.89
271.267	67.92
271.483	65.88
271.698	41.3
271.914	65.88
272.13	8.53
272.346	8.53
272.562	76.12
272.777	184.66
272.993	-28.33
273.209	31.06
273.425	22.87
273.64	94.55
273.856	-34.47
274.072	18.77
274.287	-38.57
274.503	94.55
274.719	57.68
274.934	-20.14
275.15	-3.75
275.366	72.02
275.581	20.82
275.797	74.07
276.012	96.6
276.228	6.49
276.444	102.74
276.659	26.96
276.875	74.07
277.09	-3.75
277.306	22.87
277.521	33.11
277.737	39.25
277.952	59.73
278.168	20.82
278.383	121.17
278.599	14.68
278.814	0.34
279.03	6.49
279.245	74.07
279.461	47.44
279.676	108.88
279.892	4.44
280.107	41.3
280.322	29.01
280.538	65.88
280.753	14.68
280.969	43.35
281.184	37.2
281.399	22.87
281.615	-5.8
281.83	63.83
282.045	24.92
282.26	20.82
282.476	100.69
282.691	47.44
282.906	78.16
283.122	31.06
283.337	-54.95
283.552	84.31
283.767	-13.99
283.983	53.59
284.198	80.21
284.413	53.59
284.628	33.11
284.843	35.16
285.058	12.63
285.274	33.11
285.489	61.78
285.704	98.64
285.919	69.97
286.134	-1.71
286.349	59.73
286.564	76.12
286.779	47.44
286.995	39.25
287.21	24.92
287.425	35.16
287.64	82.26
287.855	72.02
288.07	31.06
288.285	-1.71
288.5	92.5
288.715	94.55
288.93	33.11
289.145	-9.9
289.36	139.6
289.575	78.16
289.79	78.16
290.004	49.49
290.219	108.88
290.434	12.63
290.649	74.07
290.864	63.83
291.079	80.21
291.294	88.4
291.509	74.07
291.724	51.54
291.938	26.96
292.153	31.06
292.368	16.73
292.583	57.68
292.798	41.3
293.012	29.01
293.227	65.88
293.442	88.4
293.657	82.26
293.871	106.84
294.086	8.53
294.301	129.36
294.516	29.01
294.73	10.58
294.945	82.26
295.16	78.16
295.374	133.46
295.589	39.25
295.804	-32.43
296.018	20.82
296.233	86.36
296.447	55.64
296.662	26.96
296.877	61.78
297.091	115.03
297.306	31.06
297.52	31.06
297.735	12.63
297.949	-7.85
298.164	139.6
298.378	41.3
298.593	43.35
298.807	0.34
299.022	14.68
299.236	55.64
299.451	57.68
299.665	55.64
299.88	49.49
300.094	31.06
300.309	16.73
300.523	57.68
300.737	57.68
300.952	37.2
301.166	14.68
301.381	8.53
301.595	-18.09
301.809	6.49
302.024	49.49
302.238	12.63
302.452	102.74
302.667	92.5
302.881	8.53
303.095	-5.8
303.309	51.54
303.524	20.82
303.738	2.39
303.952	65.88
304.166	102.74
304.381	-13.99
304.595	72.02
304.809	69.97
305.023	112.98
305.237	100.69
305.452	14.68
305.666	39.25
305.88	88.4
306.094	-1.71
306.308	31.06
306.522	57.68
306.736	63.83
306.95	86.36
307.164	96.6
307.379	29.01
307.593	131.41
307.807	57.68
308.021	18.77
308.235	37.2
308.449	24.92
308.663	88.4
308.877	123.22
309.091	47.44
309.305	90.45
309.519	8.53
309.733	49.49
309.947	51.54
310.161	0.34
310.374	37.2
310.588	55.64
310.802	-89.77
311.016	76.12
311.23	43.35
311.444	-20.14
311.658	31.06
311.872	76.12
312.085	155.99
312.299	65.88
312.513	43.35
312.727	72.02
312.941	61.78
313.154	35.16
313.368	-30.38
313.582	61.78
313.796	92.5
314.009	65.88
314.223	86.36
314.437	74.07
314.651	20.82
314.864	16.73
315.078	20.82
315.292	-13.99
315.505	37.2
315.719	-18.09
315.933	33.11
316.146	51.54
316.36	88.4
316.573	147.8
316.787	41.3
317.001	98.64
317.214	69.97
317.428	57.68
317.641	-48.81
317.855	76.12
318.068	59.73
318.282	110.93
318.495	104.79
318.709	63.83
318.922	6.49
319.136	82.26
319.349	-9.9
319.563	18.77
319.776	63.83
319.99	51.54
320.203	74.07
320.417	2.39
320.63	86.36
320.843	69.97
321.057	82.26
321.27	31.06
321.483	8.53
321.697	63.83
321.91	55.64
322.124	82.26
322.337	84.31
322.55	12.63
322.763	61.78
322.977	-9.9
323.19	29.01
323.403	-5.8
323.617	37.2
323.83	119.12
324.043	72.02
324.256	43.35
324.469	53.59
324.683	-5.8
324.896	74.07
325.109	24.92
325.322	18.77
325.535	59.73
325.748	16.73
325.962	129.36
326.175	43.35
326.388	29.01
326.601	102.74
326.814	33.11
327.027	49.49
327.24	2.39
327.453	-20.14
327.666	135.51
327.879	96.6
328.092	51.54
328.305	61.78
328.518	2.39
328.731	47.44
328.944	104.79
329.157	72.02
329.37	35.16
329.583	65.88
329.796	104.79
330.009	-30.38
330.222	59.73
330.435	47.44
330.648	96.6
330.861	72.02
331.073	43.35
331.286	10.58
331.499	72.02
331.712	2.39
331.925	16.73
332.138	37.2
332.35	80.21
332.563	33.11
332.776	26.96
332.989	104.79
333.202	47.44
333.414	18.77
333.627	74.07
333.84	72.02
334.053	26.96
334.265	37.2
334.478	45.4
334.691	65.88
334.903	102.74
335.116	-32.43
335.329	6.49
335.541	45.4
335.754	186.71
335.966	94.55
336.179	104.79
336.392	86.36
336.604	51.54
336.817	65.88
337.029	67.92
337.242	20.82
337.454	123.22
337.667	29.01
337.88	102.74
338.092	127.32
338.305	110.93
338.517	37.2
338.729	55.64
338.942	49.49
339.154	8.53
339.367	33.11
339.579	57.68
339.792	24.92
340.004	65.88
340.217	8.53
340.429	47.44
340.641	45.4
340.854	43.35
341.066	-30.38
341.278	67.92
341.491	98.64
341.703	57.68
341.915	22.87
342.128	2.39
342.34	82.26
342.552	33.11
342.764	127.32
342.977	18.77
343.189	14.68
343.401	61.78
343.613	-16.04
343.826	69.97
344.038	69.97
344.25	47.44
344.462	-5.8
344.674	8.53
344.886	110.93
345.099	39.25
345.311	51.54
345.523	4.44
345.735	65.88
345.947	10.58
346.159	59.73
346.371	35.16
346.583	16.73
346.795	100.69
347.007	108.88
347.219	57.68
347.431	31.06
347.643	180.56
347.855	33.11
348.067	29.01
348.279	57.68
348.491	82.26
348.703	59.73
348.915	90.45
349.127	31.06
349.339	63.83
349.551	-3.75
349.763	14.68
349.975	26.96
350.187	55.64
350.399	106.84
350.61	74.07
350.822	51.54
351.034	22.87
351.246	131.41
351.458	67.92
351.669	84.31
351.881	123.22
352.093	47.44
352.305	39.25
352.517	-5.8
352.728	143.7
352.94	10.58
353.152	-5.8
353.363	-32.43
353.575	78.16
353.787	84.31
353.999	51.54
354.21	188.75
354.422	12.63
354.633	-32.43
354.845	115.03
355.057	53.59
355.268	94.55
355.48	61.78
355.692	61.78
355.903	49.49
356.115	39.25
356.326	-28.33
356.538	72.02
356.749	51.54
356.961	45.4
357.172	43.35
357.384	4.44
357.595	53.59
357.807	80.21
358.018	37.2
358.23	76.12
358.441	117.08
358.653	43.35
358.864	72.02
359.075	-42.67
359.287	98.64
359.498	96.6
359.709	96.6
359.921	106.84
360.132	57.68
360.344	65.88
360.555	29.01
360.766	100.69
360.977	2.39
361.189	184.66
361.4	31.06
361.611	78.16
361.823	104.79
362.034	57.68
362.245	69.97
362.456	84.31
362.667	16.73
362.879	33.11
363.09	84.31
363.301	43.35
363.512	86.36
363.723	29.01
363.935	45.4
364.146	80.21
364.357	2.39
364.568	43.35
364.779	74.07
364.99	90.45
365.201	78.16
365.412	37.2
365.623	20.82
365.834	24.92
366.045	26.96
366.256	45.4
366.467	119.12
366.678	39.25
366.889	49.49
367.1	43.35
367.311	82.26
367.522	4.44
367.733	143.7
367.944	94.55
368.155	0.34
368.366	80.21
368.577	57.68
368.788	86.36
368.999	31.06
369.209	94.55
369.42	49.49
369.631	117.08
369.842	61.78
370.053	8.53
370.264	131.41
370.474	-1.71
370.685	51.54
370.896	127.32
371.107	82.26
371.317	82.26
371.528	26.96
371.739	108.88
371.95	74.07
372.16	82.26
372.371	14.68
372.582	84.31
372.792	102.74
373.003	72.02
373.214	106.84
373.424	102.74
373.635	78.16
373.846	112.98
374.056	57.68
374.267	63.83
374.477	129.36
374.688	-18.09
374.898	8.53
375.109	90.45
375.319	90.45
375.53	119.12
375.74	53.59
375.951	65.88
376.161	26.96
376.372	92.5
376.582	-1.71
376.793	78.16
377.003	72.02
377.214	-28.33
377.424	86.36
377.635	53.59
377.845	149.84
378.055	162.13
378.266	0.34
378.476	65.88
378.686	65.88
378.897	104.79
379.107	92.5
379.317	135.51
379.528	12.63
379.738	143.7
379.948	20.82
380.158	80.21
380.369	41.3
380.579	102.74
380.789	39.25
380.999	133.46
381.21	123.22
381.42	98.64
381.63	12.63
381.84	100.69
382.05	76.12
382.261	84.31
382.471	129.36
382.681	80.21
382.891	117.08
383.101	41.3
383.311	-3.75
383.521	14.68
383.731	123.22
383.941	127.32
384.151	135.51
384.361	76.12
384.571	-11.95
384.781	92.5
384.991	106.84
385.201	37.2
385.411	49.49
385.621	53.59
385.831	74.07
386.041	47.44
386.251	78.16
386.461	98.64
386.671	41.3
386.881	145.75
387.091	63.83
387.301	10.58
387.511	127.32
387.72	110.93
387.93	41.3
388.14	26.96
388.35	37.2
388.56	127.32
388.769	49.49
388.979	168.27
389.189	49.49
389.399	67.92
389.609	92.5
389.818	39.25
390.028	72.02
390.238	172.37
390.447	92.5
390.657	78.16
390.867	82.26
391.076	49.49
391.286	145.75
391.496	72.02
391.705	104.79
391.915	145.75
392.125	-1.71
392.334	20.82
392.544	164.18
392.753	76.12
392.963	104.79
393.172	123.22
393.382	104.79
393.591	112.98
393.801	94.55
394.01	117.08
394.22	63.83
394.429	98.64
394.639	194.9
394.848	123.22
395.058	117.08
395.267	145.75
395.477	110.93
395.686	143.7
395.895	117.08
396.105	168.27
396.314	198.99
396.524	108.88
396.733	63.83
396.942	221.52
397.152	84.31
397.361	115.03
397.57	57.68
397.78	166.23
397.989	180.56
398.198	115.03
398.407	84.31
398.617	92.5
398.826	145.75
399.035	117.08
399.244	59.73
399.453	139.6
399.663	141.65
399.872	115.03
400.081	65.88
400.29	78.16
400.499	137.56
400.708	192.85
400.917	72.02
401.127	123.22
401.336	82.26
401.545	176.47
401.754	133.46
401.963	192.85
402.172	147.8
402.381	182.61
402.59	125.27
402.799	160.08
403.008	246.1
403.217	90.45
403.426	96.6
403.635	92.5
403.844	188.75
404.053	139.6
404.262	94.55
404.471	190.8
404.68	155.99
404.888	229.71
405.097	168.27
405.306	203.09
405.515	276.82
405.724	215.38
405.933	182.61
406.142	260.43
406.35	223.57
406.559	227.67
406.768	168.27
406.977	270.67
407.185	252.24
407.394	223.57
407.603	209.23
407.812	260.43
408.02	319.82
408.229	289.1
408.438	301.39
408.646	321.87
408.855	399.7
409.064	321.87
409.272	332.11
409.481	356.69
409.69	383.31
409.898	289.1
410.107	360.78
410.315	395.6
410.524	385.36
410.733	452.94
410.941	422.22
411.15	465.23
411.358	430.41
411.567	467.28
411.775	467.28
411.984	495.95
412.192	569.68
412.401	577.87
412.609	563.53
412.818	633.16
413.026	680.27
413.234	653.64
413.443	639.31
413.651	710.99
413.86	700.75
414.068	778.57
414.276	770.38
414.485	733.51
414.693	833.86
414.901	913.74
415.11	876.87
415.318	913.74
415.526	917.83
415.734	946.5
415.943	966.98
416.151	1036.61
416.359	993.61
416.567	1163.59
416.776	1120.58
416.984	1093.96
417.192	1196.36
417.4	1304.9
417.608	1239.36
417.817	1368.38
418.025	1292.61
418.233	1466.69
418.441	1452.35
418.649	1435.97
418.857	1468.73
419.065	1620.28
419.273	1669.44
419.481	1648.96
419.689	1804.6
419.897	1765.69
420.105	1823.03
420.313	1960.25
420.521	2142.52
420.729	2033.97
420.937	2054.45
421.145	2318.64
421.353	2361.65
421.561	2402.61
421.769	2382.13
421.977	2570.54
422.185	2390.32
422.393	2703.66
422.601	2818.35
422.809	2892.07
423.017	2859.31
423.224	2943.27
423.432	3090.73
423.64	3162.41
423.848	3479.84
424.056	3338.53
424.263	3498.27
424.471	3567.9
424.679	3662.11
424.887	3893.53
425.094	3961.11
425.302	3969.3
425.51	4243.73
425.718	4333.84
425.925	4346.13
426.133	4436.24
426.341	4718.86
426.548	4860.17
426.756	4925.71
426.964	4942.09
427.171	5271.81
427.379	5486.85
427.586	5626.11
427.794	5685.5
428.001	5927.16
428.209	6142.2
428.417	6342.9
428.624	6576.37
428.832	6480.11
429.039	6490.35
429.247	6506.74
429.454	7098.6
429.662	7481.57
429.869	7299.3
430.076	7500
430.284	7358.69
430.491	7889.12
430.699	8364.25
430.906	8288.47
431.114	8257.75
431.321	8562.9
431.528	8939.72
431.736	9113.8
431.943	9625.79
432.15	9552.07
432.358	9476.29
432.565	10313.91
432.772	10141.88
432.979	10655.92
433.187	10614.96
433.394	10797.23
433.601	11577.51
433.808	11528.36
434.016	11466.92
434.223	11933.86
434.43	12705.94
434.637	12562.58
434.844	13144.2
435.052	13437.06
435.259	13265.03
435.466	13566.09
435.673	13396.1
435.88	14211.2
436.087	15208.56
436.294	15044.72
436.501	14860.4
436.708	15042.67
436.915	15669.35
437.122	16504.92
437.329	16242.78
437.537	16705.62
437.743	17000.53
437.95	16744.53
438.157	17895.49
438.364	18169.92
438.571	18354.24
438.778	18497.6
438.985	20082.72
439.192	19226.67
439.399	19951.65
439.606	19732.52
439.813	20564
440.02	21858.31
440.227	21311.5
440.433	21336.08
440.64	22091.78
440.847	21790.73
441.054	22358.02
441.261	23941.1
441.467	23625.71
441.674	23953.38
441.881	24539.1
442.088	25102.29
442.294	24643.55
442.501	25290.71
442.708	25640.91
442.914	26802.11
443.121	27983.79
443.328	27062.2
443.534	28561.31
443.741	27932.59
443.948	27817.9
444.154	30177.16
444.361	29994.89
444.568	30017.42
444.774	30097.29
444.981	30304.13
445.187	31313.78
445.394	32315.24
445.6	32108.4
445.807	35180.35
446.013	33863.5
446.22	34008.91
446.426	35831.6
446.633	35903.28
446.839	37203.74
447.046	35587.89
447.252	37435.16
447.459	37369.63
447.665	37564.18
447.871	39005.95
448.078	40836.84
448.284	39112.45
448.491	39886.58
448.697	41608.92
448.903	41606.87
449.11	41995.99
449.316	41549.53
449.522	42577.61
449.728	43753.15
449.935	43673.27
450.141	43964.09
450.347	44463.79
450.553	43521.73
450.76	44031.67
450.966	45215.4
451.172	44584.62
451.378	45829.79
451.584	44770.99
451.791	45811.35
451.997	45893.27
452.203	47019.66
452.409	46847.63
452.615	46333.59
452.821	44652.2
453.027	44271.28
453.233	46440.08
453.44	44754.6
453.646	45368.99
453.852	45291.17
454.058	46253.72
454.264	44887.72
454.47	46012.06
454.676	44648.11
454.882	46296.72
455.088	42309.33
455.294	42708.68
455.5	43777.72
455.705	44336.82
455.911	42096.34
456.117	40890.09
456.323	41076.45
456.529	38561.54
456.735	40537.83
456.941	39517.95
457.147	38432.52
457.352	37418.78
457.558	36986.66
457.764	37371.68
457.97	36374.31
458.176	35813.17
458.381	35809.07
458.587	33822.55
458.793	34080.59
458.999	32169.83
459.204	34619.21
459.41	33761.11
459.616	31446.9
459.821	31530.87
460.027	31702.9
460.233	30889.85
460.438	29333.4
460.644	29536.15
460.85	28350.37
461.055	27989.93
461.261	27959.21
461.466	25905.1
461.672	24840.15
461.878	26687.42
462.083	24797.15
462.289	24238.05
462.494	24514.53
462.7	23087.09
462.905	22614.01
463.111	23412.72
463.316	23486.45
463.522	23017.46
463.727	23105.52
463.932	22562.81
464.138	22712.31
464.343	22603.77
464.549	22372.35
464.754	22888.44
464.959	22505.47
465.165	22562.81
465.37	21264.4
465.575	20930.58
465.781	21866.5
465.986	22052.87
466.191	21098.52
466.397	20772.89
466.602	20000.8
466.807	20240.42
467.012	20453.41
467.218	20539.42
467.423	20015.14
467.628	20197.41
467.833	20994.07
468.038	20221.98
468.244	20117.54
468.449	20516.89
468.654	19800.1
468.859	19650.6
469.064	19906.6
469.269	18868.28
469.474	18970.68
469.679	19198
469.885	18819.13
470.09	19195.95
470.295	18880.57
470.5	18282.56
470.705	18528.31
470.91	18151.49
471.115	18094.15
471.32	18444.35
471.525	18313.28
471.73	17993.79
471.935	17696.84
472.139	17061.97
472.344	17346.64
472.549	17229.9
472.754	17061.97
472.959	16674.9
473.164	16341.08
473.369	16148.57
473.574	16646.23
473.778	16648.28
473.983	16427.1
474.188	16423
474.393	15435.88
474.598	15689.83
474.802	15407.21
475.007	15337.58
475.212	15403.11
475.417	14946.42
475.621	14841.97
475.826	14993.52
476.031	14573.69
476.235	14321.79
476.44	14594.17
476.645	14123.13
476.849	14426.23
477.054	14137.47
477.259	13854.85
477.463	14016.64
477.668	13588.61
477.872	13648.01
478.077	13607.05
478.282	13283.47
478.486	12859.54
478.691	13088.91
478.895	13176.97
479.1	12978.32
479.304	12767.38
479.509	12683.41
479.713	12824.72
479.918	12482.71
480.122	12378.26
480.326	12378.26
480.531	12447.9
480.735	12167.32
480.94	12214.43
481.144	12714.13
481.348	12073.12
481.553	12134.56
481.757	11991.2
481.961	12040.35
482.166	12077.21
482.37	12132.51
482.574	11878.56
482.778	12044.45
482.983	12130.46
483.187	11931.81
483.391	11827.36
483.595	11911.33
483.8	11757.73
484.004	11983.01
484.208	12378.26
484.412	11966.62
484.616	12109.98
484.821	12101.79
485.025	11622.56
485.229	12093.6
485.433	11888.8
485.637	11907.23
485.841	11724.96
486.045	11743.39
486.249	12097.69
486.453	12001.44
486.657	11962.53
486.861	11976.86
487.065	11745.44
487.269	11751.59
487.473	11763.87
487.677	11968.67
487.881	12101.79
488.085	12079.26
488.289	11954.33
488.493	11929.76
488.697	11954.33
488.901	11964.57
489.105	12138.65
489.309	12134.56
489.512	12208.28
489.716	12075.17
489.92	12257.43
490.124	11970.72
490.328	12503.19
490.531	12275.87
490.735	12306.59
490.939	12023.97
491.143	12173.47
491.346	12216.47
491.55	12331.16
491.754	12427.42
491.958	12427.42
492.161	12640.4
492.365	12574.87
492.569	12617.88
492.772	12710.04
492.976	12677.27
493.18	12671.12
493.383	12972.18
493.587	12918.93
493.79	12880.02
493.994	12961.94
494.197	13183.12
494.401	13103.25
494.605	13183.12
494.808	13535.37
495.012	13365.39
495.215	13623.43
495.419	13756.55
495.622	13701.25
495.825	13844.61
496.029	13713.54
496.232	14030.98
496.436	13998.21
496.639	14502.01
496.843	14303.36
497.046	14696.57
497.249	14536.82
497.453	14545.02
497.656	14907.51
497.859	15296.62
498.063	14889.07
498.266	15693.93
498.469	15270
498.673	15575.14
498.876	15931.49
499.079	15806.56
499.282	15908.96
499.485	16386.14
499.689	16269.41
499.892	16334.94
500.095	16672.85
500.298	17006.67
500.501	16719.96
500.705	17363.02
500.908	17633.35
501.111	17596.49
501.314	17838.15
501.517	18044.99
501.72	18063.43
501.923	18257.98
502.126	18739.26
502.329	19009.59
502.532	19036.21
502.735	18997.3
502.938	19265.58
503.141	19433.52
503.344	19968.04
503.547	19920.93
503.75	20119.59
503.953	20469.79
504.156	20670.49
504.359	20529.18
504.562	20836.38
504.765	21313.55
504.968	21542.92
505.17	21858.31
505.373	21938.18
505.576	22093.83
505.779	22366.21
505.982	22345.73
506.185	22638.59
506.387	22941.69
506.59	23314.42
506.793	23609.33
506.996	23607.28
507.198	24453.09
507.401	23717.87
507.604	24229.86
507.807	24991.7
508.009	25112.53
508.212	25202.64
508.415	25528.27
508.617	25532.37
508.82	25690.06
509.022	25835.47
509.225	26322.88
509.428	26720.19
509.63	26417.09
509.833	26943.42
510.035	27371.44
510.238	27529.14
510.44	27482.03
510.643	28184.49
510.845	28413.86
511.048	28237.73
511.25	28735.39
511.453	28745.63
511.655	29671.31
511.858	29556.63
512.06	29597.59
512.262	29982.6
512.465	29783.95
512.667	30537.6
512.87	31082.36
513.072	30979.96
513.274	31471.48
513.477	31635.31
513.679	32147.31
513.881	32491.37
514.084	32606.05
514.286	32610.15
514.488	32544.61
514.69	33947.47
514.893	33746.77
515.095	33636.18
515.297	34291.53
515.499	34230.09
515.701	35151.68
515.904	35186.49
516.106	35026.75
516.308	35661.62
516.51	36015.92
516.712	36001.58
516.914	36181.81
517.116	36738.85
517.318	36863.78
517.52	36919.07
517.722	36970.27
517.925	37916.43
518.127	38315.79
518.329	37977.87
518.531	38119.18
518.733	38786.82
518.935	39311.1
519.136	39014.15
519.338	39610.1
519.54	40036.08
519.742	40097.52
519.944	40419.05
520.146	40875.75
520.348	40976.1
520.55	40818.41
520.752	41314.01
520.954	42055.38
521.155	41547.48
521.357	42596.04
521.559	42569.42
521.761	42929.86
521.963	43286.21
522.164	43402.94
522.366	43904.7
522.568	43714.23
522.77	44099.25
522.971	44730.03
523.173	44062.39
523.375	44693.16
523.576	44902.06
523.778	44904.1
523.98	45604.51
524.181	45743.77
524.383	45594.27
524.584	46067.35
524.786	46091.93
524.988	46073.49
525.189	46464.66
525.391	46624.4
525.592	47246.98
525.794	47070.86
525.995	47230.6
526.197	47586.94
526.398	47308.42
526.6	47951.48
526.801	48361.08
527.003	47875.71
527.204	48137.85
527.406	48318.07
527.607	48514.67
527.808	48651.89
528.01	47941.24
528.211	49090.15
528.412	49450.59
528.614	49170.02
528.815	49071.72
529.016	49378.92
529.218	48922.22
529.419	49387.11
529.62	49317.48
529.822	49479.27
530.023	49669.73
530.224	49526.37
530.425	49391.2
530.626	49571.42
530.828	49411.68
531.029	50157.14
531.23	49866.33
531.431	50044.51
531.632	50064.99
531.833	50146.9
532.035	49976.92
532.236	50329.17
532.437	50316.89
532.638	50028.12
532.839	50245.21
533.04	50409.04
533.241	50073.18
533.442	51043.91
533.643	50450
533.844	50497.11
534.045	50470.48
534.246	50036.31
534.447	50574.93
534.648	50151
534.849	50904.65
535.05	50292.31
535.251	50695.76
535.451	50232.92
535.652	50769.49
535.853	50386.52
536.054	50568.79
536.255	51082.83
536.456	50572.88
536.657	51400.26
536.857	50585.17
537.058	50568.79
537.259	50955.85
537.46	50824.78
537.66	50382.42
537.861	50843.21
538.062	50392.66
538.263	50972.24
538.463	50660.94
538.664	50583.12
538.865	50646.61
539.065	50685.52
539.266	50384.47
539.466	50484.82
539.667	50103.9
539.868	51033.67
540.068	50628.18
540.269	49856.09
540.469	50595.41
540.67	49940.06
540.87	50531.92
541.071	50091.61
541.271	50554.45
541.472	50132.57
541.672	50191.96
541.873	50144.86
542.073	49413.73
542.274	50611.79
542.474	50093.66
542.675	49628.77
542.875	50427.48
543.075	50122.33
543.276	49481.31
543.476	50107.99
543.676	50271.83
543.877	50169.43
544.077	50134.62
544.277	49948.25
544.478	50189.91
544.678	50089.56
544.878	49952.35
545.078	50024.03
545.279	49845.85
545.479	49450.59
545.679	50304.6
545.879	49634.91
546.079	50118.23
546.28	49919.58
546.48	49583.71
546.68	50220.63
546.88	50120.28
547.08	49925.72
547.28	50454.1
547.48	49686.11
547.68	50060.89
547.88	49653.34
548.081	49886.81
548.281	49825.37
548.481	49602.14
548.681	50366.04
548.881	49847.9
549.081	49489.51
549.28	49292.9
549.48	49471.07
549.68	49530.47
549.88	50583.12
550.08	49710.69
550.28	49477.22
550.48	49307.24
550.68	50146.9
550.88	49182.31
551.08	49538.66
551.279	49786.46
551.479	49233.51
551.679	49417.83
551.879	49530.47
552.079	49542.75
552.278	49176.17
552.478	49526.37
552.678	49829.47
552.878	49718.88
553.077	49131.11
553.277	49036.91
553.477	49964.63
553.676	49321.57
553.876	49505.89
554.076	48764.53
554.275	49045.1
554.475	48817.77
554.674	49090.15
554.874	49059.43
555.074	48572.02
555.273	49170.02
555.473	49350.24
555.672	49034.86
555.872	48877.16
556.071	48889.45
556.271	49331.81
556.47	48891.5
556.67	48440.95
556.869	48641.65
557.068	48787.05
557.268	48580.21
557.467	48477.81
557.667	48617.07
557.866	48307.83
558.065	48473.71
558.265	48338.55
558.464	48035.45
558.663	48715.37
558.863	48178.81
559.062	48819.82
559.261	48133.75
559.461	48776.81
559.66	47613.57
559.859	48246.39
560.058	48158.33
560.258	48246.39
560.457	47357.57
560.656	48160.37
560.855	47988.35
561.054	48193.14
561.253	47111.81
561.453	47490.69
561.652	47756.92
561.851	47986.3
562.05	47449.73
562.249	47072.9
562.448	47656.57
562.647	47588.99
562.846	46966.41
563.045	47357.57
563.244	46941.83
563.443	47496.83
563.642	46562.96
563.841	47140.49
564.04	46599.82
564.239	47296.13
564.438	46589.58
564.637	47079.05
564.836	46624.4
565.035	46235.28
565.234	46454.42
565.432	46192.28
565.631	46139.03
565.83	46046.87
566.029	46155.41
566.228	45719.2
566.427	45985.43
566.625	46206.61
566.824	45436.58
567.023	46184.08
567.222	45457.06
567.42	45612.7
567.619	45371.04
567.818	45577.89
568.016	45641.37
568.215	45831.83
568.414	45340.32
568.612	45713.05
568.811	45217.44
569.01	45334.18
569.208	44906.15
569.407	45127.33
569.605	44738.22
569.804	45297.31
570.002	44494.51
570.201	44646.06
570.4	44140.21
570.598	44179.12
570.797	44322.48
570.995	44512.94
571.193	44269.23
571.392	44302
571.59	43865.78
571.789	43769.53
571.987	43949.75
572.186	43816.63
572.384	43597.5
572.582	43527.87
572.781	43812.54
572.979	43087.56
573.177	43200.19
573.376	43656.89
573.574	43095.75
573.772	43257.54
573.971	43292.35
574.169	43075.27
574.367	42903.24
574.565	43015.88
574.763	42684.11
574.962	42682.06
575.16	42217.17
575.358	42632.91
575.556	41799.38
575.754	42665.67
575.952	42069.72
576.151	42419.92
576.349	41565.92
576.547	41561.82
576.745	41854.68
576.943	41762.52
577.141	41281.25
577.339	41570.01
577.537	41645.79
577.735	41668.31
577.933	41187.04
578.131	41309.92
578.329	41172.71
578.527	40988.39
578.725	41092.83
578.923	41141.99
579.121	40965.86
579.319	40556.27
579.516	40963.81
579.714	40574.7
579.912	40339.18
580.11	40822.5
580.308	40445.68
580.506	40232.69
580.704	39845.62
580.901	40111.86
581.099	40543.98
581.297	40011.51
581.495	39558.91
581.692	40003.31
581.89	39364.35
582.088	39411.45
582.285	39218.94
582.483	39597.82
582.681	39177.98
582.878	39175.94
583.076	38807.3
583.274	39249.66
583.471	38504.2
583.669	38813.45
583.866	38510.35
584.064	38905.6
584.262	38143.76
584.459	38960.9
584.657	38223.63
584.854	38475.53
585.052	37955.35
585.249	38102.8
585.447	37902.1
585.644	37826.32
585.841	37846.8
586.039	38037.26
586.236	37555.99
586.434	37582.62
586.631	37125.92
586.828	37256.99
587.026	37560.09
587.223	37211.93
587.42	37259.04
587.618	36882.21
587.815	36734.76
588.012	36478.76
588.21	36466.47
588.407	36828.96
588.604	36595.49
588.801	36310.83
588.999	36435.75
589.196	36165.42
589.393	35997.49
589.59	35942.19
589.787	35964.72
589.984	35821.36
590.182	35579.7
590.379	36165.42
590.576	35538.74
590.773	35618.61
590.97	35555.13
591.167	35604.28
591.364	35241.79
591.561	35348.28
591.758	34565.96
591.955	34858.82
592.152	34785.09
592.349	34809.67
592.546	34819.91
592.743	34436.94
592.94	34080.59
593.137	34185.04
593.334	34654.02
593.531	34017.1
593.727	34525
593.924	33955.66
594.121	33826.64
594.318	33711.95
594.515	33458.01
594.712	33664.85
594.908	33113.95
595.105	34041.68
595.302	33054.56
595.499	33615.7
595.696	32913.25
595.892	33097.56
596.089	32956.25
596.286	32864.1
596.482	32771.94
596.679	32653.16
596.876	32986.97
597.072	32059.24
597.269	32517.99
597.466	32210.79
597.662	32079.72
597.859	32233.32
598.055	32442.21
598.252	32085.87
598.448	31678.32
598.645	31762.29
598.841	31272.82
599.038	31854.45
599.234	31424.37
599.431	31534.96
599.627	31248.25
599.824	31432.57
600.02	31086.46
600.217	31090.55
600.413	31139.71
600.609	31020.92
600.806	30472.07
601.002	30910.33
601.198	30420.87
601.395	30723.97
601.591	30443.4
601.787	30650.24
601.984	30261.13
602.18	30257.03
602.376	29788.05
602.572	30230.41
602.769	29820.81
602.965	29804.43
603.161	29521.81
603.357	29443.99
603.553	29620.11
603.75	29513.62
603.946	29063.07
604.142	29325.21
604.338	28719.01
604.534	29083.55
604.73	28962.72
604.926	28577.7
605.122	29142.94
605.318	28759.97
605.514	28632.99
605.71	28438.44
605.906	28737.44
606.102	28665.76
606.298	28671.9
606.494	28514.21
606.69	28592.03
606.886	28358.56
607.082	28024.75
607.278	28374.95
607.474	27678.64
607.67	28125.1
607.866	27760.56
608.062	28196.78
608.257	27803.57
608.453	27686.83
608.649	28045.23
608.845	27439.03
609.041	27621.3
609.236	27572.14
609.432	27430.83
609.628	27672.5
609.824	27588.53
610.019	27363.25
610.215	26994.62
610.411	27398.07
610.606	26986.43
610.802	27068.34
610.998	27185.08
611.193	27117.5
611.389	26976.19
611.584	26982.33
611.78	26775.48
611.976	26523.58
612.171	26712
612.367	26910.65
612.562	26617.79
612.758	26427.33
612.953	26157
613.149	27002.81
613.344	26294.21
613.539	26662.85
613.735	26365.89
613.93	26302.4
614.126	26320.84
614.321	26863.55
614.517	26247.11
614.712	26081.22
614.907	25823.18
615.103	26271.68
615.298	26027.98
615.493	26365.89
615.688	25901
615.884	26236.87
616.079	25755.6
616.274	26005.45
616.47	25577.42
616.665	25864.14
616.86	25493.46
617.055	25505.74
617.25	25571.28
617.445	25847.75
617.641	25159.64
617.836	25448.4
618.031	25012.18
618.226	25040.86
618.421	25176.02
618.616	25268.18
618.811	24590.3
619.006	25257.94
619.201	24715.23
619.396	24895.45
619.591	24698.84
619.786	24461.28
619.981	24164.32
620.176	24354.79
620.371	23945.19
620.566	24231.91
620.761	23947.24
620.956	24614.88
621.151	23556.08
621.346	23814.12
621.541	23336.95
621.735	23605.23
621.93	23115.76
622.125	23437.3
622.32	22734.84
622.515	22925.3
622.709	22833.14
622.904	22779.9
623.099	22583.29
623.294	22917.11
623.488	22274.05
623.683	22425.6
623.878	22263.81
624.072	22196.23
624.267	21913.61
624.462	21878.79
624.656	21710.86
624.851	21606.41
625.046	21309.46
625.24	21532.68
625.435	21323.79
625.629	21182.48
625.824	21198.87
626.018	20928.53
626.213	20854.81
626.407	20803.61
626.602	20647.96
626.796	20801.56
626.991	20627.48
627.185	20156.45
627.38	20031.52
627.574	20221.98
627.768	19861.54
627.963	19873.83
628.157	19943.46
628.352	19918.89
628.546	19755.05
628.74	19937.32
628.935	19343.41
629.129	19509.29
629.323	18956.34
629.517	19122.23
629.712	19025.97
629.906	19005.49
630.1	18640.95
630.294	18774.07
630.489	18567.23
630.683	18735.16
630.877	18298.94
631.071	18327.61
631.265	18270.27
631.459	18094.15
631.653	18110.53
631.848	17870.92
632.042	17905.73
632.236	18112.58
632.43	17543.24
632.624	17786.95
632.818	17463.37
633.012	17147.98
633.206	17365.07
633.4	17303.63
633.594	17164.37
633.788	17156.18
633.982	16902.23
634.176	16765.01
634.369	16820.31
634.563	16918.61
634.757	16656.47
634.951	16369.76
635.145	16406.62
635.339	16744.53
635.533	16349.28
635.726	16261.21
635.92	16060.51
636.114	16216.16
636.308	16072.8
636.501	15851.62
636.695	15999.07
636.889	15761.51
637.083	15661.16
637.276	15747.17
637.47	15366.25
637.664	15556.71
637.857	15562.86
638.051	15509.61
638.244	15145.07
638.438	15196.27
638.632	15140.97
638.825	14977.14
639.019	14712.95
639.212	14893.17
639.406	14844.02
639.599	14579.83
639.793	14620.79
639.986	14362.75
640.18	14516.34
640.373	14465.14
640.567	14198.91
640.76	14215.29
640.954	13992.06
641.147	14121.09
641.34	13947.01
641.534	13850.75
641.727	13836.42
641.92	13779.08
642.114	13820.03
642.307	13435.02
642.5	13559.94
642.694	13267.08
642.887	13293.71
643.08	13490.31
643.273	13269.13
643.467	13265.03
643.66	13549.7
643.853	13254.8
644.046	13062.29
644.239	13101.2
644.432	13093.01
644.626	12859.54
644.819	12900.5
645.012	12638.36
645.205	12662.93
645.398	12626.07
645.591	12310.68
645.784	12548.25
645.977	12239
646.17	12355.74
646.363	12177.56
646.556	12271.77
646.749	12273.82
646.942	12015.77
647.135	11909.28
647.328	12019.87
647.521	11956.38
647.714	11839.65
647.907	11735.2
648.099	11700.39
648.292	11540.65
648.485	11505.83
648.678	11499.69
648.871	11438.25
649.064	11573.41
649.256	11458.73
649.449	11341.99
649.642	11460.77
649.835	11280.55
650.027	11086
650.22	11057.32
650.413	11161.77
650.605	10866.86
650.798	10664.11
650.991	10752.18
651.183	10680.5
651.376	10815.66
651.568	10686.64
651.761	10764.47
651.954	10676.4
652.146	10606.77
652.339	10477.75
652.531	10576.05
652.724	10399.93
652.916	9996.48
653.109	10229.95
653.301	10240.19
653.494	10295.48
653.686	10143.93
653.879	9953.47
654.071	10029.24
654.263	9799.87
654.456	9797.82
654.648	9951.42
654.84	9803.97
655.033	9607.36
655.225	9705.67
655.417	9390.28
655.61	9668.8
655.802	9607.36
655.994	9222.34
656.186	9642.18
656.379	9320.65
656.571	9412.81
656.763	9228.49
656.955	9134.28
657.148	9343.17
657.34	9193.67
657.532	9033.93
657.724	8880.33
657.916	9134.28
658.108	8863.95
658.3	9015.5
658.492	8825.04
658.684	8806.61
658.876	9005.26
659.068	8730.83
659.26	8704.21
659.452	8763.6
659.644	8597.71
659.836	8519.89
660.028	8683.73
660.22	8370.39
660.412	8503.51
660.604	8401.11
660.796	8241.37
660.988	8100.06
661.18	8212.7
661.372	8286.42
661.563	8026.33
661.755	8020.19
661.947	7989.47
662.139	8020.19
662.331	7977.18
662.522	7987.42
662.714	7760.09
662.906	7887.07
663.097	7895.26
663.289	7680.22
663.481	7725.28
663.673	7674.08
663.864	7620.83
664.056	7641.31
664.247	7626.98
664.439	7616.74
664.631	7629.02
664.822	7430.37
665.014	7571.68
665.205	7436.52
665.397	7495.91
665.588	7424.23
665.78	7319.78
665.971	7379.17
666.163	7203.05
666.354	7084.27
666.546	7227.62
666.737	6975.72
666.929	7174.38
667.12	7076.07
667.311	7098.6
667.503	7016.68
667.694	7178.47
667.885	6918.38
668.077	6924.52
668.268	7041.26
668.459	6783.21
668.651	6701.3
668.842	6738.16
669.033	6691.06
669.224	6856.94
669.416	6752.49
669.607	6689.01
669.798	6725.87
669.989	6785.26
670.18	6408.44
670.371	6605.04
670.563	6338.8
670.754	6473.97
670.945	6553.84
671.136	6430.96
671.327	6406.39
671.518	6443.25
671.709	6398.2
671.9	6351.09
672.091	6342.9
672.282	6379.76
672.473	6314.23
672.664	6197.49
672.855	6220.02
673.046	6199.54
673.237	6285.56
673.428	6303.99
673.619	6131.96
673.809	6185.21
674	6263.03
674.191	6050.04
674.382	5902.59
674.573	6027.51
674.764	6138.1
674.954	5863.68
675.145	5857.53
675.336	6052.09
675.527	5873.92
675.717	5771.52
675.908	5978.36
676.099	5918.97
676.289	5839.1
676.48	5714.17
676.671	5732.61
676.861	5703.93
677.052	5714.17
677.243	5679.36
677.433	5818.62
677.624	5751.04
677.814	5685.5
678.005	5601.54
678.195	5560.58
678.386	5622.02
678.576	5529.86
678.767	5552.38
678.957	5437.7
679.148	5507.33
679.338	5554.43
679.529	5527.81
679.719	5486.85
679.909	5554.43
680.1	5576.96
680.29	5435.65
680.481	5425.41
680.671	5470.47
680.861	5275.91
681.052	5417.22
681.242	5355.78
681.432	5406.98
681.622	5333.25
681.813	5310.72
682.003	5267.72
682.193	5273.86
682.383	5449.99
682.573	5361.92
682.764	5075.21
682.954	5163.27
683.144	5308.68
683.334	5218.57
683.524	5110.02
683.714	5114.12
683.904	5150.98
684.094	5312.77
684.284	5044.49
684.474	5050.63
684.664	5046.54
684.854	4970.76
685.044	5097.74
685.234	4958.47
685.424	5011.72
685.614	5132.55
685.804	4880.65
685.994	5069.06
686.184	4995.34
686.374	4897.03
686.564	4876.55
686.753	4823.31
686.943	4782.35
687.133	4964.62
687.323	4854.03
687.513	4813.07
687.702	4849.93
687.892	4831.5
688.082	4811.02
688.272	4933.9
688.461	4739.34
688.651	4729.1
688.841	4645.13
689.03	4655.37
689.22	4608.27
689.41	4673.81
689.599	4587.79
689.789	4655.37
689.979	4552.98
690.168	4552.98
690.358	4352.27
690.547	4301.08
690.737	4481.3
690.926	4321.56
691.116	4344.08
691.305	4417.81
691.495	4305.17
691.684	4294.93
691.874	4303.12
692.063	4301.08
692.252	4272.4
692.442	4182.29
692.631	4200.73
692.82	4313.36
693.01	4108.57
693.199	4206.87
693.388	4241.68
693.578	4129.05
693.767	3993.88
693.956	4141.33
694.146	3940.63
694.335	4079.9
694.524	4043.03
694.713	3891.48
694.902	3932.44
695.092	4020.5
695.281	3938.59
695.47	3748.12
695.659	4038.94
695.848	4006.17
696.037	3950.87
696.226	3821.85
696.415	3787.04
696.604	3942.68
696.793	3715.36
696.982	3760.41
697.171	3774.75
697.36	3805.47
697.549	3721.5
697.738	3744.03
697.927	3637.53
698.116	3815.71
698.305	3791.13
698.494	3815.71
698.683	3772.7
698.872	3643.68
699.061	3658.01
699.25	3658.01
699.438	3772.7
699.627	3694.88
699.816	3705.12
700.005	3713.31
700.193	3805.47
700.382	3641.63
700.571	3707.16
700.76	3504.42
700.948	3569.95
701.137	3582.24
701.326	3643.68
701.514	3512.61
701.703	3522.85
701.892	3561.76
702.08	3510.56
702.269	3492.13
702.457	3709.21
702.646	3549.47
702.834	3473.7
703.023	3582.24
703.212	3485.98
703.4	3504.42
703.589	3615.01
703.777	3572
703.965	3475.74
704.154	3533.09
704.342	3522.85
704.531	3367.2
704.719	3404.07
704.907	3533.09
705.096	3383.59
705.284	3406.11
705.472	3301.67
705.661	3545.38
705.849	3459.36
706.037	3395.87
706.226	3508.51
706.414	3361.06
706.602	3342.63
706.79	3350.82
706.979	3356.96
707.167	3285.28
707.355	3359.01
707.543	3381.54
707.731	3326.24
707.919	3336.48
708.107	3352.87
708.296	3260.71
708.484	3205.41
708.672	3246.37
708.86	3172.64
709.048	3182.88
709.236	3422.5
709.424	3354.91
709.612	3316
709.8	3369.25
709.988	3313.95
710.176	3242.28
710.364	3428.64
710.551	3033.38
710.739	3227.94
710.927	3215.65
711.115	3172.64
711.303	3270.95
711.491	3184.93
711.679	3072.29
711.866	3178.79
712.054	3225.89
712.242	3199.27
712.43	3242.28
712.617	3232.04
712.805	3234.08
712.993	3193.12
713.181	3146.02
713.368	3219.75
713.556	3344.67
713.744	3131.69
713.931	3258.66
714.119	3262.76
714.306	3154.21
714.494	3256.61
714.682	3139.88
714.869	3232.04
715.057	3232.04
715.244	3146.02
715.432	3215.65
715.619	3109.16
715.807	3141.93
715.994	3197.22
716.182	3146.02
716.369	3094.82
716.556	3262.76
716.744	3094.82
716.931	3195.17
717.119	3164.45
717.306	3193.12
717.493	3111.21
717.681	3119.4
717.868	3029.29
718.055	3146.02
718.242	3129.64
718.43	3037.48
718.617	3213.6
718.804	3180.84
718.991	3107.11
719.179	3182.88
719.366	3060.01
719.553	3174.69
719.74	3019.05
719.927	3105.06
720.114	3103.01
720.301	3068.2
720.488	3205.41
720.676	3068.2
720.863	3236.13
721.05	3107.11
721.237	3117.35
721.424	3094.82
721.611	3090.73
721.798	3008.81
721.985	2976.04
722.172	2976.04
722.358	3178.79
722.545	3012.9
722.732	2990.38
722.919	3115.3
723.106	3021.1
723.293	2992.42
723.48	3017
723.667	3135.78
723.853	3080.49
724.04	3096.87
724.227	3070.25
724.414	2967.85
724.6	3039.53
724.787	3008.81
724.974	3115.3
725.161	3035.43
725.347	3043.62
725.534	3088.68
725.72	3078.44
725.907	2967.85
726.094	3051.81
726.28	3078.44
726.467	3064.1
726.653	2924.84
726.84	2988.33
727.027	3203.36
727.213	2945.32
727.4	3107.11
727.586	2965.8
727.773	3060.01
727.959	2998.57
728.145	3035.43
728.332	2951.46
728.518	3027.24
728.705	3021.1
728.891	2834.73
729.077	2971.94
729.264	3119.4
729.45	3010.86
729.636	3103.01
729.823	3045.67
730.009	3049.77
730.195	3090.73
730.382	2990.38
730.568	2982.18
730.754	2926.89
730.94	3023.14
731.126	3166.5
731.313	3004.71
731.499	3131.69
731.685	3094.82
731.871	3047.72
732.057	3049.77
732.243	3098.92
732.429	3019.05
732.615	3055.91
732.801	3137.83
732.987	2986.28
733.173	2971.94
733.359	3035.43
733.545	3060.01
733.731	3051.81
733.917	3121.45
734.103	3088.68
734.289	3129.64
734.475	3086.63
734.661	3004.71
734.847	3043.62
735.033	2992.42
735.219	3066.15
735.404	3133.73
735.59	3051.81
735.776	2986.28
735.962	3082.53
736.148	2982.18
736.333	3080.49
736.519	3078.44
736.705	3057.96
736.89	3117.35
737.076	3062.05
737.262	2996.52
737.447	3019.05
737.633	2953.51
737.819	3051.81
738.004	2986.28
738.19	2914.6
738.375	3035.43
738.561	3152.17
738.747	3025.19
738.932	3006.76
739.118	3033.38
739.303	2943.27
739.489	3029.29
739.674	3086.63
739.859	2791.72
740.045	2965.8
740.23	2900.27
740.416	2955.56
740.601	2877.74
740.786	3021.1
740.972	2963.75
741.157	2922.79
741.342	2873.64
741.528	2980.14
741.713	3017
741.898	2873.64
742.084	2898.22
742.269	2912.55
742.454	2851.11
742.639	2851.11
742.824	2926.89
743.01	2947.37
743.195	2822.44
743.38	2928.94
743.565	2955.56
743.75	2910.5
743.935	2789.67
744.12	2961.7
744.305	2713.9
744.49	2787.63
744.675	2801.96
744.86	2832.68
745.045	2906.41
745.23	2859.31
745.415	2705.71
745.6	2791.72
745.785	2826.54
745.97	2695.47
746.155	2769.2
746.34	2777.39
746.525	2734.38
746.71	2763.05
746.895	2638.13
747.079	2718
747.264	2564.4
747.449	2765.1
747.634	2720.04
747.819	2752.81
748.003	2738.48
748.188	2625.84
748.373	2607.41
748.557	2566.45
748.742	2595.12
748.927	2517.29
749.111	2631.98
749.296	2537.77
749.481	2629.93
749.665	2568.49
749.85	2552.11
750.034	2507.06
750.219	2439.47
750.404	2482.48
750.588	2355.51
750.773	2443.57
750.957	2349.36
751.141	2412.85
751.326	2380.08
751.51	2345.27
751.695	2388.27
751.879	2343.22
752.064	2326.83
752.248	2341.17
752.432	2349.36
752.617	2355.51
752.801	2369.84
752.985	2240.82
753.17	2277.68
753.354	2351.41
753.538	2244.92
753.722	2189.62
753.907	2138.42
754.091	2265.39
754.275	2175.28
754.459	2193.72
754.643	2093.37
754.828	2074.93
755.012	2146.61
755.196	2152.76
755.38	2087.22
755.564	2109.75
755.748	2066.74
755.932	2126.13
756.116	2144.56
756.3	2044.21
756.484	2015.54
756.668	1923.38
756.852	1921.34
757.036	2066.74
757.22	1929.53
757.404	1909.05
757.588	1868.09
757.772	1941.82
757.956	1931.58
758.14	2009.4
758.323	1855.8
758.507	1927.48
758.691	1863.99
758.875	1947.96
759.059	1804.6
759.242	1909.05
759.426	1837.37
759.61	1839.42
759.794	1857.85
759.977	1917.24
760.161	1866.04
760.345	1780.03
760.528	1763.64
760.712	1720.64
760.895	1808.7
761.079	1716.54
761.263	1696.06
761.446	1780.03
761.63	1765.69
761.813	1685.82
761.997	1638.72
762.18	1681.72
762.364	1681.72
762.547	1608
762.731	1663.29
762.914	1624.38
763.098	1612.09
763.281	1698.11
763.464	1587.52
763.648	1657.15
763.831	1669.44
764.015	1550.65
764.198	1622.33
764.381	1644.86
764.564	1562.94
764.748	1558.85
764.931	1562.94
765.114	1452.35
765.297	1587.52
765.481	1605.95
765.664	1558.85
765.847	1481.02
766.03	1581.37
766.213	1521.98
766.397	1562.94
766.58	1526.08
766.763	1534.27
766.946	1431.87
767.129	1507.65
767.312	1550.65
767.495	1468.73
767.678	1481.02
767.861	1497.41
768.044	1401.15
768.227	1460.54
768.41	1395.01
768.593	1464.64
768.776	1526.08
768.959	1292.61
769.142	1521.98
769.324	1431.87
769.507	1503.55
769.69	1407.3
769.873	1290.56
770.056	1470.78
770.239	1380.67
770.421	1438.02
770.604	1370.43
770.787	1308.99
770.97	1325.38
771.152	1294.66
771.335	1401.15
771.518	1347.9
771.7	1384.77
771.883	1374.53
772.066	1352
772.248	1325.38
772.431	1339.71
772.613	1341.76
772.796	1278.27
772.978	1237.31
773.161	1265.99
773.343	1370.43
773.526	1179.97
773.708	1259.84
773.891	1116.48
774.073	1251.65
774.256	1272.13
774.438	1313.09
774.621	1255.75
774.803	1179.97
774.985	1212.74
775.168	1317.19
775.35	1098.05
775.532	1163.59
775.715	1179.97
775.897	1192.26
776.079	1118.53
776.261	1022.28
776.444	1091.91
776.626	1120.58
776.808	1089.86
776.99	1096
777.173	1063.24
777.355	1171.78
777.537	1009.99
777.719	1073.48
777.901	1063.24
778.083	1046.85
778.265	1024.33
778.447	966.98
778.629	1014.09
778.811	948.55
778.993	1081.67
779.175	1069.38
779.357	1003.85
779.539	956.74
779.721	981.32
779.903	1034.57
780.085	1001.8
780.267	946.5
780.449	934.22
780.631	995.65
780.812	926.02
780.994	950.6
781.176	786.76
781.358	911.69
781.54	903.5
781.721	940.36
781.903	883.02
782.085	854.34
782.267	745.8
782.448	764.23
782.63	889.16
782.812	852.3
782.993	827.72
783.175	731.47
783.357	719.18
783.538	821.58
783.72	850.25
783.901	874.82
784.083	772.43
784.264	723.27
784.446	760.14
784.627	801.1
784.809	766.28
784.99	753.99
785.172	747.85
785.353	745.8
785.535	741.71
785.716	745.8
785.897	682.31
786.079	758.09
786.26	713.03
786.441	692.55
786.623	672.08
786.804	606.54
786.985	700.75
787.167	659.79
787.348	657.74
787.529	661.84
787.71	663.88
787.891	674.12
788.073	612.68
788.254	651.6
788.435	682.31
788.616	676.17
788.797	584.01
788.978	678.22
789.159	600.4
789.34	649.55
789.522	555.34
789.703	635.21
789.884	600.4
790.065	637.26
790.246	633.16
790.427	606.54
790.607	620.88
790.788	643.4
790.969	600.4
791.15	659.79
791.331	563.53
791.512	541.01
791.693	514.38
791.874	590.16
792.054	569.68
792.235	579.92
792.416	518.48
792.597	520.53
792.778	520.53
792.958	563.53
793.139	559.44
793.32	557.39
793.5	606.54
793.681	563.53
793.862	549.2
794.042	485.71
794.223	459.09
794.404	432.46
794.584	379.22
794.765	502.09
794.945	530.77
795.126	481.61
795.306	493.9
795.487	442.7
795.667	362.83
795.848	440.65
796.028	498
796.209	489.81
796.389	485.71
796.57	471.37
796.75	475.47
796.93	411.98
797.111	440.65
797.291	457.04
797.471	411.98
797.652	385.36
797.832	393.55
798.012	498
798.192	393.55
798.373	452.94
798.553	481.61
798.733	506.19
798.913	450.89
799.093	452.94
799.274	368.98
799.454	414.03
799.634	418.13
799.814	352.59
799.994	397.65
800.174	487.76
800.354	403.79
800.534	383.31
800.714	356.69
800.894	340.3
801.074	299.34
801.254	411.98
801.434	430.41
801.614	424.27
801.794	311.63
801.974	993.61
802.154	405.84
802.334	328.02
802.514	328.02
802.693	350.54
802.873	373.07
803.053	397.65
803.233	344.4
803.413	414.03
803.592	338.26
803.772	356.69
803.952	315.73
804.131	291.15
804.311	385.36
804.491	350.54
804.67	268.63
804.85	334.16
805.03	383.31
805.209	362.83
805.389	411.98
805.568	276.82
805.748	254.29
805.928	352.59
806.107	356.69
806.287	330.06
806.466	280.91
806.646	282.96
806.825	313.68
807.004	323.92
807.184	356.69
807.363	364.88
807.543	321.87
807.722	289.1
807.901	360.78
808.081	254.29
808.26	325.97
808.439	295.25
808.619	342.35
808.798	248.15
808.977	295.25
809.156	330.06
809.336	309.58
809.515	352.59
809.694	229.71
809.873	319.82
810.052	256.34
810.231	305.49
810.411	291.15
810.59	336.21
810.769	213.33
810.948	262.48
811.127	217.43
811.306	248.15
811.485	260.43
811.664	307.54
811.843	287.06
812.022	205.14
812.201	217.43
812.38	196.95
812.559	235.86
812.737	225.62
812.916	213.33
813.095	207.19
813.274	221.52
813.453	272.72
813.632	198.99
813.811	254.29
813.989	215.38
814.168	211.28
814.347	295.25
814.526	274.77
814.704	213.33
814.883	198.99
815.062	239.95
815.24	252.24
815.419	250.19
815.598	158.03
815.776	252.24
815.955	260.43
816.133	186.71
816.312	211.28
816.49	223.57
816.669	139.6
816.847	201.04
817.026	285.01
817.204	254.29
817.383	237.91
817.561	213.33
817.74	235.86
817.918	231.76
818.097	274.77
818.275	207.19
818.453	211.28
818.632	129.36
818.81	242
818.988	217.43
819.167	196.95
819.345	190.8
819.523	211.28
819.701	135.51
819.879	252.24
820.058	225.62
820.236	207.19
820.414	250.19
820.592	139.6
820.77	127.32
820.948	137.56
821.127	127.32
821.305	178.51
821.483	198.99
821.661	180.56
821.839	221.52
822.017	151.89
822.195	211.28
822.373	285.01
822.551	92.5
822.729	160.08
822.907	137.56
823.085	143.7
823.262	133.46
823.44	203.09
823.618	217.43
823.796	162.13
823.974	147.8
824.152	172.37
824.329	76.12
824.507	125.27
824.685	166.23
824.863	117.08
825.04	145.75
825.218	239.95
825.396	117.08
825.574	217.43
825.751	135.51
825.929	90.45
826.107	141.65
826.284	158.03
826.462	110.93
826.639	149.84
826.817	80.21
826.994	106.84
827.172	115.03
827.349	178.51
827.527	196.95
827.704	145.75
827.882	139.6
828.059	196.95
828.237	143.7
828.414	153.94
828.591	119.12
828.769	168.27
828.946	112.98
829.124	141.65
829.301	143.7
829.478	131.41
829.655	190.8
829.833	129.36
830.01	135.51
830.187	160.08
830.364	129.36
830.542	96.6
830.719	117.08
830.896	213.33
831.073	133.46
831.25	182.61
831.427	135.51
831.604	153.94
831.782	151.89
831.959	153.94
832.136	41.3
832.313	41.3
832.49	59.73
832.667	96.6
832.844	117.08
833.021	215.38
833.198	143.7
833.374	153.94
833.551	108.88
833.728	108.88
833.905	137.56
834.082	106.84
834.259	55.64
834.436	80.21
834.612	131.41
834.789	108.88
834.966	112.98
835.143	102.74
835.319	86.36
835.496	164.18
835.673	55.64
835.85	88.4
836.026	155.99
836.203	123.22
836.38	168.27
836.556	147.8
836.733	162.13
836.909	147.8
837.086	43.35
837.262	43.35
837.439	131.41
837.616	80.21
837.792	69.97
837.968	135.51
838.145	74.07
838.321	155.99
838.498	129.36
838.674	92.5
838.851	123.22
839.027	90.45
839.203	43.35
839.38	45.4
839.556	86.36
839.732	149.84
839.909	123.22
840.085	115.03
840.261	37.2
840.437	110.93
840.614	104.79
840.79	119.12
840.966	72.02
841.142	82.26
841.318	18.77
841.494	90.45
841.671	82.26
841.847	61.78
842.023	59.73
842.199	90.45
842.375	110.93
842.551	39.25
842.727	14.68
842.903	131.41
843.079	43.35
843.255	141.65
843.431	94.55
843.607	125.27
843.783	-22.19
843.959	168.27
844.134	55.64
844.31	57.68
844.486	61.78
844.662	153.94
844.838	88.4
845.013	74.07
845.189	74.07
845.365	137.56
845.541	98.64
845.716	123.22
845.892	59.73
846.068	82.26
846.244	33.11
846.419	151.89
846.595	24.92
846.77	72.02
846.946	76.12
847.122	90.45
847.297	72.02
847.473	121.17
847.648	102.74
847.824	123.22
847.999	65.88
848.175	29.01
848.35	131.41
848.526	145.75
848.701	63.83
848.876	164.18
849.052	121.17
849.227	49.49
849.403	0.34
849.578	37.2
849.753	26.96
849.929	108.88
850.104	-30.38
850.279	31.06
850.454	92.5
850.63	94.55
850.805	18.77
850.98	80.21
851.155	10.58
851.33	96.6
851.505	12.63
851.681	104.79
851.856	153.94
852.031	51.54
852.206	41.3
852.381	69.97
852.556	-5.8
852.731	82.26
852.906	92.5
853.081	-7.85
853.256	67.92
853.431	41.3
853.606	63.83
853.781	57.68
853.956	0.34
854.131	24.92
854.305	35.16
854.48	14.68
854.655	33.11
854.83	80.21
855.005	92.5
855.18	31.06
855.354	24.92
855.529	72.02
855.704	51.54
855.879	92.5
856.053	20.82
856.228	119.12
856.403	16.73
856.577	90.45
856.752	92.5
856.926	67.92
857.101	61.78
857.276	129.36
857.45	43.35
857.625	80.21
857.799	92.5
857.974	2.39
858.148	-1.71
858.323	57.68
858.497	2.39
858.672	26.96
858.846	-9.9
859.02	82.26
859.195	86.36
859.369	67.92
859.543	37.2
859.718	-54.95
859.892	82.26
860.066	51.54
860.241	47.44
860.415	72.02
860.589	110.93
860.763	29.01
860.938	-9.9
861.112	117.08
861.286	-22.19
861.46	41.3
861.634	45.4
861.808	53.59
861.982	26.96
862.157	86.36
862.331	51.54
862.505	94.55
862.679	-36.52
862.853	16.73
863.027	61.78
863.201	53.59
863.375	8.53
863.549	55.64
863.722	37.2
863.896	22.87
864.07	-5.8
864.244	57.68
864.418	43.35
864.592	43.35
864.766	14.68
864.939	43.35
865.113	61.78
865.287	88.4
865.461	4.44
865.634	117.08
865.808	-9.9
865.982	82.26
866.156	82.26
866.329	-11.95
866.503	33.11
866.676	123.22
866.85	125.27
867.024	51.54
867.197	61.78
867.371	26.96
867.544	-54.95
867.718	-9.9
867.891	67.92
868.065	-5.8
868.238	29.01
868.412	112.98
868.585	0.34
868.759	24.92
868.932	18.77
869.105	20.82
869.279	-57
869.452	10.58
869.625	59.73
869.799	20.82
869.972	18.77
870.145	127.32
870.319	-18.09
870.492	59.73
870.665	24.92
870.838	63.83
871.011	-30.38
871.185	10.58
871.358	22.87
871.531	-34.47
871.704	6.49
871.877	82.26
872.05	16.73
872.223	55.64
872.396	31.06
872.569	53.59
872.742	-9.9
872.915	76.12
873.088	-79.53
873.261	-71.34
873.434	76.12
873.607	20.82
873.78	84.31
873.953	-16.04
874.126	12.63
874.299	129.36
874.471	16.73
874.644	61.78
874.817	125.27
874.99	90.45
875.163	-3.75
875.335	45.4
875.508	49.49
875.681	106.84
875.853	8.53
876.026	-11.95
876.199	4.44
876.371	22.87
876.544	6.49
876.717	26.96
876.889	-7.85
877.062	20.82
877.234	35.16
877.407	0.34
877.579	37.2
877.752	-1.71
877.924	78.16
878.097	69.97
878.269	14.68
878.442	57.68
878.614	12.63
878.786	61.78
878.959	31.06
879.131	61.78
879.303	-44.71
879.476	-3.75
879.648	18.77
879.82	22.87
879.993	4.44
880.165	37.2
880.337	-67.24
880.509	-13.99
880.681	-38.57
880.854	20.82
881.026	67.92
881.198	43.35
881.37	59.73
881.542	41.3
881.714	-30.38
881.886	-13.99
882.058	78.16
882.23	10.58
882.402	-9.9
882.574	29.01
882.746	16.73
882.918	45.4
883.09	80.21
883.262	24.92
883.434	47.44
883.606	10.58
883.778	51.54
883.95	-5.8
884.122	-48.81
884.293	35.16
884.465	-13.99
884.637	41.3
884.809	45.4
884.98	33.11
885.152	-7.85
885.324	39.25
885.496	51.54
885.667	-48.81
885.839	2.39
886.011	82.26
886.182	4.44
886.354	49.49
886.525	49.49
886.697	-3.75
886.869	51.54
887.04	-1.71
887.212	117.08
887.383	106.84
887.555	10.58
887.726	2.39
887.897	37.2
888.069	88.4
888.24	8.53
888.412	53.59
888.583	43.35
888.754	-13.99
888.926	31.06
889.097	-38.57
889.268	35.16
889.44	-7.85
889.611	29.01
889.782	-9.9
889.953	-13.99
890.125	14.68
890.296	8.53
890.467	47.44
890.638	8.53
890.809	14.68
890.98	-9.9
891.151	6.49
891.323	29.01
891.494	29.01
891.665	57.68
891.836	22.87
892.007	63.83
892.178	22.87
892.349	65.88
892.52	39.25
892.691	-20.14
892.862	-32.43
893.032	-52.91
893.203	-11.95
893.374	-9.9
893.545	76.12
893.716	65.88
893.887	115.03
894.057	-97.96
894.228	-20.14
894.399	-3.75
894.57	18.77
894.74	16.73
894.911	4.44
895.082	-48.81
895.253	43.35
895.423	20.82
895.594	-26.28
895.764	0.34
895.935	31.06
896.106	78.16
896.276	-18.09
896.447	8.53
896.617	-40.62
896.788	29.01
896.958	-32.43
897.129	26.96
897.299	0.34
897.47	24.92
897.64	22.87
897.81	24.92
897.981	26.96
898.151	-52.91
898.322	78.16
898.492	-18.09
898.662	-22.19
898.832	-7.85
899.003	39.25
899.173	61.78
899.343	-87.72
899.513	-5.8
