Data from USB4F104151__32__12-41-18-024.txt Node

Date: Fri Mar 14 12:41:18 EDT 2025
User: louis
Spectrometer: USB4F10415
Trigger mode: 4
Integration Time (sec): 3.000000E-2
Scans to average: 1
Electric dark correction enabled: true
Nonlinearity correction enabled: false
Boxcar width: 0
XAxis mode: Wavelengths
Number of Pixels in Spectrum: 3648
>>>>>Begin Spectral Data<<<<<
178.204	-87.89
178.424	-87.89
178.644	-87.89
178.864	-159.57
179.084	-73.56
179.304	10.41
179.524	18.6
179.744	-61.27
179.964	37.03
180.184	18.6
180.404	20.65
180.624	14.51
180.844	-44.88
181.064	-69.46
181.283	45.23
181.503	-48.98
181.723	59.56
181.943	-46.93
182.163	104.62
182.383	24.75
182.602	-5.97
182.822	34.99
183.042	-24.4
183.262	-5.97
183.482	-36.69
183.701	73.9
183.921	-14.17
184.141	-46.93
184.361	-5.97
184.58	-3.93
184.8	65.71
185.02	-36.69
185.239	14.51
185.459	-34.64
185.679	4.27
185.898	14.51
186.118	37.03
186.338	51.37
186.557	123.05
186.777	-22.36
186.997	30.89
187.216	8.36
187.436	34.99
187.655	12.46
187.875	69.8
188.095	-18.26
188.314	-34.64
188.534	4.27
188.753	-22.36
188.973	4.27
189.192	112.81
189.412	49.32
189.631	100.52
189.851	22.7
190.07	-3.93
190.29	4.27
190.509	-28.5
190.729	26.79
190.948	20.65
191.168	82.09
191.387	39.08
191.607	45.23
191.826	0.17
192.045	24.75
192.265	12.46
192.484	51.37
192.704	57.51
192.923	30.89
193.142	34.99
193.362	28.84
193.581	123.05
193.8	0.17
194.02	55.47
194.239	-12.12
194.458	-26.45
194.678	61.61
194.897	73.9
195.116	61.61
195.335	82.09
195.555	92.33
195.774	82.09
195.993	110.76
196.212	41.13
196.432	-42.84
196.651	47.27
196.87	-1.88
197.089	24.75
197.308	32.94
197.528	-30.55
197.747	-75.6
197.966	-85.84
198.185	77.99
198.404	73.9
198.623	16.55
198.842	22.7
199.062	26.79
199.281	45.23
199.5	10.41
199.719	98.47
199.938	16.55
200.157	0.17
200.376	51.37
200.595	90.28
200.814	63.66
201.033	-26.45
201.252	30.89
201.471	4.27
201.69	77.99
201.909	88.23
202.128	39.08
202.347	-14.17
202.566	-10.07
202.785	-46.93
203.004	-5.97
203.223	82.09
203.442	8.36
203.661	92.33
203.879	-14.17
204.098	73.9
204.317	-42.84
204.536	63.66
204.755	-24.4
204.974	22.7
205.193	30.89
205.411	116.9
205.63	-24.4
205.849	28.84
206.068	-61.27
206.287	63.66
206.505	69.8
206.724	-12.12
206.943	20.65
207.162	14.51
207.381	47.27
207.599	20.65
207.818	32.94
208.037	-55.12
208.255	47.27
208.474	75.95
208.693	14.51
208.911	43.18
209.13	75.95
209.349	20.65
209.567	32.94
209.786	59.56
210.005	6.31
210.223	37.03
210.442	-1.88
210.661	4.27
210.879	43.18
211.098	2.22
211.316	-8.02
211.535	-24.4
211.753	20.65
211.972	59.56
212.191	12.46
212.409	-16.21
212.628	8.36
212.846	18.6
213.065	55.47
213.283	57.51
213.502	61.61
213.72	-5.97
213.938	43.18
214.157	-44.88
214.375	71.85
214.594	-8.02
214.812	30.89
215.031	45.23
215.249	-85.84
215.467	51.37
215.686	-14.17
215.904	59.56
216.122	-14.17
216.341	86.19
216.559	-26.45
216.778	34.99
216.996	-5.97
217.214	41.13
217.432	41.13
217.651	8.36
217.869	106.67
218.087	53.42
218.306	-1.88
218.524	73.9
218.742	65.71
218.96	80.04
219.179	2.22
219.397	34.99
219.615	75.95
219.833	59.56
220.051	30.89
220.27	41.13
220.488	69.8
220.706	32.94
220.924	47.27
221.142	-18.26
221.36	82.09
221.578	-5.97
221.796	16.55
222.015	61.61
222.233	14.51
222.451	53.42
222.669	73.9
222.887	32.94
223.105	37.03
223.323	71.85
223.541	-51.03
223.759	43.18
223.977	-3.93
224.195	90.28
224.413	69.8
224.631	28.84
224.849	-12.12
225.067	84.14
225.285	-3.93
225.503	-26.45
225.721	-22.36
225.939	12.46
226.157	-12.12
226.375	90.28
226.592	10.41
226.81	32.94
227.028	4.27
227.246	86.19
227.464	45.23
227.682	8.36
227.9	14.51
228.117	34.99
228.335	-40.79
228.553	-1.88
228.771	10.41
228.989	28.84
229.206	16.55
229.424	67.75
229.642	43.18
229.86	-22.36
230.077	-5.97
230.295	-8.02
230.513	39.08
230.731	102.57
230.948	57.51
231.166	16.55
231.384	-34.64
231.601	37.03
231.819	-55.12
232.037	45.23
232.254	63.66
232.472	28.84
232.689	-36.69
232.907	102.57
233.125	10.41
233.342	8.36
233.56	-12.12
233.777	20.65
233.995	-73.56
234.213	16.55
234.43	-34.64
234.648	-5.97
234.865	108.71
235.083	43.18
235.3	16.55
235.518	61.61
235.735	57.51
235.953	51.37
236.17	-57.17
236.388	86.19
236.605	41.13
236.822	75.95
237.04	92.33
237.257	24.75
237.475	10.41
237.692	16.55
237.909	104.62
238.127	4.27
238.344	-12.12
238.562	49.32
238.779	-34.64
238.996	22.7
239.214	71.85
239.431	65.71
239.648	-22.36
239.865	-34.64
240.083	-22.36
240.3	67.75
240.517	0.17
240.735	41.13
240.952	73.9
241.169	75.95
241.386	43.18
241.603	-51.03
241.821	16.55
242.038	16.55
242.255	24.75
242.472	-44.88
242.689	30.89
242.907	67.75
243.124	37.03
243.341	-1.88
243.558	-16.21
243.775	-14.17
243.992	6.31
244.209	57.51
244.426	69.8
244.643	16.55
244.86	73.9
245.078	71.85
245.295	0.17
245.512	24.75
245.729	-32.6
245.946	94.38
246.163	8.36
246.38	2.22
246.597	-14.17
246.814	84.14
247.031	-32.6
247.248	-40.79
247.464	22.7
247.681	71.85
247.898	-8.02
248.115	8.36
248.332	-36.69
248.549	86.19
248.766	123.05
248.983	114.86
249.2	41.13
249.417	80.04
249.633	43.18
249.85	55.47
250.067	43.18
250.284	-14.17
250.501	20.65
250.717	59.56
250.934	26.79
251.151	82.09
251.368	-40.79
251.585	22.7
251.801	-32.6
252.018	8.36
252.235	20.65
252.451	16.55
252.668	-30.55
252.885	32.94
253.102	55.47
253.318	28.84
253.535	-30.55
253.752	37.03
253.968	41.13
254.185	16.55
254.401	14.51
254.618	14.51
254.835	-65.36
255.051	86.19
255.268	-3.93
255.484	59.56
255.701	24.75
255.917	69.8
256.134	37.03
256.351	0.17
256.567	-128.85
256.784	37.03
257	-5.97
257.217	47.27
257.433	59.56
257.65	51.37
257.866	45.23
258.082	-53.08
258.299	-14.17
258.515	71.85
258.732	-36.69
258.948	-10.07
259.165	73.9
259.381	34.99
259.597	8.36
259.814	43.18
260.03	-34.64
260.246	-22.36
260.463	39.08
260.679	94.38
260.895	-8.02
261.112	26.79
261.328	-8.02
261.544	14.51
261.761	41.13
261.977	82.09
262.193	-44.88
262.409	98.47
262.626	-14.17
262.842	55.47
263.058	-10.07
263.274	108.71
263.49	100.52
263.707	71.85
263.923	47.27
264.139	-34.64
264.355	-22.36
264.571	80.04
264.787	-26.45
265.004	61.61
265.22	75.95
265.436	-61.27
265.652	98.47
265.868	-22.36
266.084	4.27
266.3	61.61
266.516	-3.93
266.732	116.9
266.948	45.23
267.164	73.9
267.38	-3.93
267.596	22.7
267.812	28.84
268.028	45.23
268.244	-65.36
268.46	47.27
268.676	-18.26
268.892	75.95
269.108	22.7
269.324	-38.74
269.54	71.85
269.756	39.08
269.972	-8.02
270.188	-14.17
270.403	-22.36
270.619	34.99
270.835	55.47
271.051	-1.88
271.267	-67.41
271.483	26.79
271.698	53.42
271.914	59.56
272.13	49.32
272.346	-38.74
272.562	-22.36
272.777	69.8
272.993	37.03
273.209	90.28
273.425	-18.26
273.64	6.31
273.856	96.43
274.072	-30.55
274.287	14.51
274.503	20.65
274.719	80.04
274.934	-53.08
275.15	-28.5
275.366	8.36
275.581	-5.97
275.797	28.84
276.012	-18.26
276.228	26.79
276.444	22.7
276.659	8.36
276.875	22.7
277.09	-55.12
277.306	22.7
277.521	57.51
277.737	-22.36
277.952	77.99
278.168	47.27
278.383	77.99
278.599	37.03
278.814	47.27
279.03	-14.17
279.245	6.31
279.461	0.17
279.676	20.65
279.892	-51.03
280.107	28.84
280.322	0.17
280.538	6.31
280.753	16.55
280.969	49.32
281.184	-16.21
281.399	16.55
281.615	-40.79
281.83	-10.07
282.045	-26.45
282.26	-51.03
282.476	47.27
282.691	12.46
282.906	2.22
283.122	32.94
283.337	12.46
283.552	59.56
283.767	-26.45
283.983	-1.88
284.198	32.94
284.413	65.71
284.628	-34.64
284.843	37.03
285.058	69.8
285.274	-48.98
285.489	0.17
285.704	37.03
285.919	-14.17
286.134	24.75
286.349	-1.88
286.564	77.99
286.779	47.27
286.995	49.32
287.21	-108.37
287.425	57.51
287.64	24.75
287.855	18.6
288.07	-63.32
288.285	26.79
288.5	69.8
288.715	22.7
288.93	22.7
289.145	43.18
289.36	73.9
289.575	-30.55
289.79	43.18
290.004	47.27
290.219	43.18
290.434	-24.4
290.649	28.84
290.864	-16.21
291.079	94.38
291.294	2.22
291.509	-18.26
291.724	65.71
291.938	-5.97
292.153	49.32
292.368	45.23
292.583	118.95
292.798	39.08
293.012	75.95
293.227	20.65
293.442	94.38
293.657	123.05
293.871	84.14
294.086	20.65
294.301	65.71
294.516	96.43
294.73	43.18
294.945	-89.94
295.16	110.76
295.374	-24.4
295.589	-5.97
295.804	20.65
296.018	55.47
296.233	67.75
296.447	20.65
296.662	-48.98
296.877	84.14
297.091	20.65
297.306	90.28
297.52	-3.93
297.735	90.28
297.949	-8.02
298.164	30.89
298.378	-3.93
298.593	10.41
298.807	-40.79
299.022	28.84
299.236	34.99
299.451	0.17
299.665	37.03
299.88	47.27
300.094	-28.5
300.309	-1.88
300.523	84.14
300.737	-36.69
300.952	57.51
301.166	82.09
301.381	-65.36
301.595	6.31
301.809	32.94
302.024	-46.93
302.238	-32.6
302.452	26.79
302.667	10.41
302.881	104.62
303.095	67.75
303.309	26.79
303.524	67.75
303.738	43.18
303.952	32.94
304.166	22.7
304.381	26.79
304.595	55.47
304.809	49.32
305.023	0.17
305.237	43.18
305.452	67.75
305.666	22.7
305.88	82.09
306.094	45.23
306.308	90.28
306.522	32.94
306.736	-1.88
306.95	28.84
307.164	10.41
307.379	-12.12
307.593	12.46
307.807	41.13
308.021	26.79
308.235	84.14
308.449	-34.64
308.663	8.36
308.877	67.75
309.091	-5.97
309.305	28.84
309.519	-16.21
309.733	49.32
309.947	-8.02
310.161	61.61
310.374	12.46
310.588	-5.97
310.802	-51.03
311.016	10.41
311.23	57.51
311.444	-3.93
311.658	-89.94
311.872	10.41
312.085	59.56
312.299	67.75
312.513	16.55
312.727	-57.17
312.941	55.47
313.154	26.79
313.368	-24.4
313.582	47.27
313.796	-30.55
314.009	59.56
314.223	-1.88
314.437	96.43
314.651	18.6
314.864	-55.12
315.078	20.65
315.292	49.32
315.505	59.56
315.719	20.65
315.933	86.19
316.146	37.03
316.36	-3.93
316.573	88.23
316.787	8.36
317.001	20.65
317.214	6.31
317.428	-1.88
317.641	6.31
317.855	47.27
318.068	26.79
318.282	2.22
318.495	63.66
318.709	53.42
318.922	-44.88
319.136	131.24
319.349	30.89
319.563	4.27
319.776	24.75
319.99	26.79
320.203	131.24
320.417	30.89
320.63	86.19
320.843	170.15
321.057	45.23
321.27	34.99
321.483	43.18
321.697	92.33
321.91	0.17
322.124	61.61
322.337	12.46
322.55	14.51
322.763	-20.31
322.977	98.47
323.19	-18.26
323.403	51.37
323.617	8.36
323.83	26.79
324.043	-36.69
324.256	20.65
324.469	-8.02
324.683	71.85
324.896	49.32
325.109	43.18
325.322	24.75
325.535	8.36
325.748	39.08
325.962	73.9
326.175	43.18
326.388	125.1
326.601	47.27
326.814	-16.21
327.027	73.9
327.24	151.72
327.453	65.71
327.666	49.32
327.879	82.09
328.092	6.31
328.305	14.51
328.518	26.79
328.731	49.32
328.944	65.71
329.157	67.75
329.37	14.51
329.583	28.84
329.796	80.04
330.009	-44.88
330.222	-38.74
330.435	67.75
330.648	14.51
330.861	61.61
331.073	-38.74
331.286	37.03
331.499	41.13
331.712	2.22
331.925	-5.97
332.138	84.14
332.35	49.32
332.563	-12.12
332.776	59.56
332.989	39.08
333.202	30.89
333.414	-32.6
333.627	90.28
333.84	-40.79
334.053	55.47
334.265	96.43
334.478	28.84
334.691	16.55
334.903	-8.02
335.116	2.22
335.329	84.14
335.541	30.89
335.754	106.67
335.966	10.41
336.179	37.03
336.392	16.55
336.604	43.18
336.817	34.99
337.029	61.61
337.242	53.42
337.454	-10.07
337.667	71.85
337.88	106.67
338.092	75.95
338.305	8.36
338.517	63.66
338.729	110.76
338.942	2.22
339.154	20.65
339.367	39.08
339.579	90.28
339.792	-55.12
340.004	61.61
340.217	98.47
340.429	90.28
340.641	-18.26
340.854	30.89
341.066	2.22
341.278	88.23
341.491	65.71
341.703	34.99
341.915	-28.5
342.128	47.27
342.34	90.28
342.552	-53.08
342.764	71.85
342.977	98.47
343.189	84.14
343.401	-3.93
343.613	26.79
343.826	51.37
344.038	-18.26
344.25	90.28
344.462	16.55
344.674	-48.98
344.886	4.27
345.099	-1.88
345.311	14.51
345.523	22.7
345.735	-26.45
345.947	45.23
346.159	45.23
346.371	2.22
346.583	45.23
346.795	104.62
347.007	22.7
347.219	30.89
347.431	32.94
347.643	32.94
347.855	-36.69
348.067	61.61
348.279	-44.88
348.491	-16.21
348.703	16.55
348.915	-36.69
349.127	2.22
349.339	24.75
349.551	12.46
349.763	67.75
349.975	71.85
350.187	67.75
350.399	14.51
350.61	24.75
350.822	8.36
351.034	20.65
351.246	37.03
351.458	86.19
351.669	88.23
351.881	-3.93
352.093	10.41
352.305	37.03
352.517	47.27
352.728	82.09
352.94	30.89
353.152	39.08
353.363	77.99
353.575	110.76
353.787	63.66
353.999	77.99
354.21	77.99
354.422	53.42
354.633	2.22
354.845	102.57
355.057	30.89
355.268	67.75
355.48	67.75
355.692	0.17
355.903	73.9
356.115	45.23
356.326	41.13
356.538	92.33
356.749	92.33
356.961	59.56
357.172	30.89
357.384	73.9
357.595	53.42
357.807	16.55
358.018	-14.17
358.23	4.27
358.441	84.14
358.653	90.28
358.864	61.61
359.075	16.55
359.287	47.27
359.498	100.52
359.709	20.65
359.921	32.94
360.132	59.56
360.344	96.43
360.555	61.61
360.766	-3.93
360.977	-8.02
361.189	73.9
361.4	-38.74
361.611	12.46
361.823	37.03
362.034	8.36
362.245	-51.03
362.456	-40.79
362.667	45.23
362.879	20.65
363.09	-48.98
363.301	104.62
363.512	20.65
363.723	32.94
363.935	69.8
364.146	43.18
364.357	88.23
364.568	53.42
364.779	51.37
364.99	86.19
365.201	-20.31
365.412	106.67
365.623	18.6
365.834	4.27
366.045	12.46
366.256	67.75
366.467	4.27
366.678	61.61
366.889	37.03
367.1	49.32
367.311	80.04
367.522	-14.17
367.733	137.38
367.944	92.33
368.155	32.94
368.366	20.65
368.577	51.37
368.788	65.71
368.999	-12.12
369.209	73.9
369.42	131.24
369.631	141.48
369.842	61.61
370.053	57.51
370.264	0.17
370.474	16.55
370.685	41.13
370.896	59.56
371.107	69.8
371.317	32.94
371.528	26.79
371.739	30.89
371.95	112.81
372.16	65.71
372.371	86.19
372.582	-16.21
372.792	51.37
373.003	22.7
373.214	-40.79
373.424	92.33
373.635	14.51
373.846	127.14
374.056	96.43
374.267	82.09
374.477	127.14
374.688	26.79
374.898	49.32
375.109	-5.97
375.319	69.8
375.53	57.51
375.74	75.95
375.951	-1.88
376.161	26.79
376.372	34.99
376.582	41.13
376.793	34.99
377.003	51.37
377.214	34.99
377.424	90.28
377.635	41.13
377.845	37.03
378.055	45.23
378.266	45.23
378.476	-8.02
378.686	86.19
378.897	39.08
379.107	123.05
379.317	30.89
379.528	49.32
379.738	149.67
379.948	4.27
380.158	61.61
380.369	2.22
380.579	55.47
380.789	28.84
380.999	26.79
381.21	39.08
381.42	116.9
381.63	65.71
381.84	73.9
382.05	92.33
382.261	127.14
382.471	96.43
382.681	-14.17
382.891	6.31
383.101	32.94
383.311	37.03
383.521	-5.97
383.731	61.61
383.941	82.09
384.151	45.23
384.361	69.8
384.571	-8.02
384.781	45.23
384.991	69.8
385.201	104.62
385.411	104.62
385.621	32.94
385.831	49.32
386.041	59.56
386.251	45.23
386.461	106.67
386.671	86.19
386.881	6.31
387.091	59.56
387.301	43.18
387.511	80.04
387.72	51.37
387.93	108.71
388.14	-24.4
388.35	43.18
388.56	118.95
388.769	67.75
388.979	32.94
389.189	-63.32
389.399	73.9
389.609	114.86
389.818	32.94
390.028	73.9
390.238	71.85
390.447	45.23
390.657	18.6
390.867	28.84
391.076	34.99
391.286	92.33
391.496	67.75
391.705	12.46
391.915	30.89
392.125	133.29
392.334	45.23
392.544	94.38
392.753	82.09
392.963	24.75
393.172	69.8
393.382	100.52
393.591	153.77
393.801	53.42
394.01	67.75
394.22	53.42
394.429	75.95
394.639	53.42
394.848	110.76
395.058	16.55
395.267	51.37
395.477	112.81
395.686	149.67
395.895	88.23
396.105	153.77
396.314	194.73
396.524	102.57
396.733	133.29
396.942	92.33
397.152	100.52
397.361	84.14
397.57	82.09
397.78	98.47
397.989	133.29
398.198	129.19
398.407	73.9
398.617	59.56
398.826	110.76
399.035	55.47
399.244	147.62
399.453	49.32
399.663	121
399.872	155.82
400.081	147.62
400.29	125.1
400.499	43.18
400.708	69.8
400.917	102.57
401.127	168.1
401.336	80.04
401.545	184.49
401.754	114.86
401.963	147.62
402.172	98.47
402.381	112.81
402.59	100.52
402.799	102.57
403.008	227.5
403.217	108.71
403.426	116.9
403.635	161.96
403.844	131.24
404.053	116.9
404.262	151.72
404.471	147.62
404.68	172.2
404.888	155.82
405.097	94.38
405.306	166.06
405.515	211.11
405.724	155.82
405.933	266.41
406.142	190.63
406.35	215.21
406.559	170.15
406.768	225.45
406.977	231.59
407.185	200.87
407.394	213.16
407.603	125.1
407.812	256.17
408.02	225.45
408.229	88.23
408.438	207.02
408.646	188.58
408.855	231.59
409.064	299.17
409.272	192.68
409.481	319.65
409.69	266.41
409.898	268.45
410.107	303.27
410.315	295.08
410.524	264.36
410.733	354.47
410.941	383.14
411.15	434.34
411.358	329.89
411.567	420
411.775	393.38
411.984	385.19
412.192	417.96
412.401	444.58
412.609	446.63
412.818	450.72
413.026	460.96
413.234	534.69
413.443	499.88
413.651	542.88
413.86	522.4
414.068	686.24
414.276	630.95
414.485	592.03
414.693	682.14
414.901	749.73
415.11	762.02
415.318	743.58
415.526	796.83
415.734	796.83
415.943	827.55
416.151	919.71
416.359	805.02
416.567	923.8
416.776	946.33
416.984	983.2
417.192	1022.11
417.4	993.44
417.608	1020.06
417.817	1093.79
418.025	1120.41
418.233	1114.27
418.441	1161.37
418.649	1167.51
418.857	1314.97
419.065	1255.58
419.273	1314.97
419.481	1357.97
419.689	1497.24
419.897	1491.09
420.105	1532.05
420.313	1671.31
420.521	1708.18
420.729	1685.65
420.937	1728.66
421.145	1888.4
421.353	1886.35
421.561	2105.48
421.769	2099.34
421.977	2209.93
422.185	2037.9
422.393	2187.4
422.601	2351.24
422.809	2334.86
423.017	2363.53
423.224	2594.95
423.432	2564.23
423.64	2637.95
423.848	2910.33
424.056	2783.36
424.263	2998.4
424.471	2926.72
424.679	3010.68
424.887	3176.57
425.094	3315.83
425.302	3303.54
425.51	3543.16
425.718	3565.68
425.925	3651.7
426.133	3762.29
426.341	3864.69
426.548	4061.29
426.756	4087.92
426.964	4143.21
427.171	4329.58
427.379	4497.51
427.586	4569.19
427.794	4722.79
428.001	4843.62
428.209	5075.04
428.417	5126.24
428.624	5285.98
428.832	5326.94
429.039	5415
429.247	5556.31
429.454	5869.65
429.662	6213.71
429.869	5718.1
430.076	6305.87
430.284	5963.86
430.491	6533.19
430.699	6725.7
430.906	6752.32
431.114	6809.67
431.321	7063.61
431.528	7247.93
431.736	7784.5
431.943	8024.11
432.15	7694.39
432.358	7913.52
432.565	8482.86
432.772	8366.12
432.979	8593.45
433.187	9066.53
433.394	8896.55
433.601	9672.73
433.808	9506.84
434.016	9521.18
434.223	9908.24
434.43	10252.3
434.637	10252.3
434.844	10840.07
435.052	10997.76
435.259	11034.63
435.466	11186.18
435.673	11077.63
435.88	11706.36
436.087	12369.9
436.294	12244.98
436.501	12054.51
436.708	12482.54
436.915	12740.58
437.122	13404.13
437.329	13352.93
437.537	13983.7
437.743	14022.61
437.95	13889.49
438.157	14663.63
438.364	14970.82
438.571	14956.49
438.778	15110.08
438.985	16770.99
439.192	15914.94
439.399	16349.11
439.606	16025.53
439.813	16867.24
440.02	18012.06
440.227	17418.14
440.433	17360.8
440.64	17981.34
440.847	17936.28
441.054	18038.68
441.261	19830.65
441.467	19251.08
441.674	19767.17
441.881	20408.18
442.088	20346.74
442.294	20164.47
442.501	20590.45
442.708	21393.25
442.914	21915.48
443.121	22949.71
443.328	22607.7
443.534	23906.11
443.741	23103.31
443.948	22886.22
444.154	24635.19
444.361	24512.31
444.568	24751.92
444.774	24670
444.981	25028.4
445.187	25999.13
445.394	26855.18
445.6	26429.21
445.807	28727.03
446.013	27850.5
446.22	27836.16
446.426	29349.61
446.633	29693.67
446.839	30295.77
447.046	29744.87
447.252	30910.16
447.459	30844.63
447.665	30709.46
447.871	32186.05
448.078	33726.12
448.284	31626.95
448.491	32806.58
448.697	33894.05
448.903	34703
449.11	34496.16
449.316	34070.18
449.522	34940.57
449.728	35673.74
449.935	35815.05
450.141	35927.69
450.347	36757.11
450.553	35708.55
450.76	36322.94
450.966	37133.94
451.172	36994.68
451.378	37736.04
451.584	36986.49
451.791	37981.8
451.997	37760.62
452.203	38588
452.409	38215.27
452.615	38461.02
452.821	37049.97
453.027	36433.53
453.233	38166.12
453.44	36892.28
453.646	37455.47
453.852	37387.89
454.058	38030.95
454.264	36828.79
454.47	37953.13
454.676	36650.62
454.882	38133.35
455.088	34905.75
455.294	35188.37
455.5	35987.08
455.705	36169.35
455.911	34754.2
456.117	34211.49
456.323	33955.49
456.529	32069.31
456.735	33320.62
456.941	32538.3
457.147	31747.78
457.352	31028.95
457.558	30523.1
457.764	30953.17
457.97	30359.26
458.176	29290.22
458.381	29540.07
458.587	28151.55
458.793	27729.67
458.999	26431.26
459.204	28276.48
459.41	27563.78
459.616	25833.25
459.821	26058.53
460.027	26085.15
460.233	25040.68
460.438	24041.28
460.644	24325.94
460.85	23142.22
461.055	22857.55
461.261	22554.45
461.466	21149.54
461.672	20440.95
461.878	22101.85
462.083	20471.67
462.289	19953.53
462.494	19879.8
462.7	18876.3
462.905	18526.1
463.111	19173.25
463.316	19287.94
463.522	18921.35
463.727	18737.04
463.932	18667.41
464.138	18519.95
464.343	18632.59
464.549	18001.82
464.754	18384.79
464.959	18829.2
465.165	18476.94
465.37	17956.76
465.575	17090.47
465.781	17768.35
465.986	17940.38
466.191	17346.47
466.397	17090.47
466.602	16129.97
466.807	16832.43
467.012	16721.84
467.218	16805.8
467.423	16488.37
467.628	16451.5
467.833	17231.78
468.038	16555.95
468.244	16068.53
468.449	16945.06
468.654	16496.56
468.859	16076.73
469.064	16230.32
469.269	15425.47
469.474	15761.34
469.679	15833.02
469.885	15515.58
470.09	15785.91
470.295	15757.24
470.5	15185.86
470.705	15429.57
470.91	14933.96
471.115	15024.07
471.32	15128.52
471.525	14880.71
471.73	14686.15
471.935	14550.99
472.139	14006.23
472.344	14065.62
472.549	14133.2
472.754	14049.24
472.959	13576.16
473.164	13498.33
473.369	12974.05
473.574	13760.47
473.778	13412.32
473.983	13606.88
474.188	13479.9
474.393	12865.51
474.598	12779.5
474.802	12685.29
475.007	12492.78
475.212	12693.48
475.417	12199.92
475.621	12177.39
475.826	12177.39
476.031	12079.09
476.235	11833.33
476.44	11943.92
476.645	11862.01
476.849	11958.26
477.054	11603.96
477.259	11331.58
477.463	11315.2
477.668	11073.54
477.872	11282.43
478.077	10938.37
478.282	10897.41
478.486	10706.95
478.691	10678.28
478.895	10625.03
479.1	10522.63
479.304	10610.7
479.509	10131.47
479.713	10729.48
479.918	10154
480.122	10080.27
480.326	10465.29
480.531	10172.43
480.735	10102.8
480.94	10065.94
481.144	10561.55
481.348	9867.28
481.553	10051.6
481.757	9719.83
481.961	9953.3
482.166	10131.47
482.37	9906.2
482.574	9953.3
482.778	9928.72
482.983	9984.02
483.187	10024.98
483.391	9797.65
483.595	9863.19
483.8	9725.97
484.004	9908.24
484.208	10018.83
484.412	9801.75
484.616	9814.04
484.821	9867.28
485.025	9609.24
485.229	9988.11
485.433	9721.88
485.637	9822.23
485.841	9830.42
486.045	9826.32
486.249	10027.03
486.453	9805.85
486.657	9824.28
486.861	10086.42
487.065	9744.41
487.269	9879.57
487.473	9713.69
487.677	10004.5
487.881	9752.6
488.085	9818.13
488.289	9887.76
488.493	9922.58
488.697	9801.75
488.901	10027.03
489.105	9877.52
489.309	9846.8
489.512	10031.12
489.716	9855
489.92	9965.59
490.124	10031.12
490.328	10057.75
490.531	10039.31
490.735	10078.22
490.939	9959.44
491.143	10346.51
491.346	10373.13
491.55	10442.76
491.754	10233.87
491.958	10358.8
492.161	10340.36
492.365	10401.8
492.569	10321.93
492.772	10422.28
492.976	10510.35
493.18	10473.48
493.383	10622.98
493.587	10706.95
493.79	10801.16
493.994	10649.61
494.197	10645.51
494.401	10887.17
494.605	11089.92
494.808	11087.87
495.012	11114.5
495.215	11345.92
495.419	11427.84
495.622	11446.27
495.825	11495.42
496.029	11300.86
496.232	11759.61
496.436	11724.79
496.639	12206.06
496.843	11612.15
497.046	12132.34
497.249	12273.65
497.453	12330.99
497.656	12589.03
497.859	12470.25
498.063	12642.28
498.266	12689.39
498.469	12771.3
498.673	12818.41
498.876	13025.25
499.079	13215.71
499.282	13133.79
499.485	13762.52
499.689	13496.28
499.892	13623.26
500.095	13813.72
500.298	14411.73
500.501	14165.97
500.705	14534.6
500.908	14538.7
501.111	14665.67
501.314	14884.81
501.517	15114.18
501.72	15005.64
501.923	15081.41
502.126	15476.67
502.329	15804.35
502.532	15822.78
502.735	15900.6
502.938	16351.15
503.141	16340.91
503.344	16500.65
503.547	16297.91
503.75	16990.12
503.953	17117.09
504.156	17045.41
504.359	17407.91
504.562	17194.92
504.765	17694.62
504.968	17936.28
505.17	18014.1
505.373	18274.2
505.576	18333.59
505.779	18669.45
505.982	18536.34
506.185	19128.2
506.387	19023.75
506.59	19320.71
506.793	19715.97
506.996	19539.84
507.198	19998.59
507.401	20006.78
507.604	20338.55
507.807	20492.15
508.009	20531.06
508.212	20600.69
508.415	21118.82
508.617	21268.33
508.82	21491.55
509.022	21241.7
509.225	21854.05
509.428	22130.52
509.63	22204.25
509.833	22384.47
510.035	22720.34
510.238	23023.44
510.44	23074.63
510.643	23430.98
510.845	23435.08
511.048	23373.64
511.25	23877.44
511.453	23996.22
511.655	25331.5
511.858	24182.59
512.06	24446.77
512.262	24962.86
512.465	24751.92
512.667	25493.29
512.87	25747.23
513.072	25513.77
513.274	26138.4
513.477	26175.26
513.679	26513.17
513.881	26732.31
514.084	27090.7
514.286	26773.27
514.488	26996.49
514.69	27834.11
514.893	27746.05
515.095	27866.88
515.297	28284.67
515.499	28522.23
515.701	28432.12
515.904	29032.18
516.106	28739.32
516.308	29292.27
516.51	29521.64
516.712	29390.57
516.914	29834.98
517.116	30213.85
517.318	30236.38
517.52	30813.91
517.722	30809.81
517.925	30979.79
518.127	31274.7
518.329	31514.31
518.531	31313.61
518.733	32200.38
518.935	32200.38
519.136	32118.46
519.338	32808.63
519.54	33087.15
519.742	32861.88
519.944	33435.31
520.146	33838.76
520.348	33605.29
520.55	33851.05
520.752	33849
520.954	34346.65
521.155	34393.76
521.357	34883.22
521.559	34756.25
521.761	35716.75
521.963	35301.01
522.164	35307.15
522.366	35683.98
522.568	35667.59
522.77	35866.25
522.971	36677.24
523.173	36185.73
523.375	36474.49
523.576	36660.86
523.778	36576.89
523.98	37150.32
524.181	37123.7
524.383	37242.48
524.584	37828.2
524.786	37484.14
524.988	37551.73
525.189	37940.84
525.391	38020.71
525.592	38555.23
525.794	38266.47
525.995	38678.11
526.197	38397.54
526.398	38745.69
526.6	38723.16
526.801	39321.17
527.003	39376.47
527.204	39319.12
527.406	39495.25
527.607	39163.48
527.808	39579.21
528.01	39073.37
528.211	39671.37
528.412	40050.25
528.614	39693.9
528.815	40209.99
529.016	40093.25
529.218	39923.27
529.419	39786.06
529.62	40152.65
529.822	39779.92
530.023	40128.07
530.224	39982.66
530.425	39945.8
530.626	39712.33
530.828	39910.99
531.029	40816.19
531.23	40504.9
531.431	40218.18
531.632	40410.69
531.833	40549.95
532.035	40502.85
532.236	40375.87
532.437	40805.95
532.638	40193.61
532.839	40586.82
533.04	40795.71
533.241	40140.36
533.442	41074.23
533.643	40539.71
533.844	40500.8
534.045	40668.73
534.246	40062.54
534.447	40873.53
534.648	40721.98
534.849	40828.48
535.05	40236.61
535.251	40934.97
535.451	40431.17
535.652	40691.26
535.853	40447.55
536.054	40404.55
536.255	41057.85
536.456	40404.55
536.657	41246.26
536.857	40824.38
537.058	40445.51
537.259	40904.25
537.46	40984.12
537.66	40508.99
537.861	40500.8
538.062	40214.09
538.263	40646.21
538.463	40322.63
538.664	40486.46
538.865	40447.55
539.065	40762.94
539.266	40388.16
539.466	41041.46
539.667	40046.15
539.868	40531.52
540.068	40715.84
540.269	40519.23
540.469	40853.05
540.67	40246.85
540.87	40406.59
541.071	40449.6
541.271	40083.02
541.472	40799.8
541.672	40472.13
541.873	40343.11
542.073	40093.25
542.274	40701.5
542.474	40240.71
542.675	39923.27
542.875	40224.32
543.075	40101.45
543.276	39534.16
543.476	40562.24
543.676	39882.31
543.877	40439.36
544.077	40001.1
544.277	40203.85
544.478	39888.46
544.678	40037.96
544.878	40189.51
545.078	39992.9
545.279	40113.73
545.479	40259.14
545.679	40109.64
545.879	39910.99
546.079	39943.75
546.28	39777.87
546.48	39953.99
546.68	39927.37
546.88	40111.69
547.08	39712.33
547.28	39722.57
547.48	39798.35
547.68	40255.04
547.88	39360.08
548.081	39722.57
548.281	39855.69
548.481	39583.31
548.681	39872.07
548.881	39517.78
549.081	40234.56
549.28	39392.85
549.48	39943.75
549.68	39829.07
549.88	40085.06
550.08	39530.06
550.28	40062.54
550.48	39829.07
550.68	39984.71
550.88	39300.69
551.08	39607.89
551.279	39446.1
551.479	39351.89
551.679	39845.45
551.879	39548.5
552.079	39771.72
552.278	39157.33
552.478	39560.78
552.678	39315.03
552.878	39652.94
553.077	39562.83
553.277	39302.74
553.477	39675.47
553.676	39272.02
553.876	39081.56
554.076	38848.09
554.275	39208.53
554.475	38985.3
554.674	39218.77
554.874	38858.33
555.074	38884.95
555.273	39226.96
555.473	39353.94
555.672	39091.8
555.872	38788.7
556.071	39102.04
556.271	39298.64
556.47	39024.22
556.67	39056.98
556.869	38985.3
557.068	39077.46
557.268	38606.43
557.467	38776.41
557.667	38508.13
557.866	38688.35
558.065	38764.12
558.265	38708.83
558.464	38448.74
558.663	39063.13
558.863	38288.99
559.062	38907.48
559.261	38602.33
559.461	38714.97
559.66	37949.03
559.859	38557.28
560.058	38073.96
560.258	38387.3
560.457	37930.6
560.656	38346.34
560.855	38479.46
561.054	38229.6
561.253	37985.9
561.453	38067.81
561.652	38041.19
561.851	37873.26
562.05	38112.87
562.249	38196.84
562.448	38415.97
562.647	38020.71
562.846	37637.74
563.045	37656.17
563.244	37488.24
563.443	38035.05
563.642	37770.86
563.841	37920.36
564.04	37262.96
564.239	38176.36
564.438	37230.19
564.637	37586.54
564.836	37195.38
565.035	37068.41
565.234	37682.8
565.432	37449.33
565.631	36968.05
565.83	37066.36
566.029	37066.36
566.228	37017.21
566.427	36912.76
566.625	36804.22
566.824	36425.34
567.023	36746.87
567.222	36206.21
567.42	37301.87
567.619	36314.75
567.818	36437.63
568.016	36343.42
568.215	36937.34
568.414	36667
568.612	36847.22
568.811	36224.64
569.01	36415.1
569.208	35659.4
569.407	36812.41
569.605	35964.55
569.804	36148.87
570.002	35987.08
570.201	36028.04
570.4	35843.72
570.598	35919.49
570.797	35772.04
570.995	35841.67
571.193	35669.64
571.392	35923.59
571.59	35559.05
571.789	35683.98
571.987	35294.86
572.186	35356.3
572.384	35337.87
572.582	35198.61
572.781	35118.74
572.979	34881.17
573.177	35337.87
573.376	35378.83
573.574	34868.89
573.772	34872.98
573.971	34729.62
574.169	34602.65
574.367	34619.03
574.565	34780.82
574.763	34686.62
574.962	34528.92
575.16	33724.07
575.358	34631.32
575.556	34061.99
575.754	34789.02
575.952	33885.86
576.151	34530.97
576.349	33793.7
576.547	34016.93
576.745	33666.73
576.943	34213.54
577.141	33943.2
577.339	33883.81
577.537	33732.26
577.735	33687.21
577.933	33707.69
578.131	33568.43
578.329	32925.36
578.527	33111.73
578.725	33468.08
578.923	33339.05
579.121	33343.15
579.319	32669.37
579.516	33068.72
579.714	33427.12
579.912	32898.74
580.11	32702.14
580.308	32745.14
580.506	32949.94
580.704	32663.22
580.901	32677.56
581.099	32960.18
581.297	32353.98
581.495	32323.26
581.692	32730.81
581.89	31796.93
582.088	32542.39
582.285	32087.75
582.483	31991.49
582.681	31938.24
582.878	31706.82
583.076	31477.45
583.274	31715.01
583.471	31620.81
583.669	31805.13
583.866	31350.48
584.064	31571.66
584.262	31315.66
584.459	31385.29
584.657	31411.92
584.854	31434.44
585.052	30885.59
585.249	31272.65
585.447	30904.02
585.644	30940.88
585.841	30666.45
586.039	31323.85
586.236	30834.39
586.434	30682.84
586.631	30224.09
586.828	30557.91
587.026	30715.61
587.223	30463.71
587.42	30158.56
587.618	30381.79
587.815	29728.49
588.012	29992.67
588.21	29947.62
588.407	30170.85
588.604	29558.5
588.801	29703.91
588.999	29955.81
589.196	29214.44
589.393	29634.28
589.59	29386.47
589.787	29177.58
589.984	28827.38
590.182	29187.82
590.379	29163.25
590.576	28765.94
590.773	28770.04
590.97	29077.23
591.167	28892.91
591.364	28495.61
591.561	28671.73
591.758	28380.92
591.955	28348.15
592.152	28636.92
592.349	28600.05
592.546	28262.14
592.743	28368.63
592.94	27741.96
593.137	28143.36
593.334	28358.39
593.531	27531.01
593.727	27875.07
593.924	27774.72
594.121	27467.53
594.318	27715.33
594.515	27420.42
594.712	27428.62
594.908	27399.94
595.105	27719.43
595.302	27287.31
595.499	27379.46
595.696	26775.31
595.892	26959.63
596.089	27035.41
596.286	27049.74
596.482	26754.83
596.679	26881.81
596.876	26793.75
597.072	26404.63
597.269	26613.52
597.466	26042.14
597.662	26300.19
597.859	26337.05
598.055	26210.07
598.252	26142.49
598.448	26152.73
598.645	26230.55
598.841	25792.29
599.038	26154.78
599.234	25847.58
599.431	25571.11
599.627	25712.42
599.824	25706.27
600.02	25380.65
600.217	25462.57
600.413	25239.34
600.609	24962.86
600.806	24905.52
601.002	25290.54
601.198	24805.17
601.395	24899.37
601.591	24901.42
601.787	24577.84
601.984	24692.53
602.18	24907.57
602.376	24469.3
602.572	24545.08
602.769	24411.96
602.965	23961.41
603.161	24397.62
603.357	24266.55
603.553	24057.66
603.75	24426.29
603.946	23777.09
604.142	23682.88
604.338	23707.46
604.534	24049.47
604.73	23711.55
604.926	23410.5
605.122	23492.42
605.318	23629.63
605.514	23234.38
605.71	23377.73
605.906	23207.75
606.102	23469.89
606.298	23379.78
606.494	23234.38
606.69	23131.98
606.886	23224.14
607.082	22609.75
607.278	23191.37
607.474	22892.37
607.67	23000.91
607.866	22462.29
608.062	23021.39
608.257	22744.91
608.453	22910.8
608.649	22665.04
608.845	22568.79
609.041	22560.59
609.236	22894.41
609.432	22472.53
609.628	22445.91
609.824	22370.13
610.019	22398.8
610.215	22218.58
610.411	22646.61
610.606	22196.06
610.802	22337.37
610.998	22245.21
611.193	22273.88
611.389	21866.33
611.584	21813.09
611.78	21669.73
611.976	22003.55
612.171	21784.41
612.367	22196.06
612.562	22011.74
612.758	21413.73
612.953	21575.52
613.149	21999.45
613.344	21462.88
613.539	21808.99
613.735	21618.53
613.93	21354.34
614.126	21360.48
614.321	21614.43
614.517	21409.64
614.712	21393.25
614.907	21530.47
615.103	21552.99
615.298	21270.37
615.493	21299.05
615.688	21102.44
615.884	21372.77
616.079	20895.6
616.274	21307.24
616.47	21329.77
616.665	21067.63
616.86	20821.87
617.055	21034.86
617.25	21022.57
617.445	21020.52
617.641	20541.3
617.836	20979.56
618.031	20455.28
618.226	20678.51
618.421	20537.2
618.616	20930.41
618.811	20131.7
619.006	20617.07
619.201	19808.12
619.396	20690.8
619.591	19744.64
619.786	19900.28
619.981	19584.9
620.176	19998.59
620.371	19597.18
620.566	19806.08
620.761	19904.38
620.956	19689.34
621.151	19408.77
621.346	19541.89
621.541	19140.49
621.735	19408.77
621.93	19163.01
622.125	19013.51
622.32	18732.94
622.515	19025.8
622.709	18825.1
622.904	18696.08
623.099	18640.78
623.294	18333.59
623.488	18206.61
623.683	18595.73
623.878	18249.62
624.072	18208.66
624.267	18108.31
624.462	18048.92
624.656	17833.88
624.851	17807.26
625.046	17717.15
625.24	17416.1
625.435	17446.82
625.629	17356.71
625.824	17258.4
626.018	17076.13
626.213	16918.44
626.407	17088.42
626.602	16717.74
626.796	16852.91
626.991	16936.87
627.185	16547.76
627.38	16529.33
627.574	16324.53
627.768	16396.21
627.963	16125.88
628.157	16117.68
628.352	16172.98
628.546	15937.46
628.74	16078.77
628.935	16103.35
629.129	15914.94
629.323	15607.74
629.517	15632.32
629.712	15468.48
629.906	15439.81
630.1	15239.11
630.294	15646.65
630.489	15239.11
630.683	15198.15
630.877	15005.64
631.071	14976.97
631.265	15032.26
631.459	14745.55
631.653	14782.41
631.848	14766.03
632.042	14419.92
632.236	14548.94
632.43	14407.63
632.624	14505.93
632.818	14231.51
633.012	14323.66
633.206	14366.67
633.4	14329.81
633.594	13795.29
633.788	14104.53
633.982	13973.46
634.176	13909.97
634.369	13883.35
634.563	13570.01
634.757	13811.67
634.951	13592.54
635.145	13436.89
635.339	13696.99
635.533	13406.17
635.726	13352.93
635.92	13238.24
636.114	13137.89
636.308	12982.24
636.501	13232.1
636.695	13160.42
636.889	12810.22
637.083	12990.44
637.276	12656.62
637.47	12840.93
637.664	12427.25
637.857	12892.13
638.051	12492.78
638.244	12511.21
638.438	12470.25
638.632	12496.88
638.825	12212.21
639.019	11988.98
639.212	12027.89
639.406	12072.95
639.599	11980.79
639.793	12195.82
639.986	11845.62
640.18	11974.64
640.373	11827.19
640.567	11687.93
640.76	11757.56
640.954	11339.77
641.147	11499.52
641.34	11646.97
641.534	11427.84
641.727	11468.8
641.92	11382.78
642.114	11198.46
642.307	11272.19
642.5	11333.63
642.694	10885.12
642.887	11159.55
643.08	11042.82
643.273	10983.43
643.467	10819.59
643.66	10911.75
643.853	10758.15
644.046	10496.01
644.239	10692.62
644.432	10659.85
644.626	10608.65
644.819	10502.15
645.012	10522.63
645.205	10407.95
645.398	10371.08
645.591	10229.77
645.784	10358.8
645.977	9998.35
646.17	10213.39
646.363	10055.7
646.556	9863.19
646.749	9906.2
646.942	9850.9
647.135	9842.71
647.328	9922.58
647.521	9811.99
647.714	9685.01
647.907	9682.97
648.099	9433.11
648.292	9517.08
648.485	9476.12
648.678	9349.15
648.871	9441.31
649.064	9226.27
649.256	9334.81
649.449	9353.24
649.642	9300
649.835	9146.4
650.027	9189.41
650.22	9103.39
650.413	8992.8
650.605	9087.01
650.798	8972.32
650.991	8962.08
651.183	8822.82
651.376	8792.1
651.568	8888.36
651.761	8628.26
651.954	8847.4
652.146	8607.78
652.339	8611.88
652.531	8495.15
652.724	8566.82
652.916	8441.9
653.109	8437.8
653.301	8319.02
653.494	8347.69
653.686	8247.34
653.879	8218.67
654.071	8110.13
654.263	8187.95
654.456	8183.85
654.648	8187.95
654.84	8214.57
655.033	7952.43
655.225	7948.34
655.417	7977.01
655.61	7977.01
655.802	7954.48
655.994	7804.98
656.186	7653.43
656.379	7675.96
656.571	7460.92
656.763	7426.11
656.955	7497.78
657.148	7442.49
657.34	7422.01
657.532	7514.17
657.724	7444.54
657.916	7446.59
658.108	7321.66
658.3	7213.12
658.492	7446.59
658.684	7243.84
658.876	7135.29
659.068	7198.78
659.26	7028.8
659.452	7008.32
659.644	7215.16
659.836	6983.74
660.028	6996.03
660.22	6801.47
660.412	6934.59
660.604	6740.04
660.796	6918.21
660.988	6799.43
661.18	6805.57
661.372	6631.49
661.563	6752.32
661.755	6488.14
661.947	6619.21
662.139	6498.38
662.331	6461.51
662.522	6625.35
662.714	6445.13
662.906	6328.39
663.097	6414.41
663.289	6416.46
663.481	6387.79
663.673	6289.48
663.864	6232.14
664.056	6221.9
664.247	6252.62
664.439	6006.86
664.631	6037.58
664.822	6150.22
665.014	6146.12
665.205	6170.7
665.397	6123.6
665.588	6092.88
665.78	5926.99
665.971	6037.58
666.163	5965.9
666.354	6043.73
666.546	5963.86
666.737	5877.84
666.929	5877.84
667.12	5761.11
667.311	5795.92
667.503	5826.64
667.694	5603.41
667.885	5492.82
668.077	5716.05
668.268	5617.75
668.459	5630.04
668.651	5515.35
668.842	5613.65
669.033	5578.84
669.224	5517.4
669.416	5458.01
669.607	5490.77
669.798	5361.75
669.989	5597.27
670.18	5509.21
670.371	5494.87
670.563	5222.49
670.754	5357.66
670.945	5140.57
671.136	5363.8
671.327	5267.55
671.518	5230.68
671.709	5193.82
671.9	5288.03
672.091	5187.68
672.282	4997.21
672.473	5132.38
672.664	4986.97
672.855	5066.85
673.046	5058.65
673.237	5040.22
673.428	4956.26
673.619	4991.07
673.809	4943.97
674	4855.9
674.191	4833.38
674.382	4841.57
674.573	4831.33
674.764	4747.36
674.954	4737.12
675.145	4724.83
675.336	4757.6
675.527	4739.17
675.717	4735.07
675.908	4864.1
676.099	4747.36
676.289	4677.73
676.48	4659.3
676.671	4487.27
676.861	4704.35
677.052	4595.81
677.243	4606.05
677.433	4620.39
677.624	4571.24
677.814	4548.71
678.005	4460.65
678.195	4661.35
678.386	4710.5
678.576	4364.39
678.767	4542.57
678.957	4556.9
679.148	4497.51
679.338	4421.74
679.529	4378.73
679.719	4468.84
679.909	4395.11
680.1	4397.16
680.29	4325.48
680.481	4329.58
680.671	4307.05
680.861	4112.49
681.052	4298.86
681.242	4345.96
681.432	4354.15
681.622	4266.09
681.813	4145.26
682.003	4214.89
682.193	4255.85
682.383	4257.9
682.573	4100.2
682.764	4175.98
682.954	4153.45
683.144	4137.07
683.334	4159.6
683.524	4208.75
683.714	4061.29
683.904	4006
684.094	4022.38
684.284	3979.37
684.474	4208.75
684.664	4006
684.854	3995.76
685.044	4026.48
685.234	3854.45
685.424	4065.39
685.614	3979.37
685.804	3940.46
685.994	3987.57
686.184	3991.66
686.374	3983.47
686.564	3778.67
686.753	3831.92
686.943	3721.33
687.133	3885.17
687.323	3793.01
687.513	3745.91
687.702	3962.99
687.892	3833.97
688.082	3612.79
688.272	3590.26
688.461	3678.32
688.651	3762.29
688.841	3608.69
689.03	3680.37
689.22	3598.45
689.41	3582.07
689.599	3549.3
689.789	3555.44
689.979	3596.4
690.168	3561.59
690.358	3530.87
690.547	3360.89
690.737	3510.39
690.926	3424.37
691.116	3475.57
691.305	3362.94
691.495	3428.47
691.684	3285.11
691.874	3346.55
692.063	3291.26
692.252	3455.09
692.442	3231.87
692.631	3293.3
692.82	3262.58
693.01	3168.38
693.199	3354.74
693.388	3156.09
693.578	3115.13
693.767	3260.54
693.956	3156.09
694.146	3162.23
694.335	3154.04
694.524	3035.26
694.713	3092.6
694.902	3049.6
695.092	3104.89
695.281	2912.38
695.47	3080.32
695.659	2855.04
695.848	3016.83
696.037	3049.6
696.226	2867.33
696.415	2881.66
696.604	3106.94
696.793	3002.49
696.982	2881.66
697.171	2936.96
697.36	2893.95
697.549	2875.52
697.738	2840.7
697.927	2726.02
698.116	2916.48
698.305	2820.22
698.494	2836.61
698.683	2779.26
698.872	2803.84
699.061	2691.2
699.25	2660.48
699.438	2760.83
699.627	2703.49
699.816	2660.48
700.005	2748.54
700.193	2744.45
700.382	2742.4
700.571	2648.19
700.76	2637.95
700.948	2683.01
701.137	2662.53
701.326	2771.07
701.514	2633.86
701.703	2551.94
701.892	2615.43
702.08	2615.43
702.269	2474.12
702.457	2594.95
702.646	2613.38
702.834	2547.84
703.023	2525.32
703.212	2574.47
703.4	2560.13
703.589	2490.5
703.777	2517.12
703.965	2465.93
704.154	2437.25
704.342	2416.77
704.531	2578.56
704.719	2343.05
704.907	2525.32
705.096	2439.3
705.284	2443.4
705.472	2613.38
705.661	2474.12
705.849	2437.25
706.037	2375.81
706.226	2394.25
706.414	2357.38
706.602	2367.62
706.79	2287.75
706.979	2412.68
707.167	2334.86
707.355	2330.76
707.543	2322.57
707.731	2209.93
707.919	2297.99
708.107	2306.18
708.296	2531.46
708.484	2365.57
708.672	2345.09
708.86	2381.96
709.048	2373.77
709.236	2254.98
709.424	2336.9
709.612	2330.76
709.8	2144.39
709.988	2164.87
710.176	2259.08
710.364	2326.66
710.551	2320.52
710.739	2222.22
710.927	2300.04
711.115	2414.73
711.303	2203.79
711.491	2244.74
711.679	2281.61
711.866	2312.33
712.054	2279.56
712.242	2297.99
712.43	2193.55
712.617	2287.75
712.805	2232.46
712.993	2199.69
713.181	2205.83
713.368	2271.37
713.556	2207.88
713.744	2226.31
713.931	2336.9
714.119	2119.82
714.306	2207.88
714.494	2097.29
714.682	2072.72
714.869	2275.46
715.057	2021.52
715.244	2111.63
715.432	2099.34
715.619	2142.35
715.807	2142.35
715.994	2160.78
716.182	2080.91
716.369	2080.91
716.556	2209.93
716.744	2080.91
716.931	2107.53
717.119	2293.9
717.306	2121.87
717.493	2144.39
717.681	2158.73
717.868	1962.12
718.055	2175.11
718.242	2185.35
718.43	2087.05
718.617	2158.73
718.804	2224.26
718.991	2097.29
719.179	2144.39
719.366	2121.87
719.553	2140.3
719.74	2091.15
719.927	2177.16
720.114	2015.37
720.301	2085
720.488	2046.09
720.676	2164.87
720.863	2113.67
721.05	2119.82
721.237	2162.83
721.424	2179.21
721.611	2107.53
721.798	2017.42
721.985	2087.05
722.172	2152.59
722.358	2015.37
722.545	2095.24
722.732	2119.82
722.919	2021.52
723.106	2042
723.293	2039.95
723.48	2109.58
723.667	1962.12
723.853	2209.93
724.04	2152.59
724.227	2076.81
724.414	2064.52
724.6	2105.48
724.787	2154.63
724.974	2099.34
725.161	2042
725.347	2009.23
725.534	2052.24
725.72	2054.28
725.907	2111.63
726.094	2080.91
726.28	1980.56
726.467	2191.5
726.653	2009.23
726.84	2185.35
727.027	2148.49
727.213	2105.48
727.4	2099.34
727.586	2140.3
727.773	2168.97
727.959	2164.87
728.145	2052.24
728.332	2017.42
728.518	2066.57
728.705	2101.39
728.891	2064.52
729.077	2085
729.264	2166.92
729.45	2058.38
729.636	2103.43
729.823	2105.48
730.009	2054.28
730.195	1986.7
730.382	2105.48
730.568	2027.66
730.754	2164.87
730.94	2076.81
731.126	2171.02
731.313	2103.43
731.499	2085
731.685	2082.95
731.871	2091.15
732.057	2207.88
732.243	2130.06
732.429	2173.07
732.615	2218.12
732.801	2095.24
732.987	2037.9
733.173	2162.83
733.359	2115.72
733.545	2109.58
733.731	2117.77
733.917	2123.91
734.103	2130.06
734.289	2189.45
734.475	2117.77
734.661	2224.26
734.847	2128.01
735.033	2160.78
735.219	2107.53
735.404	2117.77
735.59	2017.42
735.776	2148.49
735.962	2173.07
736.148	2175.11
736.333	2164.87
736.519	2109.58
736.705	2138.25
736.89	2189.45
737.076	2128.01
737.262	2234.5
737.447	2099.34
737.633	2062.48
737.819	2134.15
738.004	2119.82
738.19	2261.13
738.375	2048.14
738.561	2146.44
738.747	2048.14
738.932	2101.39
739.118	2181.26
739.303	2222.22
739.489	2203.79
739.674	2023.56
739.859	2232.46
740.045	2148.49
740.23	2119.82
740.416	2097.29
740.601	1994.89
740.786	2074.76
740.972	2148.49
741.157	2097.29
741.342	2130.06
741.528	2148.49
741.713	2091.15
741.898	2082.95
742.084	2312.33
742.269	2148.49
742.454	2132.11
742.639	2125.96
742.824	2142.35
743.01	2175.11
743.195	2066.57
743.38	2066.57
743.565	2168.97
743.75	2042
743.935	2025.61
744.12	2125.96
744.305	2056.33
744.49	2011.28
744.675	2113.67
744.86	2019.47
745.045	2105.48
745.23	2113.67
745.415	2136.2
745.6	2037.9
745.785	1988.75
745.97	2037.9
746.155	2072.72
746.34	2039.95
746.525	1982.6
746.71	2138.25
746.895	1947.79
747.079	2085
747.264	2042
747.449	2060.43
747.634	1861.77
747.819	1939.6
748.003	1970.32
748.188	1931.41
748.373	1835.15
748.557	1978.51
748.742	1906.83
748.927	2005.13
749.111	1740.94
749.296	1847.44
749.481	1949.84
749.665	1796.24
749.85	1890.45
750.034	1829.01
750.219	1781.9
750.404	1706.13
750.588	1869.97
750.773	1816.72
750.957	1845.39
751.141	1781.9
751.326	1765.52
751.51	1755.28
751.695	1753.23
751.879	1745.04
752.064	1853.58
752.248	1822.86
752.432	1783.95
752.617	1716.37
752.801	1747.09
752.985	1706.13
753.17	1763.47
753.354	1747.09
753.538	1728.66
753.722	1673.36
753.907	1663.12
754.091	1566.87
754.275	1656.98
754.459	1607.83
754.643	1589.39
754.828	1618.07
755.012	1589.39
755.196	1532.05
755.38	1585.3
755.564	1659.03
755.748	1536.15
755.932	1511.57
756.116	1530
756.3	1579.15
756.484	1517.72
756.668	1589.39
756.852	1589.39
757.036	1554.58
757.22	1562.77
757.404	1534.1
757.588	1468.56
757.772	1562.77
757.956	1566.87
758.14	1618.07
758.323	1501.33
758.507	1546.39
758.691	1458.32
758.875	1390.74
759.059	1456.28
759.242	1319.06
759.426	1345.69
759.61	1474.71
759.794	1337.49
759.977	1286.3
760.161	1362.07
760.345	1429.65
760.528	1462.42
760.712	1435.8
760.895	1362.07
761.079	1386.65
761.263	1335.45
761.446	1304.73
761.63	1337.49
761.813	1403.03
761.997	1276.06
762.18	1317.01
762.364	1333.4
762.547	1235.1
762.731	1276.06
762.914	1331.35
763.098	1249.43
763.281	1226.9
763.464	1314.97
763.648	1339.54
763.831	1222.81
764.015	1319.06
764.198	1167.51
764.381	1306.77
764.564	1306.77
764.748	1200.28
764.931	1175.7
765.114	1214.62
765.297	1280.15
765.481	1226.9
765.664	1321.11
765.847	1120.41
766.03	1196.18
766.213	1079.45
766.397	1142.94
766.58	1149.08
766.763	1190.04
766.946	1149.08
767.129	1056.92
767.312	1081.5
767.495	1108.12
767.678	1147.03
767.861	1099.93
768.044	1138.84
768.227	1196.18
768.41	1046.68
768.593	1126.55
768.776	1112.22
768.959	1095.83
769.142	1173.66
769.324	1104.03
769.507	1046.68
769.69	1173.66
769.873	1040.54
770.056	1147.03
770.239	1075.35
770.421	1128.6
770.604	1063.07
770.787	1071.26
770.97	1046.68
771.152	1022.11
771.335	972.96
771.518	925.85
771.7	1208.47
771.883	1083.55
772.066	1075.35
772.248	989.34
772.431	997.53
772.613	1151.13
772.796	1061.02
772.978	1009.82
773.161	970.91
773.343	970.91
773.526	938.14
773.708	968.86
773.891	966.81
774.073	932
774.256	989.34
774.438	1028.25
774.621	864.41
774.803	970.91
774.985	927.9
775.168	893.09
775.35	995.48
775.532	852.13
775.715	891.04
775.897	977.05
776.079	825.5
776.261	960.67
776.444	796.83
776.626	882.85
776.808	864.41
776.99	880.8
777.173	827.55
777.355	839.84
777.537	856.22
777.719	829.6
777.901	764.06
778.083	794.78
778.265	762.02
778.447	919.71
778.629	757.92
778.811	796.83
778.993	788.64
779.175	762.02
779.357	860.32
779.539	747.68
779.721	792.73
779.903	880.8
780.085	714.91
780.267	774.3
780.449	673.95
780.631	737.44
780.812	743.58
780.994	768.16
781.176	714.91
781.358	684.19
781.54	673.95
781.721	671.9
781.903	719.01
782.085	741.54
782.267	665.76
782.448	657.57
782.63	745.63
782.812	635.04
782.993	671.9
783.175	643.23
783.357	639.14
783.538	614.56
783.72	604.32
783.901	680.1
784.083	686.24
784.264	549.03
784.446	567.46
784.627	559.27
784.809	637.09
784.99	577.7
785.172	684.19
785.353	594.08
785.535	540.83
785.716	528.55
785.897	551.07
786.079	569.51
786.26	561.31
786.441	587.94
786.623	512.16
786.804	471.2
786.985	479.4
787.167	518.31
787.348	530.59
787.529	518.31
787.71	577.7
787.891	503.97
788.073	549.03
788.254	510.11
788.435	528.55
788.616	487.59
788.797	465.06
788.978	463.01
789.159	495.78
789.34	475.3
789.522	442.53
789.703	518.31
789.884	575.65
790.065	417.96
790.246	503.97
790.427	469.16
790.607	438.44
790.788	442.53
790.969	430.24
791.15	530.59
791.331	403.62
791.512	372.9
791.693	411.81
791.874	415.91
792.054	489.64
792.235	446.63
792.416	374.95
792.597	293.03
792.778	383.14
792.958	413.86
793.139	477.35
793.32	481.44
793.5	377
793.681	397.48
793.862	430.24
794.042	409.76
794.223	397.48
794.404	379.04
794.584	327.85
794.765	358.57
794.945	426.15
795.126	374.95
795.306	446.63
795.487	301.22
795.667	329.89
795.848	393.38
796.028	387.24
796.209	368.81
796.389	391.33
796.57	385.19
796.75	319.65
796.93	403.62
797.111	352.42
797.291	276.65
797.471	446.63
797.652	348.33
797.832	342.18
798.012	313.51
798.192	362.66
798.373	284.84
798.553	278.69
798.733	274.6
798.913	256.17
799.093	262.31
799.274	368.81
799.454	305.32
799.634	356.52
799.814	293.03
799.994	366.76
800.174	293.03
800.354	364.71
800.534	204.97
800.714	370.85
800.894	315.56
801.074	231.59
801.254	209.06
801.434	305.32
801.614	274.6
801.794	182.44
801.974	850.08
802.154	278.69
802.334	327.85
802.514	276.65
802.693	215.21
802.873	245.93
803.053	340.13
803.233	317.61
803.413	233.64
803.592	241.83
803.772	186.54
803.952	321.7
804.131	266.41
804.311	278.69
804.491	295.08
804.67	303.27
804.85	231.59
805.03	286.89
805.209	313.51
805.389	305.32
805.568	204.97
805.748	262.31
805.928	268.45
806.107	245.93
806.287	374.95
806.466	219.3
806.646	256.17
806.825	268.45
807.004	147.62
807.184	284.84
807.363	237.74
807.543	278.69
807.722	211.11
807.901	202.92
808.081	229.54
808.26	75.95
808.439	237.74
808.619	237.74
808.798	213.16
808.977	172.2
809.156	241.83
809.336	178.34
809.515	250.02
809.694	221.35
809.873	231.59
810.052	172.2
810.231	209.06
810.411	229.54
810.59	209.06
810.769	237.74
810.948	141.48
811.127	174.25
811.306	161.96
811.485	190.63
811.664	227.5
811.843	200.87
812.022	233.64
812.201	184.49
812.38	190.63
812.559	237.74
812.737	196.78
812.916	207.02
813.095	131.24
813.274	180.39
813.453	184.49
813.632	192.68
813.811	141.48
813.989	172.2
814.168	190.63
814.347	149.67
814.526	217.26
814.704	159.91
814.883	221.35
815.062	108.71
815.24	215.21
815.419	207.02
815.598	196.78
815.776	149.67
815.955	184.49
816.133	164.01
816.312	141.48
816.49	213.16
816.669	139.43
816.847	180.39
817.026	209.06
817.204	176.3
817.383	182.44
817.561	155.82
817.74	131.24
817.918	196.78
818.097	141.48
818.275	125.1
818.453	141.48
818.632	198.82
818.81	129.19
818.988	71.85
819.167	164.01
819.345	129.19
819.523	174.25
819.701	149.67
819.879	123.05
820.058	147.62
820.236	176.3
820.414	110.76
820.592	157.86
820.77	182.44
820.948	92.33
821.127	143.53
821.305	202.92
821.483	61.61
821.661	172.2
821.839	86.19
822.017	47.27
822.195	155.82
822.373	141.48
822.551	86.19
822.729	215.21
822.907	125.1
823.085	82.09
823.262	133.29
823.44	116.9
823.618	125.1
823.796	129.19
823.974	129.19
824.152	143.53
824.329	49.32
824.507	133.29
824.685	133.29
824.863	145.58
825.04	112.81
825.218	192.68
825.396	112.81
825.574	100.52
825.751	84.14
825.929	217.26
826.107	90.28
826.284	100.52
826.462	53.42
826.639	145.58
826.817	90.28
826.994	159.91
827.172	145.58
827.349	137.38
827.527	96.43
827.704	145.58
827.882	139.43
828.059	110.76
828.237	14.51
828.414	161.96
828.591	49.32
828.769	73.9
828.946	129.19
829.124	86.19
829.301	127.14
829.478	102.57
829.655	184.49
829.833	49.32
830.01	41.13
830.187	114.86
830.364	75.95
830.542	37.03
830.719	149.67
830.896	110.76
831.073	14.51
831.25	116.9
831.427	121
831.604	153.77
831.782	149.67
831.959	75.95
832.136	129.19
832.313	53.42
832.49	166.06
832.667	100.52
832.844	34.99
833.021	125.1
833.198	65.71
833.374	75.95
833.551	55.47
833.728	88.23
833.905	77.99
834.082	30.89
834.259	98.47
834.436	182.44
834.612	69.8
834.789	94.38
834.966	80.04
835.143	59.56
835.319	18.6
835.496	94.38
835.673	28.84
835.85	116.9
836.026	92.33
836.203	127.14
836.38	53.42
836.556	43.18
836.733	125.1
836.909	159.91
837.086	53.42
837.262	90.28
837.439	77.99
837.616	57.51
837.792	16.55
837.968	153.77
838.145	34.99
838.321	59.56
838.498	43.18
838.674	63.66
838.851	57.51
839.027	112.81
839.203	172.2
839.38	100.52
839.556	59.56
839.732	123.05
839.909	16.55
840.085	110.76
840.261	106.67
840.437	82.09
840.614	28.84
840.79	137.38
840.966	43.18
841.142	57.51
841.318	-5.97
841.494	106.67
841.671	47.27
841.847	47.27
842.023	114.86
842.199	30.89
842.375	186.54
842.551	28.84
842.727	18.6
842.903	61.61
843.079	67.75
843.255	116.9
843.431	47.27
843.607	-16.21
843.783	-44.88
843.959	69.8
844.134	94.38
844.31	151.72
844.486	12.46
844.662	65.71
844.838	90.28
845.013	47.27
845.189	0.17
845.365	55.47
845.541	26.79
845.716	55.47
845.892	90.28
846.068	75.95
846.244	47.27
846.419	75.95
846.595	90.28
846.77	24.75
846.946	96.43
847.122	65.71
847.297	26.79
847.473	121
847.648	-20.31
847.824	32.94
847.999	-1.88
848.175	41.13
848.35	4.27
848.526	133.29
848.701	51.37
848.876	26.79
849.052	84.14
849.227	102.57
849.403	-53.08
849.578	67.75
849.753	30.89
849.929	98.47
850.104	16.55
850.279	-22.36
850.454	71.85
850.63	67.75
850.805	4.27
850.98	28.84
851.155	18.6
851.33	-8.02
851.505	-18.26
851.681	108.71
851.856	12.46
852.031	32.94
852.206	24.75
852.381	39.08
852.556	-57.17
852.731	41.13
852.906	24.75
853.081	90.28
853.256	18.6
853.431	43.18
853.606	-55.12
853.781	41.13
853.956	-14.17
854.131	16.55
854.305	22.7
854.48	-3.93
854.655	20.65
854.83	-5.97
855.005	26.79
855.18	4.27
855.354	61.61
855.529	43.18
855.704	49.32
855.879	53.42
856.053	6.31
856.228	65.71
856.403	-32.6
856.577	57.51
856.752	10.41
856.926	8.36
857.101	-51.03
857.276	-44.88
857.45	94.38
857.625	96.43
857.799	-57.17
857.974	37.03
858.148	-26.45
858.323	-34.64
858.497	-18.26
858.672	26.79
858.846	32.94
859.02	-20.31
859.195	0.17
859.369	34.99
859.543	10.41
859.718	53.42
859.892	18.6
860.066	10.41
860.241	45.23
860.415	8.36
860.589	-34.64
860.763	-16.21
860.938	-1.88
861.112	86.19
861.286	-98.13
861.46	51.37
861.634	-28.5
861.808	26.79
861.982	30.89
862.157	-12.12
862.331	-34.64
862.505	-34.64
862.679	2.22
862.853	32.94
863.027	-14.17
863.201	65.71
863.375	8.36
863.549	14.51
863.722	20.65
863.896	77.99
864.07	-8.02
864.244	-59.22
864.418	67.75
864.592	14.51
864.766	18.6
864.939	39.08
865.113	-48.98
865.287	82.09
865.461	-12.12
865.634	-1.88
865.808	30.89
865.982	-5.97
866.156	51.37
866.329	-5.97
866.503	53.42
866.676	90.28
866.85	8.36
867.024	-8.02
867.197	45.23
867.371	28.84
867.544	-16.21
867.718	-46.93
867.891	61.61
868.065	-8.02
868.238	10.41
868.412	65.71
868.585	20.65
868.759	-46.93
868.932	0.17
869.105	4.27
869.279	-71.51
869.452	75.95
869.625	14.51
869.799	39.08
869.972	6.31
870.145	63.66
870.319	57.51
870.492	39.08
870.665	22.7
870.838	-14.17
871.011	-14.17
871.185	-34.64
871.358	30.89
871.531	-36.69
871.704	4.27
871.877	-3.93
872.05	-14.17
872.223	-34.64
872.396	34.99
872.569	-44.88
872.742	-16.21
872.915	24.75
873.088	18.6
873.261	37.03
873.434	-5.97
873.607	65.71
873.78	-53.08
873.953	39.08
874.126	102.57
874.299	24.75
874.471	-5.97
874.644	-10.07
874.817	108.71
874.99	45.23
875.163	-8.02
875.335	45.23
875.508	14.51
875.681	61.61
875.853	-16.21
876.026	6.31
876.199	-32.6
876.371	37.03
876.544	30.89
876.717	24.75
876.889	6.31
877.062	-40.79
877.234	-5.97
877.407	10.41
877.579	8.36
877.752	30.89
877.924	37.03
878.097	0.17
878.269	-20.31
878.442	0.17
878.614	-10.07
878.786	-44.88
878.959	2.22
879.131	45.23
879.303	-55.12
879.476	0.17
879.648	57.51
879.82	39.08
879.993	-42.84
880.165	-77.65
880.337	-12.12
880.509	-24.4
880.681	49.32
880.854	75.95
881.026	-51.03
881.198	61.61
881.37	12.46
881.542	24.75
881.714	-38.74
881.886	-3.93
882.058	63.66
882.23	47.27
882.402	49.32
882.574	47.27
882.746	24.75
882.918	12.46
883.09	-1.88
883.262	-5.97
883.434	-22.36
883.606	53.42
883.778	2.22
883.95	65.71
884.122	-51.03
884.293	90.28
884.465	26.79
884.637	39.08
884.809	-67.41
884.98	-30.55
885.152	30.89
885.324	102.57
885.496	-46.93
885.667	30.89
885.839	-42.84
886.011	41.13
886.182	24.75
886.354	-36.69
886.525	63.66
886.697	-1.88
886.869	-24.4
887.04	-38.74
887.212	82.09
887.383	82.09
887.555	24.75
887.726	14.51
887.897	6.31
888.069	14.51
888.24	14.51
888.412	24.75
888.583	-32.6
888.754	8.36
888.926	-22.36
889.097	2.22
889.268	18.6
889.44	45.23
889.611	-24.4
889.782	-8.02
889.953	0.17
890.125	12.46
890.296	-38.74
890.467	-18.26
890.638	-34.64
890.809	28.84
890.98	-1.88
891.151	-8.02
891.323	12.46
891.494	14.51
891.665	-26.45
891.836	-26.45
892.007	26.79
892.178	10.41
892.349	-5.97
892.52	-1.88
892.691	26.79
892.862	0.17
893.032	-24.4
893.203	18.6
893.374	-91.99
893.545	-26.45
893.716	-3.93
893.887	26.79
894.057	20.65
894.228	22.7
894.399	-8.02
894.57	49.32
894.74	37.03
894.911	-46.93
895.082	-20.31
895.253	-53.08
895.423	-32.6
895.594	49.32
895.764	-28.5
895.935	-57.17
896.106	34.99
896.276	-5.97
896.447	20.65
896.617	14.51
896.788	-16.21
896.958	20.65
897.129	8.36
897.299	-22.36
897.47	61.61
897.64	16.55
897.81	-14.17
897.981	-46.93
898.151	-55.12
898.322	-3.93
898.492	-32.6
898.662	2.22
898.832	-20.31
899.003	12.46
899.173	57.51
899.343	-63.32
899.513	-51.03
