Data from USB4F104151__84__12-42-31-336.txt Node

Date: Fri Mar 14 12:42:31 EDT 2025
User: louis
Spectrometer: USB4F10415
Trigger mode: 4
Integration Time (sec): 3.000000E-2
Scans to average: 1
Electric dark correction enabled: true
Nonlinearity correction enabled: false
Boxcar width: 0
XAxis mode: Wavelengths
Number of Pixels in Spectrum: 3648
>>>>>Begin Spectral Data<<<<<
178.204	-96.25
178.424	-96.25
178.644	-96.25
178.864	-159.74
179.084	-102.4
179.304	-69.63
179.524	-32.77
179.744	94.21
179.964	24.58
180.184	67.58
180.404	12.29
180.624	32.77
180.844	-38.91
181.064	-61.44
181.283	14.34
181.503	-20.48
181.723	-22.53
181.943	-112.64
182.163	81.92
182.383	14.34
182.602	49.15
182.822	98.3
183.042	63.49
183.262	16.38
183.482	14.34
183.701	40.96
183.921	20.48
184.141	2.05
184.361	73.73
184.58	53.25
184.8	92.16
185.02	65.53
185.239	24.58
185.459	36.86
185.679	86.01
185.898	-14.34
186.118	92.16
186.338	-0
186.557	30.72
186.777	43.01
186.997	-26.62
187.216	-28.67
187.436	55.3
187.655	14.34
187.875	88.06
188.095	-43.01
188.314	47.1
188.534	16.38
188.753	61.44
188.973	18.43
189.192	83.97
189.412	83.97
189.631	102.4
189.851	81.92
190.07	-2.05
190.29	-10.24
190.509	24.58
190.729	43.01
190.948	28.67
191.168	149.5
191.387	73.73
191.607	79.87
191.826	24.58
192.045	-34.82
192.265	71.68
192.484	43.01
192.704	-16.38
192.923	34.82
193.142	172.03
193.362	102.4
193.581	6.14
193.8	38.91
194.02	59.39
194.239	122.88
194.458	61.44
194.678	30.72
194.897	30.72
195.116	94.21
195.335	86.01
195.555	18.43
195.774	-24.58
195.993	106.49
196.212	8.19
196.432	98.3
196.651	30.72
196.87	69.63
197.089	77.82
197.308	-8.19
197.528	55.3
197.747	-10.24
197.966	30.72
198.185	114.69
198.404	22.53
198.623	53.25
198.842	69.63
199.062	20.48
199.281	14.34
199.5	34.82
199.719	96.25
199.938	98.3
200.157	90.11
200.376	69.63
200.595	47.1
200.814	16.38
201.033	-26.62
201.252	63.49
201.471	53.25
201.69	118.78
201.909	45.06
202.128	83.97
202.347	43.01
202.566	4.1
202.785	30.72
203.004	18.43
203.223	32.77
203.442	43.01
203.661	12.29
203.879	36.86
204.098	69.63
204.317	20.48
204.536	116.73
204.755	40.96
204.974	43.01
205.193	124.93
205.411	122.88
205.63	90.11
205.849	-0
206.068	36.86
206.287	51.2
206.505	69.63
206.724	-32.77
206.943	-14.34
207.162	32.77
207.381	61.44
207.599	-2.05
207.818	83.97
208.037	28.67
208.255	38.91
208.474	-16.38
208.693	137.21
208.911	-10.24
209.13	106.49
209.349	-14.34
209.567	61.44
209.786	96.25
210.005	57.34
210.223	-4.1
210.442	-24.58
210.661	4.1
210.879	16.38
211.098	-18.43
211.316	2.05
211.535	104.45
211.753	59.39
211.972	18.43
212.191	-63.49
212.409	81.92
212.628	26.62
212.846	55.3
213.065	20.48
213.283	122.88
213.502	4.1
213.72	-24.58
213.938	73.73
214.157	77.82
214.375	12.29
214.594	40.96
214.812	86.01
215.031	32.77
215.249	59.39
215.467	43.01
215.686	-4.1
215.904	4.1
216.122	14.34
216.341	40.96
216.559	55.3
216.778	110.59
216.996	73.73
217.214	-59.39
217.432	34.82
217.651	-2.05
217.869	51.2
218.087	28.67
218.306	67.58
218.524	6.14
218.742	-16.38
218.96	34.82
219.179	-10.24
219.397	49.15
219.615	38.91
219.833	36.86
220.051	32.77
220.27	63.49
220.488	122.88
220.706	61.44
220.924	-0
221.142	-8.19
221.36	57.34
221.578	20.48
221.796	-28.67
222.015	57.34
222.233	53.25
222.451	88.06
222.669	47.1
222.887	47.1
223.105	-36.86
223.323	34.82
223.541	24.58
223.759	4.1
223.977	51.2
224.195	98.3
224.413	96.25
224.631	73.73
224.849	59.39
225.067	75.77
225.285	-59.39
225.503	51.2
225.721	-18.43
225.939	55.3
226.157	45.06
226.375	86.01
226.592	38.91
226.81	2.05
227.028	67.58
227.246	79.87
227.464	98.3
227.682	79.87
227.9	24.58
228.117	55.3
228.335	14.34
228.553	36.86
228.771	61.44
228.989	-24.58
229.206	30.72
229.424	-24.58
229.642	65.53
229.86	-22.53
230.077	30.72
230.295	67.58
230.513	79.87
230.731	69.63
230.948	77.82
231.166	28.67
231.384	124.93
231.601	59.39
231.819	161.79
232.037	53.25
232.254	34.82
232.472	-6.14
232.689	8.19
232.907	38.91
233.125	61.44
233.342	-20.48
233.56	-47.1
233.777	30.72
233.995	100.35
234.213	14.34
234.43	-45.06
234.648	6.14
234.865	30.72
235.083	53.25
235.3	59.39
235.518	40.96
235.735	67.58
235.953	98.3
236.17	129.02
236.388	14.34
236.605	-12.29
236.822	96.25
237.04	122.88
237.257	81.92
237.475	2.05
237.692	57.34
237.909	86.01
238.127	2.05
238.344	34.82
238.562	26.62
238.779	24.58
238.996	18.43
239.214	24.58
239.431	88.06
239.648	-18.43
239.865	40.96
240.083	51.2
240.3	22.53
240.517	55.3
240.735	96.25
240.952	6.14
241.169	92.16
241.386	36.86
241.603	24.58
241.821	-18.43
242.038	61.44
242.255	108.54
242.472	75.77
242.689	57.34
242.907	118.78
243.124	18.43
243.341	63.49
243.558	14.34
243.775	-16.38
243.992	53.25
244.209	67.58
244.426	102.4
244.643	45.06
244.86	32.77
245.078	104.45
245.295	71.68
245.512	63.49
245.729	55.3
245.946	53.25
246.163	32.77
246.38	73.73
246.597	2.05
246.814	4.1
247.031	59.39
247.248	100.35
247.464	-38.91
247.681	69.63
247.898	-18.43
248.115	112.64
248.332	18.43
248.549	65.53
248.766	65.53
248.983	63.49
249.2	-4.1
249.417	53.25
249.633	59.39
249.85	49.15
250.067	59.39
250.284	90.11
250.501	16.38
250.717	4.1
250.934	-98.3
251.151	57.34
251.368	55.3
251.585	43.01
251.801	51.2
252.018	43.01
252.235	77.82
252.451	-0
252.668	96.25
252.885	124.93
253.102	71.68
253.318	45.06
253.535	-49.15
253.752	65.53
253.968	18.43
254.185	-2.05
254.401	-40.96
254.618	126.97
254.835	-10.24
255.051	47.1
255.268	57.34
255.484	6.14
255.701	63.49
255.917	81.92
256.134	12.29
256.351	30.72
256.567	4.1
256.784	131.07
257	53.25
257.217	67.58
257.433	-34.82
257.65	45.06
257.866	139.26
258.082	-18.43
258.299	67.58
258.515	77.82
258.732	-36.86
258.948	43.01
259.165	98.3
259.381	63.49
259.597	71.68
259.814	-43.01
260.03	-16.38
260.246	65.53
260.463	106.49
260.679	53.25
260.895	-34.82
261.112	20.48
261.328	24.58
261.544	22.53
261.761	90.11
261.977	47.1
262.193	34.82
262.409	55.3
262.626	40.96
262.842	69.63
263.058	57.34
263.274	81.92
263.49	45.06
263.707	75.77
263.923	55.3
264.139	20.48
264.355	20.48
264.571	57.34
264.787	28.67
265.004	92.16
265.22	-55.3
265.436	63.49
265.652	20.48
265.868	4.1
266.084	30.72
266.3	16.38
266.516	-6.14
266.732	45.06
266.948	114.69
267.164	92.16
267.38	102.4
267.596	36.86
267.812	61.44
268.028	36.86
268.244	4.1
268.46	75.77
268.676	73.73
268.892	-20.48
269.108	18.43
269.324	47.1
269.54	-14.34
269.756	106.49
269.972	-59.39
270.188	63.49
270.403	22.53
270.619	-8.19
270.835	40.96
271.051	-2.05
271.267	81.92
271.483	24.58
271.698	-22.53
271.914	49.15
272.13	18.43
272.346	73.73
272.562	24.58
272.777	59.39
272.993	2.05
273.209	69.63
273.425	10.24
273.64	-47.1
273.856	75.77
274.072	43.01
274.287	20.48
274.503	24.58
274.719	94.21
274.934	24.58
275.15	18.43
275.366	-34.82
275.581	63.49
275.797	51.2
276.012	22.53
276.228	38.91
276.444	28.67
276.659	69.63
276.875	10.24
277.09	-14.34
277.306	12.29
277.521	55.3
277.737	45.06
277.952	79.87
278.168	22.53
278.383	24.58
278.599	32.77
278.814	28.67
279.03	32.77
279.245	81.92
279.461	-0
279.676	100.35
279.892	30.72
280.107	47.1
280.322	-26.62
280.538	69.63
280.753	14.34
280.969	77.82
281.184	10.24
281.399	83.97
281.615	16.38
281.83	22.53
282.045	-12.29
282.26	32.77
282.476	-24.58
282.691	51.2
282.906	102.4
283.122	10.24
283.337	112.64
283.552	49.15
283.767	38.91
283.983	47.1
284.198	67.58
284.413	92.16
284.628	30.72
284.843	40.96
285.058	63.49
285.274	-2.05
285.489	-18.43
285.704	43.01
285.919	49.15
286.134	47.1
286.349	6.14
286.564	49.15
286.779	28.67
286.995	57.34
287.21	-20.48
287.425	94.21
287.64	12.29
287.855	137.21
288.07	8.19
288.285	69.63
288.5	57.34
288.715	73.73
288.93	36.86
289.145	16.38
289.36	104.45
289.575	18.43
289.79	135.17
290.004	92.16
290.219	108.54
290.434	32.77
290.649	57.34
290.864	30.72
291.079	133.12
291.294	104.45
291.509	79.87
291.724	-0
291.938	-63.49
292.153	65.53
292.368	53.25
292.583	-0
292.798	129.02
293.012	38.91
293.227	92.16
293.442	69.63
293.657	51.2
293.871	32.77
294.086	2.05
294.301	71.68
294.516	102.4
294.73	12.29
294.945	49.15
295.16	14.34
295.374	30.72
295.589	45.06
295.804	61.44
296.018	81.92
296.233	81.92
296.447	67.58
296.662	88.06
296.877	100.35
297.091	67.58
297.306	94.21
297.52	-16.38
297.735	6.14
297.949	57.34
298.164	98.3
298.378	53.25
298.593	32.77
298.807	43.01
299.022	36.86
299.236	59.39
299.451	-32.77
299.665	10.24
299.88	55.3
300.094	77.82
300.309	102.4
300.523	51.2
300.737	22.53
300.952	18.43
301.166	77.82
301.381	55.3
301.595	-71.68
301.809	83.97
302.024	24.58
302.238	-30.72
302.452	59.39
302.667	28.67
302.881	165.89
303.095	81.92
303.309	-4.1
303.524	20.48
303.738	20.48
303.952	6.14
304.166	100.35
304.381	16.38
304.595	79.87
304.809	55.3
305.023	104.45
305.237	-26.62
305.452	81.92
305.666	53.25
305.88	32.77
306.094	118.78
306.308	34.82
306.522	-47.1
306.736	100.35
306.95	49.15
307.164	110.59
307.379	43.01
307.593	114.69
307.807	28.67
308.021	98.3
308.235	12.29
308.449	-28.67
308.663	26.62
308.877	110.59
309.091	-10.24
309.305	38.91
309.519	-18.43
309.733	98.3
309.947	-38.91
310.161	92.16
310.374	36.86
310.588	86.01
310.802	45.06
311.016	36.86
311.23	90.11
311.444	20.48
311.658	28.67
311.872	24.58
312.085	163.84
312.299	114.69
312.513	75.77
312.727	94.21
312.941	-14.34
313.154	118.78
313.368	45.06
313.582	51.2
313.796	8.19
314.009	-6.14
314.223	96.25
314.437	110.59
314.651	73.73
314.864	-22.53
315.078	43.01
315.292	47.1
315.505	77.82
315.719	30.72
315.933	-0
316.146	12.29
316.36	45.06
316.573	122.88
316.787	100.35
317.001	2.05
317.214	-14.34
317.428	47.1
317.641	-34.82
317.855	116.73
318.068	47.1
318.282	-16.38
318.495	120.83
318.709	90.11
318.922	53.25
319.136	61.44
319.349	81.92
319.563	77.82
319.776	-67.58
319.99	-16.38
320.203	88.06
320.417	69.63
320.63	26.62
320.843	34.82
321.057	102.4
321.27	67.58
321.483	49.15
321.697	122.88
321.91	79.87
322.124	43.01
322.337	57.34
322.55	110.59
322.763	104.45
322.977	77.82
323.19	59.39
323.403	100.35
323.617	34.82
323.83	55.3
324.043	4.1
324.256	30.72
324.469	98.3
324.683	55.3
324.896	102.4
325.109	32.77
325.322	14.34
325.535	77.82
325.748	61.44
325.962	55.3
326.175	61.44
326.388	100.35
326.601	71.68
326.814	57.34
327.027	151.55
327.24	36.86
327.453	75.77
327.666	77.82
327.879	108.54
328.092	24.58
328.305	75.77
328.518	-20.48
328.731	65.53
328.944	28.67
329.157	133.12
329.37	-2.05
329.583	81.92
329.796	59.39
330.009	6.14
330.222	47.1
330.435	30.72
330.648	98.3
330.861	24.58
331.073	40.96
331.286	102.4
331.499	112.64
331.712	18.43
331.925	22.53
332.138	-26.62
332.35	88.06
332.563	92.16
332.776	67.58
332.989	32.77
333.202	73.73
333.414	77.82
333.627	81.92
333.84	67.58
334.053	90.11
334.265	53.25
334.478	110.59
334.691	34.82
334.903	108.54
335.116	55.3
335.329	104.45
335.541	63.49
335.754	65.53
335.966	-10.24
336.179	102.4
336.392	98.3
336.604	-4.1
336.817	47.1
337.029	104.45
337.242	79.87
337.454	120.83
337.667	77.82
337.88	57.34
338.092	75.77
338.305	45.06
338.517	106.49
338.729	96.25
338.942	20.48
339.154	75.77
339.367	8.19
339.579	73.73
339.792	14.34
340.004	79.87
340.217	-0
340.429	79.87
340.641	6.14
340.854	-0
341.066	40.96
341.278	141.31
341.491	108.54
341.703	79.87
341.915	86.01
342.128	47.1
342.34	67.58
342.552	10.24
342.764	14.34
342.977	110.59
343.189	94.21
343.401	32.77
343.613	96.25
343.826	4.1
344.038	20.48
344.25	102.4
344.462	45.06
344.674	124.93
344.886	75.77
345.099	57.34
345.311	65.53
345.523	67.58
345.735	22.53
345.947	47.1
346.159	61.44
346.371	63.49
346.583	67.58
346.795	75.77
347.007	30.72
347.219	102.4
347.431	94.21
347.643	100.35
347.855	43.01
348.067	30.72
348.279	22.53
348.491	106.49
348.703	73.73
348.915	36.86
349.127	28.67
349.339	73.73
349.551	79.87
349.763	28.67
349.975	34.82
350.187	45.06
350.399	88.06
350.61	143.36
350.822	120.83
351.034	137.21
351.246	6.14
351.458	55.3
351.669	98.3
351.881	88.06
352.093	36.86
352.305	174.08
352.517	77.82
352.728	141.31
352.94	30.72
353.152	28.67
353.363	30.72
353.575	81.92
353.787	79.87
353.999	26.62
354.21	94.21
354.422	45.06
354.633	32.77
354.845	-0
355.057	139.26
355.268	98.3
355.48	51.2
355.692	110.59
355.903	47.1
356.115	81.92
356.326	81.92
356.538	73.73
356.749	45.06
356.961	161.79
357.172	67.58
357.384	63.49
357.595	120.83
357.807	14.34
358.018	51.2
358.23	38.91
358.441	145.41
358.653	47.1
358.864	67.58
359.075	88.06
359.287	67.58
359.498	65.53
359.709	90.11
359.921	81.92
360.132	28.67
360.344	75.77
360.555	32.77
360.766	159.74
360.977	59.39
361.189	157.69
361.4	-6.14
361.611	96.25
361.823	116.73
362.034	94.21
362.245	-43.01
362.456	55.3
362.667	94.21
362.879	94.21
363.09	106.49
363.301	43.01
363.512	114.69
363.723	-4.1
363.935	59.39
364.146	92.16
364.357	53.25
364.568	63.49
364.779	40.96
364.99	61.44
365.201	67.58
365.412	38.91
365.623	59.39
365.834	88.06
366.045	149.5
366.256	49.15
366.467	81.92
366.678	147.45
366.889	129.02
367.1	96.25
367.311	98.3
367.522	81.92
367.733	16.38
367.944	79.87
368.155	16.38
368.366	49.15
368.577	145.41
368.788	112.64
368.999	69.63
369.209	26.62
369.42	102.4
369.631	143.36
369.842	77.82
370.053	65.53
370.264	100.35
370.474	88.06
370.685	151.55
370.896	22.53
371.107	153.6
371.317	141.31
371.528	86.01
371.739	96.25
371.95	55.3
372.16	65.53
372.371	57.34
372.582	-32.77
372.792	137.21
373.003	20.48
373.214	79.87
373.424	163.84
373.635	100.35
373.846	141.31
374.056	38.91
374.267	57.34
374.477	104.45
374.688	26.62
374.898	73.73
375.109	126.97
375.319	112.64
375.53	174.08
375.74	88.06
375.951	110.59
376.161	112.64
376.372	110.59
376.582	104.45
376.793	-4.1
377.003	12.29
377.214	24.58
377.424	55.3
377.635	16.38
377.845	32.77
378.055	174.08
378.266	126.97
378.476	79.87
378.686	135.17
378.897	90.11
379.107	106.49
379.317	114.69
379.528	116.73
379.738	100.35
379.948	34.82
380.158	124.93
380.369	67.58
380.579	22.53
380.789	57.34
380.999	83.97
381.21	110.59
381.42	100.35
381.63	22.53
381.84	96.25
382.05	57.34
382.261	126.97
382.471	92.16
382.681	129.02
382.891	110.59
383.101	45.06
383.311	63.49
383.521	-4.1
383.731	110.59
383.941	98.3
384.151	36.86
384.361	86.01
384.571	53.25
384.781	53.25
384.991	49.15
385.201	124.93
385.411	88.06
385.621	122.88
385.831	53.25
386.041	81.92
386.251	100.35
386.461	55.3
386.671	10.24
386.881	73.73
387.091	61.44
387.301	227.32
387.511	118.78
387.72	112.64
387.93	67.58
388.14	51.2
388.35	49.15
388.56	139.26
388.769	57.34
388.979	94.21
389.189	135.17
389.399	45.06
389.609	141.31
389.818	81.92
390.028	83.97
390.238	106.49
390.447	124.93
390.657	139.26
390.867	129.02
391.076	104.45
391.286	88.06
391.496	143.36
391.705	32.77
391.915	122.88
392.125	161.79
392.334	118.78
392.544	161.79
392.753	126.97
392.963	106.49
393.172	110.59
393.382	169.98
393.591	129.02
393.801	75.77
394.01	100.35
394.22	102.4
394.429	120.83
394.639	108.54
394.848	219.13
395.058	112.64
395.267	178.17
395.477	141.31
395.686	122.88
395.895	176.13
396.105	227.32
396.314	102.4
396.524	77.82
396.733	141.31
396.942	169.98
397.152	45.06
397.361	159.74
397.57	159.74
397.78	184.32
397.989	141.31
398.198	241.66
398.407	188.41
398.617	180.22
398.826	114.69
399.035	190.46
399.244	153.6
399.453	129.02
399.663	94.21
399.872	174.08
400.081	163.84
400.29	178.17
400.499	126.97
400.708	237.56
400.917	153.6
401.127	208.89
401.336	92.16
401.545	223.23
401.754	159.74
401.963	165.89
402.172	163.84
402.381	108.54
402.59	112.64
402.799	206.84
403.008	331.77
403.217	221.18
403.426	210.94
403.635	149.5
403.844	256
404.053	159.74
404.262	219.13
404.471	321.53
404.68	258.04
404.888	204.8
405.097	212.99
405.306	229.37
405.515	188.41
405.724	292.86
405.933	303.1
406.142	272.38
406.35	200.7
406.559	262.14
406.768	286.72
406.977	378.87
407.185	323.58
407.394	327.67
407.603	270.33
407.812	364.54
408.02	446.46
408.229	366.59
408.438	327.67
408.646	342.01
408.855	419.83
409.064	407.55
409.272	540.66
409.481	473.08
409.69	362.49
409.898	413.69
410.107	516.09
410.315	561.14
410.524	493.56
410.733	507.9
410.941	559.1
411.15	555
411.358	636.92
411.567	624.63
411.775	708.6
411.984	645.11
412.192	622.58
412.401	681.97
412.609	806.9
412.818	720.88
413.026	802.8
413.234	794.61
413.443	794.61
413.651	825.33
413.86	872.43
414.068	974.83
414.276	995.31
414.485	1036.27
414.693	1062.9
414.901	1120.24
415.11	1138.67
415.318	1019.89
415.526	1183.73
415.734	1265.64
415.943	1232.88
416.151	1316.84
416.359	1355.76
416.567	1398.76
416.776	1439.72
416.984	1476.59
417.192	1550.31
417.4	1470.44
417.608	1581.03
417.817	1701.86
418.025	1734.63
418.233	1863.65
418.441	1914.85
418.649	1943.52
418.857	1937.38
419.065	2160.61
419.273	1992.67
419.481	2226.14
419.689	2277.34
419.897	2430.94
420.105	2414.56
420.313	2445.27
420.521	2609.11
420.729	2650.07
420.937	2713.56
421.145	2912.21
421.353	2996.18
421.561	3035.09
421.769	3248.08
421.977	3307.47
422.185	3149.78
422.393	3403.72
422.601	3729.35
422.809	3708.87
423.017	3702.73
423.224	3844.04
423.432	4032.45
423.64	4083.65
423.848	4325.31
424.056	4259.77
424.263	4517.82
424.471	4669.37
424.679	4874.17
424.887	4984.76
425.094	5095.35
425.302	5306.29
425.51	5240.75
425.718	5455.79
425.925	5564.33
426.133	5875.62
426.341	6133.67
426.548	6408.09
426.756	6315.94
426.964	6457.25
427.171	6813.59
427.379	6985.62
427.586	7198.61
427.794	7372.69
428.001	7702.41
428.209	8112
428.417	7978.89
428.624	8361.86
428.832	8443.78
429.039	8345.47
429.247	8243.07
429.454	9086.84
429.662	9748.33
429.869	9201.52
430.076	9848.68
430.284	9611.12
430.491	9979.75
430.699	10526.56
430.906	10526.56
431.114	10563.42
431.321	10897.24
431.528	11546.45
431.736	12050.25
431.943	12425.03
432.15	12212.04
432.358	12474.18
432.565	13084.47
432.772	13035.32
432.979	13436.72
433.187	13842.22
433.394	13874.99
433.601	14776.09
433.808	14974.75
434.016	14780.19
434.223	15492.88
434.43	16406.28
434.637	16127.75
434.844	17131.26
435.052	17331.96
435.259	17090.3
435.466	17444.6
435.673	17383.16
435.88	18527.97
436.087	19562.2
436.294	19429.08
436.501	18986.72
436.708	19449.56
436.915	20141.77
437.122	20793.03
437.329	21098.17
437.537	21634.74
437.743	21821.11
437.95	21864.11
438.157	22902.43
438.364	23363.23
438.571	23283.36
438.778	23649.94
438.985	25935.48
439.192	24995.46
439.399	25562.75
439.606	25095.81
439.813	26637.93
440.02	28352.08
440.227	27487.84
440.433	27256.42
440.64	28272.21
440.847	28120.66
441.054	28759.63
441.261	30694.96
441.467	30232.11
441.674	30780.97
441.881	31946.26
442.088	31974.94
442.294	31766.04
442.501	32695.82
442.708	33213.96
442.914	34473.46
443.121	35591.65
443.328	34899.44
443.534	37455.3
443.741	36355.54
443.948	35452.39
444.154	38571.44
444.361	38415.8
444.568	38546.87
444.774	38436.28
444.981	38897.07
445.187	40125.85
445.394	41739.65
445.6	41059.73
445.807	45249.87
446.013	43107.69
446.22	44037.47
446.426	45983.04
446.633	45851.97
446.839	47455.53
447.046	45731.14
447.252	47975.72
447.459	48033.06
447.665	48051.49
447.871	49640.71
448.078	52106.47
448.284	49310.99
448.491	51186.93
448.697	52866.27
448.903	53292.24
449.11	54361.28
449.316	52933.85
449.522	53937.35
449.728	55262.39
449.935	55633.07
450.141	55710.89
450.347	56947.87
450.553	55221.43
450.76	55962.79
450.966	57613.46
451.172	56843.42
451.378	58322.05
451.584	57261.21
451.791	58559.62
451.997	58563.71
452.203	59147.39
452.409	59456.63
452.615	58985.6
452.821	57263.25
453.027	56294.57
453.233	59339.89
453.44	57234.58
453.646	57689.23
453.852	58068.11
454.058	58875.01
454.264	57167
454.47	58141.83
454.676	56943.77
454.882	58774.66
455.088	54211.78
455.294	54768.83
455.5	56005.8
455.705	56186.02
455.911	54047.94
456.117	53028.05
456.323	52284.64
456.529	49825.03
456.735	52008.17
456.941	51037.43
457.147	49804.55
457.352	48416.03
457.558	47945
457.764	48043.3
457.97	47467.82
458.176	46054.72
458.381	46112.06
458.587	44080.48
458.793	44119.39
458.999	41440.65
459.204	44457.31
459.41	43550.06
459.616	40695.19
459.821	40940.94
460.027	40652.18
460.233	39742.88
460.438	37617.09
460.644	38167.99
460.85	36511.19
461.055	35902.94
461.261	35964.38
461.466	33150.47
461.672	31968.79
461.878	34418.16
462.083	32515.6
462.289	31720.99
462.494	31282.72
462.7	29855.29
462.905	28978.76
463.111	30307.89
463.316	29859.38
463.522	29617.72
463.727	30021.17
463.932	29646.4
464.138	29232.71
464.343	29648.44
464.549	28364.37
464.754	29605.44
464.959	29103.68
465.165	29312.58
465.37	28114.51
465.575	26955.36
465.781	27913.81
465.986	28325.46
466.191	27344.48
466.397	26906.21
466.602	25267.84
466.807	26345.07
467.012	26736.23
467.218	26310.25
467.423	25874.04
467.628	26209.9
467.833	27289.18
468.038	26461.8
468.244	25628.28
468.449	26521.2
468.654	25597.56
468.859	25548.41
469.064	25282.17
469.269	24059.54
469.474	24383.12
469.679	25167.49
469.885	24428.17
470.09	24690.31
470.295	24508.04
470.5	23746.2
470.705	24069.78
470.91	23465.63
471.115	23193.25
471.32	23684.76
471.525	23662.23
471.73	23058.08
471.935	22697.64
472.139	22007.47
472.344	22372.01
472.549	22079.15
472.754	21968.56
472.959	21425.85
473.164	20915.9
473.369	20631.24
473.574	21356.22
473.778	21225.15
473.983	21100.22
474.188	20815.55
474.393	19973.84
474.598	20240.08
474.802	19771.09
475.007	19865.3
475.212	19818.19
475.417	19173.08
475.621	19115.74
475.826	19336.92
476.031	18792.16
476.235	18546.4
476.44	18843.36
476.645	18276.07
476.849	18437.86
477.054	18251.5
477.259	17790.7
477.463	17964.78
477.668	17377.01
477.872	17753.84
478.077	17323.77
478.282	16961.28
478.486	16983.8
478.691	16756.48
478.895	16914.17
479.1	16482.05
479.304	16451.33
479.509	15959.82
479.713	16523.01
479.918	15834.89
480.122	15474.45
480.326	16027.4
480.531	16068.36
480.735	15654.67
480.94	15568.66
481.144	16193.29
481.348	15335.19
481.553	15681.3
481.757	14933.79
481.961	15566.61
482.166	15789.84
482.37	15531.79
482.574	15114.01
482.778	15048.47
482.983	15441.68
483.187	15279.89
483.391	15390.49
483.595	15183.64
483.8	15005.47
484.004	15480.6
484.208	15650.58
484.412	15050.52
484.616	15357.72
484.821	15277.85
485.025	15017.75
485.229	15234.84
485.433	15222.55
485.637	15238.94
485.841	15089.43
486.045	15210.26
486.249	15472.4
486.453	14995.23
486.657	15132.44
486.861	15304.47
487.065	14919.45
487.269	15226.65
487.473	14720.8
487.677	15359.77
487.881	15187.74
488.085	15134.49
488.289	15554.32
488.493	15367.96
488.697	15236.89
488.901	15234.84
489.105	15107.87
489.309	15183.64
489.512	15404.82
489.716	15505.17
489.92	15613.71
490.124	15398.68
490.328	15673.1
490.531	15265.56
490.735	15453.97
490.939	15691.54
491.143	15595.28
491.346	15556.37
491.55	16015.12
491.754	15781.65
491.958	15980.3
492.161	15771.41
492.365	15910.67
492.569	15927.05
492.772	16330.5
492.976	16062.22
493.18	16326.41
493.383	16439.05
493.587	16543.49
493.79	16619.27
493.994	16553.73
494.197	16842.49
494.401	16795.39
494.605	16619.27
494.808	17037.05
495.012	17035
495.215	17055.48
495.419	17237.75
495.622	17123.07
495.825	17499.89
496.029	17395.45
496.232	17598.2
496.436	17889.01
496.639	18294.5
496.843	18091.76
497.046	18628.32
497.249	18794.21
497.453	18687.71
497.656	19093.21
497.859	18999.01
498.063	19144.41
498.266	19855.06
498.469	19721.94
498.673	19879.63
498.876	20059.85
499.079	20219.6
499.282	20141.77
499.485	20848.32
499.689	20803.27
499.892	21034.69
500.095	20965.06
500.298	21440.18
500.501	21403.32
500.705	21989.04
500.908	21753.52
501.111	22472.36
501.314	22292.14
501.517	22693.54
501.72	23215.77
501.923	23086.75
502.126	23545.5
502.329	24012.43
502.532	24188.56
502.735	23961.23
502.938	24512.14
503.141	24549
503.344	24788.61
503.547	24936.07
503.75	25460.35
503.953	25851.51
504.156	25826.93
504.359	26285.68
504.562	26283.63
504.765	26820.2
504.968	27151.97
505.17	27276.9
505.373	27883.09
505.576	27993.68
505.779	28321.36
505.982	28130.9
506.185	28763.72
506.387	29075.01
506.59	29412.93
506.793	29955.64
506.996	29623.87
507.198	30631.47
507.401	30242.35
507.604	30760.49
507.807	31315.49
508.009	31356.45
508.212	31720.99
508.415	32235.03
508.617	32308.75
508.82	32357.91
509.022	32019.99
509.225	32927.24
509.428	33324.55
509.63	33711.61
509.833	33887.74
510.035	34436.59
510.238	34375.16
510.44	34545.14
510.643	35206.63
510.845	35524.07
511.048	35374.56
511.25	36150.74
511.453	36206.04
511.655	37377.48
511.858	37041.61
512.06	37463.49
512.262	37932.48
512.465	37490.12
512.667	38356.41
512.87	38909.36
513.072	38862.25
513.274	39415.21
513.477	39822.75
513.679	40439.19
513.881	40590.74
514.084	40627.6
514.286	40484.25
514.488	40670.61
514.69	42366.33
514.893	42186.11
515.095	42028.41
515.297	42491.26
515.499	42913.14
515.701	43335.02
515.904	43509.1
516.106	43474.28
516.308	44402.01
516.51	44406.11
516.712	44739.93
516.914	45339.98
517.116	45800.77
517.318	45837.64
517.52	45966.66
517.722	46411.07
517.925	46798.13
518.127	47461.68
518.329	47459.63
518.531	47652.14
518.733	48276.77
518.935	48649.5
519.136	48512.28
519.338	49036.56
519.54	49452.3
519.742	49845.51
519.944	50066.69
520.146	50406.65
520.348	50732.28
520.55	50703.61
520.752	51131.64
520.954	51860.71
521.155	51819.75
521.357	52538.59
521.559	52770.01
521.761	53556.43
521.963	52729.05
522.164	53195.99
522.366	53437.65
522.568	53996.74
522.77	54234.31
522.971	54920.38
523.173	54543.55
523.375	54918.33
523.576	54549.7
523.778	54914.23
523.98	55872.68
524.181	56120.49
524.383	56292.52
524.584	56427.68
524.786	56112.3
524.988	56128.68
525.189	57175.19
525.391	57142.42
525.592	57451.67
525.794	57511.06
525.995	57853.07
526.197	57801.87
526.398	57834.64
526.6	58338.44
526.801	58111.11
527.003	58567.81
527.204	58342.53
527.406	59155.58
527.607	58942.59
527.808	59319.41
528.01	58029.19
528.211	59219.06
528.412	60005.48
528.614	59452.53
528.815	59651.19
529.016	59804.78
529.218	60095.6
529.419	59995.24
529.62	59903.09
529.822	60191.85
530.023	60204.14
530.224	60238.95
530.425	60236.9
530.626	59923.57
530.828	59778.16
531.029	61113.44
531.23	60146.79
531.431	60314.73
531.632	60310.63
531.833	60814.43
532.035	60959.84
532.236	60822.62
532.437	61138.01
532.638	60470.37
532.839	60916.83
533.04	61064.28
533.241	60515.43
533.442	61486.17
533.643	60904.54
533.844	61013.08
534.045	61011.04
534.246	60243.05
534.447	61068.38
534.648	60873.82
534.849	61123.68
535.05	60683.36
535.251	61119.58
535.451	60484.71
535.652	61246.55
535.853	61131.87
536.054	60642.4
536.255	61015.13
536.456	60687.46
536.657	61197.4
536.857	61144.15
537.058	60707.94
537.259	61031.52
537.46	61189.21
537.66	60943.45
537.861	60877.92
538.062	60742.75
538.263	60367.97
538.463	60578.92
538.664	60611.68
538.865	60904.54
539.065	60834.91
539.266	60271.72
539.466	60914.78
539.667	60306.54
539.868	61088.86
540.068	60671.07
540.269	60552.29
540.469	60781.66
540.67	60355.69
540.87	60527.72
541.071	60634.21
541.271	60957.79
541.472	60238.95
541.672	60443.75
541.873	60146.79
542.073	60128.36
542.274	60562.53
542.474	60560.48
542.675	60060.78
542.875	60673.12
543.075	60193.9
543.276	60038.25
543.476	60212.33
543.676	60345.45
543.877	60396.65
544.077	60408.93
544.277	60216.43
544.478	60290.15
544.678	60636.26
544.878	60052.59
545.078	60298.34
545.279	59898.99
545.479	60015.72
545.679	60404.84
545.879	60114.03
546.079	59933.81
546.28	59946.09
546.48	59546.74
546.68	60169.32
546.88	60042.35
547.08	59991.15
547.28	59765.87
547.48	59511.92
547.68	59880.56
547.88	59565.17
548.081	59759.73
548.281	59708.53
548.481	59733.1
548.681	59819.12
548.881	59980.91
549.081	59681.91
549.28	59747.44
549.48	60015.72
549.68	59577.46
549.88	60193.9
550.08	59485.3
550.28	59964.53
550.48	59233.4
550.68	59929.71
550.88	59311.22
551.08	60015.72
551.279	59559.03
551.479	59341.94
551.679	59503.73
551.879	59112.57
552.079	59288.7
552.278	59040.89
552.478	59141.24
552.678	58915.96
552.878	59372.66
553.077	59587.7
553.277	59067.51
553.477	59554.93
553.676	59315.32
553.876	59176.06
554.076	59262.07
554.275	58657.92
554.475	58537.09
554.674	59231.35
554.874	58897.53
555.074	58598.53
555.273	58926.2
555.473	58977.4
555.672	58895.49
555.872	59081.85
556.071	58717.31
556.271	59118.71
556.47	58219.66
556.67	58301.57
556.869	58614.91
557.068	58569.86
557.268	58225.8
557.467	58698.88
557.667	57988.24
557.866	58184.84
558.065	58131.59
558.265	57652.37
558.464	57547.92
558.663	58535.04
558.863	57638.03
559.062	58385.54
559.261	57644.18
559.461	58080.39
559.66	57504.91
559.859	58193.03
560.058	57513.11
560.258	57486.48
560.457	57351.32
560.656	57740.43
560.855	57379.99
561.054	57752.72
561.253	57164.95
561.453	57078.94
561.652	57179.29
561.851	57394.32
562.05	57009.31
562.249	56929.44
562.448	57296.02
562.647	57023.64
562.846	57273.49
563.045	56747.17
563.244	56333.48
563.443	57273.49
563.642	56059.05
563.841	56319.14
564.04	56138.92
564.239	56302.76
564.438	56198.31
564.637	56499.36
564.836	56183.97
565.035	55981.23
565.234	56241.32
565.432	55723.18
565.631	55899.31
565.83	56030.38
566.029	55469.23
566.228	55530.67
566.427	55327.92
566.625	55164.09
566.824	54756.54
567.023	55354.55
567.222	54240.45
567.42	55602.35
567.619	54824.12
567.818	55192.76
568.016	54850.75
568.215	55420.08
568.414	54715.58
568.612	55014.58
568.811	54316.23
569.01	54789.31
569.208	53830.86
569.407	54576.32
569.605	53984.46
569.804	54588.61
570.002	53859.53
570.201	54150.34
570.4	53957.83
570.598	53957.83
570.797	53849.29
570.995	53345.49
571.193	53187.8
571.392	54052.04
571.59	53329.11
571.789	52921.56
571.987	53447.89
572.186	52868.31
572.384	52737.24
572.582	53648.59
572.781	53314.77
572.979	52468.96
573.177	52819.16
573.376	53230.8
573.574	52436.19
573.772	52753.63
573.971	52163.81
574.169	52313.31
574.367	51217.65
574.565	52550.88
574.763	51686.64
574.962	51756.27
575.16	50973.94
575.358	51543.28
575.556	51033.33
575.754	52378.85
575.952	50836.73
576.151	51213.55
576.349	50902.26
576.547	51096.82
576.745	51170.55
576.943	51191.03
577.141	50588.92
577.339	50791.67
577.537	50754.81
577.735	50334.98
577.933	50103.56
578.131	50425.09
578.329	50115.84
578.527	49894.66
578.725	49861.9
578.923	50330.88
579.121	49788.17
579.319	49376.53
579.516	49904.9
579.714	49831.18
579.912	49110.29
580.11	49057.04
580.308	49220.88
580.506	49079.57
580.704	48979.22
580.901	49304.85
581.099	49415.44
581.297	48270.62
581.495	47988
581.692	48928.02
581.89	48164.13
582.088	48780.57
582.285	48205.09
582.483	48588.06
582.681	48112.93
582.878	47949.09
583.076	47590.7
583.274	48057.63
583.471	47123.76
583.669	47424.81
583.866	47375.66
584.064	47539.5
584.262	46853.43
584.459	47353.13
584.657	47047.99
584.854	47273.26
585.052	46214.46
585.249	46589.24
585.447	46966.07
585.644	45940.04
585.841	46513.47
586.039	46265.66
586.236	45688.13
586.434	46239.04
586.631	45528.39
586.828	45753.67
587.026	45761.86
587.223	45595.98
587.42	45278.54
587.618	45446.47
587.815	44875.09
588.012	44655.96
588.21	44950.87
588.407	45106.51
588.604	44649.81
588.801	44725.59
588.999	44418.39
589.196	44146.01
589.393	44758.36
589.59	44125.53
589.787	44150.11
589.984	43576.68
590.182	43392.36
590.379	44219.74
590.576	43396.46
590.773	43582.82
590.97	43173.23
591.167	43337.07
591.364	42880.37
591.561	43339.11
591.758	42833.27
591.955	42837.36
592.152	43091.31
592.349	42198.4
592.546	42911.09
592.743	42345.85
592.94	41629.06
593.137	41915.78
593.334	42370.43
593.531	41684.36
593.727	41872.77
593.924	41954.69
594.121	41241.99
594.318	41575.81
594.515	40983.95
594.712	41717.12
594.908	41244.04
595.105	41285
595.302	40674.71
595.499	41055.63
595.696	40629.65
595.892	40379.8
596.089	40568.21
596.286	40682.9
596.482	40207.77
596.679	40615.32
596.876	39996.83
597.072	39986.59
597.269	39892.38
597.466	39818.66
597.662	39511.46
597.859	39517.61
598.055	39417.25
598.252	39067.05
598.448	39376.3
598.645	39357.86
598.841	38323.64
599.038	38866.35
599.234	38792.62
599.431	38184.38
599.627	38385.08
599.824	38516.15
600.02	37873.09
600.217	38278.58
600.413	38159.8
600.609	37985.72
600.806	37813.69
601.002	37780.93
601.198	37293.51
601.395	37557.7
601.591	37617.09
601.787	37696.96
601.984	37090.76
602.18	37268.94
602.376	37201.35
602.572	36787.66
602.769	36711.89
602.965	36888.01
603.161	36462.04
603.357	36529.62
603.553	36353.49
603.75	36072.92
603.946	35929.56
604.142	36394.45
604.338	35667.42
604.534	36146.65
604.73	35573.22
604.926	35315.17
605.122	35542.5
605.318	35313.13
605.514	35438.05
605.71	34934.25
605.906	35063.27
606.102	35067.37
606.298	35016.17
606.494	35057.13
606.69	34747.89
606.886	34946.54
607.082	34342.39
607.278	34860.52
607.474	34219.51
607.67	34670.06
607.866	34270.71
608.062	34706.93
608.257	34065.91
608.453	34213.37
608.649	34461.17
608.845	34174.45
609.041	34323.96
609.236	33994.23
609.432	33996.28
609.628	34039.29
609.824	33650.17
610.019	33523.2
610.215	33095.18
610.411	33844.73
610.606	33461.76
610.802	33607.17
610.998	33254.92
611.193	33293.83
611.389	33179.14
611.584	33048.07
611.78	33037.83
611.976	32892.43
612.171	33316.36
612.367	33216.01
612.562	32833.04
612.758	32390.67
612.953	32415.25
613.149	33125.89
613.344	32415.25
613.539	33070.6
613.735	32679.44
613.93	32364.05
614.126	32529.94
614.321	32531.98
614.517	31948.31
614.712	31960.6
614.907	31899.16
615.103	32232.98
615.298	32001.56
615.493	32515.6
615.688	31768.09
615.884	32235.03
616.079	31620.64
616.274	31860.25
616.47	31553.05
616.665	31858.2
616.86	31571.49
617.055	31448.61
617.25	31346.21
617.445	31561.25
617.641	31020.58
617.836	31501.86
618.031	31012.39
618.226	31280.67
618.421	30875.18
618.616	30991.91
618.811	30656.04
619.006	30871.08
619.201	30363.18
619.396	30400.05
619.591	30027.32
619.786	30709.29
619.981	29675.07
620.176	30238.26
620.371	29451.84
620.566	30025.27
620.761	29568.57
620.956	29732.41
621.151	29333.06
621.346	29242.95
621.541	28829.26
621.735	29150.79
621.93	28634.7
622.125	28753.48
622.32	28225.11
622.515	28515.92
622.709	28212.82
622.904	28200.53
623.099	27919.96
623.294	28145.23
623.488	27610.71
623.683	27686.49
623.878	27448.93
624.072	27643.48
624.267	27160.16
624.462	27049.57
624.656	26599.02
624.851	26951.27
625.046	26637.93
625.24	26678.89
625.435	26232.43
625.629	26246.77
625.824	26111.6
626.018	26478.19
626.213	25646.71
626.407	25783.93
626.602	25495.16
626.796	25648.76
626.991	25351.81
627.185	25296.51
627.38	24962.69
627.574	24954.5
627.768	24538.76
627.963	24491.66
628.157	24358.54
628.352	24567.43
628.546	23883.41
628.74	24200.85
628.935	23901.84
629.129	23981.71
629.323	23594.65
629.517	23740.05
629.712	23533.21
629.906	23473.82
630.1	23205.53
630.294	23197.34
630.489	22834.85
630.683	23170.72
630.877	22898.34
631.071	22503.08
631.265	22623.91
631.459	22490.79
631.653	22322.86
631.848	22269.61
632.042	22263.47
632.236	22159.02
632.43	21927.6
632.624	21692.08
632.818	21952.18
633.012	21632.69
633.206	21464.76
633.4	21532.34
633.594	20946.62
633.788	21204.67
633.982	20913.86
634.176	21073.6
634.369	20838.08
634.563	21135.04
634.757	20522.69
634.951	20467.4
635.145	20473.54
635.339	20215.5
635.533	20004.56
635.726	20174.54
635.92	19758.8
636.114	20219.6
636.308	19742.42
636.501	19369.69
636.695	19699.41
636.889	19369.69
637.083	19193.56
637.276	19338.97
637.47	19173.08
637.664	19185.37
637.857	19097.31
638.051	18976.48
638.244	18931.42
638.438	18837.22
638.632	18390.76
638.825	18740.96
639.019	18349.8
639.212	18282.22
639.406	18470.63
639.599	17983.21
639.793	18257.64
639.986	17872.62
640.18	17811.18
640.373	17833.71
640.567	17358.58
640.76	17549.04
640.954	17596.15
641.147	17473.27
641.34	17254.14
641.534	17499.89
641.727	17090.3
641.92	17112.83
642.114	16908.03
642.307	16989.95
642.5	16887.55
642.694	16420.61
642.887	16635.65
643.08	16776.96
643.273	16594.69
643.467	16514.82
643.66	16428.81
643.853	16183.05
644.046	15990.54
644.239	16150.28
644.432	16160.52
644.626	15777.55
644.819	15736.59
645.012	16002.83
645.205	15679.25
645.398	15691.54
645.591	15593.23
645.784	15245.08
645.977	15339.29
646.17	15429.4
646.363	15355.67
646.556	14987.04
646.749	15210.26
646.942	15101.72
647.135	14853.92
647.328	15200.02
647.521	14724.9
647.714	14569.25
647.907	14534.43
648.099	14372.64
648.292	14612.26
648.485	14325.54
648.678	14210.86
648.871	14133.03
649.064	14122.79
649.256	14253.86
649.449	13973.29
649.642	13934.38
649.835	13713.2
650.027	13893.42
650.22	13727.53
650.413	13690.67
650.605	13520.69
650.798	13479.73
650.991	13463.35
651.183	13242.17
651.376	13074.23
651.568	13246.26
651.761	13156.15
651.954	13002.55
652.146	12867.39
652.339	13006.65
652.531	12943.16
652.724	12635.97
652.916	12769.09
653.109	12783.42
653.301	12767.04
653.494	12717.89
653.686	12457.79
653.879	12355.4
654.071	12429.12
654.263	12085.06
654.456	12267.33
654.648	12324.68
654.84	12015.43
655.033	12058.44
655.225	12111.69
655.417	11968.33
655.61	11921.23
655.802	11646.8
655.994	11730.76
656.186	11777.87
656.379	11513.68
656.571	11638.61
656.763	11411.28
656.955	11480.91
657.148	11597.65
657.34	11525.97
657.532	11398.99
657.724	11177.81
657.916	11081.56
658.108	11257.68
658.3	11097.94
658.492	11140.95
658.684	10805.08
658.876	10805.08
659.068	10782.56
659.26	10661.73
659.452	10895.19
659.644	10669.92
659.836	10602.33
660.028	10588
660.22	10432.35
660.412	10475.36
660.604	10311.52
660.796	10481.5
660.988	10215.27
661.18	10227.56
661.372	10092.39
661.563	10325.86
661.755	9918.31
661.947	10119.01
662.139	9940.84
662.331	9871.21
662.522	9889.64
662.714	9863.02
662.906	9736.04
663.097	9695.08
663.289	9549.68
663.481	9672.56
663.673	9518.96
663.864	9377.65
664.056	9359.22
664.247	9422.7
664.439	9252.72
664.631	9328.5
664.822	9281.39
665.014	9305.97
665.205	9082.74
665.397	9170.8
665.588	8966.01
665.78	9234.29
665.971	9133.94
666.163	8908.66
666.354	8841.08
666.546	8855.42
666.737	8787.83
666.929	8927.1
667.12	8789.88
667.311	8677.24
667.503	8558.46
667.694	8642.43
667.885	8646.52
668.077	8693.63
668.268	8544.13
668.459	8425.34
668.651	8419.2
668.842	8460.16
669.033	8337.28
669.224	8304.51
669.416	8195.97
669.607	8431.49
669.798	8130.44
669.989	8275.84
670.18	8071.04
670.371	8214.4
670.563	8257.41
670.754	7972.74
670.945	7870.34
671.136	7966.6
671.327	7810.95
671.518	7802.76
671.709	7880.58
671.9	8013.7
672.091	7845.77
672.282	7847.82
672.473	7692.17
672.664	7688.07
672.855	7692.17
673.046	7587.72
673.237	7671.69
673.428	7571.34
673.619	7604.11
673.809	7536.52
674	7673.74
674.191	7636.88
674.382	7464.85
674.573	7344.02
674.764	7284.62
674.954	7417.74
675.145	7407.5
675.336	7323.54
675.527	7204.75
675.717	7143.31
675.908	7217.04
676.099	7169.94
676.289	7237.52
676.48	7100.31
676.671	7176.08
676.861	7110.55
677.052	7096.21
677.243	7030.68
677.433	6887.32
677.624	6938.52
677.814	7090.07
678.005	6928.28
678.195	6895.51
678.386	6803.35
678.576	6879.13
678.767	6815.64
678.957	6662.04
679.148	6885.27
679.338	6825.88
679.529	6793.11
679.719	6612.89
679.909	6776.73
680.1	6625.18
680.29	6696.86
680.481	6571.93
680.671	6555.55
680.861	6494.11
681.052	6672.28
681.242	6512.54
681.432	6522.78
681.622	6520.73
681.813	6545.31
682.003	6442.91
682.193	6367.13
682.383	6516.64
682.573	6367.13
682.764	6250.4
682.954	6506.4
683.144	6373.28
683.334	6277.02
683.524	6145.95
683.714	6358.94
683.904	6211.49
684.094	6320.03
684.284	6209.44
684.474	6315.94
684.664	6195.11
684.854	6193.06
685.044	6166.43
685.234	6086.56
685.424	6084.52
685.614	6004.64
685.804	6055.84
685.994	6061.99
686.184	5922.73
686.374	5896.1
686.564	5898.15
686.753	5965.73
686.943	5965.73
687.133	5877.67
687.323	5826.47
687.513	5709.74
687.702	5754.79
687.892	5646.25
688.082	5797.8
688.272	5636.01
688.461	5767.08
688.651	5904.29
688.841	5638.06
689.03	5615.53
689.22	5560.24
689.41	5562.28
689.599	5425.07
689.789	5564.33
689.979	5453.74
690.168	5482.41
690.358	5320.62
690.547	5466.03
690.737	5449.64
690.926	5429.17
691.116	5224.37
691.305	5400.49
691.495	5396.4
691.684	5228.46
691.874	5134.26
692.063	5207.98
692.252	5230.51
692.442	5203.89
692.631	5029.81
692.82	5132.21
693.01	5111.73
693.199	5048.24
693.388	4974.52
693.578	4835.25
693.767	5058.48
693.956	4839.35
694.146	4816.82
694.335	4810.68
694.524	4650.94
694.713	4771.77
694.902	4765.62
695.092	4831.16
695.281	4757.43
695.47	4685.75
695.659	4749.24
695.848	4741.05
696.037	4603.83
696.226	4792.25
696.415	4644.79
696.604	4704.18
696.793	4612.03
696.982	4485.05
697.171	4519.87
697.36	4444.09
697.549	4415.42
697.738	4472.76
697.927	4452.28
698.116	4286.4
698.305	4425.66
698.494	4315.07
698.683	4372.41
698.872	4417.47
699.061	4444.09
699.25	4415.42
699.438	4382.65
699.627	4315.07
699.816	4198.34
700.005	4384.7
700.193	4251.58
700.382	4292.54
700.571	4231.1
700.76	4224.96
700.948	4216.77
701.137	4071.36
701.326	4257.73
701.514	4329.41
701.703	4282.3
701.892	4104.13
702.08	4304.83
702.269	4181.95
702.457	4161.47
702.646	4175.81
702.834	3913.67
703.023	4140.99
703.212	4046.79
703.4	4077.51
703.589	4104.13
703.777	4132.8
703.965	3971.01
704.154	4046.79
704.342	4065.22
704.531	3991.49
704.719	3968.96
704.907	4081.6
705.096	4071.36
705.284	3852.23
705.472	3905.48
705.661	3981.25
705.849	3874.76
706.037	3864.52
706.226	3944.39
706.414	3784.65
706.602	3876.8
706.79	3885
706.979	3928
707.167	3907.52
707.355	3887.04
707.543	3983.3
707.731	3880.9
707.919	3866.56
708.107	3790.79
708.296	3839.94
708.484	3792.84
708.672	3815.37
708.86	3874.76
709.048	3817.41
709.236	3809.22
709.424	3952.58
709.612	3835.85
709.8	3766.21
709.988	3874.76
710.176	3823.56
710.364	3604.42
710.551	3829.7
710.739	3659.72
710.927	3805.13
711.115	3864.52
711.303	3770.31
711.491	3657.67
711.679	3702.73
711.866	3805.13
712.054	3684.3
712.242	3792.84
712.43	3815.37
712.617	3717.06
712.805	3647.43
712.993	3790.79
713.181	3690.44
713.368	3649.48
713.556	3661.77
713.744	3629
713.931	3694.54
714.119	3678.15
714.306	3569.61
714.494	3532.75
714.682	3643.34
714.869	3528.65
715.057	3583.95
715.244	3737.54
715.432	3596.23
715.619	3645.38
715.807	3680.2
715.994	3612.62
716.182	3786.69
716.369	3655.62
716.556	3735.49
716.744	3581.9
716.931	3547.08
717.119	3809.22
717.306	3614.66
717.493	3559.37
717.681	3475.4
717.868	3559.37
718.055	3620.81
718.242	3596.23
718.43	3618.76
718.617	3581.9
718.804	3575.75
718.991	3592.14
719.179	3631.05
719.366	3534.79
719.553	3594.19
719.74	3655.62
719.927	3573.71
720.114	3475.4
720.301	3547.08
720.488	3504.07
720.676	3436.49
720.863	3542.99
721.05	3708.87
721.237	3590.09
721.424	3585.99
721.611	3489.74
721.798	3553.23
721.985	3360.72
722.172	3663.82
722.358	3465.16
722.545	3454.92
722.732	3631.05
722.919	3583.95
723.106	3461.07
723.293	3532.75
723.48	3469.26
723.667	3626.95
723.853	3463.12
724.04	3551.18
724.227	3542.99
724.414	3522.51
724.6	3563.47
724.787	3577.8
724.974	3465.16
725.161	3514.31
725.347	3430.35
725.534	3608.52
725.72	3465.16
725.907	3657.67
726.094	3581.9
726.28	3514.31
726.467	3428.3
726.653	3491.79
726.84	3598.28
727.027	3616.71
727.213	3444.68
727.4	3569.61
727.586	3442.64
727.773	3528.65
727.959	3573.71
728.145	3633.1
728.332	3598.28
728.518	3493.83
728.705	3508.17
728.891	3536.84
729.077	3436.49
729.264	3651.53
729.45	3590.09
729.636	3626.95
729.823	3491.79
730.009	3643.34
730.195	3655.62
730.382	3604.42
730.568	3485.64
730.754	3655.62
730.94	3518.41
731.126	3704.78
731.313	3618.76
731.499	3653.58
731.685	3565.51
731.871	3708.87
732.057	3629
732.243	3571.66
732.429	3499.98
732.615	3844.04
732.801	3651.53
732.987	3700.68
733.173	3688.39
733.359	3667.91
733.545	3678.15
733.731	3639.24
733.917	3688.39
734.103	3665.86
734.289	3710.92
734.475	3686.34
734.661	3751.88
734.847	3684.3
735.033	3674.06
735.219	3737.54
735.404	3684.3
735.59	3667.91
735.776	3618.76
735.962	3692.49
736.148	3581.9
736.333	3928
736.519	3545.03
736.705	3633.1
736.89	3538.89
737.076	3753.93
737.262	3635.14
737.447	3604.42
737.633	3688.39
737.819	3708.87
738.004	3741.64
738.19	3626.95
738.375	3629
738.561	3608.52
738.747	3643.34
738.932	3653.58
739.118	3733.45
739.303	3596.23
739.489	3639.24
739.674	3717.06
739.859	3579.85
740.045	3659.72
740.23	3565.51
740.416	3672.01
740.601	3717.06
740.786	3663.82
740.972	3651.53
741.157	3717.06
741.342	3633.1
741.528	3626.95
741.713	3751.88
741.898	3727.3
742.084	3596.23
742.269	3573.71
742.454	3821.51
742.639	3618.76
742.824	3733.45
743.01	3678.15
743.195	3651.53
743.38	3530.7
743.565	3600.33
743.75	3624.9
743.935	3583.95
744.12	3624.9
744.305	3436.49
744.49	3493.83
744.675	3532.75
744.86	3426.25
745.045	3485.64
745.23	3407.82
745.415	3442.64
745.6	3438.54
745.785	3325.9
745.97	3504.07
746.155	3332.05
746.34	3585.99
746.525	3360.72
746.71	3606.47
746.895	3295.18
747.079	3393.48
747.264	3215.31
747.449	3340.24
747.634	3336.14
747.819	3346.38
748.003	3231.69
748.188	3321.81
748.373	3276.75
748.557	3373
748.742	3303.37
748.927	3258.32
749.111	3293.13
749.296	3166.16
749.481	3260.37
749.665	3057.62
749.85	3121.1
750.034	3217.36
750.219	3184.59
750.404	2992.08
750.588	3024.85
750.773	3049.43
750.957	3233.74
751.141	3153.87
751.326	3067.86
751.51	3004.37
751.695	2951.12
751.879	3024.85
752.064	2932.69
752.248	2963.41
752.432	3037.14
752.617	2865.11
752.801	3006.42
752.985	2836.44
753.17	2873.3
753.354	2869.2
753.538	2768.85
753.722	2783.19
753.907	2727.89
754.091	2725.85
754.275	2627.54
754.459	2740.18
754.643	2668.5
754.828	2668.5
755.012	2637.78
755.196	2613.21
755.38	2680.79
755.564	2580.44
755.748	2676.7
755.932	2656.22
756.116	2592.73
756.3	2643.93
756.484	2480.09
756.668	2506.71
756.852	2463.71
757.036	2641.88
757.22	2535.39
757.404	2379.74
757.588	2492.38
757.772	2480.09
757.956	2412.51
758.14	2488.28
758.323	2359.26
758.507	2291.68
758.691	2492.38
758.875	2310.11
759.059	2420.7
759.242	2398.17
759.426	2314.2
759.61	2451.42
759.794	2320.35
759.977	2320.35
760.161	2377.69
760.345	2373.6
760.528	2389.98
760.712	2211.81
760.895	2181.09
761.079	2277.34
761.263	2107.36
761.446	2224.09
761.63	2136.03
761.813	2254.81
761.997	2232.29
762.18	2111.46
762.364	2203.61
762.547	2133.98
762.731	2138.08
762.914	2090.98
763.098	1972.19
763.281	2125.79
763.464	2043.87
763.648	2004.96
763.831	2052.06
764.015	1992.67
764.198	2066.4
764.381	2009.06
764.564	2009.06
764.748	2029.54
764.931	2056.16
765.114	1890.28
765.297	1912.8
765.481	1949.67
765.664	1947.62
765.847	1992.67
766.03	1994.72
766.213	1806.31
766.397	2021.35
766.58	1959.91
766.763	1959.91
766.946	1920.99
767.129	1877.99
767.312	1959.91
767.495	1802.21
767.678	1822.69
767.861	1826.79
768.044	1802.21
768.227	1812.45
768.41	1851.36
768.593	1861.6
768.776	1857.51
768.959	1789.92
769.142	1787.88
769.324	1763.3
769.507	1871.84
769.69	1794.02
769.873	1708.01
770.056	1849.32
770.239	1763.3
770.421	1843.17
770.604	1783.78
770.787	1671.14
770.97	1904.61
771.152	1587.18
771.335	1763.3
771.518	1679.33
771.7	1775.59
771.883	1703.91
772.066	1673.19
772.248	1718.25
772.431	1642.47
772.613	1710.05
772.796	1566.7
772.978	1597.42
773.161	1605.61
773.343	1679.33
773.526	1658.85
773.708	1456.11
773.891	1513.45
774.073	1511.4
774.256	1511.4
774.438	1546.22
774.621	1523.69
774.803	1505.26
774.985	1468.39
775.168	1523.69
775.35	1474.54
775.532	1482.73
775.715	1540.07
775.897	1513.45
776.079	1456.11
776.261	1417.19
776.444	1445.87
776.626	1437.67
776.808	1404.91
776.99	1359.85
777.173	1398.76
777.355	1341.42
777.537	1402.86
777.719	1267.69
777.901	1226.73
778.083	1333.23
778.265	1333.23
778.447	1296.36
778.629	1277.93
778.811	1458.15
778.993	1269.74
779.175	1284.08
779.357	1279.98
779.539	1212.4
779.721	1224.69
779.903	1155.05
780.085	1316.84
780.267	1196.01
780.449	1236.97
780.631	1183.73
780.812	1126.38
780.994	1150.96
781.176	1142.77
781.358	1110
781.54	1089.52
781.721	1181.68
781.903	1177.58
782.085	997.36
782.267	1122.29
782.448	1126.38
782.63	1107.95
782.812	980.98
782.993	1048.56
783.175	1064.94
783.357	968.69
783.538	1032.18
783.72	1021.94
783.901	1013.74
784.083	1017.84
784.264	995.31
784.446	972.79
784.627	960.5
784.809	987.12
784.99	919.54
785.172	997.36
785.353	989.17
785.535	1007.6
785.716	876.53
785.897	925.68
786.079	937.97
786.26	991.22
786.441	903.15
786.623	890.87
786.804	839.67
786.985	808.95
787.167	767.99
787.348	755.7
787.529	860.15
787.71	843.76
787.891	745.46
788.073	790.52
788.254	749.56
788.435	880.63
788.616	854
788.797	757.75
788.978	888.82
789.159	706.55
789.34	755.7
789.522	755.7
789.703	733.17
789.884	784.37
790.065	763.89
790.246	833.52
790.427	722.93
790.607	749.56
790.788	753.65
790.969	653.3
791.15	704.5
791.331	702.45
791.512	690.17
791.693	645.11
791.874	700.41
792.054	751.6
792.235	641.01
792.416	643.06
792.597	579.58
792.778	677.88
792.958	643.06
793.139	727.03
793.32	645.11
793.5	618.49
793.681	688.12
793.862	671.73
794.042	684.02
794.223	602.1
794.404	614.39
794.584	604.15
794.765	632.82
794.945	606.2
795.126	622.58
795.306	606.2
795.487	671.73
795.667	511.99
795.848	555
796.028	563.19
796.209	575.48
796.389	573.43
796.57	573.43
796.75	518.14
796.93	530.42
797.111	569.34
797.291	505.85
797.471	528.38
797.652	493.56
797.832	557.05
798.012	475.13
798.192	503.8
798.373	514.04
798.553	548.86
798.733	548.86
798.913	450.55
799.093	509.94
799.274	544.76
799.454	546.81
799.634	536.57
799.814	542.71
799.994	505.85
800.174	507.9
800.354	479.22
800.534	374.78
800.714	466.94
800.894	456.7
801.074	399.35
801.254	466.94
801.434	546.81
801.614	450.55
801.794	466.94
801.974	1110
802.154	438.27
802.334	425.98
802.514	446.46
802.693	423.93
802.873	440.31
803.053	524.28
803.233	385.02
803.413	450.55
803.592	395.26
803.772	434.17
803.952	434.17
804.131	393.21
804.311	450.55
804.491	497.66
804.67	315.39
804.85	315.39
805.03	473.08
805.209	446.46
805.389	385.02
805.568	364.54
805.748	468.98
805.928	411.64
806.107	434.17
806.287	382.97
806.466	407.55
806.646	432.12
806.825	460.79
807.004	360.44
807.184	397.31
807.363	350.2
807.543	456.7
807.722	444.41
807.901	397.31
808.081	382.97
808.26	323.58
808.439	370.68
808.619	419.83
808.798	438.27
808.977	366.59
809.156	395.26
809.336	368.63
809.515	368.63
809.694	280.57
809.873	339.96
810.052	282.62
810.231	423.93
810.411	311.29
810.59	350.2
810.769	309.24
810.948	348.15
811.127	315.39
811.306	303.1
811.485	339.96
811.664	382.97
811.843	342.01
812.022	303.1
812.201	284.67
812.38	313.34
812.559	370.68
812.737	354.3
812.916	270.33
813.095	251.9
813.274	327.67
813.453	292.86
813.632	284.67
813.811	256
813.989	292.86
814.168	327.67
814.347	303.1
814.526	333.82
814.704	311.29
814.883	366.59
815.062	313.34
815.24	274.43
815.419	282.62
815.598	276.48
815.776	221.18
815.955	331.77
816.133	266.24
816.312	370.68
816.49	231.42
816.669	233.47
816.847	284.67
817.026	268.28
817.204	186.37
817.383	223.23
817.561	276.48
817.74	260.09
817.918	278.52
818.097	247.8
818.275	212.99
818.453	251.9
818.632	266.24
818.81	286.72
818.988	247.8
819.167	212.99
819.345	299
819.523	215.04
819.701	307.2
819.879	180.22
820.058	251.9
820.236	239.61
820.414	266.24
820.592	237.56
820.77	243.71
820.948	286.72
821.127	241.66
821.305	239.61
821.483	190.46
821.661	278.52
821.839	196.6
822.017	264.19
822.195	184.32
822.373	239.61
822.551	180.22
822.729	274.43
822.907	262.14
823.085	237.56
823.262	266.24
823.44	268.28
823.618	137.21
823.796	237.56
823.974	256
824.152	307.2
824.329	280.57
824.507	180.22
824.685	229.37
824.863	172.03
825.04	212.99
825.218	239.61
825.396	229.37
825.574	208.89
825.751	194.56
825.929	206.84
826.107	165.89
826.284	245.76
826.462	192.51
826.639	243.71
826.817	200.7
826.994	159.74
827.172	151.55
827.349	196.6
827.527	223.23
827.704	237.56
827.882	223.23
828.059	235.52
828.237	159.74
828.414	210.94
828.591	141.31
828.769	192.51
828.946	131.07
829.124	198.65
829.301	174.08
829.478	131.07
829.655	186.37
829.833	139.26
830.01	151.55
830.187	198.65
830.364	165.89
830.542	133.12
830.719	172.03
830.896	163.84
831.073	159.74
831.25	155.65
831.427	104.45
831.604	178.17
831.782	104.45
831.959	137.21
832.136	157.69
832.313	159.74
832.49	51.2
832.667	110.59
832.844	231.42
833.021	167.93
833.198	90.11
833.374	172.03
833.551	235.52
833.728	194.56
833.905	141.31
834.082	51.2
834.259	186.37
834.436	135.17
834.612	116.73
834.789	114.69
834.966	100.35
835.143	204.8
835.319	145.41
835.496	151.55
835.673	116.73
835.85	196.6
836.026	237.56
836.203	178.17
836.38	204.8
836.556	120.83
836.733	126.97
836.909	221.18
837.086	94.21
837.262	98.3
837.439	57.34
837.616	98.3
837.792	94.21
837.968	180.22
838.145	149.5
838.321	196.6
838.498	135.17
838.674	188.41
838.851	180.22
839.027	92.16
839.203	120.83
839.38	169.98
839.556	90.11
839.732	124.93
839.909	131.07
840.085	165.89
840.261	45.06
840.437	100.35
840.614	139.26
840.79	98.3
840.966	137.21
841.142	143.36
841.318	165.89
841.494	174.08
841.671	114.69
841.847	51.2
842.023	100.35
842.199	155.65
842.375	86.01
842.551	77.82
842.727	81.92
842.903	77.82
843.079	30.72
843.255	108.54
843.431	71.68
843.607	131.07
843.783	59.39
843.959	81.92
844.134	118.78
844.31	169.98
844.486	145.41
844.662	55.3
844.838	59.39
845.013	63.49
845.189	192.51
845.365	26.62
845.541	88.06
845.716	161.79
845.892	122.88
846.068	86.01
846.244	90.11
846.419	75.77
846.595	147.45
846.77	-2.05
846.946	79.87
847.122	141.31
847.297	131.07
847.473	143.36
847.648	-0
847.824	38.91
847.999	43.01
848.175	96.25
848.35	57.34
848.526	137.21
848.701	114.69
848.876	38.91
849.052	100.35
849.227	102.4
849.403	79.87
849.578	106.49
849.753	161.79
849.929	139.26
850.104	32.77
850.279	163.84
850.454	161.79
850.63	112.64
850.805	49.15
850.98	73.73
851.155	65.53
851.33	114.69
851.505	106.49
851.681	122.88
851.856	49.15
852.031	75.77
852.206	118.78
852.381	18.43
852.556	71.68
852.731	100.35
852.906	40.96
853.081	106.49
853.256	129.02
853.431	79.87
853.606	30.72
853.781	-4.1
853.956	16.38
854.131	90.11
854.305	14.34
854.48	61.44
854.655	65.53
854.83	67.58
855.005	81.92
855.18	92.16
855.354	40.96
855.529	100.35
855.704	16.38
855.879	32.77
856.053	83.97
856.228	100.35
856.403	51.2
856.577	133.12
856.752	49.15
856.926	32.77
857.101	77.82
857.276	34.82
857.45	77.82
857.625	108.54
857.799	18.43
857.974	77.82
858.148	55.3
858.323	65.53
858.497	-20.48
858.672	71.68
858.846	59.39
859.02	104.45
859.195	34.82
859.369	71.68
859.543	57.34
859.718	26.62
859.892	61.44
860.066	69.63
860.241	18.43
860.415	112.64
860.589	55.3
860.763	49.15
860.938	47.1
861.112	49.15
861.286	114.69
861.46	92.16
861.634	2.05
861.808	38.91
861.982	96.25
862.157	14.34
862.331	67.58
862.505	12.29
862.679	79.87
862.853	81.92
863.027	92.16
863.201	67.58
863.375	-18.43
863.549	63.49
863.722	32.77
863.896	18.43
864.07	55.3
864.244	49.15
864.418	71.68
864.592	110.59
864.766	28.67
864.939	22.53
865.113	-12.29
865.287	75.77
865.461	-28.67
865.634	26.62
865.808	53.25
865.982	79.87
866.156	-0
866.329	-16.38
866.503	20.48
866.676	135.17
866.85	53.25
867.024	53.25
867.197	86.01
867.371	53.25
867.544	30.72
867.718	14.34
867.891	55.3
868.065	65.53
868.238	-16.38
868.412	73.73
868.585	69.63
868.759	-30.72
868.932	75.77
869.105	-6.14
869.279	-12.29
869.452	32.77
869.625	98.3
869.799	73.73
869.972	-22.53
870.145	47.1
870.319	14.34
870.492	34.82
870.665	-8.19
870.838	34.82
871.011	-47.1
871.185	30.72
871.358	63.49
871.531	86.01
871.704	53.25
871.877	2.05
872.05	24.58
872.223	59.39
872.396	43.01
872.569	47.1
872.742	59.39
872.915	47.1
873.088	55.3
873.261	65.53
873.434	12.29
873.607	75.77
873.78	81.92
873.953	30.72
874.126	24.58
874.299	49.15
874.471	38.91
874.644	4.1
874.817	69.63
874.99	51.2
875.163	4.1
875.335	98.3
875.508	49.15
875.681	-24.58
875.853	40.96
876.026	16.38
876.199	65.53
876.371	30.72
876.544	4.1
876.717	16.38
876.889	4.1
877.062	32.77
877.234	4.1
877.407	40.96
877.579	34.82
877.752	65.53
877.924	63.49
878.097	-4.1
878.269	-28.67
878.442	77.82
878.614	40.96
878.786	77.82
878.959	-8.19
879.131	61.44
879.303	28.67
879.476	49.15
879.648	20.48
879.82	22.53
879.993	-12.29
880.165	22.53
880.337	-28.67
880.509	86.01
880.681	22.53
880.854	-32.77
881.026	10.24
881.198	81.92
881.37	32.77
881.542	34.82
881.714	69.63
881.886	-6.14
882.058	-32.77
882.23	-26.62
882.402	-18.43
882.574	96.25
882.746	96.25
882.918	55.3
883.09	32.77
883.262	-10.24
883.434	10.24
883.606	-28.67
883.778	-67.58
883.95	83.97
884.122	43.01
884.293	67.58
884.465	69.63
884.637	36.86
884.809	45.06
884.98	110.59
885.152	18.43
885.324	28.67
885.496	-2.05
885.667	-75.77
885.839	-22.53
886.011	75.77
886.182	75.77
886.354	65.53
886.525	10.24
886.697	57.34
886.869	-8.19
887.04	8.19
887.212	71.68
887.383	112.64
887.555	59.39
887.726	-38.91
887.897	40.96
888.069	-12.29
888.24	40.96
888.412	36.86
888.583	59.39
888.754	26.62
888.926	28.67
889.097	14.34
889.268	-32.77
889.44	43.01
889.611	-65.54
889.782	-38.91
889.953	32.77
890.125	4.1
890.296	6.14
890.467	-34.82
890.638	-32.77
890.809	-0
890.98	38.91
891.151	96.25
891.323	32.77
891.494	30.72
891.665	34.82
891.836	4.1
892.007	16.38
892.178	-12.29
892.349	24.58
892.52	-59.39
892.691	20.48
892.862	57.34
893.032	-45.06
893.203	-12.29
893.374	-8.19
893.545	57.34
893.716	-28.67
893.887	-2.05
894.057	26.62
894.228	32.77
894.399	-26.62
894.57	34.82
894.74	6.14
894.911	51.2
895.082	26.62
895.253	43.01
895.423	79.87
895.594	59.39
895.764	47.1
895.935	-8.19
896.106	51.2
896.276	-0
896.447	4.1
896.617	51.2
896.788	-38.91
896.958	-51.2
897.129	34.82
897.299	22.53
897.47	16.38
897.64	45.06
897.81	20.48
897.981	-24.58
898.151	49.15
898.322	18.43
898.492	36.86
898.662	4.1
898.832	-4.1
899.003	28.67
899.173	53.25
899.343	8.19
899.513	55.3
