Data from USB4F104151__79__12-42-25-487.txt Node

Date: Fri Mar 14 12:42:25 EDT 2025
User: louis
Spectrometer: USB4F10415
Trigger mode: 4
Integration Time (sec): 3.000000E-2
Scans to average: 1
Electric dark correction enabled: true
Nonlinearity correction enabled: false
Boxcar width: 0
XAxis mode: Wavelengths
Number of Pixels in Spectrum: 3648
>>>>>Begin Spectral Data<<<<<
178.204	-171.86
178.424	-171.86
178.644	-171.86
178.864	-85.84
179.084	-137.04
179.304	49.32
179.524	-3.93
179.744	-36.69
179.964	43.18
180.184	-38.74
180.404	0.17
180.624	37.03
180.844	22.7
181.064	-14.17
181.283	-30.55
181.503	-24.4
181.723	-3.93
181.943	-71.51
182.163	63.66
182.383	43.18
182.602	-12.12
182.822	41.13
183.042	8.36
183.262	12.46
183.482	-20.31
183.701	80.04
183.921	127.14
184.141	32.94
184.361	34.99
184.58	10.41
184.8	12.46
185.02	-48.98
185.239	4.27
185.459	-12.12
185.679	18.6
185.898	37.03
186.118	37.03
186.338	96.43
186.557	43.18
186.777	24.75
186.997	39.08
187.216	28.84
187.436	129.19
187.655	18.6
187.875	77.99
188.095	34.99
188.314	59.56
188.534	71.85
188.753	-12.12
188.973	32.94
189.192	71.85
189.412	80.04
189.631	75.95
189.851	-30.55
190.07	102.57
190.29	10.41
190.509	18.6
190.729	18.6
190.948	-3.93
191.168	168.1
191.387	131.24
191.607	37.03
191.826	18.6
192.045	34.99
192.265	43.18
192.484	-24.4
192.704	96.43
192.923	22.7
193.142	166.06
193.362	80.04
193.581	63.66
193.8	47.27
194.02	55.47
194.239	55.47
194.458	106.67
194.678	90.28
194.897	84.14
195.116	61.61
195.335	24.75
195.555	24.75
195.774	24.75
195.993	18.6
196.212	32.94
196.432	-10.07
196.651	-38.74
196.87	-8.02
197.089	69.8
197.308	12.46
197.528	22.7
197.747	-24.4
197.966	80.04
198.185	12.46
198.404	20.65
198.623	53.42
198.842	104.62
199.062	26.79
199.281	112.81
199.5	39.08
199.719	45.23
199.938	18.6
200.157	49.32
200.376	77.99
200.595	73.9
200.814	47.27
201.033	-22.36
201.252	22.7
201.471	-8.02
201.69	84.14
201.909	8.36
202.128	2.22
202.347	49.32
202.566	-14.17
202.785	41.13
203.004	22.7
203.223	84.14
203.442	34.99
203.661	2.22
203.879	-20.31
204.098	57.51
204.317	-38.74
204.536	28.84
204.755	34.99
204.974	28.84
205.193	80.04
205.411	51.37
205.63	75.95
205.849	4.27
206.068	49.32
206.287	24.75
206.505	57.51
206.724	59.56
206.943	6.31
207.162	90.28
207.381	104.62
207.599	-34.64
207.818	92.33
208.037	4.27
208.255	51.37
208.474	32.94
208.693	30.89
208.911	80.04
209.13	69.8
209.349	75.95
209.567	69.8
209.786	73.9
210.005	102.57
210.223	10.41
210.442	51.37
210.661	49.32
210.879	-12.12
211.098	47.27
211.316	28.84
211.535	75.95
211.753	-61.27
211.972	69.8
212.191	-20.31
212.409	41.13
212.628	96.43
212.846	18.6
213.065	22.7
213.283	108.71
213.502	24.75
213.72	4.27
213.938	-42.84
214.157	-40.79
214.375	43.18
214.594	82.09
214.812	145.58
215.031	41.13
215.249	28.84
215.467	16.55
215.686	96.43
215.904	92.33
216.122	84.14
216.341	57.51
216.559	118.95
216.778	49.32
216.996	84.14
217.214	22.7
217.432	10.41
217.651	63.66
217.869	26.79
218.087	45.23
218.306	61.61
218.524	86.19
218.742	75.95
218.96	94.38
219.179	47.27
219.397	47.27
219.615	53.42
219.833	51.37
220.051	-22.36
220.27	4.27
220.488	18.6
220.706	-18.26
220.924	80.04
221.142	-14.17
221.36	57.51
221.578	84.14
221.796	22.7
222.015	59.56
222.233	2.22
222.451	41.13
222.669	92.33
222.887	32.94
223.105	34.99
223.323	8.36
223.541	-8.02
223.759	94.38
223.977	32.94
224.195	28.84
224.413	-1.88
224.631	73.9
224.849	20.65
225.067	26.79
225.285	16.55
225.503	34.99
225.721	59.56
225.939	69.8
226.157	131.24
226.375	164.01
226.592	-1.88
226.81	77.99
227.028	100.52
227.246	133.29
227.464	51.37
227.682	59.56
227.9	-22.36
228.117	61.61
228.335	125.1
228.553	-26.45
228.771	67.75
228.989	30.89
229.206	-14.17
229.424	14.51
229.642	18.6
229.86	30.89
230.077	14.51
230.295	34.99
230.513	121
230.731	100.52
230.948	53.42
231.166	73.9
231.384	-14.17
231.601	18.6
231.819	51.37
232.037	-38.74
232.254	37.03
232.472	98.47
232.689	8.36
232.907	30.89
233.125	110.76
233.342	59.56
233.56	26.79
233.777	34.99
233.995	45.23
234.213	26.79
234.43	-24.4
234.648	47.27
234.865	73.9
235.083	94.38
235.3	51.37
235.518	63.66
235.735	65.71
235.953	34.99
236.17	41.13
236.388	39.08
236.605	51.37
236.822	16.55
237.04	51.37
237.257	75.95
237.475	-14.17
237.692	22.7
237.909	22.7
238.127	-20.31
238.344	53.42
238.562	14.51
238.779	18.6
238.996	-20.31
239.214	45.23
239.431	71.85
239.648	88.23
239.865	4.27
240.083	32.94
240.3	47.27
240.517	90.28
240.735	90.28
240.952	65.71
241.169	53.42
241.386	20.65
241.603	28.84
241.821	49.32
242.038	110.76
242.255	55.47
242.472	37.03
242.689	32.94
242.907	71.85
243.124	82.09
243.341	28.84
243.558	8.36
243.775	55.47
243.992	6.31
244.209	55.47
244.426	80.04
244.643	51.37
244.86	37.03
245.078	-36.69
245.295	102.57
245.512	4.27
245.729	2.22
245.946	41.13
246.163	100.52
246.38	75.95
246.597	86.19
246.814	61.61
247.031	22.7
247.248	30.89
247.464	6.31
247.681	59.56
247.898	39.08
248.115	114.86
248.332	-53.08
248.549	98.47
248.766	112.81
248.983	59.56
249.2	129.19
249.417	84.14
249.633	-16.21
249.85	53.42
250.067	28.84
250.284	51.37
250.501	37.03
250.717	10.41
250.934	34.99
251.151	26.79
251.368	65.71
251.585	92.33
251.801	63.66
252.018	20.65
252.235	51.37
252.451	-40.79
252.668	0.17
252.885	-10.07
253.102	43.18
253.318	4.27
253.535	45.23
253.752	57.51
253.968	49.32
254.185	24.75
254.401	45.23
254.618	102.57
254.835	14.51
255.051	67.75
255.268	-5.97
255.484	-3.93
255.701	-55.12
255.917	34.99
256.134	12.46
256.351	57.51
256.567	-8.02
256.784	41.13
257	75.95
257.217	96.43
257.433	30.89
257.65	92.33
257.866	53.42
258.082	63.66
258.299	4.27
258.515	-10.07
258.732	-5.97
258.948	4.27
259.165	26.79
259.381	-26.45
259.597	63.66
259.814	39.08
260.03	-10.07
260.246	-34.64
260.463	61.61
260.679	26.79
260.895	20.65
261.112	30.89
261.328	10.41
261.544	-16.21
261.761	80.04
261.977	43.18
262.193	80.04
262.409	57.51
262.626	41.13
262.842	104.62
263.058	-22.36
263.274	20.65
263.49	22.7
263.707	45.23
263.923	86.19
264.139	-16.21
264.355	67.75
264.571	125.1
264.787	0.17
265.004	47.27
265.22	26.79
265.436	43.18
265.652	69.8
265.868	-1.88
266.084	41.13
266.3	26.79
266.516	28.84
266.732	18.6
266.948	37.03
267.164	-34.64
267.38	24.75
267.596	30.89
267.812	41.13
268.028	-8.02
268.244	-46.93
268.46	-3.93
268.676	65.71
268.892	41.13
269.108	24.75
269.324	8.36
269.54	49.32
269.756	57.51
269.972	-10.07
270.188	47.27
270.403	26.79
270.619	-38.74
270.835	24.75
271.051	69.8
271.267	-16.21
271.483	24.75
271.698	53.42
271.914	69.8
272.13	-51.03
272.346	12.46
272.562	8.36
272.777	84.14
272.993	-34.64
273.209	22.7
273.425	55.47
273.64	34.99
273.856	143.53
274.072	73.9
274.287	8.36
274.503	47.27
274.719	104.62
274.934	14.51
275.15	20.65
275.366	84.14
275.581	43.18
275.797	39.08
276.012	100.52
276.228	20.65
276.444	51.37
276.659	24.75
276.875	0.17
277.09	59.56
277.306	-46.93
277.521	45.23
277.737	-10.07
277.952	77.99
278.168	47.27
278.383	24.75
278.599	86.19
278.814	49.32
279.03	-18.26
279.245	49.32
279.461	34.99
279.676	116.9
279.892	24.75
280.107	24.75
280.322	6.31
280.538	28.84
280.753	22.7
280.969	102.57
281.184	47.27
281.399	157.86
281.615	2.22
281.83	6.31
282.045	-12.12
282.26	20.65
282.476	26.79
282.691	73.9
282.906	-3.93
283.122	104.62
283.337	34.99
283.552	125.1
283.767	4.27
283.983	-18.26
284.198	47.27
284.413	75.95
284.628	28.84
284.843	90.28
285.058	86.19
285.274	24.75
285.489	37.03
285.704	145.58
285.919	41.13
286.134	22.7
286.349	34.99
286.564	-10.07
286.779	53.42
286.995	-1.88
287.21	-51.03
287.425	92.33
287.64	34.99
287.855	53.42
288.07	-12.12
288.285	30.89
288.5	18.6
288.715	37.03
288.93	28.84
289.145	-63.32
289.36	112.81
289.575	53.42
289.79	53.42
290.004	28.84
290.219	112.81
290.434	-10.07
290.649	16.55
290.864	100.52
291.079	61.61
291.294	32.94
291.509	-18.26
291.724	77.99
291.938	43.18
292.153	41.13
292.368	16.55
292.583	82.09
292.798	96.43
293.012	133.29
293.227	-14.17
293.442	26.79
293.657	0.17
293.871	94.38
294.086	-16.21
294.301	108.71
294.516	69.8
294.73	86.19
294.945	2.22
295.16	-1.88
295.374	51.37
295.589	41.13
295.804	34.99
296.018	30.89
296.233	82.09
296.447	57.51
296.662	16.55
296.877	41.13
297.091	125.1
297.306	34.99
297.52	75.95
297.735	51.37
297.949	-42.84
298.164	63.66
298.378	80.04
298.593	43.18
298.807	34.99
299.022	28.84
299.236	65.71
299.451	41.13
299.665	-3.93
299.88	26.79
300.094	71.85
300.309	92.33
300.523	114.86
300.737	6.31
300.952	10.41
301.166	18.6
301.381	37.03
301.595	32.94
301.809	45.23
302.024	69.8
302.238	-42.84
302.452	55.47
302.667	16.55
302.881	94.38
303.095	12.46
303.309	34.99
303.524	73.9
303.738	-3.93
303.952	37.03
304.166	80.04
304.381	2.22
304.595	57.51
304.809	39.08
305.023	45.23
305.237	14.51
305.452	8.36
305.666	16.55
305.88	53.42
306.094	106.67
306.308	20.65
306.522	90.28
306.736	114.86
306.95	61.61
307.164	80.04
307.379	45.23
307.593	121
307.807	34.99
308.021	108.71
308.235	112.81
308.449	-1.88
308.663	-5.97
308.877	49.32
309.091	4.27
309.305	86.19
309.519	47.27
309.733	108.71
309.947	-12.12
310.161	75.95
310.374	80.04
310.588	149.67
310.802	41.13
311.016	53.42
311.23	16.55
311.444	32.94
311.658	53.42
311.872	43.18
312.085	77.99
312.299	28.84
312.513	26.79
312.727	80.04
312.941	-20.31
313.154	73.9
313.368	125.1
313.582	96.43
313.796	59.56
314.009	45.23
314.223	92.33
314.437	34.99
314.651	16.55
314.864	69.8
315.078	30.89
315.292	16.55
315.505	94.38
315.719	90.28
315.933	39.08
316.146	-1.88
316.36	26.79
316.573	77.99
316.787	55.47
317.001	135.34
317.214	59.56
317.428	65.71
317.641	-34.64
317.855	8.36
318.068	37.03
318.282	116.9
318.495	28.84
318.709	57.51
318.922	28.84
319.136	65.71
319.349	37.03
319.563	86.19
319.776	106.67
319.99	2.22
320.203	88.23
320.417	55.47
320.63	41.13
320.843	75.95
321.057	112.81
321.27	77.99
321.483	6.31
321.697	98.47
321.91	-3.93
322.124	88.23
322.337	86.19
322.55	-38.74
322.763	41.13
322.977	10.41
323.19	43.18
323.403	108.71
323.617	47.27
323.83	73.9
324.043	4.27
324.256	53.42
324.469	-63.32
324.683	51.37
324.896	24.75
325.109	53.42
325.322	77.99
325.535	49.32
325.748	57.51
325.962	51.37
326.175	77.99
326.388	116.9
326.601	39.08
326.814	86.19
327.027	84.14
327.24	84.14
327.453	12.46
327.666	57.51
327.879	32.94
328.092	82.09
328.305	37.03
328.518	-20.31
328.731	10.41
328.944	2.22
329.157	57.51
329.37	61.61
329.583	30.89
329.796	116.9
330.009	69.8
330.222	20.65
330.435	37.03
330.648	71.85
330.861	92.33
331.073	43.18
331.286	143.53
331.499	86.19
331.712	32.94
331.925	-8.02
332.138	84.14
332.35	73.9
332.563	71.85
332.776	86.19
332.989	47.27
333.202	28.84
333.414	49.32
333.627	22.7
333.84	41.13
334.053	106.67
334.265	73.9
334.478	102.57
334.691	84.14
334.903	30.89
335.116	75.95
335.329	80.04
335.541	100.52
335.754	112.81
335.966	32.94
336.179	57.51
336.392	61.61
336.604	49.32
336.817	39.08
337.029	45.23
337.242	10.41
337.454	73.9
337.667	61.61
337.88	82.09
338.092	28.84
338.305	65.71
338.517	-12.12
338.729	164.01
338.942	59.56
339.154	45.23
339.367	14.51
339.579	34.99
339.792	24.75
340.004	51.37
340.217	59.56
340.429	-1.88
340.641	37.03
340.854	45.23
341.066	18.6
341.278	82.09
341.491	98.47
341.703	75.95
341.915	-5.97
342.128	41.13
342.34	51.37
342.552	-22.36
342.764	65.71
342.977	82.09
343.189	37.03
343.401	141.48
343.613	32.94
343.826	104.62
344.038	16.55
344.25	80.04
344.462	43.18
344.674	71.85
344.886	55.47
345.099	61.61
345.311	14.51
345.523	34.99
345.735	2.22
345.947	-10.07
346.159	51.37
346.371	-40.79
346.583	-40.79
346.795	43.18
347.007	61.61
347.219	43.18
347.431	26.79
347.643	139.43
347.855	32.94
348.067	98.47
348.279	34.99
348.491	51.37
348.703	67.75
348.915	125.1
349.127	-28.5
349.339	98.47
349.551	32.94
349.763	96.43
349.975	77.99
350.187	84.14
350.399	92.33
350.61	51.37
350.822	49.32
351.034	45.23
351.246	41.13
351.458	137.38
351.669	61.61
351.881	55.47
352.093	116.9
352.305	86.19
352.517	55.47
352.728	94.38
352.94	108.71
353.152	32.94
353.363	8.36
353.575	84.14
353.787	90.28
353.999	182.44
354.21	135.34
354.422	69.8
354.633	26.79
354.845	92.33
355.057	43.18
355.268	88.23
355.48	94.38
355.692	30.89
355.903	-14.17
356.115	63.66
356.326	-5.97
356.538	84.14
356.749	53.42
356.961	65.71
357.172	65.71
357.384	45.23
357.595	98.47
357.807	75.95
358.018	8.36
358.23	102.57
358.441	61.61
358.653	73.9
358.864	61.61
359.075	84.14
359.287	37.03
359.498	131.24
359.709	65.71
359.921	67.75
360.132	77.99
360.344	100.52
360.555	32.94
360.766	28.84
360.977	98.47
361.189	80.04
361.4	22.7
361.611	45.23
361.823	75.95
362.034	45.23
362.245	57.51
362.456	6.31
362.667	63.66
362.879	59.56
363.09	37.03
363.301	86.19
363.512	143.53
363.723	0.17
363.935	-42.84
364.146	100.52
364.357	82.09
364.568	121
364.779	16.55
364.99	34.99
365.201	47.27
365.412	112.81
365.623	20.65
365.834	75.95
366.045	28.84
366.256	96.43
366.467	86.19
366.678	41.13
366.889	43.18
367.1	0.17
367.311	90.28
367.522	94.38
367.733	53.42
367.944	39.08
368.155	0.17
368.366	86.19
368.577	141.48
368.788	102.57
368.999	98.47
369.209	65.71
369.42	108.71
369.631	141.48
369.842	123.05
370.053	73.9
370.264	71.85
370.474	63.66
370.685	22.7
370.896	24.75
371.107	80.04
371.317	47.27
371.528	2.22
371.739	131.24
371.95	39.08
372.16	112.81
372.371	69.8
372.582	14.51
372.792	32.94
373.003	71.85
373.214	34.99
373.424	84.14
373.635	24.75
373.846	82.09
374.056	108.71
374.267	131.24
374.477	88.23
374.688	123.05
374.898	16.55
375.109	98.47
375.319	43.18
375.53	133.29
375.74	51.37
375.951	18.6
376.161	127.14
376.372	133.29
376.582	82.09
376.793	-3.93
377.003	82.09
377.214	63.66
377.424	75.95
377.635	133.29
377.845	28.84
378.055	71.85
378.266	59.56
378.476	118.95
378.686	100.52
378.897	57.51
379.107	145.58
379.317	28.84
379.528	59.56
379.738	82.09
379.948	-30.55
380.158	16.55
380.369	49.32
380.579	84.14
380.789	26.79
380.999	32.94
381.21	133.29
381.42	151.72
381.63	32.94
381.84	112.81
382.05	131.24
382.261	125.1
382.471	98.47
382.681	118.95
382.891	110.76
383.101	69.8
383.311	65.71
383.521	32.94
383.731	71.85
383.941	108.71
384.151	49.32
384.361	127.14
384.571	34.99
384.781	143.53
384.991	116.9
385.201	59.56
385.411	71.85
385.621	104.62
385.831	84.14
386.041	67.75
386.251	16.55
386.461	65.71
386.671	47.27
386.881	61.61
387.091	98.47
387.301	143.53
387.511	88.23
387.72	67.75
387.93	73.9
388.14	39.08
388.35	106.67
388.56	65.71
388.769	118.95
388.979	37.03
389.189	49.32
389.399	77.99
389.609	80.04
389.818	61.61
390.028	16.55
390.238	69.8
390.447	90.28
390.657	116.9
390.867	112.81
391.076	118.95
391.286	133.29
391.496	116.9
391.705	174.25
391.915	96.43
392.125	178.34
392.334	131.24
392.544	73.9
392.753	57.51
392.963	65.71
393.172	204.97
393.382	104.62
393.591	116.9
393.801	88.23
394.01	182.44
394.22	121
394.429	129.19
394.639	129.19
394.848	159.91
395.058	110.76
395.267	135.34
395.477	190.63
395.686	114.86
395.895	192.68
396.105	161.96
396.314	143.53
396.524	92.33
396.733	57.51
396.942	121
397.152	170.15
397.361	92.33
397.57	176.3
397.78	143.53
397.989	141.48
398.198	166.06
398.407	114.86
398.617	166.06
398.826	118.95
399.035	131.24
399.244	147.62
399.453	108.71
399.663	166.06
399.872	204.97
400.081	164.01
400.29	164.01
400.499	110.76
400.708	110.76
400.917	114.86
401.127	153.77
401.336	98.47
401.545	182.44
401.754	194.73
401.963	225.45
402.172	69.8
402.381	141.48
402.59	125.1
402.799	176.3
403.008	219.3
403.217	145.58
403.426	176.3
403.635	151.72
403.844	213.16
404.053	217.26
404.262	196.78
404.471	272.55
404.68	280.74
404.888	198.82
405.097	247.97
405.306	194.73
405.515	223.4
405.724	237.74
405.933	280.74
406.142	202.92
406.35	247.97
406.559	270.5
406.768	262.31
406.977	317.61
407.185	243.88
407.394	211.11
407.603	288.93
407.812	338.09
408.02	301.22
408.229	303.27
408.438	331.94
408.646	305.32
408.855	352.42
409.064	401.57
409.272	401.57
409.481	401.57
409.69	397.48
409.898	440.48
410.107	352.42
410.315	444.58
410.524	454.82
410.733	506.02
410.941	458.92
411.15	501.92
411.358	477.35
411.567	563.36
411.775	532.64
411.984	602.27
412.192	589.99
412.401	598.18
412.609	653.47
412.818	696.48
413.026	755.87
413.234	544.93
413.443	614.56
413.651	825.5
413.86	743.58
414.068	862.37
414.276	880.8
414.485	858.27
414.693	868.51
414.901	950.43
415.11	985.24
415.318	989.34
415.526	1030.3
415.734	1085.59
415.943	1032.35
416.151	1194.14
416.359	1128.6
416.567	1175.7
416.776	1259.67
416.984	1378.45
417.192	1376.41
417.4	1353.88
417.608	1312.92
417.817	1540.24
418.025	1616.02
418.233	1650.83
418.441	1538.2
418.649	1683.6
418.857	1783.95
419.065	1740.94
419.273	1722.51
419.481	1958.03
419.689	1927.31
419.897	2085
420.105	2113.67
420.313	2207.88
420.521	2367.62
420.729	2377.86
420.937	2343.05
421.145	2467.97
421.353	2494.6
421.561	2732.16
421.769	2752.64
421.977	2756.74
422.185	2838.66
422.393	2818.18
422.601	3156.09
422.809	3186.81
423.017	3184.76
423.224	3225.72
423.432	3440.76
423.64	3463.29
423.848	3694.71
424.056	3756.15
424.263	3973.23
424.471	4040.81
424.679	4143.21
424.887	4218.99
425.094	4438.12
425.302	4284.52
425.51	4667.49
425.718	4587.62
425.925	4694.12
426.133	4946.02
426.341	5259.35
426.548	5253.21
426.756	5460.06
426.964	5517.4
427.171	5802.07
427.379	5906.51
427.586	6082.64
427.794	6271.05
428.001	6611.01
428.209	6821.95
428.417	6654.02
428.624	7270.46
428.832	7348.28
429.039	7010.37
429.247	7159.87
429.454	7972.91
429.662	8452.14
429.869	7749.68
430.076	8491.05
430.284	8007.73
430.491	8656.93
430.699	9170.97
430.906	9082.91
431.114	9089.06
431.321	9601.05
431.528	9744.41
431.736	10092.56
431.943	10774.53
432.15	10502.15
432.358	10514.44
432.565	11102.21
432.772	10962.95
432.979	11730.94
433.187	12085.23
433.394	11984.88
433.601	12720.1
433.808	12537.84
434.016	12910.57
434.223	13377.5
434.43	13952.98
434.637	13717.47
434.844	14477.26
435.052	14948.29
435.259	14976.97
435.466	15271.87
435.673	14727.11
435.88	15683.52
436.087	16402.35
436.294	16811.95
436.501	16324.53
436.708	16498.61
436.915	17438.62
437.122	17784.73
437.329	17883.03
437.537	18472.85
437.743	18605.97
437.95	18497.42
438.157	19951.48
438.364	20293.49
438.571	20490.1
438.778	20201.33
438.985	22009.69
439.192	21358.44
439.399	21915.48
439.606	21393.25
439.813	22951.76
440.02	24145.72
440.227	23803.71
440.433	23488.32
440.64	24553.27
440.847	24342.33
441.054	24880.94
441.261	26228.51
441.467	26251.03
441.674	26328.86
441.881	27318.03
442.088	27406.09
442.294	27389.7
442.501	28083.97
442.708	28643.06
442.914	29683.43
443.121	30842.58
443.328	29957.86
443.534	32261.82
443.741	31348.43
443.948	31033.04
444.154	32847.54
444.361	32855.73
444.568	33351.34
444.774	32822.97
444.981	33687.21
445.187	34502.3
445.394	36048.52
445.6	35198.61
445.807	38870.62
446.013	37138.04
446.22	37959.27
446.426	39532.11
446.633	39450.19
446.839	40951.35
447.046	39128.66
447.252	41817.64
447.459	41434.67
447.665	41238.07
447.871	43083.29
448.078	45276.66
448.284	43095.58
448.491	44125.71
448.697	45694.45
448.903	46507.49
449.11	46589.41
449.316	45585.91
449.522	46575.08
449.728	47795.67
449.935	48098.76
450.141	48715.2
450.347	49450.42
450.553	47783.38
450.76	48491.97
450.966	50398.63
451.172	49241.53
451.378	50660.77
451.584	49886.64
451.791	50742.69
451.997	50771.36
452.203	51522.97
452.409	51668.37
452.615	51357.08
452.821	49894.83
453.027	49176
453.233	52125.07
453.44	49753.52
453.646	50197.93
453.852	50595.24
454.058	51338.65
454.264	49892.79
454.47	51084.7
454.676	49485.24
454.882	51352.99
455.088	46632.42
455.294	47922.64
455.5	48442.82
455.705	48608.71
455.911	46751.2
456.117	46271.98
456.323	45739.5
456.529	43265.56
456.735	44987.9
456.941	43845.13
457.147	43343.38
457.352	42059.3
457.558	41512.5
457.764	41909.8
457.97	40601.15
458.176	40398.4
458.381	40498.75
458.587	38088.29
458.793	38321.76
458.999	36443.77
459.204	38252.13
459.41	37545.58
459.616	35243.66
459.821	35427.98
460.027	34954.9
460.233	34086.56
460.438	32896.69
460.644	33050.29
460.85	31506.12
461.055	31043.28
461.261	31172.3
461.466	28731.12
461.672	27598.6
461.878	29794.02
462.083	27909.89
462.289	27322.12
462.494	27029.26
462.7	26119.96
462.905	25069.36
463.111	26308.38
463.316	26050.33
463.522	25476.9
463.727	25335.59
463.932	25696.03
464.138	25212.71
464.343	25437.99
464.549	24663.86
464.754	25442.09
464.959	25157.42
465.165	24823.6
465.37	23922.49
465.575	23312.2
465.781	24403.77
465.986	24463.16
466.191	23594.82
466.397	23338.82
466.602	21634.91
466.807	22726.48
467.012	22818.64
467.218	22699.86
467.423	22415.19
467.628	22503.25
467.833	23478.08
468.038	22482.77
468.244	21909.34
468.449	22662.99
468.654	21915.48
468.859	22005.59
469.064	21669.73
469.269	21030.76
469.474	21170.02
469.679	21501.79
469.885	20838.25
470.09	21589.86
470.295	20979.56
470.5	20586.35
470.705	20680.56
470.91	20049.78
471.115	20053.88
471.32	20408.18
471.525	20270.97
471.73	19926.91
471.935	19754.88
472.139	19058.57
472.344	19244.93
472.549	19337.09
472.754	18796.43
472.959	18657.17
473.164	18028.44
473.369	18089.88
473.574	18755.47
473.778	18474.9
473.983	18126.74
474.188	18171.8
474.393	17299.36
474.598	17113
474.802	17223.59
475.007	17307.55
475.212	16601.01
475.417	16455.6
475.621	16207.8
475.826	16385.97
476.031	16265.14
476.235	15994.81
476.44	16043.96
476.645	15880.12
476.849	15906.74
477.054	15699.9
477.259	15304.64
477.463	15517.63
477.668	14786.51
477.872	15200.19
478.077	14890.95
478.282	14608.33
478.486	14483.41
478.691	14395.34
478.895	14387.15
479.1	14348.24
479.304	14303.18
479.509	13797.34
479.713	14061.52
479.918	13924.31
480.122	13608.92
480.326	13811.67
480.531	13567.96
480.735	13563.87
480.94	13369.31
481.144	13897.69
481.348	13340.64
481.553	13570.01
481.757	13350.88
481.961	13271.01
482.166	13397.98
482.37	13576.16
482.574	12988.39
482.778	13254.62
482.983	13426.65
483.187	13281.25
483.391	13348.83
483.595	13172.71
483.8	13090.79
484.004	13254.62
484.208	13309.92
484.412	13195.23
484.616	13191.14
484.821	13123.55
485.025	12953.57
485.229	12980.2
485.433	13131.75
485.637	13232.1
485.841	13074.4
486.045	13101.03
486.249	13068.26
486.453	12933.09
486.657	13074.4
486.861	13252.58
487.065	12773.35
487.269	13078.5
487.473	12855.27
487.677	12965.86
487.881	13219.81
488.085	13141.99
488.289	13385.69
488.493	13082.6
488.697	13203.43
488.901	13303.78
489.105	13176.8
489.309	13236.19
489.512	13221.86
489.716	13121.51
489.92	13213.67
490.124	13135.84
490.328	13629.4
490.531	13191.14
490.735	13320.16
490.939	13469.66
491.143	13477.85
491.346	13445.09
491.55	13660.12
491.754	13565.92
491.958	13801.43
492.161	13535.2
492.365	13789.14
492.569	13696.99
492.772	13785.05
492.976	13881.3
493.18	13989.85
493.383	14098.39
493.587	14387.15
493.79	14243.79
493.994	14006.23
494.197	14174.16
494.401	14170.07
494.605	14569.42
494.808	14462.93
495.012	14409.68
495.215	14893
495.419	14911.43
495.622	15026.12
495.825	14974.92
496.029	15257.54
496.232	15343.55
496.436	15300.55
496.639	15574.97
496.843	15517.63
497.046	15982.52
497.249	16056.25
497.453	15988.66
497.656	16392.11
497.859	16080.82
498.063	16445.36
498.266	16754.6
498.469	16633.77
498.673	16904.1
498.876	17295.27
499.079	17622.94
499.282	17487.78
499.485	17835.93
499.689	17663.9
499.892	18151.32
500.095	18171.8
500.298	18503.57
500.501	18141.08
500.705	18970.51
500.908	18966.41
501.111	19371.91
501.314	19369.86
501.517	19718.01
501.72	19965.82
501.923	19732.35
502.126	20197.24
502.329	20572.02
502.532	20414.32
502.735	20772.72
502.938	21180.26
503.141	20932.46
503.344	21288.81
503.547	21491.55
503.75	21899.1
503.953	22384.47
504.156	22378.33
504.359	22658.9
504.562	22738.77
504.765	22863.69
504.968	23258.95
505.17	23682.88
505.373	23660.35
505.576	24215.35
505.779	24303.42
505.982	24270.65
506.185	24989.49
506.387	24704.82
506.59	25071.4
506.793	25495.33
506.996	25601.83
507.198	26095.39
507.401	25902.88
507.604	26228.51
507.807	26806.03
508.009	27019.02
508.212	26978.06
508.415	27449.1
508.617	27850.5
508.82	28360.44
509.022	27879.17
509.225	28731.12
509.428	28870.39
509.63	29103.85
509.833	28903.15
510.035	29877.99
510.238	29640.42
510.44	30189.28
510.643	30215.9
510.845	30426.84
511.048	30441.18
511.25	30879.44
511.453	31100.62
511.655	32143.04
511.858	31588.04
512.06	31932.1
512.262	32515.77
512.465	32345.79
512.667	33058.48
512.87	33179.31
513.072	33107.63
513.274	33853.09
513.477	34152.1
513.679	34328.22
513.881	34625.18
514.084	34813.59
514.286	35233.43
514.488	35303.06
514.69	36093.57
514.893	36036.23
515.095	36177.54
515.297	36609.66
515.499	36841.08
515.701	37115.51
515.904	37668.46
516.106	37846.63
516.308	38159.97
516.51	38598.24
516.712	38391.39
516.914	38772.32
517.116	39413.33
517.318	39405.14
517.52	39560.78
517.722	39536.21
517.925	40402.5
518.127	41025.08
518.329	40658.49
518.531	40621.63
518.733	41483.83
518.935	41956.91
519.136	41836.08
519.338	42659.36
519.54	42540.58
519.742	43056.67
519.944	43009.56
520.146	44078.6
520.348	43767.31
520.55	44152.33
520.752	43806.22
520.954	44774.91
521.155	44281.35
521.357	45403.64
521.559	45350.39
521.761	45864.43
521.963	45630.96
522.164	45659.63
522.366	46118.38
522.568	46616.04
522.77	46593.51
522.971	47140.32
523.173	46970.33
523.375	47562.2
523.576	47326.68
523.778	47627.73
523.98	47988.17
524.181	48303.56
524.383	48491.97
524.584	48678.34
524.786	48758.21
524.988	48561.61
525.189	49227.2
525.391	49163.71
525.592	49647.03
525.794	49532.34
525.995	49632.69
526.197	49855.92
526.398	50329
526.6	50224.56
526.801	50425.26
527.003	50873.76
527.204	50771.36
527.406	50861.47
527.607	51033.5
527.808	51084.7
528.01	50259.37
528.211	51400.09
528.412	51846.55
528.614	51338.65
528.815	51721.62
529.016	52016.53
529.218	51602.84
529.419	52016.53
529.62	52315.53
529.822	52098.45
530.023	52086.16
530.224	52172.17
530.425	52229.52
530.626	51903.89
530.828	52129.17
531.029	52821.38
531.23	51994
531.431	52389.26
531.632	52211.09
531.833	52788.61
532.035	52538.76
532.236	52526.47
532.437	52602.25
532.638	52186.51
532.839	52467.08
533.04	52780.42
533.241	52444.55
533.442	53329.28
533.643	52669.83
533.844	52991.36
534.045	53040.51
534.246	52344.2
534.447	52987.27
534.648	52940.16
534.849	52813.19
535.05	52194.7
535.251	52473.23
535.451	52641.16
535.652	52850.05
535.853	52333.96
536.054	52866.44
536.255	53136.77
536.456	52592.01
536.657	53349.76
536.857	52716.93
537.058	52403.6
537.259	53163.39
537.46	52927.88
537.66	52155.79
537.861	52946.31
538.062	52282.76
538.263	52706.69
538.463	52764.04
538.664	52534.67
538.865	52860.29
539.065	52671.88
539.266	52211.09
539.466	52753.8
539.667	51932.56
539.868	52778.37
540.068	52188.56
540.269	52557.19
540.469	52739.46
540.67	52039.06
540.87	52497.8
541.071	52200.85
541.271	52618.63
541.472	52286.86
541.672	51672.47
541.873	52342.16
542.073	51658.13
542.274	52694.41
542.474	52192.65
542.675	51658.13
542.875	52385.16
543.075	51883.41
543.276	51963.28
543.476	52450.7
543.676	52266.38
543.877	52331.92
544.077	51824.02
544.277	51864.98
544.478	52129.17
544.678	52303.24
544.878	52112.78
545.078	51967.38
545.279	51553.69
545.479	51533.21
545.679	51834.26
545.879	51762.58
546.079	51439
546.28	51871.12
546.48	51365.27
546.68	52170.13
546.88	51914.13
547.08	51615.13
547.28	51735.96
547.48	50959.78
547.68	51862.93
547.88	51783.06
548.081	52108.69
548.281	51848.6
548.481	51361.18
548.681	51981.71
548.881	51568.02
549.081	51881.36
549.28	51467.67
549.48	51774.87
549.68	51123.61
549.88	51946.9
550.08	51316.12
550.28	51371.42
550.48	51461.53
550.68	51801.49
550.88	51504.54
551.08	51234.2
551.279	51166.62
551.479	51154.33
551.679	51719.57
551.879	51271.07
552.079	51584.41
552.278	51289.5
552.478	51406.23
552.678	50939.3
552.878	51508.63
553.077	50978.21
553.277	50697.64
553.477	51557.78
553.676	50718.12
553.876	51078.56
554.076	51246.49
554.275	50787.75
554.475	50353.58
554.674	51260.83
554.874	51015.07
555.074	50382.25
555.273	51506.58
555.473	50972.06
555.672	50828.71
555.872	50447.78
556.071	50894.24
556.271	50927.01
556.47	50361.77
556.67	50281.9
556.869	50658.73
557.068	50783.65
557.268	49929.65
557.467	50095.53
557.667	50247.08
557.866	50496.94
558.065	50236.84
558.265	50091.44
558.464	49950.13
558.663	50638.25
558.863	49661.36
559.062	50521.51
559.261	49802.67
559.461	50322.86
559.66	49337.79
559.859	49737.14
560.058	49448.38
560.258	49853.87
560.457	49393.08
560.656	49411.51
560.855	49583.54
561.054	49931.7
561.253	49360.31
561.453	49323.45
561.652	49233.34
561.851	49982.9
562.05	48983.49
562.249	48954.82
562.448	49593.78
562.647	49427.9
562.846	48772.55
563.045	48870.85
563.244	48588.23
563.443	49270.2
563.642	48416.2
563.841	48672.2
564.04	48389.58
564.239	48625.09
564.438	48434.63
564.637	48459.21
564.836	48891.33
565.035	48129.48
565.234	48199.12
565.432	48278.99
565.631	47967.69
565.83	48260.55
566.029	48197.07
566.228	48066
566.427	47640.02
566.625	47766.99
566.824	47410.65
567.023	47941.07
567.222	47252.95
567.42	47844.82
567.619	47597.01
567.818	47586.77
568.016	47146.46
568.215	47445.46
568.414	47171.03
568.612	47338.97
568.811	47316.44
569.01	46978.53
569.208	46433.77
569.407	47046.11
569.605	46339.56
569.804	47050.2
570.002	46544.36
570.201	46917.09
570.4	46560.74
570.598	46460.39
570.797	45665.78
570.995	46401
571.193	45731.31
571.392	46327.27
571.59	46118.38
571.789	45721.07
571.987	45729.26
572.186	45719.03
572.384	45538.8
572.582	45860.33
572.781	45618.67
572.979	45178.36
573.177	45086.2
573.376	45059.58
573.574	45069.82
573.772	45557.24
573.971	44873.21
574.169	45000.19
574.367	44756.48
574.565	44606.98
574.763	44609.03
574.962	44774.91
575.16	44514.82
575.358	44322.31
575.556	44252.68
575.754	44592.64
575.952	43931.15
576.151	44105.23
576.349	44215.82
576.547	43621.91
576.745	44164.62
576.943	43789.84
577.141	43691.54
577.339	43781.65
577.537	43501.07
577.735	43781.65
577.933	42870.3
578.131	43701.78
578.329	43329.05
578.527	43755.02
578.725	42685.98
578.923	43413.01
579.121	42671.65
579.319	42661.41
579.516	43001.37
579.714	42583.58
579.912	42386.98
580.11	42493.47
580.308	42567.2
580.506	42364.45
580.704	41522.74
580.901	42122.79
581.099	42292.77
581.297	41567.79
581.495	41762.35
581.692	41735.73
581.89	41350.71
582.088	41811.5
582.285	41328.18
582.483	41731.63
582.681	41211.45
582.878	40957.5
583.076	41053.75
583.274	41082.42
583.471	40721.98
583.669	40937.02
583.866	40891.96
584.064	40988.22
584.262	40351.3
584.459	40562.24
584.657	40216.13
584.854	40478.27
585.052	39876.17
585.249	40103.49
585.447	39894.6
585.644	39738.96
585.841	40158.79
586.039	40068.68
586.236	39427.67
586.434	39454.29
586.631	39513.68
586.828	39226.96
587.026	39073.37
587.223	39341.65
587.42	39034.46
587.618	38995.54
587.815	38790.75
588.012	38684.25
588.21	38342.24
588.407	39138.9
588.604	38301.28
588.801	38168.16
588.999	38209.12
589.196	38133.35
589.393	38391.39
589.59	38012.52
589.787	37817.96
589.984	37746.28
590.182	37189.24
590.379	37803.63
590.576	37414.51
590.773	37611.12
590.97	37148.28
591.167	37222
591.364	36542.08
591.561	37240.43
591.758	36855.42
591.955	36986.49
592.152	37342.83
592.349	36386.43
592.546	36705.91
592.743	36476.54
592.94	35985.03
593.137	36136.58
593.334	36544.13
593.531	35767.94
593.727	35993.22
593.924	36161.15
594.121	35702.41
594.318	36046.47
594.515	35165.84
594.712	35575.44
594.908	35233.43
595.105	35452.56
595.302	34891.41
595.499	34993.81
595.696	34772.63
595.892	34813.59
596.089	35098.26
596.286	34840.22
596.482	34713.24
596.679	34561.69
596.876	34469.53
597.072	34277.02
597.269	34326.17
597.466	33965.73
597.662	34184.87
597.859	33965.73
598.055	33885.86
598.252	34002.6
598.448	33740.46
598.645	33758.89
598.841	33451.69
599.038	33242.8
599.234	33449.64
599.431	32913.08
599.627	32755.38
599.824	32827.06
600.02	32908.98
600.217	32925.36
600.413	32728.76
600.609	32636.6
600.806	32245.44
601.002	32814.77
601.198	31975.11
601.395	32255.68
601.591	32075.46
601.787	31762.12
601.984	32313.02
602.18	31991.49
602.376	31712.97
602.572	31506.12
602.769	32022.21
602.965	31139.54
603.161	31411.92
603.357	31289.04
603.553	31274.7
603.75	31315.66
603.946	31078.1
604.142	31102.67
604.338	30486.23
604.534	31039.19
604.73	30207.71
604.926	30392.03
605.122	30500.57
605.318	30408.41
605.514	30013.15
605.71	30160.61
605.906	30082.78
606.102	30314.2
606.298	30031.58
606.494	29931.23
606.69	29839.08
606.886	30097.12
607.082	29429.48
607.278	30050.02
607.474	29343.47
607.67	29441.77
607.866	29185.77
608.062	29505.26
608.257	29454.06
608.453	29378.28
608.649	29693.67
608.845	28944.11
609.041	29040.37
609.236	29120.24
609.432	28442.36
609.628	28952.3
609.824	28892.91
610.019	28800.76
610.215	28610.29
610.411	28983.02
610.606	28749.56
610.802	28958.45
610.998	28391.16
611.193	28581.62
611.389	28401.4
611.584	28110.59
611.78	27936.51
611.976	28202.75
612.171	28352.25
612.367	27965.18
612.562	27950.85
612.758	28022.53
612.953	27543.3
613.149	28172.03
613.344	27883.27
613.539	28325.63
613.735	27721.48
613.93	27741.96
614.126	27789.06
614.321	27848.45
614.517	27580.17
614.712	27535.11
614.907	27334.41
615.103	27602.69
615.298	27223.82
615.493	27830.02
615.688	27090.7
615.884	27346.7
616.079	27262.73
616.274	27111.18
616.47	27010.83
616.665	27305.74
616.86	26816.27
617.055	27082.51
617.25	26949.39
617.445	27174.67
617.641	26599.19
617.836	26902.29
618.031	26126.11
618.226	26517.27
618.421	26369.82
618.616	26386.2
618.811	26244.89
619.006	26584.85
619.201	25956.13
619.396	26316.57
619.591	25517.86
619.786	26224.41
619.981	25356.07
620.176	25769.76
620.371	25511.72
620.566	25595.68
620.761	25319.21
620.956	25472.81
621.151	24971.05
621.346	24964.91
621.541	24706.87
621.735	25399.08
621.93	24530.74
622.125	24637.23
622.32	24219.45
622.515	24430.39
622.709	24250.17
622.904	23926.59
623.099	24311.61
623.294	24041.28
623.488	23543.62
623.683	23721.79
623.878	23123.79
624.072	23465.8
624.267	23324.49
624.462	22894.41
624.656	23308.1
624.851	22896.46
625.046	22773.58
625.24	22773.58
625.435	22562.64
625.629	22568.79
625.824	22421.33
626.018	22273.88
626.213	21516.13
626.407	22191.96
626.602	21747.55
626.796	21786.46
626.991	21813.09
627.185	21507.94
627.38	21393.25
627.574	21391.2
627.768	21278.57
627.963	21141.35
628.157	20979.56
628.352	21137.26
628.546	20635.5
628.74	20899.69
628.935	20498.29
629.129	20643.7
629.323	19996.54
629.517	20385.65
629.712	19957.63
629.906	20000.63
630.1	19623.81
630.294	19994.49
630.489	19685.25
630.683	19509.12
630.877	19394.43
631.071	19046.28
631.265	19359.62
631.459	19144.58
631.653	19117.96
631.848	19038.09
632.042	18665.36
632.236	18837.39
632.43	18681.74
632.624	18608.01
632.818	18671.5
633.012	18335.63
633.206	18120.6
633.4	18315.16
633.594	18087.83
633.788	18214.8
633.982	17844.12
634.176	17819.55
634.369	17993.62
634.563	17756.06
634.757	17631.13
634.951	17405.86
635.145	17563.55
635.339	17502.11
635.533	17199.01
635.726	17262.5
635.92	16869.29
636.114	16986.02
636.308	17020.84
636.501	16988.07
636.695	16693.16
636.889	16613.29
637.083	16586.67
637.276	16426.93
637.47	16545.71
637.664	16250.8
637.857	16529.33
638.051	16424.88
638.244	16078.77
638.438	16170.93
638.632	15861.69
638.825	15972.28
639.019	15601.6
639.212	15615.93
639.406	15357.89
639.599	15542.21
639.793	15538.11
639.986	15058.88
640.18	15333.31
640.373	15349.7
640.567	14976.97
640.76	15167.43
640.954	14659.53
641.147	14733.26
641.34	14923.72
641.534	14903.24
641.727	14833.61
641.92	14712.78
642.114	14503.89
642.307	14426.06
642.5	14178.26
642.694	14196.69
642.887	14041.04
643.08	14548.94
643.273	14274.51
643.467	14018.52
643.66	13727.71
643.853	13856.73
644.046	13582.3
644.239	13766.62
644.432	13705.18
644.626	13574.11
644.819	13363.17
645.012	13477.85
645.205	13678.55
645.398	13484
645.591	13354.97
645.784	13193.19
645.977	13043.68
646.17	13068.26
646.363	12861.41
646.556	12660.71
646.749	13029.35
646.942	12697.58
647.135	12732.39
647.328	12709.86
647.521	12445.68
647.714	12349.42
647.907	12634.09
648.099	12447.72
648.292	12374
648.485	12242.93
648.678	12242.93
648.871	11982.84
649.064	11882.49
649.256	12191.73
649.449	11997.17
649.642	11767.8
649.835	11919.35
650.027	11900.92
650.22	11782.13
650.413	11653.11
650.605	11765.75
650.798	11528.19
650.991	11538.43
651.183	11366.4
651.376	11354.11
651.568	11407.36
651.761	11143.17
651.954	11218.94
652.146	11175.94
652.339	11112.45
652.531	10911.75
652.724	10987.52
652.916	10889.22
653.109	10700.81
653.301	10780.68
653.494	10752.01
653.686	10571.79
653.879	10545.16
654.071	10729.48
654.263	10463.24
654.456	10471.43
654.648	10459.15
654.84	10354.7
655.033	10190.86
655.225	10223.63
655.417	10205.2
655.61	10094.61
655.802	10213.39
655.994	9744.41
656.186	10027.03
656.379	9875.48
656.571	9945.11
656.763	9820.18
656.955	9955.35
657.148	9846.8
657.34	9758.74
657.532	9791.51
657.724	9461.79
657.916	9582.62
658.108	9551.9
658.3	9283.61
658.492	9459.74
658.684	9383.96
658.876	9265.18
659.068	9289.76
659.26	9205.79
659.452	9189.41
659.644	9134.11
659.836	8808.48
660.028	8894.5
660.22	8896.55
660.412	8906.79
660.604	8636.45
660.796	8794.15
660.988	8712.23
661.18	8628.26
661.372	8667.17
661.563	8914.98
661.755	8699.94
661.947	8577.06
662.139	8558.63
662.331	8415.27
662.522	8439.85
662.714	8474.67
662.906	8443.95
663.097	8206.38
663.289	8050.74
663.481	8048.69
663.673	8187.95
663.864	8058.93
664.056	7940.15
664.247	8126.51
664.439	8022.06
664.631	8149.04
664.822	7985.2
665.014	7796.79
665.205	7893.04
665.397	7708.73
665.588	7583.8
665.78	7845.94
665.971	7739.44
666.163	7600.18
666.354	7530.55
666.546	7632.95
666.737	7462.97
666.929	7473.21
667.12	7405.63
667.311	7301.18
667.503	7497.78
667.694	7301.18
667.885	7274.56
668.077	7456.82
668.268	7030.85
668.459	7290.94
668.651	7127.1
668.842	7295.04
669.033	7235.64
669.224	7057.47
669.416	7155.77
669.607	7163.97
669.798	6948.93
669.989	6977.6
670.18	6811.71
670.371	6897.73
670.563	6879.3
670.754	6942.78
670.945	6873.15
671.136	6768.71
671.327	6801.47
671.518	6879.3
671.709	6826.05
671.9	6604.87
672.091	6578.25
672.282	6721.6
672.473	6475.85
672.664	6527.05
672.855	6740.04
673.046	6367.31
673.237	6492.23
673.428	6445.13
673.619	6506.57
673.809	6430.79
674	6406.22
674.191	6424.65
674.382	6246.48
674.573	6322.25
674.764	6355.02
674.954	6293.58
675.145	6086.73
675.336	6246.48
675.527	6129.74
675.717	6076.49
675.908	6049.87
676.099	6082.64
676.289	6156.36
676.48	6047.82
676.671	5947.47
676.861	6000.72
677.052	6008.91
677.243	5855.31
677.433	6002.77
677.624	5937.23
677.814	5840.98
678.005	6033.49
678.195	5781.59
678.386	6070.35
678.576	5824.59
678.767	5890.13
678.957	5779.54
679.148	5912.66
679.338	5683.28
679.529	5662.8
679.719	5664.85
679.909	5709.91
680.1	5519.45
680.29	5587.03
680.481	5734.48
680.671	5765.2
680.861	5675.09
681.052	5562.45
681.242	5435.48
681.432	5625.94
681.622	5447.77
681.813	5529.69
682.003	5519.45
682.193	5525.59
682.383	5570.65
682.573	5486.68
682.764	5460.06
682.954	5445.72
683.144	5566.55
683.334	5324.89
683.524	5519.45
683.714	5441.62
683.904	5331.03
684.094	5404.76
684.284	5472.34
684.474	5337.18
684.664	5312.6
684.854	5154.91
685.044	5228.63
685.234	5361.75
685.424	5351.51
685.614	5214.3
685.804	5075.04
685.994	5089.37
686.184	5267.55
686.374	5068.89
686.564	5023.84
686.753	5175.39
686.943	5013.6
687.133	5154.91
687.323	5175.39
687.513	5052.51
687.702	4993.12
687.892	4882.53
688.082	4903.01
688.272	4833.38
688.461	4755.55
688.651	4812.9
688.841	4716.64
689.03	4735.07
689.22	4677.73
689.41	4687.97
689.599	4667.49
689.789	4802.66
689.979	4671.59
690.168	4647.01
690.358	4567.14
690.547	4561
690.737	4554.85
690.926	4567.14
691.116	4436.07
691.305	4671.59
691.495	4325.48
691.684	4417.64
691.874	4460.65
692.063	4417.64
692.252	4362.34
692.442	4378.73
692.631	4171.88
692.82	4280.43
693.01	4257.9
693.199	4231.27
693.388	4368.49
693.578	4280.43
693.767	4132.97
693.956	4225.13
694.146	4122.73
694.335	4120.68
694.524	4098.16
694.713	4159.6
694.902	4067.44
695.092	4178.03
695.281	4040.81
695.47	3926.13
695.659	3848.3
695.848	3979.37
696.037	3874.93
696.226	3926.13
696.415	4032.62
696.604	3962.99
696.793	3866.74
696.982	3936.37
697.171	3838.06
697.36	3883.12
697.549	3823.73
697.738	3762.29
697.927	3694.71
698.116	3901.55
698.305	3745.91
698.494	3772.53
698.683	3655.79
698.872	3653.75
699.061	3666.03
699.25	3637.36
699.438	3592.31
699.627	3680.37
699.816	3727.47
700.005	3561.59
700.193	3487.86
700.382	3563.64
700.571	3422.33
700.76	3627.12
700.948	3551.35
701.137	3551.35
701.326	3563.64
701.514	3483.77
701.703	3516.53
701.892	3541.11
702.08	3623.03
702.269	3446.9
702.457	3436.66
702.646	3491.96
702.834	3512.44
703.023	3500.15
703.212	3457.14
703.4	3620.98
703.589	3350.65
703.777	3407.99
703.965	3416.18
704.154	3379.32
704.342	3379.32
704.531	3250.3
704.719	3307.64
704.907	3260.54
705.096	3258.49
705.284	3326.07
705.472	3375.22
705.661	3307.64
705.849	3444.85
706.037	3369.08
706.226	3203.19
706.414	3430.52
706.602	3283.06
706.79	3317.88
706.979	3133.56
707.167	3328.12
707.355	3205.24
707.543	3143.8
707.731	3256.44
707.919	3270.78
708.107	3434.61
708.296	3178.62
708.484	3244.15
708.672	3213.43
708.86	3209.34
709.048	3111.04
709.236	3215.48
709.424	3141.75
709.612	3319.93
709.8	3192.95
709.988	3213.43
710.176	3135.61
710.364	3141.75
710.551	3199.1
710.739	2973.82
710.927	3135.61
711.115	3025.02
711.303	3131.51
711.491	3209.34
711.679	3151.99
711.866	3092.6
712.054	3162.23
712.242	3059.84
712.43	3121.28
712.617	3100.8
712.805	3012.73
712.993	3055.74
713.181	3082.36
713.368	3076.22
713.556	3233.91
713.744	2977.92
713.931	3094.65
714.119	3008.64
714.306	3014.78
714.494	3035.26
714.682	3186.81
714.869	3088.51
715.057	2957.44
715.244	3049.6
715.432	3164.28
715.619	3057.79
715.807	3020.92
715.994	3131.51
716.182	3149.95
716.369	3106.94
716.556	2982.01
716.744	2947.2
716.931	3033.21
717.119	3012.73
717.306	3061.88
717.493	3029.12
717.681	2943.1
717.868	2900.09
718.055	3051.64
718.242	2998.4
718.43	2943.1
718.617	3012.73
718.804	3002.49
718.991	2961.53
719.179	3025.02
719.366	2867.33
719.553	3104.89
719.74	2994.3
719.927	2955.39
720.114	2902.14
720.301	2957.44
720.488	3035.26
720.676	2871.42
720.863	3031.16
721.05	3092.6
721.237	3125.37
721.424	3055.74
721.611	2990.21
721.798	3033.21
721.985	2922.62
722.172	3102.84
722.358	2961.53
722.545	3049.6
722.732	3055.74
722.919	2920.57
723.106	3051.64
723.293	2873.47
723.48	2961.53
723.667	2990.21
723.853	2879.61
724.04	3008.64
724.227	2955.39
724.414	2891.9
724.6	2926.72
724.787	3051.64
724.974	2926.72
725.161	2936.96
725.347	2896
725.534	3027.07
725.72	2984.06
725.907	2994.3
726.094	2969.73
726.28	2986.11
726.467	3108.99
726.653	2908.29
726.84	2996.35
727.027	2982.01
727.213	2979.97
727.4	2992.25
727.586	2953.34
727.773	2982.01
727.959	2918.53
728.145	2990.21
728.332	2967.68
728.518	2965.63
728.705	2846.85
728.891	3043.45
729.077	3129.47
729.264	2955.39
729.45	3084.41
729.636	2988.16
729.823	2924.67
730.009	2996.35
730.195	2979.97
730.382	2998.4
730.568	3006.59
730.754	3031.16
730.94	3002.49
731.126	3045.5
731.313	3039.36
731.499	3127.42
731.685	3209.34
731.871	3045.5
732.057	3008.64
732.243	3123.32
732.429	3145.85
732.615	3065.98
732.801	3104.89
732.987	3029.12
733.173	3178.62
733.359	3068.03
733.545	3090.56
733.731	2920.57
733.917	3139.71
734.103	3166.33
734.289	3053.69
734.475	3162.23
734.661	3106.94
734.847	3080.32
735.033	3248.25
735.219	3182.71
735.404	2953.34
735.59	3092.6
735.776	3104.89
735.962	3029.12
736.148	3070.08
736.333	3137.66
736.519	3108.99
736.705	3143.8
736.89	3072.12
737.076	3262.58
737.262	3025.02
737.447	2979.97
737.633	3149.95
737.819	3221.63
738.004	3123.32
738.19	3094.65
738.375	3117.18
738.561	3086.46
738.747	3119.23
738.932	3199.1
739.118	3145.85
739.303	3174.52
739.489	3006.59
739.674	3098.75
739.859	3055.74
740.045	3131.51
740.23	3031.16
740.416	3068.03
740.601	3014.78
740.786	3100.8
740.972	2963.58
741.157	3076.22
741.342	3115.13
741.528	3065.98
741.713	3080.32
741.898	3014.78
742.084	3127.42
742.269	3117.18
742.454	2961.53
742.639	3113.08
742.824	3092.6
743.01	3102.84
743.195	3057.79
743.38	3039.36
743.565	3158.14
743.75	3094.65
743.935	2902.14
744.12	3108.99
744.305	3004.54
744.49	2953.34
744.675	3082.36
744.86	3004.54
745.045	3059.84
745.23	2996.35
745.415	3068.03
745.6	3055.74
745.785	2896
745.97	3033.21
746.155	2932.86
746.34	2867.33
746.525	2965.63
746.71	2939.01
746.895	2693.25
747.079	2908.29
747.264	2848.9
747.449	2861.18
747.634	2898.05
747.819	2902.14
748.003	2746.5
748.188	2840.7
748.373	2764.93
748.557	2756.74
748.742	2560.13
748.927	2648.19
749.111	2777.22
749.296	2666.63
749.481	2795.65
749.665	2779.26
749.85	2703.49
750.034	2769.02
750.219	2728.07
750.404	2736.26
750.588	2762.88
750.773	2490.5
750.957	2640
751.141	2601.09
751.326	2689.15
751.51	2529.41
751.695	2623.62
751.879	2556.04
752.064	2556.04
752.248	2576.52
752.432	2531.46
752.617	2506.88
752.801	2484.36
752.985	2365.57
753.17	2476.16
753.354	2394.25
753.538	2445.45
753.722	2480.26
753.907	2523.27
754.091	2336.9
754.275	2502.79
754.459	2287.75
754.643	2424.97
754.828	2338.95
755.012	2199.69
755.196	2322.57
755.38	2250.89
755.564	2377.86
755.748	2279.56
755.932	2173.07
756.116	2136.2
756.3	2117.77
756.484	2250.89
756.668	2275.46
756.852	2175.11
757.036	2148.49
757.22	2183.31
757.404	2185.35
757.588	2093.19
757.772	2164.87
757.956	2119.82
758.14	2056.33
758.323	2095.24
758.507	2046.09
758.691	1968.27
758.875	2080.91
759.059	2068.62
759.242	2007.18
759.426	1923.21
759.61	1994.89
759.794	2023.56
759.977	1984.65
760.161	1937.55
760.345	1996.94
760.528	1972.36
760.712	2076.81
760.895	1939.6
761.079	1933.45
761.263	1820.81
761.446	1910.93
761.63	1910.93
761.813	1955.98
761.997	1859.73
762.18	1874.06
762.364	2021.52
762.547	1843.34
762.731	1779.86
762.914	1865.87
763.098	1849.49
763.281	1921.17
763.464	1710.22
763.648	1781.9
763.831	1808.53
764.015	1833.1
764.198	1755.28
764.381	1773.71
764.564	1749.14
764.748	1874.06
764.931	1798.29
765.114	1792.14
765.297	1734.8
765.481	1638.55
765.664	1835.15
765.847	1669.27
766.03	1656.98
766.213	1757.33
766.397	1708.18
766.58	1753.23
766.763	1546.39
766.946	1548.44
767.129	1706.13
767.312	1630.35
767.495	1728.66
767.678	1566.87
767.861	1695.89
768.044	1519.76
768.227	1570.96
768.41	1648.79
768.593	1585.3
768.776	1695.89
768.959	1544.34
769.142	1720.46
769.324	1523.86
769.507	1560.72
769.69	1550.48
769.873	1523.86
770.056	1634.45
770.239	1542.29
770.421	1521.81
770.604	1550.48
770.787	1540.24
770.97	1546.39
771.152	1499.28
771.335	1532.05
771.518	1466.52
771.7	1448.08
771.883	1431.7
772.066	1491.09
772.248	1478.8
772.431	1435.8
772.613	1425.56
772.796	1452.18
772.978	1433.75
773.161	1484.95
773.343	1409.17
773.526	1374.36
773.708	1278.1
773.891	1390.74
774.073	1353.88
774.256	1351.83
774.438	1411.22
774.621	1343.64
774.803	1337.49
774.985	1296.53
775.168	1263.77
775.35	1202.33
775.532	1339.54
775.715	1224.86
775.897	1327.25
776.079	1216.66
776.261	1198.23
776.444	1241.24
776.626	1173.66
776.808	1228.95
776.99	1200.28
777.173	1280.15
777.355	1149.08
777.537	1202.33
777.719	1171.61
777.901	1259.67
778.083	1187.99
778.265	1085.59
778.447	1138.84
778.629	1134.75
778.811	1077.4
778.993	1128.6
779.175	1091.74
779.357	1054.87
779.539	987.29
779.721	970.91
779.903	1140.89
780.085	985.24
780.267	1044.63
780.449	1067.16
780.631	1032.35
780.812	995.48
780.994	1007.77
781.176	985.24
781.358	956.57
781.54	942.24
781.721	837.79
781.903	1007.77
782.085	895.13
782.267	964.76
782.448	985.24
782.63	938.14
782.812	1034.39
782.993	891.04
783.175	845.98
783.357	956.57
783.538	917.66
783.72	948.38
783.901	886.94
784.083	880.8
784.264	899.23
784.446	856.22
784.627	813.21
784.809	839.84
784.99	833.69
785.172	882.85
785.353	827.55
785.535	895.13
785.716	723.1
785.897	782.49
786.079	702.62
786.26	774.3
786.441	827.55
786.623	762.02
786.804	772.25
786.985	790.69
787.167	778.4
787.348	743.58
787.529	762.02
787.71	702.62
787.891	751.78
788.073	714.91
788.254	710.82
788.435	712.86
788.616	747.68
788.797	690.34
788.978	661.66
789.159	716.96
789.34	702.62
789.522	710.82
789.703	653.47
789.884	626.85
790.065	663.71
790.246	680.1
790.427	663.71
790.607	577.7
790.788	690.34
790.969	655.52
791.15	676
791.331	592.03
791.512	565.41
791.693	518.31
791.874	620.71
792.054	688.29
792.235	620.71
792.416	581.79
792.597	549.03
792.778	563.36
792.958	534.69
793.139	577.7
793.32	651.42
793.5	446.63
793.681	659.62
793.862	587.94
794.042	452.77
794.223	567.46
794.404	524.45
794.584	444.58
794.765	442.53
794.945	528.55
795.126	575.65
795.306	508.07
795.487	532.64
795.667	573.6
795.848	559.27
796.028	528.55
796.209	534.69
796.389	592.03
796.57	534.69
796.75	487.59
796.93	518.31
797.111	454.82
797.291	452.77
797.471	448.68
797.652	446.63
797.832	430.24
798.012	510.11
798.192	454.82
798.373	381.09
798.553	364.71
798.733	526.5
798.913	436.39
799.093	440.48
799.274	538.79
799.454	485.54
799.634	473.25
799.814	520.35
799.994	440.48
800.174	503.97
800.354	405.67
800.534	417.96
800.714	522.4
800.894	319.65
801.074	411.81
801.254	372.9
801.434	379.04
801.614	397.48
801.794	385.19
801.974	995.48
802.154	299.17
802.334	463.01
802.514	385.19
802.693	303.27
802.873	411.81
803.053	430.24
803.233	368.81
803.413	430.24
803.592	448.68
803.772	389.28
803.952	374.95
804.131	256.17
804.311	377
804.491	450.72
804.67	329.89
804.85	299.17
805.03	366.76
805.209	385.19
805.389	366.76
805.568	340.13
805.748	368.81
805.928	391.33
806.107	385.19
806.287	338.09
806.466	327.85
806.646	331.94
806.825	309.41
807.004	305.32
807.184	366.76
807.363	364.71
807.543	286.89
807.722	284.84
807.901	323.75
808.081	430.24
808.26	313.51
808.439	336.04
808.619	305.32
808.798	340.13
808.977	282.79
809.156	319.65
809.336	270.5
809.515	393.38
809.694	229.54
809.873	276.65
810.052	344.23
810.231	338.09
810.411	280.74
810.59	295.08
810.769	192.68
810.948	295.08
811.127	258.21
811.306	280.74
811.485	196.78
811.664	305.32
811.843	217.26
812.022	237.74
812.201	346.28
812.38	297.13
812.559	227.5
812.737	299.17
812.916	260.26
813.095	215.21
813.274	250.02
813.453	235.69
813.632	258.21
813.811	295.08
813.989	170.15
814.168	280.74
814.347	209.06
814.526	342.18
814.704	243.88
814.883	274.6
815.062	213.16
815.24	237.74
815.419	186.54
815.598	252.07
815.776	219.3
815.955	241.83
816.133	161.96
816.312	213.16
816.49	272.55
816.669	233.64
816.847	188.58
817.026	192.68
817.204	262.31
817.383	217.26
817.561	192.68
817.74	290.98
817.918	299.17
818.097	288.93
818.275	190.63
818.453	237.74
818.632	233.64
818.81	188.58
818.988	151.72
819.167	301.22
819.345	254.12
819.523	266.41
819.701	186.54
819.879	211.11
820.058	260.26
820.236	196.78
820.414	207.02
820.592	196.78
820.77	235.69
820.948	192.68
821.127	149.67
821.305	250.02
821.483	166.06
821.661	207.02
821.839	157.86
822.017	135.34
822.195	176.3
822.373	227.5
822.551	342.18
822.729	170.15
822.907	225.45
823.085	235.69
823.262	209.06
823.44	188.58
823.618	250.02
823.796	143.53
823.974	114.86
824.152	215.21
824.329	221.35
824.507	260.26
824.685	207.02
824.863	211.11
825.04	164.01
825.218	215.21
825.396	139.43
825.574	176.3
825.751	172.2
825.929	178.34
826.107	131.24
826.284	250.02
826.462	145.58
826.639	116.9
826.817	151.72
826.994	192.68
827.172	137.38
827.349	161.96
827.527	116.9
827.704	209.06
827.882	176.3
828.059	112.81
828.237	157.86
828.414	121
828.591	98.47
828.769	153.77
828.946	200.87
829.124	174.25
829.301	149.67
829.478	63.66
829.655	196.78
829.833	84.14
830.01	26.79
830.187	186.54
830.364	188.58
830.542	149.67
830.719	202.92
830.896	184.49
831.073	133.29
831.25	80.04
831.427	215.21
831.604	143.53
831.782	139.43
831.959	186.54
832.136	129.19
832.313	123.05
832.49	104.62
832.667	184.49
832.844	67.75
833.021	225.45
833.198	157.86
833.374	149.67
833.551	204.97
833.728	86.19
833.905	135.34
834.082	123.05
834.259	94.38
834.436	73.9
834.612	135.34
834.789	121
834.966	129.19
835.143	100.52
835.319	121
835.496	157.86
835.673	100.52
835.85	209.06
836.026	59.56
836.203	135.34
836.38	116.9
836.556	121
836.733	41.13
836.909	141.48
837.086	133.29
837.262	90.28
837.439	116.9
837.616	118.95
837.792	118.95
837.968	108.71
838.145	110.76
838.321	127.14
838.498	145.58
838.674	147.62
838.851	39.08
839.027	67.75
839.203	151.72
839.38	143.53
839.556	90.28
839.732	131.24
839.909	22.7
840.085	118.95
840.261	116.9
840.437	92.33
840.614	88.23
840.79	57.51
840.966	51.37
841.142	94.38
841.318	57.51
841.494	75.95
841.671	116.9
841.847	110.76
842.023	100.52
842.199	116.9
842.375	108.71
842.551	65.71
842.727	43.18
842.903	108.71
843.079	-5.97
843.255	57.51
843.431	123.05
843.607	137.38
843.783	59.56
843.959	94.38
844.134	28.84
844.31	161.96
844.486	159.91
844.662	41.13
844.838	65.71
845.013	137.38
845.189	73.9
845.365	166.06
845.541	102.57
845.716	67.75
845.892	92.33
846.068	104.62
846.244	28.84
846.419	125.1
846.595	100.52
846.77	67.75
846.946	102.57
847.122	51.37
847.297	75.95
847.473	69.8
847.648	28.84
847.824	57.51
847.999	20.65
848.175	41.13
848.35	37.03
848.526	168.1
848.701	116.9
848.876	77.99
849.052	88.23
849.227	98.47
849.403	110.76
849.578	39.08
849.753	63.66
849.929	49.32
850.104	69.8
850.279	30.89
850.454	55.47
850.63	86.19
850.805	65.71
850.98	49.32
851.155	131.24
851.33	45.23
851.505	-26.45
851.681	125.1
851.856	32.94
852.031	34.99
852.206	80.04
852.381	59.56
852.556	131.24
852.731	116.9
852.906	88.23
853.081	127.14
853.256	116.9
853.431	53.42
853.606	37.03
853.781	-24.4
853.956	45.23
854.131	106.67
854.305	37.03
854.48	104.62
854.655	65.71
854.83	61.61
855.005	61.61
855.18	34.99
855.354	51.37
855.529	82.09
855.704	57.51
855.879	75.95
856.053	-12.12
856.228	41.13
856.403	14.51
856.577	45.23
856.752	71.85
856.926	-16.21
857.101	22.7
857.276	77.99
857.45	73.9
857.625	94.38
857.799	55.47
857.974	14.51
858.148	127.14
858.323	75.95
858.497	37.03
858.672	45.23
858.846	2.22
859.02	77.99
859.195	4.27
859.369	143.53
859.543	16.55
859.718	30.89
859.892	-5.97
860.066	37.03
860.241	-3.93
860.415	-44.88
860.589	-3.93
860.763	47.27
860.938	12.46
861.112	12.46
861.286	-36.69
861.46	75.95
861.634	-12.12
861.808	73.9
861.982	-30.55
862.157	49.32
862.331	71.85
862.505	16.55
862.679	-30.55
862.853	-1.88
863.027	55.47
863.201	86.19
863.375	49.32
863.549	82.09
863.722	37.03
863.896	28.84
864.07	55.47
864.244	24.75
864.418	32.94
864.592	51.37
864.766	-1.88
864.939	63.66
865.113	8.36
865.287	77.99
865.461	6.31
865.634	39.08
865.808	4.27
865.982	30.89
866.156	6.31
866.329	39.08
866.503	65.71
866.676	57.51
866.85	67.75
867.024	20.65
867.197	121
867.371	94.38
867.544	47.27
867.718	0.17
867.891	98.47
868.065	2.22
868.238	59.56
868.412	151.72
868.585	22.7
868.759	16.55
868.932	-40.79
869.105	-48.98
869.279	57.51
869.452	82.09
869.625	-18.26
869.799	86.19
869.972	-16.21
870.145	75.95
870.319	26.79
870.492	22.7
870.665	47.27
870.838	30.89
871.011	-5.97
871.185	53.42
871.358	-18.26
871.531	37.03
871.704	30.89
871.877	6.31
872.05	0.17
872.223	-38.74
872.396	24.75
872.569	116.9
872.742	22.7
872.915	8.36
873.088	67.75
873.261	28.84
873.434	10.41
873.607	75.95
873.78	28.84
873.953	-18.26
874.126	-30.55
874.299	32.94
874.471	-18.26
874.644	53.42
874.817	57.51
874.99	59.56
875.163	18.6
875.335	-32.6
875.508	-8.02
875.681	51.37
875.853	34.99
876.026	45.23
876.199	34.99
876.371	51.37
876.544	-30.55
876.717	-22.36
876.889	53.42
877.062	114.86
877.234	-24.4
877.407	-8.02
877.579	-5.97
877.752	32.94
877.924	86.19
878.097	32.94
878.269	51.37
878.442	-5.97
878.614	26.79
878.786	24.75
878.959	61.61
879.131	14.51
879.303	-1.88
879.476	30.89
879.648	116.9
879.82	10.41
879.993	26.79
880.165	6.31
880.337	-10.07
880.509	-71.51
880.681	26.79
880.854	-26.45
881.026	65.71
881.198	53.42
881.37	28.84
881.542	49.32
881.714	51.37
881.886	53.42
882.058	41.13
882.23	8.36
882.402	-20.31
882.574	63.66
882.746	67.75
882.918	8.36
883.09	69.8
883.262	8.36
883.434	53.42
883.606	-16.21
883.778	-16.21
883.95	63.66
884.122	0.17
884.293	41.13
884.465	-65.36
884.637	84.14
884.809	82.09
884.98	34.99
885.152	-8.02
885.324	8.36
885.496	-26.45
885.667	-8.02
885.839	-22.36
886.011	24.75
886.182	98.47
886.354	-3.93
886.525	16.55
886.697	-26.45
886.869	26.79
887.04	-12.12
887.212	55.47
887.383	16.55
887.555	59.56
887.726	8.36
887.897	45.23
888.069	47.27
888.24	-30.55
888.412	47.27
888.583	-22.36
888.754	-44.88
888.926	4.27
889.097	45.23
889.268	-55.12
889.44	-24.4
889.611	-87.89
889.782	-61.27
889.953	6.31
890.125	6.31
890.296	-28.5
890.467	-28.5
890.638	16.55
890.809	-55.12
890.98	-16.21
891.151	51.37
891.323	49.32
891.494	2.22
891.665	55.47
891.836	39.08
892.007	-36.69
892.178	22.7
892.349	88.23
892.52	49.32
892.691	16.55
892.862	43.18
893.032	-36.69
893.203	84.14
893.374	37.03
893.545	28.84
893.716	67.75
893.887	2.22
894.057	-44.88
894.228	-53.08
894.399	57.51
894.57	100.52
894.74	-1.88
894.911	57.51
895.082	37.03
895.253	18.6
895.423	51.37
895.594	-55.12
895.764	-38.74
895.935	41.13
896.106	30.89
896.276	-63.32
896.447	10.41
896.617	-16.21
896.788	45.23
896.958	49.32
897.129	-26.45
897.299	-55.12
897.47	104.62
897.64	88.23
897.81	30.89
897.981	92.33
898.151	34.99
898.322	-18.26
898.492	16.55
898.662	26.79
898.832	-10.07
899.003	-8.02
899.173	55.47
899.343	0.17
899.513	-24.4
