Data from USB4F104151__80__12-42-25-877.txt Node

Date: Fri Mar 14 12:42:25 EDT 2025
User: louis
Spectrometer: USB4F10415
Trigger mode: 4
Integration Time (sec): 3.000000E-2
Scans to average: 1
Electric dark correction enabled: true
Nonlinearity correction enabled: false
Boxcar width: 0
XAxis mode: Wavelengths
Number of Pixels in Spectrum: 3648
>>>>>Begin Spectral Data<<<<<
178.204	-96.6
178.424	-96.6
178.644	-96.6
178.864	-125.27
179.084	-131.41
179.304	-33.11
179.524	24.23
179.744	-61.78
179.964	-6.49
180.184	3.75
180.404	1.71
180.624	-20.82
180.844	50.86
181.064	-16.73
181.283	-22.87
181.503	-2.39
181.723	83.63
181.943	-106.84
182.163	36.52
182.383	28.33
182.602	52.91
182.822	-4.44
183.042	30.38
183.262	13.99
183.482	32.43
183.701	26.28
183.921	69.29
184.141	7.85
184.361	38.57
184.58	77.48
184.8	26.28
185.02	-29.01
185.239	24.23
185.459	57
185.679	59.05
185.898	11.95
186.118	50.86
186.338	-65.88
186.557	-6.49
186.777	32.43
186.997	71.34
187.216	11.95
187.436	22.19
187.655	87.72
187.875	-10.58
188.095	-18.77
188.314	65.19
188.534	-53.59
188.753	3.75
188.973	65.19
189.192	100.01
189.412	87.72
189.631	28.33
189.851	40.62
190.07	91.82
190.29	-14.68
190.509	38.57
190.729	26.28
190.948	-10.58
191.168	214.7
191.387	52.91
191.607	-53.59
191.826	-12.63
192.045	-76.12
192.265	-18.77
192.484	-24.92
192.704	46.76
192.923	-6.49
193.142	110.25
193.362	134.82
193.581	13.99
193.8	42.67
194.02	106.15
194.239	9.9
194.458	26.28
194.678	42.67
194.897	-6.49
195.116	-10.58
195.335	36.52
195.555	85.67
195.774	-8.53
195.993	20.14
196.212	63.15
196.432	44.71
196.651	77.48
196.87	-41.3
197.089	32.43
197.308	26.28
197.528	-4.44
197.747	36.52
197.966	30.38
198.185	59.05
198.404	3.75
198.623	108.2
198.842	16.04
199.062	-8.53
199.281	69.29
199.5	46.76
199.719	-0.34
199.938	65.19
200.157	91.82
200.376	71.34
200.595	26.28
200.814	32.43
201.033	67.24
201.252	50.86
201.471	18.09
201.69	42.67
201.909	46.76
202.128	42.67
202.347	-2.39
202.566	7.85
202.785	-33.11
203.004	-33.11
203.223	163.5
203.442	16.04
203.661	13.99
203.879	40.62
204.098	-4.44
204.317	46.76
204.536	28.33
204.755	20.14
204.974	40.62
205.193	38.57
205.411	54.95
205.63	65.19
205.849	116.39
206.068	11.95
206.287	24.23
206.505	7.85
206.724	32.43
206.943	5.8
207.162	-26.96
207.381	18.09
207.599	46.76
207.818	-10.58
208.037	67.24
208.255	-45.4
208.474	81.58
208.693	48.81
208.911	-57.68
209.13	-6.49
209.349	16.04
209.567	-24.92
209.786	34.47
210.005	36.52
210.223	67.24
210.442	-76.12
210.661	24.23
210.879	5.8
211.098	-24.92
211.316	69.29
211.535	102.06
211.753	-8.53
211.972	-18.77
212.191	16.04
212.409	28.33
212.628	-8.53
212.846	36.52
213.065	24.23
213.283	163.5
213.502	-47.44
213.72	7.85
213.938	28.33
214.157	26.28
214.375	52.91
214.594	32.43
214.812	50.86
215.031	63.15
215.249	-49.49
215.467	71.34
215.686	81.58
215.904	3.75
216.122	42.67
216.341	20.14
216.559	11.95
216.778	83.63
216.996	11.95
217.214	11.95
217.432	26.28
217.651	-4.44
217.869	75.43
218.087	73.39
218.306	-26.96
218.524	-0.34
218.742	79.53
218.96	54.95
219.179	22.19
219.397	30.38
219.615	87.72
219.833	28.33
220.051	30.38
220.27	77.48
220.488	-37.2
220.706	3.75
220.924	-8.53
221.142	65.19
221.36	5.8
221.578	32.43
221.796	11.95
222.015	-6.49
222.233	50.86
222.451	48.81
222.669	32.43
222.887	97.96
223.105	-96.6
223.323	42.67
223.541	-2.39
223.759	-39.25
223.977	26.28
224.195	44.71
224.413	20.14
224.631	24.23
224.849	46.76
225.067	59.05
225.285	7.85
225.503	26.28
225.721	3.75
225.939	16.04
226.157	52.91
226.375	73.39
226.592	-24.92
226.81	-31.06
227.028	57
227.246	18.09
227.464	18.09
227.682	-35.16
227.9	-37.2
228.117	34.47
228.335	22.19
228.553	75.43
228.771	9.9
228.989	40.62
229.206	30.38
229.424	-6.49
229.642	54.95
229.86	-59.73
230.077	-0.34
230.295	24.23
230.513	40.62
230.731	44.71
230.948	87.72
231.166	73.39
231.384	-76.12
231.601	34.47
231.819	59.05
232.037	-14.68
232.254	-24.92
232.472	-16.73
232.689	-4.44
232.907	83.63
233.125	75.43
233.342	28.33
233.56	36.52
233.777	-51.54
233.995	59.05
234.213	83.63
234.43	108.2
234.648	7.85
234.865	26.28
235.083	104.11
235.3	28.33
235.518	-69.97
235.735	108.2
235.953	77.48
236.17	-31.06
236.388	-2.39
236.605	-8.53
236.822	77.48
237.04	63.15
237.257	-35.16
237.475	-14.68
237.692	7.85
237.909	28.33
238.127	-22.87
238.344	-0.34
238.562	102.06
238.779	-6.49
238.996	22.19
239.214	32.43
239.431	9.9
239.648	59.05
239.865	48.81
240.083	7.85
240.3	-47.44
240.517	24.23
240.735	42.67
240.952	32.43
241.169	54.95
241.386	79.53
241.603	-6.49
241.821	-14.68
242.038	44.71
242.255	71.34
242.472	16.04
242.689	36.52
242.907	81.58
243.124	93.87
243.341	20.14
243.558	-6.49
243.775	-33.11
243.992	54.95
244.209	63.15
244.426	102.06
244.643	18.09
244.86	-29.01
245.078	69.29
245.295	34.47
245.512	44.71
245.729	5.8
245.946	52.91
246.163	20.14
246.38	7.85
246.597	26.28
246.814	-14.68
247.031	69.29
247.248	26.28
247.464	13.99
247.681	34.47
247.898	7.85
248.115	20.14
248.332	11.95
248.549	34.47
248.766	-22.87
248.983	118.44
249.2	-16.73
249.417	140.97
249.633	26.28
249.85	-22.87
250.067	93.87
250.284	13.99
250.501	65.19
250.717	42.67
250.934	28.33
251.151	59.05
251.368	-6.49
251.585	34.47
251.801	18.09
252.018	1.71
252.235	102.06
252.451	20.14
252.668	7.85
252.885	65.19
253.102	30.38
253.318	24.23
253.535	-0.34
253.752	3.75
253.968	13.99
254.185	-55.64
254.401	-26.96
254.618	87.72
254.835	34.47
255.051	75.43
255.268	46.76
255.484	9.9
255.701	-31.06
255.917	116.39
256.134	48.81
256.351	38.57
256.567	3.75
256.784	-61.78
257	-2.39
257.217	-12.63
257.433	81.58
257.65	42.67
257.866	54.95
258.082	-16.73
258.299	16.04
258.515	-18.77
258.732	-41.3
258.948	24.23
259.165	-18.77
259.381	-14.68
259.597	59.05
259.814	95.91
260.03	34.47
260.246	20.14
260.463	42.67
260.679	71.34
260.895	-6.49
261.112	-16.73
261.328	34.47
261.544	-6.49
261.761	57
261.977	54.95
262.193	7.85
262.409	36.52
262.626	42.67
262.842	40.62
263.058	34.47
263.274	44.71
263.49	102.06
263.707	24.23
263.923	46.76
264.139	9.9
264.355	44.71
264.571	48.81
264.787	52.91
265.004	42.67
265.22	30.38
265.436	-29.01
265.652	79.53
265.868	18.09
266.084	5.8
266.3	26.28
266.516	32.43
266.732	-6.49
266.948	63.15
267.164	-0.34
267.38	26.28
267.596	-20.82
267.812	83.63
268.028	24.23
268.244	-29.01
268.46	30.38
268.676	-2.39
268.892	104.11
269.108	13.99
269.324	61.1
269.54	77.48
269.756	9.9
269.972	-0.34
270.188	38.57
270.403	11.95
270.619	110.25
270.835	32.43
271.051	77.48
271.267	-24.92
271.483	65.19
271.698	32.43
271.914	9.9
272.13	44.71
272.346	100.01
272.562	32.43
272.777	104.11
272.993	44.71
273.209	26.28
273.425	73.39
273.64	-12.63
273.856	24.23
274.072	16.04
274.287	1.71
274.503	73.39
274.719	34.47
274.934	16.04
275.15	-0.34
275.366	11.95
275.581	7.85
275.797	100.01
276.012	73.39
276.228	30.38
276.444	-18.77
276.659	63.15
276.875	22.19
277.09	16.04
277.306	-14.68
277.521	106.15
277.737	36.52
277.952	87.72
278.168	28.33
278.383	75.43
278.599	102.06
278.814	-4.44
279.03	97.96
279.245	36.52
279.461	48.81
279.676	38.57
279.892	34.47
280.107	44.71
280.322	54.95
280.538	24.23
280.753	50.86
280.969	26.28
281.184	-0.34
281.399	83.63
281.615	30.38
281.83	42.67
282.045	11.95
282.26	5.8
282.476	-0.34
282.691	73.39
282.906	-41.3
283.122	-31.06
283.337	-26.96
283.552	52.91
283.767	-37.2
283.983	106.15
284.198	1.71
284.413	-16.73
284.628	63.15
284.843	81.58
285.058	11.95
285.274	13.99
285.489	-0.34
285.704	-22.87
285.919	-4.44
286.134	-0.34
286.349	40.62
286.564	-12.63
286.779	32.43
286.995	38.57
287.21	44.71
287.425	9.9
287.64	71.34
287.855	32.43
288.07	-53.59
288.285	67.24
288.5	65.19
288.715	44.71
288.93	22.19
289.145	-20.82
289.36	28.33
289.575	-26.96
289.79	106.15
290.004	42.67
290.219	54.95
290.434	-26.96
290.649	36.52
290.864	57
291.079	54.95
291.294	77.48
291.509	20.14
291.724	-0.34
291.938	32.43
292.153	97.96
292.368	16.04
292.583	57
292.798	18.09
293.012	-29.01
293.227	52.91
293.442	26.28
293.657	30.38
293.871	54.95
294.086	-26.96
294.301	100.01
294.516	75.43
294.73	65.19
294.945	-0.34
295.16	36.52
295.374	-18.77
295.589	77.48
295.804	44.71
296.018	28.33
296.233	59.05
296.447	50.86
296.662	13.99
296.877	42.67
297.091	42.67
297.306	57
297.52	32.43
297.735	-6.49
297.949	71.34
298.164	-10.58
298.378	30.38
298.593	1.71
298.807	-18.77
299.022	114.34
299.236	22.19
299.451	67.24
299.665	-20.82
299.88	32.43
300.094	48.81
300.309	3.75
300.523	61.1
300.737	-0.34
300.952	3.75
301.166	24.23
301.381	54.95
301.595	32.43
301.809	-41.3
302.024	-8.53
302.238	61.1
302.452	44.71
302.667	-2.39
302.881	85.67
303.095	122.54
303.309	59.05
303.524	5.8
303.738	93.87
303.952	36.52
304.166	110.25
304.381	-26.96
304.595	50.86
304.809	-47.44
305.023	36.52
305.237	77.48
305.452	48.81
305.666	11.95
305.88	50.86
306.094	36.52
306.308	104.11
306.522	38.57
306.736	59.05
306.95	52.91
307.164	85.67
307.379	-24.92
307.593	138.92
307.807	-2.39
308.021	40.62
308.235	44.71
308.449	26.28
308.663	61.1
308.877	44.71
309.091	-10.58
309.305	118.44
309.519	-35.16
309.733	61.1
309.947	112.3
310.161	9.9
310.374	104.11
310.588	34.47
310.802	75.43
311.016	46.76
311.23	24.23
311.444	-18.77
311.658	-88.4
311.872	79.53
312.085	16.04
312.299	18.09
312.513	138.92
312.727	91.82
312.941	38.57
313.154	-16.73
313.368	36.52
313.582	71.34
313.796	38.57
314.009	38.57
314.223	104.11
314.437	42.67
314.651	-12.63
314.864	13.99
315.078	20.14
315.292	18.09
315.505	-22.87
315.719	20.14
315.933	24.23
316.146	81.58
316.36	40.62
316.573	65.19
316.787	-47.44
317.001	97.96
317.214	-12.63
317.428	126.63
317.641	108.2
317.855	-8.53
318.068	1.71
318.282	24.23
318.495	18.09
318.709	38.57
318.922	63.15
319.136	24.23
319.349	40.62
319.563	11.95
319.776	26.28
319.99	67.24
320.203	32.43
320.417	9.9
320.63	36.52
320.843	77.48
321.057	52.91
321.27	67.24
321.483	42.67
321.697	61.1
321.91	65.19
322.124	22.19
322.337	61.1
322.55	93.87
322.763	38.57
322.977	46.76
323.19	26.28
323.403	73.39
323.617	83.63
323.83	81.58
324.043	34.47
324.256	46.76
324.469	-12.63
324.683	30.38
324.896	61.1
325.109	30.38
325.322	9.9
325.535	65.19
325.748	147.11
325.962	59.05
326.175	75.43
326.388	-16.73
326.601	38.57
326.814	67.24
327.027	61.1
327.24	36.52
327.453	-59.73
327.666	38.57
327.879	57
328.092	46.76
328.305	65.19
328.518	59.05
328.731	1.71
328.944	5.8
329.157	-45.4
329.37	65.19
329.583	65.19
329.796	112.3
330.009	-16.73
330.222	100.01
330.435	13.99
330.648	67.24
330.861	112.3
331.073	26.28
331.286	69.29
331.499	46.76
331.712	65.19
331.925	59.05
332.138	7.85
332.35	91.82
332.563	-35.16
332.776	104.11
332.989	38.57
333.202	-4.44
333.414	46.76
333.627	13.99
333.84	63.15
334.053	40.62
334.265	63.15
334.478	30.38
334.691	24.23
334.903	79.53
335.116	36.52
335.329	-6.49
335.541	-22.87
335.754	93.87
335.966	71.34
336.179	50.86
336.392	61.1
336.604	18.09
336.817	36.52
337.029	71.34
337.242	48.81
337.454	165.54
337.667	42.67
337.88	95.91
338.092	26.28
338.305	59.05
338.517	46.76
338.729	44.71
338.942	112.3
339.154	-22.87
339.367	26.28
339.579	28.33
339.792	16.04
340.004	40.62
340.217	-6.49
340.429	36.52
340.641	87.72
340.854	1.71
341.066	85.67
341.278	75.43
341.491	126.63
341.703	34.47
341.915	16.04
342.128	79.53
342.34	13.99
342.552	50.86
342.764	-12.63
342.977	-10.58
343.189	54.95
343.401	-8.53
343.613	-55.64
343.826	65.19
344.038	-51.54
344.25	34.47
344.462	-16.73
344.674	48.81
344.886	69.29
345.099	52.91
345.311	-84.31
345.523	48.81
345.735	-39.25
345.947	32.43
346.159	20.14
346.371	61.1
346.583	-53.59
346.795	79.53
347.007	42.67
347.219	59.05
347.431	63.15
347.643	75.43
347.855	22.19
348.067	102.06
348.279	44.71
348.491	9.9
348.703	93.87
348.915	3.75
349.127	28.33
349.339	63.15
349.551	79.53
349.763	91.82
349.975	65.19
350.187	79.53
350.399	100.01
350.61	89.77
350.822	32.43
351.034	65.19
351.246	38.57
351.458	28.33
351.669	126.63
351.881	102.06
352.093	79.53
352.305	26.28
352.517	77.48
352.728	134.82
352.94	38.57
353.152	61.1
353.363	-12.63
353.575	73.39
353.787	108.2
353.999	-33.11
354.21	134.82
354.422	-0.34
354.633	89.77
354.845	85.67
355.057	59.05
355.268	77.48
355.48	52.91
355.692	71.34
355.903	54.95
356.115	-0.34
356.326	36.52
356.538	71.34
356.749	100.01
356.961	50.86
357.172	89.77
357.384	46.76
357.595	85.67
357.807	5.8
358.018	73.39
358.23	42.67
358.441	75.43
358.653	36.52
358.864	5.8
359.075	48.81
359.287	57
359.498	59.05
359.709	79.53
359.921	95.91
360.132	132.78
360.344	38.57
360.555	3.75
360.766	75.43
360.977	-43.35
361.189	138.92
361.4	36.52
361.611	40.62
361.823	155.3
362.034	-10.58
362.245	3.75
362.456	73.39
362.667	75.43
362.879	75.43
363.09	20.14
363.301	13.99
363.512	3.75
363.723	40.62
363.935	67.24
364.146	104.11
364.357	36.52
364.568	83.63
364.779	24.23
364.99	93.87
365.201	-59.73
365.412	65.19
365.623	73.39
365.834	63.15
366.045	75.43
366.256	24.23
366.467	79.53
366.678	75.43
366.889	71.34
367.1	97.96
367.311	65.19
367.522	97.96
367.733	-29.01
367.944	67.24
368.155	36.52
368.366	79.53
368.577	57
368.788	54.95
368.999	57
369.209	85.67
369.42	18.09
369.631	159.4
369.842	40.62
370.053	59.05
370.264	112.3
370.474	57
370.685	67.24
370.896	46.76
371.107	57
371.317	69.29
371.528	95.91
371.739	59.05
371.95	124.58
372.16	102.06
372.371	73.39
372.582	126.63
372.792	106.15
373.003	13.99
373.214	69.29
373.424	26.28
373.635	26.28
373.846	106.15
374.056	91.82
374.267	106.15
374.477	32.43
374.688	100.01
374.898	79.53
375.109	75.43
375.319	11.95
375.53	73.39
375.74	93.87
375.951	50.86
376.161	155.3
376.372	44.71
376.582	95.91
376.793	85.67
377.003	50.86
377.214	87.72
377.424	112.3
377.635	48.81
377.845	75.43
378.055	100.01
378.266	40.62
378.476	91.82
378.686	77.48
378.897	95.91
379.107	-0.34
379.317	20.14
379.528	18.09
379.738	-14.68
379.948	18.09
380.158	83.63
380.369	50.86
380.579	85.67
380.789	83.63
380.999	149.16
381.21	71.34
381.42	140.97
381.63	3.75
381.84	91.82
382.05	93.87
382.261	87.72
382.471	83.63
382.681	28.33
382.891	102.06
383.101	28.33
383.311	44.71
383.521	32.43
383.731	87.72
383.941	112.3
384.151	71.34
384.361	-6.49
384.571	81.58
384.781	83.63
384.991	69.29
385.201	114.34
385.411	81.58
385.621	59.05
385.831	114.34
386.041	89.77
386.251	-31.06
386.461	95.91
386.671	26.28
386.881	44.71
387.091	46.76
387.301	48.81
387.511	97.96
387.72	79.53
387.93	97.96
388.14	-12.63
388.35	50.86
388.56	20.14
388.769	42.67
388.979	116.39
389.189	65.19
389.399	110.25
389.609	61.1
389.818	157.35
390.028	73.39
390.238	75.43
390.447	30.38
390.657	26.28
390.867	38.57
391.076	57
391.286	106.15
391.496	65.19
391.705	69.29
391.915	140.97
392.125	89.77
392.334	71.34
392.544	42.67
392.753	147.11
392.963	71.34
393.172	-18.77
393.382	89.77
393.591	59.05
393.801	28.33
394.01	145.06
394.22	126.63
394.429	106.15
394.639	114.34
394.848	100.01
395.058	161.45
395.267	112.3
395.477	91.82
395.686	71.34
395.895	149.16
396.105	188.07
396.314	159.4
396.524	116.39
396.733	112.3
396.942	134.82
397.152	136.87
397.361	128.68
397.57	138.92
397.78	171.69
397.989	161.45
398.198	155.3
398.407	192.17
398.617	93.87
398.826	208.55
399.035	116.39
399.244	112.3
399.453	145.06
399.663	155.3
399.872	239.27
400.081	149.16
400.29	159.4
400.499	104.11
400.708	155.3
400.917	138.92
401.127	183.98
401.336	147.11
401.545	128.68
401.754	136.87
401.963	147.11
402.172	106.15
402.381	132.78
402.59	167.59
402.799	151.21
403.008	179.88
403.217	87.72
403.426	186.02
403.635	134.82
403.844	140.97
404.053	212.65
404.262	253.61
404.471	226.98
404.68	272.04
404.888	237.22
405.097	179.88
405.306	263.85
405.515	186.02
405.724	186.02
405.933	212.65
406.142	249.51
406.35	315.05
406.559	265.89
406.768	235.18
406.977	286.37
407.185	263.85
407.394	335.53
407.603	257.7
407.812	321.19
408.02	323.24
408.229	302.76
408.438	321.19
408.646	351.91
408.855	315.05
409.064	362.15
409.272	335.53
409.481	394.92
409.69	315.05
409.898	396.96
410.107	528.03
410.315	425.64
410.524	435.88
410.733	519.84
410.941	460.45
411.15	515.75
411.358	429.73
411.567	482.98
411.775	583.33
411.984	474.79
412.192	542.37
412.401	593.57
412.609	661.15
412.818	579.23
413.026	657.06
413.234	568.99
413.443	761.5
413.651	771.74
413.86	843.42
414.068	820.89
414.276	853.66
414.485	804.51
414.693	954.01
414.901	904.86
415.11	945.82
415.318	949.92
415.526	1046.17
415.734	1054.36
415.943	1007.26
416.151	1138.33
416.359	1183.38
416.567	1220.25
416.776	1244.82
416.984	1277.59
417.192	1312.41
417.4	1277.59
417.608	1482.39
417.817	1500.82
418.025	1468.05
418.233	1599.12
418.441	1529.49
418.649	1713.81
418.857	1744.53
419.065	1654.42
419.273	1797.78
419.481	1758.86
419.689	2098.83
419.897	2045.58
420.105	2152.07
420.313	2092.68
420.521	2215.56
420.729	2311.82
420.937	2295.43
421.145	2367.11
421.353	2547.33
421.561	2645.63
421.769	2696.83
421.977	2911.87
422.185	2741.89
422.393	3083.9
422.601	3122.81
422.809	3014.27
423.017	3096.19
423.224	3225.21
423.432	3595.89
423.64	3423.86
423.848	3667.57
424.056	3579.51
424.263	4097.64
424.471	3952.24
424.679	3958.38
424.887	4161.13
425.094	4390.5
425.302	4406.89
425.51	4691.56
425.718	4777.57
425.925	4771.43
426.133	4888.16
426.341	5205.6
426.548	5400.15
426.756	5430.87
426.964	5588.57
427.171	5670.48
427.379	6037.07
427.586	6143.56
427.794	6280.78
428.001	6739.52
428.209	6733.38
428.417	6770.24
428.624	7085.63
428.832	7257.66
429.039	7228.99
429.247	7276.09
429.454	7822.9
429.662	8461.87
429.869	7929.39
430.076	8506.92
430.284	8261.16
430.491	8654.37
430.699	9088.54
430.906	9111.07
431.114	9268.77
431.321	9844.24
431.528	9680.41
431.736	10196.5
431.943	10767.88
432.15	10419.72
432.358	10690.06
432.565	11070.98
432.772	11222.53
432.979	11728.38
433.187	12111.35
433.394	12045.81
433.601	12592.62
433.808	13059.56
434.016	12809.7
434.223	13188.58
434.43	14126.55
434.637	13854.17
434.844	14788.04
435.052	14824.9
435.259	14829
435.466	15140.29
435.673	14919.11
435.88	15840.7
436.087	16909.74
436.294	16530.86
436.501	16410.03
436.708	16639.4
436.915	17210.79
437.122	17776.03
437.329	17991.06
437.537	18425.23
437.743	19025.29
437.95	18675.09
438.157	19381.63
438.364	20352.37
438.571	20381.04
438.778	20481.39
438.985	22353.24
439.192	21181.8
439.399	22183.26
439.606	21902.68
439.813	22869.33
440.02	24186.17
440.227	23760.19
440.433	23092.55
440.64	24200.51
440.847	24227.13
441.054	24976.69
441.261	26522.9
441.467	26062.11
441.674	26742.03
441.881	27768.07
442.088	27909.38
442.294	27342.09
442.501	28054.78
442.708	28574.97
442.914	29986.02
443.121	30577.88
443.328	30092.51
443.534	32062.66
443.741	31272.14
443.948	30862.55
444.154	33264.82
444.361	32844.98
444.568	33166.51
444.774	33027.25
444.981	33442.99
445.187	34585.75
445.394	35816.58
445.6	35679.37
445.807	38634.59
446.013	37170.29
446.22	37987.43
446.426	39181.4
446.633	39547.98
446.839	41182.26
447.046	39265.36
447.252	41448.5
447.459	41794.6
447.665	41583.66
447.871	43105.3
448.078	45280.25
448.284	43007
448.491	43844.62
448.697	45851.63
448.903	46414.82
449.11	46488.55
449.316	45937.65
449.522	46853.09
449.728	48387.02
449.935	48391.11
450.141	48004.05
450.347	49517.5
450.553	47784.91
450.76	48765.89
450.966	50115.5
451.172	49748.92
451.378	50817.96
451.584	49777.59
451.791	50934.69
451.997	51297.18
452.203	51784.6
452.409	51893.14
452.615	51157.92
452.821	49347.51
453.027	49265.59
453.233	51704.73
453.44	50101.17
453.646	50037.68
453.852	50731.94
454.058	51489.69
454.264	49570.74
454.47	50987.94
454.676	49945.52
454.882	51553.18
455.088	47242.2
455.294	47852.5
455.5	48366.54
455.705	48835.52
455.911	46930.91
456.117	46412.77
456.323	45714.42
456.529	43271.19
456.735	45206.52
456.941	44395.53
457.147	43258.9
457.352	41950.25
457.558	41808.94
457.764	42064.94
457.97	41036.86
458.176	40049.74
458.381	40444.99
458.587	37739.63
458.793	38157.41
458.999	36299.9
459.204	38755.42
459.41	37756.01
459.616	35054.74
459.821	35259.54
460.027	35093.65
460.233	34858.13
460.438	32873.65
460.644	32754.87
460.85	31493.32
461.055	31366.35
461.261	31171.79
461.466	29011.18
461.672	28052.73
461.878	30016.74
462.083	27899.14
462.289	27331.85
462.494	27204.88
462.7	25793.83
462.905	25343.27
463.111	25974.05
463.316	26330.39
463.522	25728.29
463.727	25591.08
463.932	25699.62
464.138	25212.2
464.343	25330.98
464.549	24788.27
464.754	25675.04
464.959	25197.87
465.165	24913.2
465.37	23977.28
465.575	23283.02
465.781	24522.04
465.986	24503.6
466.191	23543.11
466.397	23139.66
466.602	21773.66
466.807	22902.09
467.012	23016.78
467.218	22478.16
467.423	22549.84
467.628	22685.01
467.833	23532.87
468.038	22865.23
468.244	22125.91
468.449	22668.62
468.654	22216.02
468.859	22005.08
469.064	21859.68
469.269	21261.67
469.474	21173.61
469.679	21644.64
469.885	21153.13
470.09	21288.29
470.295	20964.71
470.5	20317.56
470.705	20766.06
470.91	20225.4
471.115	20442.48
471.32	20440.43
471.525	20112.76
471.73	19897.72
471.935	19541.38
472.139	19084.68
472.344	19418.5
472.549	19361.16
472.754	19133.83
472.959	18382.23
473.164	18351.51
473.369	18132.37
473.574	18419.09
473.778	18093.46
473.983	17999.26
474.188	18173.33
474.393	17452.45
474.598	17358.24
474.802	17165.73
475.007	17268.13
475.212	17036.71
475.417	16485.81
475.621	16430.51
475.826	16483.76
476.031	16485.81
476.235	15848.89
476.44	16387.5
476.645	15773.11
476.849	15893.94
477.054	15814.07
477.259	15402.43
477.463	15418.82
477.668	15156.68
477.872	15400.38
478.077	15072.71
478.282	14628.3
478.486	14486.99
478.691	14546.38
478.895	14511.57
479.1	14091.73
479.304	14523.85
479.509	13856.22
479.713	14196.18
479.918	13888.98
480.122	13671.9
480.326	14009.81
480.531	14015.96
480.735	13659.61
480.94	13442.53
481.144	13972.95
481.348	13311.46
481.553	13434.33
481.757	13164
481.961	13319.65
482.166	13612.51
482.37	13243.87
482.574	13284.83
482.778	13471.2
482.983	13637.08
483.187	13268.45
483.391	13274.59
483.595	12916.2
483.8	13045.22
484.004	13102.56
484.208	13151.71
484.412	13290.98
484.616	13092.32
484.821	13207.01
485.025	13016.55
485.229	13352.41
485.433	12889.57
485.637	13207.01
485.841	12934.63
486.045	13155.81
486.249	13204.96
486.453	13133.28
486.657	13071.84
486.861	13100.51
487.065	12738.02
487.269	13151.71
487.473	13008.36
487.677	13342.18
487.881	13217.25
488.085	13065.7
488.289	13084.13
488.493	13059.56
488.697	13272.54
488.901	13077.99
489.105	13106.66
489.309	13331.94
489.512	13241.82
489.716	13250.02
489.92	13350.37
490.124	13266.4
490.328	13553.12
490.531	13338.08
490.735	13522.4
490.939	13409.76
491.143	13243.87
491.346	13520.35
491.55	13694.43
491.754	13735.39
491.958	13817.3
492.161	13673.95
492.365	13741.53
492.569	13790.68
492.772	13786.58
492.976	13905.37
493.18	13987.29
493.383	13843.93
493.587	14015.96
493.79	14364.11
493.994	14181.84
494.197	14400.97
494.401	14386.64
494.605	14683.59
494.808	14749.13
495.012	14636.49
495.215	14884.3
495.419	14775.75
495.622	14575.05
495.825	15039.94
496.029	14929.35
496.232	15570.37
496.436	15672.76
496.639	15689.15
496.843	15470.01
497.046	15943.1
497.249	16082.36
497.453	16111.03
497.656	16287.15
497.859	16356.79
498.063	16645.55
498.266	16721.32
498.469	17040.81
498.673	17190.31
498.876	17311.14
499.079	17321.38
499.282	17483.17
499.485	17796.51
499.689	18077.08
499.892	17907.1
500.095	18029.98
500.298	18838.92
500.501	18169.24
500.705	19021.19
500.908	19174.79
501.111	19078.54
501.314	19187.08
501.517	19750.27
501.72	19922.3
501.923	19922.3
502.126	20176.25
502.329	20477.3
502.532	20546.93
502.735	20741.49
502.938	21103.98
503.141	21097.83
503.344	21753.18
503.547	21536.1
503.75	21849.44
503.953	22095.19
504.156	22584.66
504.359	22545.75
504.562	22453.59
504.765	23076.17
504.968	23461.19
505.17	23440.71
505.373	23508.29
505.576	24026.43
505.779	24378.68
505.982	24571.19
506.185	24782.13
506.387	24919.34
506.59	25097.52
506.793	25347.37
506.996	25333.03
507.198	26483.99
507.401	26189.08
507.604	26527
507.807	26664.21
508.009	27170.06
508.212	26995.98
508.415	27366.67
508.617	27931.9
508.82	28046.59
509.022	27862.27
509.225	28501.24
509.428	28779.76
509.63	29340.91
509.833	28957.94
510.035	29750.5
510.238	29414.63
510.44	29965.54
510.643	30409.95
510.845	30960.85
511.048	30411.99
511.25	31196.37
511.453	31091.92
511.655	32478.4
511.858	32033.99
512.06	32253.12
512.262	32545.98
512.465	32361.66
512.667	32795.83
512.87	33166.51
513.072	33150.13
513.274	33658.03
513.477	34319.52
513.679	34405.53
513.881	34786.46
514.084	35122.32
514.286	35325.07
514.488	35214.48
514.69	36015.24
514.893	36627.58
515.095	36533.37
515.297	36744.31
515.499	36768.89
515.701	37612.65
515.904	37563.5
516.106	38042.73
516.308	38132.84
516.51	38460.51
516.712	38659.16
516.914	38720.6
517.116	39650.38
517.318	39595.09
517.52	39820.36
517.722	39930.95
517.925	40438.85
518.127	41110.58
518.329	41436.21
518.531	41212.98
518.733	41800.75
518.935	41915.44
519.136	42087.46
519.338	42398.76
519.54	42501.15
519.742	42916.89
519.944	43060.25
520.146	43936.78
520.348	44076.04
520.55	44127.24
520.752	44381.19
520.954	45095.93
521.155	44403.72
521.357	45272.06
521.559	45616.11
521.761	46169.07
521.963	45947.89
522.164	46078.96
522.366	46234.6
522.568	46685.15
522.77	46861.28
522.971	47610.84
523.173	46742.5
523.375	47590.36
523.576	47690.71
523.778	47559.64
523.98	48133.07
524.181	48327.63
524.383	48143.31
524.584	48712.64
524.786	48980.93
524.988	48880.58
525.189	49191.87
525.391	49374.14
525.592	50090.93
525.794	49564.6
525.995	49847.22
526.197	49699.76
526.398	50340.78
526.6	50512.81
526.801	50363.31
527.003	50281.39
527.204	51329.95
527.406	51039.14
527.607	50889.63
527.808	51182.49
528.01	50740.13
528.211	51032.99
528.412	52452.23
528.614	51919.76
528.815	51921.81
529.016	52210.57
529.218	51792.79
529.419	51768.21
529.62	51968.91
529.822	51919.76
530.023	52034.45
530.224	51710.87
530.425	52458.38
530.626	51809.17
530.828	51796.88
531.029	53334.91
531.23	52011.92
531.431	52450.19
531.632	52503.43
531.833	52476.81
532.035	52382.6
532.236	52534.15
532.437	52755.33
532.638	52470.67
532.839	52972.42
533.04	53257.09
533.241	52482.95
533.442	53418.88
533.643	52824.96
533.844	52747.14
534.045	53189.5
534.246	52390.8
534.447	53148.54
534.648	52579.21
534.849	53005.19
535.05	52409.23
535.251	52792.2
535.451	52861.83
535.652	52839.3
535.853	52794.25
536.054	53220.22
536.255	52984.71
536.456	52515.72
536.657	53351.29
536.857	52732.81
537.058	52689.8
537.259	53066.62
537.46	52908.93
537.66	52415.37
537.861	53095.3
538.062	52913.03
538.263	52482.95
538.463	52697.99
538.664	52966.27
538.865	52550.54
539.065	52908.93
539.266	52157.33
539.466	52992.9
539.667	52523.91
539.868	53076.86
540.068	52577.16
540.269	52337.55
540.469	52599.69
540.67	52517.77
540.87	52114.32
541.071	52485
541.271	52542.34
541.472	52401.04
541.672	52149.13
541.873	52317.07
542.073	51821.46
542.274	52917.12
542.474	51997.59
542.675	51979.15
542.875	52407.18
543.075	52501.39
543.276	51886.99
543.476	52142.99
543.676	52001.68
543.877	52325.26
544.077	52581.26
544.277	52300.68
544.478	52124.56
544.678	52022.16
544.878	51944.34
545.078	52177.81
545.279	52147.09
545.479	52052.88
545.679	52360.08
545.879	52151.18
546.079	52480.91
546.28	51727.25
546.48	51915.67
546.68	52222.86
546.88	51846.04
547.08	52042.64
547.28	52036.5
547.48	52157.33
547.68	52108.18
547.88	51186.59
548.081	52194.19
548.281	51833.75
548.481	51542.94
548.681	52003.73
548.881	51551.13
549.081	51862.42
549.28	51628.95
549.48	51852.18
549.68	51874.71
549.88	52028.3
550.08	51641.24
550.28	51426.2
550.48	51477.4
550.68	51737.49
550.88	51438.49
551.08	51571.61
551.279	51485.59
551.479	51415.96
551.679	51504.02
551.879	51536.79
552.079	51669.91
552.278	51321.76
552.478	51432.35
552.678	51389.34
552.878	51616.66
553.077	51202.97
553.277	50922.4
553.477	51463.07
553.676	51035.04
553.876	51256.22
554.076	51084.19
554.275	51016.61
554.475	50076.59
554.674	51325.85
554.874	51012.51
555.074	50502.57
555.273	51108.77
555.473	51192.73
555.672	50490.28
555.872	50715.56
556.071	51080.1
556.271	51112.86
556.47	50637.73
556.67	50398.12
556.869	50715.56
557.068	50371.5
557.268	50244.52
557.467	50252.72
557.667	50459.56
557.866	50201.52
558.065	50447.27
558.265	50039.73
558.464	50373.55
558.663	50555.82
558.863	49738.68
559.062	50592.68
559.261	49769.4
559.461	50154.41
559.66	49431.48
559.859	50361.26
560.058	49671.09
560.258	49904.56
560.457	49425.34
560.656	50129.84
560.855	49198.01
561.054	49998.77
561.253	49667
561.453	49738.68
561.652	49521.59
561.851	49808.31
562.05	49210.3
562.249	49218.49
562.448	49628.09
562.647	49490.87
562.846	49222.59
563.045	49193.92
563.244	48319.43
563.443	49480.63
563.642	48307.15
563.841	48524.23
564.04	48575.43
564.239	49267.64
564.438	48446.41
564.637	49167.29
564.836	49025.98
565.035	48045.01
565.234	48518.09
565.432	48481.22
565.631	47901.65
565.83	48337.87
566.029	48057.29
566.228	47793.11
566.427	47834.06
566.625	48002
566.824	47483.86
567.023	47717.33
567.222	46892
567.42	48405.45
567.619	47172.57
567.818	47477.72
568.016	47336.41
568.215	47598.55
568.414	47313.88
568.612	47612.88
568.811	46902.24
569.01	47336.41
569.208	46681.06
569.407	47256.54
569.605	46162.92
569.804	47053.79
570.002	46504.93
570.201	46689.25
570.4	46545.89
570.598	46253.03
570.797	45878.25
570.995	46369.77
571.193	45849.58
571.392	46564.32
571.59	45661.17
571.789	46058.48
571.987	45700.08
572.186	45884.4
572.384	45442.04
572.582	45493.24
572.781	45747.18
572.979	45208.57
573.177	45454.33
573.376	45376.5
573.574	45210.62
573.772	45378.55
573.971	45663.22
574.169	45136.89
574.367	44592.13
574.565	45257.72
574.763	44825.6
574.962	44399.62
575.16	44454.92
575.358	44592.13
575.556	43887.63
575.754	44602.37
575.952	44119.05
576.151	44645.38
576.349	43955.21
576.547	44319.75
576.745	43996.17
576.943	43793.42
577.141	44020.75
577.339	43756.56
577.537	43535.38
577.735	43621.39
577.933	43297.81
578.131	43600.91
578.329	43205.66
578.527	43097.11
578.725	43240.47
578.923	43648.02
579.121	42658.85
579.319	42847.26
579.516	42929.18
579.714	42787.87
579.912	42654.75
580.11	42478.63
580.308	42589.22
580.506	42038.31
580.704	41694.25
580.901	42261.54
581.099	42478.63
581.297	42189.86
581.495	41413.68
581.692	41751.6
581.89	41331.76
582.088	41722.93
582.285	41745.45
582.483	41606.19
582.681	41081.91
582.878	41397.3
583.076	41215.03
583.274	41208.89
583.471	40569.92
583.669	40916.03
583.866	40672.32
584.064	40444.99
584.262	40565.82
584.459	40979.51
584.657	40344.64
584.854	40545.34
585.052	39982.15
585.249	40338.5
585.447	40320.07
585.644	39914.57
585.841	39724.11
586.039	40451.14
586.236	39345.23
586.434	39609.42
586.631	39361.62
586.828	39449.68
587.026	38898.78
587.223	39138.39
587.42	39167.06
587.618	39165.01
587.815	38872.15
588.012	38579.29
588.21	38143.08
588.407	38947.93
588.604	38261.86
588.801	38055.01
588.999	38546.53
589.196	38229.09
589.393	38499.42
589.59	37977.19
589.787	38034.53
589.984	37698.67
590.182	37698.67
590.379	37862.5
590.576	37760.11
590.773	37377.14
590.97	37305.46
591.167	37133.43
591.364	36666.49
591.561	37366.9
591.758	36650.11
591.955	37004.41
592.152	37287.03
592.349	36529.28
592.546	36627.58
592.743	36646.01
592.94	36021.38
593.137	36371.58
593.334	36258.95
593.531	35966.09
593.727	36181.12
593.924	35994.76
594.121	35499.15
594.318	35830.92
594.515	35241.1
594.712	35806.34
594.908	35253.39
595.105	35374.22
595.302	35015.83
595.499	35427.47
595.696	34866.33
595.892	34663.58
596.089	34833.56
596.286	34710.68
596.482	34774.17
596.679	34817.18
596.876	34430.11
597.072	34393.25
597.269	34600.09
597.466	33830.05
597.662	34460.83
597.859	33889.45
598.055	33856.68
598.252	33930.4
598.448	33780.9
598.645	33868.97
598.841	33115.31
599.038	33238.19
599.234	33453.23
599.431	33119.41
599.627	32953.52
599.824	33318.06
600.02	32935.09
600.217	32980.15
600.413	32779.45
600.609	32722.1
600.806	32580.79
601.002	32480.44
601.198	32273.6
601.395	32216.26
601.591	32128.19
601.787	32033.99
601.984	31843.52
602.18	32124.1
602.376	31577.29
602.572	31714.5
602.769	31943.88
602.965	31282.38
603.161	31620.3
603.357	31333.58
603.553	31286.48
603.75	31175.89
603.946	30883.03
604.142	31507.66
604.338	30999.76
604.534	30880.98
604.73	30588.12
604.926	30780.63
605.122	30659.8
605.318	30495.96
605.514	30276.83
605.71	29897.95
605.906	30016.74
606.102	30131.42
606.298	30440.67
606.494	30289.12
606.69	30209.25
606.886	29953.25
607.082	29523.18
607.278	30096.61
607.474	29355.24
607.67	29783.27
607.866	29388.01
608.062	29646.05
608.257	29367.53
608.453	29314.28
608.649	29453.55
608.845	29123.82
609.041	29089.01
609.236	29218.03
609.432	29021.42
609.628	29181.17
609.824	29170.93
610.019	28521.72
610.215	29017.33
610.411	29023.47
610.606	28318.97
610.802	28845.3
610.998	28577.01
611.193	28724.47
611.389	28437.75
611.584	28228.86
611.78	28128.51
611.976	28425.46
612.171	28333.31
612.367	28151.04
612.562	28210.43
612.758	27815.17
612.953	27796.74
613.149	28304.63
613.344	27909.38
613.539	28243.2
613.735	27477.26
613.93	27772.16
614.126	27475.21
614.321	27624.71
614.517	27608.33
614.712	27682.05
614.907	27442.44
615.103	27841.79
615.298	27378.95
615.493	27749.64
615.688	27084.05
615.884	27634.95
616.079	27299.08
616.274	27403.53
616.47	27008.27
616.665	27116.81
616.86	27018.51
617.055	26797.33
617.25	26750.23
617.445	26959.12
617.641	26451.22
617.836	26998.03
618.031	26594.58
618.226	26527
618.421	26144.03
618.616	26723.6
618.811	26238.23
619.006	26649.88
619.201	25785.63
619.396	26123.55
619.591	25832.74
619.786	25976.09
619.981	25652.52
620.176	25795.87
620.371	25648.42
620.566	25660.71
620.761	25425.19
620.956	25341.22
621.151	25335.08
621.346	25412.9
621.541	24702.26
621.735	25013.55
621.93	24728.88
622.125	24571.19
622.32	24284.47
622.515	24583.48
622.709	24286.52
622.904	24284.47
623.099	23893.31
623.294	24014.14
623.488	23754.05
623.683	23795.01
623.878	23240.01
624.072	23309.64
624.267	23436.61
624.462	23379.27
624.656	23180.62
624.851	23080.27
625.046	22846.8
625.24	22598.99
625.435	22586.71
625.629	22443.35
625.824	22185.3
626.018	22265.17
626.213	21869.92
626.407	22050.14
626.602	21964.12
626.796	21964.12
626.991	21990.75
627.185	21503.33
627.38	21411.17
627.574	21296.49
627.768	21278.05
627.963	21235.05
628.157	20858.22
628.352	20915.56
628.546	20751.73
628.74	20634.99
628.935	20475.25
629.129	20596.08
629.323	20235.64
629.517	20366.71
629.712	20225.4
629.906	19914.11
630.1	20077.94
630.294	19844.48
630.489	19744.13
630.683	19703.17
630.877	19441.03
631.071	19508.61
631.265	19176.84
631.459	19195.27
631.653	19041.67
631.848	19099.02
632.042	18900.36
632.236	18994.57
632.43	18806.16
632.624	18840.97
632.818	18443.67
633.012	18392.47
633.206	18306.45
633.4	18226.58
633.594	18072.98
633.788	18283.92
633.982	18048.41
634.176	17984.92
634.369	17946.01
634.563	17624.48
634.757	17587.61
634.951	17798.56
635.145	17378.72
635.339	17450.4
635.533	17196.45
635.726	17216.93
635.92	16987.56
636.114	17044.9
636.308	16985.51
636.501	17110.44
636.695	16721.32
636.889	16410.03
637.083	16557.49
637.276	16569.77
637.47	16254.39
637.664	16313.78
637.857	16299.44
638.051	16002.49
638.244	15986.1
638.438	16180.66
638.632	15742.39
638.825	15926.71
639.019	15635.9
639.212	15637.95
639.406	15881.66
639.599	15689.15
639.793	15445.44
639.986	15281.6
640.18	15293.89
640.373	15504.83
640.567	15011.27
640.76	15052.23
640.954	14951.88
641.147	14822.86
641.34	14749.13
641.534	14919.11
641.727	14972.36
641.92	14802.38
642.114	14757.32
642.307	14540.24
642.5	14400.97
642.694	14331.34
642.887	14441.93
643.08	14200.27
643.273	14196.18
643.467	14212.56
643.66	13938.13
643.853	13860.31
644.046	13751.77
644.239	13862.36
644.432	13819.35
644.626	13643.23
644.819	13512.16
645.012	13362.65
645.205	13506.01
645.398	13262.3
645.591	13250.02
645.784	13276.64
645.977	13037.03
646.17	13284.83
646.363	12897.77
646.556	12891.62
646.749	12815.85
646.942	12860.9
647.135	12832.23
647.328	12430.83
647.521	12490.22
647.714	12496.36
647.907	12541.42
648.099	12115.44
648.292	12568.04
648.485	12264.94
648.678	12301.81
648.871	12082.67
649.064	11988.47
649.256	12172.78
649.449	11873.78
649.642	11793.91
649.835	11779.57
650.027	11822.58
650.22	11748.86
650.413	11734.52
650.605	11800.05
650.798	11507.2
650.991	11265.53
651.183	11550.2
651.376	11259.39
651.568	11462.14
651.761	11390.46
651.954	11191.81
652.146	11048.45
652.339	11122.18
652.531	11052.55
652.724	10982.92
652.916	10728.97
653.109	10771.97
653.301	10864.13
653.494	10630.66
653.686	10659.34
653.879	10741.25
654.071	10548.75
654.263	10440.2
654.456	10380.81
654.648	10694.15
654.84	10198.54
655.033	10257.93
655.225	10409.48
655.417	10143.25
655.61	9946.64
655.802	10124.82
655.994	10128.91
656.186	10118.67
656.379	9985.55
656.571	9995.79
656.763	9664.02
656.955	9733.65
657.148	9825.81
657.34	10030.61
657.532	9338.4
657.724	9674.26
657.916	9405.98
658.108	9522.71
658.3	9647.64
658.492	9463.32
658.684	9279.01
658.876	9168.41
659.068	9272.86
659.26	9039.39
659.452	9209.37
659.644	9043.49
659.836	8906.27
660.028	8906.27
660.22	8971.81
660.412	9033.25
660.604	8887.84
660.796	8848.93
660.988	8599.08
661.18	8746.53
661.372	8789.54
661.563	8613.42
661.755	8582.7
661.947	8570.41
662.139	8574.5
662.331	8502.82
662.522	8314.41
662.714	8236.59
662.906	8166.96
663.097	8279.6
663.289	8150.57
663.481	8062.51
663.673	8128.05
663.864	8171.05
664.056	8035.89
664.247	7970.35
664.439	7765.56
664.631	8001.07
664.822	7835.19
665.014	7876.15
665.205	7831.09
665.397	7894.58
665.588	7740.98
665.78	7743.03
665.971	7579.19
666.163	7783.99
666.354	7351.87
666.546	7673.4
666.737	7566.9
666.929	7548.47
667.12	7527.99
667.311	7370.3
667.503	7474.74
667.694	7269.95
667.885	7362.11
668.077	7323.19
668.268	7206.46
668.459	7208.51
668.651	7001.66
668.842	7104.06
669.033	7198.27
669.224	7052.86
669.416	7218.75
669.607	7069.25
669.798	7018.05
669.989	7028.29
670.18	6929.98
670.371	6903.36
670.563	6880.83
670.754	6821.44
670.945	6782.53
671.136	6745.67
671.327	6620.74
671.518	6770.24
671.709	6622.79
671.9	6823.49
672.091	6678.08
672.282	6561.35
672.473	6667.84
672.664	6764.1
672.855	6657.61
673.046	6481.48
673.237	6434.38
673.428	6415.94
673.619	6469.19
673.809	6510.15
674	6370.89
674.191	6489.67
674.382	6442.57
674.573	6194.76
674.764	6295.11
674.954	6319.69
675.145	6211.15
675.336	6157.9
675.527	6166.09
675.717	6151.76
675.908	6100.56
676.099	6225.48
676.289	6041.17
676.48	6065.74
676.671	6006.35
676.861	5979.73
677.052	6176.33
677.243	5799.51
677.433	5834.32
677.624	6006.35
677.814	5916.24
678.005	5942.86
678.195	5736.02
678.386	5871.19
678.576	5795.41
678.767	5873.23
678.957	5946.96
679.148	5930.58
679.338	5787.22
679.529	5830.23
679.719	5826.13
679.909	5693.01
680.1	5762.64
680.29	5826.13
680.481	5594.71
680.671	5578.33
680.861	5523.03
681.052	5676.63
681.242	5445.21
681.432	5527.13
681.622	5547.61
681.813	5553.75
682.003	5441.11
682.193	5398.1
682.383	5418.58
682.573	5563.99
682.764	5439.06
682.954	5420.63
683.144	5291.61
683.334	5344.86
683.524	5537.37
683.714	5471.83
683.904	5318.23
684.094	5432.92
684.284	5258.84
684.474	5277.27
684.664	5281.37
684.854	5230.17
685.044	5351
685.234	5068.38
685.424	5047.9
685.614	5189.21
685.804	5234.27
685.994	5209.69
686.184	5197.4
686.374	4947.55
686.564	5131.87
686.753	5064.29
686.943	4957.79
687.133	5060.19
687.323	5109.34
687.513	4941.41
687.702	5058.14
687.892	4970.08
688.082	4836.96
688.272	4968.03
688.461	5023.33
688.651	4992.61
688.841	4884.06
689.03	4912.74
689.22	4703.84
689.41	4709.99
689.599	4750.95
689.789	4859.49
689.979	4720.23
690.168	4605.54
690.358	4728.42
690.547	4542.05
690.737	4535.91
690.926	4685.41
691.116	4556.39
691.305	4662.88
691.495	4617.83
691.684	4488.81
691.874	4402.79
692.063	4497
692.252	4427.37
692.442	4427.37
692.631	4333.16
692.82	4300.39
693.01	4349.54
693.199	4304.49
693.388	4263.53
693.578	4308.58
693.767	4206.19
693.956	4226.67
694.146	4257.39
694.335	4101.74
694.524	4126.32
694.713	4120.17
694.902	4036.21
695.092	4062.83
695.281	3907.18
695.47	3958.38
695.659	4128.36
695.848	4028.01
696.037	3968.62
696.226	3841.65
696.415	3872.37
696.604	3753.59
696.793	3839.6
696.982	3903.09
697.171	4038.25
697.36	4042.35
697.549	3769.97
697.738	3776.11
697.927	3763.83
698.116	3696.24
698.305	3743.35
698.494	3800.69
698.683	3614.32
698.872	3724.91
699.061	3532.4
699.25	3751.54
699.438	3663.47
699.627	3706.48
699.816	3688.05
700.005	3608.18
700.193	3587.7
700.382	3688.05
700.571	3534.45
700.76	3624.56
700.948	3513.97
701.137	3479.16
701.326	3544.69
701.514	3511.93
701.703	3569.27
701.892	3534.45
702.08	3563.12
702.269	3552.88
702.457	3491.45
702.646	3540.6
702.834	3425.91
703.023	3444.34
703.212	3554.93
703.4	3356.28
703.589	3405.43
703.777	3405.43
703.965	3290.74
704.154	3376.76
704.342	3292.79
704.531	3370.62
704.719	3317.37
704.907	3430.01
705.096	3352.18
705.284	3339.9
705.472	3343.99
705.661	3364.47
705.849	3331.7
706.037	3452.53
706.226	3243.64
706.414	3360.38
706.602	3272.31
706.79	3276.41
706.979	3151.48
707.167	3190.39
707.355	3225.21
707.543	3221.11
707.731	3243.64
707.919	3217.02
708.107	3264.12
708.296	3151.48
708.484	3083.9
708.672	3112.57
708.86	3122.81
709.048	3102.33
709.236	3194.49
709.424	2999.93
709.612	3090.04
709.8	3194.49
709.988	3180.15
710.176	3188.35
710.364	3178.11
710.551	3253.88
710.739	3180.15
710.927	3104.38
711.115	3133.05
711.303	3200.63
711.491	3110.52
711.679	3067.52
711.866	3044.99
712.054	3106.43
712.242	3116.67
712.43	3088
712.617	3067.52
712.805	3012.22
712.993	3104.38
713.181	3073.66
713.368	3001.98
713.556	3081.85
713.744	3016.32
713.931	3268.22
714.119	3010.17
714.306	3100.28
714.494	3081.85
714.682	3122.81
714.869	3141.24
715.057	3010.17
715.244	3122.81
715.432	3108.48
715.619	3042.94
715.807	2926.21
715.994	2987.65
716.182	3067.52
716.369	2991.74
716.556	3079.8
716.744	2979.45
716.931	2993.79
717.119	3014.27
717.306	3102.33
717.493	3010.17
717.681	3128.95
717.868	3042.94
718.055	2965.12
718.242	3038.84
718.43	2948.73
718.617	3018.36
718.804	3004.03
718.991	3049.08
719.179	3034.75
719.366	3038.84
719.553	3106.43
719.74	3049.08
719.927	3032.7
720.114	2911.87
720.301	3001.98
720.488	2948.73
720.676	2875.01
720.863	3073.66
721.05	2987.65
721.237	2944.64
721.424	2971.26
721.611	3057.28
721.798	2948.73
721.985	2922.11
722.172	2936.45
722.358	2991.74
722.545	2969.21
722.732	2956.93
722.919	2969.21
723.106	2834.05
723.293	3018.36
723.48	2961.02
723.667	2850.43
723.853	2901.63
724.04	3040.89
724.227	2952.83
724.414	2829.95
724.6	2932.35
724.787	2913.92
724.974	2977.41
725.161	3053.18
725.347	2924.16
725.534	3077.76
725.72	2909.82
725.907	3022.46
726.094	3001.98
726.28	2940.54
726.467	3016.32
726.653	3053.18
726.84	2924.16
727.027	2983.55
727.213	2993.79
727.4	2958.97
727.586	3022.46
727.773	3006.08
727.959	2993.79
728.145	2981.5
728.332	2913.92
728.518	3083.9
728.705	3049.08
728.891	2864.77
729.077	2995.84
729.264	2983.55
729.45	3120.76
729.636	3153.53
729.823	2973.31
730.009	2889.34
730.195	2995.84
730.382	3167.87
730.568	3092.09
730.754	2981.5
730.94	2954.88
731.126	3102.33
731.313	3020.41
731.499	2956.93
731.685	3075.71
731.871	2989.69
732.057	3114.62
732.243	2975.36
732.429	3221.11
732.615	3010.17
732.801	3151.48
732.987	2985.6
733.173	3026.56
733.359	3042.94
733.545	3024.51
733.731	3022.46
733.917	3161.72
734.103	3083.9
734.289	3077.76
734.475	3063.42
734.661	3096.19
734.847	3051.13
735.033	3001.98
735.219	3063.42
735.404	3151.48
735.59	2958.97
735.776	3010.17
735.962	3225.21
736.148	3165.82
736.333	3112.57
736.519	3118.72
736.705	3198.59
736.89	3090.04
737.076	3073.66
737.262	3096.19
737.447	3163.77
737.633	3024.51
737.819	3194.49
738.004	3128.95
738.19	3067.52
738.375	3012.22
738.561	3161.72
738.747	3210.87
738.932	3073.66
739.118	3149.43
739.303	3069.56
739.489	3026.56
739.674	3243.64
739.859	3092.09
740.045	3104.38
740.23	3124.86
740.416	3202.68
740.601	3108.48
740.786	3088
740.972	3178.11
741.157	3051.13
741.342	3184.25
741.528	3085.95
741.713	3096.19
741.898	2891.39
742.084	3088
742.269	3116.67
742.454	3026.56
742.639	3147.39
742.824	2983.55
743.01	3106.43
743.195	2926.21
743.38	3116.67
743.565	3022.46
743.75	3012.22
743.935	3057.28
744.12	2991.74
744.305	2963.07
744.49	2944.64
744.675	2956.93
744.86	2956.93
745.045	2981.5
745.23	3047.04
745.415	2961.02
745.6	2942.59
745.785	2832
745.97	3038.84
746.155	2965.12
746.34	2924.16
746.525	2928.25
746.71	2848.38
746.895	2774.66
747.079	3012.22
747.264	2942.59
747.449	2893.44
747.634	2862.72
747.819	2946.69
748.003	2903.68
748.188	2862.72
748.373	2807.42
748.557	2877.05
748.742	2866.81
748.927	2756.22
749.111	2719.36
749.296	2723.46
749.481	2782.85
749.665	2739.84
749.85	2645.63
750.034	2786.94
750.219	2696.83
750.404	2725.51
750.588	2659.97
750.773	2492.04
750.957	2567.81
751.141	2612.87
751.326	2672.26
751.51	2553.48
751.695	2453.13
751.879	2557.57
752.064	2645.63
752.248	2528.9
752.432	2565.76
752.617	2487.94
752.801	2563.72
752.985	2549.38
753.17	2492.04
753.354	2356.87
753.538	2412.17
753.722	2412.17
753.907	2334.34
754.091	2315.91
754.275	2377.35
754.459	2336.39
754.643	2279.05
754.828	2291.34
755.012	2328.2
755.196	2340.49
755.38	2225.8
755.564	2252.42
755.748	2203.27
755.932	2340.49
756.116	2307.72
756.3	2295.43
756.484	2219.66
756.668	2207.37
756.852	2190.99
757.036	2176.65
757.22	2121.35
757.404	2174.6
757.588	2115.21
757.772	2170.51
757.956	2100.87
758.14	2127.5
758.323	1990.28
758.507	2068.11
758.691	2088.59
758.875	1920.65
759.059	2066.06
759.242	2092.68
759.426	2023.05
759.61	2039.44
759.794	1861.26
759.977	2025.1
760.161	1996.43
760.345	1943.18
760.528	1984.14
760.712	2031.24
760.895	1887.89
761.079	1918.61
761.263	1834.64
761.446	1867.41
761.63	1869.45
761.813	1902.22
761.997	1767.06
762.18	1926.8
762.364	1822.35
762.547	1803.92
762.731	1769.1
762.914	1836.69
763.098	1916.56
763.281	1867.41
763.464	1771.15
763.648	1697.42
763.831	1713.81
764.015	1728.14
764.198	1746.58
764.381	1711.76
764.564	1724.05
764.748	1615.51
764.931	1793.68
765.114	1740.43
765.297	1834.64
765.481	1711.76
765.664	1744.53
765.847	1814.16
766.03	1762.96
766.213	1728.14
766.397	1652.37
766.58	1738.38
766.763	1590.93
766.946	1656.47
767.129	1652.37
767.312	1642.13
767.495	1728.14
767.678	1648.27
767.861	1656.47
768.044	1582.74
768.227	1658.51
768.41	1541.78
768.593	1646.23
768.776	1797.78
768.959	1654.42
769.142	1597.07
769.324	1631.89
769.507	1556.11
769.69	1515.16
769.873	1488.53
770.056	1650.32
770.239	1584.79
770.421	1597.07
770.604	1556.11
770.787	1433.24
770.97	1480.34
771.152	1392.28
771.335	1443.48
771.518	1435.28
771.7	1474.2
771.883	1640.08
772.066	1443.48
772.248	1437.33
772.431	1478.29
772.613	1513.11
772.796	1435.28
772.978	1402.52
773.161	1400.47
773.343	1402.52
773.526	1392.28
773.708	1425.04
773.891	1310.36
774.073	1261.21
774.256	1281.69
774.438	1343.13
774.621	1283.74
774.803	1347.22
774.985	1269.4
775.168	1250.97
775.35	1304.21
775.532	1250.97
775.715	1253.02
775.897	1312.41
776.079	1201.82
776.261	1238.68
776.444	1214.1
776.626	1171.1
776.808	1091.23
776.99	1193.62
777.173	1232.54
777.355	1105.56
777.537	1140.38
777.719	1185.43
777.901	1121.95
778.083	1109.66
778.265	1146.52
778.447	1109.66
778.629	1203.86
778.811	1134.23
778.993	1078.94
779.175	1199.77
779.357	1068.7
779.539	1087.13
779.721	1083.03
779.903	1054.36
780.085	1023.64
780.267	1111.71
780.449	1113.75
780.631	1103.51
780.812	1035.93
780.994	1015.45
781.176	978.59
781.358	956.06
781.54	1013.4
781.721	915.1
781.903	1033.88
782.085	980.64
782.267	1001.12
782.448	911
782.63	958.11
782.812	935.58
782.993	839.33
783.175	839.33
783.357	857.76
783.538	835.23
783.72	870.05
783.901	876.19
784.083	906.91
784.264	865.95
784.446	810.65
784.627	755.36
784.809	874.14
784.99	777.89
785.172	824.99
785.353	745.12
785.535	798.37
785.716	847.52
785.897	755.36
786.079	720.54
786.26	706.21
786.441	829.09
786.623	804.51
786.804	665.25
786.985	671.39
787.167	814.75
787.348	712.35
787.529	753.31
787.71	741.02
787.891	691.87
788.073	685.73
788.254	691.87
788.435	728.74
788.616	745.12
788.797	716.45
788.978	712.35
789.159	718.5
789.34	773.79
789.522	599.71
789.703	552.61
789.884	642.72
790.065	620.19
790.246	691.87
790.427	634.53
790.607	673.44
790.788	675.49
790.969	681.63
791.15	646.82
791.331	652.96
791.512	591.52
791.693	614.05
791.874	589.47
792.054	595.62
792.235	659.1
792.416	532.13
792.597	550.56
792.778	568.99
792.958	597.67
793.139	632.48
793.32	581.28
793.5	450.21
793.681	560.8
793.862	591.52
794.042	605.86
794.223	511.65
794.404	525.99
794.584	515.75
794.765	489.12
794.945	456.36
795.126	482.98
795.306	554.66
795.487	591.52
795.667	550.56
795.848	538.27
796.028	509.6
796.209	532.13
796.389	595.62
796.57	523.94
796.75	485.03
796.93	478.88
797.111	446.12
797.291	472.74
797.471	568.99
797.652	444.07
797.832	464.55
798.012	507.55
798.192	452.26
798.373	462.5
798.553	556.71
798.733	485.03
798.913	437.92
799.093	401.06
799.274	423.59
799.454	390.82
799.634	431.78
799.814	419.49
799.994	396.96
800.174	380.58
800.354	491.17
800.534	425.64
800.714	491.17
800.894	411.3
801.074	419.49
801.254	399.01
801.434	421.54
801.614	407.2
801.794	399.01
801.974	1052.31
802.154	433.83
802.334	370.34
802.514	403.11
802.693	405.16
802.873	374.44
803.053	351.91
803.233	341.67
803.413	399.01
803.592	329.38
803.772	280.23
803.952	351.91
804.131	343.72
804.311	370.34
804.491	366.25
804.67	353.96
804.85	380.58
805.03	308.9
805.209	317.09
805.389	302.76
805.568	376.48
805.748	345.77
805.928	356.01
806.107	370.34
806.287	360.1
806.466	331.43
806.646	304.81
806.825	310.95
807.004	313
807.184	399.01
807.363	325.29
807.543	321.19
807.722	251.56
807.901	321.19
808.081	356.01
808.26	243.37
808.439	335.53
808.619	353.96
808.798	263.85
808.977	337.57
809.156	331.43
809.336	313
809.515	272.04
809.694	208.55
809.873	284.33
810.052	220.84
810.231	298.66
810.411	296.61
810.59	298.66
810.769	274.09
810.948	294.57
811.127	245.41
811.306	218.79
811.485	278.18
811.664	276.13
811.843	237.22
812.022	245.41
812.201	257.7
812.38	313
812.559	247.46
812.737	267.94
812.916	233.13
813.095	198.31
813.274	257.7
813.453	253.61
813.632	220.84
813.811	280.23
813.989	274.09
814.168	282.28
814.347	239.27
814.526	198.31
814.704	306.85
814.883	237.22
815.062	194.22
815.24	323.24
815.419	212.65
815.598	222.89
815.776	212.65
815.955	226.98
816.133	229.03
816.312	253.61
816.49	255.65
816.669	192.17
816.847	255.65
817.026	288.42
817.204	169.64
817.383	239.27
817.561	177.83
817.74	265.89
817.918	222.89
818.097	143.02
818.275	183.98
818.453	259.75
818.632	237.22
818.81	212.65
818.988	259.75
819.167	218.79
819.345	157.35
819.523	220.84
819.701	132.78
819.879	138.92
820.058	231.08
820.236	204.46
820.414	181.93
820.592	188.07
820.77	161.45
820.948	171.69
821.127	181.93
821.305	202.41
821.483	218.79
821.661	177.83
821.839	208.55
822.017	153.26
822.195	229.03
822.373	220.84
822.551	130.73
822.729	239.27
822.907	151.21
823.085	212.65
823.262	165.54
823.44	269.99
823.618	231.08
823.796	171.69
823.974	196.26
824.152	214.7
824.329	165.54
824.507	251.56
824.685	36.52
824.863	233.13
825.04	216.74
825.218	116.39
825.396	161.45
825.574	220.84
825.751	147.11
825.929	151.21
826.107	93.87
826.284	263.85
826.462	186.02
826.639	163.5
826.817	57
826.994	188.07
827.172	69.29
827.349	224.94
827.527	61.1
827.704	120.49
827.882	179.88
828.059	177.83
828.237	157.35
828.414	206.5
828.591	61.1
828.769	226.98
828.946	114.34
829.124	179.88
829.301	190.12
829.478	161.45
829.655	108.2
829.833	196.26
830.01	46.76
830.187	138.92
830.364	186.02
830.542	171.69
830.719	188.07
830.896	145.06
831.073	145.06
831.25	186.02
831.427	163.5
831.604	46.76
831.782	48.81
831.959	134.82
832.136	124.58
832.313	181.93
832.49	83.63
832.667	100.01
832.844	114.34
833.021	169.64
833.198	161.45
833.374	136.87
833.551	118.44
833.728	140.97
833.905	188.07
834.082	157.35
834.259	132.78
834.436	106.15
834.612	155.3
834.789	169.64
834.966	85.67
835.143	132.78
835.319	108.2
835.496	7.85
835.673	138.92
835.85	79.53
836.026	138.92
836.203	147.11
836.38	108.2
836.556	91.82
836.733	89.77
836.909	147.11
837.086	179.88
837.262	24.23
837.439	63.15
837.616	61.1
837.792	100.01
837.968	100.01
838.145	114.34
838.321	97.96
838.498	181.93
838.674	134.82
838.851	116.39
839.027	85.67
839.203	26.28
839.38	128.68
839.556	97.96
839.732	126.63
839.909	75.43
840.085	110.25
840.261	130.73
840.437	136.87
840.614	-29.01
840.79	118.44
840.966	97.96
841.142	112.3
841.318	50.86
841.494	50.86
841.671	153.26
841.847	44.71
842.023	54.95
842.199	83.63
842.375	85.67
842.551	79.53
842.727	24.23
842.903	81.58
843.079	95.91
843.255	87.72
843.431	16.04
843.607	95.91
843.783	30.38
843.959	71.34
844.134	20.14
844.31	79.53
844.486	65.19
844.662	118.44
844.838	44.71
845.013	89.77
845.189	126.63
845.365	104.11
845.541	34.47
845.716	89.77
845.892	71.34
846.068	75.43
846.244	108.2
846.419	85.67
846.595	42.67
846.77	65.19
846.946	122.54
847.122	36.52
847.297	36.52
847.473	177.83
847.648	46.76
847.824	118.44
847.999	89.77
848.175	63.15
848.35	-20.82
848.526	140.97
848.701	40.62
848.876	65.19
849.052	16.04
849.227	73.39
849.403	22.19
849.578	67.24
849.753	67.24
849.929	3.75
850.104	26.28
850.279	91.82
850.454	95.91
850.63	93.87
850.805	97.96
850.98	75.43
851.155	16.04
851.33	24.23
851.505	-18.77
851.681	85.67
851.856	93.87
852.031	44.71
852.206	77.48
852.381	40.62
852.556	102.06
852.731	52.91
852.906	42.67
853.081	44.71
853.256	50.86
853.431	-0.34
853.606	-2.39
853.781	-6.49
853.956	65.19
854.131	77.48
854.305	3.75
854.48	46.76
854.655	97.96
854.83	20.14
855.005	63.15
855.18	16.04
855.354	91.82
855.529	77.48
855.704	48.81
855.879	38.57
856.053	-16.73
856.228	32.43
856.403	36.52
856.577	-14.68
856.752	87.72
856.926	100.01
857.101	-22.87
857.276	77.48
857.45	59.05
857.625	77.48
857.799	1.71
857.974	67.24
858.148	38.57
858.323	44.71
858.497	63.15
858.672	-14.68
858.846	91.82
859.02	3.75
859.195	-20.82
859.369	18.09
859.543	61.1
859.718	-2.39
859.892	46.76
860.066	65.19
860.241	-35.16
860.415	83.63
860.589	3.75
860.763	20.14
860.938	48.81
861.112	93.87
861.286	57
861.46	59.05
861.634	83.63
861.808	24.23
861.982	-16.73
862.157	-22.87
862.331	18.09
862.505	-0.34
862.679	5.8
862.853	24.23
863.027	30.38
863.201	75.43
863.375	32.43
863.549	44.71
863.722	-12.63
863.896	63.15
864.07	20.14
864.244	3.75
864.418	32.43
864.592	-0.34
864.766	32.43
864.939	89.77
865.113	13.99
865.287	9.9
865.461	28.33
865.634	-12.63
865.808	18.09
865.982	-20.82
866.156	46.76
866.329	57
866.503	104.11
866.676	28.33
866.85	28.33
867.024	77.48
867.197	32.43
867.371	75.43
867.544	40.62
867.718	-8.53
867.891	102.06
868.065	75.43
868.238	65.19
868.412	46.76
868.585	22.19
868.759	36.52
868.932	38.57
869.105	-10.58
869.279	-8.53
869.452	-72.02
869.625	-0.34
869.799	50.86
869.972	20.14
870.145	20.14
870.319	106.15
870.492	-45.4
870.665	-6.49
870.838	-2.39
871.011	-37.2
871.185	24.23
871.358	9.9
871.531	24.23
871.704	36.52
871.877	81.58
872.05	-16.73
872.223	-33.11
872.396	28.33
872.569	11.95
872.742	-18.77
872.915	1.71
873.088	36.52
873.261	-31.06
873.434	7.85
873.607	71.34
873.78	46.76
873.953	-14.68
874.126	-16.73
874.299	1.71
874.471	-53.59
874.644	-2.39
874.817	-16.73
874.99	93.87
875.163	46.76
875.335	-33.11
875.508	34.47
875.681	-2.39
875.853	20.14
876.026	-24.92
876.199	3.75
876.371	57
876.544	26.28
876.717	67.24
876.889	44.71
877.062	48.81
877.234	7.85
877.407	16.04
877.579	-33.11
877.752	32.43
877.924	77.48
878.097	61.1
878.269	32.43
878.442	57
878.614	-47.44
878.786	34.47
878.959	26.28
879.131	-49.49
879.303	-31.06
879.476	-31.06
879.648	-35.16
879.82	-31.06
879.993	-24.92
880.165	16.04
880.337	9.9
880.509	-6.49
880.681	-41.3
880.854	18.09
881.026	38.57
881.198	36.52
881.37	-49.49
881.542	-67.92
881.714	-10.58
881.886	-2.39
882.058	-59.73
882.23	61.1
882.402	79.53
882.574	-12.63
882.746	69.29
882.918	61.1
883.09	44.71
883.262	24.23
883.434	16.04
883.606	-0.34
883.778	11.95
883.95	67.24
884.122	20.14
884.293	65.19
884.465	30.38
884.637	-12.63
884.809	-8.53
884.98	-26.96
885.152	57
885.324	69.29
885.496	-8.53
885.667	-18.77
885.839	-47.44
886.011	67.24
886.182	97.96
886.354	-16.73
886.525	52.91
886.697	108.2
886.869	-10.58
887.04	5.8
887.212	-10.58
887.383	48.81
887.555	44.71
887.726	40.62
887.897	-41.3
888.069	69.29
888.24	40.62
888.412	3.75
888.583	-31.06
888.754	-57.68
888.926	63.15
889.097	-45.4
889.268	-43.35
889.44	24.23
889.611	-47.44
889.782	7.85
889.953	7.85
890.125	9.9
890.296	-8.53
890.467	-10.58
890.638	30.38
890.809	-8.53
890.98	-24.92
891.151	75.43
891.323	59.05
891.494	106.15
891.665	-14.68
891.836	-22.87
892.007	22.19
892.178	13.99
892.349	-86.36
892.52	-0.34
892.691	36.52
892.862	-86.36
893.032	28.33
893.203	20.14
893.374	57
893.545	34.47
893.716	13.99
893.887	71.34
894.057	-16.73
894.228	-39.25
894.399	13.99
894.57	30.38
894.74	7.85
894.911	13.99
895.082	-55.64
895.253	13.99
895.423	28.33
895.594	-45.4
895.764	26.28
895.935	-0.34
896.106	-14.68
896.276	-31.06
896.447	-80.21
896.617	-31.06
896.788	-59.73
896.958	-2.39
897.129	75.43
897.299	-47.44
897.47	13.99
897.64	83.63
897.81	-24.92
897.981	-14.68
898.151	-67.92
898.322	48.81
898.492	11.95
898.662	-20.82
898.832	-31.06
899.003	-35.16
899.173	67.24
899.343	-14.68
899.513	-51.54
