Data from USB4F104151__57__12-41-55-370.txt Node

Date: Fri Mar 14 12:41:55 EDT 2025
User: louis
Spectrometer: USB4F10415
Trigger mode: 4
Integration Time (sec): 3.000000E-2
Scans to average: 1
Electric dark correction enabled: true
Nonlinearity correction enabled: false
Boxcar width: 0
XAxis mode: Wavelengths
Number of Pixels in Spectrum: 3648
>>>>>Begin Spectral Data<<<<<
178.204	-97.11
178.424	-97.11
178.644	-97.11
178.864	-111.44
179.084	-174.93
179.304	-7
179.524	-33.62
179.744	-2.9
179.964	-41.81
180.184	-17.24
180.404	17.58
180.624	-13.14
180.844	44.2
181.064	11.43
181.283	13.48
181.503	-15.19
181.723	44.2
181.943	19.63
182.163	31.91
182.383	-76.63
182.602	27.82
182.822	3.24
183.042	25.77
183.262	-37.72
183.482	44.2
183.701	25.77
183.921	1.19
184.141	-58.2
184.361	62.63
184.58	54.44
184.8	15.53
185.02	79.02
185.239	19.63
185.459	7.34
185.679	-4.95
185.898	7.34
186.118	23.72
186.338	-0.85
186.557	15.53
186.777	-2.9
186.997	54.44
187.216	-62.29
187.436	113.83
187.655	31.91
187.875	44.2
188.095	-15.19
188.314	33.96
188.534	52.39
188.753	-47.96
188.973	42.15
189.192	42.15
189.412	-11.09
189.631	-17.24
189.851	-17.24
190.07	29.87
190.29	-9.05
190.509	38.06
190.729	-62.29
190.948	36.01
191.168	150.7
191.387	-41.81
191.607	44.2
191.826	27.82
192.045	-31.57
192.265	-11.09
192.484	33.96
192.704	7.34
192.923	-113.49
193.142	-23.38
193.362	74.92
193.581	3.24
193.8	-25.43
194.02	52.39
194.239	13.48
194.458	70.83
194.678	-29.52
194.897	9.39
195.116	-60.24
195.335	25.77
195.555	40.11
195.774	27.82
195.993	60.59
196.212	-23.38
196.432	-27.48
196.651	23.72
196.87	11.43
197.089	144.55
197.308	46.25
197.528	11.43
197.747	-0.85
197.966	13.48
198.185	93.35
198.404	-25.43
198.623	58.54
198.842	-2.9
199.062	76.97
199.281	9.39
199.5	40.11
199.719	21.67
199.938	50.35
200.157	122.02
200.376	-7
200.595	15.53
200.814	36.01
201.033	38.06
201.252	25.77
201.471	62.63
201.69	64.68
201.909	85.16
202.128	60.59
202.347	52.39
202.566	40.11
202.785	-50
203.004	-54.1
203.223	109.74
203.442	7.34
203.661	60.59
203.879	-68.44
204.098	89.26
204.317	17.58
204.536	74.92
204.755	60.59
204.974	93.35
205.193	29.87
205.411	79.02
205.63	7.34
205.849	50.35
206.068	42.15
206.287	44.2
206.505	-0.85
206.724	-35.67
206.943	7.34
207.162	64.68
207.381	70.83
207.599	5.29
207.818	36.01
208.037	31.91
208.255	5.29
208.474	42.15
208.693	-17.24
208.911	40.11
209.13	9.39
209.349	3.24
209.567	-23.38
209.786	48.3
210.005	-7
210.223	-4.95
210.442	-7
210.661	-4.95
210.879	15.53
211.098	58.54
211.316	-11.09
211.535	33.96
211.753	31.91
211.972	23.72
212.191	72.87
212.409	79.02
212.628	17.58
212.846	1.19
213.065	27.82
213.283	60.59
213.502	-23.38
213.72	3.24
213.938	44.2
214.157	9.39
214.375	56.49
214.594	36.01
214.812	44.2
215.031	17.58
215.249	31.91
215.467	-2.9
215.686	19.63
215.904	64.68
216.122	19.63
216.341	64.68
216.559	9.39
216.778	27.82
216.996	36.01
217.214	-33.62
217.432	66.73
217.651	3.24
217.869	-29.52
218.087	52.39
218.306	27.82
218.524	38.06
218.742	31.91
218.96	5.29
219.179	-7
219.397	54.44
219.615	130.22
219.833	23.72
220.051	72.87
220.27	85.16
220.488	21.67
220.706	60.59
220.924	23.72
221.142	83.11
221.36	70.83
221.578	-52.05
221.796	58.54
222.015	-15.19
222.233	-13.14
222.451	44.2
222.669	1.19
222.887	42.15
223.105	25.77
223.323	50.35
223.541	-2.9
223.759	46.25
223.977	27.82
224.195	46.25
224.413	103.59
224.631	56.49
224.849	50.35
225.067	66.73
225.285	81.07
225.503	60.59
225.721	13.48
225.939	17.58
226.157	27.82
226.375	115.88
226.592	-39.76
226.81	-11.09
227.028	33.96
227.246	62.63
227.464	-7
227.682	64.68
227.9	27.82
228.117	5.29
228.335	62.63
228.553	74.92
228.771	27.82
228.989	21.67
229.206	107.69
229.424	7.34
229.642	-17.24
229.86	36.01
230.077	-35.67
230.295	70.83
230.513	64.68
230.731	66.73
230.948	107.69
231.166	66.73
231.384	13.48
231.601	-0.85
231.819	-17.24
232.037	-60.24
232.254	3.24
232.472	19.63
232.689	-2.9
232.907	81.07
233.125	38.06
233.342	46.25
233.56	-2.9
233.777	58.54
233.995	-47.96
234.213	-56.15
234.43	-29.52
234.648	-9.05
234.865	21.67
235.083	-7
235.3	91.31
235.518	-2.9
235.735	72.87
235.953	-19.29
236.17	-25.43
236.388	-9.05
236.605	-31.57
236.822	68.78
237.04	85.16
237.257	38.06
237.475	-39.76
237.692	46.25
237.909	19.63
238.127	31.91
238.344	38.06
238.562	11.43
238.779	29.87
238.996	-45.91
239.214	-37.72
239.431	48.3
239.648	-37.72
239.865	85.16
240.083	58.54
240.3	68.78
240.517	-31.57
240.735	-39.76
240.952	66.73
241.169	13.48
241.386	-7
241.603	52.39
241.821	-47.96
242.038	36.01
242.255	-11.09
242.472	-25.43
242.689	70.83
242.907	-0.85
243.124	60.59
243.341	-2.9
243.558	-47.96
243.775	-50
243.992	21.67
244.209	-47.96
244.426	56.49
244.643	44.2
244.86	-31.57
245.078	46.25
245.295	48.3
245.512	66.73
245.729	11.43
245.946	11.43
246.163	-23.38
246.38	79.02
246.597	13.48
246.814	19.63
247.031	-31.57
247.248	66.73
247.464	76.97
247.681	-7
247.898	-13.14
248.115	29.87
248.332	-0.85
248.549	105.64
248.766	105.64
248.983	-9.05
249.2	-7
249.417	54.44
249.633	56.49
249.85	48.3
250.067	-50
250.284	85.16
250.501	-70.48
250.717	58.54
250.934	3.24
251.151	93.35
251.368	50.35
251.585	-2.9
251.801	-29.52
252.018	-52.05
252.235	66.73
252.451	-4.95
252.668	21.67
252.885	17.58
253.102	87.21
253.318	19.63
253.535	7.34
253.752	-25.43
253.968	27.82
254.185	38.06
254.401	58.54
254.618	62.63
254.835	46.25
255.051	36.01
255.268	33.96
255.484	58.54
255.701	44.2
255.917	83.11
256.134	1.19
256.351	27.82
256.567	60.59
256.784	-19.29
257	-13.14
257.217	38.06
257.433	111.78
257.65	48.3
257.866	38.06
258.082	11.43
258.299	13.48
258.515	-29.52
258.732	-27.48
258.948	21.67
259.165	5.29
259.381	5.29
259.597	-29.52
259.814	13.48
260.03	-7
260.246	21.67
260.463	93.35
260.679	23.72
260.895	7.34
261.112	17.58
261.328	-41.81
261.544	5.29
261.761	124.07
261.977	46.25
262.193	-43.86
262.409	50.35
262.626	66.73
262.842	85.16
263.058	11.43
263.274	9.39
263.49	38.06
263.707	19.63
263.923	79.02
264.139	19.63
264.355	72.87
264.571	68.78
264.787	-9.05
265.004	7.34
265.22	-21.33
265.436	54.44
265.652	44.2
265.868	-2.9
266.084	-97.11
266.3	21.67
266.516	-13.14
266.732	64.68
266.948	36.01
267.164	5.29
267.38	7.34
267.596	48.3
267.812	83.11
268.028	-29.52
268.244	-33.62
268.46	17.58
268.676	-23.38
268.892	-11.09
269.108	50.35
269.324	-29.52
269.54	33.96
269.756	31.91
269.972	31.91
270.188	-39.76
270.403	-23.38
270.619	38.06
270.835	42.15
271.051	23.72
271.267	36.01
271.483	50.35
271.698	52.39
271.914	-35.67
272.13	-23.38
272.346	38.06
272.562	60.59
272.777	44.2
272.993	-50
273.209	-19.29
273.425	70.83
273.64	42.15
273.856	-7
274.072	9.39
274.287	13.48
274.503	5.29
274.719	33.96
274.934	36.01
275.15	-33.62
275.366	-21.33
275.581	11.43
275.797	68.78
276.012	60.59
276.228	-2.9
276.444	13.48
276.659	76.97
276.875	-45.91
277.09	-7
277.306	13.48
277.521	74.92
277.737	-19.29
277.952	9.39
278.168	85.16
278.383	38.06
278.599	21.67
278.814	76.97
279.03	64.68
279.245	50.35
279.461	-25.43
279.676	38.06
279.892	46.25
280.107	-68.44
280.322	-25.43
280.538	19.63
280.753	27.82
280.969	85.16
281.184	-2.9
281.399	70.83
281.615	-0.85
281.83	91.31
282.045	-31.57
282.26	-21.33
282.476	62.63
282.691	54.44
282.906	21.67
283.122	62.63
283.337	-27.48
283.552	64.68
283.767	42.15
283.983	40.11
284.198	58.54
284.413	85.16
284.628	-33.62
284.843	19.63
285.058	52.39
285.274	-27.48
285.489	-19.29
285.704	50.35
285.919	15.53
286.134	33.96
286.349	46.25
286.564	17.58
286.779	17.58
286.995	58.54
287.21	58.54
287.425	-23.38
287.64	-7
287.855	128.17
288.07	-15.19
288.285	46.25
288.5	56.49
288.715	58.54
288.93	64.68
289.145	40.11
289.36	29.87
289.575	60.59
289.79	19.63
290.004	58.54
290.219	60.59
290.434	-47.96
290.649	-86.87
290.864	46.25
291.079	27.82
291.294	23.72
291.509	91.31
291.724	5.29
291.938	42.15
292.153	44.2
292.368	-15.19
292.583	-50
292.798	3.24
293.012	76.97
293.227	42.15
293.442	60.59
293.657	79.02
293.871	-21.33
294.086	42.15
294.301	40.11
294.516	56.49
294.73	68.78
294.945	21.67
295.16	15.53
295.374	130.22
295.589	79.02
295.804	62.63
296.018	27.82
296.233	89.26
296.447	7.34
296.662	33.96
296.877	29.87
297.091	48.3
297.306	66.73
297.52	44.2
297.735	31.91
297.949	15.53
298.164	64.68
298.378	64.68
298.593	27.82
298.807	21.67
299.022	9.39
299.236	68.78
299.451	29.87
299.665	17.58
299.88	33.96
300.094	72.87
300.309	-27.48
300.523	25.77
300.737	-15.19
300.952	17.58
301.166	15.53
301.381	13.48
301.595	29.87
301.809	7.34
302.024	42.15
302.238	-4.95
302.452	33.96
302.667	1.19
302.881	70.83
303.095	31.91
303.309	58.54
303.524	29.87
303.738	-11.09
303.952	54.44
304.166	36.01
304.381	-25.43
304.595	44.2
304.809	62.63
305.023	38.06
305.237	50.35
305.452	56.49
305.666	50.35
305.88	-9.05
306.094	42.15
306.308	54.44
306.522	74.92
306.736	62.63
306.95	62.63
307.164	-4.95
307.379	89.26
307.593	29.87
307.807	76.97
308.021	3.24
308.235	36.01
308.449	21.67
308.663	58.54
308.877	68.78
309.091	-9.05
309.305	56.49
309.519	-29.52
309.733	58.54
309.947	44.2
310.161	-7
310.374	40.11
310.588	27.82
310.802	25.77
311.016	46.25
311.23	79.02
311.444	46.25
311.658	74.92
311.872	52.39
312.085	48.3
312.299	72.87
312.513	-13.14
312.727	-4.95
312.941	33.96
313.154	38.06
313.368	56.49
313.582	117.93
313.796	81.07
314.009	11.43
314.223	36.01
314.437	-7
314.651	79.02
314.864	46.25
315.078	-7
315.292	40.11
315.505	52.39
315.719	68.78
315.933	50.35
316.146	38.06
316.36	13.48
316.573	21.67
316.787	-62.29
317.001	52.39
317.214	33.96
317.428	23.72
317.641	-58.2
317.855	-45.91
318.068	11.43
318.282	19.63
318.495	38.06
318.709	36.01
318.922	33.96
319.136	36.01
319.349	64.68
319.563	-17.24
319.776	-19.29
319.99	-13.14
320.203	62.63
320.417	56.49
320.63	76.97
320.843	105.64
321.057	19.63
321.27	23.72
321.483	27.82
321.697	17.58
321.91	42.15
322.124	11.43
322.337	17.58
322.55	60.59
322.763	29.87
322.977	93.35
323.19	7.34
323.403	19.63
323.617	60.59
323.83	25.77
324.043	-2.9
324.256	25.77
324.469	-21.33
324.683	113.83
324.896	29.87
325.109	79.02
325.322	5.29
325.535	19.63
325.748	72.87
325.962	52.39
326.175	56.49
326.388	52.39
326.601	-7
326.814	89.26
327.027	81.07
327.24	160.94
327.453	3.24
327.666	95.4
327.879	64.68
328.092	31.91
328.305	23.72
328.518	91.31
328.731	-19.29
328.944	48.3
329.157	-41.81
329.37	-21.33
329.583	105.64
329.796	27.82
330.009	56.49
330.222	44.2
330.435	74.92
330.648	29.87
330.861	9.39
331.073	62.63
331.286	42.15
331.499	85.16
331.712	44.2
331.925	27.82
332.138	46.25
332.35	44.2
332.563	29.87
332.776	113.83
332.989	-27.48
333.202	52.39
333.414	27.82
333.627	17.58
333.84	97.45
334.053	23.72
334.265	50.35
334.478	91.31
334.691	23.72
334.903	29.87
335.116	15.53
335.329	19.63
335.541	-33.62
335.754	107.69
335.966	-19.29
336.179	-11.09
336.392	74.92
336.604	48.3
336.817	38.06
337.029	70.83
337.242	70.83
337.454	115.88
337.667	40.11
337.88	25.77
338.092	48.3
338.305	13.48
338.517	-43.86
338.729	103.59
338.942	95.4
339.154	-29.52
339.367	5.29
339.579	50.35
339.792	33.96
340.004	54.44
340.217	33.96
340.429	42.15
340.641	40.11
340.854	33.96
341.066	17.58
341.278	79.02
341.491	42.15
341.703	54.44
341.915	21.67
342.128	76.97
342.34	46.25
342.552	29.87
342.764	33.96
342.977	23.72
343.189	5.29
343.401	36.01
343.613	17.58
343.826	42.15
344.038	36.01
344.25	7.34
344.462	-23.38
344.674	27.82
344.886	19.63
345.099	13.48
345.311	15.53
345.523	-17.24
345.735	-2.9
345.947	68.78
346.159	1.19
346.371	50.35
346.583	81.07
346.795	40.11
347.007	83.11
347.219	25.77
347.431	62.63
347.643	79.02
347.855	54.44
348.067	-19.29
348.279	-68.44
348.491	68.78
348.703	72.87
348.915	13.48
349.127	-68.44
349.339	68.78
349.551	-23.38
349.763	74.92
349.975	128.17
350.187	29.87
350.399	62.63
350.61	23.72
350.822	40.11
351.034	38.06
351.246	23.72
351.458	48.3
351.669	126.12
351.881	54.44
352.093	115.88
352.305	76.97
352.517	36.01
352.728	50.35
352.94	52.39
353.152	52.39
353.363	42.15
353.575	25.77
353.787	38.06
353.999	42.15
354.21	103.59
354.422	79.02
354.633	52.39
354.845	42.15
355.057	40.11
355.268	40.11
355.48	91.31
355.692	25.77
355.903	13.48
356.115	36.01
356.326	-13.14
356.538	85.16
356.749	62.63
356.961	50.35
357.172	-9.05
357.384	31.91
357.595	128.17
357.807	91.31
358.018	-17.24
358.23	60.59
358.441	101.55
358.653	72.87
358.864	91.31
359.075	46.25
359.287	105.64
359.498	109.74
359.709	27.82
359.921	-17.24
360.132	40.11
360.344	-11.09
360.555	-25.43
360.766	15.53
360.977	58.54
361.189	76.97
361.4	17.58
361.611	66.73
361.823	72.87
362.034	19.63
362.245	-47.96
362.456	52.39
362.667	23.72
362.879	9.39
363.09	52.39
363.301	13.48
363.512	27.82
363.723	-25.43
363.935	42.15
364.146	31.91
364.357	5.29
364.568	54.44
364.779	25.77
364.99	113.83
365.201	48.3
365.412	115.88
365.623	-23.38
365.834	126.12
366.045	36.01
366.256	97.45
366.467	44.2
366.678	60.59
366.889	56.49
367.1	-13.14
367.311	44.2
367.522	58.54
367.733	60.59
367.944	-2.9
368.155	13.48
368.366	81.07
368.577	54.44
368.788	87.21
368.999	-13.14
369.209	87.21
369.42	126.12
369.631	21.67
369.842	7.34
370.053	44.2
370.264	95.4
370.474	48.3
370.685	27.82
370.896	58.54
371.107	25.77
371.317	60.59
371.528	13.48
371.739	54.44
371.95	27.82
372.16	56.49
372.371	19.63
372.582	21.67
372.792	56.49
373.003	68.78
373.214	68.78
373.424	7.34
373.635	9.39
373.846	42.15
374.056	33.96
374.267	48.3
374.477	97.45
374.688	72.87
374.898	-0.85
375.109	113.83
375.319	33.96
375.53	-13.14
375.74	91.31
375.951	33.96
376.161	109.74
376.372	97.45
376.582	46.25
376.793	79.02
377.003	40.11
377.214	5.29
377.424	68.78
377.635	171.18
377.845	-35.67
378.055	144.55
378.266	95.4
378.476	29.87
378.686	7.34
378.897	54.44
379.107	44.2
379.317	29.87
379.528	76.97
379.738	21.67
379.948	1.19
380.158	7.34
380.369	23.72
380.579	66.73
380.789	36.01
380.999	31.91
381.21	64.68
381.42	70.83
381.63	62.63
381.84	54.44
382.05	62.63
382.261	81.07
382.471	105.64
382.681	48.3
382.891	54.44
383.101	138.41
383.311	44.2
383.521	40.11
383.731	31.91
383.941	68.78
384.151	-13.14
384.361	46.25
384.571	140.46
384.781	36.01
384.991	62.63
385.201	103.59
385.411	44.2
385.621	85.16
385.831	54.44
386.041	40.11
386.251	62.63
386.461	74.92
386.671	27.82
386.881	113.83
387.091	64.68
387.301	68.78
387.511	60.59
387.72	97.45
387.93	68.78
388.14	-15.19
388.35	68.78
388.56	58.54
388.769	146.6
388.979	85.16
389.189	48.3
389.399	21.67
389.609	40.11
389.818	60.59
390.028	23.72
390.238	93.35
390.447	21.67
390.657	42.15
390.867	7.34
391.076	-41.81
391.286	128.17
391.496	89.26
391.705	44.2
391.915	72.87
392.125	38.06
392.334	56.49
392.544	144.55
392.753	11.43
392.963	7.34
393.172	81.07
393.382	-0.85
393.591	68.78
393.801	60.59
394.01	136.36
394.22	36.01
394.429	54.44
394.639	140.46
394.848	74.92
395.058	89.26
395.267	79.02
395.477	87.21
395.686	54.44
395.895	79.02
396.105	156.84
396.314	79.02
396.524	52.39
396.733	50.35
396.942	150.7
397.152	140.46
397.361	173.22
397.57	117.93
397.78	62.63
397.989	89.26
398.198	156.84
398.407	95.4
398.617	124.07
398.826	95.4
399.035	68.78
399.244	115.88
399.453	76.97
399.663	107.69
399.872	103.59
400.081	93.35
400.29	158.89
400.499	130.22
400.708	50.35
400.917	60.59
401.127	83.11
401.336	140.46
401.545	195.75
401.754	136.36
401.963	171.18
402.172	122.02
402.381	91.31
402.59	187.56
402.799	128.17
403.008	156.84
403.217	173.22
403.426	148.65
403.635	76.97
403.844	111.78
404.053	126.12
404.262	109.74
404.471	148.65
404.68	138.41
404.888	134.31
405.097	140.46
405.306	128.17
405.515	205.99
405.724	175.27
405.933	167.08
406.142	144.55
406.35	210.09
406.559	128.17
406.768	177.32
406.977	242.85
407.185	193.7
407.394	275.62
407.603	126.12
407.812	105.64
408.02	244.9
408.229	216.23
408.438	275.62
408.646	279.72
408.855	330.92
409.064	251.05
409.272	244.9
409.481	306.34
409.69	308.39
409.898	292.01
410.107	205.99
410.315	240.81
410.524	304.29
410.733	373.92
410.941	380.07
411.15	390.31
411.358	373.92
411.567	466.08
411.775	361.64
411.984	396.45
412.192	451.75
412.401	486.56
412.609	484.52
412.818	545.95
413.026	472.23
413.234	511.14
413.443	554.15
413.651	492.71
413.86	502.95
414.068	681.12
414.276	619.68
414.485	666.78
414.693	670.88
414.901	652.45
415.11	683.17
415.318	701.6
415.526	765.09
415.734	750.75
415.943	799.9
416.151	775.33
416.359	881.82
416.567	824.48
416.776	840.86
416.984	953.5
417.192	926.88
417.4	984.22
417.608	1086.62
417.817	1049.75
418.025	1127.58
418.233	1250.46
418.441	1096.86
418.649	1209.5
418.857	1275.03
419.065	1330.33
419.273	1242.26
419.481	1344.66
419.689	1369.24
419.897	1469.59
420.105	1578.13
420.313	1479.83
420.521	1559.7
420.729	1619.09
420.937	1694.86
421.145	1741.97
421.353	1744.02
421.561	2051.21
421.769	2038.92
421.977	1989.77
422.185	2055.31
422.393	2208.9
422.601	2231.43
422.809	2303.11
423.017	2411.65
423.224	2454.66
423.432	2583.68
423.64	2413.7
423.848	2708.61
424.056	2704.51
424.263	2825.34
424.471	2897.02
424.679	2905.21
424.887	3142.78
425.094	3067
425.302	3249.27
425.51	3257.46
425.718	3458.17
425.925	3320.95
426.133	3654.77
426.341	3812.46
426.548	3808.37
426.756	3853.42
426.964	4045.93
427.171	4134
427.379	4263.02
427.586	4492.39
427.794	4549.73
428.001	4754.53
428.209	4877.41
428.417	5020.77
428.624	5256.28
428.832	5239.9
429.039	5096.54
429.247	5446.74
429.454	5743.7
429.662	6177.87
429.869	5782.61
430.076	6179.92
430.284	6009.93
430.491	6175.82
430.699	6624.33
430.906	6548.55
431.114	6671.43
431.321	7128.13
431.528	6984.77
431.736	7550.01
431.943	7975.98
432.15	7564.34
432.358	7779.38
432.565	8186.93
432.772	8123.44
432.979	8592.42
433.187	8571.94
433.394	8770.6
433.601	9411.61
433.808	9301.02
434.016	9196.57
434.223	9606.17
434.43	10458.12
434.637	10054.67
434.844	10619.91
435.052	10798.09
435.259	10773.51
435.466	10847.24
435.673	10796.04
435.88	11445.24
436.087	12264.43
436.294	12094.45
436.501	12051.44
436.708	12121.07
436.915	12565.48
437.122	13005.8
437.329	13286.37
437.537	13575.13
437.743	13800.41
437.95	13390.81
438.157	14443.47
438.364	14914.5
438.571	14785.48
438.778	14771.15
438.985	16483.25
439.192	15510.46
439.399	16165.81
439.606	15594.43
439.813	16561.07
440.02	17709.98
440.227	17378.21
440.433	17255.33
440.64	17755.04
440.847	17664.93
441.054	18185.11
441.261	19092.36
441.467	18815.88
441.674	19495.81
441.881	20142.97
442.088	20253.56
442.294	20034.42
442.501	20450.16
442.708	20894.57
442.914	21607.26
443.121	22397.78
443.328	21943.13
443.534	23651.14
443.741	22741.84
443.948	22612.82
444.154	24023.87
444.361	24060.73
444.568	24494.9
444.774	24304.44
444.981	24535.86
445.187	25643.81
445.394	26362.65
445.6	25871.14
445.807	28033.79
446.013	27321.1
446.22	27575.05
446.426	28736.24
446.633	28826.35
446.839	29854.44
447.046	28785.4
447.252	30317.28
447.459	30280.41
447.665	30016.22
447.871	31623.88
448.078	33004.21
448.284	31322.83
448.491	31961.79
448.697	33235.63
448.903	34089.63
449.11	34335.39
449.316	33532.59
449.522	34478.75
449.728	35080.85
449.935	35216.02
450.141	35494.54
450.347	35949.19
450.553	35232.4
450.76	35756.68
450.966	36723.32
451.172	36737.66
451.378	37567.09
451.584	36362.88
451.791	37405.3
451.997	37382.77
452.203	37792.36
452.409	37941.86
452.615	37765.74
452.821	36547.2
453.027	36461.18
453.233	38036.07
453.44	36579.96
453.646	37051
453.852	37505.65
454.058	37577.33
454.264	36379.26
454.47	37481.07
454.676	36338.3
454.882	37646.96
455.088	34499.23
455.294	35095.19
455.5	35824.26
455.705	35414.67
455.911	34079.39
456.117	33649.32
456.323	33557.16
456.529	31529.67
456.735	33082.03
456.941	31969.99
457.147	31619.78
457.352	30812.88
457.558	30374.62
457.764	30640.86
457.97	30063.33
458.176	29315.82
458.381	29342.44
458.587	28005.12
458.793	27693.83
458.999	26557.21
459.204	28359.42
459.41	27425.54
459.616	25527.08
459.821	25461.54
460.027	25221.93
460.233	24916.78
460.438	23976.76
460.644	24191.8
460.85	23061.32
461.055	22598.48
461.261	22616.91
461.466	20872.04
461.672	20304.76
461.878	21689.18
462.083	20095.86
462.289	19760
462.494	19594.11
462.7	18873.23
462.905	18445.2
463.111	18969.48
463.316	19090.31
463.522	18654.09
463.727	18619.28
463.932	18668.43
464.138	18428.82
464.343	18719.63
464.549	17839
464.754	18299.8
464.959	18490.26
465.165	18232.21
465.37	17750.94
465.575	17159.08
465.781	17873.82
465.986	17808.28
466.191	17191.84
466.397	17019.81
466.602	16042.93
466.807	16462.77
467.012	16772.01
467.218	16554.93
467.423	16262.07
467.628	16384.94
467.833	17064.87
468.038	16505.77
468.244	16094.13
468.449	16563.12
468.654	16284.59
468.859	15975.35
469.064	15954.87
469.269	15225.79
469.474	15584.19
469.679	15696.83
469.885	15453.12
470.09	15371.2
470.295	15406.02
470.5	15195.07
470.705	15066.05
470.91	14793.67
471.115	14533.58
471.32	14971.85
471.525	14902.22
471.73	14576.59
471.935	14459.85
472.139	13919.19
472.344	14107.6
472.549	13913.05
472.754	13814.74
472.959	13554.65
473.164	12956.64
473.369	13054.95
473.574	13489.12
473.778	13415.39
473.983	13155.3
474.188	13337.57
474.393	12608.49
474.598	12657.64
474.802	12612.59
475.007	12604.39
475.212	12592.11
475.417	12102.64
475.621	12127.22
475.826	12186.61
476.031	11758.58
476.235	11574.27
476.44	11584.51
476.645	11607.03
476.849	11580.41
477.054	11420.67
477.259	11371.52
477.463	11281.41
477.668	10980.36
477.872	11191.3
478.077	10865.67
478.282	10509.32
478.486	10765.32
478.691	10519.56
478.895	10431.5
479.1	10562.57
479.304	10435.6
479.509	10126.35
479.713	10513.42
479.918	10136.59
480.122	9878.55
480.326	10155.02
480.531	10193.94
480.735	10013.71
480.94	9976.85
481.144	10013.71
481.348	9679.89
481.553	9894.93
481.757	9706.52
481.961	9759.77
482.166	10001.43
482.37	9704.47
482.574	9401.37
482.778	9853.97
482.983	9989.14
483.187	9735.19
483.391	9632.79
483.595	9628.7
483.8	9534.49
484.004	9606.17
484.208	9856.02
484.412	9743.38
484.616	9540.63
484.821	9688.09
485.025	9407.52
485.229	9831.44
485.433	9577.5
485.637	9727
485.841	9575.45
486.045	9397.28
486.249	9645.08
486.453	9460.76
486.657	9573.4
486.861	9591.83
487.065	9413.66
487.269	9704.47
487.473	9462.81
487.677	9724.95
487.881	9747.48
488.085	9655.32
488.289	9765.91
488.493	9505.82
488.697	9921.56
488.901	9835.54
489.105	9620.5
489.309	9720.85
489.512	9925.65
489.716	9585.69
489.92	9739.29
490.124	9759.77
490.328	9735.19
490.531	9788.44
490.735	10023.95
490.939	9802.77
491.143	9866.26
491.346	9784.34
491.55	9931.8
491.754	10128.4
491.958	10021.91
492.161	10228.75
492.365	10185.74
492.569	9911.32
492.772	10089.49
492.976	10169.36
493.18	10314.77
493.383	10507.27
493.587	10411.02
493.79	10624.01
493.994	10368.01
494.197	10466.31
494.401	10419.21
494.605	10685.45
494.808	10920.96
495.012	10703.88
495.215	11049.99
495.419	11080.71
495.622	11078.66
495.825	11426.81
496.029	11054.08
496.232	11447.29
496.436	11457.53
496.639	11578.36
496.843	11316.22
497.046	12002.29
497.249	11783.16
497.453	11883.51
497.656	11852.79
497.859	12164.08
498.063	12258.29
498.266	12710.89
498.469	12377.07
498.673	12311.53
498.876	12817.38
499.079	12934.12
499.282	12989.41
499.485	13104.1
499.689	12948.45
499.892	13501.4
500.095	13310.94
500.298	13738.97
500.501	13478.88
500.705	14058.45
500.908	14011.35
501.111	14117.84
501.314	14244.82
501.517	14373.84
501.72	14625.74
501.923	14771.15
502.126	14838.73
502.329	15221.7
502.532	15229.89
502.735	15305.67
502.938	15678.4
503.141	15752.12
503.344	15809.47
503.547	15991.73
503.75	15985.59
503.953	16272.31
504.156	16593.84
504.359	16858.03
504.562	16845.74
504.765	17009.58
504.968	17292.19
505.17	17398.69
505.373	17318.82
505.576	17689.5
505.779	17791.9
505.982	18232.21
506.185	18580.37
506.387	18031.51
506.59	18289.56
506.793	18912.14
506.996	18828.17
507.198	19327.88
507.401	19407.75
507.604	19454.85
507.807	19798.91
508.009	19970.94
508.212	20132.73
508.415	20278.13
508.617	20786.03
508.82	20652.91
509.022	20464.5
509.225	21119.85
509.428	21265.25
509.63	21703.52
509.833	21490.53
510.035	22023
510.238	21924.7
510.44	22281.05
510.643	22522.71
510.845	22745.94
511.048	22547.28
511.25	22725.46
511.453	23237.45
511.655	23688
511.858	23774.02
512.06	23796.54
512.262	24236.86
512.465	23900.99
512.667	24253.24
512.87	24675.12
513.072	24916.78
513.274	25201.45
513.477	25441.06
513.679	25473.83
513.881	25578.28
514.084	26077.98
514.286	25774.88
514.488	26313.5
514.69	26958.61
514.893	26837.78
515.095	26927.89
515.297	27247.37
515.499	27304.71
515.701	27587.33
515.904	28060.41
516.106	27921.15
516.308	28295.93
516.51	28427
516.712	28588.79
516.914	28564.21
517.116	29162.22
517.318	29041.39
517.52	29436.65
517.722	29731.56
517.925	30065.38
518.127	30188.25
518.329	30427.87
518.531	30280.41
518.733	31218.38
518.935	31113.94
519.136	31146.7
519.338	31886.02
519.54	31666.89
519.742	31976.13
519.944	31976.13
520.146	32275.13
520.348	32801.46
520.55	32844.47
520.752	32645.82
520.954	33532.59
521.155	32930.48
521.357	33692.33
521.559	33389.23
521.761	34351.77
521.963	34085.54
522.164	34511.52
522.366	34542.24
522.568	34736.79
522.77	34908.82
522.971	35168.91
523.173	35025.56
523.375	35345.04
523.576	35732.11
523.778	35590.8
523.98	35621.52
524.181	35998.34
524.383	35969.67
524.584	36309.63
524.786	36493.95
524.988	36385.41
525.189	36985.46
525.391	36911.74
525.592	37317.23
525.794	37364.34
525.995	37495.41
526.197	37206.64
526.398	37831.27
526.6	37757.55
526.801	37673.58
527.003	38300.26
527.204	38038.12
527.406	38537.82
527.607	38687.32
527.808	38443.62
528.01	37775.98
528.211	38210.15
528.412	38974.04
528.614	38699.61
528.815	38677.08
529.016	39060.05
529.218	38810.2
529.419	38971.99
529.62	38791.77
529.822	38822.49
530.023	39271
530.224	39150.17
530.425	39477.84
530.626	38920.79
530.828	38879.83
531.029	39936.59
531.23	39119.45
531.431	39062.1
531.632	39363.15
531.833	39844.43
532.035	39522.9
532.236	39631.44
532.437	39815.76
532.638	39553.62
532.839	39969.35
533.04	39696.97
533.241	39357.01
533.442	40096.33
533.643	39662.16
533.844	39428.69
534.045	39660.11
534.246	39141.97
534.447	39950.92
534.648	39590.48
534.849	39928.39
535.05	39377.49
535.251	39625.29
535.451	39719.5
535.652	39905.87
535.853	39496.27
536.054	39770.7
536.255	39684.69
536.456	39445.07
536.657	40301.12
536.857	39563.85
537.058	39467.6
537.259	40161.86
537.46	39840.33
537.66	39463.5
537.861	39873.1
538.062	39625.29
538.263	39602.77
538.463	39625.29
538.664	39520.85
538.865	39699.02
539.065	39719.5
539.266	39414.35
539.466	40008.26
539.667	39334.48
539.868	39782.99
540.068	39967.3
540.269	39617.1
540.469	39862.86
540.67	39314
540.87	39627.34
541.071	39660.11
541.271	39551.57
541.472	39570
541.672	38996.57
541.873	39023.19
542.073	38904.41
542.274	39553.62
542.474	39111.25
542.675	39152.21
542.875	39742.03
543.075	38849.11
543.276	38767.2
543.476	39574.09
543.676	39117.4
543.877	39324.24
544.077	39357.01
544.277	39225.94
544.478	39373.39
544.678	39256.66
544.878	39254.61
545.078	39262.8
545.279	38963.8
545.479	39103.06
545.679	39049.81
545.879	39248.47
546.079	39221.84
546.28	39072.34
546.48	38693.47
546.68	38939.22
546.88	39133.78
547.08	38500.96
547.28	38865.5
547.48	38881.88
547.68	38904.41
547.88	38654.56
548.081	38961.75
548.281	38861.4
548.481	38795.87
548.681	38961.75
548.881	38867.55
549.081	38742.62
549.28	38558.3
549.48	39354.96
549.68	38928.98
549.88	39268.95
550.08	38666.84
550.28	38648.41
550.48	38707.8
550.68	39084.63
550.88	38873.69
551.08	38523.49
551.279	38716
551.479	38574.69
551.679	39105.11
551.879	38490.72
552.079	38636.13
552.278	38464.1
552.478	38529.63
552.678	38867.55
552.878	38863.45
553.077	38380.13
553.277	38324.83
553.477	38531.68
553.676	38208.1
553.876	38529.63
554.076	38158.95
554.275	37997.16
554.475	38228.58
554.674	38107.75
554.874	38433.38
555.074	38185.57
555.273	38558.3
555.473	38105.7
555.672	37984.87
555.872	38083.17
556.071	38062.69
556.271	38490.72
556.47	38052.45
556.67	37890.66
556.869	38054.5
557.068	38027.88
557.268	38105.7
557.467	38056.55
557.667	38054.5
557.866	37632.62
558.065	37786.22
558.265	37603.95
558.464	37874.28
558.663	38087.27
558.863	37388.91
559.062	38201.96
559.261	37579.37
559.461	38017.64
559.66	37317.23
559.859	37509.74
560.058	37087.86
560.258	37276.27
560.457	37300.85
560.656	37368.43
560.855	37331.57
561.054	37532.27
561.253	37159.54
561.453	37184.12
561.652	37358.19
561.851	37249.65
562.05	36975.22
562.249	36909.69
562.448	37452.4
562.647	37096.05
562.846	36899.45
563.045	36649.6
563.244	36684.41
563.443	37094
563.642	36541.05
563.841	36655.74
564.04	36518.53
564.239	36932.22
564.438	36557.44
564.637	36704.89
564.836	36792.95
565.035	36110.98
565.234	36477.57
565.432	36442.75
565.631	36201.09
565.83	36283.01
566.029	35885.7
566.228	36102.79
566.427	36305.54
566.625	35590.8
566.824	35506.83
567.023	35850.89
567.222	35240.59
567.42	35994.25
567.619	35500.68
567.818	35752.59
568.016	35447.44
568.215	35916.42
568.414	35707.53
568.612	35472.01
568.811	35117.71
569.01	35447.44
569.208	35242.64
569.407	35201.68
569.605	34716.31
569.804	35435.15
570.002	34804.38
570.201	35062.42
570.4	34581.15
570.598	34640.54
570.797	34753.18
570.995	34755.22
571.193	34194.08
571.392	34751.13
571.59	34732.7
571.789	34560.67
571.987	34220.7
572.186	34419.36
572.384	34099.87
572.582	34486.94
572.781	34554.52
572.979	33915.56
573.177	34110.11
573.376	34263.71
573.574	34036.39
573.772	34108.07
573.971	33751.72
574.169	33559.21
574.367	33843.88
574.565	33817.25
574.763	33671.85
574.962	33286.83
575.16	33196.72
575.358	33366.7
575.556	33299.12
575.754	33393.33
575.952	33143.47
576.151	33458.86
576.349	32723.64
576.547	32996.02
576.745	32981.68
576.943	33047.22
577.141	32785.08
577.339	32586.43
577.537	32471.74
577.735	32725.69
577.933	32449.21
578.131	32418.49
578.329	32250.56
578.527	32469.69
578.725	32086.72
578.923	32582.33
579.121	32094.91
579.319	32090.82
579.516	32303.81
579.714	32180.93
579.912	32084.67
580.11	31797.96
580.308	31474.38
580.506	31877.83
580.704	31238.86
580.901	31574.73
581.099	32162.5
581.297	31320.78
581.495	31242.96
581.692	31505.1
581.89	31226.57
582.088	31507.15
582.285	31079.12
582.483	31355.6
582.681	31046.35
582.878	31109.84
583.076	30640.86
583.274	30933.71
583.471	30450.39
583.669	30737.11
583.866	30532.31
584.064	30294.75
584.262	30169.82
584.459	30421.72
584.657	30511.83
584.854	30374.62
585.052	30143.2
585.249	30102.24
585.447	29940.45
585.644	29790.95
585.841	29922.02
586.039	29997.79
586.236	29797.09
586.434	29752.04
586.631	29551.34
586.828	29631.21
587.026	29645.54
587.223	29319.92
587.42	29278.96
587.618	29526.76
587.815	28957.42
588.012	29045.49
588.21	28728.05
588.407	29326.06
588.604	28783.35
588.801	28809.97
588.999	28517.11
589.196	28558.07
589.393	28648.18
589.59	28707.57
589.787	28285.69
589.984	28300.03
590.182	27984.64
590.379	28201.72
590.576	28044.03
590.773	28150.53
590.97	27869.95
591.167	28207.87
591.364	27626.25
591.561	27912.96
591.758	27931.39
591.955	27216.65
592.152	27931.39
592.349	27659.01
592.546	27593.48
592.743	27474.7
592.94	26880.78
593.137	27155.21
593.334	27198.22
593.531	27161.36
593.727	27036.43
593.924	27042.57
594.121	26618.64
594.318	27009.81
594.515	26647.32
594.712	26741.52
594.908	26624.79
595.105	26280.73
595.302	26450.71
595.499	26929.94
595.696	26340.12
595.892	26194.71
596.089	26317.59
596.286	26225.43
596.482	25893.66
596.679	25860.9
596.876	25883.42
597.072	25649.96
597.269	25754.4
597.466	25744.16
597.662	25635.62
597.859	25303.85
598.055	25486.12
598.252	25459.49
598.448	25418.53
598.645	25135.92
598.841	25094.96
599.038	24957.74
599.234	25142.06
599.431	24754.99
599.627	24918.83
599.824	24644.4
600.02	24687.41
600.217	24738.61
600.413	24408.89
600.609	24406.84
600.806	24548.15
601.002	24406.84
601.198	24206.14
601.395	24150.84
601.591	24247.1
601.787	23966.52
601.984	23702.34
602.18	24075.07
602.376	23743.3
602.572	23647.04
602.769	23747.39
602.965	23456.58
603.161	23944
603.357	23575.36
603.553	23515.97
603.75	23567.17
603.946	23374.66
604.142	23266.12
604.338	23190.34
604.534	23251.78
604.73	22836.05
604.926	22936.4
605.122	22979.4
605.318	22790.99
605.514	22764.37
605.71	22596.43
605.906	22688.59
606.102	22489.94
606.298	22524.75
606.494	22559.57
606.69	22676.3
606.886	22793.04
607.082	22197.08
607.278	22457.17
607.474	22031.19
607.67	22197.08
607.866	21777.25
608.062	22434.64
608.257	21918.56
608.453	21769.05
608.649	22176.6
608.845	21762.91
609.041	21795.68
609.236	21967.71
609.432	21578.59
609.628	22141.78
609.824	21838.69
610.019	21453.67
610.215	21764.96
610.411	21793.63
610.606	21433.19
610.802	21441.38
610.998	21257.06
611.193	21416.8
611.389	21271.4
611.584	21123.94
611.78	21293.93
611.976	21263.21
612.171	21212.01
612.367	21001.07
612.562	21240.68
612.758	20992.87
612.953	21037.93
613.149	20874.09
613.344	20781.93
613.539	21269.35
613.735	20894.57
613.93	20898.67
614.126	20968.3
614.321	21072.75
614.517	21027.69
614.712	20728.69
614.907	20423.54
615.103	20822.89
615.298	20595.57
615.493	20718.45
615.688	20304.76
615.884	20654.96
616.079	20095.86
616.274	20677.49
616.47	20353.91
616.665	20380.53
616.86	20169.59
617.055	20122.49
617.25	19972.99
617.445	20329.33
617.641	20015.99
617.836	20298.61
618.031	19975.03
618.226	20001.66
618.421	19757.95
618.616	19952.51
618.811	19733.37
619.006	19872.64
619.201	19514.24
619.396	19635.07
619.591	19260.29
619.786	19401.6
619.981	19346.31
620.176	19501.95
620.371	18922.38
620.566	19131.27
620.761	19123.08
620.956	19069.83
621.151	19047.3
621.346	19096.46
621.541	18650
621.735	18844.56
621.93	18301.84
622.125	18398.1
622.32	18080.66
622.515	18361.23
622.709	18494.35
622.904	18242.45
623.099	17871.77
623.294	18148.25
623.488	17755.04
623.683	17759.13
623.878	17826.71
624.072	17789.85
624.267	17660.83
624.462	17699.74
624.656	17109.93
624.851	17267.62
625.046	17271.72
625.24	17329.06
625.435	17058.73
625.629	16933.8
625.824	16937.9
626.018	16778.15
626.213	16380.85
626.407	16642.99
626.602	16419.76
626.796	16432.05
626.991	16438.19
627.185	16305.07
627.38	15954.87
627.574	16141.24
627.768	16116.66
627.963	15879.1
628.157	15772.6
628.352	15879.1
628.546	15303.62
628.74	15659.96
628.935	15356.86
629.129	15418.3
629.323	15033.29
629.517	15141.83
629.712	14977.99
629.906	15119.3
630.1	14869.45
630.294	14879.69
630.489	14842.82
630.683	14795.72
630.877	14713.8
631.071	14642.12
631.265	14572.49
631.459	14449.61
631.653	14449.61
631.848	14392.27
632.042	14009.3
632.236	14302.16
632.43	14156.75
632.624	14138.32
632.818	13994.97
633.012	13859.8
633.206	13849.56
633.4	13927.38
633.594	13372.38
633.788	13681.63
633.982	13566.94
634.176	13489.12
634.369	13341.66
634.563	13323.23
634.757	13437.92
634.951	13206.5
635.145	13329.38
635.339	13181.92
635.533	13044.71
635.726	13044.71
635.92	12702.7
636.114	12985.32
636.308	12731.37
636.501	12600.3
636.695	12487.66
636.889	12360.69
637.083	12620.78
637.276	12415.98
637.47	12129.27
637.664	12213.23
637.857	12360.69
638.051	12192.75
638.244	12205.04
638.438	12084.21
638.632	12033.01
638.825	11734.01
639.019	11983.86
639.212	11863.03
639.406	11920.37
639.599	11746.3
639.793	11600.89
639.986	11412.48
640.18	11353.09
640.373	11510.78
640.567	11310.08
640.76	11400.19
640.954	11410.43
641.147	11170.82
641.34	11129.86
641.534	11125.76
641.727	11033.6
641.92	10980.36
642.114	11082.75
642.307	11054.08
642.5	10951.68
642.694	10464.27
642.887	10687.5
643.08	10640.39
643.273	10609.67
643.467	10578.95
643.66	10392.59
643.853	10376.2
644.046	10372.11
644.239	10634.25
644.432	10341.39
644.626	10112.02
644.819	10132.5
645.012	10165.26
645.205	10032.15
645.398	10138.64
645.591	9827.35
645.784	10019.86
645.977	9749.53
646.17	9788.44
646.363	9782.29
646.556	9659.42
646.749	9659.42
646.942	9729.05
647.135	9561.11
647.328	9608.22
647.521	9436.19
647.714	9384.99
647.907	9604.12
648.099	9303.07
648.292	9172
648.485	9436.19
648.678	9085.98
648.871	9169.95
649.064	9073.7
649.256	9010.21
649.449	8999.97
649.642	8899.62
649.835	8862.76
650.027	8920.1
650.22	8879.14
650.413	8645.67
650.605	8860.71
650.798	8567.85
650.991	8688.68
651.183	8776.74
651.376	8633.38
651.568	8447.02
651.761	8475.69
651.954	8559.66
652.146	8191.02
652.339	8457.26
652.531	8195.12
652.724	8422.44
652.916	8223.79
653.109	8176.69
653.301	8064.05
653.494	8123.44
653.686	8072.24
653.879	8178.73
654.071	7810.1
654.263	7939.12
654.456	7834.68
654.648	8033.33
654.84	7709.75
655.033	7760.95
655.225	7717.94
655.417	7566.39
655.61	7574.58
655.802	7679.03
655.994	7437.37
656.186	7607.35
656.379	7455.8
656.571	7451.7
656.763	7306.3
656.955	7461.94
657.148	7302.2
657.34	7314.49
657.532	7210.04
657.724	7193.66
657.916	7228.48
658.108	7111.74
658.3	7064.64
658.492	7189.56
658.684	7136.32
658.876	7085.12
659.068	6845.51
659.26	6861.89
659.452	7042.11
659.644	6769.73
659.836	6874.18
660.028	6722.63
660.22	6753.35
660.412	6739.01
660.604	6790.21
660.796	6739.01
660.988	6706.24
661.18	6542.41
661.372	6640.71
661.563	6425.67
661.755	6628.42
661.947	6603.85
662.139	6384.71
662.331	6456.39
662.522	6392.91
662.714	6208.59
662.906	6270.03
663.097	6296.65
663.289	6186.06
663.481	6241.36
663.673	6222.92
663.864	6190.16
664.056	6128.72
664.247	6198.35
664.439	5934.16
664.631	6040.65
664.822	6089.81
665.014	6032.46
665.205	6079.57
665.397	5899.34
665.588	5964.88
665.78	5741.65
665.971	5962.83
666.163	5717.08
666.354	5815.38
666.546	5762.13
666.737	5731.41
666.929	5590.1
667.12	5669.97
667.311	5811.28
667.503	5733.46
667.694	5790.8
667.885	5604.44
668.077	5440.6
668.268	5551.19
668.459	5540.95
668.651	5489.75
668.842	5459.03
669.033	5375.06
669.224	5389.4
669.416	5520.47
669.607	5403.74
669.798	5282.91
669.989	5299.29
670.18	5325.91
670.371	5344.35
670.563	5289.05
670.754	5291.1
670.945	5215.32
671.136	5141.6
671.327	5198.94
671.518	5166.17
671.709	5186.65
671.9	5026.91
672.091	5061.73
672.282	4990.05
672.473	4924.51
672.664	5014.62
672.855	4936.8
673.046	5000.29
673.237	5088.35
673.428	4979.81
673.619	4795.49
673.809	4869.22
674	4629.6
674.191	4914.27
674.382	4889.7
674.573	4766.82
674.764	4928.61
674.954	4969.57
675.145	4742.24
675.336	4686.95
675.527	4682.85
675.717	4944.99
675.908	4607.08
676.099	4664.42
676.289	4828.26
676.48	4709.47
676.671	4613.22
676.861	4686.95
677.052	4699.23
677.243	4545.64
677.433	4662.37
677.624	4707.43
677.814	4557.93
678.005	4498.53
678.195	4623.46
678.386	4607.08
678.576	4535.4
678.767	4402.28
678.957	4437.09
679.148	4514.92
679.338	4594.79
679.529	4519.01
679.719	4502.63
679.909	4412.52
680.1	4500.58
680.29	4406.38
680.481	4439.14
680.671	4424.81
680.861	4269.16
681.052	4299.88
681.242	4367.46
681.432	4418.66
681.622	4279.4
681.813	4351.08
682.003	4338.79
682.193	4144.24
682.383	4207.72
682.573	4240.49
682.764	4289.64
682.954	4295.79
683.144	4158.57
683.334	4281.45
683.524	4236.39
683.714	4095.08
683.904	4199.53
684.094	4125.8
684.284	4088.94
684.474	4148.33
684.664	4199.53
684.854	4224.11
685.044	4004.97
685.234	4086.89
685.424	4007.02
685.614	4111.47
685.804	4029.55
685.994	4090.99
686.184	3933.29
686.374	3976.3
686.564	4033.65
686.753	3961.97
686.943	4007.02
687.133	3894.38
687.323	3916.91
687.513	3935.34
687.702	3787.89
687.892	3781.74
688.082	3968.11
688.272	3765.36
688.461	3869.81
688.651	3900.53
688.841	3734.64
689.03	3656.82
689.22	3777.65
689.41	3847.28
689.599	3900.53
689.789	3656.82
689.979	3730.55
690.168	3761.27
690.358	3626.1
690.547	3566.71
690.737	3626.1
690.926	3646.58
691.116	3607.67
691.305	3673.2
691.495	3474.55
691.684	3452.02
691.874	3474.55
692.063	3476.6
692.252	3447.93
692.442	3511.41
692.631	3427.45
692.82	3433.59
693.01	3298.42
693.199	3355.77
693.388	3308.66
693.578	3220.6
693.767	3382.39
693.956	3275.9
694.146	3200.12
694.335	3189.88
694.524	3337.34
694.713	3128.44
694.902	3214.46
695.092	3171.45
695.281	3169.4
695.47	3171.45
695.659	3120.25
695.848	3056.76
696.037	3060.86
696.226	3034.24
696.415	3005.56
696.604	3122.3
696.793	2993.28
696.982	3003.52
697.171	3067
697.36	3054.72
697.549	3112.06
697.738	2931.84
697.927	2937.98
698.116	2962.56
698.305	2909.31
698.494	2950.27
698.683	2843.78
698.872	2946.17
699.061	2894.97
699.25	2882.69
699.438	2884.73
699.627	2802.82
699.816	2944.13
700.005	2845.82
700.193	2980.99
700.382	2815.1
700.571	2888.83
700.76	2718.85
700.948	2753.66
701.137	2811.01
701.326	2772.1
701.514	2710.66
701.703	2679.94
701.892	2708.61
702.08	2845.82
702.269	2733.18
702.457	2620.55
702.646	2667.65
702.834	2626.69
703.023	2829.44
703.212	2671.75
703.4	2739.33
703.589	2686.08
703.777	2612.35
703.965	2471.04
704.154	2858.11
704.342	2632.83
704.531	2579.59
704.719	2512
704.907	2616.45
705.096	2657.41
705.284	2571.4
705.472	2542.72
705.661	2649.22
705.849	2559.11
706.037	2559.11
706.226	2641.03
706.414	2626.69
706.602	2604.16
706.79	2532.48
706.979	2475.14
707.167	2561.16
707.355	2571.4
707.543	2575.49
707.731	2460.81
707.919	2497.67
708.107	2509.96
708.296	2505.86
708.484	2469
708.672	2626.69
708.86	2522.24
709.048	2581.64
709.236	2565.25
709.424	2458.76
709.612	2591.88
709.8	2356.36
709.988	2516.1
710.176	2471.04
710.364	2421.89
710.551	2460.81
710.739	2448.52
710.927	2559.11
711.115	2442.37
711.303	2540.68
711.491	2505.86
711.679	2479.24
711.866	2573.44
712.054	2415.75
712.242	2434.18
712.43	2442.37
712.617	2466.95
712.805	2368.65
712.993	2477.19
713.181	2450.57
713.368	2495.62
713.556	2460.81
713.744	2395.27
713.931	2536.58
714.119	2440.33
714.306	2452.61
714.494	2358.41
714.682	2528.39
714.869	2288.78
715.057	2444.42
715.244	2432.13
715.432	2483.33
715.619	2454.66
715.807	2497.67
715.994	2411.65
716.182	2450.57
716.369	2436.23
716.556	2376.84
716.744	2454.66
716.931	2284.68
717.119	2339.97
717.306	2479.24
717.493	2329.74
717.681	2587.78
717.868	2378.89
718.055	2358.41
718.242	2346.12
718.43	2458.76
718.617	2456.71
718.804	2401.41
718.991	2544.77
719.179	2477.19
719.366	2407.56
719.553	2413.7
719.74	2405.51
719.927	2448.52
720.114	2409.61
720.301	2460.81
720.488	2356.36
720.676	2395.27
720.863	2428.04
721.05	2432.13
721.237	2460.81
721.424	2380.93
721.611	2462.85
721.798	2464.9
721.985	2440.33
722.172	2436.23
722.358	2450.57
722.545	2372.74
722.732	2471.04
722.919	2489.48
723.106	2413.7
723.293	2428.04
723.48	2370.69
723.667	2342.02
723.853	2364.55
724.04	2485.38
724.227	2548.87
724.414	2471.04
724.6	2438.28
724.787	2399.37
724.974	2360.45
725.161	2514.05
725.347	2354.31
725.534	2583.68
725.72	2462.85
725.907	2473.09
726.094	2475.14
726.28	2489.48
726.467	2419.85
726.653	2358.41
726.84	2493.57
727.027	2573.44
727.213	2348.17
727.4	2509.96
727.586	2466.95
727.773	2575.49
727.959	2524.29
728.145	2518.15
728.332	2430.09
728.518	2499.72
728.705	2540.68
728.891	2491.52
729.077	2575.49
729.264	2473.09
729.45	2417.8
729.636	2598.02
729.823	2415.75
730.009	2593.92
730.195	2518.15
730.382	2528.39
730.568	2598.02
730.754	2583.68
730.94	2397.32
731.126	2505.86
731.313	2575.49
731.499	2552.96
731.685	2663.55
731.871	2489.48
732.057	2491.52
732.243	2614.4
732.429	2557.06
732.615	2632.83
732.801	2589.83
732.987	2563.2
733.173	2630.79
733.359	2669.7
733.545	2526.34
733.731	2655.36
733.917	2614.4
734.103	2763.9
734.289	2763.9
734.475	2690.18
734.661	2559.11
734.847	2706.56
735.033	2546.82
735.219	2622.59
735.404	2653.31
735.59	2667.65
735.776	2612.35
735.962	2587.78
736.148	2718.85
736.333	2700.42
736.519	2733.18
736.705	2710.66
736.89	2579.59
737.076	2694.27
737.262	2528.39
737.447	2591.88
737.633	2634.88
737.819	2686.08
738.004	2679.94
738.19	2675.84
738.375	2694.27
738.561	2677.89
738.747	2571.4
738.932	2745.47
739.118	2765.95
739.303	2743.42
739.489	2743.42
739.674	2696.32
739.859	2616.45
740.045	2776.19
740.23	2712.71
740.416	2567.3
740.601	2641.03
740.786	2751.62
740.972	2602.11
741.157	2571.4
741.342	2583.68
741.528	2724.99
741.713	2641.03
741.898	2731.14
742.084	2686.08
742.269	2669.7
742.454	2645.12
742.639	2575.49
742.824	2661.51
743.01	2649.22
743.195	2720.9
743.38	2585.73
743.565	2604.16
743.75	2593.92
743.935	2641.03
744.12	2776.19
744.305	2600.07
744.49	2634.88
744.675	2524.29
744.86	2559.11
745.045	2587.78
745.23	2608.26
745.415	2481.28
745.6	2530.44
745.785	2651.27
745.97	2565.25
746.155	2526.34
746.34	2606.21
746.525	2542.72
746.71	2526.34
746.895	2495.62
747.079	2616.45
747.264	2544.77
747.449	2503.81
747.634	2460.81
747.819	2589.83
748.003	2507.91
748.188	2466.95
748.373	2509.96
748.557	2458.76
748.742	2505.86
748.927	2395.27
749.111	2462.85
749.296	2313.35
749.481	2436.23
749.665	2434.18
749.85	2438.28
750.034	2331.78
750.219	2448.52
750.404	2395.27
750.588	2307.21
750.773	2317.45
750.957	2264.2
751.141	2294.92
751.326	2245.77
751.51	2229.38
751.695	2356.36
751.879	2292.87
752.064	2200.71
752.248	2337.93
752.432	2217.1
752.617	2231.43
752.801	2229.38
752.985	2167.95
753.17	2159.75
753.354	2192.52
753.538	2192.52
753.722	2051.21
753.907	2075.79
754.091	2104.46
754.275	2204.81
754.459	2012.3
754.643	2006.16
754.828	2124.94
755.012	2051.21
755.196	2106.51
755.38	2090.12
755.564	2061.45
755.748	2055.31
755.932	1997.96
756.116	1995.92
756.3	1991.82
756.484	1987.72
756.668	1948.81
756.852	1916.05
757.036	1961.1
757.22	1914
757.404	1803.41
757.588	1887.37
757.772	1811.6
757.956	1868.94
758.14	1873.04
758.323	1805.46
758.507	1780.88
758.691	1838.22
758.875	1821.84
759.059	1754.26
759.242	1832.08
759.426	1739.92
759.61	1711.25
759.794	1832.08
759.977	1729.68
760.161	1793.17
760.345	1817.74
760.528	1807.5
760.712	1733.78
760.895	1688.72
761.079	1795.22
761.263	1703.06
761.446	1617.04
761.63	1647.76
761.813	1643.67
761.997	1733.78
762.18	1692.82
762.364	1682.58
762.547	1637.52
762.731	1670.29
762.914	1715.34
763.098	1688.72
763.281	1649.81
763.464	1571.99
763.648	1617.04
763.831	1590.42
764.015	1543.32
764.198	1627.28
764.381	1600.66
764.564	1531.03
764.748	1647.76
764.931	1528.98
765.114	1553.55
765.297	1492.12
765.481	1498.26
765.664	1442.96
765.847	1504.4
766.03	1662.1
766.213	1510.55
766.397	1496.21
766.58	1438.87
766.763	1471.64
766.946	1541.27
767.129	1479.83
767.312	1461.4
767.495	1502.36
767.678	1471.64
767.861	1516.69
768.044	1459.35
768.227	1492.12
768.41	1404.05
768.593	1445.01
768.776	1397.91
768.959	1451.16
769.142	1412.25
769.324	1418.39
769.507	1430.68
769.69	1399.96
769.873	1373.33
770.056	1404.05
770.239	1402.01
770.421	1428.63
770.604	1260.7
770.787	1332.37
770.97	1410.2
771.152	1223.83
771.335	1287.32
771.518	1279.13
771.7	1391.77
771.883	1356.95
772.066	1348.76
772.248	1291.41
772.431	1365.14
772.613	1350.81
772.796	1174.68
772.978	1254.55
773.161	1295.51
773.343	1182.87
773.526	1250.46
773.708	1270.94
773.891	1197.21
774.073	1172.63
774.256	1328.28
774.438	1301.65
774.621	1178.78
774.803	1166.49
774.985	1143.96
775.168	1203.35
775.35	1234.07
775.532	1168.54
775.715	1199.26
775.897	1127.58
776.079	1072.28
776.261	1119.39
776.444	1113.24
776.626	1010.84
776.808	1125.53
776.99	1014.94
777.173	1111.19
777.355	906.4
777.537	1068.19
777.719	1051.8
777.901	1004.7
778.083	1096.86
778.265	1012.89
778.447	1053.85
778.629	949.4
778.811	978.08
778.993	1023.13
779.175	1037.47
779.357	957.6
779.539	916.64
779.721	1019.04
779.903	957.6
780.085	912.54
780.267	930.97
780.449	941.21
780.631	912.54
780.812	865.44
780.994	961.69
781.176	883.87
781.358	896.16
781.54	877.73
781.721	855.2
781.903	881.82
782.085	787.61
782.267	830.62
782.448	910.49
782.63	717.98
782.812	810.14
782.993	838.81
783.175	795.81
783.357	844.96
783.538	783.52
783.72	816.29
783.901	717.98
784.083	656.54
784.264	851.1
784.446	756.9
784.627	738.46
784.809	724.13
784.99	715.94
785.172	754.85
785.353	709.79
785.535	701.6
785.716	728.22
785.897	615.59
786.079	736.42
786.26	726.18
786.441	705.7
786.623	562.34
786.804	674.98
786.985	652.45
787.167	722.08
787.348	658.59
787.529	750.75
787.71	654.5
787.891	646.3
788.073	593.06
788.254	515.23
788.435	593.06
788.616	711.84
788.797	572.58
788.978	629.92
789.159	533.67
789.34	582.82
789.522	623.78
789.703	599.2
789.884	609.44
790.065	578.72
790.246	584.87
790.427	509.09
790.607	623.78
790.788	584.87
790.969	558.24
791.15	515.23
791.331	550.05
791.512	595.11
791.693	552.1
791.874	574.63
792.054	627.87
792.235	636.06
792.416	449.7
792.597	593.06
792.778	570.53
792.958	527.52
793.139	537.76
793.32	486.56
793.5	492.71
793.681	509.09
793.862	470.18
794.042	509.09
794.223	472.23
794.404	502.95
794.584	414.88
794.765	431.27
794.945	470.18
795.126	519.33
795.306	509.09
795.487	437.41
795.667	398.5
795.848	425.12
796.028	439.46
796.209	447.65
796.389	496.8
796.57	410.79
796.75	527.52
796.93	449.7
797.111	488.61
797.291	384.16
797.471	402.6
797.652	466.08
797.832	392.36
798.012	433.32
798.192	439.46
798.373	367.78
798.553	425.12
798.733	351.4
798.913	330.92
799.093	431.27
799.274	418.98
799.454	398.5
799.634	421.03
799.814	349.35
799.994	410.79
800.174	390.31
800.354	437.41
800.534	339.11
800.714	281.77
800.894	392.36
801.074	382.12
801.254	337.06
801.434	414.88
801.614	249
801.794	269.48
801.974	1002.65
802.154	345.25
802.334	369.83
802.514	347.3
802.693	330.92
802.873	410.79
803.053	378.02
803.233	357.54
803.413	425.12
803.592	318.63
803.772	361.64
803.952	337.06
804.131	404.64
804.311	371.88
804.491	382.12
804.67	304.29
804.85	240.81
805.03	353.45
805.209	316.58
805.389	275.62
805.568	365.73
805.748	246.95
805.928	347.3
806.107	365.73
806.287	281.77
806.466	343.21
806.646	251.05
806.825	302.25
807.004	283.81
807.184	253.09
807.363	306.34
807.543	251.05
807.722	210.09
807.901	304.29
808.081	357.54
808.26	228.52
808.439	265.38
808.619	273.57
808.798	308.39
808.977	332.97
809.156	296.1
809.336	335.01
809.515	292.01
809.694	273.57
809.873	285.86
810.052	296.1
810.231	249
810.411	253.09
810.59	304.29
810.769	265.38
810.948	263.33
811.127	214.18
811.306	314.53
811.485	285.86
811.664	246.95
811.843	316.58
812.022	246.95
812.201	298.15
812.38	267.43
812.559	242.85
812.737	259.24
812.916	158.89
813.095	210.09
813.274	353.45
813.453	210.09
813.632	230.57
813.811	251.05
813.989	228.52
814.168	249
814.347	197.8
814.526	199.85
814.704	267.43
814.883	263.33
815.062	214.18
815.24	292.01
815.419	275.62
815.598	269.48
815.776	197.8
815.955	142.5
816.133	177.32
816.312	214.18
816.49	195.75
816.669	173.22
816.847	158.89
817.026	238.76
817.204	193.7
817.383	210.09
817.561	146.6
817.74	154.79
817.918	259.24
818.097	140.46
818.275	146.6
818.453	169.13
818.632	216.23
818.81	150.7
818.988	208.04
819.167	177.32
819.345	222.38
819.523	154.79
819.701	183.46
819.879	193.7
820.058	134.31
820.236	138.41
820.414	191.66
820.592	226.47
820.77	144.55
820.948	105.64
821.127	130.22
821.305	232.62
821.483	167.08
821.661	150.7
821.839	175.27
822.017	126.12
822.195	142.5
822.373	224.42
822.551	171.18
822.729	169.13
822.907	152.74
823.085	195.75
823.262	62.63
823.44	154.79
823.618	146.6
823.796	218.28
823.974	162.98
824.152	152.74
824.329	222.38
824.507	148.65
824.685	122.02
824.863	165.03
825.04	113.83
825.218	117.93
825.396	107.69
825.574	191.66
825.751	103.59
825.929	181.42
826.107	183.46
826.284	156.84
826.462	187.56
826.639	154.79
826.817	130.22
826.994	126.12
827.172	111.78
827.349	193.7
827.527	165.03
827.704	128.17
827.882	144.55
828.059	126.12
828.237	132.26
828.414	158.89
828.591	105.64
828.769	169.13
828.946	101.55
829.124	183.46
829.301	117.93
829.478	138.41
829.655	144.55
829.833	197.8
830.01	95.4
830.187	158.89
830.364	181.42
830.542	201.9
830.719	173.22
830.896	154.79
831.073	140.46
831.25	136.36
831.427	134.31
831.604	99.5
831.782	89.26
831.959	119.98
832.136	119.98
832.313	105.64
832.49	44.2
832.667	150.7
832.844	117.93
833.021	195.75
833.198	140.46
833.374	68.78
833.551	117.93
833.728	109.74
833.905	169.13
834.082	87.21
834.259	85.16
834.436	197.8
834.612	87.21
834.789	113.83
834.966	44.2
835.143	87.21
835.319	107.69
835.496	64.68
835.673	150.7
835.85	119.98
836.026	70.83
836.203	156.84
836.38	66.73
836.556	52.39
836.733	15.53
836.909	144.55
837.086	95.4
837.262	128.17
837.439	150.7
837.616	124.07
837.792	64.68
837.968	201.9
838.145	23.72
838.321	119.98
838.498	140.46
838.674	160.94
838.851	138.41
839.027	58.54
839.203	122.02
839.38	195.75
839.556	105.64
839.732	42.15
839.909	29.87
840.085	50.35
840.261	68.78
840.437	79.02
840.614	5.29
840.79	138.41
840.966	68.78
841.142	107.69
841.318	70.83
841.494	99.5
841.671	169.13
841.847	119.98
842.023	66.73
842.199	130.22
842.375	64.68
842.551	119.98
842.727	62.63
842.903	140.46
843.079	-11.09
843.255	109.74
843.431	79.02
843.607	138.41
843.783	50.35
843.959	60.59
844.134	89.26
844.31	91.31
844.486	11.43
844.662	38.06
844.838	42.15
845.013	128.17
845.189	103.59
845.365	89.26
845.541	68.78
845.716	56.49
845.892	83.11
846.068	124.07
846.244	56.49
846.419	33.96
846.595	-31.57
846.77	38.06
846.946	136.36
847.122	-9.05
847.297	42.15
847.473	44.2
847.648	56.49
847.824	66.73
847.999	60.59
848.175	33.96
848.35	83.11
848.526	56.49
848.701	95.4
848.876	85.16
849.052	64.68
849.227	-0.85
849.403	64.68
849.578	95.4
849.753	91.31
849.929	29.87
850.104	42.15
850.279	62.63
850.454	56.49
850.63	33.96
850.805	93.35
850.98	81.07
851.155	40.11
851.33	68.78
851.505	44.2
851.681	99.5
851.856	-19.29
852.031	44.2
852.206	119.98
852.381	85.16
852.556	44.2
852.731	64.68
852.906	93.35
853.081	85.16
853.256	91.31
853.431	-17.24
853.606	31.91
853.781	97.45
853.956	83.11
854.131	58.54
854.305	44.2
854.48	54.44
854.655	111.78
854.83	3.24
855.005	23.72
855.18	91.31
855.354	-21.33
855.529	62.63
855.704	-7
855.879	117.93
856.053	60.59
856.228	19.63
856.403	-41.81
856.577	-4.95
856.752	44.2
856.926	85.16
857.101	64.68
857.276	23.72
857.45	97.45
857.625	36.01
857.799	1.19
857.974	99.5
858.148	-35.67
858.323	38.06
858.497	21.67
858.672	38.06
858.846	9.39
859.02	38.06
859.195	-25.43
859.369	5.29
859.543	31.91
859.718	-29.52
859.892	40.11
860.066	-27.48
860.241	5.29
860.415	5.29
860.589	7.34
860.763	50.35
860.938	21.67
861.112	42.15
861.286	74.92
861.46	64.68
861.634	-50
861.808	128.17
861.982	-9.05
862.157	40.11
862.331	-15.19
862.505	36.01
862.679	-21.33
862.853	3.24
863.027	11.43
863.201	97.45
863.375	64.68
863.549	25.77
863.722	31.91
863.896	62.63
864.07	-4.95
864.244	27.82
864.418	29.87
864.592	52.39
864.766	7.34
864.939	33.96
865.113	25.77
865.287	40.11
865.461	-29.52
865.634	5.29
865.808	-19.29
865.982	5.29
866.156	5.29
866.329	31.91
866.503	-23.38
866.676	58.54
866.85	50.35
867.024	-17.24
867.197	19.63
867.371	50.35
867.544	42.15
867.718	-13.14
867.891	31.91
868.065	52.39
868.238	68.78
868.412	85.16
868.585	56.49
868.759	-15.19
868.932	-0.85
869.105	-25.43
869.279	119.98
869.452	19.63
869.625	21.67
869.799	-13.14
869.972	-11.09
870.145	105.64
870.319	1.19
870.492	13.48
870.665	-25.43
870.838	-19.29
871.011	-25.43
871.185	38.06
871.358	-11.09
871.531	23.72
871.704	-11.09
871.877	-13.14
872.05	42.15
872.223	-2.9
872.396	42.15
872.569	1.19
872.742	-41.81
872.915	-11.09
873.088	-2.9
873.261	-21.33
873.434	-11.09
873.607	38.06
873.78	87.21
873.953	-17.24
874.126	-2.9
874.299	17.58
874.471	54.44
874.644	-13.14
874.817	13.48
874.99	25.77
875.163	9.39
875.335	38.06
875.508	68.78
875.681	36.01
875.853	62.63
876.026	5.29
876.199	-2.9
876.371	83.11
876.544	42.15
876.717	46.25
876.889	-56.15
877.062	13.48
877.234	-9.05
877.407	17.58
877.579	3.24
877.752	76.97
877.924	111.78
878.097	21.67
878.269	27.82
878.442	3.24
878.614	66.73
878.786	21.67
878.959	64.68
879.131	5.29
879.303	-17.24
879.476	7.34
879.648	-4.95
879.82	38.06
879.993	-68.44
880.165	-4.95
880.337	48.3
880.509	29.87
880.681	-54.1
880.854	21.67
881.026	15.53
881.198	62.63
881.37	-11.09
881.542	31.91
881.714	-50
881.886	-0.85
882.058	5.29
882.23	42.15
882.402	-43.86
882.574	38.06
882.746	62.63
882.918	-21.33
883.09	56.49
883.262	31.91
883.434	-23.38
883.606	-58.2
883.778	1.19
883.95	31.91
884.122	-31.57
884.293	64.68
884.465	52.39
884.637	19.63
884.809	-15.19
884.98	72.87
885.152	66.73
885.324	31.91
885.496	56.49
885.667	-13.14
885.839	81.07
886.011	46.25
886.182	38.06
886.354	52.39
886.525	11.43
886.697	44.2
886.869	15.53
887.04	42.15
887.212	-84.82
887.383	9.39
887.555	-41.81
887.726	62.63
887.897	52.39
888.069	-21.33
888.24	48.3
888.412	-33.62
888.583	-50
888.754	21.67
888.926	-86.87
889.097	-58.2
889.268	-7
889.44	-7
889.611	-4.95
889.782	-54.1
889.953	-60.24
890.125	52.39
890.296	-45.91
890.467	-95.06
890.638	-11.09
890.809	5.29
890.98	-43.86
891.151	-13.14
891.323	31.91
891.494	-9.05
891.665	38.06
891.836	-52.05
892.007	3.24
892.178	44.2
892.349	85.16
892.52	44.2
892.691	-2.9
892.862	-35.67
893.032	-70.48
893.203	54.44
893.374	11.43
893.545	-2.9
893.716	-4.95
893.887	36.01
894.057	-19.29
894.228	31.91
894.399	-60.24
894.57	7.34
894.74	52.39
894.911	11.43
895.082	-4.95
895.253	46.25
895.423	29.87
895.594	48.3
895.764	72.87
895.935	-29.52
896.106	36.01
896.276	-2.9
896.447	-41.81
896.617	-43.86
896.788	-13.14
896.958	-43.86
897.129	-9.05
897.299	17.58
897.47	56.49
897.64	7.34
897.81	27.82
897.981	9.39
898.151	-56.15
898.322	-13.14
898.492	-58.2
898.662	38.06
898.832	-41.81
899.003	15.53
899.173	1.19
899.343	-52.05
899.513	25.77
