Data from USB4F104151__43__12-41-30-263.txt Node

Date: Fri Mar 14 12:41:30 EDT 2025
User: louis
Spectrometer: USB4F10415
Trigger mode: 4
Integration Time (sec): 3.000000E-2
Scans to average: 1
Electric dark correction enabled: true
Nonlinearity correction enabled: false
Boxcar width: 0
XAxis mode: Wavelengths
Number of Pixels in Spectrum: 3648
>>>>>Begin Spectral Data<<<<<
178.204	-68.61
178.424	-68.61
178.644	-68.61
178.864	-103.42
179.084	-103.42
179.304	-5.12
179.524	23.55
179.744	5.12
179.964	-19.46
180.184	-5.12
180.404	-3.07
180.624	-1.02
180.844	11.26
181.064	-11.26
181.283	7.17
181.503	-25.6
181.723	23.55
181.943	-29.7
182.163	44.03
182.383	7.17
182.602	13.31
182.822	46.08
183.042	11.26
183.262	23.55
183.482	3.07
183.701	9.22
183.921	62.46
184.141	-37.89
184.361	68.61
184.58	91.13
184.8	3.07
185.02	25.6
185.239	-11.26
185.459	39.94
185.679	37.89
185.898	-76.8
186.118	-5.12
186.338	25.6
186.557	111.61
186.777	17.41
186.997	33.79
187.216	-52.22
187.436	140.29
187.655	39.94
187.875	95.23
188.095	-13.31
188.314	17.41
188.534	103.42
188.753	62.46
188.973	35.84
189.192	130.05
189.412	5.12
189.631	-1.02
189.851	-5.12
190.07	66.56
190.29	-44.03
190.509	31.74
190.729	33.79
190.948	60.42
191.168	154.62
191.387	19.46
191.607	23.55
191.826	25.6
192.045	58.37
192.265	15.36
192.484	41.98
192.704	39.94
192.923	11.26
193.142	87.04
193.362	89.09
193.581	70.65
193.8	58.37
194.02	103.42
194.239	46.08
194.458	74.75
194.678	68.61
194.897	62.46
195.116	41.98
195.335	17.41
195.555	140.29
195.774	21.5
195.993	54.27
196.212	-3.07
196.432	41.98
196.651	21.5
196.87	-48.13
197.089	68.61
197.308	58.37
197.528	70.65
197.747	-23.55
197.966	115.71
198.185	21.5
198.404	89.09
198.623	29.7
198.842	103.42
199.062	54.27
199.281	93.18
199.5	-1.02
199.719	25.6
199.938	134.14
200.157	74.75
200.376	125.95
200.595	66.56
200.814	44.03
201.033	-7.17
201.252	111.61
201.471	-33.79
201.69	19.46
201.909	72.7
202.128	95.23
202.347	21.5
202.566	50.18
202.785	39.94
203.004	-1.02
203.223	54.27
203.442	17.41
203.661	-15.36
203.879	74.75
204.098	-25.6
204.317	39.94
204.536	99.33
204.755	13.31
204.974	109.57
205.193	58.37
205.411	123.9
205.63	68.61
205.849	60.42
206.068	29.7
206.287	25.6
206.505	46.08
206.724	39.94
206.943	-9.22
207.162	31.74
207.381	58.37
207.599	-25.6
207.818	48.13
208.037	48.13
208.255	-48.13
208.474	56.32
208.693	37.89
208.911	7.17
209.13	80.89
209.349	78.85
209.567	27.65
209.786	76.8
210.005	89.09
210.223	35.84
210.442	-3.07
210.661	23.55
210.879	44.03
211.098	17.41
211.316	50.18
211.535	-13.31
211.753	-46.08
211.972	50.18
212.191	9.22
212.409	-25.6
212.628	70.65
212.846	25.6
213.065	62.46
213.283	70.65
213.502	70.65
213.72	-13.31
213.938	5.12
214.157	27.65
214.375	68.61
214.594	48.13
214.812	23.55
215.031	84.99
215.249	44.03
215.467	84.99
215.686	70.65
215.904	93.18
216.122	-11.26
216.341	101.37
216.559	9.22
216.778	66.56
216.996	64.51
217.214	52.22
217.432	50.18
217.651	84.99
217.869	58.37
218.087	39.94
218.306	-5.12
218.524	33.79
218.742	9.22
218.96	54.27
219.179	-46.08
219.397	64.51
219.615	48.13
219.833	82.94
220.051	-52.22
220.27	52.22
220.488	33.79
220.706	142.33
220.924	17.41
221.142	41.98
221.36	101.37
221.578	87.04
221.796	23.55
222.015	-13.31
222.233	87.04
222.451	54.27
222.669	97.28
222.887	68.61
223.105	-56.32
223.323	66.56
223.541	37.89
223.759	56.32
223.977	39.94
224.195	125.95
224.413	58.37
224.631	72.7
224.849	27.65
225.067	115.71
225.285	9.22
225.503	-1.02
225.721	7.17
225.939	19.46
226.157	95.23
226.375	58.37
226.592	-35.84
226.81	103.42
227.028	39.94
227.246	60.42
227.464	11.26
227.682	17.41
227.9	-19.46
228.117	87.04
228.335	-23.55
228.553	58.37
228.771	60.42
228.989	5.12
229.206	66.56
229.424	-5.12
229.642	13.31
229.86	13.31
230.077	84.99
230.295	87.04
230.513	46.08
230.731	70.65
230.948	50.18
231.166	31.74
231.384	-44.03
231.601	11.26
231.819	23.55
232.037	7.17
232.254	29.7
232.472	64.51
232.689	21.5
232.907	13.31
233.125	44.03
233.342	19.46
233.56	-11.26
233.777	-21.5
233.995	-17.41
234.213	97.28
234.43	13.31
234.648	-21.5
234.865	37.89
235.083	84.99
235.3	-3.07
235.518	87.04
235.735	29.7
235.953	52.22
236.17	11.26
236.388	17.41
236.605	19.46
236.822	9.22
237.04	80.89
237.257	68.61
237.475	-64.51
237.692	17.41
237.909	3.07
238.127	-27.65
238.344	15.36
238.562	25.6
238.779	21.5
238.996	58.37
239.214	78.85
239.431	-41.98
239.648	13.31
239.865	68.61
240.083	-35.84
240.3	52.22
240.517	33.79
240.735	48.13
240.952	80.89
241.169	62.46
241.386	68.61
241.603	41.98
241.821	-13.31
242.038	27.65
242.255	46.08
242.472	82.94
242.689	48.13
242.907	70.65
243.124	56.32
243.341	68.61
243.558	15.36
243.775	66.56
243.992	78.85
244.209	-3.07
244.426	50.18
244.643	80.89
244.86	48.13
245.078	54.27
245.295	17.41
245.512	72.7
245.729	-37.89
245.946	44.03
246.163	68.61
246.38	70.65
246.597	117.76
246.814	29.7
247.031	-5.12
247.248	74.75
247.464	5.12
247.681	9.22
247.898	46.08
248.115	72.7
248.332	-23.55
248.549	113.66
248.766	91.13
248.983	87.04
249.2	56.32
249.417	58.37
249.633	1.02
249.85	58.37
250.067	99.33
250.284	31.74
250.501	58.37
250.717	70.65
250.934	-1.02
251.151	41.98
251.368	-9.22
251.585	130.05
251.801	-11.26
252.018	-21.5
252.235	31.74
252.451	70.65
252.668	37.89
252.885	89.09
253.102	-7.17
253.318	15.36
253.535	78.85
253.752	5.12
253.968	80.89
254.185	-11.26
254.401	27.65
254.618	60.42
254.835	44.03
255.051	76.8
255.268	29.7
255.484	74.75
255.701	31.74
255.917	74.75
256.134	1.02
256.351	56.32
256.567	-31.74
256.784	91.13
257	-13.31
257.217	84.99
257.433	44.03
257.65	37.89
257.866	72.7
258.082	41.98
258.299	-1.02
258.515	7.17
258.732	11.26
258.948	56.32
259.165	50.18
259.381	23.55
259.597	33.79
259.814	-35.84
260.03	9.22
260.246	60.42
260.463	74.75
260.679	-33.79
260.895	41.98
261.112	105.47
261.328	-23.55
261.544	109.57
261.761	105.47
261.977	-27.65
262.193	-17.41
262.409	7.17
262.626	23.55
262.842	-27.65
263.058	23.55
263.274	48.13
263.49	87.04
263.707	125.95
263.923	29.7
264.139	3.07
264.355	13.31
264.571	123.9
264.787	68.61
265.004	66.56
265.22	62.46
265.436	19.46
265.652	1.02
265.868	-17.41
266.084	119.81
266.3	23.55
266.516	9.22
266.732	13.31
266.948	19.46
267.164	37.89
267.38	52.22
267.596	-37.89
267.812	41.98
268.028	23.55
268.244	68.61
268.46	78.85
268.676	56.32
268.892	97.28
269.108	80.89
269.324	-25.6
269.54	56.32
269.756	89.09
269.972	3.07
270.188	7.17
270.403	29.7
270.619	11.26
270.835	-39.94
271.051	23.55
271.267	31.74
271.483	-46.08
271.698	-9.22
271.914	68.61
272.13	37.89
272.346	5.12
272.562	54.27
272.777	132.09
272.993	-33.79
273.209	-54.27
273.425	5.12
273.64	1.02
273.856	146.43
274.072	66.56
274.287	-11.26
274.503	66.56
274.719	91.13
274.934	39.94
275.15	-27.65
275.366	78.85
275.581	-15.36
275.797	74.75
276.012	13.31
276.228	19.46
276.444	27.65
276.659	136.19
276.875	97.28
277.09	-5.12
277.306	-1.02
277.521	68.61
277.737	-9.22
277.952	72.7
278.168	84.99
278.383	17.41
278.599	78.85
278.814	76.8
279.03	56.32
279.245	44.03
279.461	41.98
279.676	72.7
279.892	-5.12
280.107	27.65
280.322	78.85
280.538	-9.22
280.753	41.98
280.969	35.84
281.184	-7.17
281.399	76.8
281.615	78.85
281.83	-3.07
282.045	31.74
282.26	31.74
282.476	41.98
282.691	78.85
282.906	68.61
283.122	-39.94
283.337	-13.31
283.552	60.42
283.767	-7.17
283.983	99.33
284.198	58.37
284.413	56.32
284.628	9.22
284.843	66.56
285.058	132.09
285.274	52.22
285.489	35.84
285.704	87.04
285.919	78.85
286.134	27.65
286.349	-11.26
286.564	-1.02
286.779	146.43
286.995	7.17
287.21	15.36
287.425	39.94
287.64	107.52
287.855	56.32
288.07	-19.46
288.285	46.08
288.5	21.5
288.715	48.13
288.93	62.46
289.145	-37.89
289.36	37.89
289.575	87.04
289.79	60.42
290.004	3.07
290.219	66.56
290.434	-1.02
290.649	-1.02
290.864	35.84
291.079	27.65
291.294	13.31
291.509	54.27
291.724	-17.41
291.938	17.41
292.153	-23.55
292.368	48.13
292.583	54.27
292.798	50.18
293.012	3.07
293.227	93.18
293.442	29.7
293.657	48.13
293.871	19.46
294.086	58.37
294.301	152.57
294.516	70.65
294.73	27.65
294.945	-56.32
295.16	82.94
295.374	136.19
295.589	80.89
295.804	50.18
296.018	27.65
296.233	82.94
296.447	101.37
296.662	60.42
296.877	84.99
297.091	113.66
297.306	89.09
297.52	19.46
297.735	103.42
297.949	76.8
298.164	44.03
298.378	25.6
298.593	3.07
298.807	-9.22
299.022	76.8
299.236	52.22
299.451	56.32
299.665	-41.98
299.88	25.6
300.094	27.65
300.309	7.17
300.523	76.8
300.737	52.22
300.952	80.89
301.166	84.99
301.381	15.36
301.595	101.37
301.809	37.89
302.024	46.08
302.238	35.84
302.452	111.61
302.667	62.46
302.881	91.13
303.095	76.8
303.309	50.18
303.524	76.8
303.738	9.22
303.952	50.18
304.166	78.85
304.381	7.17
304.595	25.6
304.809	107.52
305.023	31.74
305.237	46.08
305.452	39.94
305.666	66.56
305.88	97.28
306.094	46.08
306.308	-15.36
306.522	9.22
306.736	101.37
306.95	37.89
307.164	-23.55
307.379	66.56
307.593	52.22
307.807	9.22
308.021	33.79
308.235	35.84
308.449	11.26
308.663	-52.22
308.877	29.7
309.091	50.18
309.305	46.08
309.519	-39.94
309.733	52.22
309.947	62.46
310.161	76.8
310.374	-31.74
310.588	58.37
310.802	95.23
311.016	33.79
311.23	115.71
311.444	56.32
311.658	44.03
311.872	54.27
312.085	101.37
312.299	97.28
312.513	66.56
312.727	84.99
312.941	46.08
313.154	97.28
313.368	-5.12
313.582	130.05
313.796	58.37
314.009	-11.26
314.223	37.89
314.437	50.18
314.651	13.31
314.864	31.74
315.078	33.79
315.292	99.33
315.505	29.7
315.719	115.71
315.933	48.13
316.146	-21.5
316.36	23.55
316.573	68.61
316.787	-35.84
317.001	99.33
317.214	115.71
317.428	105.47
317.641	-17.41
317.855	103.42
318.068	78.85
318.282	44.03
318.495	97.28
318.709	68.61
318.922	-35.84
319.136	130.05
319.349	136.19
319.563	31.74
319.776	46.08
319.99	23.55
320.203	66.56
320.417	1.02
320.63	64.51
320.843	25.6
321.057	23.55
321.27	35.84
321.483	89.09
321.697	37.89
321.91	50.18
322.124	33.79
322.337	58.37
322.55	76.8
322.763	-15.36
322.977	52.22
323.19	33.79
323.403	44.03
323.617	5.12
323.83	109.57
324.043	-17.41
324.256	93.18
324.469	25.6
324.683	91.13
324.896	-9.22
325.109	117.76
325.322	-31.74
325.535	29.7
325.748	56.32
325.962	-33.79
326.175	113.66
326.388	39.94
326.601	82.94
326.814	84.99
327.027	66.56
327.24	115.71
327.453	-19.46
327.666	113.66
327.879	52.22
328.092	136.19
328.305	74.75
328.518	99.33
328.731	-25.6
328.944	29.7
329.157	113.66
329.37	17.41
329.583	66.56
329.796	80.89
330.009	15.36
330.222	84.99
330.435	7.17
330.648	31.74
330.861	119.81
331.073	11.26
331.286	46.08
331.499	58.37
331.712	-5.12
331.925	107.52
332.138	78.85
332.35	91.13
332.563	13.31
332.776	109.57
332.989	7.17
333.202	23.55
333.414	17.41
333.627	27.65
333.84	27.65
334.053	21.5
334.265	76.8
334.478	-37.89
334.691	9.22
334.903	166.91
335.116	66.56
335.329	60.42
335.541	54.27
335.754	54.27
335.966	74.75
336.179	107.52
336.392	37.89
336.604	7.17
336.817	56.32
337.029	89.09
337.242	82.94
337.454	35.84
337.667	21.5
337.88	70.65
338.092	-7.17
338.305	39.94
338.517	68.61
338.729	101.37
338.942	132.09
339.154	29.7
339.367	-15.36
339.579	70.65
339.792	-44.03
340.004	78.85
340.217	5.12
340.429	130.05
340.641	-11.26
340.854	39.94
341.066	11.26
341.278	78.85
341.491	97.28
341.703	60.42
341.915	-1.02
342.128	119.81
342.34	54.27
342.552	-3.07
342.764	25.6
342.977	97.28
343.189	35.84
343.401	48.13
343.613	1.02
343.826	1.02
344.038	46.08
344.25	87.04
344.462	60.42
344.674	54.27
344.886	72.7
345.099	60.42
345.311	44.03
345.523	84.99
345.735	-19.46
345.947	58.37
346.159	41.98
346.371	62.46
346.583	89.09
346.795	125.95
347.007	-11.26
347.219	113.66
347.431	35.84
347.643	89.09
347.855	41.98
348.067	7.17
348.279	130.05
348.491	82.94
348.703	11.26
348.915	113.66
349.127	29.7
349.339	-7.17
349.551	68.61
349.763	76.8
349.975	72.7
350.187	66.56
350.399	82.94
350.61	15.36
350.822	52.22
351.034	78.85
351.246	46.08
351.458	54.27
351.669	60.42
351.881	84.99
352.093	109.57
352.305	95.23
352.517	84.99
352.728	33.79
352.94	52.22
353.152	58.37
353.363	9.22
353.575	25.6
353.787	64.51
353.999	-7.17
354.21	99.33
354.422	52.22
354.633	-11.26
354.845	-33.79
355.057	128
355.268	-13.31
355.48	76.8
355.692	19.46
355.903	121.85
356.115	23.55
356.326	-17.41
356.538	97.28
356.749	44.03
356.961	44.03
357.172	-13.31
357.384	25.6
357.595	70.65
357.807	80.89
358.018	-31.74
358.23	27.65
358.441	48.13
358.653	70.65
358.864	37.89
359.075	78.85
359.287	37.89
359.498	74.75
359.709	66.56
359.921	78.85
360.132	56.32
360.344	9.22
360.555	105.47
360.766	37.89
360.977	72.7
361.189	111.61
361.4	37.89
361.611	58.37
361.823	89.09
362.034	70.65
362.245	41.98
362.456	29.7
362.667	48.13
362.879	50.18
363.09	19.46
363.301	89.09
363.512	21.5
363.723	13.31
363.935	-27.65
364.146	74.75
364.357	41.98
364.568	58.37
364.779	41.98
364.99	60.42
365.201	35.84
365.412	41.98
365.623	31.74
365.834	27.65
366.045	99.33
366.256	35.84
366.467	76.8
366.678	68.61
366.889	50.18
367.1	33.79
367.311	66.56
367.522	39.94
367.733	70.65
367.944	-13.31
368.155	27.65
368.366	-17.41
368.577	123.9
368.788	93.18
368.999	87.04
369.209	31.74
369.42	109.57
369.631	140.29
369.842	-33.79
370.053	76.8
370.264	82.94
370.474	21.5
370.685	74.75
370.896	19.46
371.107	52.22
371.317	17.41
371.528	7.17
371.739	93.18
371.95	1.02
372.16	74.75
372.371	-29.7
372.582	74.75
372.792	125.95
373.003	54.27
373.214	17.41
373.424	103.42
373.635	33.79
373.846	80.89
374.056	-52.22
374.267	27.65
374.477	39.94
374.688	80.89
374.898	64.51
375.109	76.8
375.319	46.08
375.53	62.46
375.74	74.75
375.951	78.85
376.161	52.22
376.372	158.72
376.582	58.37
376.793	52.22
377.003	117.76
377.214	39.94
377.424	107.52
377.635	156.67
377.845	74.75
378.055	121.85
378.266	68.61
378.476	74.75
378.686	52.22
378.897	121.85
379.107	25.6
379.317	128
379.528	31.74
379.738	58.37
379.948	-39.94
380.158	109.57
380.369	58.37
380.579	105.47
380.789	7.17
380.999	99.33
381.21	72.7
381.42	125.95
381.63	64.51
381.84	101.37
382.05	156.67
382.261	148.48
382.471	128
382.681	107.52
382.891	113.66
383.101	121.85
383.311	13.31
383.521	48.13
383.731	11.26
383.941	68.61
384.151	101.37
384.361	44.03
384.571	76.8
384.781	68.61
384.991	93.18
385.201	130.05
385.411	78.85
385.621	41.98
385.831	72.7
386.041	48.13
386.251	54.27
386.461	68.61
386.671	39.94
386.881	23.55
387.091	7.17
387.301	78.85
387.511	56.32
387.72	66.56
387.93	7.17
388.14	-58.37
388.35	173.05
388.56	93.18
388.769	80.89
388.979	72.7
389.189	27.65
389.399	48.13
389.609	113.66
389.818	111.61
390.028	103.42
390.238	27.65
390.447	58.37
390.657	84.99
390.867	74.75
391.076	103.42
391.286	62.46
391.496	84.99
391.705	97.28
391.915	119.81
392.125	37.89
392.334	62.46
392.544	80.89
392.753	93.18
392.963	80.89
393.172	130.05
393.382	5.12
393.591	158.72
393.801	50.18
394.01	89.09
394.22	123.9
394.429	-11.26
394.639	78.85
394.848	56.32
395.058	89.09
395.267	-9.22
395.477	128
395.686	19.46
395.895	97.28
396.105	123.9
396.314	91.13
396.524	107.52
396.733	89.09
396.942	113.66
397.152	21.5
397.361	117.76
397.57	121.85
397.78	60.42
397.989	146.43
398.198	101.37
398.407	148.48
398.617	56.32
398.826	128
399.035	76.8
399.244	64.51
399.453	97.28
399.663	56.32
399.872	103.42
400.081	23.55
400.29	117.76
400.499	44.03
400.708	19.46
400.917	123.9
401.127	95.23
401.336	35.84
401.545	148.48
401.754	121.85
401.963	142.33
402.172	76.8
402.381	121.85
402.59	93.18
402.799	158.72
403.008	123.9
403.217	189.44
403.426	125.95
403.635	56.32
403.844	97.28
404.053	91.13
404.262	119.81
404.471	177.15
404.68	115.71
404.888	164.86
405.097	191.49
405.306	125.95
405.515	254.97
405.724	148.48
405.933	205.82
406.142	193.53
406.35	191.49
406.559	209.92
406.768	160.77
406.977	236.54
407.185	218.11
407.394	287.74
407.603	162.81
407.812	187.39
408.02	355.32
408.229	214.01
408.438	228.35
408.646	207.87
408.855	189.44
409.064	177.15
409.272	203.77
409.481	359.42
409.69	207.87
409.898	211.96
410.107	371.71
410.315	297.98
410.524	236.54
410.733	314.36
410.941	304.12
411.15	326.65
411.358	398.33
411.567	367.61
411.775	402.43
411.984	408.57
412.192	388.09
412.401	371.71
412.609	461.82
412.818	474.1
413.026	476.15
413.234	416.76
413.443	510.97
413.651	494.58
413.86	617.46
414.068	599.03
414.276	621.56
414.485	627.7
414.693	603.13
414.901	740.34
415.11	633.85
415.318	586.74
415.526	578.55
415.734	699.38
415.943	744.44
416.151	781.3
416.359	754.68
416.567	832.5
416.776	834.55
416.984	947.19
417.192	889.84
417.4	953.33
417.608	924.66
417.817	1004.53
418.025	1020.91
418.233	1113.07
418.441	1070.06
418.649	1154.03
418.857	1270.76
419.065	1176.56
419.273	1188.85
419.481	1242.09
419.689	1272.81
419.897	1414.12
420.105	1293.29
420.313	1387.5
420.521	1559.53
420.729	1496.04
420.937	1567.72
421.145	1602.54
421.353	1698.79
421.561	1829.86
421.769	1745.89
421.977	1840.1
422.185	1956.83
422.393	1905.63
422.601	2184.16
422.809	2188.25
423.017	2092
423.224	2094.05
423.432	2302.94
423.64	2350.04
423.848	2546.65
424.056	2405.34
424.263	2651.1
424.471	2558.94
424.679	2702.29
424.887	2800.6
425.094	2943.96
425.302	3038.16
425.51	3064.79
425.718	3118.03
425.925	3247.05
426.133	3306.45
426.341	3447.76
426.548	3544.01
426.756	3630.02
426.964	3609.54
427.171	3849.16
427.379	4031.43
427.586	3986.37
427.794	4244.42
428.001	4365.25
428.209	4586.43
428.417	4559.8
428.624	4883.38
428.832	4834.23
429.039	4756.41
429.247	4692.92
429.454	5159.86
429.662	5524.4
429.869	5247.92
430.076	5604.27
430.284	5391.28
430.491	5651.37
430.699	6048.68
430.906	5929.89
431.114	5938.09
431.321	6146.98
431.528	6407.07
431.736	7005.08
431.943	6947.73
432.15	6831
432.358	7015.32
432.565	7420.81
432.772	7261.07
432.979	7889.8
433.187	7805.83
433.394	8141.7
433.601	8510.33
433.808	8534.91
434.016	8604.54
434.223	8838.01
434.43	9401.2
434.637	9315.19
434.844	9773.93
435.052	9986.92
435.259	9833.32
435.466	10134.37
435.673	10068.84
435.88	10543.97
436.087	10914.65
436.294	11187.03
436.501	10685.28
436.708	11000.66
436.915	11424.59
437.122	11877.19
437.329	11742.03
437.537	12129.09
437.743	12628.8
437.95	12131.14
438.157	13058.87
438.364	13327.16
438.571	13415.22
438.778	13630.26
438.985	14834.46
439.192	14185.26
439.399	14316.33
439.606	14213.93
439.813	15067.93
440.02	16153.35
440.227	15743.76
440.433	15481.62
440.64	15903.5
440.847	16057.1
441.054	16339.72
441.261	17496.82
441.467	17249.02
441.674	17654.51
441.881	18103.02
442.088	17994.48
442.294	17875.7
442.501	18328.3
442.708	18948.83
442.914	19573.46
443.121	20411.08
443.328	20048.59
443.534	21244.6
443.741	20466.38
443.948	20255.43
444.154	22059.7
444.361	21775.03
444.568	22237.87
444.774	22127.28
444.981	21983.92
445.187	22928.03
445.394	23874.2
445.6	23442.07
445.807	25875.06
446.013	24464.01
446.22	25076.35
446.426	26055.28
446.633	26391.15
446.839	27333.21
447.046	25952.88
447.252	27255.39
447.459	27785.82
447.665	27552.35
447.871	28645.96
448.078	29891.13
448.284	28449.36
448.491	29092.42
448.697	30671.4
448.903	31070.76
449.11	31207.97
449.316	30321.2
449.522	31173.16
449.728	32090.65
449.935	31912.47
450.141	32158.23
450.347	32422.42
450.553	31685.15
450.76	32211.48
450.966	33464.83
451.172	33301
451.378	34062.84
451.584	33137.16
451.791	34214.39
451.997	33798.65
452.203	34410.99
452.409	34396.66
452.615	33968.63
452.821	33001.99
453.027	32643.6
453.233	34324.98
453.44	32934.41
453.646	33462.79
453.852	33450.5
454.058	34056.7
454.264	32989.7
454.47	33464.83
454.676	32504.34
454.882	34011.64
455.088	31365.67
455.294	31930.9
455.5	31930.9
455.705	32207.38
455.911	30544.43
456.117	30536.24
456.323	30147.12
456.529	28459.6
456.735	30097.97
456.941	28807.75
457.147	28383.82
457.352	27515.48
457.558	27449.95
457.764	27566.68
457.97	26733.16
458.176	26112.63
458.381	26190.45
458.587	24742.53
458.793	25098.88
458.999	23648.92
459.204	25225.86
459.41	24838.79
459.616	23149.21
459.821	22934.18
460.027	22731.43
460.233	22444.71
460.438	21469.88
460.644	21449.4
460.85	20460.23
461.055	20271.82
461.261	20183.76
461.466	18574.05
461.672	18100.97
461.878	19264.22
462.083	18107.12
462.289	17593.08
462.494	17562.36
462.7	16651.01
462.905	16378.63
463.111	17052.41
463.316	17103.61
463.522	16397.06
463.727	16655.11
463.932	16669.44
464.138	16302.86
464.343	16657.15
464.549	16005.9
464.754	16601.86
464.959	16372.49
465.165	16456.45
465.37	15782.67
465.575	15338.26
465.781	15688.46
465.986	15848.21
466.191	15219.48
466.397	15061.79
466.602	14273.32
466.807	15104.79
467.012	14918.43
467.218	14689.06
467.423	14699.3
467.628	14791.45
467.833	15434.52
468.038	14715.68
468.244	14539.55
468.449	15010.59
468.654	14428.96
468.859	14285.61
469.064	14445.35
469.269	13620.02
469.474	13802.29
469.679	14189.35
469.885	13585.2
470.09	13841.2
470.295	13603.63
470.5	13327.16
470.705	13392.69
470.91	13155.13
471.115	13052.73
471.32	13370.16
471.525	13329.2
471.73	12878.65
471.935	12882.75
472.139	12383.04
472.344	12606.27
472.549	12723.01
472.754	12309.32
472.959	12315.46
473.164	11926.35
473.369	11856.72
473.574	12231.49
473.778	12014.41
473.983	11862.86
474.188	11901.77
474.393	11262.8
474.598	11309.91
474.802	11303.76
475.007	11000.66
475.212	11291.48
475.417	10881.88
475.621	10802.01
475.826	10920.79
476.031	10701.66
476.235	10326.88
476.44	10529.63
476.645	10251.11
476.849	10505.06
477.054	10318.69
477.259	10091.37
477.463	10093.41
477.668	9741.16
477.872	9978.73
478.077	9827.18
478.282	9567.09
478.486	9513.84
478.691	9419.63
478.895	9286.51
479.1	9339.76
479.304	9341.81
479.509	9085.81
479.713	9313.14
479.918	9069.43
480.122	8811.39
480.326	9057.14
480.531	9130.87
480.735	8942.46
480.94	8944.5
481.144	8987.51
481.348	8885.11
481.553	8829.82
481.757	8561.53
481.961	8856.44
482.166	9032.57
482.37	8899.45
482.574	8694.65
482.778	8600.44
482.983	8790.91
483.187	8600.44
483.391	8876.92
483.595	8524.67
483.8	8639.36
484.004	8821.63
484.208	8813.43
484.412	8829.82
484.616	8680.32
484.821	8899.45
485.025	8711.04
485.229	8870.78
485.433	8708.99
485.637	8678.27
485.841	8541.05
486.045	8528.77
486.249	8590.2
486.453	8373.12
486.657	8868.73
486.861	8792.95
487.065	8237.95
487.269	8708.99
487.473	8551.29
487.677	8629.12
487.881	8758.14
488.085	8612.73
488.289	8829.82
488.493	8496
488.697	8778.62
488.901	8952.7
489.105	8659.84
489.309	8934.26
489.512	8872.82
489.716	8729.47
489.92	8881.02
490.124	8700.8
490.328	8885.11
490.531	8999.8
490.735	8833.91
490.939	9001.85
491.143	8811.39
491.346	8905.59
491.55	9091.96
491.754	8858.49
491.958	9061.24
492.161	9005.94
492.365	9112.44
492.569	8946.55
492.772	9120.63
492.976	9280.37
493.18	9036.66
493.383	9313.14
493.587	9306.99
493.79	9503.6
493.994	9335.67
494.197	9575.28
494.401	9479.02
494.605	9761.64
494.808	9638.76
495.012	9638.76
495.215	9804.65
495.419	10079.08
495.622	9855.85
495.825	10005.35
496.029	10287.97
496.232	10212.2
496.436	10136.42
496.639	10361.7
496.843	10392.42
497.046	10632.03
497.249	10705.76
497.453	10716
497.656	10851.16
497.859	10666.85
498.063	10818.39
498.266	11182.93
498.469	11199.32
498.673	11277.14
498.876	11340.63
499.079	11635.53
499.282	11692.88
499.485	12168.01
499.689	11893.58
499.892	11987.79
500.095	12280.64
500.298	12168.01
500.501	12231.49
500.705	12450.63
500.908	12823.36
501.111	12843.84
501.314	13159.22
501.517	13144.89
501.72	13202.23
501.923	13249.33
502.126	13599.54
502.329	13722.41
502.532	13830.96
502.735	13769.52
502.938	14301.99
503.141	14095.14
503.344	14402.34
503.547	14404.39
503.75	14539.55
503.953	14750.49
504.156	15002.4
504.359	15184.66
504.562	15293.21
504.765	15573.78
504.968	15502.1
505.17	15686.42
505.373	15776.53
505.576	16001.8
505.779	16227.08
505.982	16261.9
506.185	16681.73
506.387	16546.56
506.59	16831.23
506.793	17273.59
506.996	17255.16
507.198	17462.01
507.401	17292.02
507.604	17597.17
507.807	18160.36
508.009	18342.63
508.212	18049.77
508.415	18324.2
508.617	18526.95
508.82	18905.82
509.022	18588.39
509.225	18838.24
509.428	19303.13
509.63	19245.79
509.833	19485.4
510.035	19661.52
510.238	19888.85
510.44	19788.5
510.643	20458.18
510.845	20345.55
511.048	20705.99
511.25	20906.69
511.453	20880.07
511.655	21707.44
511.858	21428.92
512.06	21672.63
512.262	21912.24
512.465	21566.13
512.667	22301.36
512.87	22379.18
513.072	22276.78
513.274	22889.12
513.477	22860.45
513.679	22964.9
513.881	23388.83
514.084	23364.25
514.286	23710.36
514.488	23726.74
514.69	23995.03
514.893	24289.93
515.095	24238.73
515.297	24687.24
515.499	24576.65
515.701	24801.93
515.904	25203.33
516.106	25420.41
516.308	25686.65
516.51	25836.15
516.712	26131.06
516.914	25934.45
517.116	26309.23
517.318	26575.47
517.52	26624.62
517.722	26905.19
517.925	27286.11
518.127	27277.92
518.329	27265.63
518.531	27486.81
518.733	27873.88
518.935	28363.34
519.136	28039.76
519.338	28719.69
519.54	28660.3
519.742	28656.2
519.944	28953.16
520.146	29190.72
520.348	29682.24
520.55	29782.59
520.752	29755.96
520.954	30229.04
521.155	29934.14
521.357	30071.35
521.559	30673.45
521.761	30943.78
521.963	30769.71
522.164	31064.61
522.366	31099.43
522.568	31154.72
522.77	31625.76
522.971	32207.38
523.173	31920.66
523.375	32156.18
523.576	31955.48
523.778	32281.11
523.98	32627.21
524.181	32748.04
524.383	32678.41
524.584	32657.93
524.786	32827.92
524.988	33128.97
525.189	33608.19
525.391	33333.76
525.592	33565.18
525.794	33886.71
525.995	33610.24
526.197	33888.76
526.398	34015.74
526.6	34281.97
526.801	34048.5
527.003	34273.78
527.204	34642.42
527.406	34660.85
527.607	34482.67
527.808	34980.33
528.01	34245.11
528.211	34707.95
528.412	35549.67
528.614	35000.81
528.815	34863.6
529.016	35129.83
529.218	35197.41
529.419	35365.35
529.62	35582.43
529.822	35383.78
530.023	35344.87
530.224	35625.44
530.425	35473.89
530.626	35138.02
530.828	35195.37
531.029	36241.88
531.23	35379.68
531.431	35557.86
531.632	35707.36
531.833	35600.86
532.035	35725.79
532.236	35793.37
532.437	36061.66
532.638	35590.62
532.839	35674.59
533.04	35850.72
533.241	35424.74
533.442	36362.71
533.643	35817.95
533.844	35557.86
534.045	35805.66
534.246	35359.2
534.447	35670.5
534.648	35742.17
534.849	35690.98
535.05	35813.85
535.251	35811.81
535.451	35883.48
535.652	35760.61
535.853	35807.71
536.054	35875.29
536.255	35764.7
536.456	35576.29
536.657	36262.36
536.857	35963.36
537.058	35856.86
537.259	36000.22
537.46	35834.33
537.66	35811.81
537.861	35848.67
538.062	35576.29
538.263	35793.37
538.463	35985.88
538.664	35604.96
538.865	35623.39
539.065	35670.5
539.266	35637.73
539.466	35781.09
539.667	35598.82
539.868	35752.41
540.068	35766.75
540.269	35578.34
540.469	35490.27
540.67	35523.04
540.87	35645.92
541.071	35740.13
541.271	35752.41
541.472	35748.32
541.672	35088.87
541.873	35095.02
542.073	35181.03
542.274	35805.66
542.474	35396.07
542.675	35803.61
542.875	35744.22
543.075	35572.19
543.276	35111.4
543.476	35641.82
543.676	35328.48
543.877	35338.72
544.077	35457.51
544.277	35389.92
544.478	35488.23
544.678	35426.79
544.878	35328.48
545.078	35480.03
545.279	35101.16
545.479	35015.15
545.679	35189.22
545.879	35303.91
546.079	35357.16
546.28	35072.49
546.48	34802.16
546.68	35267.05
546.88	35043.82
547.08	35303.91
547.28	35103.21
547.48	35117.54
547.68	35387.88
547.88	34929.13
548.081	35058.15
548.281	35201.51
548.481	35074.54
548.681	34984.43
548.881	34988.52
549.081	34986.47
549.28	34808.3
549.48	34839.02
549.68	34859.5
549.88	35578.34
550.08	34566.64
550.28	35131.88
550.48	35113.45
550.68	34970.09
550.88	34861.55
551.08	34810.35
551.279	35117.54
551.479	34724.33
551.679	34951.66
551.879	34812.4
552.079	35119.59
552.278	34793.97
552.478	34892.27
552.678	34357.75
552.878	34634.22
553.077	34572.78
553.277	34572.78
553.477	35029.48
553.676	34499.06
553.876	34404.85
554.076	34605.55
554.275	34701.81
554.475	34251.25
554.674	34529.78
554.874	34632.18
555.074	34466.29
555.273	34220.53
555.473	34654.7
555.672	34302.45
555.872	34474.48
556.071	34404.85
556.271	34736.62
556.47	34193.91
556.67	34230.77
556.869	34271.73
557.068	34458.1
557.268	33952.25
557.467	34050.55
557.667	34363.89
557.866	34023.93
558.065	34114.04
558.265	33911.29
558.464	34109.94
558.663	34187.77
558.863	33765.88
559.062	34040.31
559.261	33473.03
559.461	34111.99
559.66	33518.08
559.859	34021.88
560.058	33380.87
560.258	33554.94
560.457	33454.59
560.656	33942.01
560.855	33434.11
561.054	33780.22
561.253	33094.15
561.453	33403.39
561.652	33563.14
561.851	33491.46
562.05	33364.48
562.249	33102.34
562.448	33237.51
562.647	33311.24
562.846	33180.17
563.045	33219.08
563.244	32713.23
563.443	33384.96
563.642	33100.29
563.841	33286.66
564.04	32737.8
564.239	32934.41
564.438	32967.18
564.637	32862.73
564.836	32899.59
565.035	32303.64
565.234	32725.52
565.432	32600.59
565.631	32256.53
565.83	32549.39
566.029	32168.47
566.228	32133.65
566.427	32442.9
566.625	32262.68
566.824	32162.33
567.023	32270.87
567.222	31836.7
567.42	32438.8
567.619	32119.32
567.818	31994.39
568.016	31816.22
568.215	32446.99
568.414	31724.06
568.612	32004.63
568.811	31519.26
569.01	31973.91
569.208	31025.7
569.407	31824.41
569.605	31423.01
569.804	31789.59
570.002	31445.54
570.201	31484.45
570.4	31052.33
570.598	31328.8
570.797	30941.74
570.995	31265.31
571.193	30970.41
571.392	31386.15
571.59	30650.92
571.789	30820.91
571.987	30822.95
572.186	31009.32
572.384	30691.88
572.582	30902.82
572.781	31001.13
572.979	30540.33
573.177	30759.47
573.376	30487.09
573.574	30495.28
573.772	30208.56
573.971	30159.41
574.169	30104.12
574.367	30003.77
574.565	30247.47
574.763	30087.73
574.962	29913.66
575.16	29927.99
575.358	30069.3
575.556	29790.78
575.754	29813.31
575.952	29502.01
576.151	29991.48
576.349	29454.91
576.547	29397.57
576.745	29782.59
576.943	29514.3
577.141	29151.81
577.339	29358.66
577.537	29364.8
577.735	28916.29
577.933	29108.8
578.131	29014.6
578.329	28897.86
578.527	28805.7
578.725	28969.54
578.923	28871.24
579.121	29028.93
579.319	28861
579.516	28652.11
579.714	29071.94
579.912	28715.59
580.11	28203.6
580.308	28551.76
580.506	28291.66
580.704	28090.96
580.901	28308.05
581.099	28578.38
581.297	28068.44
581.495	28097.11
581.692	28211.79
581.89	27863.64
582.088	27853.4
582.285	27738.71
582.483	27986.52
582.681	27841.11
582.878	27550.3
583.076	27660.89
583.274	27703.9
583.471	27320.93
583.669	27460.19
583.866	27155.04
584.064	27365.98
584.262	27157.09
584.459	27359.84
584.657	27290.21
584.854	27163.23
585.052	26745.45
585.249	27101.79
585.447	26905.19
585.644	26735.21
585.841	26806.89
586.039	26724.97
586.236	26221.17
586.434	26335.85
586.631	26772.07
586.828	26360.43
587.026	26372.72
587.223	26323.57
587.42	26319.47
587.618	26069.62
587.815	25881.21
588.012	26092.15
588.21	25672.31
588.407	26092.15
588.604	26012.28
588.801	25608.83
588.999	25754.23
589.196	25578.11
589.393	25553.53
589.59	25414.27
589.787	25172.61
589.984	24982.15
590.182	25012.87
590.379	25250.43
590.576	24976
590.773	25129.6
590.97	24826.5
591.167	24877.7
591.364	24728.2
591.561	24836.74
591.758	24683.14
591.955	24879.75
592.152	24582.79
592.349	24490.63
592.546	24529.55
592.743	24588.94
592.94	24048.27
593.137	24365.71
593.334	24148.62
593.531	23925.39
593.727	23997.07
593.924	23892.63
594.121	23800.47
594.318	24095.38
594.515	23567
594.712	23691.93
594.908	23650.97
595.105	23755.41
595.302	23380.64
595.499	23757.46
595.696	23405.21
595.892	23321.24
596.089	23218.85
596.286	23227.04
596.482	23169.69
596.679	23349.92
596.876	23087.78
597.072	22964.9
597.269	22973.09
597.466	22813.35
597.662	22463.15
597.859	22887.07
598.055	22825.64
598.252	22553.26
598.448	22690.47
598.645	22151.85
598.841	22143.66
599.038	22272.68
599.234	22532.78
599.431	22262.44
599.627	21762.74
599.824	22014.64
600.02	21936.82
600.217	22047.41
600.413	21682.87
600.609	21877.43
600.806	21564.09
601.002	21820.08
601.198	21686.97
601.395	21510.84
601.591	21527.22
601.787	21566.13
601.984	21379.77
602.18	21637.81
602.376	21121.73
602.572	21088.96
602.769	21179.07
602.965	20890.31
603.161	20994.75
603.357	20777.67
603.553	20902.59
603.75	21021.38
603.946	20746.95
604.142	20749
604.338	20495.05
604.534	20744.9
604.73	20363.98
604.926	20357.83
605.122	20730.56
605.318	20400.84
605.514	20224.72
605.71	20087.5
605.906	20245.2
606.102	20191.95
606.298	19845.84
606.494	19847.89
606.69	20175.56
606.886	20038.35
607.082	19485.4
607.278	19790.55
607.474	19622.61
607.67	19794.64
607.866	19548.89
608.062	19745.49
608.257	19604.18
608.453	19782.35
608.649	19561.17
608.845	19241.69
609.041	19573.46
609.236	19440.34
609.432	19383
609.628	19282.65
609.824	19501.78
610.019	19450.58
610.215	19317.47
610.411	19481.3
610.606	19264.22
610.802	19133.15
610.998	19145.44
611.193	19241.69
611.389	19165.92
611.584	18989.79
611.78	18911.97
611.976	18987.74
612.171	18862.82
612.367	18969.31
612.562	18862.82
612.758	18688.74
612.953	18610.92
613.149	19016.41
613.344	18391.78
613.539	18848.48
613.735	18803.43
613.93	18725.6
614.126	18641.64
614.321	18610.92
614.517	18621.16
614.712	18512.61
614.907	18266.86
615.103	18606.82
615.298	18406.12
615.493	18574.05
615.688	17980.14
615.884	18625.25
616.079	18084.59
616.274	18475.75
616.47	18232.04
616.665	18207.47
616.86	18014.96
617.055	18201.32
617.25	17777.39
617.445	18111.21
617.641	17672.95
617.836	18084.59
618.031	17771.25
618.226	17943.28
618.421	17797.87
618.616	17605.36
618.811	17732.34
619.006	17799.92
619.201	17320.7
619.396	17707.76
619.591	17281.78
619.786	17619.7
619.981	17089.28
620.176	17435.38
620.371	17019.64
620.566	17017.6
620.761	16968.45
620.956	16950.01
621.151	16782.08
621.346	16907.01
621.541	16521.99
621.735	16585.47
621.93	16644.87
622.125	16728.83
622.32	16302.86
622.515	16116.49
622.709	16075.53
622.904	16145.16
623.099	16073.48
623.294	15977.23
623.488	15835.92
623.683	15854.35
623.878	15721.23
624.072	15680.27
624.267	15653.65
624.462	15455
624.656	15262.49
624.851	15567.63
625.046	15254.3
625.24	15319.83
625.435	14879.52
625.629	14856.99
625.824	14811.93
626.018	14830.37
626.213	14605.09
626.407	14795.55
626.602	14553.89
626.796	14680.86
626.991	14441.25
627.185	14400.29
627.38	14103.34
627.574	14252.84
627.768	14281.51
627.963	13943.6
628.157	13884.2
628.352	14031.66
628.546	13830.96
628.74	14170.92
628.935	13628.21
629.129	13802.29
629.323	13542.19
629.517	13296.44
629.712	13294.39
629.906	13566.77
630.1	13245.24
630.294	13273.91
630.489	12950.33
630.683	13128.5
630.877	13011.77
631.071	12966.71
631.265	12985.15
631.459	12962.62
631.653	12755.77
631.848	12772.16
632.042	12364.61
632.236	12573.5
632.43	12507.97
632.624	12720.96
632.818	12225.35
633.012	12098.38
633.206	12399.43
633.4	12274.5
633.594	11912.01
633.788	12118.86
633.982	12034.89
634.176	11981.64
634.369	11918.15
634.563	11957.07
634.757	11625.29
634.951	11641.68
635.145	11541.33
635.339	11733.84
635.533	11438.93
635.726	11602.77
635.92	11219.8
636.114	11543.38
636.308	11268.95
636.501	11088.73
636.695	11144.02
636.889	11119.45
637.083	10949.46
637.276	10898.27
637.47	10855.26
637.664	10873.69
637.857	11012.95
638.051	10836.83
638.244	10716
638.438	10849.11
638.632	10742.62
638.825	10613.6
639.019	10570.59
639.212	10503.01
639.406	10431.33
639.599	10236.77
639.793	10271.59
639.986	10179.43
640.18	10330.98
640.373	10216.29
640.567	10095.46
640.76	10189.67
640.954	10113.89
641.147	9984.87
641.34	9833.32
641.534	9898.86
641.727	9888.62
641.92	10017.64
642.114	9720.68
642.307	9630.57
642.5	9708.4
642.694	9304.95
642.887	9522.03
643.08	9606
643.273	9565.04
643.467	9429.87
643.66	9354.1
643.853	9306.99
644.046	9124.72
644.239	8995.7
644.432	9212.79
644.626	8897.4
644.819	9173.88
645.012	9167.73
645.205	8989.56
645.398	8870.78
645.591	8868.73
645.784	8848.25
645.977	8831.87
646.17	8883.06
646.363	8698.75
646.556	8414.08
646.749	8610.68
646.942	8741.75
647.135	8428.42
647.328	8631.16
647.521	8371.07
647.714	8244.1
647.907	8381.31
648.099	8289.15
648.292	8235.91
648.485	8221.57
648.678	8102.79
648.871	8174.47
649.064	7973.77
649.256	8162.18
649.449	8137.6
649.642	7941
649.835	7979.91
650.027	7660.43
650.22	7873.42
650.413	7891.85
650.605	7824.26
650.798	7687.05
650.991	7478.16
651.183	7615.37
651.376	7455.63
651.568	7596.94
651.761	7492.49
651.954	7357.33
652.146	7445.39
652.339	7549.84
652.531	7310.22
652.724	7414.67
652.916	7236.5
653.109	7082.9
653.301	7324.56
653.494	7365.52
653.686	7115.67
653.879	7076.76
654.071	6927.25
654.263	6960.02
654.456	7066.52
654.648	6845.34
654.84	6978.45
655.033	6767.51
655.225	7046.04
655.417	6675.35
655.61	6853.53
655.802	6771.61
655.994	6714.27
656.186	6751.13
656.379	6691.74
656.571	6605.72
656.763	6409.12
656.955	6452.13
657.148	6419.36
657.34	6413.21
657.532	6146.98
657.724	6491.04
657.916	6425.5
658.108	6431.65
658.3	6271.9
658.492	6161.31
658.684	6194.08
658.876	6321.06
659.068	6179.75
659.26	6175.65
659.452	6050.72
659.644	6058.92
659.836	6097.83
660.028	5962.66
660.22	5923.75
660.412	5958.57
660.604	6001.57
660.796	5915.56
660.988	5993.38
661.18	5895.08
661.372	5772.2
661.563	5901.22
661.755	5702.57
661.947	5825.45
662.139	5589.93
662.331	5626.79
662.522	5518.25
662.714	5567.4
662.906	5624.75
663.097	5514.16
663.289	5749.67
663.481	5534.64
663.673	5555.12
663.864	5444.52
664.056	5442.48
664.247	5385.13
664.439	5137.33
664.631	5362.61
664.822	5354.41
665.014	5383.09
665.205	5303.22
665.397	5112.75
665.588	5352.37
665.78	5186.48
665.971	5229.49
666.163	5141.43
666.354	5166
666.546	5024.69
666.737	5014.45
666.929	5045.17
667.12	4840.37
667.311	5036.98
667.503	4912.05
667.694	4996.02
667.885	4961.2
668.077	4852.66
668.268	4828.09
668.459	4754.36
668.651	4830.13
668.842	4834.23
669.033	5010.36
669.224	4713.4
669.416	4869.05
669.607	4903.86
669.798	4643.77
669.989	4844.47
670.18	4633.53
670.371	4760.5
670.563	4692.92
670.754	4615.1
670.945	4617.15
671.136	4582.33
671.327	4647.87
671.518	4537.27
671.709	4705.21
671.9	4535.23
672.091	4547.51
672.282	4375.49
672.473	4490.17
672.664	4461.5
672.855	4453.31
673.046	4492.22
673.237	4420.54
673.428	4416.44
673.619	4334.53
673.809	4307.9
674	4262.85
674.191	4260.8
674.382	4336.57
674.573	4256.7
674.764	4412.35
674.954	4312
675.145	4250.56
675.336	4283.33
675.527	4303.81
675.717	4211.65
675.908	4158.4
676.099	4115.39
676.289	4166.59
676.48	4070.34
676.671	4103.11
676.861	4166.59
677.052	4049.86
677.243	3980.23
677.433	4135.87
677.624	4162.5
677.814	4084.67
678.005	4107.2
678.195	4027.33
678.386	4080.58
678.576	4019.14
678.767	4002.75
678.957	4000.71
679.148	4039.62
679.338	3865.54
679.529	3922.88
679.719	3935.17
679.909	4010.95
680.1	3847.11
680.29	3826.63
680.481	3886.02
680.671	3961.8
680.861	3857.35
681.052	3814.34
681.242	3820.49
681.432	3867.59
681.622	3918.79
681.813	3834.82
682.003	3894.21
682.193	3849.16
682.383	3926.98
682.573	3877.83
682.764	3795.91
682.954	3838.92
683.144	3777.48
683.334	3865.54
683.524	3838.92
683.714	3840.97
683.904	3683.27
684.094	3746.76
684.284	3726.28
684.474	3713.99
684.664	3705.8
684.854	3736.52
685.044	3757
685.234	3654.6
685.424	3515.34
685.614	3607.5
685.804	3668.94
685.994	3560.39
686.184	3625.93
686.374	3617.74
686.564	3441.61
686.753	3601.35
686.943	3535.82
687.133	3494.86
687.323	3378.12
687.513	3609.54
687.702	3451.85
687.892	3374.03
688.082	3509.19
688.272	3519.43
688.461	3367.88
688.651	3417.04
688.841	3343.31
689.03	3376.08
689.22	3394.51
689.41	3447.76
689.599	3429.32
689.789	3232.72
689.979	3265.49
690.168	3271.63
690.358	3234.77
690.547	3197.9
690.737	3238.86
690.926	3150.8
691.116	3257.29
691.305	3251.15
691.495	3083.22
691.684	3115.98
691.874	3228.62
692.063	3066.83
692.252	3032.02
692.442	3150.8
692.631	3085.26
692.82	3064.79
693.01	3101.65
693.199	3111.89
693.388	3111.89
693.578	2913.24
693.767	3011.54
693.956	3038.16
694.146	2905.04
694.335	2919.38
694.524	2958.29
694.713	3056.59
694.902	2907.09
695.092	2896.85
695.281	2888.66
695.47	2796.5
695.659	2843.6
695.848	2870.23
696.037	2800.6
696.226	2876.37
696.415	2780.12
696.604	2747.35
696.793	2741.21
696.982	2757.59
697.171	2771.93
697.36	2819.03
697.549	2730.97
697.738	2733.01
697.927	2659.29
698.116	2720.73
698.305	2778.07
698.494	2614.23
698.683	2595.8
698.872	2728.92
699.061	2612.18
699.25	2462.68
699.438	2624.47
699.627	2628.57
699.816	2638.81
700.005	2642.9
700.193	2638.81
700.382	2692.05
700.571	2571.22
700.76	2520.03
700.948	2667.48
701.137	2636.76
701.326	2603.99
701.514	2481.11
701.703	2454.49
701.892	2468.83
702.08	2569.18
702.269	2431.96
702.457	2474.97
702.646	2550.75
702.834	2434.01
703.023	2466.78
703.212	2483.16
703.4	2368.48
703.589	2474.97
703.777	2436.06
703.965	2483.16
704.154	2405.34
704.342	2302.94
704.531	2468.83
704.719	2296.8
704.907	2546.65
705.096	2481.11
705.284	2368.48
705.472	2325.47
705.661	2358.24
705.849	2401.24
706.037	2472.92
706.226	2468.83
706.414	2413.53
706.602	2313.18
706.79	2317.28
706.979	2264.03
707.167	2434.01
707.355	2253.79
707.543	2261.98
707.731	2378.72
707.919	2292.7
708.107	2407.39
708.296	2239.45
708.484	2345.95
708.672	2386.91
708.86	2425.82
709.048	2421.72
709.236	2280.41
709.424	2294.75
709.612	2345.95
709.8	2282.46
709.988	2276.32
710.176	2270.17
710.364	2397.15
710.551	2341.85
710.739	2282.46
710.927	2169.82
711.115	2313.18
711.303	2343.9
711.491	2354.14
711.679	2274.27
711.866	2251.74
712.054	2343.9
712.242	2137.06
712.43	2282.46
712.617	2311.13
712.805	2284.51
712.993	2288.61
713.181	2180.06
713.368	2296.8
713.556	2235.36
713.744	2190.3
713.931	2321.37
714.119	2237.41
714.306	2282.46
714.494	2208.73
714.682	2329.56
714.869	2237.41
715.057	2182.11
715.244	2132.96
715.432	2370.52
715.619	2235.36
715.807	2284.51
715.994	2143.2
716.182	2362.33
716.369	2243.55
716.556	2286.56
716.744	2257.89
716.931	2356.19
717.119	2204.64
717.306	2321.37
717.493	2178.01
717.681	2276.32
717.868	2249.69
718.055	2333.66
718.242	2339.8
718.43	2204.64
718.617	2350.04
718.804	2163.68
718.991	2210.78
719.179	2370.52
719.366	2382.81
719.553	2298.84
719.74	2278.37
719.927	2259.93
720.114	2304.99
720.301	2255.84
720.488	2329.56
720.676	2288.61
720.863	2321.37
721.05	2352.09
721.237	2434.01
721.424	2292.7
721.611	2257.89
721.798	2200.54
721.985	2364.38
722.172	2270.17
722.358	2247.65
722.545	2325.47
722.732	2137.06
722.919	2286.56
723.106	2245.6
723.293	2335.71
723.48	2245.6
723.667	2270.17
723.853	2319.32
724.04	2374.62
724.227	2341.85
724.414	2280.41
724.6	2235.36
724.787	2206.69
724.974	2362.33
725.161	2243.55
725.347	2339.8
725.534	2190.3
725.72	2327.52
725.907	2319.32
726.094	2274.27
726.28	2348
726.467	2302.94
726.653	2259.93
726.84	2380.76
727.027	2458.59
727.213	2358.24
727.4	2421.72
727.586	2280.41
727.773	2411.48
727.959	2382.81
728.145	2395.1
728.332	2274.27
728.518	2343.9
728.705	2452.44
728.891	2313.18
729.077	2339.8
729.264	2378.72
729.45	2401.24
729.636	2362.33
729.823	2384.86
730.009	2542.55
730.195	2452.44
730.382	2550.75
730.568	2393.05
730.754	2341.85
730.94	2397.15
731.126	2444.25
731.313	2419.68
731.499	2438.11
731.685	2454.49
731.871	2395.1
732.057	2522.07
732.243	2493.4
732.429	2393.05
732.615	2509.79
732.801	2407.39
732.987	2415.58
733.173	2436.06
733.359	2499.55
733.545	2472.92
733.731	2450.39
733.917	2601.94
734.103	2597.85
734.289	2448.35
734.475	2583.51
734.661	2690.01
734.847	2522.07
735.033	2491.35
735.219	2618.33
735.404	2511.83
735.59	2515.93
735.776	2685.91
735.962	2530.27
736.148	2550.75
736.333	2626.52
736.519	2546.65
736.705	2622.42
736.89	2653.14
737.076	2544.6
737.262	2583.51
737.447	2720.73
737.633	2528.22
737.819	2653.14
738.004	2614.23
738.19	2603.99
738.375	2571.22
738.561	2599.9
738.747	2614.23
738.932	2583.51
739.118	2649.05
739.303	2575.32
739.489	2606.04
739.674	2591.7
739.859	2616.28
740.045	2694.1
740.23	2526.17
740.416	2497.5
740.601	2560.98
740.786	2624.47
740.972	2698.2
741.157	2642.9
741.342	2599.9
741.528	2626.52
741.713	2616.28
741.898	2624.47
742.084	2614.23
742.269	2653.14
742.454	2583.51
742.639	2649.05
742.824	2657.24
743.01	2513.88
743.195	2554.84
743.38	2608.09
743.565	2673.62
743.75	2667.48
743.935	2690.01
744.12	2630.62
744.305	2507.74
744.49	2606.04
744.675	2487.26
744.86	2511.83
745.045	2511.83
745.23	2517.98
745.415	2552.79
745.6	2517.98
745.785	2474.97
745.97	2567.13
746.155	2483.16
746.34	2538.46
746.525	2591.7
746.71	2497.5
746.895	2409.44
747.079	2417.63
747.264	2501.59
747.449	2460.63
747.634	2339.8
747.819	2530.27
748.003	2386.91
748.188	2429.91
748.373	2356.19
748.557	2474.97
748.742	2413.53
748.927	2391
749.111	2391
749.296	2464.73
749.481	2284.51
749.665	2323.42
749.85	2302.94
750.034	2431.96
750.219	2298.84
750.404	2202.59
750.588	2345.95
750.773	2298.84
750.957	2311.13
751.141	2409.44
751.326	2309.08
751.51	2204.64
751.695	2350.04
751.879	2186.21
752.064	2237.41
752.248	2112.48
752.432	2153.44
752.617	2169.82
752.801	2104.29
752.985	2071.52
753.17	2167.77
753.354	2159.58
753.538	2194.4
753.722	2106.34
753.907	2096.1
754.091	2051.04
754.275	2141.15
754.459	2038.75
754.643	1977.31
754.828	2061.28
755.012	2151.39
755.196	1999.84
755.38	2016.23
755.564	2079.71
755.748	1919.97
755.932	2147.3
756.116	2012.13
756.3	2016.23
756.484	1901.54
756.668	2001.89
756.852	1889.25
757.036	1758.18
757.22	1836
757.404	1844.2
757.588	1981.41
757.772	1788.9
757.956	1901.54
758.14	1815.52
758.323	1739.75
758.507	2059.23
758.691	1825.76
758.875	1864.68
759.059	1782.76
759.242	1711.08
759.426	1803.24
759.61	1784.8
759.794	1764.33
759.977	1715.17
760.161	1911.78
760.345	1715.17
760.528	1776.61
760.712	1729.51
760.895	1618.92
761.079	1702.89
761.263	1709.03
761.446	1713.13
761.63	1770.47
761.813	1670.12
761.997	1639.4
762.18	1663.97
762.364	1682.41
762.547	1512.42
762.731	1614.82
762.914	1592.3
763.098	1629.16
763.281	1580.01
763.464	1663.97
763.648	1639.4
763.831	1516.52
764.015	1502.19
764.198	1543.14
764.381	1565.67
764.564	1594.34
764.748	1606.63
764.931	1551.34
765.114	1520.62
765.297	1674.21
765.481	1463.27
765.664	1530.86
765.847	1543.14
766.03	1534.95
766.213	1563.62
766.397	1450.99
766.58	1534.95
766.763	1489.9
766.946	1453.03
767.129	1399.79
767.312	1434.6
767.495	1422.31
767.678	1383.4
767.861	1373.16
768.044	1364.97
768.227	1399.79
768.41	1412.07
768.593	1450.99
768.776	1459.18
768.959	1364.97
769.142	1448.94
769.324	1326.06
769.507	1444.84
769.69	1414.12
769.873	1307.63
770.056	1414.12
770.239	1313.77
770.421	1420.27
770.604	1369.07
770.787	1219.57
770.97	1276.91
771.152	1258.48
771.335	1340.4
771.518	1240.05
771.7	1270.76
771.883	1307.63
772.066	1248.24
772.248	1203.18
772.431	1272.81
772.613	1309.68
772.796	1260.52
772.978	1180.65
773.161	1326.06
773.343	1080.3
773.526	1129.45
773.708	1117.17
773.891	1246.19
774.073	1106.93
774.256	1194.99
774.438	1168.37
774.621	1113.07
774.803	1127.41
774.985	1041.39
775.168	1117.17
775.35	1127.41
775.532	1143.79
775.715	1059.82
775.897	1078.26
776.079	1141.74
776.261	1121.26
776.444	1094.64
776.626	1129.45
776.808	1041.39
776.99	1082.35
777.173	1088.5
777.355	1010.67
777.537	1022.96
777.719	986.1
777.901	1020.91
778.083	996.34
778.265	982
778.447	1041.39
778.629	947.19
778.811	904.18
778.993	930.8
779.175	1096.69
779.357	953.33
779.539	889.84
779.721	895.99
779.903	977.91
780.085	992.24
780.267	873.46
780.449	943.09
780.631	924.66
780.812	951.28
780.994	904.18
781.176	943.09
781.358	910.32
781.54	822.26
781.721	953.33
781.903	977.91
782.085	881.65
782.267	885.75
782.448	775.16
782.63	783.35
782.812	766.96
782.993	799.73
783.175	869.36
783.357	771.06
783.538	840.69
783.72	683
783.901	799.73
784.083	746.48
784.264	795.64
784.446	787.44
784.627	723.96
784.809	746.48
784.99	719.86
785.172	713.72
785.353	715.77
785.535	738.29
785.716	717.81
785.897	676.85
786.079	732.15
786.26	605.17
786.441	728.05
786.623	660.47
786.804	672.76
786.985	672.76
787.167	691.19
787.348	734.2
787.529	613.37
787.71	691.19
787.891	603.13
788.073	601.08
788.254	584.7
788.435	672.76
788.616	648.18
788.797	576.5
788.978	551.93
789.159	603.13
789.34	613.37
789.522	623.61
789.703	570.36
789.884	615.41
790.065	467.96
790.246	562.17
790.427	576.5
790.607	605.17
790.788	617.46
790.969	529.4
791.15	523.26
791.331	545.78
791.512	605.17
791.693	465.91
791.874	519.16
792.054	662.52
792.235	576.5
792.416	519.16
792.597	484.34
792.778	541.69
792.958	578.55
793.139	502.78
793.32	474.1
793.5	523.26
793.681	558.07
793.862	447.48
794.042	533.5
794.223	486.39
794.404	406.52
794.584	470.01
794.765	441.34
794.945	504.82
795.126	435.19
795.306	478.2
795.487	527.35
795.667	422.91
795.848	447.48
796.028	445.43
796.209	498.68
796.389	461.82
796.57	414.71
796.75	424.95
796.93	437.24
797.111	441.34
797.291	441.34
797.471	416.76
797.652	388.09
797.832	381.95
798.012	388.09
798.192	420.86
798.373	355.32
798.553	424.95
798.733	445.43
798.913	437.24
799.093	369.66
799.274	420.86
799.454	336.89
799.634	406.52
799.814	463.86
799.994	424.95
800.174	429.05
800.354	467.96
800.534	390.14
800.714	412.67
800.894	306.17
801.074	373.75
801.254	279.55
801.434	398.33
801.614	357.37
801.794	347.13
801.974	1027.06
802.154	318.46
802.334	461.82
802.514	340.99
802.693	359.42
802.873	402.43
803.053	396.28
803.233	289.79
803.413	334.84
803.592	371.71
803.772	328.7
803.952	379.9
804.131	295.93
804.311	359.42
804.491	265.21
804.67	289.79
804.85	324.6
805.03	367.61
805.209	320.51
805.389	252.92
805.568	281.6
805.748	310.27
805.928	287.74
806.107	291.84
806.287	285.69
806.466	265.21
806.646	312.32
806.825	304.12
807.004	322.56
807.184	326.65
807.363	295.93
807.543	293.88
807.722	279.55
807.901	306.17
808.081	295.93
808.26	285.69
808.439	302.08
808.619	166.91
808.798	226.3
808.977	252.92
809.156	226.3
809.336	232.44
809.515	269.31
809.694	259.07
809.873	330.75
810.052	261.12
810.231	277.5
810.411	334.84
810.59	261.12
810.769	195.58
810.948	291.84
811.127	228.35
811.306	195.58
811.485	287.74
811.664	291.84
811.843	224.25
812.022	185.34
812.201	242.68
812.38	287.74
812.559	252.92
812.737	285.69
812.916	269.31
813.095	252.92
813.274	238.59
813.453	228.35
813.632	230.4
813.811	250.88
813.989	320.51
814.168	211.96
814.347	218.11
814.526	244.73
814.704	257.02
814.883	275.45
815.062	207.87
815.24	220.16
815.419	259.07
815.598	175.1
815.776	183.29
815.955	254.97
816.133	171.01
816.312	265.21
816.49	207.87
816.669	244.73
816.847	218.11
817.026	250.88
817.204	199.68
817.383	226.3
817.561	250.88
817.74	207.87
817.918	171.01
818.097	248.83
818.275	148.48
818.453	248.83
818.632	164.86
818.81	177.15
818.988	185.34
819.167	185.34
819.345	130.05
819.523	105.47
819.701	185.34
819.879	164.86
820.058	179.2
820.236	222.2
820.414	199.68
820.592	148.48
820.77	220.16
820.948	203.77
821.127	158.72
821.305	132.09
821.483	144.38
821.661	242.68
821.839	150.53
822.017	162.81
822.195	181.25
822.373	226.3
822.551	107.52
822.729	207.87
822.907	138.24
823.085	232.44
823.262	189.44
823.44	185.34
823.618	119.81
823.796	250.88
823.974	142.33
824.152	207.87
824.329	132.09
824.507	195.58
824.685	160.77
824.863	199.68
825.04	132.09
825.218	209.92
825.396	136.19
825.574	199.68
825.751	164.86
825.929	244.73
826.107	44.03
826.284	171.01
826.462	181.25
826.639	164.86
826.817	76.8
826.994	187.39
827.172	66.56
827.349	173.05
827.527	205.82
827.704	152.57
827.882	130.05
828.059	130.05
828.237	125.95
828.414	164.86
828.591	46.08
828.769	97.28
828.946	121.85
829.124	207.87
829.301	230.4
829.478	189.44
829.655	99.33
829.833	91.13
830.01	125.95
830.187	158.72
830.364	162.81
830.542	101.37
830.719	144.38
830.896	140.29
831.073	50.18
831.25	218.11
831.427	109.57
831.604	66.56
831.782	97.28
831.959	105.47
832.136	121.85
832.313	156.67
832.49	191.49
832.667	113.66
832.844	103.42
833.021	123.9
833.198	99.33
833.374	105.47
833.551	128
833.728	144.38
833.905	123.9
834.082	117.76
834.259	138.24
834.436	150.53
834.612	136.19
834.789	142.33
834.966	160.77
835.143	158.72
835.319	128
835.496	148.48
835.673	113.66
835.85	101.37
836.026	117.76
836.203	87.04
836.38	113.66
836.556	72.7
836.733	76.8
836.909	150.53
837.086	142.33
837.262	62.46
837.439	95.23
837.616	117.76
837.792	78.85
837.968	168.96
838.145	111.61
838.321	93.18
838.498	78.85
838.674	107.52
838.851	101.37
839.027	97.28
839.203	27.65
839.38	82.94
839.556	111.61
839.732	193.53
839.909	84.99
840.085	64.51
840.261	41.98
840.437	171.01
840.614	113.66
840.79	132.09
840.966	152.57
841.142	123.9
841.318	17.41
841.494	111.61
841.671	93.18
841.847	101.37
842.023	25.6
842.199	101.37
842.375	101.37
842.551	48.13
842.727	25.6
842.903	121.85
843.079	87.04
843.255	150.53
843.431	66.56
843.607	64.51
843.783	134.14
843.959	148.48
844.134	50.18
844.31	121.85
844.486	13.31
844.662	91.13
844.838	46.08
845.013	46.08
845.189	103.42
845.365	78.85
845.541	87.04
845.716	82.94
845.892	5.12
846.068	11.26
846.244	74.75
846.419	117.76
846.595	80.89
846.77	93.18
846.946	144.38
847.122	70.65
847.297	7.17
847.473	158.72
847.648	62.46
847.824	62.46
847.999	-35.84
848.175	60.42
848.35	13.31
848.526	134.14
848.701	93.18
848.876	103.42
849.052	123.9
849.227	13.31
849.403	11.26
849.578	87.04
849.753	29.7
849.929	7.17
850.104	-11.26
850.279	93.18
850.454	52.22
850.63	97.28
850.805	84.99
850.98	35.84
851.155	78.85
851.33	68.61
851.505	23.55
851.681	35.84
851.856	41.98
852.031	52.22
852.206	31.74
852.381	93.18
852.556	99.33
852.731	121.85
852.906	62.46
853.081	87.04
853.256	115.71
853.431	31.74
853.606	74.75
853.781	107.52
853.956	17.41
854.131	23.55
854.305	113.66
854.48	52.22
854.655	21.5
854.83	25.6
855.005	68.61
855.18	17.41
855.354	19.46
855.529	74.75
855.704	3.07
855.879	64.51
856.053	50.18
856.228	33.79
856.403	-19.46
856.577	95.23
856.752	52.22
856.926	62.46
857.101	91.13
857.276	9.22
857.45	179.2
857.625	76.8
857.799	41.98
857.974	95.23
858.148	33.79
858.323	68.61
858.497	66.56
858.672	91.13
858.846	84.99
859.02	70.65
859.195	15.36
859.369	101.37
859.543	58.37
859.718	41.98
859.892	93.18
860.066	39.94
860.241	15.36
860.415	66.56
860.589	107.52
860.763	7.17
860.938	41.98
861.112	105.47
861.286	-3.07
861.46	68.61
861.634	56.32
861.808	82.94
861.982	25.6
862.157	3.07
862.331	33.79
862.505	35.84
862.679	-21.5
862.853	-3.07
863.027	1.02
863.201	121.85
863.375	-35.84
863.549	80.89
863.722	87.04
863.896	80.89
864.07	62.46
864.244	99.33
864.418	17.41
864.592	46.08
864.766	27.65
864.939	70.65
865.113	-23.55
865.287	44.03
865.461	60.42
865.634	35.84
865.808	62.46
865.982	13.31
866.156	31.74
866.329	21.5
866.503	50.18
866.676	68.61
866.85	35.84
867.024	7.17
867.197	-31.74
867.371	150.53
867.544	56.32
867.718	39.94
867.891	78.85
868.065	50.18
868.238	-5.12
868.412	19.46
868.585	37.89
868.759	-21.5
868.932	44.03
869.105	-1.02
869.279	-1.02
869.452	39.94
869.625	52.22
869.799	46.08
869.972	35.84
870.145	15.36
870.319	84.99
870.492	44.03
870.665	9.22
870.838	41.98
871.011	-64.51
871.185	23.55
871.358	13.31
871.531	50.18
871.704	41.98
871.877	46.08
872.05	46.08
872.223	9.22
872.396	-3.07
872.569	91.13
872.742	3.07
872.915	50.18
873.088	35.84
873.261	15.36
873.434	62.46
873.607	-41.98
873.78	91.13
873.953	-21.5
874.126	33.79
874.299	11.26
874.471	31.74
874.644	-17.41
874.817	33.79
874.99	9.22
875.163	-29.7
875.335	62.46
875.508	19.46
875.681	66.56
875.853	44.03
876.026	93.18
876.199	1.02
876.371	5.12
876.544	54.27
876.717	82.94
876.889	60.42
877.062	11.26
877.234	101.37
877.407	-5.12
877.579	15.36
877.752	41.98
877.924	91.13
878.097	46.08
878.269	41.98
878.442	48.13
878.614	70.65
878.786	-7.17
878.959	27.65
879.131	21.5
879.303	27.65
879.476	31.74
879.648	-35.84
879.82	35.84
879.993	52.22
880.165	21.5
880.337	46.08
880.509	60.42
880.681	-60.42
880.854	44.03
881.026	25.6
881.198	82.94
881.37	80.89
881.542	-39.94
881.714	-9.22
881.886	-23.55
882.058	5.12
882.23	-9.22
882.402	-9.22
882.574	41.98
882.746	82.94
882.918	60.42
883.09	15.36
883.262	19.46
883.434	25.6
883.606	-15.36
883.778	89.09
883.95	136.19
884.122	33.79
884.293	95.23
884.465	70.65
884.637	11.26
884.809	39.94
884.98	52.22
885.152	-3.07
885.324	27.65
885.496	27.65
885.667	13.31
885.839	11.26
886.011	-74.75
886.182	54.27
886.354	3.07
886.525	54.27
886.697	58.37
886.869	-21.5
887.04	-25.6
887.212	87.04
887.383	44.03
887.555	-60.42
887.726	58.37
887.897	-11.26
888.069	27.65
888.24	50.18
888.412	15.36
888.583	-52.22
888.754	-37.89
888.926	93.18
889.097	-13.31
889.268	13.31
889.44	-5.12
889.611	-29.7
889.782	-44.03
889.953	-17.41
890.125	3.07
890.296	-52.22
890.467	29.7
890.638	-7.17
890.809	48.13
890.98	-35.84
891.151	19.46
891.323	60.42
891.494	41.98
891.665	27.65
891.836	105.47
892.007	-31.74
892.178	33.79
892.349	15.36
892.52	-11.26
892.691	44.03
892.862	41.98
893.032	29.7
893.203	95.23
893.374	-60.42
893.545	76.8
893.716	17.41
893.887	60.42
894.057	25.6
894.228	62.46
894.399	-1.02
894.57	60.42
894.74	17.41
894.911	52.22
895.082	-44.03
895.253	9.22
895.423	19.46
895.594	11.26
895.764	19.46
895.935	5.12
896.106	21.5
896.276	62.46
896.447	-44.03
896.617	39.94
896.788	-115.71
896.958	-11.26
897.129	-13.31
897.299	46.08
897.47	97.28
897.64	50.18
897.81	-17.41
897.981	17.41
898.151	76.8
898.322	46.08
898.492	-25.6
898.662	-27.65
898.832	66.56
899.003	21.5
899.173	5.12
899.343	-48.13
899.513	-48.13
