Data from USB4F104151__9__12-40-58-136.txt Node

Date: Fri Mar 14 12:40:58 EDT 2025
User: louis
Spectrometer: USB4F10415
Trigger mode: 4
Integration Time (sec): 3.000000E-2
Scans to average: 1
Electric dark correction enabled: true
Nonlinearity correction enabled: false
Boxcar width: 0
XAxis mode: Wavelengths
Number of Pixels in Spectrum: 3648
>>>>>Begin Spectral Data<<<<<
178.204	-86.7
178.424	-86.7
178.644	-86.7
178.864	-129.7
179.084	-47.79
179.304	-41.64
179.524	-29.35
179.744	42.32
179.964	23.89
180.184	-21.16
180.404	-10.92
180.624	-15.02
180.844	1.37
181.064	-27.31
181.283	25.94
181.503	40.28
181.723	11.61
181.943	-94.89
182.163	52.56
182.383	1.37
182.602	-0.68
182.822	105.81
183.042	87.38
183.262	68.95
183.482	87.38
183.701	23.89
183.921	34.13
184.141	-55.98
184.361	32.08
184.58	-27.31
184.8	-4.78
185.02	21.85
185.239	32.08
185.459	21.85
185.679	62.8
185.898	-45.74
186.118	19.8
186.338	36.18
186.557	32.08
186.777	1.37
186.997	-27.31
187.216	17.75
187.436	42.32
187.655	23.89
187.875	48.47
188.095	-31.4
188.314	58.71
188.534	87.38
188.753	-74.41
188.973	83.28
189.192	44.37
189.412	-2.73
189.631	89.43
189.851	79.19
190.07	25.94
190.29	25.94
190.509	-25.26
190.729	15.7
190.948	19.8
191.168	167.25
191.387	71
191.607	27.99
191.826	60.76
192.045	-25.26
192.265	-60.07
192.484	-49.83
192.704	13.65
192.923	-47.79
193.142	71
193.362	95.57
193.581	46.42
193.8	-41.64
194.02	46.42
194.239	1.37
194.458	89.43
194.678	25.94
194.897	42.32
195.116	34.13
195.335	-35.5
195.555	25.94
195.774	-6.83
195.993	40.28
196.212	48.47
196.432	-17.07
196.651	77.14
196.87	48.47
197.089	36.18
197.308	40.28
197.528	68.95
197.747	-4.78
197.966	-4.78
198.185	38.23
198.404	-49.83
198.623	32.08
198.842	111.96
199.062	66.9
199.281	56.66
199.5	-0.68
199.719	7.51
199.938	50.52
200.157	48.47
200.376	48.47
200.595	40.28
200.814	30.04
201.033	5.46
201.252	62.8
201.471	17.75
201.69	56.66
201.909	124.24
202.128	56.66
202.347	77.14
202.566	-31.4
202.785	-8.87
203.004	75.09
203.223	103.76
203.442	21.85
203.661	-19.11
203.879	-2.73
204.098	5.46
204.317	66.9
204.536	46.42
204.755	-31.4
204.974	44.37
205.193	34.13
205.411	126.29
205.63	27.99
205.849	56.66
206.068	-12.97
206.287	48.47
206.505	60.76
206.724	40.28
206.943	7.51
207.162	-66.22
207.381	75.09
207.599	73.04
207.818	25.94
208.037	38.23
208.255	83.28
208.474	71
208.693	52.56
208.911	32.08
209.13	40.28
209.349	50.52
209.567	11.61
209.786	56.66
210.005	13.65
210.223	-6.83
210.442	-17.07
210.661	-15.02
210.879	73.04
211.098	68.95
211.316	-23.21
211.535	11.61
211.753	-29.35
211.972	21.85
212.191	48.47
212.409	-43.69
212.628	89.43
212.846	13.65
213.065	44.37
213.283	34.13
213.502	21.85
213.72	52.56
213.938	15.7
214.157	25.94
214.375	11.61
214.594	81.24
214.812	30.04
215.031	13.65
215.249	75.09
215.467	40.28
215.686	13.65
215.904	-0.68
216.122	17.75
216.341	58.71
216.559	40.28
216.778	60.76
216.996	73.04
217.214	60.76
217.432	107.86
217.651	32.08
217.869	30.04
218.087	-8.87
218.306	11.61
218.524	62.8
218.742	13.65
218.96	89.43
219.179	-17.07
219.397	5.46
219.615	-10.92
219.833	-19.11
220.051	30.04
220.27	13.65
220.488	-10.92
220.706	109.91
220.924	-10.92
221.142	-4.78
221.36	71
221.578	71
221.796	7.51
222.015	7.51
222.233	5.46
222.451	77.14
222.669	-45.74
222.887	48.47
223.105	-35.5
223.323	-19.11
223.541	13.65
223.759	60.76
223.977	116.05
224.195	62.8
224.413	38.23
224.631	15.7
224.849	32.08
225.067	50.52
225.285	89.43
225.503	-29.35
225.721	1.37
225.939	-37.55
226.157	1.37
226.375	136.53
226.592	1.37
226.81	-0.68
227.028	52.56
227.246	73.04
227.464	56.66
227.682	21.85
227.9	46.42
228.117	3.41
228.335	13.65
228.553	62.8
228.771	62.8
228.989	111.96
229.206	58.71
229.424	3.41
229.642	66.9
229.86	-15.02
230.077	111.96
230.295	-49.83
230.513	50.52
230.731	36.18
230.948	124.24
231.166	5.46
231.384	66.9
231.601	71
231.819	68.95
232.037	-25.26
232.254	23.89
232.472	5.46
232.689	19.8
232.907	64.85
233.125	1.37
233.342	17.75
233.56	52.56
233.777	-10.92
233.995	5.46
234.213	21.85
234.43	52.56
234.648	13.65
234.865	54.61
235.083	42.32
235.3	-6.83
235.518	-10.92
235.735	58.71
235.953	23.89
236.17	36.18
236.388	-82.6
236.605	1.37
236.822	73.04
237.04	68.95
237.257	7.51
237.475	-2.73
237.692	1.37
237.909	23.89
238.127	44.37
238.344	-15.02
238.562	97.62
238.779	3.41
238.996	85.33
239.214	9.56
239.431	17.75
239.648	11.61
239.865	25.94
240.083	34.13
240.3	-39.59
240.517	17.75
240.735	91.48
240.952	15.7
241.169	97.62
241.386	-23.21
241.603	23.89
241.821	5.46
242.038	71
242.255	32.08
242.472	66.9
242.689	9.56
242.907	75.09
243.124	23.89
243.341	25.94
243.558	23.89
243.775	50.52
243.992	-23.21
244.209	52.56
244.426	111.96
244.643	101.72
244.86	-39.59
245.078	75.09
245.295	13.65
245.512	-33.45
245.729	38.23
245.946	-51.88
246.163	15.7
246.38	-29.35
246.597	73.04
246.814	83.28
247.031	21.85
247.248	87.38
247.464	25.94
247.681	85.33
247.898	38.23
248.115	27.99
248.332	81.24
248.549	101.72
248.766	48.47
248.983	114
249.2	21.85
249.417	36.18
249.633	-53.93
249.85	68.95
250.067	17.75
250.284	54.61
250.501	46.42
250.717	23.89
250.934	56.66
251.151	40.28
251.368	-31.4
251.585	71
251.801	21.85
252.018	-12.97
252.235	89.43
252.451	-4.78
252.668	11.61
252.885	36.18
253.102	50.52
253.318	13.65
253.535	-53.93
253.752	64.85
253.968	23.89
254.185	42.32
254.401	30.04
254.618	93.52
254.835	13.65
255.051	5.46
255.268	3.41
255.484	99.67
255.701	68.95
255.917	34.13
256.134	-2.73
256.351	-2.73
256.567	3.41
256.784	64.85
257	-0.68
257.217	13.65
257.433	46.42
257.65	38.23
257.866	87.38
258.082	46.42
258.299	3.41
258.515	-6.83
258.732	-2.73
258.948	40.28
259.165	42.32
259.381	21.85
259.597	32.08
259.814	36.18
260.03	3.41
260.246	30.04
260.463	23.89
260.679	62.8
260.895	58.71
261.112	97.62
261.328	38.23
261.544	-37.55
261.761	75.09
261.977	11.61
262.193	-12.97
262.409	44.37
262.626	97.62
262.842	85.33
263.058	-29.35
263.274	38.23
263.49	48.47
263.707	77.14
263.923	56.66
264.139	19.8
264.355	114
264.571	64.85
264.787	34.13
265.004	-4.78
265.22	3.41
265.436	17.75
265.652	34.13
265.868	56.66
266.084	81.24
266.3	46.42
266.516	1.37
266.732	95.57
266.948	-88.75
267.164	42.32
267.38	58.71
267.596	50.52
267.812	83.28
268.028	130.39
268.244	-19.11
268.46	44.37
268.676	-4.78
268.892	-15.02
269.108	-53.93
269.324	3.41
269.54	66.9
269.756	89.43
269.972	-25.26
270.188	38.23
270.403	1.37
270.619	48.47
270.835	83.28
271.051	42.32
271.267	-29.35
271.483	-19.11
271.698	13.65
271.914	-25.26
272.13	9.56
272.346	-17.07
272.562	15.7
272.777	-2.73
272.993	9.56
273.209	11.61
273.425	50.52
273.64	15.7
273.856	44.37
274.072	40.28
274.287	-21.16
274.503	23.89
274.719	5.46
274.934	77.14
275.15	48.47
275.366	21.85
275.581	-31.4
275.797	21.85
276.012	7.51
276.228	11.61
276.444	38.23
276.659	-4.78
276.875	32.08
277.09	-6.83
277.306	54.61
277.521	-47.79
277.737	-41.64
277.952	68.95
278.168	62.8
278.383	75.09
278.599	71
278.814	-2.73
279.03	-17.07
279.245	30.04
279.461	38.23
279.676	54.61
279.892	5.46
280.107	77.14
280.322	-109.22
280.538	1.37
280.753	-15.02
280.969	-12.97
281.184	120.15
281.399	30.04
281.615	91.48
281.83	5.46
282.045	38.23
282.26	27.99
282.476	-31.4
282.691	56.66
282.906	-8.87
283.122	38.23
283.337	15.7
283.552	52.56
283.767	48.47
283.983	83.28
284.198	-58.03
284.413	5.46
284.628	34.13
284.843	-12.97
285.058	42.32
285.274	-2.73
285.489	1.37
285.704	68.95
285.919	-6.83
286.134	109.91
286.349	-12.97
286.564	5.46
286.779	64.85
286.995	42.32
287.21	-23.21
287.425	60.76
287.64	-49.83
287.855	-15.02
288.07	11.61
288.285	46.42
288.5	21.85
288.715	60.76
288.93	23.89
289.145	42.32
289.36	46.42
289.575	60.76
289.79	62.8
290.004	-10.92
290.219	124.24
290.434	-33.45
290.649	46.42
290.864	15.7
291.079	25.94
291.294	27.99
291.509	50.52
291.724	44.37
291.938	25.94
292.153	17.75
292.368	3.41
292.583	46.42
292.798	132.44
293.012	23.89
293.227	38.23
293.442	17.75
293.657	77.14
293.871	3.41
294.086	-15.02
294.301	87.38
294.516	32.08
294.73	73.04
294.945	13.65
295.16	83.28
295.374	114
295.589	54.61
295.804	9.56
296.018	48.47
296.233	17.75
296.447	93.52
296.662	11.61
296.877	93.52
297.091	23.89
297.306	-47.79
297.52	36.18
297.735	-0.68
297.949	101.72
298.164	5.46
298.378	130.39
298.593	-2.73
298.807	95.57
299.022	-37.55
299.236	87.38
299.451	62.8
299.665	87.38
299.88	66.9
300.094	48.47
300.309	32.08
300.523	42.32
300.737	-2.73
300.952	87.38
301.166	30.04
301.381	42.32
301.595	64.85
301.809	-12.97
302.024	-76.46
302.238	50.52
302.452	-4.78
302.667	27.99
302.881	107.86
303.095	15.7
303.309	46.42
303.524	-4.78
303.738	17.75
303.952	-43.69
304.166	-15.02
304.381	36.18
304.595	15.7
304.809	50.52
305.023	95.57
305.237	5.46
305.452	75.09
305.666	30.04
305.88	66.9
306.094	52.56
306.308	85.33
306.522	107.86
306.736	25.94
306.95	-12.97
307.164	60.76
307.379	62.8
307.593	42.32
307.807	62.8
308.021	91.48
308.235	54.61
308.449	19.8
308.663	-4.78
308.877	124.24
309.091	-2.73
309.305	56.66
309.519	-53.93
309.733	27.99
309.947	23.89
310.161	85.33
310.374	52.56
310.588	23.89
310.802	9.56
311.016	-41.64
311.23	38.23
311.444	21.85
311.658	5.46
311.872	66.9
312.085	27.99
312.299	107.86
312.513	126.29
312.727	-4.78
312.941	17.75
313.154	111.96
313.368	77.14
313.582	-8.87
313.796	-47.79
314.009	11.61
314.223	97.62
314.437	30.04
314.651	66.9
314.864	11.61
315.078	34.13
315.292	32.08
315.505	23.89
315.719	15.7
315.933	-12.97
316.146	-10.92
316.36	1.37
316.573	32.08
316.787	71
317.001	44.37
317.214	-6.83
317.428	-17.07
317.641	38.23
317.855	21.85
318.068	81.24
318.282	-55.98
318.495	136.53
318.709	46.42
318.922	44.37
319.136	107.86
319.349	152.92
319.563	36.18
319.776	71
319.99	38.23
320.203	81.24
320.417	1.37
320.63	62.8
320.843	85.33
321.057	5.46
321.27	-0.68
321.483	27.99
321.697	83.28
321.91	30.04
322.124	36.18
322.337	-17.07
322.55	-10.92
322.763	48.47
322.977	-45.74
323.19	13.65
323.403	77.14
323.617	50.52
323.83	17.75
324.043	89.43
324.256	27.99
324.469	30.04
324.683	87.38
324.896	38.23
325.109	38.23
325.322	-43.69
325.535	58.71
325.748	50.52
325.962	5.46
326.175	15.7
326.388	93.52
326.601	48.47
326.814	30.04
327.027	-47.79
327.24	126.29
327.453	-62.12
327.666	73.04
327.879	13.65
328.092	179.54
328.305	116.05
328.518	25.94
328.731	15.7
328.944	-21.16
329.157	-0.68
329.37	27.99
329.583	132.44
329.796	167.25
330.009	32.08
330.222	13.65
330.435	56.66
330.648	71
330.861	85.33
331.073	40.28
331.286	-0.68
331.499	5.46
331.712	-19.11
331.925	75.09
332.138	66.9
332.35	44.37
332.563	-0.68
332.776	128.34
332.989	-2.73
333.202	27.99
333.414	44.37
333.627	42.32
333.84	93.52
334.053	7.51
334.265	-60.07
334.478	68.95
334.691	85.33
334.903	11.61
335.116	11.61
335.329	120.15
335.541	17.75
335.754	50.52
335.966	52.56
336.179	111.96
336.392	38.23
336.604	32.08
336.817	-10.92
337.029	60.76
337.242	62.8
337.454	66.9
337.667	15.7
337.88	3.41
338.092	19.8
338.305	52.56
338.517	62.8
338.729	44.37
338.942	81.24
339.154	27.99
339.367	11.61
339.579	13.65
339.792	-43.69
340.004	87.38
340.217	27.99
340.429	68.95
340.641	-19.11
340.854	64.85
341.066	44.37
341.278	71
341.491	89.43
341.703	46.42
341.915	3.41
342.128	66.9
342.34	-15.02
342.552	46.42
342.764	11.61
342.977	120.15
343.189	54.61
343.401	81.24
343.613	-33.45
343.826	54.61
344.038	-31.4
344.25	93.52
344.462	40.28
344.674	15.7
344.886	44.37
345.099	25.94
345.311	34.13
345.523	30.04
345.735	-37.55
345.947	1.37
346.159	-21.16
346.371	64.85
346.583	85.33
346.795	44.37
347.007	38.23
347.219	54.61
347.431	-23.21
347.643	85.33
347.855	3.41
348.067	66.9
348.279	23.89
348.491	5.46
348.703	-23.21
348.915	30.04
349.127	34.13
349.339	13.65
349.551	87.38
349.763	64.85
349.975	15.7
350.187	122.2
350.399	71
350.61	1.37
350.822	62.8
351.034	97.62
351.246	1.37
351.458	-10.92
351.669	48.47
351.881	120.15
352.093	44.37
352.305	68.95
352.517	83.28
352.728	124.24
352.94	64.85
353.152	3.41
353.363	17.75
353.575	79.19
353.787	107.86
353.999	-17.07
354.21	81.24
354.422	40.28
354.633	42.32
354.845	30.04
355.057	54.61
355.268	21.85
355.48	95.57
355.692	30.04
355.903	91.48
356.115	17.75
356.326	13.65
356.538	32.08
356.749	114
356.961	77.14
357.172	71
357.384	-37.55
357.595	132.44
357.807	32.08
358.018	64.85
358.23	7.51
358.441	101.72
358.653	75.09
358.864	71
359.075	3.41
359.287	111.96
359.498	52.56
359.709	30.04
359.921	36.18
360.132	95.57
360.344	60.76
360.555	71
360.766	44.37
360.977	-31.4
361.189	73.04
361.4	27.99
361.611	95.57
361.823	132.44
362.034	-12.97
362.245	58.71
362.456	-10.92
362.667	132.44
362.879	-47.79
363.09	77.14
363.301	36.18
363.512	46.42
363.723	79.19
363.935	-4.78
364.146	5.46
364.357	-2.73
364.568	89.43
364.779	46.42
364.99	79.19
365.201	50.52
365.412	79.19
365.623	56.66
365.834	52.56
366.045	99.67
366.256	77.14
366.467	58.71
366.678	3.41
366.889	77.14
367.1	1.37
367.311	60.76
367.522	15.7
367.733	27.99
367.944	134.48
368.155	11.61
368.366	-10.92
368.577	71
368.788	71
368.999	19.8
369.209	-37.55
369.42	40.28
369.631	99.67
369.842	116.05
370.053	99.67
370.264	75.09
370.474	73.04
370.685	-23.21
370.896	34.13
371.107	62.8
371.317	56.66
371.528	19.8
371.739	120.15
371.95	52.56
372.16	89.43
372.371	15.7
372.582	-37.55
372.792	52.56
373.003	79.19
373.214	101.72
373.424	79.19
373.635	32.08
373.846	64.85
374.056	46.42
374.267	64.85
374.477	34.13
374.688	93.52
374.898	56.66
375.109	-49.83
375.319	87.38
375.53	126.29
375.74	83.28
375.951	-35.5
376.161	66.9
376.372	77.14
376.582	75.09
376.793	93.52
377.003	17.75
377.214	87.38
377.424	-58.03
377.635	25.94
377.845	40.28
378.055	64.85
378.266	-41.64
378.476	30.04
378.686	-41.64
378.897	105.81
379.107	58.71
379.317	83.28
379.528	-29.35
379.738	111.96
379.948	13.65
380.158	-4.78
380.369	71
380.579	23.89
380.789	-10.92
380.999	52.56
381.21	32.08
381.42	66.9
381.63	-15.02
381.84	44.37
382.05	91.48
382.261	9.56
382.471	124.24
382.681	89.43
382.891	68.95
383.101	85.33
383.311	30.04
383.521	93.52
383.731	-2.73
383.941	114
384.151	23.89
384.361	48.47
384.571	97.62
384.781	-25.26
384.991	128.34
385.201	183.63
385.411	105.81
385.621	34.13
385.831	7.51
386.041	11.61
386.251	-29.35
386.461	89.43
386.671	136.53
386.881	34.13
387.091	77.14
387.301	91.48
387.511	15.7
387.72	7.51
387.93	89.43
388.14	64.85
388.35	56.66
388.56	62.8
388.769	81.24
388.979	44.37
389.189	-45.74
389.399	126.29
389.609	77.14
389.818	93.52
390.028	25.94
390.238	38.23
390.447	71
390.657	111.96
390.867	9.56
391.076	19.8
391.286	64.85
391.496	44.37
391.705	79.19
391.915	118.1
392.125	157.01
392.334	103.76
392.544	79.19
392.753	68.95
392.963	-23.21
393.172	77.14
393.382	83.28
393.591	165.2
393.801	32.08
394.01	73.04
394.22	15.7
394.429	140.63
394.639	44.37
394.848	17.75
395.058	54.61
395.267	38.23
395.477	-4.78
395.686	25.94
395.895	81.24
396.105	142.68
396.314	58.71
396.524	81.24
396.733	58.71
396.942	56.66
397.152	116.05
397.361	120.15
397.57	38.23
397.78	40.28
397.989	103.76
398.198	101.72
398.407	95.57
398.617	97.62
398.826	89.43
399.035	107.86
399.244	89.43
399.453	66.9
399.663	36.18
399.872	152.92
400.081	73.04
400.29	103.76
400.499	30.04
400.708	142.68
400.917	101.72
401.127	101.72
401.336	177.49
401.545	185.68
401.754	103.76
401.963	71
402.172	64.85
402.381	75.09
402.59	77.14
402.799	146.77
403.008	83.28
403.217	109.91
403.426	118.1
403.635	118.1
403.844	120.15
404.053	68.95
404.262	99.67
404.471	202.07
404.68	142.68
404.888	132.44
405.097	60.76
405.306	97.62
405.515	173.39
405.724	109.91
405.933	152.92
406.142	200.02
406.35	150.87
406.559	159.06
406.768	109.91
406.977	169.3
407.185	185.68
407.394	177.49
407.603	130.39
407.812	222.55
408.02	208.21
408.229	224.59
408.438	142.68
408.646	185.68
408.855	167.25
409.064	218.45
409.272	191.83
409.481	251.22
409.69	255.31
409.898	230.74
410.107	288.08
410.315	193.87
410.524	200.02
410.733	251.22
410.941	275.79
411.15	292.18
411.358	376.14
411.567	267.6
411.775	335.18
411.984	437.58
412.192	351.57
412.401	372.05
412.609	443.73
412.818	427.34
413.026	482.64
413.234	326.99
413.443	429.39
413.651	423.25
413.86	464.21
414.068	560.46
414.276	519.5
414.485	509.26
414.693	531.79
414.901	486.73
415.11	546.12
415.318	550.22
415.526	712.01
415.734	697.67
415.943	642.38
416.151	767.31
416.359	736.59
416.567	736.59
416.776	761.16
416.984	828.74
417.192	824.65
417.4	720.2
417.608	795.98
417.817	771.4
418.025	896.33
418.233	945.48
418.441	830.79
418.649	1047.88
418.857	1035.59
419.065	1076.55
419.273	984.39
419.481	974.15
419.689	1224
419.897	1275.2
420.105	1252.67
420.313	1264.96
420.521	1371.46
420.729	1408.32
420.937	1453.38
421.145	1406.27
421.353	1541.44
421.561	1568.06
421.769	1652.03
421.977	1672.51
422.185	1678.65
422.393	1772.86
422.601	1891.64
422.809	1948.98
423.017	1840.44
423.224	1838.39
423.432	1981.75
423.64	2020.66
423.848	2141.49
424.056	2108.73
424.263	2319.67
424.471	2403.63
424.679	2487.6
424.887	2477.36
425.094	2698.54
425.302	2743.6
425.51	2796.84
425.718	2762.03
425.925	2870.57
426.133	2946.34
426.341	3028.26
426.548	3155.24
426.756	3231.01
426.964	3200.29
427.171	3357.99
427.379	3648.8
427.586	3706.14
427.794	3591.45
428.001	3849.5
428.209	3884.31
428.417	3929.37
428.624	4279.57
428.832	4418.83
429.039	4236.56
429.247	4328.72
429.454	4529.42
429.662	5016.84
429.869	4734.22
430.076	5029.13
430.284	4861.2
430.491	5119.24
430.699	5344.52
430.906	5430.53
431.114	5416.19
431.321	5633.28
431.528	5633.28
431.736	6122.74
431.943	6556.91
432.15	6274.29
432.358	6159.61
432.565	6681.84
432.772	6685.94
432.979	6917.36
433.187	6976.75
433.394	6986.99
433.601	7523.55
433.808	7677.15
434.016	7480.55
434.223	7818.46
434.43	8371.41
434.637	8183
434.844	8711.38
435.052	8688.85
435.259	8482
435.466	8766.67
435.673	8709.33
435.88	9362.63
436.087	9831.62
436.294	9831.62
436.501	9577.67
436.708	9841.86
436.915	10294.46
437.122	10722.48
437.329	10448.05
437.537	10939.57
437.743	11144.36
437.95	11029.68
438.157	11431.08
438.364	12061.85
438.571	11885.73
438.778	11961.5
438.985	13044.88
439.192	12729.49
439.399	13051.02
439.606	12885.14
439.813	13569.16
440.02	14181.5
440.227	13960.32
440.433	13737.09
440.64	14351.48
440.847	14191.74
441.054	14627.96
441.261	15477.87
441.467	15185.01
441.674	15690.85
441.881	16387.16
442.088	16215.13
442.294	16030.82
442.501	16426.07
442.708	16845.91
442.914	17425.48
443.121	18285.63
443.328	17738.82
443.534	18918.45
443.741	18502.71
443.948	18342.97
444.154	19844.13
444.361	19688.49
444.568	19514.41
444.774	19633.19
444.981	19913.77
445.187	20438.05
445.394	21089.3
445.6	21117.97
445.807	23079.93
446.013	21918.73
446.22	22561.79
446.426	23567.34
446.633	23636.97
446.839	24177.64
447.046	23000.05
447.252	24644.57
447.459	24572.89
447.665	24488.93
447.871	26037.19
448.078	26635.2
448.284	25322.45
448.491	26250.18
448.697	27118.52
448.903	27696.05
449.11	27773.87
449.316	27323.32
449.522	27823.02
449.728	28388.26
449.935	28787.61
450.141	28466.08
450.347	29438.87
450.553	28410.79
450.76	28711.84
450.966	29606.8
451.172	29266.84
451.378	30155.66
451.584	29651.86
451.791	30534.53
451.997	30194.57
452.203	30634.88
452.409	30731.14
452.615	30376.84
452.821	29621.14
453.027	29266.84
453.233	30751.62
453.44	29481.88
453.646	29877.13
453.852	30106.51
454.058	30145.42
454.264	29455.25
454.47	30157.71
454.676	29328.28
454.882	30434.18
455.088	28027.82
455.294	28228.52
455.5	28609.44
455.705	28967.84
455.911	27765.68
456.117	27388.85
456.323	26813.37
456.529	25420.75
456.735	26516.42
456.941	25904.07
457.147	25621.45
457.352	24568.8
457.558	24312.8
457.764	24435.68
457.97	24165.35
458.176	23026.68
458.381	23516.14
458.587	22203.39
458.793	22252.55
458.999	21269.52
459.204	22752.25
459.41	21847.05
459.616	20724.76
459.821	20581.4
460.027	20577.31
460.233	19940.39
460.438	19254.32
460.644	19389.49
460.85	18523.19
461.055	18201.66
461.261	18281.53
461.466	16886.87
461.672	16231.52
461.878	17337.42
462.083	16096.35
462.289	16061.54
462.494	15799.4
462.7	14947.44
462.905	14632.05
463.111	15006.83
463.316	15180.91
463.522	15174.77
463.727	15039.6
463.932	14834.8
464.138	14918.77
464.343	14679.16
464.549	14191.74
464.754	14935.15
464.959	14656.63
465.165	14703.73
465.37	14101.63
465.575	13665.41
465.781	14146.69
465.986	14369.91
466.191	13968.51
466.397	13534.34
466.602	12752.02
466.807	13055.12
467.012	13542.53
467.218	13184.14
467.423	12909.71
467.628	13341.83
467.833	13739.14
468.038	13372.55
468.244	13067.41
468.449	13425.8
468.654	13014.16
468.859	12588.18
469.064	12803.22
469.269	12391.58
469.474	12469.4
469.679	12825.75
469.885	12305.56
470.09	12479.64
470.295	12442.78
470.5	12133.53
470.705	12197.02
470.91	11965.6
471.115	11746.47
471.32	11981.98
471.525	11871.39
471.73	11572.39
471.935	11398.31
472.139	11150.51
472.344	11109.55
472.549	11175.08
472.754	11193.51
472.959	10863.79
473.164	10517.68
473.369	10544.31
473.574	11150.51
473.778	10878.13
473.983	10566.84
474.188	10773.68
474.393	10185.91
474.598	10054.84
474.802	10028.22
475.007	10087.61
475.212	9979.07
475.417	9561.28
475.621	9702.59
475.826	9729.22
476.031	9592
476.235	9467.08
476.44	9536.71
476.645	9249.99
476.849	9352.39
477.054	9170.12
477.259	9069.77
477.463	9145.55
477.668	8744.14
477.872	8570.07
478.077	8809.68
478.282	8547.54
478.486	8373.46
478.691	8469.72
478.895	8424.66
479.1	8305.88
479.304	8418.52
479.509	8357.08
479.713	8477.91
479.918	8031.45
480.122	8172.76
480.326	8013.02
480.531	8049.88
480.735	7853.28
480.94	7941.34
481.144	8164.57
481.348	7728.35
481.553	7863.52
481.757	7691.49
481.961	7881.95
482.166	8000.73
482.37	7724.26
482.574	7838.94
482.778	7718.11
482.983	7828.7
483.187	7541.99
483.391	7861.47
483.595	7929.05
483.8	7687.39
484.004	7787.74
484.208	7732.45
484.412	7744.74
484.616	7800.03
484.821	7662.82
485.025	7699.68
485.229	7972.06
485.433	7992.54
485.637	7851.23
485.841	7812.32
486.045	7767.26
486.249	7714.02
486.453	7693.54
486.657	7767.26
486.861	7810.27
487.065	7406.82
487.269	7685.34
487.473	7666.91
487.677	7763.17
487.881	7736.54
488.085	7638.24
488.289	7740.64
488.493	7734.5
488.697	7857.37
488.901	7836.89
489.105	7736.54
489.309	7875.81
489.512	7949.53
489.716	7836.89
489.92	7728.35
490.124	7791.84
490.328	7955.68
490.531	7959.77
490.735	7943.39
490.939	7892.19
491.143	7834.85
491.346	7853.28
491.55	8113.37
491.754	8031.45
491.958	8158.42
492.161	8010.97
492.365	8146.14
492.569	8082.65
492.772	8010.97
492.976	8183
493.18	8252.63
493.383	8393.94
493.587	8441.04
493.79	8443.09
493.994	8244.44
494.197	8588.5
494.401	8395.99
494.605	8625.36
494.808	8570.07
495.012	8580.31
495.215	8828.11
495.419	8920.27
495.622	8819.92
495.825	8873.17
496.029	8893.65
496.232	9147.59
496.436	8991.95
496.639	9196.74
496.843	9284.81
497.046	9495.75
497.249	9467.08
497.453	9481.41
497.656	9563.33
497.859	9510.08
498.063	9698.5
498.266	10097.85
498.469	9911.49
498.673	9923.77
498.876	10269.88
499.079	10134.71
499.282	10304.7
499.485	10480.82
499.689	10814.64
499.892	10691.76
500.095	10687.67
500.298	10896.56
500.501	10960.05
500.705	11410.6
500.908	11238.57
501.111	11465.89
501.314	11562.15
501.517	11736.23
501.72	11883.68
501.923	11752.61
502.126	12043.42
502.329	12141.72
502.532	12444.82
502.735	12389.53
502.938	12633.24
503.141	12534.93
503.344	12850.32
503.547	12807.31
503.75	12821.65
503.953	13231.24
504.156	13450.38
504.359	13507.72
504.562	13509.77
504.765	13829.25
504.968	13794.43
505.17	14062.72
505.373	14177.4
505.576	14226.56
505.779	14433.4
505.982	14408.83
506.185	14935.15
506.387	14914.67
506.59	15139.95
506.793	15363.18
506.996	14865.52
507.198	15647.85
507.401	15635.56
507.604	15803.49
507.807	15866.98
508.009	16163.93
508.212	16116.83
508.415	16456.79
508.617	16673.88
508.82	16917.59
509.022	16649.3
509.225	17261.65
509.428	17429.58
509.63	17173.58
509.833	17351.76
510.035	17753.16
510.238	17769.54
510.44	18009.15
510.643	18226.24
510.845	18338.88
511.048	18170.94
511.25	18670.65
511.453	18723.9
511.655	19606.57
511.858	19233.84
512.06	19498.03
512.262	19698.73
512.465	19579.95
512.667	19889.19
512.87	19893.29
513.072	20194.34
513.274	20390.94
513.477	20610.07
513.679	20900.89
513.881	21124.11
514.084	21160.98
514.286	21001.24
514.488	21537.8
514.69	22203.39
514.893	22006.79
515.095	22197.25
515.297	22356.99
515.499	22129.67
515.701	22821.88
515.904	22785.02
516.106	23165.94
516.308	23333.87
516.51	23587.82
516.712	23260.15
516.914	23991.27
517.116	24089.57
517.318	23962.6
517.52	24368.1
517.722	24667.1
517.925	24703.96
518.127	24869.85
518.329	25351.12
518.531	24955.86
518.733	25484.24
518.935	25543.63
519.136	25830.35
519.338	26069.96
519.54	26115.01
519.742	26223.56
519.944	26721.21
520.146	26958.78
520.348	26848.19
520.55	27317.17
520.752	27163.57
520.954	27126.71
521.155	27343.8
521.357	27833.26
521.559	28076.97
521.761	28572.58
521.963	28205.99
522.164	28531.62
522.366	28744.61
522.568	28793.76
522.77	29256.6
522.971	29414.29
523.173	29430.68
523.375	29404.05
523.576	29369.24
523.778	29598.61
523.98	30133.13
524.181	30210.95
524.383	29918.09
524.584	30647.17
524.786	30264.2
524.988	30329.73
525.189	31030.14
525.391	31026.04
525.592	31241.08
525.794	31126.39
525.995	31300.47
526.197	31581.04
526.398	31458.17
526.6	31579
526.801	32031.6
527.003	31605.62
527.204	32299.88
527.406	32277.35
527.607	32138.09
527.808	32299.88
528.01	31943.53
528.211	32396.13
528.412	32426.85
528.614	32697.19
528.815	32682.85
529.016	33080.16
529.218	32674.66
529.419	32861.02
529.62	33194.84
529.822	32916.32
530.023	32803.68
530.224	33051.49
530.425	32891.74
530.626	32711.52
530.828	33065.82
531.029	33706.83
531.23	33051.49
531.431	33338.2
531.632	33225.56
531.833	33409.88
532.035	33452.89
532.236	33287
532.437	33403.74
532.638	33313.62
532.839	33776.47
533.04	33921.87
533.241	33012.57
533.442	34179.92
533.643	33586
533.844	33905.49
534.045	33608.53
534.246	33448.79
534.447	34214.73
534.648	33477.46
534.849	33864.53
535.05	33383.26
535.251	33600.34
535.451	33596.24
535.652	33975.12
535.853	33803.09
536.054	33889.1
536.255	34007.89
536.456	33377.11
536.657	33913.68
536.857	33504.09
537.058	33561.43
537.259	33848.14
537.46	33626.96
537.66	33659.73
537.861	33637.2
538.062	33553.24
538.263	33487.7
538.463	33557.33
538.664	33706.83
538.865	33911.63
539.065	33692.5
539.266	33516.37
539.466	33753.94
539.667	33526.61
539.868	33870.67
540.068	33592.15
540.269	33487.7
540.469	33604.44
540.67	33264.47
540.87	33237.85
541.071	33751.89
541.271	33844.05
541.472	33710.93
541.672	33221.47
541.873	33475.41
542.073	32803.68
542.274	33706.83
542.474	33600.34
542.675	33483.61
542.875	33592.15
543.075	33432.41
543.276	33147.74
543.476	33506.13
543.676	33422.17
543.877	33684.31
544.077	33805.14
544.277	33287
544.478	33295.19
544.678	33409.88
544.878	33170.27
545.078	33385.3
545.279	33055.58
545.479	33373.02
545.679	33788.75
545.879	33422.17
546.079	33010.53
546.28	33227.61
546.48	33147.74
546.68	33420.12
546.88	33596.24
547.08	33332.06
547.28	33295.19
547.48	32992.09
547.68	33178.46
547.88	33041.25
548.081	33315.67
548.281	33004.38
548.481	33194.84
548.681	33508.18
548.881	32934.75
549.081	33307.48
549.28	33221.47
549.48	33583.96
549.68	33114.97
549.88	33246.04
550.08	32826.21
550.28	33008.48
550.48	32787.3
550.68	33686.36
550.88	33221.47
551.08	32789.35
551.279	33149.79
551.479	32869.22
551.679	33037.15
551.879	32877.41
552.079	32953.18
552.278	33022.81
552.478	32881.5
552.678	32846.69
552.878	33012.57
553.077	32873.31
553.277	32537.44
553.477	32799.58
553.676	33229.66
553.876	32543.59
554.076	32756.58
554.275	32656.23
554.475	32625.51
554.674	32947.04
554.874	32377.7
555.074	32711.52
555.273	32811.87
555.473	32867.17
555.672	32539.49
555.872	32496.49
556.071	32590.69
556.271	32529.25
556.47	32385.9
556.67	32113.52
556.869	32220.01
557.068	32535.4
557.268	32080.75
557.467	32639.84
557.667	32553.83
557.866	32238.44
558.065	32275.3
558.265	31931.25
558.464	31554.42
558.663	32162.67
558.863	31980.4
559.062	32535.4
559.261	31705.97
559.461	32287.59
559.66	31763.31
559.859	32050.03
560.058	31640.43
560.258	31804.27
560.457	31370.1
560.656	31761.26
560.855	31488.88
561.054	31736.69
561.253	31382.39
561.453	31644.53
561.652	31800.18
561.851	31787.89
562.05	31390.58
562.249	31142.78
562.448	31908.72
562.647	31239.03
562.846	31382.39
563.045	31353.72
563.244	31101.82
563.443	31697.78
563.642	30894.97
563.841	31056.76
564.04	30866.3
564.239	31294.33
564.438	30761.86
564.637	31024
564.836	31181.69
565.035	30550.92
565.234	30804.86
565.432	31077.24
565.631	30552.96
565.83	30792.58
566.029	30210.95
566.228	30235.53
566.427	30415.75
566.625	30618.5
566.824	29979.53
567.023	30362.5
567.222	29819.79
567.42	30471.04
567.619	30100.36
567.818	30000.01
568.016	30086.03
568.215	30401.41
568.414	29731.73
568.612	30120.84
568.811	29971.34
569.01	30004.11
569.208	29375.38
569.407	29778.83
569.605	29414.29
569.804	29696.91
570.002	29111.19
570.201	29666.19
570.4	29272.98
570.598	29068.19
570.797	29285.27
570.995	29098.91
571.193	29057.95
571.392	29266.84
571.59	28611.49
571.789	28871.58
571.987	28908.44
572.186	28715.94
572.384	28785.57
572.582	28742.56
572.781	28683.17
572.979	28281.77
573.177	28695.46
573.376	28728.22
573.574	28449.7
573.772	28187.56
573.971	28052.39
574.169	28189.61
574.367	27878.32
574.565	28281.77
574.763	28113.83
574.962	27943.85
575.16	27827.12
575.358	27624.37
575.556	27499.44
575.754	27814.83
575.952	27769.77
576.151	27579.31
576.349	27370.42
576.547	27167.67
576.745	27429.81
576.943	27216.82
577.141	27397.04
577.339	27378.61
577.537	27646.9
577.735	27347.89
577.933	27009.98
578.131	26921.91
578.329	27003.83
578.527	26782.65
578.725	26827.71
578.923	26913.72
579.121	26670.01
579.319	26487.75
579.516	26682.3
579.714	26921.91
579.912	26530.75
580.11	26219.46
580.308	26454.98
580.506	26264.52
580.704	25932.75
580.901	26225.61
581.099	26364.87
581.297	25871.31
581.495	25942.99
581.692	26166.21
581.89	25459.66
582.088	25990.09
582.285	25723.85
582.483	25813.96
582.681	25326.55
582.878	25557.97
583.076	25283.54
583.274	25441.23
583.471	25121.75
583.669	25037.78
583.866	25005.02
584.064	25275.35
584.262	25097.17
584.459	25127.89
584.657	24968.15
584.854	25107.41
585.052	24716.25
585.249	24794.07
585.447	24933.34
585.644	24361.95
585.841	24536.03
586.039	24560.61
586.236	24280.03
586.434	24204.26
586.631	24249.32
586.828	24359.91
587.026	24275.94
587.223	24296.42
587.42	23954.41
587.618	24148.96
587.815	23983.08
588.012	23970.79
588.21	23671.79
588.407	24019.94
588.604	23548.91
588.801	23905.26
588.999	23675.88
589.196	23575.53
589.393	23237.62
589.59	23473.14
589.787	22885.37
589.984	23131.12
590.182	23204.85
590.379	23315.44
590.576	23100.4
590.773	22752.25
590.97	23034.87
591.167	23159.8
591.364	22672.38
591.561	22664.19
591.758	22584.32
591.955	22674.43
592.152	22768.63
592.349	22510.59
592.546	22703.1
592.743	22352.9
592.94	22234.11
593.137	22352.9
593.334	22408.19
593.531	21638.16
593.727	22184.96
593.924	22121.48
594.121	21939.21
594.318	22012.93
594.515	21658.63
594.712	21892.1
594.908	21726.22
595.105	21828.62
595.302	21302.29
595.499	21451.79
595.696	21525.52
595.892	21142.55
596.089	21783.56
596.286	21486.61
596.482	21279.76
596.679	20950.04
596.876	21210.13
597.072	20999.19
597.269	21050.39
597.466	21017.62
597.662	20898.84
597.859	20755.48
598.055	20876.31
598.252	20665.37
598.448	20663.32
598.645	20775.96
598.841	20562.97
599.038	20526.11
599.234	20300.83
599.431	20513.82
599.627	20315.17
599.824	20341.79
600.02	20065.32
600.217	20050.98
600.413	19831.85
600.609	19862.57
600.806	19815.46
601.002	20165.67
601.198	19833.89
601.395	19622.95
601.591	19590.19
601.787	19565.61
601.984	19500.08
602.18	19430.44
602.376	19201.07
602.572	19518.51
602.769	19264.56
602.965	19229.74
603.161	19108.91
603.357	19123.25
603.553	18988.08
603.75	18961.46
603.946	18908.21
604.142	18758.71
604.338	18631.74
604.534	18924.6
604.73	18629.69
604.926	18727.99
605.122	18859.06
605.318	18777.14
605.514	18596.92
605.71	18517.05
605.906	18457.66
606.102	18494.52
606.298	18498.62
606.494	18379.84
606.69	18351.17
606.886	18330.69
607.082	17960
607.278	18256.96
607.474	17986.63
607.67	18019.39
607.866	17972.29
608.062	18197.57
608.257	17869.89
608.453	17988.67
608.649	17996.87
608.845	17677.38
609.041	17882.18
609.236	17677.38
609.432	17591.37
609.628	17632.33
609.824	17505.35
610.019	17599.56
610.215	17448.01
610.411	17667.14
610.606	17562.7
610.802	17519.69
610.998	17435.72
611.193	17507.4
611.389	17560.65
611.584	17382.48
611.78	17079.38
611.976	17396.81
612.171	17366.09
612.367	17228.88
612.562	17206.35
612.758	17071.18
612.953	17165.39
613.149	17302.61
613.344	17106
613.539	17132.62
613.735	16942.16
613.93	16872.53
614.126	16909.4
614.321	17099.86
614.517	16936.02
614.712	16706.65
614.907	16569.43
615.103	16839.76
615.298	16753.75
615.493	16827.48
615.688	16448.6
615.884	17026.13
616.079	16606.3
616.274	16807
616.47	16620.63
616.665	16626.78
616.86	16280.67
617.055	16510.04
617.25	16655.45
617.445	16305.24
617.641	15862.88
617.836	16114.78
618.031	15893.6
618.226	16206.94
618.421	15961.19
618.616	16356.44
618.811	16004.19
619.006	16245.85
619.201	15838.31
619.396	16004.19
619.591	16002.15
619.786	15838.31
619.981	15486.06
620.176	15604.84
620.371	15404.14
620.566	15514.73
620.761	15314.03
620.956	15580.26
621.151	15174.77
621.346	15447.15
621.541	15098.99
621.735	15121.52
621.93	14908.53
622.125	15070.32
622.32	14617.72
622.515	14951.54
622.709	14625.91
622.904	14646.39
623.099	14537.85
623.294	14568.57
623.488	14324.86
623.683	14376.06
623.878	13993.09
624.072	14382.2
624.267	14093.44
624.462	13925.5
624.656	13886.59
624.851	13855.87
625.046	13851.78
625.24	13855.87
625.435	13593.73
625.629	13726.85
625.824	13542.53
626.018	13477
626.213	13212.81
626.407	13235.34
626.602	13130.89
626.796	13315.21
626.991	13122.7
627.185	12991.63
627.38	12858.51
627.574	12807.31
627.768	12895.38
627.963	12780.69
628.157	12596.37
628.352	12874.9
628.546	12616.85
628.74	12653.72
628.935	12459.16
629.129	12444.82
629.323	12526.74
629.517	12207.26
629.712	12272.79
629.906	12256.41
630.1	11998.37
630.294	12053.66
630.489	12053.66
630.683	11922.59
630.877	11766.95
631.071	11564.2
631.265	11646.12
631.459	11596.96
631.653	11619.49
631.848	11564.2
632.042	11408.55
632.236	11443.37
632.43	11498.66
632.624	11140.27
632.818	11250.86
633.012	11136.17
633.206	11136.17
633.4	11300.01
633.594	11207.85
633.788	10790.06
633.982	10958
634.176	10900.65
634.369	10964.14
634.563	10732.72
634.757	10751.15
634.951	10720.43
635.145	10581.17
635.339	10595.51
635.533	10517.68
635.726	10513.59
635.92	10392.76
636.114	10284.22
636.308	10259.64
636.501	10359.99
636.695	10278.07
636.889	10118.33
637.083	10095.8
637.276	9780.42
637.47	9895.1
637.664	9825.47
637.857	9858.24
638.051	9755.84
638.244	9637.06
638.438	9852.1
638.632	9637.06
638.825	9667.78
639.019	9684.16
639.212	9430.21
639.406	9467.08
639.599	9436.36
639.793	9325.77
639.986	9276.62
640.18	9366.73
640.373	9293
640.567	8944.84
640.76	9100.49
640.954	8938.7
641.147	8998.09
641.34	8899.79
641.534	8838.35
641.727	8840.4
641.92	8772.82
642.114	8752.34
642.307	8830.16
642.5	8688.85
642.694	8621.27
642.887	8545.49
643.08	8787.15
643.273	8467.67
643.467	8398.04
643.66	8314.07
643.853	8402.13
644.046	8260.82
644.239	8293.59
644.432	8285.4
644.626	8195.29
644.819	8269.02
645.012	8180.95
645.205	8123.61
645.398	8072.41
645.591	7929.05
645.784	8062.17
645.977	7998.68
646.17	7947.48
646.363	7818.46
646.556	7668.96
646.749	7771.36
646.942	7771.36
647.135	7628
647.328	7709.92
647.521	7599.33
647.714	7625.95
647.907	7533.79
648.099	7443.68
648.292	7597.28
648.485	7220.46
648.678	7329
648.871	7402.72
649.064	7247.08
649.256	7279.85
649.449	7234.79
649.642	7265.51
649.835	7128.3
650.027	7052.52
650.22	6995.18
650.413	7181.54
650.605	6989.03
650.798	6907.12
650.991	6946.03
651.183	7038.19
651.376	6651.12
651.568	6683.89
651.761	6847.72
651.954	6690.03
652.146	6649.07
652.339	6759.66
652.531	6630.64
652.724	6606.06
652.916	6509.81
653.109	6460.66
653.301	6468.85
653.494	6644.98
653.686	6382.84
653.879	6262.01
654.071	6384.88
654.263	6157.56
654.456	6513.91
654.648	6122.74
654.84	6167.8
655.033	6255.86
655.225	6255.86
655.417	5985.53
655.61	6094.07
655.802	6194.42
655.994	6071.54
656.186	6130.94
656.379	5967.1
656.571	5981.43
656.763	5858.56
656.955	5876.99
657.148	5917.95
657.34	5926.14
657.532	5809.4
657.724	5776.64
657.916	5819.64
658.108	5682.43
658.3	5620.99
658.492	5653.76
658.684	5489.92
658.876	5811.45
659.068	5496.07
659.26	5604.61
659.452	5485.83
659.644	5442.82
659.836	5530.88
660.028	5555.46
660.22	5442.82
660.412	5262.6
660.604	5418.24
660.796	5442.82
660.988	5381.38
661.18	5266.69
661.372	5285.12
661.563	5356.8
661.755	5225.73
661.947	5170.44
662.139	5164.29
662.331	5244.17
662.522	5158.15
662.714	4908.3
662.906	5035.27
663.097	5016.84
663.289	5106.95
663.481	4826.38
663.673	4963.59
663.864	4965.64
664.056	4812.04
664.247	4930.83
664.439	4748.56
664.631	4838.67
664.822	4869.39
665.014	4965.64
665.205	4652.3
665.397	4795.66
665.588	4764.94
665.78	4814.09
665.971	4582.67
666.163	4480.27
666.354	4728.08
666.546	4545.81
666.737	4603.15
666.929	4533.52
667.12	4637.97
667.311	4582.67
667.503	4357.39
667.694	4437.27
667.885	4427.03
668.077	4570.38
668.268	4375.83
668.459	4410.64
668.651	4306.2
668.842	4535.57
669.033	4416.79
669.224	4361.49
669.416	4433.17
669.607	4341.01
669.798	4236.56
669.989	4289.81
670.18	4306.2
670.371	4232.47
670.563	4203.8
670.754	4226.32
670.945	4134.17
671.136	4099.35
671.327	4058.39
671.518	4056.34
671.709	4162.84
671.9	4082.97
672.091	4136.21
672.282	3937.56
672.473	4052.25
672.664	4087.06
672.855	4160.79
673.046	3933.47
673.237	3966.23
673.428	4101.4
673.619	4078.87
673.809	3919.13
674	3953.94
674.191	3937.56
674.382	3921.18
674.573	3929.37
674.764	3904.79
674.954	3786.01
675.145	3849.5
675.336	3753.24
675.527	3826.97
675.717	3802.4
675.908	3851.55
676.099	3833.11
676.289	3822.88
676.48	3855.64
676.671	3677.47
676.861	3708.19
677.052	3765.53
677.243	3734.81
677.433	3659.04
677.624	3749.15
677.814	3689.76
678.005	3661.09
678.195	3716.38
678.386	3714.33
678.576	3577.12
678.767	3595.55
678.957	3673.37
679.148	3480.86
679.338	3650.85
679.529	3642.65
679.719	3595.55
679.909	3525.92
680.1	3484.96
680.29	3605.79
680.481	3515.68
680.671	3636.51
680.861	3556.64
681.052	3566.88
681.242	3583.26
681.432	3665.18
681.622	3591.45
681.813	3511.58
682.003	3460.38
682.193	3333.41
682.383	3634.46
682.573	3585.31
682.764	3339.55
682.954	3466.53
683.144	3335.46
683.334	3454.24
683.524	3525.92
683.714	3458.34
683.904	3564.83
684.094	3560.73
684.284	3396.9
684.474	3466.53
684.664	3474.72
684.854	3435.81
685.044	3351.84
685.234	3425.57
685.424	3374.37
685.614	3267.88
685.804	3298.6
685.994	3220.77
686.184	3198.24
686.374	3185.96
686.564	3257.64
686.753	3384.61
686.943	3226.92
687.133	3288.36
687.323	3218.72
687.513	3259.68
687.702	3136.81
687.892	3116.33
688.082	3116.33
688.272	3228.96
688.461	3134.76
688.651	3126.57
688.841	3124.52
689.03	3181.86
689.22	2948.39
689.41	3220.77
689.599	3032.36
689.789	3030.31
689.979	2970.92
690.168	3091.75
690.358	2993.45
690.547	3104.04
690.737	2938.15
690.926	2866.47
691.116	2913.58
691.305	2950.44
691.495	2985.26
691.684	2952.49
691.874	2993.45
692.063	2938.15
692.252	2952.49
692.442	2958.63
692.631	2794.79
692.82	2772.27
693.01	2762.03
693.199	2616.62
693.388	2729.26
693.578	2833.71
693.767	2839.85
693.956	2727.21
694.146	2637.1
694.335	2708.78
694.524	2759.98
694.713	2643.24
694.902	2737.45
695.092	2653.48
695.281	2680.11
695.47	2755.88
695.659	2518.32
695.848	2618.67
696.037	2583.85
696.226	2581.81
696.415	2608.43
696.604	2671.92
696.793	2577.71
696.982	2669.87
697.171	2633.01
697.36	2641.2
697.549	2594.09
697.738	2637.1
697.927	2583.85
698.116	2491.7
698.305	2460.98
698.494	2583.85
698.683	2516.27
698.872	2592.05
699.061	2549.04
699.25	2467.12
699.438	2493.74
699.627	2399.54
699.816	2518.32
700.005	2475.31
700.193	2413.87
700.382	2475.31
700.571	2415.92
700.76	2503.98
700.948	2401.58
701.137	2571.57
701.326	2483.5
701.514	2491.7
701.703	2467.12
701.892	2401.58
702.08	2458.93
702.269	2473.26
702.457	2452.78
702.646	2393.39
702.834	2452.78
703.023	2381.11
703.212	2512.18
703.4	2305.33
703.589	2417.97
703.777	2303.28
703.965	2348.34
704.154	2360.63
704.342	2297.14
704.531	2358.58
704.719	2372.91
704.907	2532.65
705.096	2272.56
705.284	2399.54
705.472	2364.72
705.661	2444.59
705.849	2364.72
706.037	2411.82
706.226	2422.06
706.414	2327.86
706.602	2239.8
706.79	2270.51
706.979	2272.56
707.167	2383.15
707.355	2368.82
707.543	2372.91
707.731	2299.19
707.919	2243.89
708.107	2297.14
708.296	2364.72
708.484	2315.57
708.672	2305.33
708.86	2243.89
709.048	2219.32
709.236	2217.27
709.424	2329.91
709.612	2274.61
709.8	2303.28
709.988	2235.7
710.176	2303.28
710.364	2207.03
710.551	2338.1
710.739	2354.48
710.927	2366.77
711.115	2219.32
711.303	2288.95
711.491	2301.23
711.679	2301.23
711.866	2225.46
712.054	2293.04
712.242	2297.14
712.43	2323.76
712.617	2231.6
712.805	2243.89
712.993	2209.08
713.181	2190.64
713.368	2256.18
713.556	2323.76
713.744	2254.13
713.931	2362.67
714.119	2194.74
714.306	2260.27
714.494	2217.27
714.682	2166.07
714.869	2112.82
715.057	2278.71
715.244	2219.32
715.432	2303.28
715.619	2258.23
715.807	2323.76
715.994	2282.8
716.182	2221.36
716.369	2235.7
716.556	2317.62
716.744	2168.12
716.931	2245.94
717.119	2305.33
717.306	2151.73
717.493	2102.58
717.681	2225.46
717.868	2297.14
718.055	2184.5
718.242	2233.65
718.43	2182.45
718.617	2286.9
718.804	2280.75
718.991	2215.22
719.179	2250.03
719.366	2178.36
719.553	2168.12
719.74	2172.21
719.927	2288.95
720.114	2168.12
720.301	2110.77
720.488	2149.68
720.676	2157.88
720.863	2225.46
721.05	2233.65
721.237	2256.18
721.424	2217.27
721.611	2256.18
721.798	2137.4
721.985	2280.75
722.172	2243.89
722.358	2143.54
722.545	2247.99
722.732	2100.53
722.919	2198.84
723.106	2311.47
723.293	2323.76
723.48	2227.51
723.667	2090.29
723.853	2102.58
724.04	2237.75
724.227	2221.36
724.414	2215.22
724.6	2278.71
724.787	2379.06
724.974	2268.47
725.161	2102.58
725.347	2174.26
725.534	2264.37
725.72	2293.04
725.907	2145.59
726.094	2237.75
726.28	2311.47
726.467	2174.26
726.653	2190.64
726.84	2239.8
727.027	2338.1
727.213	2151.73
727.4	2219.32
727.586	2284.85
727.773	2215.22
727.959	2198.84
728.145	2231.6
728.332	2215.22
728.518	2276.66
728.705	2270.51
728.891	2184.5
729.077	2280.75
729.264	2256.18
729.45	2252.08
729.636	2309.43
729.823	2225.46
730.009	2315.57
730.195	2235.7
730.382	2272.56
730.568	2180.4
730.754	2235.7
730.94	2170.16
731.126	2303.28
731.313	2161.97
731.499	2059.57
731.685	2256.18
731.871	2254.13
732.057	2184.5
732.243	2256.18
732.429	2243.89
732.615	2317.62
732.801	2350.39
732.987	2217.27
733.173	2225.46
733.359	2286.9
733.545	2366.77
733.731	2219.32
733.917	2415.92
734.103	2270.51
734.289	2321.71
734.475	2270.51
734.661	2286.9
734.847	2262.32
735.033	2301.23
735.219	2329.91
735.404	2276.66
735.59	2204.98
735.776	2266.42
735.962	2204.98
736.148	2358.58
736.333	2268.47
736.519	2270.51
736.705	2260.27
736.89	2301.23
737.076	2307.38
737.262	2229.56
737.447	2245.94
737.633	2174.26
737.819	2288.95
738.004	2280.75
738.19	2190.64
738.375	2364.72
738.561	2256.18
738.747	2270.51
738.932	2309.43
739.118	2264.37
739.303	2284.85
739.489	2241.84
739.674	2233.65
739.859	2276.66
740.045	2383.15
740.23	2268.47
740.416	2172.21
740.601	2360.63
740.786	2207.03
740.972	2178.36
741.157	2278.71
741.342	2209.08
741.528	2223.41
741.713	2278.71
741.898	2190.64
742.084	2258.23
742.269	2149.68
742.454	2299.19
742.639	2245.94
742.824	2176.31
743.01	2309.43
743.195	2284.85
743.38	2204.98
743.565	2198.84
743.75	2118.97
743.935	2090.29
744.12	2288.95
744.305	2141.49
744.49	2176.31
744.675	2229.56
744.86	2118.97
745.045	2223.41
745.23	2233.65
745.415	2229.56
745.6	2059.57
745.785	2215.22
745.97	2139.44
746.155	2137.4
746.34	2080.05
746.525	2078.01
746.71	2147.64
746.895	2110.77
747.079	2172.21
747.264	2057.53
747.449	2170.16
747.634	2123.06
747.819	2063.67
748.003	2008.37
748.188	1922.36
748.373	1946.94
748.557	2008.37
748.742	1934.65
748.927	1891.64
749.111	1955.13
749.296	1858.87
749.481	1922.36
749.665	1996.09
749.85	1885.5
750.034	1989.94
750.219	1928.5
750.404	1959.22
750.588	2014.52
750.773	1770.81
750.957	1846.59
751.141	1787.19
751.326	1977.66
751.51	1854.78
751.695	1865.02
751.879	1912.12
752.064	1881.4
752.248	1766.71
752.432	1897.78
752.617	1756.47
752.801	1731.9
752.985	1770.81
753.17	1776.95
753.354	1758.52
753.538	1682.75
753.722	1850.68
753.907	1545.53
754.091	1703.23
754.275	1715.52
754.459	1695.04
754.643	1695.04
754.828	1695.04
755.012	1635.64
755.196	1645.88
755.38	1543.49
755.564	1545.53
755.748	1606.97
755.932	1494.33
756.116	1656.12
756.3	1578.3
756.484	1660.22
756.668	1586.49
756.852	1467.71
757.036	1527.1
757.22	1600.83
757.404	1641.79
757.588	1541.44
757.772	1490.24
757.956	1551.68
758.14	1529.15
758.323	1496.38
758.507	1537.34
758.691	1494.33
758.875	1533.25
759.059	1414.46
759.242	1432.9
759.426	1410.37
759.61	1525.05
759.794	1428.8
759.977	1355.07
760.161	1414.46
760.345	1539.39
760.528	1307.97
760.712	1443.14
760.895	1377.6
761.079	1250.63
761.263	1379.65
761.446	1287.49
761.63	1281.35
761.813	1330.5
761.997	1299.78
762.18	1295.68
762.364	1332.55
762.547	1252.67
762.731	1256.77
762.914	1275.2
763.098	1289.54
763.281	1242.43
763.464	1242.43
763.648	1273.15
763.831	1338.69
764.015	1219.91
764.198	1211.71
764.381	1287.49
764.564	1209.67
764.748	1226.05
764.931	1275.2
765.114	1297.73
765.297	1185.09
765.481	1224
765.664	1195.33
765.847	1115.46
766.03	1199.43
766.213	1267.01
766.397	1140.04
766.58	1189.19
766.763	1207.62
766.946	1164.61
767.129	1115.46
767.312	1084.74
767.495	1152.32
767.678	1084.74
767.861	1109.32
768.044	1148.23
768.227	1236.29
768.41	1082.69
768.593	1205.57
768.776	1064.26
768.959	1054.02
769.142	1221.95
769.324	1035.59
769.507	1074.5
769.69	1025.35
769.873	1029.45
770.056	1066.31
770.239	1033.54
770.421	1193.28
770.604	1076.55
770.787	1033.54
770.97	1072.45
771.152	1017.16
771.335	1027.4
771.518	935.24
771.7	1041.73
771.883	1127.75
772.066	1029.45
772.248	1006.92
772.431	1029.45
772.613	1070.41
772.796	1031.49
772.978	922.95
773.161	986.44
773.343	1006.92
773.526	1019.21
773.708	939.34
773.891	988.49
774.073	881.99
774.256	951.62
774.438	982.34
774.621	894.28
774.803	879.94
774.985	986.44
775.168	910.66
775.35	943.43
775.532	974.15
775.715	822.6
775.897	802.12
776.079	898.38
776.261	935.24
776.444	916.81
776.626	853.32
776.808	906.57
776.99	867.66
777.173	935.24
777.355	820.55
777.537	818.5
777.719	834.89
777.901	834.89
778.083	867.66
778.265	795.98
778.447	800.07
778.629	773.45
778.811	759.11
778.993	783.69
779.175	830.79
779.357	789.83
779.539	785.74
779.721	789.83
779.903	812.36
780.085	650.57
780.267	773.45
780.449	785.74
780.631	722.25
780.812	763.21
780.994	662.86
781.176	718.15
781.358	726.35
781.54	646.48
781.721	687.43
781.903	660.81
782.085	701.77
782.267	669
782.448	611.66
782.63	689.48
782.812	722.25
782.993	611.66
783.175	615.76
783.357	650.57
783.538	603.47
783.72	572.75
783.901	587.08
784.083	578.89
784.264	632.14
784.446	611.66
784.627	560.46
784.809	613.71
784.99	621.9
785.172	650.57
785.353	601.42
785.535	626
785.716	597.32
785.897	546.12
786.079	591.18
786.26	568.65
786.441	566.6
786.623	509.26
786.804	550.22
786.985	460.11
787.167	542.03
787.348	468.3
787.529	544.08
787.71	595.28
787.891	525.65
788.073	437.58
788.254	451.92
788.435	515.41
788.616	496.97
788.797	445.77
788.978	525.65
789.159	451.92
789.34	464.21
789.522	480.59
789.703	505.17
789.884	433.49
790.065	429.39
790.246	542.03
790.427	521.55
790.607	542.03
790.788	431.44
790.969	410.96
791.15	394.58
791.331	402.77
791.512	374.1
791.693	468.3
791.874	415.06
792.054	462.16
792.235	425.29
792.416	456.01
792.597	314.7
792.778	445.77
792.958	402.77
793.139	390.48
793.32	421.2
793.5	400.72
793.681	499.02
793.862	345.42
794.042	429.39
794.223	361.81
794.404	384.34
794.584	345.42
794.765	413.01
794.945	339.28
795.126	386.38
795.306	345.42
795.487	367.95
795.667	351.57
795.848	359.76
796.028	329.04
796.209	458.06
796.389	408.91
796.57	382.29
796.75	410.96
796.93	419.15
797.111	238.93
797.291	343.38
797.471	367.95
797.652	415.06
797.832	279.89
798.012	310.61
798.192	310.61
798.373	269.65
798.553	298.32
798.733	288.08
798.913	355.66
799.093	296.27
799.274	308.56
799.454	273.75
799.634	279.89
799.814	359.76
799.994	335.18
800.174	322.9
800.354	322.9
800.534	292.18
800.714	329.04
800.894	298.32
801.074	300.37
801.254	216.4
801.434	326.99
801.614	263.51
801.794	226.64
801.974	980.29
802.154	243.03
802.334	314.7
802.514	273.75
802.693	238.93
802.873	279.89
803.053	261.46
803.233	228.69
803.413	283.99
803.592	286.03
803.772	267.6
803.952	279.89
804.131	247.12
804.311	324.94
804.491	236.88
804.67	179.54
804.85	288.08
805.03	245.07
805.209	286.03
805.389	224.59
805.568	234.83
805.748	220.5
805.928	206.16
806.107	247.12
806.287	283.99
806.466	259.41
806.646	216.4
806.825	257.36
807.004	195.92
807.184	263.51
807.363	261.46
807.543	173.39
807.722	228.69
807.901	273.75
808.081	138.58
808.26	210.26
808.439	210.26
808.619	251.22
808.798	273.75
808.977	191.83
809.156	318.8
809.336	202.07
809.515	255.31
809.694	197.97
809.873	253.27
810.052	230.74
810.231	253.27
810.411	294.22
810.59	253.27
810.769	230.74
810.948	255.31
811.127	134.48
811.306	228.69
811.485	230.74
811.664	304.46
811.843	175.44
812.022	257.36
812.201	169.3
812.38	175.44
812.559	140.63
812.737	212.31
812.916	187.73
813.095	142.68
813.274	185.68
813.453	253.27
813.632	206.16
813.811	245.07
813.989	187.73
814.168	200.02
814.347	187.73
814.526	183.63
814.704	226.64
814.883	224.59
815.062	197.97
815.24	165.2
815.419	52.56
815.598	142.68
815.776	109.91
815.955	193.87
816.133	159.06
816.312	236.88
816.49	136.53
816.669	163.15
816.847	132.44
817.026	220.5
817.204	204.11
817.383	226.64
817.561	157.01
817.74	212.31
817.918	183.63
818.097	193.87
818.275	163.15
818.453	163.15
818.632	148.82
818.81	220.5
818.988	232.79
819.167	107.86
819.345	107.86
819.523	101.72
819.701	208.21
819.879	177.49
820.058	126.29
820.236	159.06
820.414	157.01
820.592	161.11
820.77	154.96
820.948	116.05
821.127	152.92
821.305	183.63
821.483	73.04
821.661	167.25
821.839	140.63
822.017	32.08
822.195	181.59
822.373	142.68
822.551	83.28
822.729	185.68
822.907	128.34
823.085	175.44
823.262	222.55
823.44	175.44
823.618	85.33
823.796	161.11
823.974	134.48
824.152	179.54
824.329	111.96
824.507	134.48
824.685	130.39
824.863	206.16
825.04	89.43
825.218	169.3
825.396	128.34
825.574	130.39
825.751	116.05
825.929	107.86
826.107	50.52
826.284	124.24
826.462	68.95
826.639	105.81
826.817	109.91
826.994	122.2
827.172	44.37
827.349	148.82
827.527	114
827.704	126.29
827.882	140.63
828.059	146.77
828.237	97.62
828.414	64.85
828.591	114
828.769	136.53
828.946	120.15
829.124	146.77
829.301	130.39
829.478	85.33
829.655	97.62
829.833	60.76
830.01	34.13
830.187	107.86
830.364	109.91
830.542	83.28
830.719	120.15
830.896	85.33
831.073	116.05
831.25	126.29
831.427	124.24
831.604	167.25
831.782	54.61
831.959	87.38
832.136	60.76
832.313	114
832.49	130.39
832.667	99.67
832.844	32.08
833.021	144.72
833.198	81.24
833.374	126.29
833.551	71
833.728	101.72
833.905	75.09
834.082	120.15
834.259	91.48
834.436	159.06
834.612	87.38
834.789	77.14
834.966	64.85
835.143	99.67
835.319	73.04
835.496	120.15
835.673	46.42
835.85	142.68
836.026	71
836.203	83.28
836.38	111.96
836.556	36.18
836.733	52.56
836.909	152.92
837.086	105.81
837.262	83.28
837.439	89.43
837.616	91.48
837.792	114
837.968	89.43
838.145	118.1
838.321	48.47
838.498	95.57
838.674	109.91
838.851	54.61
839.027	93.52
839.203	114
839.38	46.42
839.556	85.33
839.732	126.29
839.909	85.33
840.085	159.06
840.261	52.56
840.437	111.96
840.614	68.95
840.79	73.04
840.966	66.9
841.142	93.52
841.318	27.99
841.494	81.24
841.671	81.24
841.847	64.85
842.023	-4.78
842.199	68.95
842.375	107.86
842.551	-133.8
842.727	58.71
842.903	75.09
843.079	52.56
843.255	120.15
843.431	87.38
843.607	64.85
843.783	-23.21
843.959	101.72
844.134	109.91
844.31	109.91
844.486	17.75
844.662	-12.97
844.838	73.04
845.013	83.28
845.189	103.76
845.365	87.38
845.541	71
845.716	44.37
845.892	107.86
846.068	27.99
846.244	5.46
846.419	23.89
846.595	42.32
846.77	11.61
846.946	85.33
847.122	34.13
847.297	40.28
847.473	87.38
847.648	46.42
847.824	85.33
847.999	71
848.175	99.67
848.35	91.48
848.526	130.39
848.701	81.24
848.876	54.61
849.052	111.96
849.227	19.8
849.403	71
849.578	58.71
849.753	25.94
849.929	11.61
850.104	34.13
850.279	85.33
850.454	15.7
850.63	32.08
850.805	87.38
850.98	19.8
851.155	17.75
851.33	23.89
851.505	73.04
851.681	64.85
851.856	17.75
852.031	38.23
852.206	101.72
852.381	30.04
852.556	68.95
852.731	-0.68
852.906	1.37
853.081	89.43
853.256	81.24
853.431	3.41
853.606	50.52
853.781	13.65
853.956	-10.92
854.131	111.96
854.305	-31.4
854.48	42.32
854.655	91.48
854.83	-35.5
855.005	85.33
855.18	56.66
855.354	50.52
855.529	3.41
855.704	36.18
855.879	107.86
856.053	97.62
856.228	97.62
856.403	1.37
856.577	83.28
856.752	15.7
856.926	40.28
857.101	-12.97
857.276	11.61
857.45	-4.78
857.625	93.52
857.799	40.28
857.974	5.46
858.148	5.46
858.323	46.42
858.497	56.66
858.672	40.28
858.846	54.61
859.02	42.32
859.195	-45.74
859.369	-29.35
859.543	-17.07
859.718	11.61
859.892	48.47
860.066	-23.21
860.241	-31.4
860.415	13.65
860.589	11.61
860.763	58.71
860.938	9.56
861.112	15.7
861.286	15.7
861.46	-4.78
861.634	-2.73
861.808	17.75
861.982	77.14
862.157	-33.45
862.331	46.42
862.505	-53.93
862.679	32.08
862.853	30.04
863.027	7.51
863.201	134.48
863.375	58.71
863.549	58.71
863.722	62.8
863.896	142.68
864.07	36.18
864.244	-53.93
864.418	54.61
864.592	13.65
864.766	-23.21
864.939	23.89
865.113	40.28
865.287	34.13
865.461	-4.78
865.634	56.66
865.808	73.04
865.982	27.99
866.156	-51.88
866.329	-19.11
866.503	-19.11
866.676	30.04
866.85	13.65
867.024	-2.73
867.197	19.8
867.371	15.7
867.544	81.24
867.718	-31.4
867.891	34.13
868.065	-35.5
868.238	-37.55
868.412	38.23
868.585	32.08
868.759	36.18
868.932	-4.78
869.105	34.13
869.279	60.76
869.452	-21.16
869.625	66.9
869.799	36.18
869.972	-10.92
870.145	-23.21
870.319	-6.83
870.492	60.76
870.665	-10.92
870.838	40.28
871.011	46.42
871.185	46.42
871.358	48.47
871.531	38.23
871.704	30.04
871.877	5.46
872.05	-55.98
872.223	32.08
872.396	-12.97
872.569	25.94
872.742	13.65
872.915	-0.68
873.088	21.85
873.261	-43.69
873.434	27.99
873.607	11.61
873.78	25.94
873.953	-15.02
874.126	44.37
874.299	17.75
874.471	89.43
874.644	-21.16
874.817	27.99
874.99	87.38
875.163	1.37
875.335	-29.35
875.508	64.85
875.681	32.08
875.853	21.85
876.026	40.28
876.199	15.7
876.371	-2.73
876.544	27.99
876.717	40.28
876.889	-15.02
877.062	-10.92
877.234	13.65
877.407	-82.6
877.579	42.32
877.752	50.52
877.924	64.85
878.097	19.8
878.269	21.85
878.442	13.65
878.614	62.8
878.786	-60.07
878.959	-25.26
879.131	-21.16
879.303	-39.59
879.476	-4.78
879.648	52.56
879.82	-6.83
879.993	25.94
880.165	-43.69
880.337	1.37
880.509	7.51
880.681	-15.02
880.854	50.52
881.026	36.18
881.198	101.72
881.37	25.94
881.542	11.61
881.714	-0.68
881.886	-64.17
882.058	32.08
882.23	38.23
882.402	68.95
882.574	1.37
882.746	-25.26
882.918	23.89
883.09	107.86
883.262	17.75
883.434	1.37
883.606	-2.73
883.778	42.32
883.95	-21.16
884.122	-53.93
884.293	-55.98
884.465	9.56
884.637	99.67
884.809	-12.97
884.98	46.42
885.152	30.04
885.324	-41.64
885.496	-12.97
885.667	21.85
885.839	-41.64
886.011	118.1
886.182	-23.21
886.354	1.37
886.525	21.85
886.697	36.18
886.869	-0.68
887.04	25.94
887.212	32.08
887.383	77.14
887.555	-43.69
887.726	21.85
887.897	34.13
888.069	44.37
888.24	91.48
888.412	40.28
888.583	23.89
888.754	32.08
888.926	-53.93
889.097	38.23
889.268	-15.02
889.44	27.99
889.611	-133.8
889.782	11.61
889.953	-8.87
890.125	58.71
890.296	1.37
890.467	5.46
890.638	17.75
890.809	-2.73
890.98	7.51
891.151	54.61
891.323	68.95
891.494	7.51
891.665	-29.35
891.836	-21.16
892.007	17.75
892.178	-2.73
892.349	-12.97
892.52	-62.12
892.691	-17.07
892.862	15.7
893.032	50.52
893.203	95.57
893.374	103.76
893.545	79.19
893.716	-19.11
893.887	-4.78
894.057	-43.69
894.228	68.95
894.399	-27.31
894.57	25.94
894.74	-27.31
894.911	-0.68
895.082	-23.21
895.253	-29.35
895.423	-4.78
895.594	38.23
895.764	52.56
895.935	7.51
896.106	-19.11
896.276	-25.26
896.447	52.56
896.617	27.99
896.788	-17.07
896.958	21.85
897.129	-43.69
897.299	-84.65
897.47	-0.68
897.64	-33.45
897.81	-41.64
897.981	68.95
898.151	-10.92
898.322	-2.73
898.492	-2.73
898.662	-12.97
898.832	-4.78
899.003	7.51
899.173	56.66
899.343	-25.26
899.513	-10.92
