Data from USB4F104151__22__12-41-07-586.txt Node

Date: Fri Mar 14 12:41:07 EDT 2025
User: louis
Spectrometer: USB4F10415
Trigger mode: 4
Integration Time (sec): 3.000000E-2
Scans to average: 1
Electric dark correction enabled: true
Nonlinearity correction enabled: false
Boxcar width: 0
XAxis mode: Wavelengths
Number of Pixels in Spectrum: 3648
>>>>>Begin Spectral Data<<<<<
178.204	-85.33
178.424	-85.33
178.644	-85.33
178.864	-132.44
179.084	-128.34
179.304	27.31
179.524	-40.28
179.744	-95.57
179.964	51.88
180.184	-11.61
180.404	62.12
180.624	-5.46
180.844	-3.41
181.064	-77.14
181.283	53.93
181.503	-9.56
181.723	47.79
181.943	-38.23
182.163	109.23
182.383	72.36
182.602	51.88
182.822	17.07
183.042	55.98
183.262	-7.51
183.482	-27.99
183.701	-27.99
183.921	-13.65
184.141	-19.8
184.361	68.27
184.58	39.59
184.8	-36.18
185.02	35.5
185.239	64.17
185.459	0.68
185.679	19.11
185.898	-19.8
186.118	76.46
186.338	12.97
186.557	35.5
186.777	41.64
186.997	45.74
187.216	29.35
187.436	8.87
187.655	21.16
187.875	-25.94
188.095	21.16
188.314	21.16
188.534	51.88
188.753	25.26
188.973	25.26
189.192	68.27
189.412	68.27
189.631	78.51
189.851	6.83
190.07	27.31
190.29	-71
190.509	-17.75
190.729	-58.71
190.948	33.45
191.168	109.23
191.387	96.94
191.607	-44.37
191.826	17.07
192.045	21.16
192.265	-5.46
192.484	4.78
192.704	17.07
192.923	27.31
193.142	92.84
193.362	-7.51
193.581	55.98
193.8	64.17
194.02	94.89
194.239	39.59
194.458	23.21
194.678	-1.37
194.897	-17.75
195.116	51.88
195.335	-5.46
195.555	-7.51
195.774	-17.75
195.993	-3.41
196.212	-9.56
196.432	-79.19
196.651	47.79
196.87	-5.46
197.089	80.55
197.308	88.75
197.528	82.6
197.747	6.83
197.966	-13.65
198.185	51.88
198.404	-32.08
198.623	21.16
198.842	80.55
199.062	-1.37
199.281	84.65
199.5	-3.41
199.719	55.98
199.938	109.23
200.157	51.88
200.376	-1.37
200.595	90.79
200.814	-46.42
201.033	23.21
201.252	21.16
201.471	-34.13
201.69	41.64
201.909	86.7
202.128	35.5
202.347	60.07
202.566	27.31
202.785	6.83
203.004	-40.28
203.223	8.87
203.442	39.59
203.661	-1.37
203.879	-62.8
204.098	78.51
204.317	-11.61
204.536	74.41
204.755	-11.61
204.974	-5.46
205.193	-11.61
205.411	4.78
205.63	41.64
205.849	68.27
206.068	45.74
206.287	-32.08
206.505	31.4
206.724	51.88
206.943	31.4
207.162	8.87
207.381	-27.99
207.599	-34.13
207.818	64.17
208.037	94.89
208.255	-11.61
208.474	-36.18
208.693	4.78
208.911	25.26
209.13	-1.37
209.349	6.83
209.567	33.45
209.786	60.07
210.005	-50.52
210.223	-36.18
210.442	-44.37
210.661	68.27
210.879	-23.89
211.098	-30.04
211.316	76.46
211.535	121.51
211.753	2.73
211.972	12.97
212.191	-40.28
212.409	12.97
212.628	31.4
212.846	8.87
213.065	2.73
213.283	-1.37
213.502	29.35
213.72	43.69
213.938	2.73
214.157	109.23
214.375	-19.8
214.594	33.45
214.812	2.73
215.031	76.46
215.249	25.26
215.467	31.4
215.686	17.07
215.904	127.66
216.122	29.35
216.341	21.16
216.559	8.87
216.778	78.51
216.996	33.45
217.214	-23.89
217.432	27.31
217.651	-30.04
217.869	60.07
218.087	68.27
218.306	-11.61
218.524	31.4
218.742	-17.75
218.96	-5.46
219.179	-38.23
219.397	45.74
219.615	80.55
219.833	31.4
220.051	-17.75
220.27	123.56
220.488	53.93
220.706	27.31
220.924	-85.33
221.142	-34.13
221.36	33.45
221.578	-36.18
221.796	33.45
222.015	-50.52
222.233	-32.08
222.451	90.79
222.669	-21.84
222.887	55.98
223.105	-21.84
223.323	45.74
223.541	-54.61
223.759	80.55
223.977	2.73
224.195	80.55
224.413	35.5
224.631	45.74
224.849	-5.46
225.067	187.05
225.285	-38.23
225.503	-13.65
225.721	-87.38
225.939	55.98
226.157	21.16
226.375	74.41
226.592	-23.89
226.81	47.79
227.028	4.78
227.246	37.55
227.464	49.83
227.682	-25.94
227.9	-1.37
228.117	17.07
228.335	-19.8
228.553	25.26
228.771	64.17
228.989	-23.89
229.206	51.88
229.424	6.83
229.642	-3.41
229.86	8.87
230.077	-27.99
230.295	-46.42
230.513	60.07
230.731	33.45
230.948	39.59
231.166	98.99
231.384	8.87
231.601	-17.75
231.819	74.41
232.037	-62.8
232.254	-3.41
232.472	6.83
232.689	2.73
232.907	-1.37
233.125	-48.47
233.342	66.22
233.56	4.78
233.777	-32.08
233.995	96.94
234.213	10.92
234.43	41.64
234.648	-3.41
234.865	2.73
235.083	72.36
235.3	-17.75
235.518	66.22
235.735	105.13
235.953	-27.99
236.17	4.78
236.388	45.74
236.605	39.59
236.822	64.17
237.04	94.89
237.257	-15.7
237.475	39.59
237.692	72.36
237.909	33.45
238.127	31.4
238.344	33.45
238.562	27.31
238.779	-25.94
238.996	72.36
239.214	27.31
239.431	51.88
239.648	31.4
239.865	55.98
240.083	47.79
240.3	-32.08
240.517	-38.23
240.735	6.83
240.952	62.12
241.169	45.74
241.386	17.07
241.603	-7.51
241.821	-19.8
242.038	76.46
242.255	80.55
242.472	-32.08
242.689	78.51
242.907	39.59
243.124	-3.41
243.341	39.59
243.558	0.68
243.775	-46.42
243.992	-32.08
244.209	72.36
244.426	39.59
244.643	60.07
244.86	-32.08
245.078	-11.61
245.295	-36.18
245.512	45.74
245.729	-13.65
245.946	39.59
246.163	-5.46
246.38	31.4
246.597	47.79
246.814	29.35
247.031	23.21
247.248	19.11
247.464	19.11
247.681	-30.04
247.898	29.35
248.115	45.74
248.332	68.27
248.549	64.17
248.766	80.55
248.983	10.92
249.2	92.84
249.417	-13.65
249.633	8.87
249.85	-52.56
250.067	-44.37
250.284	29.35
250.501	43.69
250.717	76.46
250.934	70.31
251.151	49.83
251.368	10.92
251.585	19.11
251.801	27.31
252.018	31.4
252.235	64.17
252.451	10.92
252.668	12.97
252.885	64.17
253.102	49.83
253.318	6.83
253.535	17.07
253.752	39.59
253.968	8.87
254.185	27.31
254.401	10.92
254.618	68.27
254.835	-7.51
255.051	72.36
255.268	70.31
255.484	41.64
255.701	-15.7
255.917	15.02
256.134	-34.13
256.351	8.87
256.567	10.92
256.784	45.74
257	-19.8
257.217	23.21
257.433	55.98
257.65	17.07
257.866	-19.8
258.082	31.4
258.299	39.59
258.515	-25.94
258.732	31.4
258.948	-68.95
259.165	-19.8
259.381	-3.41
259.597	23.21
259.814	53.93
260.03	27.31
260.246	68.27
260.463	62.12
260.679	-7.51
260.895	-36.18
261.112	-13.65
261.328	23.21
261.544	10.92
261.761	129.7
261.977	45.74
262.193	-7.51
262.409	31.4
262.626	80.55
262.842	8.87
263.058	-34.13
263.274	55.98
263.49	25.26
263.707	29.35
263.923	94.89
264.139	-23.89
264.355	-66.9
264.571	107.18
264.787	41.64
265.004	15.02
265.22	35.5
265.436	68.27
265.652	-15.7
265.868	70.31
266.084	-58.71
266.3	76.46
266.516	-19.8
266.732	23.21
266.948	72.36
267.164	25.26
267.38	90.79
267.596	64.17
267.812	51.88
268.028	41.64
268.244	-11.61
268.46	15.02
268.676	49.83
268.892	76.46
269.108	-27.99
269.324	41.64
269.54	27.31
269.756	64.17
269.972	41.64
270.188	-3.41
270.403	-13.65
270.619	-46.42
270.835	-13.65
271.051	70.31
271.267	-73.04
271.483	2.73
271.698	17.07
271.914	49.83
272.13	51.88
272.346	-89.43
272.562	15.02
272.777	0.68
272.993	-15.7
273.209	23.21
273.425	-1.37
273.64	2.73
273.856	-7.51
274.072	27.31
274.287	-34.13
274.503	8.87
274.719	25.26
274.934	39.59
275.15	-21.84
275.366	66.22
275.581	8.87
275.797	29.35
276.012	33.45
276.228	90.79
276.444	80.55
276.659	70.31
276.875	-25.94
277.09	8.87
277.306	39.59
277.521	39.59
277.737	4.78
277.952	25.26
278.168	35.5
278.383	51.88
278.599	45.74
278.814	43.69
279.03	33.45
279.245	51.88
279.461	23.21
279.676	43.69
279.892	-23.89
280.107	29.35
280.322	82.6
280.538	68.27
280.753	-9.56
280.969	72.36
281.184	15.02
281.399	80.55
281.615	-9.56
281.83	19.11
282.045	-27.99
282.26	-34.13
282.476	-3.41
282.691	33.45
282.906	47.79
283.122	-52.56
283.337	-58.71
283.552	72.36
283.767	-5.46
283.983	107.18
284.198	43.69
284.413	33.45
284.628	4.78
284.843	70.31
285.058	31.4
285.274	-7.51
285.489	74.41
285.704	21.16
285.919	-9.56
286.134	-19.8
286.349	-19.8
286.564	15.02
286.779	55.98
286.995	-17.75
287.21	53.93
287.425	74.41
287.64	-40.28
287.855	-23.89
288.07	-11.61
288.285	35.5
288.5	17.07
288.715	76.46
288.93	96.94
289.145	21.16
289.36	23.21
289.575	-48.47
289.79	45.74
290.004	33.45
290.219	19.11
290.434	15.02
290.649	45.74
290.864	-25.94
291.079	51.88
291.294	135.85
291.509	43.69
291.724	39.59
291.938	29.35
292.153	-1.37
292.368	37.55
292.583	51.88
292.798	21.16
293.012	64.17
293.227	58.03
293.442	31.4
293.657	98.99
293.871	90.79
294.086	-1.37
294.301	96.94
294.516	66.22
294.73	55.98
294.945	-48.47
295.16	80.55
295.374	-52.56
295.589	70.31
295.804	-3.41
296.018	51.88
296.233	68.27
296.447	-5.46
296.662	-23.89
296.877	53.93
297.091	37.55
297.306	49.83
297.52	51.88
297.735	51.88
297.949	84.65
298.164	15.02
298.378	70.31
298.593	-5.46
298.807	-21.84
299.022	33.45
299.236	80.55
299.451	-38.23
299.665	33.45
299.88	58.03
300.094	53.93
300.309	4.78
300.523	17.07
300.737	-21.84
300.952	10.92
301.166	27.31
301.381	27.31
301.595	-52.56
301.809	45.74
302.024	8.87
302.238	41.64
302.452	43.69
302.667	49.83
302.881	78.51
303.095	17.07
303.309	21.16
303.524	27.31
303.738	-23.89
303.952	47.79
304.166	72.36
304.381	12.97
304.595	31.4
304.809	17.07
305.023	45.74
305.237	72.36
305.452	25.26
305.666	17.07
305.88	-1.37
306.094	60.07
306.308	60.07
306.522	70.31
306.736	27.31
306.95	51.88
307.164	49.83
307.379	58.03
307.593	86.7
307.807	33.45
308.021	33.45
308.235	84.65
308.449	12.97
308.663	12.97
308.877	60.07
309.091	8.87
309.305	80.55
309.519	-40.28
309.733	51.88
309.947	-52.56
310.161	90.79
310.374	39.59
310.588	2.73
310.802	-5.46
311.016	58.03
311.23	-27.99
311.444	39.59
311.658	37.55
311.872	101.03
312.085	78.51
312.299	58.03
312.513	35.5
312.727	39.59
312.941	-25.94
313.154	21.16
313.368	58.03
313.582	33.45
313.796	41.64
314.009	51.88
314.223	51.88
314.437	-5.46
314.651	-7.51
314.864	21.16
315.078	12.97
315.292	-27.99
315.505	47.79
315.719	72.36
315.933	-11.61
316.146	62.12
316.36	4.78
316.573	55.98
316.787	2.73
317.001	-1.37
317.214	-32.08
317.428	51.88
317.641	68.27
317.855	72.36
318.068	25.26
318.282	68.27
318.495	15.02
318.709	33.45
318.922	119.46
319.136	88.75
319.349	58.03
319.563	10.92
319.776	78.51
319.99	23.21
320.203	33.45
320.417	-7.51
320.63	55.98
320.843	148.14
321.057	-48.47
321.27	-25.94
321.483	-7.51
321.697	68.27
321.91	31.4
322.124	10.92
322.337	27.31
322.55	-21.84
322.763	123.56
322.977	-19.8
323.19	107.18
323.403	58.03
323.617	131.75
323.83	15.02
324.043	31.4
324.256	17.07
324.469	39.59
324.683	-11.61
324.896	4.78
325.109	-17.75
325.322	-3.41
325.535	47.79
325.748	92.84
325.962	68.27
326.175	-40.28
326.388	6.83
326.601	0.68
326.814	29.35
327.027	6.83
327.24	105.13
327.453	-7.51
327.666	41.64
327.879	58.03
328.092	37.55
328.305	15.02
328.518	-25.94
328.731	37.55
328.944	39.59
329.157	82.6
329.37	49.83
329.583	35.5
329.796	76.46
330.009	-30.04
330.222	64.17
330.435	43.69
330.648	33.45
330.861	12.97
331.073	-1.37
331.286	94.89
331.499	21.16
331.712	25.26
331.925	19.11
332.138	53.93
332.35	78.51
332.563	68.27
332.776	0.68
332.989	-25.94
333.202	-3.41
333.414	107.18
333.627	27.31
333.84	-7.51
334.053	-3.41
334.265	-9.56
334.478	51.88
334.691	-11.61
334.903	86.7
335.116	19.11
335.329	15.02
335.541	72.36
335.754	88.75
335.966	58.03
336.179	-15.7
336.392	-17.75
336.604	-19.8
336.817	23.21
337.029	64.17
337.242	-17.75
337.454	43.69
337.667	19.11
337.88	152.23
338.092	23.21
338.305	78.51
338.517	33.45
338.729	64.17
338.942	33.45
339.154	-40.28
339.367	-32.08
339.579	98.99
339.792	-19.8
340.004	64.17
340.217	35.5
340.429	6.83
340.641	0.68
340.854	21.16
341.066	47.79
341.278	-13.65
341.491	-46.42
341.703	53.93
341.915	0.68
342.128	23.21
342.34	66.22
342.552	-23.89
342.764	49.83
342.977	29.35
343.189	19.11
343.401	58.03
343.613	-7.51
343.826	109.23
344.038	21.16
344.25	66.22
344.462	-27.99
344.674	-32.08
344.886	8.87
345.099	96.94
345.311	86.7
345.523	-36.18
345.735	-40.28
345.947	17.07
346.159	80.55
346.371	45.74
346.583	-23.89
346.795	39.59
347.007	15.02
347.219	60.07
347.431	12.97
347.643	43.69
347.855	-1.37
348.067	72.36
348.279	-11.61
348.491	-32.08
348.703	21.16
348.915	41.64
349.127	62.12
349.339	68.27
349.551	29.35
349.763	43.69
349.975	17.07
350.187	47.79
350.399	92.84
350.61	51.88
350.822	101.03
351.034	39.59
351.246	21.16
351.458	58.03
351.669	58.03
351.881	94.89
352.093	92.84
352.305	51.88
352.517	-17.75
352.728	74.41
352.94	82.6
353.152	66.22
353.363	-42.32
353.575	35.5
353.787	53.93
353.999	68.27
354.21	119.46
354.422	-38.23
354.633	64.17
354.845	-9.56
355.057	74.41
355.268	47.79
355.48	51.88
355.692	68.27
355.903	70.31
356.115	-36.18
356.326	25.26
356.538	45.74
356.749	43.69
356.961	37.55
357.172	21.16
357.384	15.02
357.595	80.55
357.807	43.69
358.018	17.07
358.23	70.31
358.441	139.94
358.653	70.31
358.864	92.84
359.075	68.27
359.287	76.46
359.498	33.45
359.709	80.55
359.921	10.92
360.132	43.69
360.344	41.64
360.555	-34.13
360.766	17.07
360.977	-11.61
361.189	55.98
361.4	33.45
361.611	117.42
361.823	66.22
362.034	-32.08
362.245	12.97
362.456	70.31
362.667	-11.61
362.879	51.88
363.09	12.97
363.301	72.36
363.512	74.41
363.723	21.16
363.935	-25.94
364.146	64.17
364.357	-1.37
364.568	43.69
364.779	-68.95
364.99	101.03
365.201	62.12
365.412	29.35
365.623	-3.41
365.834	72.36
366.045	51.88
366.256	-1.37
366.467	55.98
366.678	70.31
366.889	4.78
367.1	60.07
367.311	74.41
367.522	8.87
367.733	70.31
367.944	68.27
368.155	53.93
368.366	35.5
368.577	98.99
368.788	94.89
368.999	53.93
369.209	-32.08
369.42	150.18
369.631	115.37
369.842	90.79
370.053	31.4
370.264	72.36
370.474	-23.89
370.685	78.51
370.896	19.11
371.107	-15.7
371.317	49.83
371.528	27.31
371.739	84.65
371.95	78.51
372.16	66.22
372.371	-34.13
372.582	10.92
372.792	39.59
373.003	51.88
373.214	21.16
373.424	66.22
373.635	66.22
373.846	88.75
374.056	37.55
374.267	76.46
374.477	10.92
374.688	90.79
374.898	39.59
375.109	64.17
375.319	-15.7
375.53	94.89
375.74	35.5
375.951	121.51
376.161	80.55
376.372	41.64
376.582	33.45
376.793	101.03
377.003	2.73
377.214	-15.7
377.424	4.78
377.635	86.7
377.845	66.22
378.055	60.07
378.266	35.5
378.476	12.97
378.686	23.21
378.897	58.03
379.107	80.55
379.317	70.31
379.528	60.07
379.738	90.79
379.948	55.98
380.158	68.27
380.369	-38.23
380.579	82.6
380.789	58.03
380.999	12.97
381.21	80.55
381.42	51.88
381.63	49.83
381.84	80.55
382.05	103.08
382.261	23.21
382.471	-13.65
382.681	94.89
382.891	19.11
383.101	146.09
383.311	6.83
383.521	43.69
383.731	12.97
383.941	55.98
384.151	41.64
384.361	109.23
384.571	109.23
384.781	-5.46
384.991	88.75
385.201	96.94
385.411	90.79
385.621	78.51
385.831	55.98
386.041	27.31
386.251	92.84
386.461	101.03
386.671	51.88
386.881	82.6
387.091	58.03
387.301	-56.66
387.511	53.93
387.72	88.75
387.93	88.75
388.14	-1.37
388.35	-13.65
388.56	117.42
388.769	19.11
388.979	86.7
389.189	51.88
389.399	17.07
389.609	33.45
389.818	37.55
390.028	43.69
390.238	47.79
390.447	68.27
390.657	84.65
390.867	58.03
391.076	92.84
391.286	74.41
391.496	148.14
391.705	21.16
391.915	45.74
392.125	107.18
392.334	82.6
392.544	55.98
392.753	64.17
392.963	90.79
393.172	55.98
393.382	45.74
393.591	154.28
393.801	86.7
394.01	96.94
394.22	17.07
394.429	96.94
394.639	137.9
394.848	139.94
395.058	88.75
395.267	2.73
395.477	109.23
395.686	25.26
395.895	94.89
396.105	164.52
396.314	78.51
396.524	17.07
396.733	68.27
396.942	90.79
397.152	90.79
397.361	25.26
397.57	82.6
397.78	82.6
397.989	80.55
398.198	148.14
398.407	19.11
398.617	86.7
398.826	117.42
399.035	123.56
399.244	66.22
399.453	113.32
399.663	92.84
399.872	141.99
400.081	39.59
400.29	137.9
400.499	80.55
400.708	178.86
400.917	37.55
401.127	162.47
401.336	105.13
401.545	121.51
401.754	98.99
401.963	55.98
402.172	139.94
402.381	33.45
402.59	10.92
402.799	141.99
403.008	150.18
403.217	98.99
403.426	131.75
403.635	139.94
403.844	68.27
404.053	232.1
404.262	152.23
404.471	119.46
404.68	92.84
404.888	189.1
405.097	152.23
405.306	139.94
405.515	166.57
405.724	117.42
405.933	279.21
406.142	248.49
406.35	301.73
406.559	213.67
406.768	146.09
406.977	234.15
407.185	240.3
407.394	172.71
407.603	137.9
407.812	166.57
408.02	285.35
408.229	182.95
408.438	144.04
408.646	221.86
408.855	228.01
409.064	258.73
409.272	297.64
409.481	266.92
409.69	357.03
409.898	258.73
410.107	289.45
410.315	412.32
410.524	330.41
410.733	420.52
410.941	354.98
411.15	414.37
411.358	432.8
411.567	467.62
411.775	314.02
411.984	438.95
412.192	434.85
412.401	514.72
412.609	572.07
412.818	541.35
413.026	500.39
413.234	541.35
413.443	545.44
413.651	541.35
413.86	696.99
414.068	635.55
414.276	645.79
414.485	664.22
414.693	699.04
414.901	791.2
415.11	826.01
415.318	727.71
415.526	772.77
415.734	780.96
415.943	858.78
416.151	883.36
416.359	881.31
416.567	946.84
416.776	975.52
416.984	1043.1
417.192	1010.33
417.4	1014.43
417.608	1141.4
417.817	1102.49
418.025	1288.86
418.233	1313.43
418.441	1174.17
418.649	1305.24
418.857	1256.09
419.065	1419.92
419.273	1438.36
419.481	1407.64
419.689	1495.7
419.897	1573.52
420.105	1657.49
420.313	1542.8
420.521	1804.94
420.729	1700.5
420.937	1964.68
421.145	1833.61
421.353	2003.6
421.561	2071.18
421.769	2157.19
421.977	2204.3
422.185	2194.06
422.393	2359.94
422.601	2552.45
422.809	2462.34
423.017	2650.75
423.224	2560.64
423.432	2763.39
423.64	2751.1
423.848	2947.71
424.056	2912.89
424.263	3066.49
424.471	3168.89
424.679	3129.98
424.887	3213.95
425.094	3433.08
425.302	3547.76
425.51	3621.49
425.718	3871.34
425.925	3842.67
426.133	3842.67
426.341	4061.8
426.548	4213.35
426.756	4299.37
426.964	4428.39
427.171	4448.87
427.379	4577.89
427.586	4735.59
427.794	4962.91
428.001	5030.49
428.209	5298.78
428.417	5300.83
428.624	5640.79
428.832	5597.78
429.039	5694.04
429.247	5679.7
429.454	6025.81
429.662	6609.48
429.869	6013.52
430.076	6761.03
430.284	6361.67
430.491	6740.55
430.699	7113.28
430.906	7148.09
431.114	7168.57
431.321	7481.91
431.528	7649.85
431.736	7957.04
431.943	8333.87
432.15	8049.2
432.358	8350.25
432.565	8790.56
432.772	8571.43
432.979	9194.01
433.187	9402.91
433.394	9368.09
433.601	9865.75
433.808	10187.28
434.016	10000.91
434.223	10439.18
434.43	11209.22
434.637	10578.44
434.844	11377.15
435.052	11737.59
435.259	11446.78
435.466	11567.61
435.673	11839.99
435.88	12607.98
436.087	13042.15
436.294	12765.67
436.501	12567.02
436.708	12943.85
436.915	13228.51
437.122	13947.35
437.329	13935.06
437.537	14385.62
437.743	14672.33
437.95	14539.21
438.157	15366.59
438.364	15944.12
438.571	15831.48
438.778	15882.68
438.985	17435.04
439.192	16884.14
439.399	17041.83
439.606	16974.25
439.813	18135.45
440.02	18979.21
440.227	18641.29
440.433	18313.62
440.64	18940.3
440.847	19122.57
441.054	19364.23
441.261	20648.3
441.467	20447.6
441.674	20875.63
441.881	21399.91
442.088	21707.1
442.294	21412.2
442.501	22141.27
442.708	22329.69
442.914	23447.88
443.121	24269.11
443.328	23320.9
443.534	25278.76
443.741	24475.96
443.948	24361.27
444.154	25876.77
444.361	26128.67
444.568	25942.3
444.774	25960.73
444.981	26153.24
445.187	27220.24
445.394	28371.19
445.6	27734.28
445.807	30744.79
446.013	29157.61
446.22	29944.03
446.426	31172.81
446.633	31123.66
446.839	32215.23
447.046	30847.19
447.252	32733.37
447.459	32692.41
447.665	32409.79
447.871	33704.1
448.078	35307.66
448.284	34044.07
448.491	34670.75
448.697	35850.38
448.903	36743.29
449.11	36618.36
449.316	36196.48
449.522	36987
449.728	37726.31
449.935	38068.33
450.141	38461.54
450.347	38596.7
450.553	38043.75
450.76	38156.39
450.966	39628.88
451.172	38940.76
451.378	40323.14
451.584	38907.99
451.791	39901.26
451.997	39807.05
452.203	41031.74
452.409	40425.54
452.615	40374.34
452.821	39239.76
453.027	38668.38
453.233	40577.09
453.44	39123.03
453.646	39866.44
453.852	39852.11
454.058	40247.36
454.264	39073.88
454.47	40216.64
454.676	39061.59
454.882	40329.28
455.088	36857.98
455.294	37466.22
455.5	37949.54
455.705	38291.55
455.911	36810.87
456.117	36028.55
456.323	35827.85
456.529	33824.93
456.735	35455.12
456.941	34437.28
457.147	33894.57
457.352	32864.44
457.558	32485.56
457.764	32250.05
457.97	31834.31
458.176	31307.98
458.381	31305.93
458.587	29698.28
458.793	29655.27
458.999	27957.5
459.204	30249.18
459.41	29069.55
459.616	27552.01
459.821	27738.37
460.027	27533.57
460.233	26794.26
460.438	25545
460.644	25895.2
460.85	24525.11
461.055	23826.75
461.261	24275.26
461.466	22278.49
461.672	21721.44
461.878	22939.98
462.083	21782.88
462.289	21172.58
462.494	21018.99
462.7	20128.12
462.905	19478.91
463.111	20197.75
463.316	20386.16
463.522	19790.2
463.727	20144.5
463.932	19960.19
464.138	19741.05
464.343	19831.16
464.549	18925.96
464.754	19886.46
464.959	19667.33
465.165	19718.53
465.37	18637.2
465.575	18012.57
465.781	18958.73
465.986	19081.61
466.191	18530.7
466.397	17842.59
466.602	17254.82
466.807	18076.05
467.012	17611.17
467.218	17748.38
467.423	17779.1
467.628	17693.08
467.833	18289.04
468.038	17629.6
468.244	17265.06
468.449	17793.44
468.654	17226.15
468.859	16998.82
469.064	16943.53
469.269	16423.34
469.474	16558.51
469.679	16910.76
469.885	16357.81
470.09	16501.17
470.295	16347.57
470.5	16159.16
470.705	16296.37
470.91	15720.89
471.115	15571.39
471.32	16067
471.525	15763.9
471.73	15507.9
471.935	15434.18
472.139	14711.24
472.344	14727.63
472.549	15067.59
472.754	14629.32
472.959	14346.7
473.164	14186.96
473.369	13840.86
473.574	14430.67
473.778	14168.53
473.983	14148.05
474.188	13953.49
474.393	13564.38
474.598	13605.34
474.802	13429.21
475.007	13138.4
475.212	13455.84
475.417	12972.52
475.621	12909.03
475.826	12814.82
476.031	12579.31
476.235	12292.59
476.44	12714.47
476.645	12405.23
476.849	12423.66
477.054	12265.97
477.259	12128.75
477.463	12190.19
477.668	11866.61
477.872	11706.87
478.077	11590.14
478.282	11153.92
478.486	11491.84
478.691	11280.89
478.895	11155.97
479.1	11100.67
479.304	11127.3
479.509	10672.65
479.713	10904.07
479.918	10713.61
480.122	10682.89
480.326	10463.75
480.531	10918.4
480.735	10623.5
480.94	10377.74
481.144	10988.03
481.348	10244.62
481.553	10365.45
481.757	10416.65
481.961	10369.55
482.166	10377.74
482.37	10330.64
482.574	10244.62
482.778	10359.31
482.983	10381.84
483.187	10404.36
483.391	10304.01
483.595	10154.51
483.8	10125.84
484.004	10031.63
484.208	10287.63
484.412	10250.77
484.616	10338.83
484.821	10441.23
485.025	9933.33
485.229	10252.81
485.433	10103.31
485.637	10121.74
485.841	10150.42
486.045	10250.77
486.249	10258.96
486.453	10203.66
486.657	10359.31
486.861	10285.58
487.065	9890.32
487.269	10045.97
487.473	10297.87
487.677	10390.03
487.881	10205.71
488.085	10172.94
488.289	10291.73
488.493	10177.04
488.697	10443.28
488.901	10213.9
489.105	10111.5
489.309	10312.21
489.512	10428.94
489.716	10406.41
489.92	10330.64
490.124	10277.39
490.328	10533.39
490.531	10351.12
490.735	10617.35
490.939	10353.16
491.143	10637.83
491.346	10574.35
491.55	10803.72
491.754	10758.66
491.958	10721.8
492.161	10744.33
492.365	10859.01
492.569	10922.5
492.772	10560.01
492.976	10721.8
493.18	10856.96
493.383	10904.07
493.587	11004.42
493.79	11313.66
493.994	11102.72
494.197	11336.19
494.401	11241.98
494.605	11196.93
494.808	11700.73
495.012	11649.53
495.215	11727.35
495.419	11715.06
495.622	11553.27
495.825	11690.49
496.029	11811.32
496.232	12274.16
496.436	11913.72
496.639	12349.93
496.843	12100.08
497.046	12579.31
497.249	12648.94
497.453	12517.87
497.656	12722.66
497.859	12890.6
498.063	12988.9
498.266	13386.21
498.469	13181.41
498.673	13269.47
498.876	13548
499.079	13611.48
499.282	13617.63
499.485	13803.99
499.689	13943.25
499.892	14424.53
500.095	14103
500.298	14500.3
500.501	14481.87
500.705	14856.65
500.908	14889.42
501.111	15311.3
501.314	15083.97
501.517	15393.22
501.72	15755.71
501.923	15489.47
502.126	15548.86
502.329	16232.88
502.532	16009.65
502.735	16208.31
502.938	16738.73
503.141	16581.04
503.344	17144.23
503.547	16959.91
503.75	17172.9
503.953	17553.82
504.156	17476
504.359	17772.96
504.562	18008.47
504.765	18104.73
504.968	18282.9
505.17	18583.95
505.373	18612.62
505.576	18897.29
505.779	19173.77
505.982	19100.04
506.185	19528.06
506.387	19796.35
506.59	19865.98
506.793	20300.15
506.996	19966.33
507.198	20869.48
507.401	20334.96
507.604	20750.7
507.807	21008.75
508.009	21410.15
508.212	21606.75
508.415	21856.61
508.617	21686.62
508.82	21930.33
509.022	21813.6
509.225	22466.9
509.428	22872.4
509.63	22749.52
509.833	23077.19
510.035	23609.67
510.238	23212.36
510.44	23478.6
510.643	23943.49
510.845	24250.68
511.048	24103.23
511.25	24478.01
511.453	24887.6
511.655	25633.06
511.858	25336.1
512.06	25424.17
512.262	25622.82
512.465	25471.27
512.667	26229.02
512.87	26091.8
513.072	26065.18
513.274	27052.3
513.477	26958.1
513.679	27465.99
513.881	27461.9
514.084	27822.34
514.286	27711.75
514.488	27953.41
514.69	28868.85
514.893	28879.09
515.095	28748.02
515.297	28932.34
515.499	29153.52
515.701	29733.09
515.904	29858.02
516.106	29931.75
516.308	30281.95
516.51	30701.78
516.712	30474.46
516.914	30865.62
517.116	31152.34
517.318	31287.5
517.52	31295.69
517.722	31748.29
517.925	31996.1
518.127	32420.03
518.329	32567.48
518.531	32723.13
518.733	33530.03
518.935	33194.16
519.136	33374.38
519.338	33876.13
519.54	33992.87
519.742	34164.9
519.944	34646.17
520.146	34848.92
520.348	34975.89
520.55	35068.05
520.752	35324.05
520.954	35692.68
521.155	35534.99
521.357	36339.84
521.559	36331.65
521.761	36909.18
521.963	36505.73
522.164	36763.77
522.366	36964.47
522.568	37204.08
522.77	37558.38
522.971	38226.02
523.173	37675.12
523.375	38209.64
523.576	38301.79
523.778	37935.21
523.98	38772.83
524.181	38803.55
524.383	38766.68
524.584	39239.76
524.786	39207
524.988	38957.14
525.189	39692.36
525.391	39526.48
525.592	39784.52
525.794	40253.51
525.995	39987.27
526.197	39827.53
526.398	40278.08
526.6	40882.23
526.801	40902.71
527.003	41136.18
527.204	40880.19
527.406	41125.94
527.607	41381.94
527.808	41437.23
528.01	41005.11
528.211	41769.01
528.412	42162.22
528.614	41857.07
528.815	41607.22
529.016	41963.56
529.218	41801.77
529.419	41910.32
529.62	42139.69
529.822	42170.41
530.023	42301.48
530.224	42188.84
530.425	42055.72
530.626	41891.88
530.828	41875.5
531.029	43118.62
531.23	42223.65
531.431	42182.69
531.632	42221.61
531.833	42911.77
532.035	42592.29
532.236	42807.33
532.437	43212.82
532.638	42770.46
532.839	42883.1
533.04	43079.71
533.241	42792.99
533.442	43145.24
533.643	43231.25
533.844	42985.5
534.045	43018.27
534.246	42340.39
534.447	43040.79
534.648	42704.93
534.849	42545.19
535.05	42315.81
535.251	42694.69
535.451	42534.95
535.652	43014.17
535.853	43423.76
536.054	43292.69
536.255	43448.34
536.456	42442.79
536.657	43374.61
536.857	42934.3
537.058	42610.72
537.259	43065.37
537.46	42731.55
537.66	42922.01
537.861	42924.06
538.062	43073.56
538.263	43120.66
538.463	42836
538.664	42719.26
538.865	42840.09
539.065	43188.25
539.266	42455.07
539.466	42661.92
539.667	42643.49
539.868	43071.51
540.068	42807.33
540.269	42737.69
540.469	42823.71
540.67	42416.16
540.87	42381.35
541.071	42510.37
541.271	43137.05
541.472	42483.75
541.672	42362.92
541.873	42526.75
542.073	42285.09
542.274	42924.06
542.474	43188.25
542.675	42436.64
542.875	42514.47
543.075	42393.64
543.276	42436.64
543.476	43075.61
543.676	42264.61
543.877	42528.8
544.077	42461.22
544.277	42315.81
544.478	42270.76
544.678	42424.36
544.878	42573.86
545.078	42799.13
545.279	41738.29
545.479	42422.31
545.679	42653.73
545.879	42430.5
546.079	42438.69
546.28	42461.22
546.48	41797.68
546.68	42487.84
546.88	42682.4
547.08	42485.79
547.28	42354.72
547.48	41703.47
547.68	42385.44
547.88	42055.72
548.081	42684.45
548.281	41865.26
548.481	42211.37
548.681	42235.94
548.881	42184.74
549.081	42383.4
549.28	41871.4
549.48	42246.18
549.68	41998.38
549.88	42500.13
550.08	41969.71
550.28	42080.3
550.48	41754.67
550.68	41824.3
550.88	41990.19
551.08	41556.02
551.279	41926.7
551.479	41687.09
551.679	41926.7
551.879	41379.89
552.079	41869.36
552.278	41445.43
552.478	42055.72
552.678	42057.77
552.878	42063.91
553.077	41881.64
553.277	41242.68
553.477	42125.35
553.676	41750.57
553.876	41750.57
554.076	41764.91
554.275	41961.51
554.475	41551.92
554.674	41472.05
554.874	41439.28
555.074	41455.67
555.273	41803.82
555.473	41732.14
555.672	41457.71
555.872	41220.15
556.071	41412.66
556.271	41580.59
556.47	41461.81
556.67	40855.61
556.869	41267.25
557.068	41664.56
557.268	41527.34
557.467	41211.96
557.667	41007.16
557.866	41054.26
558.065	40857.66
558.265	40923.19
558.464	40835.13
558.663	40966.2
558.863	40745.02
559.062	41619.5
559.261	40216.64
559.461	41355.32
559.66	40003.66
559.859	40681.53
560.058	40157.25
560.258	40108.1
560.457	40136.77
560.656	40796.22
560.855	40396.87
561.054	40519.74
561.253	39946.31
561.453	40390.72
561.652	40286.28
561.851	40505.41
562.05	40454.21
562.249	39833.67
562.448	40061
562.647	39891.02
562.846	39739.47
563.045	40329.28
563.244	39542.86
563.443	40200.26
563.642	39225.43
563.841	39860.3
564.04	39438.42
564.239	40202.31
564.438	39792.72
564.637	39704.65
564.836	39327.83
565.035	39049.3
565.234	39135.32
565.432	38803.55
565.631	38864.99
565.83	39135.32
566.029	39184.47
566.228	39118.93
566.427	38889.56
566.625	38373.47
566.824	38664.28
567.023	38809.69
567.222	38201.44
567.42	38864.99
567.619	38461.54
567.818	38451.3
568.016	38291.55
568.215	38631.52
568.414	38250.59
568.612	38813.79
568.811	38162.53
569.01	38203.49
569.208	37523.57
569.407	37927.02
569.605	37486.7
569.804	38144.1
570.002	37726.31
570.201	37734.51
570.4	37599.34
570.598	37410.93
570.797	37013.62
570.995	37675.12
571.193	37230.71
571.392	37425.26
571.59	37066.87
571.789	37236.85
571.987	36943.99
572.186	37011.57
572.384	37472.37
572.582	37181.56
572.781	37314.67
572.979	36581.5
573.177	37046.39
573.376	36759.67
573.574	36356.22
573.772	36712.57
573.971	36526.21
574.169	36145.28
574.367	35987.59
574.565	36567.16
574.763	35963.01
574.962	36278.4
575.16	35336.34
575.358	35965.06
575.556	35715.21
575.754	36120.71
575.952	35840.14
576.151	35584.14
576.349	35338.38
576.547	35516.56
576.745	35485.84
576.943	35360.91
577.141	35117.2
577.339	35344.53
577.537	35010.71
577.735	35145.87
577.933	34902.17
578.131	35121.3
578.329	34830.49
578.527	34771.1
578.725	34830.49
578.923	34625.69
579.121	34498.72
579.319	34261.15
579.516	34482.33
579.714	34312.35
579.912	34033.83
580.11	34269.34
580.308	34042.02
580.506	34037.92
580.704	33587.37
580.901	33808.55
581.099	34005.16
581.297	33360.05
581.495	33509.55
581.692	33581.23
581.89	33190.06
582.088	33628.33
582.285	33407.15
582.483	33697.96
582.681	33390.77
582.878	33183.92
583.076	33085.62
583.274	33431.72
583.471	32665.78
583.669	32622.78
583.866	32667.83
584.064	32501.95
584.262	32489.66
584.459	32805.05
584.657	32610.49
584.854	32340.16
585.052	32110.78
585.249	32344.25
585.447	32106.69
585.644	31756.49
585.841	32106.69
586.039	32086.21
586.236	31551.69
586.434	31672.52
586.631	31383.76
586.828	31963.33
587.026	31625.42
587.223	31394
587.42	31330.51
587.618	31486.15
587.815	30834.9
588.012	31011.03
588.21	30695.64
588.407	31013.07
588.604	31221.97
588.801	30763.22
588.999	30826.71
589.196	30630.1
589.393	30480.6
589.59	30564.57
589.787	30365.92
589.984	30179.55
590.182	29753.57
590.379	30142.69
590.576	29864.16
590.773	30105.82
590.97	30073.06
591.167	29866.21
591.364	29495.53
591.561	29794.53
591.758	29503.72
591.955	29477.1
592.152	29217
592.349	29100.27
592.546	29266.16
592.743	29401.32
592.94	28573.94
593.137	29135.09
593.334	29262.06
593.531	28465.4
593.727	28721.4
593.924	28526.84
594.121	28264.7
594.318	28651.77
594.515	28184.83
594.712	28401.91
594.908	28444.92
595.105	28442.87
595.302	28004.61
595.499	27887.87
595.696	28066.05
595.892	27674.88
596.089	27928.83
596.286	28037.37
596.482	27539.72
596.679	27666.69
596.876	27805.95
597.072	27416.84
597.269	27427.08
597.466	27162.89
597.662	26937.62
597.859	27177.23
598.055	27275.53
598.252	26894.61
598.448	26933.52
598.645	26749.2
598.841	26390.81
599.038	26898.7
599.234	26738.96
599.431	26732.82
599.627	26210.59
599.824	26429.72
600.02	26558.74
600.217	26419.48
600.413	26280.22
600.609	25854.24
600.806	25895.2
601.002	25991.45
601.198	25868.58
601.395	25780.51
601.591	26065.18
601.787	25753.89
601.984	25477.41
602.18	25983.26
602.376	25278.76
602.572	25069.87
602.769	25145.64
602.965	24949.04
603.161	25184.55
603.357	24869.17
603.553	24901.93
603.75	24975.66
603.946	24752.43
604.142	24899.89
604.338	24047.93
604.534	24734
604.73	24508.72
604.926	24592.69
605.122	24625.46
605.318	23968.06
605.514	24080.7
605.71	24045.88
605.906	24250.68
606.102	23982.4
606.298	24082.75
606.494	23974.2
606.69	23849.28
606.886	23849.28
607.082	23415.11
607.278	23877.95
607.474	23404.87
607.67	23818.56
607.866	22849.87
608.062	23720.26
608.257	23515.46
608.453	23613.76
608.649	23712.06
608.845	23427.4
609.041	23150.92
609.236	23349.57
609.432	23185.74
609.628	23179.59
609.824	22772.05
610.019	23052.62
610.215	22952.27
610.411	23255.37
610.606	22800.72
610.802	22960.46
610.998	23011.66
611.193	23001.42
611.389	22706.51
611.584	22866.25
611.78	22376.79
611.976	22763.86
612.171	22593.87
612.367	22563.15
612.562	22419.8
612.758	22239.58
612.953	22067.55
613.149	22518.1
613.344	22325.59
613.539	22456.66
613.735	22231.38
613.93	22180.18
614.126	22016.35
614.321	22311.25
614.517	22124.89
614.712	22194.52
614.907	22139.22
615.103	22182.23
615.298	21860.7
615.493	22135.13
615.688	21678.43
615.884	22133.08
616.079	21512.55
616.274	21762.4
616.47	21487.97
616.665	21664.1
616.86	21655.9
617.055	21305.7
617.25	21494.11
617.445	21571.94
617.641	21231.97
617.836	21463.4
618.031	21301.61
618.226	21563.75
618.421	21246.31
618.616	21512.55
618.811	21113.19
619.006	21375.33
619.201	20779.37
619.396	20885.87
619.591	20611.44
619.786	20871.53
619.981	20281.72
620.176	20892.01
620.371	20207.99
620.566	20246.9
620.761	20314.48
620.956	20506.99
621.151	20087.16
621.346	20226.42
621.541	19696
621.735	20136.31
621.93	19759.49
622.125	19812.73
622.32	19319.17
622.515	19620.22
622.709	19315.08
622.904	19270.02
623.099	19104.14
623.294	19079.56
623.488	18581.9
623.683	18684.3
623.878	18827.66
624.072	18833.8
624.267	18782.6
624.462	18588.05
624.656	18471.31
624.851	18270.61
625.046	18381.2
625.24	18200.98
625.435	17695.13
625.629	17944.98
625.824	18108.82
626.018	17783.2
626.213	17592.73
626.407	17508.77
626.602	17310.11
626.796	17383.84
626.991	17519.01
627.185	17183.14
627.38	17000.87
627.574	17170.85
627.768	16783.79
627.963	16576.94
628.157	16710.06
628.352	16921
628.546	16327.09
628.74	16599.47
628.935	16419.25
629.129	16427.44
629.323	16112.05
629.517	16112.05
629.712	15948.22
629.906	16036.28
630.1	15819.19
630.294	15741.37
630.489	15681.98
630.683	15749.56
630.877	15505.85
631.071	15458.75
631.265	15333.82
631.459	15370.69
631.653	15079.88
631.848	15305.15
632.042	15088.07
632.236	15167.94
632.43	14954.95
632.624	15004.1
632.818	14741.96
633.012	14610.89
633.206	14629.32
633.4	14672.33
633.594	14174.67
633.788	14477.77
633.982	14416.33
634.176	14268.88
634.369	14148.05
634.563	14168.53
634.757	14082.52
634.951	14215.63
635.145	13996.5
635.339	13720.03
635.533	13992.41
635.726	13873.62
635.92	13486.56
636.114	13844.95
636.308	13591
636.501	13609.43
636.695	13529.56
636.889	13228.51
637.083	13267.42
637.276	13218.27
637.47	13433.31
637.664	12913.13
637.857	13021.67
638.051	13070.82
638.244	12720.62
638.438	12913.13
638.632	12868.07
638.825	12712.42
639.019	12280.3
639.212	12556.78
639.406	12462.57
639.599	12540.4
639.793	12476.91
639.986	12210.67
640.18	12120.56
640.373	12214.77
640.567	12091.89
640.76	12089.84
640.954	11844.09
641.147	11829.75
641.34	12048.88
641.534	11928.05
641.727	11790.84
641.92	11837.94
642.114	11504.12
642.307	11366.91
642.5	11438.59
642.694	11409.92
642.887	11223.55
643.08	11256.32
643.273	11248.13
643.467	11182.59
643.66	10971.65
643.853	10928.64
644.046	10994.18
644.239	11049.47
644.432	10672.65
644.626	10758.66
644.819	10746.37
645.012	10738.18
645.205	10830.34
645.398	10619.4
645.591	10426.89
645.784	10504.71
645.977	10318.35
646.17	10543.63
646.363	10555.91
646.556	10318.35
646.749	10154.51
646.942	10295.82
647.135	10166.8
647.328	10048.02
647.521	10041.87
647.714	9806.36
647.907	9873.94
648.099	9798.17
648.292	9746.97
648.485	9751.06
648.678	9529.88
648.871	9722.39
649.064	9660.95
649.256	9728.53
649.449	9493.02
649.642	9435.67
649.835	9398.81
650.027	9347.61
650.22	9390.62
650.413	9255.45
650.605	9529.88
650.798	9165.34
650.991	9054.75
651.183	9110.05
651.376	8954.4
651.568	8940.07
651.761	8956.45
651.954	9067.04
652.146	8882.72
652.339	8845.86
652.531	8804.9
652.724	8743.46
652.916	8651.3
653.109	8536.62
653.301	8737.32
653.494	8653.35
653.686	8524.33
653.879	8714.79
654.071	8466.99
654.263	8391.21
654.456	8389.16
654.648	8268.33
654.84	8098.35
655.033	8137.26
655.225	8028.72
655.417	8084.02
655.61	8174.13
655.802	8059.44
655.994	8157.74
656.186	8077.87
656.379	7969.33
656.571	7914.03
656.763	7699
656.955	7770.68
657.148	7752.24
657.34	7830.07
657.532	7789.11
657.724	7465.53
657.916	7529.02
658.108	7547.45
658.3	7496.25
658.492	7531.06
658.684	7451.19
658.876	7389.75
659.068	7430.71
659.26	7346.75
659.452	7322.17
659.644	7352.89
659.836	7254.59
660.028	7137.85
660.22	7195.2
660.412	7189.05
660.604	6971.97
660.796	7021.12
660.988	7004.74
661.18	6883.91
661.372	7053.89
661.563	6863.43
661.755	6941.25
661.947	6804.03
662.139	6844.99
662.331	6810.18
662.522	6668.87
662.714	6619.72
662.906	6818.37
663.097	6685.25
663.289	6474.31
663.481	6617.67
663.673	6574.66
663.864	6443.59
664.056	6494.79
664.247	6396.49
664.439	6464.07
664.631	6437.45
664.822	6292.04
665.014	6265.42
665.205	6261.32
665.397	6193.74
665.588	6236.75
665.78	6337.1
665.971	6128.21
666.163	6306.38
666.354	6017.61
666.546	6085.2
666.737	5947.98
666.929	5976.66
667.12	6038.09
667.311	5988.94
667.503	5814.87
667.694	5915.22
667.885	5786.19
668.077	5896.78
668.268	5741.14
668.459	5782.1
668.651	5749.33
668.842	5794.39
669.033	5786.19
669.224	5661.27
669.416	5702.23
669.607	5773.91
669.798	5571.16
669.989	5673.56
670.18	5567.06
670.371	5450.33
670.563	5515.86
670.754	5575.25
670.945	5401.18
671.136	5487.19
671.327	5421.66
671.518	5446.23
671.709	5493.33
671.9	5440.09
672.091	5233.24
672.282	5362.26
672.473	5458.52
672.664	5296.73
672.855	5126.75
673.046	5268.06
673.237	5165.66
673.428	5276.25
673.619	5311.07
673.809	5255.77
674	5108.32
674.191	5163.61
674.382	5165.66
674.573	5110.36
674.764	5055.07
674.954	5036.64
675.145	5151.32
675.336	5128.8
675.527	4964.96
675.717	4967.01
675.908	4885.09
676.099	4915.81
676.289	4919.9
676.48	4917.86
676.671	4647.52
676.861	4969.05
677.052	4825.7
677.243	4772.45
677.433	5087.84
677.624	4858.46
677.814	4819.55
678.005	4751.97
678.195	4702.82
678.386	4733.54
678.576	4672.1
678.767	4686.44
678.957	4756.07
679.148	4713.06
679.338	4657.76
679.529	4745.83
679.719	4704.87
679.909	4622.95
680.1	4651.62
680.29	4541.03
680.481	4538.98
680.671	4606.56
680.861	4332.14
681.052	4495.97
681.242	4493.93
681.432	4532.84
681.622	4504.17
681.813	4452.97
682.003	4532.84
682.193	4463.21
682.383	4600.42
682.573	4448.87
682.764	4375.14
682.954	4520.55
683.144	4518.5
683.334	4354.66
683.524	4428.39
683.714	4389.48
683.904	4348.52
684.094	4336.23
684.284	4321.9
684.474	4448.87
684.664	4354.66
684.854	4348.52
685.044	4252.27
685.234	4131.44
685.424	4266.6
685.614	4364.9
685.804	4119.15
685.994	4272.75
686.184	4233.83
686.374	4156.01
686.564	4039.28
686.753	4219.5
686.943	4043.37
687.133	4201.07
687.323	4086.38
687.513	4088.43
687.702	4231.79
687.892	4182.63
688.082	4033.13
688.272	3971.69
688.461	3990.13
688.651	3924.59
688.841	3834.48
689.03	3953.26
689.22	3897.97
689.41	3879.54
689.599	3977.84
689.789	3869.3
689.979	3867.25
690.168	3881.58
690.358	3836.53
690.547	3775.09
690.737	3617.4
690.926	3717.75
691.116	3693.17
691.305	3869.3
691.495	3631.73
691.684	3740.27
691.874	3543.67
692.063	3560.05
692.252	3625.59
692.442	3461.75
692.631	3545.72
692.82	3566.2
693.01	3523.19
693.199	3525.24
693.388	3482.23
693.578	3424.89
693.767	3594.87
693.956	3431.03
694.146	3482.23
694.335	3402.36
694.524	3431.03
694.713	3293.82
694.902	3392.12
695.092	3246.71
695.281	3306.1
695.47	3385.98
695.659	3338.87
695.848	3275.38
696.037	3347.06
696.226	3357.3
696.415	3248.76
696.604	3308.15
696.793	3244.67
696.982	3240.57
697.171	3236.47
697.36	3132.03
697.549	3119.74
697.738	3064.44
697.927	3197.56
698.116	3148.41
698.305	3158.65
698.494	3201.66
698.683	3084.92
698.872	3148.41
699.061	3037.82
699.25	3019.39
699.438	3185.27
699.627	3158.65
699.816	3103.36
700.005	3033.72
700.193	2941.57
700.382	3113.6
700.571	3005.05
700.76	2876.03
700.948	2980.48
701.137	2992.77
701.326	2960
701.514	2947.71
701.703	2892.41
701.892	2949.76
702.08	3019.39
702.269	2964.09
702.457	2988.67
702.646	2873.98
702.834	2800.26
703.023	3013.24
703.212	2884.22
703.4	2941.57
703.589	2878.08
703.777	2900.61
703.965	2947.71
704.154	2835.07
704.342	2923.13
704.531	2878.08
704.719	2830.98
704.907	2806.4
705.096	2855.55
705.284	2808.45
705.472	2826.88
705.661	2912.89
705.849	2751.1
706.037	2986.62
706.226	2927.23
706.414	2771.58
706.602	2837.12
706.79	2732.67
706.979	2765.44
707.167	2888.32
707.355	2802.3
707.543	2818.69
707.731	2783.87
707.919	2712.19
708.107	2687.62
708.296	2802.3
708.484	2800.26
708.672	2818.69
708.86	2800.26
709.048	2744.96
709.236	2794.11
709.424	2736.77
709.612	2701.95
709.8	2820.74
709.988	2722.43
710.176	2859.65
710.364	2728.58
710.551	2742.91
710.739	2683.52
710.927	2771.58
711.115	2636.42
711.303	2695.81
711.491	2681.47
711.679	2798.21
711.866	2695.81
712.054	2751.1
712.242	2595.46
712.43	2679.43
712.617	2607.75
712.805	2833.02
712.993	2626.18
713.181	2677.38
713.368	2779.78
713.556	2677.38
713.744	2599.56
713.931	2781.82
714.119	2632.32
714.306	2695.81
714.494	2595.46
714.682	2638.47
714.869	2642.56
715.057	2597.51
715.244	2658.95
715.432	2628.23
715.619	2644.61
715.807	2611.84
715.994	2663.04
716.182	2689.67
716.369	2701.95
716.556	2667.14
716.744	2480.77
716.931	2566.79
717.119	2622.08
717.306	2587.27
717.493	2620.03
717.681	2669.19
717.868	2564.74
718.055	2701.95
718.242	2669.19
718.43	2536.07
718.617	2570.88
718.804	2525.83
718.991	2556.55
719.179	2650.75
719.366	2644.61
719.553	2712.19
719.74	2562.69
719.927	2716.29
720.114	2556.55
720.301	2636.42
720.488	2458.25
720.676	2568.84
720.863	2519.68
721.05	2675.33
721.237	2574.98
721.424	2605.7
721.611	2577.03
721.798	2632.32
721.985	2626.18
722.172	2536.07
722.358	2572.93
722.545	2554.5
722.732	2527.88
722.919	2646.66
723.106	2529.92
723.293	2544.26
723.48	2556.55
723.667	2425.48
723.853	2521.73
724.04	2499.2
724.227	2544.26
724.414	2704
724.6	2648.71
724.787	2574.98
724.974	2581.12
725.161	2527.88
725.347	2542.21
725.534	2603.65
725.72	2589.32
725.907	2593.41
726.094	2671.23
726.28	2681.47
726.467	2523.78
726.653	2507.4
726.84	2531.97
727.027	2574.98
727.213	2486.92
727.4	2658.95
727.586	2507.4
727.773	2480.77
727.959	2503.3
728.145	2540.16
728.332	2523.78
728.518	2595.46
728.705	2603.65
728.891	2474.63
729.077	2519.68
729.264	2585.22
729.45	2437.77
729.636	2685.57
729.823	2591.36
730.009	2591.36
730.195	2640.51
730.382	2650.75
730.568	2501.25
730.754	2470.53
730.94	2536.07
731.126	2644.61
731.313	2562.69
731.499	2615.94
731.685	2634.37
731.871	2636.42
732.057	2630.27
732.243	2660.99
732.429	2652.8
732.615	2660.99
732.801	2699.91
732.987	2587.27
733.173	2632.32
733.359	2515.59
733.545	2665.09
733.731	2564.74
733.917	2607.75
734.103	2704
734.289	2665.09
734.475	2587.27
734.661	2718.34
734.847	2591.36
735.033	2738.82
735.219	2617.99
735.404	2613.89
735.59	2644.61
735.776	2648.71
735.962	2650.75
736.148	2687.62
736.333	2579.08
736.519	2777.73
736.705	2658.95
736.89	2550.4
737.076	2495.11
737.262	2587.27
737.447	2636.42
737.633	2630.27
737.819	2599.56
738.004	2531.97
738.19	2601.6
738.375	2507.4
738.561	2585.22
738.747	2622.08
738.932	2648.71
739.118	2650.75
739.303	2536.07
739.489	2624.13
739.674	2515.59
739.859	2650.75
740.045	2767.49
740.23	2646.66
740.416	2669.19
740.601	2804.35
740.786	2683.52
740.972	2550.4
741.157	2497.16
741.342	2544.26
741.528	2646.66
741.713	2574.98
741.898	2482.82
742.084	2515.59
742.269	2462.34
742.454	2570.88
742.639	2615.94
742.824	2564.74
743.01	2570.88
743.195	2499.2
743.38	2493.06
743.565	2452.1
743.75	2511.49
743.935	2456.2
744.12	2540.16
744.305	2501.25
744.49	2513.54
744.675	2331.27
744.86	2534.02
745.045	2501.25
745.23	2456.2
745.415	2425.48
745.6	2452.1
745.785	2374.28
745.97	2394.76
746.155	2480.77
746.34	2396.81
746.525	2413.19
746.71	2405
746.895	2333.32
747.079	2323.08
747.264	2308.74
747.449	2376.33
747.634	2374.28
747.819	2405
748.003	2304.65
748.188	2253.45
748.373	2263.69
748.557	2243.21
748.742	2214.54
748.927	2331.27
749.111	2220.68
749.296	2226.82
749.481	2243.21
749.665	2210.44
749.85	2151.05
750.034	2130.57
750.219	2226.82
750.404	2065.04
750.588	2187.91
750.773	2091.66
750.957	2226.82
751.141	2095.75
751.326	2138.76
751.51	2017.93
751.695	1995.4
751.879	2060.94
752.064	2110.09
752.248	2065.04
752.432	2167.43
752.617	2122.38
752.801	2081.42
752.985	1995.4
753.17	2005.64
753.354	1997.45
753.538	1966.73
753.722	1929.87
753.907	1909.39
754.091	1950.35
754.275	1899.15
754.459	1981.07
754.643	1780.37
754.828	1907.34
755.012	1917.58
755.196	1827.47
755.38	1940.11
755.564	1931.92
755.748	1788.56
755.932	1843.85
756.116	1868.43
756.3	1743.5
756.484	1716.88
756.668	1780.37
756.852	1632.91
757.036	1700.5
757.22	1755.79
757.404	1757.84
757.588	1594
757.772	1796.75
757.956	1766.03
758.14	1690.26
758.323	1675.92
758.507	1731.22
758.691	1503.89
758.875	1534.61
759.059	1712.78
759.242	1559.19
759.426	1647.25
759.61	1604.24
759.794	1417.88
759.977	1628.82
760.161	1692.3
760.345	1587.86
760.528	1594
760.712	1440.4
760.895	1583.76
761.079	1471.12
761.263	1528.47
761.446	1594
761.63	1507.99
761.813	1528.47
761.997	1503.89
762.18	1419.92
762.364	1571.47
762.547	1378.97
762.731	1378.97
762.914	1399.45
763.098	1393.3
763.281	1471.12
763.464	1536.66
763.648	1514.13
763.831	1319.57
764.015	1366.68
764.198	1485.46
764.381	1403.54
764.564	1432.21
764.748	1362.58
764.931	1475.22
765.114	1389.21
765.297	1381.01
765.481	1331.86
765.664	1411.73
765.847	1346.2
766.03	1356.44
766.213	1290.9
766.397	1278.62
766.58	1264.28
766.763	1378.97
766.946	1329.81
767.129	1315.48
767.312	1321.62
767.495	1200.79
767.678	1223.32
767.861	1223.32
768.044	1282.71
768.227	1399.45
768.41	1233.56
768.593	1276.57
768.776	1311.38
768.959	1290.9
769.142	1325.72
769.324	1192.6
769.507	1206.94
769.69	1251.99
769.873	1170.07
770.056	1247.9
770.239	1180.31
770.421	1245.85
770.604	1227.42
770.787	1239.7
770.97	1176.22
771.152	1088.15
771.335	1258.14
771.518	1131.16
771.7	1180.31
771.883	1206.94
772.066	1141.4
772.248	1133.21
772.431	1110.68
772.613	1092.25
772.796	1127.07
772.978	1116.83
773.161	1178.26
773.343	1125.02
773.526	1112.73
773.708	1200.79
773.891	991.9
774.073	1065.63
774.256	1055.39
774.438	1243.8
774.621	1014.43
774.803	1055.39
774.985	1063.58
775.168	1071.77
775.35	1006.24
775.532	1032.86
775.715	1008.28
775.897	1016.48
776.079	1022.62
776.261	1020.57
776.444	1024.67
776.626	1032.86
776.808	942.75
776.99	993.95
777.173	926.36
777.355	973.47
777.537	957.08
777.719	930.46
777.901	875.17
778.083	942.75
778.265	975.52
778.447	1010.33
778.629	819.87
778.811	881.31
778.993	864.93
779.175	885.41
779.357	809.63
779.539	879.26
779.721	881.31
779.903	752.29
780.085	817.82
780.267	815.77
780.449	797.34
780.631	764.58
780.812	815.77
780.994	801.44
781.176	807.58
781.358	744.1
781.54	828.06
781.721	795.29
781.903	799.39
782.085	836.25
782.267	762.53
782.448	682.66
782.63	752.29
782.812	756.38
782.993	805.53
783.175	737.95
783.357	746.14
783.538	696.99
783.72	647.84
783.901	639.65
784.083	680.61
784.264	656.03
784.446	696.99
784.627	662.18
784.809	615.07
784.99	670.37
785.172	629.41
785.353	690.85
785.535	725.66
785.716	676.51
785.897	508.58
786.079	559.78
786.26	621.22
786.441	529.06
786.623	518.82
786.804	633.5
786.985	592.55
787.167	555.68
787.348	586.4
787.529	608.93
787.71	660.13
787.891	574.11
788.073	494.24
788.254	539.3
788.435	555.68
788.616	576.16
788.797	563.87
788.978	473.76
789.159	504.48
789.34	477.86
789.522	424.61
789.703	574.11
789.884	475.81
790.065	492.2
790.246	539.3
790.427	506.53
790.607	486.05
790.788	512.67
790.969	527.01
791.15	543.39
791.331	428.71
791.512	516.77
791.693	430.76
791.874	531.11
792.054	580.26
792.235	412.32
792.416	459.43
792.597	424.61
792.778	473.76
792.958	459.43
793.139	406.18
793.32	441
793.5	381.6
793.681	477.86
793.862	496.29
794.042	469.67
794.223	420.52
794.404	449.19
794.584	436.9
794.765	400.04
794.945	424.61
795.126	404.13
795.306	430.76
795.487	434.85
795.667	410.28
795.848	477.86
796.028	436.9
796.209	342.69
796.389	473.76
796.57	385.7
796.75	414.37
796.93	363.17
797.111	391.84
797.291	375.46
797.471	400.04
797.652	418.47
797.832	367.27
798.012	391.84
798.192	318.12
798.373	404.13
798.553	324.26
798.733	451.24
798.913	307.88
799.093	354.98
799.274	359.08
799.454	322.21
799.634	336.55
799.814	342.69
799.994	334.5
800.174	385.7
800.354	305.83
800.534	256.68
800.714	320.17
800.894	334.5
801.074	295.59
801.254	359.08
801.434	324.26
801.614	314.02
801.794	299.69
801.974	1002.14
802.154	246.44
802.334	291.49
802.514	252.58
802.693	221.86
802.873	283.3
803.053	346.79
803.233	340.65
803.413	359.08
803.592	250.53
803.772	281.25
803.952	326.31
804.131	285.35
804.311	332.45
804.491	324.26
804.67	244.39
804.85	230.06
805.03	248.49
805.209	320.17
805.389	252.58
805.568	195.24
805.748	361.13
805.928	291.49
806.107	277.16
806.287	350.89
806.466	262.82
806.646	334.5
806.825	309.93
807.004	199.34
807.184	305.83
807.363	311.97
807.543	260.77
807.722	342.69
807.901	219.82
808.081	209.58
808.26	238.25
808.439	273.06
808.619	266.92
808.798	219.82
808.977	193.19
809.156	232.1
809.336	203.43
809.515	256.68
809.694	176.81
809.873	289.45
810.052	271.01
810.231	252.58
810.411	213.67
810.59	297.64
810.769	248.49
810.948	215.72
811.127	150.18
811.306	189.1
811.485	242.34
811.664	260.77
811.843	211.62
812.022	211.62
812.201	170.66
812.38	162.47
812.559	98.99
812.737	234.15
812.916	234.15
813.095	203.43
813.274	176.81
813.453	223.91
813.632	207.53
813.811	273.06
813.989	166.57
814.168	209.58
814.347	162.47
814.526	213.67
814.704	264.87
814.883	148.14
815.062	141.99
815.24	135.85
815.419	103.08
815.598	137.9
815.776	174.76
815.955	248.49
816.133	178.86
816.312	174.76
816.49	92.84
816.669	166.57
816.847	185
817.026	213.67
817.204	217.77
817.383	240.3
817.561	219.82
817.74	250.53
817.918	223.91
818.097	94.89
818.275	129.7
818.453	228.01
818.632	228.01
818.81	105.13
818.988	115.37
819.167	76.46
819.345	148.14
819.523	199.34
819.701	168.62
819.879	242.34
820.058	164.52
820.236	158.38
820.414	185
820.592	207.53
820.77	127.66
820.948	156.33
821.127	115.37
821.305	176.81
821.483	137.9
821.661	205.48
821.839	144.04
822.017	80.55
822.195	152.23
822.373	191.14
822.551	113.32
822.729	193.19
822.907	176.81
823.085	103.08
823.262	78.51
823.44	162.47
823.618	94.89
823.796	113.32
823.974	74.41
824.152	105.13
824.329	135.85
824.507	94.89
824.685	115.37
824.863	234.15
825.04	223.91
825.218	101.03
825.396	178.86
825.574	119.46
825.751	127.66
825.929	164.52
826.107	146.09
826.284	127.66
826.462	82.6
826.639	68.27
826.817	162.47
826.994	60.07
827.172	96.94
827.349	109.23
827.527	113.32
827.704	107.18
827.882	92.84
828.059	123.56
828.237	109.23
828.414	176.81
828.591	101.03
828.769	148.14
828.946	98.99
829.124	137.9
829.301	82.6
829.478	168.62
829.655	94.89
829.833	135.85
830.01	168.62
830.187	58.03
830.364	68.27
830.542	51.88
830.719	144.04
830.896	164.52
831.073	193.19
831.25	70.31
831.427	82.6
831.604	109.23
831.782	135.85
831.959	62.12
832.136	53.93
832.313	131.75
832.49	17.07
832.667	88.75
832.844	96.94
833.021	182.95
833.198	94.89
833.374	82.6
833.551	98.99
833.728	127.66
833.905	111.27
834.082	76.46
834.259	144.04
834.436	92.84
834.612	55.98
834.789	150.18
834.966	119.46
835.143	96.94
835.319	90.79
835.496	107.18
835.673	86.7
835.85	170.66
836.026	121.51
836.203	133.8
836.38	41.64
836.556	41.64
836.733	17.07
836.909	131.75
837.086	86.7
837.262	105.13
837.439	35.5
837.616	82.6
837.792	74.41
837.968	78.51
838.145	82.6
838.321	68.27
838.498	131.75
838.674	131.75
838.851	66.22
839.027	58.03
839.203	86.7
839.38	72.36
839.556	4.78
839.732	88.75
839.909	-9.56
840.085	86.7
840.261	23.21
840.437	101.03
840.614	84.65
840.79	92.84
840.966	80.55
841.142	8.87
841.318	-23.89
841.494	78.51
841.671	70.31
841.847	49.83
842.023	80.55
842.199	98.99
842.375	-7.51
842.551	125.61
842.727	80.55
842.903	170.66
843.079	27.31
843.255	74.41
843.431	88.75
843.607	101.03
843.783	39.59
843.959	88.75
844.134	21.16
844.31	137.9
844.486	131.75
844.662	2.73
844.838	78.51
845.013	107.18
845.189	64.17
845.365	58.03
845.541	-11.61
845.716	55.98
845.892	84.65
846.068	6.83
846.244	60.07
846.419	78.51
846.595	51.88
846.77	43.69
846.946	135.85
847.122	72.36
847.297	94.89
847.473	113.32
847.648	-11.61
847.824	41.64
847.999	4.78
848.175	29.35
848.35	152.23
848.526	82.6
848.701	29.35
848.876	86.7
849.052	39.59
849.227	90.79
849.403	49.83
849.578	64.17
849.753	37.55
849.929	8.87
850.104	80.55
850.279	121.51
850.454	47.79
850.63	49.83
850.805	35.5
850.98	86.7
851.155	72.36
851.33	133.8
851.505	15.02
851.681	72.36
851.856	45.74
852.031	-19.8
852.206	76.46
852.381	0.68
852.556	45.74
852.731	58.03
852.906	88.75
853.081	103.08
853.256	51.88
853.431	101.03
853.606	66.22
853.781	8.87
853.956	-7.51
854.131	72.36
854.305	-23.89
854.48	2.73
854.655	-5.46
854.83	-73.04
855.005	4.78
855.18	-25.94
855.354	-34.13
855.529	-23.89
855.704	-5.46
855.879	51.88
856.053	27.31
856.228	23.21
856.403	-25.94
856.577	90.79
856.752	12.97
856.926	113.32
857.101	53.93
857.276	41.64
857.45	-50.52
857.625	60.07
857.799	60.07
857.974	43.69
858.148	-97.62
858.323	23.21
858.497	-27.99
858.672	37.55
858.846	-5.46
859.02	-13.65
859.195	-48.47
859.369	-27.99
859.543	-38.23
859.718	55.98
859.892	21.16
860.066	86.7
860.241	43.69
860.415	60.07
860.589	17.07
860.763	4.78
860.938	17.07
861.112	29.35
861.286	49.83
861.46	-50.52
861.634	-38.23
861.808	84.65
861.982	15.02
862.157	17.07
862.331	60.07
862.505	12.97
862.679	-38.23
862.853	-42.32
863.027	19.11
863.201	53.93
863.375	17.07
863.549	12.97
863.722	29.35
863.896	-11.61
864.07	12.97
864.244	21.16
864.418	6.83
864.592	-1.37
864.766	41.64
864.939	-11.61
865.113	60.07
865.287	45.74
865.461	-5.46
865.634	35.5
865.808	-44.37
865.982	17.07
866.156	-30.04
866.329	-13.65
866.503	-15.7
866.676	92.84
866.85	70.31
867.024	41.64
867.197	70.31
867.371	-7.51
867.544	35.5
867.718	-44.37
867.891	39.59
868.065	-7.51
868.238	80.55
868.412	66.22
868.585	-13.65
868.759	-15.7
868.932	15.02
869.105	29.35
869.279	45.74
869.452	-15.7
869.625	41.64
869.799	25.26
869.972	-7.51
870.145	15.02
870.319	6.83
870.492	51.88
870.665	17.07
870.838	12.97
871.011	-3.41
871.185	-5.46
871.358	-13.65
871.531	-11.61
871.704	-77.14
871.877	12.97
872.05	-11.61
872.223	8.87
872.396	10.92
872.569	70.31
872.742	72.36
872.915	19.11
873.088	92.84
873.261	10.92
873.434	17.07
873.607	-17.75
873.78	64.17
873.953	-19.8
874.126	76.46
874.299	-1.37
874.471	-15.7
874.644	-15.7
874.817	-52.56
874.99	47.79
875.163	-48.47
875.335	107.18
875.508	15.02
875.681	21.16
875.853	-11.61
876.026	17.07
876.199	84.65
876.371	10.92
876.544	-40.28
876.717	-23.89
876.889	27.31
877.062	6.83
877.234	-36.18
877.407	49.83
877.579	37.55
877.752	84.65
877.924	107.18
878.097	39.59
878.269	27.31
878.442	25.26
878.614	37.55
878.786	74.41
878.959	8.87
879.131	6.83
879.303	-89.43
879.476	-85.33
879.648	-32.08
879.82	41.64
879.993	12.97
880.165	43.69
880.337	-34.13
880.509	45.74
880.681	-40.28
880.854	-13.65
881.026	82.6
881.198	23.21
881.37	-40.28
881.542	4.78
881.714	-48.47
881.886	76.46
882.058	51.88
882.23	47.79
882.402	-7.51
882.574	35.5
882.746	64.17
882.918	86.7
883.09	10.92
883.262	-97.62
883.434	-48.47
883.606	-7.51
883.778	-30.04
883.95	21.16
884.122	10.92
884.293	-44.37
884.465	33.45
884.637	35.5
884.809	4.78
884.98	-19.8
885.152	-7.51
885.324	68.27
885.496	-7.51
885.667	-25.94
885.839	35.5
886.011	0.68
886.182	47.79
886.354	2.73
886.525	-27.99
886.697	43.69
886.869	-46.42
887.04	0.68
887.212	-23.89
887.383	105.13
887.555	-56.66
887.726	-52.56
887.897	-23.89
888.069	33.45
888.24	-15.7
888.412	-36.18
888.583	33.45
888.754	6.83
888.926	-23.89
889.097	-15.7
889.268	-87.38
889.44	-30.04
889.611	-25.94
889.782	25.26
889.953	-105.81
890.125	80.55
890.296	-36.18
890.467	0.68
890.638	-58.71
890.809	-5.46
890.98	-9.56
891.151	-9.56
891.323	21.16
891.494	35.5
891.665	23.21
891.836	2.73
892.007	39.59
892.178	31.4
892.349	-19.8
892.52	-83.28
892.691	-71
892.862	-9.56
893.032	-42.32
893.203	-23.89
893.374	8.87
893.545	-13.65
893.716	-13.65
893.887	70.31
894.057	-36.18
894.228	6.83
894.399	-48.47
894.57	80.55
894.74	-38.23
894.911	33.45
895.082	-13.65
895.253	-27.99
895.423	4.78
895.594	17.07
895.764	-38.23
895.935	-64.85
896.106	21.16
896.276	-17.75
896.447	-5.46
896.617	-52.56
896.788	-62.8
896.958	-52.56
897.129	-93.52
897.299	-64.85
897.47	58.03
897.64	70.31
897.81	-38.23
897.981	2.73
898.151	-9.56
898.322	39.59
898.492	17.07
898.662	0.68
898.832	12.97
899.003	17.07
899.173	4.78
899.343	-30.04
899.513	-42.32
