Data from USB4F104151__26__12-41-09-085.txt Node

Date: Fri Mar 14 12:41:09 EDT 2025
User: louis
Spectrometer: USB4F10415
Trigger mode: 4
Integration Time (sec): 3.000000E-2
Scans to average: 1
Electric dark correction enabled: true
Nonlinearity correction enabled: false
Boxcar width: 0
XAxis mode: Wavelengths
Number of Pixels in Spectrum: 3648
>>>>>Begin Spectral Data<<<<<
178.204	-141.31
178.424	-141.31
178.644	-141.31
178.864	-169.98
179.084	-137.21
179.304	-2.05
179.524	-14.34
179.744	16.38
179.964	81.92
180.184	16.38
180.404	-67.58
180.624	14.34
180.844	-57.34
181.064	-26.62
181.283	8.19
181.503	18.43
181.723	12.29
181.943	-6.14
182.163	69.63
182.383	59.39
182.602	-28.67
182.822	36.86
183.042	16.38
183.262	8.19
183.482	10.24
183.701	45.06
183.921	38.91
184.141	69.63
184.361	43.01
184.58	10.24
184.8	8.19
185.02	45.06
185.239	53.25
185.459	55.3
185.679	51.2
185.898	16.38
186.118	77.82
186.338	110.59
186.557	81.92
186.777	108.54
186.997	40.96
187.216	28.67
187.436	61.44
187.655	67.58
187.875	22.53
188.095	-45.06
188.314	57.34
188.534	-22.53
188.753	-6.14
188.973	-40.96
189.192	40.96
189.412	77.82
189.631	114.69
189.851	-12.29
190.07	149.5
190.29	8.19
190.509	32.77
190.729	6.14
190.948	88.06
191.168	145.41
191.387	114.69
191.607	24.58
191.826	34.82
192.045	0
192.265	18.43
192.484	34.82
192.704	49.15
192.923	55.3
193.142	92.16
193.362	16.38
193.581	94.21
193.8	79.87
194.02	79.87
194.239	83.97
194.458	18.43
194.678	57.34
194.897	-2.05
195.116	-4.1
195.335	57.34
195.555	-8.19
195.774	86.01
195.993	69.63
196.212	-2.05
196.432	12.29
196.651	14.34
196.87	22.53
197.089	108.54
197.308	59.39
197.528	36.86
197.747	57.34
197.966	-32.77
198.185	65.54
198.404	88.06
198.623	-32.77
198.842	75.77
199.062	75.77
199.281	65.54
199.5	-14.34
199.719	14.34
199.938	36.86
200.157	32.77
200.376	110.59
200.595	67.58
200.814	4.1
201.033	75.77
201.252	108.54
201.471	81.92
201.69	57.34
201.909	38.91
202.128	77.82
202.347	88.06
202.566	18.43
202.785	38.91
203.004	57.34
203.223	26.62
203.442	63.49
203.661	24.58
203.879	49.15
204.098	124.93
204.317	-34.82
204.536	73.73
204.755	20.48
204.974	43.01
205.193	133.12
205.411	94.21
205.63	-10.24
205.849	79.87
206.068	-38.91
206.287	67.58
206.505	86.01
206.724	55.3
206.943	-24.58
207.162	79.87
207.381	34.82
207.599	43.01
207.818	59.39
208.037	43.01
208.255	53.25
208.474	36.86
208.693	24.58
208.911	61.44
209.13	36.86
209.349	77.82
209.567	32.77
209.786	102.4
210.005	88.06
210.223	-10.24
210.442	-24.58
210.661	98.3
210.879	92.16
211.098	104.45
211.316	81.92
211.535	79.87
211.753	96.25
211.972	88.06
212.191	22.53
212.409	0
212.628	57.34
212.846	32.77
213.065	30.72
213.283	157.69
213.502	112.64
213.72	30.72
213.938	16.38
214.157	59.39
214.375	83.97
214.594	40.96
214.812	26.62
215.031	47.1
215.249	18.43
215.467	-28.67
215.686	75.77
215.904	79.87
216.122	61.44
216.341	57.34
216.559	73.73
216.778	51.2
216.996	114.69
217.214	18.43
217.432	38.91
217.651	-14.34
217.869	77.82
218.087	20.48
218.306	40.96
218.524	-20.48
218.742	-12.29
218.96	61.44
219.179	88.06
219.397	90.11
219.615	4.1
219.833	73.73
220.051	26.62
220.27	55.3
220.488	49.15
220.706	24.58
220.924	4.1
221.142	26.62
221.36	75.77
221.578	57.34
221.796	-4.1
222.015	28.67
222.233	22.53
222.451	75.77
222.669	18.43
222.887	116.73
223.105	4.1
223.323	57.34
223.541	57.34
223.759	83.97
223.977	-22.53
224.195	172.03
224.413	102.4
224.631	38.91
224.849	26.62
225.067	116.73
225.285	79.87
225.503	65.54
225.721	22.53
225.939	-24.58
226.157	-6.14
226.375	51.2
226.592	-10.24
226.81	57.34
227.028	69.63
227.246	106.49
227.464	2.05
227.682	57.34
227.9	-2.05
228.117	-14.34
228.335	45.06
228.553	88.06
228.771	92.16
228.989	51.2
229.206	90.11
229.424	2.05
229.642	-2.05
229.86	0
230.077	65.54
230.295	38.91
230.513	30.72
230.731	30.72
230.948	36.86
231.166	122.88
231.384	90.11
231.601	67.58
231.819	49.15
232.037	61.44
232.254	-32.77
232.472	34.82
232.689	59.39
232.907	63.49
233.125	2.05
233.342	6.14
233.56	36.86
233.777	45.06
233.995	16.38
234.213	49.15
234.43	20.48
234.648	67.58
234.865	14.34
235.083	92.16
235.3	34.82
235.518	63.49
235.735	43.01
235.953	100.35
236.17	65.54
236.388	49.15
236.605	92.16
236.822	174.08
237.04	-36.86
237.257	4.1
237.475	32.77
237.692	55.3
237.909	65.54
238.127	45.06
238.344	-8.19
238.562	116.73
238.779	69.63
238.996	-100.35
239.214	36.86
239.431	86.01
239.648	2.05
239.865	79.87
240.083	-12.29
240.3	92.16
240.517	-10.24
240.735	51.2
240.952	126.97
241.169	14.34
241.386	-2.05
241.603	16.38
241.821	36.86
242.038	51.2
242.255	28.67
242.472	-18.43
242.689	92.16
242.907	124.93
243.124	51.2
243.341	63.49
243.558	16.38
243.775	28.67
243.992	-40.96
244.209	47.1
244.426	83.97
244.643	63.49
244.86	-12.29
245.078	106.49
245.295	102.4
245.512	96.25
245.729	69.63
245.946	65.54
246.163	53.25
246.38	24.58
246.597	118.78
246.814	30.72
247.031	-20.48
247.248	59.39
247.464	90.11
247.681	83.97
247.898	26.62
248.115	55.3
248.332	57.34
248.549	69.63
248.766	67.58
248.983	73.73
249.2	26.62
249.417	49.15
249.633	34.82
249.85	69.63
250.067	-47.1
250.284	30.72
250.501	126.97
250.717	73.73
250.934	43.01
251.151	83.97
251.368	12.29
251.585	180.22
251.801	22.53
252.018	57.34
252.235	81.92
252.451	47.1
252.668	57.34
252.885	90.11
253.102	59.39
253.318	38.91
253.535	116.73
253.752	65.54
253.968	22.53
254.185	79.87
254.401	45.06
254.618	61.44
254.835	55.3
255.051	114.69
255.268	45.06
255.484	69.63
255.701	-2.05
255.917	38.91
256.134	36.86
256.351	-2.05
256.567	-4.1
256.784	110.59
257	24.58
257.217	79.87
257.433	18.43
257.65	79.87
257.866	108.54
258.082	2.05
258.299	26.62
258.515	114.69
258.732	71.68
258.948	73.73
259.165	40.96
259.381	20.48
259.597	12.29
259.814	4.1
260.03	10.24
260.246	102.4
260.463	8.19
260.679	61.44
260.895	6.14
261.112	22.53
261.328	38.91
261.544	69.63
261.761	116.73
261.977	-2.05
262.193	-18.43
262.409	96.25
262.626	49.15
262.842	61.44
263.058	22.53
263.274	59.39
263.49	20.48
263.707	77.82
263.923	59.39
264.139	34.82
264.355	30.72
264.571	83.97
264.787	112.64
265.004	24.58
265.22	24.58
265.436	-10.24
265.652	131.07
265.868	69.63
266.084	28.67
266.3	-6.14
266.516	8.19
266.732	96.25
266.948	116.73
267.164	178.17
267.38	98.3
267.596	53.25
267.812	36.86
268.028	57.34
268.244	94.21
268.46	102.4
268.676	49.15
268.892	96.25
269.108	22.53
269.324	63.49
269.54	10.24
269.756	24.58
269.972	-32.77
270.188	57.34
270.403	-16.38
270.619	67.58
270.835	-4.1
271.051	59.39
271.267	-36.86
271.483	-6.14
271.698	24.58
271.914	92.16
272.13	53.25
272.346	69.63
272.562	26.62
272.777	73.73
272.993	18.43
273.209	34.82
273.425	-24.58
273.64	49.15
273.856	73.73
274.072	61.44
274.287	24.58
274.503	81.92
274.719	61.44
274.934	88.06
275.15	55.3
275.366	28.67
275.581	-12.29
275.797	94.21
276.012	67.58
276.228	16.38
276.444	120.83
276.659	178.17
276.875	-12.29
277.09	59.39
277.306	59.39
277.521	79.87
277.737	53.25
277.952	43.01
278.168	65.54
278.383	69.63
278.599	16.38
278.814	40.96
279.03	47.1
279.245	114.69
279.461	38.91
279.676	77.82
279.892	34.82
280.107	14.34
280.322	90.11
280.538	14.34
280.753	-45.06
280.969	47.1
281.184	-26.62
281.399	169.98
281.615	34.82
281.83	100.35
282.045	20.48
282.26	38.91
282.476	30.72
282.691	43.01
282.906	86.01
283.122	14.34
283.337	-18.43
283.552	0
283.767	22.53
283.983	106.49
284.198	36.86
284.413	79.87
284.628	-32.77
284.843	75.77
285.058	63.49
285.274	94.21
285.489	-22.53
285.704	108.54
285.919	108.54
286.134	16.38
286.349	120.83
286.564	59.39
286.779	129.02
286.995	38.91
287.21	-24.58
287.425	110.59
287.64	61.44
287.855	51.2
288.07	-22.53
288.285	71.68
288.5	73.73
288.715	77.82
288.93	14.34
289.145	0
289.36	112.64
289.575	22.53
289.79	73.73
290.004	63.49
290.219	104.45
290.434	47.1
290.649	57.34
290.864	106.49
291.079	53.25
291.294	53.25
291.509	-12.29
291.724	40.96
291.938	24.58
292.153	73.73
292.368	47.1
292.583	71.68
292.798	108.54
293.012	83.97
293.227	67.58
293.442	20.48
293.657	96.25
293.871	75.77
294.086	49.15
294.301	137.21
294.516	26.62
294.73	14.34
294.945	143.36
295.16	75.77
295.374	55.3
295.589	43.01
295.804	0
296.018	174.08
296.233	92.16
296.447	122.88
296.662	43.01
296.877	81.92
297.091	57.34
297.306	59.39
297.52	81.92
297.735	79.87
297.949	112.64
298.164	38.91
298.378	0
298.593	59.39
298.807	73.73
299.022	43.01
299.236	65.54
299.451	4.1
299.665	32.77
299.88	69.63
300.094	43.01
300.309	-28.67
300.523	36.86
300.737	75.77
300.952	112.64
301.166	24.58
301.381	12.29
301.595	32.77
301.809	69.63
302.024	57.34
302.238	20.48
302.452	116.73
302.667	51.2
302.881	96.25
303.095	51.2
303.309	43.01
303.524	26.62
303.738	-18.43
303.952	43.01
304.166	83.97
304.381	14.34
304.595	100.35
304.809	-65.54
305.023	2.05
305.237	16.38
305.452	45.06
305.666	79.87
305.88	83.97
306.094	131.07
306.308	67.58
306.522	28.67
306.736	100.35
306.95	55.3
307.164	102.4
307.379	36.86
307.593	36.86
307.807	102.4
308.021	6.14
308.235	53.25
308.449	92.16
308.663	90.11
308.877	98.3
309.091	-2.05
309.305	135.17
309.519	34.82
309.733	79.87
309.947	36.86
310.161	98.3
310.374	-2.05
310.588	-12.29
310.802	14.34
311.016	59.39
311.23	16.38
311.444	139.26
311.658	10.24
311.872	61.44
312.085	129.02
312.299	98.3
312.513	100.35
312.727	49.15
312.941	126.97
313.154	12.29
313.368	32.77
313.582	92.16
313.796	22.53
314.009	98.3
314.223	94.21
314.437	124.93
314.651	90.11
314.864	65.54
315.078	98.3
315.292	2.05
315.505	51.2
315.719	2.05
315.933	106.49
316.146	2.05
316.36	4.1
316.573	122.88
316.787	63.49
317.001	106.49
317.214	12.29
317.428	26.62
317.641	6.14
317.855	67.58
318.068	49.15
318.282	141.31
318.495	174.08
318.709	88.06
318.922	126.97
319.136	145.41
319.349	63.49
319.563	61.44
319.776	86.01
319.99	-6.14
320.203	57.34
320.417	59.39
320.63	92.16
320.843	178.17
321.057	96.25
321.27	116.73
321.483	67.58
321.697	43.01
321.91	45.06
322.124	77.82
322.337	75.77
322.55	-38.91
322.763	100.35
322.977	71.68
323.19	57.34
323.403	108.54
323.617	16.38
323.83	159.74
324.043	-6.14
324.256	40.96
324.469	83.97
324.683	47.1
324.896	51.2
325.109	-8.19
325.322	16.38
325.535	81.92
325.748	92.16
325.962	116.73
326.175	-6.14
326.388	38.91
326.601	73.73
326.814	59.39
327.027	86.01
327.24	81.92
327.453	43.01
327.666	49.15
327.879	90.11
328.092	126.97
328.305	-26.62
328.518	16.38
328.731	110.59
328.944	16.38
329.157	63.49
329.37	53.25
329.583	110.59
329.796	69.63
330.009	51.2
330.222	65.54
330.435	51.2
330.648	65.54
330.861	10.24
331.073	67.58
331.286	55.3
331.499	86.01
331.712	8.19
331.925	98.3
332.138	-6.14
332.35	112.64
332.563	104.45
332.776	98.3
332.989	75.77
333.202	-26.62
333.414	83.97
333.627	18.43
333.84	32.77
334.053	57.34
334.265	4.1
334.478	108.54
334.691	69.63
334.903	90.11
335.116	22.53
335.329	112.64
335.541	59.39
335.754	139.26
335.966	86.01
336.179	51.2
336.392	61.44
336.604	-4.1
336.817	77.82
337.029	45.06
337.242	86.01
337.454	69.63
337.667	141.31
337.88	118.78
338.092	36.86
338.305	71.68
338.517	-4.1
338.729	102.4
338.942	106.49
339.154	14.34
339.367	26.62
339.579	94.21
339.792	12.29
340.004	92.16
340.217	61.44
340.429	79.87
340.641	40.96
340.854	81.92
341.066	40.96
341.278	98.3
341.491	114.69
341.703	38.91
341.915	45.06
342.128	92.16
342.34	69.63
342.552	32.77
342.764	122.88
342.977	61.44
343.189	45.06
343.401	55.3
343.613	26.62
343.826	92.16
344.038	28.67
344.25	34.82
344.462	36.86
344.674	126.97
344.886	47.1
345.099	110.59
345.311	-26.62
345.523	75.77
345.735	8.19
345.947	129.02
346.159	69.63
346.371	45.06
346.583	14.34
346.795	135.17
347.007	124.93
347.219	108.54
347.431	34.82
347.643	86.01
347.855	69.63
348.067	151.55
348.279	8.19
348.491	77.82
348.703	18.43
348.915	94.21
349.127	98.3
349.339	73.73
349.551	-38.91
349.763	65.54
349.975	96.25
350.187	92.16
350.399	106.49
350.61	151.55
350.822	51.2
351.034	59.39
351.246	133.12
351.458	55.3
351.669	67.58
351.881	55.3
352.093	88.06
352.305	4.1
352.517	57.34
352.728	34.82
352.94	69.63
353.152	63.49
353.363	-24.58
353.575	94.21
353.787	92.16
353.999	92.16
354.21	73.73
354.422	-16.38
354.633	-30.72
354.845	104.45
355.057	65.54
355.268	90.11
355.48	2.05
355.692	122.88
355.903	94.21
356.115	67.58
356.326	43.01
356.538	59.39
356.749	108.54
356.961	51.2
357.172	98.3
357.384	118.78
357.595	61.44
357.807	83.97
358.018	18.43
358.23	75.77
358.441	104.45
358.653	34.82
358.864	-12.29
359.075	100.35
359.287	90.11
359.498	83.97
359.709	10.24
359.921	108.54
360.132	88.06
360.344	-2.05
360.555	53.25
360.766	145.41
360.977	53.25
361.189	86.01
361.4	32.77
361.611	133.12
361.823	-10.24
362.034	141.31
362.245	-6.14
362.456	108.54
362.667	129.02
362.879	16.38
363.09	47.1
363.301	112.64
363.512	92.16
363.723	26.62
363.935	63.49
364.146	92.16
364.357	118.78
364.568	98.3
364.779	61.44
364.99	98.3
365.201	-2.05
365.412	81.92
365.623	57.34
365.834	106.49
366.045	96.25
366.256	81.92
366.467	67.58
366.678	88.06
366.889	53.25
367.1	67.58
367.311	63.49
367.522	18.43
367.733	86.01
367.944	98.3
368.155	100.35
368.366	71.68
368.577	49.15
368.788	77.82
368.999	112.64
369.209	100.35
369.42	145.41
369.631	172.03
369.842	77.82
370.053	55.3
370.264	98.3
370.474	69.63
370.685	122.88
370.896	69.63
371.107	92.16
371.317	59.39
371.528	22.53
371.739	114.69
371.95	98.3
372.16	65.54
372.371	61.44
372.582	47.1
372.792	131.07
373.003	73.73
373.214	73.73
373.424	118.78
373.635	63.49
373.846	24.58
374.056	77.82
374.267	71.68
374.477	79.87
374.688	71.68
374.898	40.96
375.109	110.59
375.319	59.39
375.53	114.69
375.74	12.29
375.951	43.01
376.161	61.44
376.372	55.3
376.582	106.49
376.793	98.3
377.003	88.06
377.214	102.4
377.424	90.11
377.635	73.73
377.845	20.48
378.055	135.17
378.266	73.73
378.476	32.77
378.686	90.11
378.897	75.77
379.107	88.06
379.317	137.21
379.528	65.54
379.738	112.64
379.948	-20.48
380.158	133.12
380.369	77.82
380.579	86.01
380.789	34.82
380.999	67.58
381.21	81.92
381.42	108.54
381.63	4.1
381.84	65.54
382.05	122.88
382.261	45.06
382.471	71.68
382.681	30.72
382.891	120.83
383.101	145.41
383.311	63.49
383.521	81.92
383.731	133.12
383.941	61.44
384.151	100.35
384.361	67.58
384.571	124.93
384.781	47.1
384.991	106.49
385.201	92.16
385.411	169.98
385.621	75.77
385.831	61.44
386.041	126.97
386.251	2.05
386.461	75.77
386.671	2.05
386.881	110.59
387.091	112.64
387.301	38.91
387.511	86.01
387.72	165.89
387.93	71.68
388.14	73.73
388.35	63.49
388.56	155.65
388.769	86.01
388.979	96.25
389.189	131.07
389.399	81.92
389.609	77.82
389.818	122.88
390.028	94.21
390.238	106.49
390.447	69.63
390.657	77.82
390.867	75.77
391.076	71.68
391.286	77.82
391.496	61.44
391.705	126.97
391.915	129.02
392.125	2.05
392.334	69.63
392.544	110.59
392.753	126.97
392.963	45.06
393.172	79.87
393.382	124.93
393.591	131.07
393.801	106.49
394.01	112.64
394.22	120.83
394.429	83.97
394.639	83.97
394.848	137.21
395.058	86.01
395.267	96.25
395.477	135.17
395.686	81.92
395.895	155.65
396.105	129.02
396.314	137.21
396.524	100.35
396.733	106.49
396.942	67.58
397.152	169.98
397.361	96.25
397.57	174.08
397.78	124.93
397.989	143.36
398.198	137.21
398.407	100.35
398.617	122.88
398.826	122.88
399.035	-2.05
399.244	159.74
399.453	94.21
399.663	102.4
399.872	118.78
400.081	90.11
400.29	174.08
400.499	88.06
400.708	192.51
400.917	172.03
401.127	129.02
401.336	104.45
401.545	176.13
401.754	186.37
401.963	141.31
402.172	69.63
402.381	51.2
402.59	118.78
402.799	176.13
403.008	145.41
403.217	225.28
403.426	245.76
403.635	169.98
403.844	174.08
404.053	159.74
404.262	114.69
404.471	194.56
404.68	202.75
404.888	200.7
405.097	184.32
405.306	184.32
405.515	178.17
405.724	135.17
405.933	237.56
406.142	194.56
406.35	198.65
406.559	137.21
406.768	258.04
406.977	251.9
407.185	239.61
407.394	229.37
407.603	266.24
407.812	282.62
408.02	286.72
408.229	270.33
408.438	239.61
408.646	339.96
408.855	258.04
409.064	299
409.272	309.24
409.481	352.25
409.69	305.15
409.898	256
410.107	335.87
410.315	380.92
410.524	362.49
410.733	321.53
410.941	419.83
411.15	411.64
411.358	362.49
411.567	376.83
411.775	475.13
411.984	534.52
412.192	587.77
412.401	464.89
412.609	571.38
412.818	643.06
413.026	573.43
413.234	641.01
413.443	659.45
413.651	575.48
413.86	589.82
414.068	684.02
414.276	776.18
414.485	681.97
414.693	722.93
414.901	772.08
415.11	823.28
415.318	761.84
415.526	729.08
415.734	897.01
415.943	933.87
416.151	868.34
416.359	827.38
416.567	966.64
416.776	985.07
416.984	1026.03
417.192	1097.71
417.4	1071.09
417.608	1091.57
417.817	1142.77
418.025	1185.77
418.233	1257.45
418.441	1226.73
418.649	1312.75
418.857	1400.81
419.065	1492.97
419.273	1531.88
419.481	1488.87
419.689	1751.01
419.897	1669.09
420.105	1773.54
420.313	1783.78
420.521	1882.08
420.729	1845.22
420.937	1886.18
421.145	2009.06
421.353	2070.5
421.561	2078.69
421.769	2105.31
421.977	2232.29
422.185	2244.57
422.393	2412.51
422.601	2570.2
422.809	2598.87
423.017	2535.39
423.224	2512.86
423.432	2826.2
423.64	2809.81
423.848	3125.2
424.056	2967.51
424.263	3153.87
424.471	3276.75
424.679	3311.57
424.887	3454.92
425.094	3512.27
425.302	3456.97
425.51	3647.43
425.718	3751.88
425.925	3792.84
426.133	3952.58
426.341	4175.81
426.548	4364.22
426.756	4298.69
426.964	4501.44
427.171	4698.04
427.379	4898.74
427.586	4736.95
427.794	4929.46
428.001	5164.98
428.209	5570.47
428.417	5263.28
428.624	5943.21
428.832	5679.02
429.039	5730.22
429.247	5717.93
429.454	6326.18
429.662	6750.1
429.869	6317.98
430.076	6780.82
430.284	6442.91
430.491	6813.59
430.699	7198.61
430.906	6954.9
431.114	7311.25
431.321	7536.52
431.528	7786.38
431.736	8228.74
431.943	8669.05
432.15	8290.18
432.358	8531.84
432.565	8908.66
432.772	8783.74
432.979	9217.91
433.187	9568.11
433.394	9510.77
433.601	10196.84
433.808	10313.57
434.016	10129.25
434.223	10633.05
434.43	11210.58
434.637	10858.33
434.844	11593.55
435.052	11884.36
435.259	11790.16
435.466	11886.41
435.673	11671.37
435.88	12640.06
436.087	13252.41
436.294	13295.41
436.501	12973.88
436.708	13295.41
436.915	13764.4
437.122	14341.93
437.329	14026.54
437.537	14542.63
437.743	14815.01
437.95	14610.21
438.157	15744.78
438.364	15838.99
438.571	16041.74
438.778	16264.97
438.985	17577.72
439.192	16772.86
439.399	17524.47
439.606	17229.56
439.813	18015.98
440.02	19187.42
440.227	18671.33
440.433	18679.52
440.64	19209.95
440.847	19332.82
441.054	19779.28
441.261	20881.09
441.467	20678.34
441.674	21024.45
441.881	21935.79
442.088	21710.52
442.294	21444.28
442.501	22025.9
442.708	22412.97
442.914	23402.14
443.121	24442.51
443.328	23717.53
443.534	25450.11
443.741	24923.78
443.948	24585.86
444.154	26353.26
444.361	25951.86
444.568	26287.73
444.774	26205.81
444.981	26580.59
445.187	27620.95
445.394	28583.5
445.6	28417.61
445.807	30903.85
446.013	29371.97
446.22	30076.47
446.426	31446.56
446.633	31360.55
446.839	33076.74
447.046	31401.5
447.252	33351.17
447.459	33441.28
447.665	33074.7
447.871	34387.44
448.078	35735.01
448.284	34151.93
448.491	35200.49
448.697	36459.99
448.903	36916.68
449.11	37291.46
449.316	36343.25
449.522	37238.22
449.728	38450.61
449.935	38540.72
450.141	38569.4
450.347	39507.37
450.553	38237.62
450.76	38868.4
450.966	39710.11
451.172	39486.89
451.378	40283.55
451.584	39804.32
451.791	40342.94
451.997	40240.54
452.203	40846.74
452.409	41551.24
452.615	41006.48
452.821	39609.76
453.027	39222.7
453.233	41489.8
453.44	39677.35
453.646	40045.98
453.852	40441.24
454.058	40881.55
454.264	39665.06
454.47	40504.73
454.676	39640.48
454.882	40697.23
455.088	37354.95
455.294	37811.65
455.5	38555.06
455.705	38741.42
455.911	37244.36
456.117	36490.71
456.323	36312.53
456.529	34002.43
456.735	35626.46
456.941	34924.01
457.147	34215.41
457.352	33324.55
457.558	32630.29
457.764	32925.19
457.97	32290.32
458.176	31647.26
458.381	31571.49
458.587	30305.84
458.793	30039.61
458.999	28407.37
459.204	30504.49
459.41	29888.06
459.616	27618.91
459.821	27901.53
460.027	27522.65
460.233	27186.79
460.438	26023.54
460.644	25968.24
460.85	25032.32
461.055	24645.26
461.261	24438.41
461.466	22228.65
461.672	21700.28
461.878	23637.66
462.083	22027.95
462.289	21479.1
462.494	21130.94
462.7	20342.47
462.905	19969.74
463.111	20565.7
463.316	20530.89
463.522	20074.19
463.727	20045.52
463.932	20121.29
464.138	20061.9
464.343	20047.57
464.549	19312.35
464.754	20197.07
464.959	19644.12
465.165	19736.27
465.37	19117.79
465.575	18478.82
465.781	19089.12
465.986	19472.09
466.191	18448.1
466.397	18384.62
466.602	17366.78
466.807	18011.89
467.012	17927.92
467.218	17999.6
467.423	17606.39
467.628	17682.16
467.833	18585.32
468.038	17823.47
468.244	17354.49
468.449	17936.11
468.654	17735.41
468.859	17467.13
469.064	17305.34
469.269	16664.32
469.474	16860.93
469.679	16889.6
469.885	16766.72
470.09	17022.72
470.295	16459.52
470.5	16103.18
470.705	16449.28
470.91	15927.05
471.115	15716.11
471.32	15994.64
471.525	15884.05
471.73	15441.68
471.935	15519.51
472.139	15085.34
472.344	15247.13
472.549	15083.29
472.754	14905.12
472.959	14655.26
473.164	14253.86
473.369	14331.69
473.574	14659.36
473.778	14419.75
473.983	14454.56
474.188	14360.36
474.393	13682.48
474.598	13731.63
474.802	13586.22
475.007	13563.7
475.212	13334.32
475.417	12957.5
475.621	12791.61
475.826	13227.83
476.031	12564.29
476.235	12515.14
476.44	12953.4
476.645	12306.24
476.849	12478.27
477.054	12248.9
477.259	12162.89
477.463	12220.23
477.668	11812.68
477.872	11935.56
478.077	11769.68
478.282	11585.36
478.486	11433.81
478.691	11272.02
478.895	11341.65
479.1	11265.88
479.304	11431.76
479.509	10889.05
479.713	11140.95
479.918	10848.09
480.122	10571.61
480.326	10901.34
480.531	10870.62
480.735	10686.3
480.94	10841.95
481.144	11284.31
481.348	10526.56
481.553	10413.92
481.757	10512.22
481.961	10622.81
482.166	10927.96
482.37	10747.74
482.574	10125.16
482.778	10501.98
482.983	10596.19
483.187	10547.04
483.391	10628.96
483.595	10266.47
483.8	10288.99
484.004	10465.12
484.208	10452.83
484.412	10418.02
484.616	10612.57
484.821	10178.4
485.025	10383.2
485.229	10377.06
485.433	10301.28
485.637	10346.34
485.841	10321.76
486.045	10321.76
486.249	10389.35
486.453	10381.15
486.657	10332
486.861	10301.28
487.065	10168.16
487.269	10180.45
487.473	10129.25
487.677	10391.39
487.881	10780.51
488.085	10264.42
488.289	10360.67
488.493	10381.15
488.697	10618.72
488.901	10475.36
489.105	10291.04
489.309	10571.61
489.512	10338.15
489.716	10559.33
489.92	10448.74
490.124	10487.65
490.328	10592.09
490.531	10635.1
490.735	10710.88
490.939	10661.73
491.143	10733.4
491.346	10821.47
491.55	10915.67
491.754	10643.29
491.958	10796.89
492.161	10843.99
492.365	10958.68
492.569	10835.8
492.772	10825.56
492.976	10964.82
493.18	10889.05
493.383	11063.13
493.587	11325.27
493.79	11401.04
493.994	11290.45
494.197	11282.26
494.401	11376.47
494.605	11548.5
494.808	11640.65
495.012	11609.93
495.215	11648.85
495.419	11837.26
495.622	11851.6
495.825	11953.99
496.029	12046.15
496.232	12199.75
496.436	12031.82
496.639	12234.57
496.843	12599.1
497.046	12572.48
497.249	12760.89
497.453	12865.34
497.656	12724.03
497.859	13047.61
498.063	13111.1
498.266	13162.3
498.469	13485.87
498.673	13494.07
498.876	13651.76
499.079	13834.03
499.282	13786.93
499.485	14384.93
499.689	14251.81
499.892	14606.11
500.095	14419.75
500.298	14849.82
500.501	14485.28
500.705	15210.26
500.908	15017.75
501.111	15470.36
501.314	15388.44
501.517	15519.51
501.72	15763.22
501.923	16037.64
502.126	16117.51
502.329	16264.97
502.532	16406.28
502.735	16824.06
502.938	16715.52
503.141	16672.51
503.344	17024.76
503.547	17014.52
503.75	17397.49
503.953	17766.13
504.156	17889.01
504.359	18267.88
504.562	18208.49
504.765	18362.09
504.968	18597.6
505.17	18839.26
505.373	18560.74
505.576	19275.48
505.779	19453.66
505.982	19386.07
506.185	19592.92
506.387	20006.61
506.59	19918.54
506.793	20395.72
506.996	20436.68
507.198	20942.53
507.401	20551.37
507.604	20999.87
507.807	21276.35
508.009	21440.18
508.212	21761.72
508.415	21950.13
508.617	22107.82
508.82	22490.79
509.022	22298.28
509.225	22836.9
509.428	23295.64
509.63	23029.41
509.833	23570.07
510.035	23680.66
510.238	23563.93
510.44	24276.62
510.643	24327.82
510.845	24370.83
511.048	24374.92
511.25	24843.91
511.453	25147.01
511.655	25687.67
511.858	25427.58
512.06	25411.2
512.262	25929.33
512.465	26117.75
512.667	26381.93
512.87	26687.08
513.072	26519.15
513.274	27059.81
513.477	27461.21
513.679	27565.66
513.881	27717.21
514.084	27991.64
514.286	28098.13
514.488	28640.84
514.69	29111.88
514.893	29105.73
515.095	29167.17
515.297	29226.56
515.499	29226.56
515.701	29707.83
515.904	30099
516.106	30287.41
516.308	30244.4
516.51	31069.73
516.712	30920.23
516.914	31243.81
517.116	31434.27
517.318	31749.66
517.52	31874.59
517.722	32118.29
517.925	32384.53
518.127	32849.42
518.329	32923.15
518.531	32734.73
518.733	33918.46
518.935	33717.76
519.136	33897.98
519.338	34430.45
519.54	34508.27
519.742	34389.49
519.944	34606.58
520.146	35628.51
520.348	35661.28
520.55	35792.35
520.752	35980.76
520.954	36359.64
521.155	35630.56
521.357	36302.29
521.559	36574.67
521.761	37230.02
521.963	37422.53
522.164	37432.77
522.366	37424.58
522.568	37875.13
522.77	37930.43
522.971	38878.64
523.173	38264.25
523.375	38688.18
523.576	38720.95
523.778	39103.92
523.98	38839.73
524.181	39368.1
524.383	39277.99
524.584	39771.55
524.786	39851.42
524.988	39626.15
525.189	40068.51
525.391	40396.18
525.592	40062.36
525.794	40701.33
525.995	40420.76
526.197	41090.44
526.398	41168.27
526.6	41139.6
526.801	41176.46
527.003	41264.52
527.204	41520.52
527.406	42143.1
527.607	41719.17
527.808	42315.13
528.01	41108.88
528.211	42198.4
528.412	42460.54
528.614	42022.27
528.815	42386.81
529.016	42847.6
529.218	42370.43
529.419	42554.74
529.62	42556.79
529.822	42610.04
530.023	42935.66
530.224	43122.03
530.425	42866.03
530.626	42587.51
530.828	42386.81
531.029	43218.28
531.23	42780.02
531.431	43203.95
531.632	43001.2
531.833	43285.87
532.035	42890.61
532.236	43009.39
532.437	43494.76
532.638	42982.77
532.839	43701.61
533.04	43683.17
533.241	43373.93
533.442	43976.03
533.643	43416.94
533.844	43062.64
534.045	43394.41
534.246	43259.24
534.447	43890.02
534.648	43302.25
534.849	43394.41
535.05	42970.48
535.251	43459.94
535.451	43267.44
535.652	43683.17
535.853	43416.94
536.054	43236.72
536.255	43609.45
536.456	43001.2
536.657	43795.81
536.857	43578.73
537.058	43357.55
537.259	43466.09
537.46	43920.74
537.66	43214.19
537.861	42816.88
538.062	43056.49
538.263	43306.35
538.463	43478.38
538.664	43496.81
538.865	43275.63
539.065	43433.32
539.266	42857.84
539.466	43332.97
539.667	42909.04
539.868	43939.17
540.068	43029.87
540.269	43324.78
540.469	43349.35
540.67	43423.08
540.87	43253.1
541.071	43015.54
541.271	43318.63
541.472	43136.37
541.672	43349.35
541.873	42773.88
542.073	42417.53
542.274	43507.05
542.474	43046.26
542.675	43003.25
542.875	43349.35
543.075	42810.74
543.276	42663.28
543.476	43320.68
543.676	43140.46
543.877	43117.93
544.077	43025.78
544.277	42687.86
544.478	42651
544.678	43345.26
544.878	42890.61
545.078	42984.82
545.279	42599.8
545.479	42689.91
545.679	42743.16
545.879	42931.57
546.079	42952.05
546.28	43070.83
546.48	42526.07
546.68	42284.41
546.88	43091.31
547.08	42767.73
547.28	42524.02
547.48	41993.6
547.68	42952.05
547.88	42548.6
548.081	42820.98
548.281	42818.93
548.481	42642.81
548.681	42952.05
548.881	42626.42
549.081	42339.71
549.28	42519.93
549.48	42458.49
549.68	42247.55
549.88	42636.66
550.08	42057.09
550.28	42859.89
550.48	42452.34
550.68	42638.71
550.88	42276.22
551.08	42685.81
551.279	42427.77
551.479	42476.92
551.679	42347.9
551.879	42184.06
552.079	42648.95
552.278	41987.46
552.478	42605.94
552.678	42276.22
552.878	42421.62
553.077	42366.33
553.277	42118.53
553.477	42280.31
553.676	42032.51
553.876	42018.17
554.076	41971.07
554.275	42087.81
554.475	41631.11
554.674	42515.83
554.874	41934.21
555.074	41936.26
555.273	41883.01
555.473	42536.31
555.672	41383.3
555.872	42009.98
556.071	41780.61
556.271	42526.07
556.47	41936.26
556.67	41411.98
556.869	41725.32
557.068	42028.41
557.268	41416.07
557.467	41926.02
557.667	41399.69
557.866	41381.26
558.065	41287.05
558.265	41252.23
558.464	41414.02
558.663	41203.08
558.863	40846.74
559.062	41768.32
559.261	40627.6
559.461	41397.64
559.66	40994.19
559.859	41264.52
560.058	40723.86
560.258	41117.07
560.457	40664.47
560.656	41217.42
560.855	40154.52
561.054	41209.23
561.253	40787.35
561.453	40744.34
561.652	40422.81
561.851	40924.56
562.05	40727.95
562.249	40056.22
562.448	40719.76
562.647	40342.94
562.846	40207.77
563.045	40404.38
563.244	40183.19
563.443	40392.09
563.642	39712.16
563.841	40107.42
564.04	39990.69
564.239	40342.94
564.438	39855.52
564.637	40097.18
564.836	39732.64
565.035	39366.06
565.234	39798.18
565.432	39548.32
565.631	39409.06
565.83	39757.22
566.029	39536.04
566.228	39345.58
566.427	39380.39
566.625	39255.46
566.824	39267.75
567.023	39347.62
567.222	38766
567.42	39452.07
567.619	39226.79
567.818	38655.41
568.016	38868.4
568.215	38903.21
568.414	38596.02
568.612	38997.42
568.811	38337.97
569.01	38555.06
569.208	38194.62
569.407	38634.93
569.605	38495.67
569.804	38481.33
570.002	38010.3
570.201	38491.57
570.4	38045.12
570.598	37514.69
570.797	37656
570.995	38010.3
571.193	37404.1
571.392	38077.88
571.59	37547.46
571.789	37881.28
571.987	37361.09
572.186	37393.86
572.384	37209.54
572.582	37463.49
572.781	37119.43
572.979	36992.46
573.177	37383.62
573.376	37266.89
573.574	36802
573.772	37144.01
573.971	36971.98
574.169	36865.49
574.367	36437.46
574.565	36836.81
574.763	36509.14
574.962	36662.74
575.16	36185.56
575.358	36400.6
575.556	36281.81
575.754	36373.97
575.952	36117.98
576.151	35980.76
576.349	35972.57
576.547	35730.91
576.745	35839.45
576.943	35847.64
577.141	36191.7
577.339	36160.98
577.537	35370.47
577.735	35429.86
577.933	35184.1
578.131	34934.25
578.329	35089.9
578.527	35223.01
578.725	35087.85
578.923	34899.44
579.121	35266.02
579.319	34328.05
579.516	34813.42
579.714	34520.56
579.912	34760.17
580.11	34672.11
580.308	34323.96
580.506	34543.09
580.704	34057.72
580.901	34158.07
581.099	34495.99
581.297	33820.16
581.495	33994.23
581.692	33983.99
581.89	33566.21
582.088	33820.16
582.285	33517.06
582.483	33807.87
582.681	33766.91
582.878	33574.4
583.076	33279.49
583.274	33625.6
583.471	32824.84
583.669	33275.4
583.866	32869.9
584.064	33345.03
584.262	32423.44
584.459	33168.9
584.657	32787.98
584.854	33353.22
585.052	32155.16
585.249	32456.21
585.447	32491.02
585.644	32288.28
585.841	32505.36
586.039	32091.67
586.236	32212.5
586.434	32368.15
586.631	32183.83
586.828	31972.89
587.026	32091.67
587.223	31645.21
587.42	31852.06
587.618	31655.45
587.815	31532.57
588.012	31102.5
588.21	31084.07
588.407	31692.32
588.604	31098.41
588.801	31022.63
588.999	31039.01
589.196	30850.6
589.393	30971.43
589.59	30930.47
589.787	30567.98
589.984	30381.62
590.182	30221.87
590.379	30590.51
590.576	30142
590.773	30258.74
590.97	30164.53
591.167	30119.48
591.364	29877.82
591.561	30174.77
591.758	29912.63
591.955	29627.96
592.152	29933.11
592.349	29652.54
592.546	29580.86
592.743	29771.32
592.94	29333.06
593.137	29562.43
593.334	29279.81
593.531	28898.89
593.727	29044.29
593.924	29095.49
594.121	28925.51
594.318	28886.6
594.515	28579.4
594.712	29089.35
594.908	28515.92
595.105	28878.41
595.302	28575.31
595.499	28321.36
595.696	28284.5
595.892	28026.45
596.089	28257.87
596.286	28087.89
596.482	28091.99
596.679	27981.4
596.876	27829.85
597.072	27594.33
597.269	27827.8
597.466	27317.86
597.662	27477.6
597.859	27244.13
598.055	27657.82
598.252	27426.4
598.448	27371.1
598.645	27233.89
598.841	27135.59
599.038	27004.52
599.234	26926.69
599.431	26594.92
599.627	27051.62
599.824	27020.9
600.02	26439.28
600.217	26543.72
600.413	26343.02
600.609	26416.75
600.806	26275.44
601.002	26224.24
601.198	25876.09
601.395	26134.13
601.591	25695.86
601.787	25972.34
601.984	25353.85
602.18	25845.37
602.376	25833.08
602.572	25665.14
602.769	25620.09
602.965	25241.21
603.161	25144.96
603.357	25147.01
603.553	25228.93
603.75	25204.35
603.946	25005.7
604.142	25161.34
604.338	24669.83
604.534	24972.93
604.73	25020.03
604.926	24276.62
605.122	25050.75
605.318	24573.58
605.514	24571.53
605.71	24305.29
605.906	24297.1
606.102	24403.6
606.298	24206.99
606.494	24391.31
606.69	24184.46
606.886	24415.88
607.082	23903.89
607.278	24469.13
607.474	23711.38
607.67	24125.07
607.866	23967.38
608.062	23860.88
608.257	23758.49
608.453	23793.3
608.649	23930.51
608.845	23735.96
609.041	23426.71
609.236	23594.65
609.432	23258.78
609.628	23658.14
609.824	23410.33
610.019	23336.6
610.215	23244.45
610.411	23557.78
610.606	23299.74
610.802	23226.01
610.998	23131.81
611.193	23033.5
611.389	23377.56
611.584	22744.74
611.78	22695.59
611.976	22961.83
612.171	22873.76
612.367	22947.49
612.562	22841
612.758	22679.21
612.953	22410.92
613.149	22896.29
613.344	22519.46
613.539	23021.22
613.735	22623.91
613.93	22666.92
614.126	22335.15
614.321	22548.14
614.517	22478.5
614.712	22417.07
614.907	22419.11
615.103	22404.78
615.298	22374.06
615.493	22462.12
615.688	22027.95
615.884	22451.88
616.079	21962.42
616.274	22300.33
616.47	21845.68
616.665	21913.27
616.86	21653.17
617.055	21749.43
617.25	21704.37
617.445	21919.41
617.641	21475
617.836	21829.3
618.031	21364.41
618.226	21497.53
618.421	21407.42
618.616	21513.91
618.811	21151.42
619.006	21649.08
619.201	20977.34
619.396	21182.14
619.591	20883.14
619.786	21108.41
619.981	20829.89
620.176	20799.17
620.371	20963.01
620.566	20475.59
620.761	20459.21
620.956	20725.44
621.151	20080.33
621.346	20358.86
621.541	20027.09
621.735	20428.49
621.93	19848.91
622.125	20059.85
622.32	19756.75
622.515	19834.58
622.709	19687.12
622.904	19605.2
623.099	19359.45
623.294	19592.92
623.488	19283.67
623.683	19504.85
623.878	18570.98
624.072	19066.59
624.267	18933.47
624.462	18550.5
624.656	18575.08
624.851	18704.1
625.046	18437.86
625.24	18530.02
625.435	18226.92
625.629	18171.63
625.824	18310.89
626.018	18011.89
626.213	17635.06
626.407	17792.75
626.602	17260.28
626.796	17659.63
626.991	17538.8
627.185	17454.84
627.38	17403.64
627.574	17202.94
627.768	17039.1
627.963	16973.57
628.157	16838.4
628.352	17110.78
628.546	16664.32
628.74	16858.88
628.935	16633.6
629.129	16455.43
629.323	16463.62
629.517	16160.52
629.712	16322.31
629.906	16236.3
630.1	16021.26
630.294	16092.94
630.489	16033.55
630.683	15814.41
630.877	15597.33
631.071	15605.52
631.265	15820.56
631.459	15421.2
631.653	15597.33
631.848	15349.53
632.042	15226.65
632.236	15361.81
632.43	15302.42
632.624	15179.54
632.818	15132.44
633.012	14903.07
633.206	14911.26
633.4	14827.29
633.594	14728.99
633.788	14573.35
633.982	14671.65
634.176	14628.64
634.369	14559.01
634.563	14536.48
634.757	14212.9
634.951	14028.59
635.145	14329.64
635.339	14352.16
635.533	14120.74
635.726	13942.57
635.92	13866.8
636.114	13786.93
636.308	13563.7
636.501	13754.16
636.695	13633.33
636.889	13494.07
637.083	13334.32
637.276	13385.52
637.47	13332.28
637.664	13311.8
637.857	13152.06
638.051	13088.57
638.244	12945.21
638.438	13092.66
638.632	12781.37
638.825	12846.91
639.019	12736.32
639.212	12500.8
639.406	12689.21
639.599	12515.14
639.793	12554.05
639.986	12359.49
640.18	12291.91
640.373	12431.17
640.567	12140.36
640.76	12062.54
640.954	12058.44
641.147	11970.38
641.34	12042.06
641.534	12058.44
641.727	11820.88
641.92	11816.78
642.114	11568.98
642.307	11669.33
642.5	11677.52
642.694	11274.07
642.887	11548.5
643.08	11577.17
643.273	11601.74
643.467	11241.3
643.66	11427.67
643.853	11339.6
644.046	11007.83
644.239	11077.46
644.432	11077.46
644.626	10938.2
644.819	10843.99
645.012	11016.02
645.205	10862.43
645.398	10719.07
645.591	10637.15
645.784	10479.46
645.977	10626.91
646.17	10561.37
646.363	10475.36
646.556	10379.11
646.749	10491.74
646.942	10444.64
647.135	10299.23
647.328	10295.14
647.521	10168.16
647.714	9846.63
647.907	9957.22
648.099	9983.85
648.292	10006.38
648.485	9895.78
648.678	9768.81
648.871	9883.5
649.064	9680.75
649.256	9967.46
649.449	9723.76
649.642	9443.18
649.835	9469.81
650.027	9525.1
650.22	9607.02
650.413	9422.7
650.605	9279.35
650.798	9373.55
650.991	9244.53
651.183	9183.09
651.376	9396.08
651.568	9109.36
651.761	9152.37
651.954	9150.32
652.146	9062.26
652.339	8931.19
652.531	8877.94
652.724	8849.27
652.916	8714.11
653.109	8699.77
653.301	8574.85
653.494	8699.77
653.686	8585.08
653.879	8793.98
654.071	8505.21
654.263	8634.24
654.456	8656.76
654.648	8462.21
654.84	8198.02
655.033	8404.86
655.225	8370.05
655.417	8171.4
655.61	8165.25
655.802	8226.69
655.994	8159.11
656.186	8050.57
656.379	8097.67
656.571	8079.24
656.763	7884.68
656.955	7954.31
657.148	7817.1
657.34	7864.2
657.532	7810.95
657.724	7573.39
657.916	7729.03
658.108	7714.7
658.3	7714.7
658.492	7571.34
658.684	7370.64
658.876	7538.57
659.068	7518.09
659.26	7454.61
659.452	7206.8
659.644	7321.49
659.836	7335.82
660.028	7372.69
660.22	7387.02
660.412	7045.01
660.604	7227.28
660.796	7169.94
660.988	7155.6
661.18	6969.24
661.372	7106.45
661.563	6940.57
661.755	6991.77
661.947	6963.09
662.139	6956.95
662.331	6868.89
662.522	6973.33
662.714	6928.28
662.906	6999.96
663.097	6664.09
663.289	6823.83
663.481	6602.65
663.673	6561.69
663.864	6471.58
664.056	6518.68
664.247	6465.44
664.439	6434.72
664.631	6594.46
664.822	6379.42
665.014	6410.14
665.205	6461.34
665.397	6324.13
665.588	6322.08
665.78	6311.84
665.971	6172.58
666.163	6244.26
666.354	6180.77
666.546	6197.15
666.737	6102.95
666.929	6061.99
667.12	6119.33
667.311	6057.89
667.503	6104.99
667.694	6084.52
667.885	5918.63
668.077	6016.93
668.268	5922.73
668.459	5943.21
668.651	5869.48
668.842	5912.49
669.033	5699.5
669.224	5787.56
669.416	5828.52
669.607	5730.22
669.798	5595.05
669.989	5900.2
670.18	5705.64
670.371	5547.95
670.563	5568.43
670.754	5674.92
670.945	5601.19
671.136	5572.52
671.327	5545.9
671.518	5504.94
671.709	5611.43
671.9	5502.89
672.091	5468.08
672.282	5523.37
672.473	5396.4
672.664	5470.12
672.855	5105.59
673.046	5236.66
673.237	5322.67
673.428	5418.93
673.619	5281.71
673.809	5337.01
674	5181.36
674.191	5181.36
674.382	5232.56
674.573	5232.56
674.764	5187.5
674.954	5115.83
675.145	5126.07
675.336	5027.76
675.527	5113.78
675.717	5128.11
675.908	5056.43
676.099	4995
676.289	5085.11
676.48	4984.76
676.671	5011.38
676.861	5017.52
677.052	5046.19
677.243	4745.14
677.433	4741.05
677.624	4833.21
677.814	4911.03
678.005	4927.41
678.195	4814.77
678.386	4773.82
678.576	4739
678.767	4722.62
678.957	4622.27
679.148	4904.89
679.338	4749.24
679.529	4634.55
679.719	4693.94
679.909	4736.95
680.1	4577.21
680.29	4679.61
680.481	4687.8
680.671	4739
680.861	4722.62
681.052	4718.52
681.242	4671.42
681.432	4726.71
681.622	4575.16
681.813	4597.69
682.003	4480.96
682.193	4507.58
682.383	4536.25
682.573	4499.39
682.764	4593.59
682.954	4546.49
683.144	4517.82
683.334	4530.11
683.524	4491.2
683.714	4530.11
683.904	4448.19
684.094	4419.52
684.284	4552.63
684.474	4575.16
684.664	4558.78
684.854	4251.58
685.044	4245.44
685.234	4218.82
685.424	4384.7
685.614	4280.25
685.804	4427.71
685.994	4388.8
686.184	4421.56
686.374	4251.58
686.564	4153.28
686.753	4194.24
686.943	4272.06
687.133	4282.3
687.323	4259.77
687.513	4315.07
687.702	4159.42
687.892	4052.93
688.082	4153.28
688.272	4083.65
688.461	3966.92
688.651	4024.26
688.841	3893.19
689.03	4202.43
689.22	3938.24
689.41	3964.87
689.599	3819.46
689.789	3905.48
689.979	3907.52
690.168	3876.8
690.358	3766.21
690.547	3745.73
690.737	3887.04
690.926	3878.85
691.116	3776.45
691.305	3885
691.495	3786.69
691.684	3633.1
691.874	3743.69
692.063	3747.78
692.252	3549.13
692.442	3614.66
692.631	3647.43
692.82	3588.04
693.01	3688.39
693.199	3592.14
693.388	3579.85
693.578	3536.84
693.767	3665.86
693.956	3583.95
694.146	3438.54
694.335	3508.17
694.524	3467.21
694.713	3373
694.902	3565.51
695.092	3493.83
695.281	3444.68
695.47	3354.57
695.659	3266.51
695.848	3352.52
696.037	3284.94
696.226	3389.39
696.415	3303.37
696.604	3459.02
696.793	3334.09
696.982	3262.41
697.171	3379.15
697.36	3325.9
697.549	3252.17
697.738	3248.08
697.927	3137.49
698.116	3239.89
698.305	3227.6
698.494	3194.83
698.683	3114.96
698.872	3155.92
699.061	3207.12
699.25	3174.35
699.438	3174.35
699.627	3104.72
699.816	3254.22
700.005	3162.06
700.193	3114.96
700.382	3055.57
700.571	3135.44
700.76	3067.86
700.948	3133.39
701.137	3110.86
701.326	3104.72
701.514	3125.2
701.703	3096.53
701.892	3012.56
702.08	3024.85
702.269	3106.77
702.457	2918.36
702.646	3157.97
702.834	2996.18
703.023	2979.79
703.212	2957.27
703.4	3026.9
703.589	3014.61
703.777	3024.85
703.965	2916.31
704.154	2936.79
704.342	2879.44
704.531	2852.82
704.719	2928.6
704.907	2981.84
705.096	2914.26
705.284	2940.88
705.472	2926.55
705.661	2822.1
705.849	3041.23
706.037	3041.23
706.226	2987.99
706.414	2887.64
706.602	2977.75
706.79	2994.13
706.979	2858.96
707.167	2955.22
707.355	2940.88
707.543	2852.82
707.731	3055.57
707.919	3024.85
708.107	2811.86
708.296	2801.62
708.484	2869.2
708.672	2947.03
708.86	2820.05
709.048	3006.42
709.236	2734.04
709.424	2867.16
709.612	2793.43
709.8	2764.76
709.988	2754.52
710.176	2926.55
710.364	2781.14
710.551	2627.54
710.739	2756.57
710.927	2723.8
711.115	2830.29
711.303	2818.01
711.491	2881.49
711.679	2813.91
711.866	2955.22
712.054	2734.04
712.242	2731.99
712.43	2942.93
712.617	2707.41
712.805	2734.04
712.993	2688.98
713.181	2672.6
713.368	2856.92
713.556	2793.43
713.744	2691.03
713.931	2746.33
714.119	2801.62
714.306	2754.52
714.494	2686.93
714.682	2631.64
714.869	2678.74
715.057	2775
715.244	2643.93
715.432	2637.78
715.619	2764.76
715.807	2654.17
715.994	2619.35
716.182	2654.17
716.369	2791.38
716.556	2795.48
716.744	2762.71
716.931	2594.78
717.119	2715.61
717.306	2699.22
717.493	2660.31
717.681	2725.85
717.868	2770.9
718.055	2742.23
718.242	2645.98
718.43	2705.37
718.617	2717.65
718.804	2619.35
718.991	2568.15
719.179	2744.28
719.366	2611.16
719.553	2691.03
719.74	2594.78
719.927	2639.83
720.114	2691.03
720.301	2637.78
720.488	2699.22
720.676	2600.92
720.863	2723.8
721.05	2760.66
721.237	2709.46
721.424	2744.28
721.611	2688.98
721.798	2693.08
721.985	2740.18
722.172	2654.17
722.358	2609.11
722.545	2637.78
722.732	2594.78
722.919	2543.58
723.106	2672.6
723.293	2662.36
723.48	2691.03
723.667	2680.79
723.853	2717.65
724.04	2623.45
724.227	2695.13
724.414	2717.65
724.6	2658.26
724.787	2674.65
724.974	2729.94
725.161	2705.37
725.347	2619.35
725.534	2682.84
725.72	2709.46
725.907	2627.54
726.094	2695.13
726.28	2619.35
726.467	2600.92
726.653	2609.11
726.84	2688.98
727.027	2664.41
727.213	2574.3
727.4	2615.26
727.586	2637.78
727.773	2625.5
727.959	2623.45
728.145	2727.89
728.332	2684.89
728.518	2549.72
728.705	2686.93
728.891	2727.89
729.077	2742.23
729.264	2662.36
729.45	2766.81
729.636	2695.13
729.823	2727.89
730.009	2701.27
730.195	2578.39
730.382	2695.13
730.568	2668.5
730.754	2697.17
730.94	2566.1
731.126	2684.89
731.313	2641.88
731.499	2621.4
731.685	2643.93
731.871	2697.17
732.057	2598.87
732.243	2693.08
732.429	2590.68
732.615	2731.99
732.801	2660.31
732.987	2807.77
733.173	2658.26
733.359	2717.65
733.545	2703.32
733.731	2633.69
733.917	2641.88
734.103	2729.94
734.289	2691.03
734.475	2615.26
734.661	2818.01
734.847	2701.27
735.033	2686.93
735.219	2705.37
735.404	2609.11
735.59	2822.1
735.776	2621.4
735.962	2637.78
736.148	2699.22
736.333	2830.29
736.519	2654.17
736.705	2672.6
736.89	2693.08
737.076	2762.71
737.262	2668.5
737.447	2664.41
737.633	2654.17
737.819	2756.57
738.004	2686.93
738.19	2615.26
738.375	2744.28
738.561	2770.9
738.747	2789.33
738.932	2629.59
739.118	2723.8
739.303	2764.76
739.489	2688.98
739.674	2695.13
739.859	2641.88
740.045	2650.07
740.23	2664.41
740.416	2605.02
740.601	2660.31
740.786	2717.65
740.972	2684.89
741.157	2705.37
741.342	2879.44
741.528	2519
741.713	2756.57
741.898	2588.63
742.084	2637.78
742.269	2668.5
742.454	2680.79
742.639	2795.48
742.824	2578.39
743.01	2684.89
743.195	2621.4
743.38	2602.97
743.565	2535.39
743.75	2635.74
743.935	2633.69
744.12	2641.88
744.305	2547.67
744.49	2553.82
744.675	2623.45
744.86	2670.55
745.045	2611.16
745.23	2543.58
745.415	2559.96
745.6	2572.25
745.785	2521.05
745.97	2486.23
746.155	2486.23
746.34	2553.82
746.525	2422.75
746.71	2586.58
746.895	2369.5
747.079	2496.47
747.264	2281.44
747.449	2441.18
747.634	2553.82
747.819	2574.3
748.003	2330.59
748.188	2418.65
748.373	2363.36
748.557	2371.55
748.742	2346.97
748.927	2320.35
749.111	2406.36
749.296	2330.59
749.481	2375.64
749.665	2213.85
749.85	2283.49
750.034	2314.2
750.219	2324.44
750.404	2185.18
750.588	2279.39
750.773	2346.97
750.957	2242.53
751.141	2176.99
751.326	2197.47
751.51	2084.83
751.695	2201.57
751.879	2201.57
752.064	2105.31
752.248	2176.99
752.432	2021.35
752.617	2103.26
752.801	2093.02
752.985	2064.35
753.17	2080.74
753.354	2187.23
753.538	2111.46
753.722	2023.39
753.907	2064.35
754.091	1863.65
754.275	2056.16
754.459	2064.35
754.643	2015.2
754.828	1966.05
755.012	2047.97
755.196	1931.23
755.38	1802.21
755.564	1923.04
755.748	1961.95
755.932	1972.19
756.116	1822.69
756.3	1787.88
756.484	1800.16
756.668	1826.79
756.852	1740.77
757.036	1830.88
757.22	1832.93
757.404	1859.56
757.588	1796.07
757.772	1800.16
757.956	1769.44
758.14	1787.88
758.323	1757.16
758.507	1701.86
758.691	1753.06
758.875	1687.53
759.059	1740.77
759.242	1640.42
759.426	1712.1
759.61	1738.73
759.794	1667.05
759.977	1632.23
760.161	1701.86
760.345	1665
760.528	1675.24
760.712	1648.61
760.895	1683.43
761.079	1564.65
761.263	1531.88
761.446	1538.02
761.63	1687.53
761.813	1593.32
761.997	1492.97
762.18	1570.79
762.364	1511.4
762.547	1464.3
762.731	1564.65
762.914	1572.84
763.098	1517.54
763.281	1546.22
763.464	1388.52
763.648	1372.14
763.831	1546.22
764.015	1517.54
764.198	1462.25
764.381	1546.22
764.564	1527.78
764.748	1454.06
764.931	1468.39
765.114	1353.71
765.297	1427.43
765.481	1449.96
765.664	1439.72
765.847	1337.32
766.03	1366
766.213	1409
766.397	1445.87
766.58	1337.32
766.763	1333.23
766.946	1400.81
767.129	1322.99
767.312	1314.8
767.495	1417.19
767.678	1337.32
767.861	1339.37
768.044	1351.66
768.227	1361.9
768.41	1331.18
768.593	1404.91
768.776	1449.96
768.959	1372.14
769.142	1214.45
769.324	1269.74
769.507	1282.03
769.69	1353.71
769.873	1290.22
770.056	1386.47
770.239	1277.93
770.421	1243.12
770.604	1263.6
770.787	1210.35
770.97	1292.27
771.152	1165.29
771.335	1245.16
771.518	1142.77
771.7	1220.59
771.883	1306.6
772.066	1329.13
772.248	1132.53
772.431	1245.16
772.613	1150.96
772.796	1196.01
772.978	1275.88
773.161	1132.53
773.343	1189.87
773.526	1122.29
773.708	1126.38
773.891	1060.85
774.073	1075.18
774.256	1056.75
774.438	1134.57
774.621	1017.84
774.803	1198.06
774.985	1038.32
775.168	1066.99
775.35	1023.98
775.532	1089.52
775.715	1028.08
775.897	1112.05
776.079	995.31
776.261	1023.98
776.444	1050.61
776.626	1103.86
776.808	993.26
776.99	976.88
777.173	1019.89
777.355	1046.51
777.537	1023.98
777.719	980.98
777.901	942.07
778.083	952.31
778.265	937.97
778.447	892.91
778.629	892.91
778.811	890.87
778.993	929.78
779.175	948.21
779.357	995.31
779.539	894.96
779.721	937.97
779.903	849.91
780.085	817.14
780.267	937.97
780.449	823.28
780.631	897.01
780.812	899.06
780.994	845.81
781.176	876.53
781.358	780.28
781.54	798.71
781.721	788.47
781.903	845.81
782.085	796.66
782.267	813.04
782.448	813.04
782.63	784.37
782.812	792.56
782.993	782.32
783.175	774.13
783.357	767.99
783.538	794.61
783.72	817.14
783.901	780.28
784.083	747.51
784.264	735.22
784.446	700.41
784.627	753.65
784.809	657.4
784.99	751.6
785.172	686.07
785.353	688.12
785.535	759.8
785.716	550.9
785.897	692.21
786.079	655.35
786.26	643.06
786.441	702.45
786.623	665.59
786.804	616.44
786.985	696.31
787.167	681.97
787.348	645.11
787.529	614.39
787.71	667.64
787.891	651.25
788.073	667.64
788.254	583.67
788.435	655.35
788.616	569.34
788.797	632.82
788.978	661.49
789.159	534.52
789.34	550.9
789.522	485.37
789.703	487.42
789.884	606.2
790.065	569.34
790.246	634.87
790.427	546.81
790.607	575.48
790.788	546.81
790.969	520.18
791.15	548.86
791.331	430.07
791.512	493.56
791.693	522.23
791.874	516.09
792.054	485.37
792.235	589.82
792.416	462.84
792.597	403.45
792.778	538.62
792.958	520.18
793.139	477.18
793.32	403.45
793.5	557.05
793.681	534.52
793.862	544.76
794.042	460.79
794.223	395.26
794.404	471.03
794.584	430.07
794.765	419.83
794.945	509.94
795.126	417.79
795.306	507.9
795.487	403.45
795.667	374.78
795.848	479.22
796.028	399.35
796.209	378.87
796.389	487.42
796.57	432.12
796.75	360.44
796.93	337.91
797.111	391.16
797.291	391.16
797.471	436.22
797.652	342.01
797.832	370.68
798.012	393.21
798.192	360.44
798.373	391.16
798.553	411.64
798.733	376.83
798.913	411.64
799.093	362.49
799.274	423.93
799.454	411.64
799.634	358.39
799.814	405.5
799.994	425.98
800.174	454.65
800.354	403.45
800.534	319.48
800.714	493.56
800.894	335.87
801.074	344.06
801.254	428.03
801.434	385.02
801.614	253.95
801.794	348.15
801.974	931.83
802.154	352.25
802.334	421.88
802.514	370.68
802.693	362.49
802.873	249.85
803.053	432.12
803.233	423.93
803.413	274.43
803.592	307.2
803.772	284.67
803.952	364.54
804.131	270.33
804.311	372.73
804.491	397.31
804.67	315.39
804.85	333.82
805.03	335.87
805.209	270.33
805.389	229.37
805.568	346.11
805.748	256
805.928	360.44
806.107	428.03
806.287	315.39
806.466	260.09
806.646	352.25
806.825	319.48
807.004	325.63
807.184	247.8
807.363	278.52
807.543	288.76
807.722	346.11
807.901	331.77
808.081	317.44
808.26	223.23
808.439	317.44
808.619	335.87
808.798	313.34
808.977	372.73
809.156	262.14
809.336	350.2
809.515	323.58
809.694	215.04
809.873	266.24
810.052	262.14
810.231	315.39
810.411	231.42
810.59	321.53
810.769	278.52
810.948	247.8
811.127	184.32
811.306	319.48
811.485	223.23
811.664	241.66
811.843	239.61
812.022	299
812.201	190.46
812.38	268.28
812.559	233.47
812.737	231.42
812.916	139.26
813.095	159.74
813.274	186.37
813.453	239.61
813.632	237.56
813.811	217.08
813.989	233.47
814.168	249.85
814.347	200.7
814.526	237.56
814.704	229.37
814.883	262.14
815.062	231.42
815.24	258.04
815.419	151.55
815.598	190.46
815.776	116.73
815.955	182.27
816.133	131.07
816.312	165.89
816.49	245.76
816.669	288.76
816.847	141.31
817.026	202.75
817.204	251.9
817.383	227.32
817.561	143.36
817.74	219.13
817.918	221.18
818.097	256
818.275	219.13
818.453	139.26
818.632	176.13
818.81	167.93
818.988	161.79
819.167	212.99
819.345	258.04
819.523	145.41
819.701	198.65
819.879	208.89
820.058	206.84
820.236	221.18
820.414	167.93
820.592	196.61
820.77	106.49
820.948	114.69
821.127	110.59
821.305	245.76
821.483	210.94
821.661	208.89
821.839	245.76
822.017	126.97
822.195	118.78
822.373	163.84
822.551	169.98
822.729	274.43
822.907	184.32
823.085	151.55
823.262	194.56
823.44	108.54
823.618	159.74
823.796	178.17
823.974	124.93
824.152	174.08
824.329	129.02
824.507	155.65
824.685	176.13
824.863	118.78
825.04	180.22
825.218	190.46
825.396	159.74
825.574	139.26
825.751	182.27
825.929	167.93
826.107	92.16
826.284	126.97
826.462	147.45
826.639	184.32
826.817	106.49
826.994	165.89
827.172	114.69
827.349	149.5
827.527	131.07
827.704	159.74
827.882	178.17
828.059	143.36
828.237	106.49
828.414	102.4
828.591	161.79
828.769	88.06
828.946	151.55
829.124	122.88
829.301	212.99
829.478	139.26
829.655	161.79
829.833	106.49
830.01	116.73
830.187	190.46
830.364	129.02
830.542	77.82
830.719	145.41
830.896	141.31
831.073	120.83
831.25	126.97
831.427	83.97
831.604	167.93
831.782	118.78
831.959	100.35
832.136	141.31
832.313	122.88
832.49	96.25
832.667	71.68
832.844	131.07
833.021	137.21
833.198	167.93
833.374	106.49
833.551	102.4
833.728	79.87
833.905	120.83
834.082	124.93
834.259	67.58
834.436	102.4
834.612	143.36
834.789	153.6
834.966	43.01
835.143	178.17
835.319	114.69
835.496	133.12
835.673	139.26
835.85	184.32
836.026	108.54
836.203	163.84
836.38	83.97
836.556	79.87
836.733	174.08
836.909	217.08
837.086	63.49
837.262	94.21
837.439	90.11
837.616	108.54
837.792	71.68
837.968	92.16
838.145	0
838.321	116.73
838.498	129.02
838.674	153.6
838.851	122.88
839.027	116.73
839.203	131.07
839.38	71.68
839.556	-2.05
839.732	104.45
839.909	120.83
840.085	137.21
840.261	69.63
840.437	98.3
840.614	88.06
840.79	106.49
840.966	43.01
841.142	172.03
841.318	157.69
841.494	67.58
841.671	149.5
841.847	73.73
842.023	104.45
842.199	75.77
842.375	120.83
842.551	65.54
842.727	120.83
842.903	141.31
843.079	102.4
843.255	51.2
843.431	26.62
843.607	165.89
843.783	55.3
843.959	120.83
844.134	-12.29
844.31	120.83
844.486	104.45
844.662	-6.14
844.838	135.17
845.013	118.78
845.189	92.16
845.365	135.17
845.541	135.17
845.716	122.88
845.892	137.21
846.068	14.34
846.244	90.11
846.419	83.97
846.595	65.54
846.77	110.59
846.946	139.26
847.122	88.06
847.297	55.3
847.473	126.97
847.648	18.43
847.824	92.16
847.999	18.43
848.175	40.96
848.35	34.82
848.526	147.45
848.701	88.06
848.876	98.3
849.052	24.58
849.227	65.54
849.403	16.38
849.578	36.86
849.753	143.36
849.929	71.68
850.104	169.98
850.279	67.58
850.454	83.97
850.63	129.02
850.805	59.39
850.98	47.1
851.155	38.91
851.33	106.49
851.505	6.14
851.681	141.31
851.856	-71.68
852.031	81.92
852.206	4.1
852.381	120.83
852.556	34.82
852.731	43.01
852.906	69.63
853.081	83.97
853.256	98.3
853.431	86.01
853.606	73.73
853.781	14.34
853.956	86.01
854.131	67.58
854.305	88.06
854.48	36.86
854.655	71.68
854.83	104.45
855.005	-28.67
855.18	73.73
855.354	65.54
855.529	57.34
855.704	69.63
855.879	122.88
856.053	83.97
856.228	12.29
856.403	51.2
856.577	165.89
856.752	34.82
856.926	57.34
857.101	6.14
857.276	12.29
857.45	67.58
857.625	100.35
857.799	24.58
857.974	73.73
858.148	-32.77
858.323	81.92
858.497	112.64
858.672	79.87
858.846	71.68
859.02	88.06
859.195	20.48
859.369	4.1
859.543	81.92
859.718	79.87
859.892	51.2
860.066	53.25
860.241	32.77
860.415	34.82
860.589	47.1
860.763	20.48
860.938	4.1
861.112	92.16
861.286	30.72
861.46	59.39
861.634	45.06
861.808	43.01
861.982	-2.05
862.157	61.44
862.331	59.39
862.505	4.1
862.679	-6.14
862.853	47.1
863.027	26.62
863.201	90.11
863.375	6.14
863.549	4.1
863.722	86.01
863.896	53.25
864.07	47.1
864.244	10.24
864.418	100.35
864.592	24.58
864.766	45.06
864.939	24.58
865.113	116.73
865.287	116.73
865.461	8.19
865.634	120.83
865.808	88.06
865.982	28.67
866.156	30.72
866.329	2.05
866.503	22.53
866.676	71.68
866.85	36.86
867.024	18.43
867.197	26.62
867.371	92.16
867.544	14.34
867.718	49.15
867.891	92.16
868.065	67.58
868.238	22.53
868.412	79.87
868.585	28.67
868.759	59.39
868.932	86.01
869.105	16.38
869.279	100.35
869.452	51.2
869.625	65.54
869.799	65.54
869.972	-6.14
870.145	90.11
870.319	96.25
870.492	12.29
870.665	-40.96
870.838	77.82
871.011	53.25
871.185	104.45
871.358	40.96
871.531	14.34
871.704	47.1
871.877	77.82
872.05	49.15
872.223	-22.53
872.396	96.25
872.569	65.54
872.742	20.48
872.915	24.58
873.088	-2.05
873.261	53.25
873.434	32.77
873.607	59.39
873.78	86.01
873.953	12.29
874.126	77.82
874.299	108.54
874.471	53.25
874.644	43.01
874.817	61.44
874.99	45.06
875.163	4.1
875.335	10.24
875.508	69.63
875.681	53.25
875.853	18.43
876.026	32.77
876.199	34.82
876.371	126.97
876.544	10.24
876.717	57.34
876.889	22.53
877.062	28.67
877.234	63.49
877.407	34.82
877.579	-22.53
877.752	51.2
877.924	59.39
878.097	75.77
878.269	14.34
878.442	4.1
878.614	86.01
878.786	92.16
878.959	10.24
879.131	100.35
879.303	-43.01
879.476	32.77
879.648	96.25
879.82	22.53
879.993	-38.91
880.165	8.19
880.337	43.01
880.509	-8.19
880.681	12.29
880.854	-38.91
881.026	47.1
881.198	92.16
881.37	4.1
881.542	112.64
881.714	-8.19
881.886	79.87
882.058	-18.43
882.23	-30.72
882.402	77.82
882.574	14.34
882.746	0
882.918	114.69
883.09	28.67
883.262	40.96
883.434	53.25
883.606	24.58
883.778	77.82
883.95	47.1
884.122	61.44
884.293	135.17
884.465	69.63
884.637	-10.24
884.809	-59.39
884.98	81.92
885.152	8.19
885.324	57.34
885.496	6.14
885.667	61.44
885.839	34.82
886.011	30.72
886.182	30.72
886.354	45.06
886.525	67.58
886.697	20.48
886.869	-8.19
887.04	45.06
887.212	28.67
887.383	100.35
887.555	22.53
887.726	30.72
887.897	-28.67
888.069	51.2
888.24	77.82
888.412	-6.14
888.583	-34.82
888.754	43.01
888.926	2.05
889.097	94.21
889.268	-90.11
889.44	14.34
889.611	-43.01
889.782	10.24
889.953	0
890.125	149.5
890.296	2.05
890.467	65.54
890.638	53.25
890.809	-28.67
890.98	43.01
891.151	43.01
891.323	-6.14
891.494	73.73
891.665	16.38
891.836	38.91
892.007	20.48
892.178	-4.1
892.349	22.53
892.52	-18.43
892.691	47.1
892.862	-28.67
893.032	36.86
893.203	28.67
893.374	40.96
893.545	63.49
893.716	-43.01
893.887	14.34
894.057	-2.05
894.228	0
894.399	-4.1
894.57	18.43
894.74	28.67
894.911	4.1
895.082	4.1
895.253	-8.19
895.423	0
895.594	-10.24
895.764	120.83
895.935	-26.62
896.106	-2.05
896.276	-22.53
896.447	2.05
896.617	53.25
896.788	-8.19
896.958	20.48
897.129	6.14
897.299	4.1
897.47	36.86
897.64	69.63
897.81	2.05
897.981	104.45
898.151	-16.38
898.322	77.82
898.492	8.19
898.662	49.15
898.832	53.25
899.003	30.72
899.173	71.68
899.343	4.1
899.513	0
