Data from USB4F104151__63__12-42-02-449.txt Node

Date: Fri Mar 14 12:42:02 EDT 2025
User: louis
Spectrometer: USB4F10415
Trigger mode: 4
Integration Time (sec): 3.000000E-2
Scans to average: 1
Electric dark correction enabled: true
Nonlinearity correction enabled: false
Boxcar width: 0
XAxis mode: Wavelengths
Number of Pixels in Spectrum: 3648
>>>>>Begin Spectral Data<<<<<
178.204	-122.88
178.424	-122.88
178.644	-122.88
178.864	-120.83
179.084	-135.17
179.304	55.3
179.524	-14.34
179.744	20.48
179.964	12.29
180.184	-16.38
180.404	-2.05
180.624	-40.96
180.844	16.38
181.064	-92.16
181.283	45.06
181.503	-16.38
181.723	32.77
181.943	-47.1
182.163	149.5
182.383	30.72
182.602	67.58
182.822	71.68
183.042	26.62
183.262	-40.96
183.482	22.53
183.701	73.73
183.921	-45.06
184.141	43.01
184.361	26.62
184.58	-43.01
184.8	38.91
185.02	16.38
185.239	45.06
185.459	45.06
185.679	83.97
185.898	32.77
186.118	61.44
186.338	8.19
186.557	38.91
186.777	-8.19
186.997	-30.72
187.216	34.82
187.436	65.54
187.655	47.1
187.875	120.83
188.095	34.82
188.314	14.34
188.534	51.2
188.753	6.14
188.973	92.16
189.192	79.87
189.412	-4.1
189.631	26.62
189.851	-12.29
190.07	12.29
190.29	24.58
190.509	22.53
190.729	36.86
190.948	141.31
191.168	172.03
191.387	45.06
191.607	-4.1
191.826	49.15
192.045	36.86
192.265	61.44
192.484	16.38
192.704	47.1
192.923	0
193.142	104.45
193.362	61.44
193.581	133.12
193.8	20.48
194.02	61.44
194.239	12.29
194.458	-30.72
194.678	-36.86
194.897	36.86
195.116	22.53
195.335	36.86
195.555	18.43
195.774	122.88
195.993	45.06
196.212	65.54
196.432	40.96
196.651	-26.62
196.87	16.38
197.089	38.91
197.308	20.48
197.528	61.44
197.747	49.15
197.966	79.87
198.185	14.34
198.404	14.34
198.623	24.58
198.842	30.72
199.062	63.49
199.281	65.54
199.5	-8.19
199.719	77.82
199.938	24.58
200.157	98.3
200.376	114.69
200.595	38.91
200.814	43.01
201.033	16.38
201.252	67.58
201.471	94.21
201.69	81.92
201.909	59.39
202.128	67.58
202.347	55.3
202.566	-16.38
202.785	65.54
203.004	-10.24
203.223	147.45
203.442	18.43
203.661	51.2
203.879	57.34
204.098	149.5
204.317	14.34
204.536	141.31
204.755	147.45
204.974	67.58
205.193	32.77
205.411	90.11
205.63	4.1
205.849	30.72
206.068	53.25
206.287	36.86
206.505	6.14
206.724	24.58
206.943	83.97
207.162	-63.49
207.381	90.11
207.599	18.43
207.818	149.5
208.037	40.96
208.255	67.58
208.474	34.82
208.693	63.49
208.911	45.06
209.13	100.35
209.349	8.19
209.567	118.78
209.786	114.69
210.005	45.06
210.223	6.14
210.442	24.58
210.661	-4.1
210.879	67.58
211.098	22.53
211.316	-38.91
211.535	81.92
211.753	4.1
211.972	86.01
212.191	81.92
212.409	47.1
212.628	26.62
212.846	40.96
213.065	59.39
213.283	-16.38
213.502	61.44
213.72	-6.14
213.938	47.1
214.157	61.44
214.375	-22.53
214.594	-26.62
214.812	38.91
215.031	45.06
215.249	88.06
215.467	40.96
215.686	20.48
215.904	79.87
216.122	26.62
216.341	51.2
216.559	116.73
216.778	22.53
216.996	30.72
217.214	118.78
217.432	67.58
217.651	8.19
217.869	-2.05
218.087	-34.82
218.306	-10.24
218.524	63.49
218.742	75.77
218.96	-2.05
219.179	-34.82
219.397	-57.34
219.615	65.54
219.833	53.25
220.051	-36.86
220.27	-2.05
220.488	83.97
220.706	73.73
220.924	20.48
221.142	8.19
221.36	51.2
221.578	32.77
221.796	12.29
222.015	90.11
222.233	47.1
222.451	118.78
222.669	-8.19
222.887	67.58
223.105	110.59
223.323	-20.48
223.541	92.16
223.759	53.25
223.977	-20.48
224.195	67.58
224.413	18.43
224.631	26.62
224.849	-8.19
225.067	43.01
225.285	36.86
225.503	12.29
225.721	-10.24
225.939	88.06
226.157	-36.86
226.375	94.21
226.592	69.63
226.81	59.39
227.028	45.06
227.246	106.49
227.464	12.29
227.682	49.15
227.9	73.73
228.117	24.58
228.335	61.44
228.553	45.06
228.771	75.77
228.989	47.1
229.206	75.77
229.424	77.82
229.642	36.86
229.86	-32.77
230.077	77.82
230.295	59.39
230.513	106.49
230.731	108.54
230.948	59.39
231.166	92.16
231.384	-47.1
231.601	-8.19
231.819	63.49
232.037	-47.1
232.254	45.06
232.472	55.3
232.689	-6.14
232.907	49.15
233.125	-20.48
233.342	-30.72
233.56	26.62
233.777	67.58
233.995	12.29
234.213	6.14
234.43	51.2
234.648	79.87
234.865	6.14
235.083	59.39
235.3	8.19
235.518	28.67
235.735	53.25
235.953	104.45
236.17	-34.82
236.388	71.68
236.605	108.54
236.822	79.87
237.04	59.39
237.257	36.86
237.475	53.25
237.692	26.62
237.909	69.63
238.127	0
238.344	71.68
238.562	67.58
238.779	43.01
238.996	-4.1
239.214	-43.01
239.431	71.68
239.648	38.91
239.865	30.72
240.083	63.49
240.3	-4.1
240.517	-24.58
240.735	28.67
240.952	122.88
241.169	86.01
241.386	116.73
241.603	24.58
241.821	10.24
242.038	90.11
242.255	28.67
242.472	83.97
242.689	-8.19
242.907	22.53
243.124	67.58
243.341	94.21
243.558	8.19
243.775	18.43
243.992	-2.05
244.209	77.82
244.426	45.06
244.643	59.39
244.86	36.86
245.078	73.73
245.295	26.62
245.512	8.19
245.729	55.3
245.946	28.67
246.163	96.25
246.38	2.05
246.597	65.54
246.814	73.73
247.031	20.48
247.248	81.92
247.464	63.49
247.681	155.65
247.898	4.1
248.115	10.24
248.332	-6.14
248.549	61.44
248.766	36.86
248.983	45.06
249.2	4.1
249.417	102.4
249.633	-2.05
249.85	126.97
250.067	71.68
250.284	28.67
250.501	75.77
250.717	45.06
250.934	53.25
251.151	110.59
251.368	0
251.585	83.97
251.801	43.01
252.018	24.58
252.235	83.97
252.451	28.67
252.668	-14.34
252.885	104.45
253.102	-6.14
253.318	-45.06
253.535	-26.62
253.752	34.82
253.968	47.1
254.185	2.05
254.401	43.01
254.618	83.97
254.835	90.11
255.051	71.68
255.268	22.53
255.484	20.48
255.701	77.82
255.917	-14.34
256.134	71.68
256.351	55.3
256.567	104.45
256.784	22.53
257	18.43
257.217	43.01
257.433	12.29
257.65	26.62
257.866	102.4
258.082	51.2
258.299	49.15
258.515	10.24
258.732	12.29
258.948	-16.38
259.165	16.38
259.381	20.48
259.597	57.34
259.814	63.49
260.03	67.58
260.246	59.39
260.463	61.44
260.679	61.44
260.895	18.43
261.112	106.49
261.328	20.48
261.544	16.38
261.761	86.01
261.977	49.15
262.193	-12.29
262.409	55.3
262.626	24.58
262.842	88.06
263.058	49.15
263.274	49.15
263.49	16.38
263.707	69.63
263.923	40.96
264.139	8.19
264.355	38.91
264.571	53.25
264.787	2.05
265.004	71.68
265.22	43.01
265.436	47.1
265.652	71.68
265.868	-14.34
266.084	-38.91
266.3	28.67
266.516	43.01
266.732	61.44
266.948	34.82
267.164	55.3
267.38	43.01
267.596	-2.05
267.812	126.97
268.028	59.39
268.244	57.34
268.46	114.69
268.676	49.15
268.892	32.77
269.108	55.3
269.324	-10.24
269.54	14.34
269.756	71.68
269.972	10.24
270.188	67.58
270.403	10.24
270.619	118.78
270.835	63.49
271.051	-2.05
271.267	38.91
271.483	20.48
271.698	8.19
271.914	40.96
272.13	12.29
272.346	32.77
272.562	77.82
272.777	122.88
272.993	55.3
273.209	106.49
273.425	61.44
273.64	49.15
273.856	120.83
274.072	59.39
274.287	38.91
274.503	38.91
274.719	61.44
274.934	51.2
275.15	36.86
275.366	43.01
275.581	6.14
275.797	0
276.012	22.53
276.228	18.43
276.444	10.24
276.659	83.97
276.875	18.43
277.09	38.91
277.306	90.11
277.521	151.55
277.737	32.77
277.952	36.86
278.168	-22.53
278.383	26.62
278.599	4.1
278.814	61.44
279.03	69.63
279.245	86.01
279.461	43.01
279.676	126.97
279.892	-47.1
280.107	110.59
280.322	-2.05
280.538	110.59
280.753	-8.19
280.969	53.25
281.184	59.39
281.399	30.72
281.615	92.16
281.83	43.01
282.045	36.86
282.26	-16.38
282.476	53.25
282.691	28.67
282.906	26.62
283.122	-34.82
283.337	22.53
283.552	30.72
283.767	14.34
283.983	38.91
284.198	14.34
284.413	22.53
284.628	28.67
284.843	57.34
285.058	73.73
285.274	-28.67
285.489	40.96
285.704	-12.29
285.919	38.91
286.134	100.35
286.349	22.53
286.564	12.29
286.779	149.5
286.995	30.72
287.21	-34.82
287.425	8.19
287.64	38.91
287.855	-47.1
288.07	65.54
288.285	36.86
288.5	10.24
288.715	-4.1
288.93	53.25
289.145	40.96
289.36	28.67
289.575	47.1
289.79	145.41
290.004	81.92
290.219	112.64
290.434	120.83
290.649	30.72
290.864	51.2
291.079	86.01
291.294	133.12
291.509	73.73
291.724	57.34
291.938	79.87
292.153	40.96
292.368	77.82
292.583	45.06
292.798	61.44
293.012	18.43
293.227	-32.77
293.442	32.77
293.657	108.54
293.871	61.44
294.086	10.24
294.301	92.16
294.516	53.25
294.73	63.49
294.945	26.62
295.16	63.49
295.374	26.62
295.589	63.49
295.804	47.1
296.018	51.2
296.233	98.3
296.447	71.68
296.662	94.21
296.877	20.48
297.091	69.63
297.306	30.72
297.52	-57.34
297.735	88.06
297.949	92.16
298.164	-6.14
298.378	51.2
298.593	0
298.807	28.67
299.022	22.53
299.236	57.34
299.451	53.25
299.665	-59.39
299.88	-2.05
300.094	26.62
300.309	49.15
300.523	61.44
300.737	40.96
300.952	36.86
301.166	63.49
301.381	26.62
301.595	86.01
301.809	24.58
302.024	38.91
302.238	71.68
302.452	129.02
302.667	53.25
302.881	65.54
303.095	94.21
303.309	-6.14
303.524	20.48
303.738	51.2
303.952	40.96
304.166	81.92
304.381	-57.34
304.595	110.59
304.809	38.91
305.023	79.87
305.237	73.73
305.452	-10.24
305.666	-34.82
305.88	71.68
306.094	57.34
306.308	-10.24
306.522	43.01
306.736	28.67
306.95	-34.82
307.164	139.26
307.379	61.44
307.593	-2.05
307.807	67.58
308.021	63.49
308.235	90.11
308.449	-59.39
308.663	49.15
308.877	36.86
309.091	43.01
309.305	-12.29
309.519	63.49
309.733	22.53
309.947	2.05
310.161	51.2
310.374	86.01
310.588	16.38
310.802	-6.14
311.016	83.97
311.23	28.67
311.444	61.44
311.658	4.1
311.872	96.25
312.085	36.86
312.299	55.3
312.513	18.43
312.727	67.58
312.941	104.45
313.154	63.49
313.368	131.07
313.582	75.77
313.796	26.62
314.009	65.54
314.223	88.06
314.437	22.53
314.651	45.06
314.864	-40.96
315.078	26.62
315.292	67.58
315.505	65.54
315.719	69.63
315.933	12.29
316.146	-53.25
316.36	22.53
316.573	90.11
316.787	118.78
317.001	57.34
317.214	32.77
317.428	45.06
317.641	106.49
317.855	51.2
318.068	-43.01
318.282	34.82
318.495	88.06
318.709	63.49
318.922	65.54
319.136	69.63
319.349	110.59
319.563	28.67
319.776	65.54
319.99	6.14
320.203	108.54
320.417	65.54
320.63	83.97
320.843	96.25
321.057	4.1
321.27	6.14
321.483	116.73
321.697	63.49
321.91	-36.86
322.124	94.21
322.337	59.39
322.55	32.77
322.763	61.44
322.977	26.62
323.19	-20.48
323.403	88.06
323.617	36.86
323.83	104.45
324.043	28.67
324.256	40.96
324.469	8.19
324.683	49.15
324.896	86.01
325.109	96.25
325.322	-28.67
325.535	40.96
325.748	79.87
325.962	16.38
326.175	8.19
326.388	69.63
326.601	49.15
326.814	51.2
327.027	88.06
327.24	102.4
327.453	-57.34
327.666	61.44
327.879	118.78
328.092	96.25
328.305	34.82
328.518	63.49
328.731	24.58
328.944	-14.34
329.157	6.14
329.37	28.67
329.583	176.13
329.796	40.96
330.009	32.77
330.222	65.54
330.435	86.01
330.648	4.1
330.861	-22.53
331.073	106.49
331.286	79.87
331.499	88.06
331.712	-53.25
331.925	-96.25
332.138	90.11
332.35	-4.1
332.563	32.77
332.776	98.3
332.989	79.87
333.202	14.34
333.414	49.15
333.627	81.92
333.84	69.63
334.053	98.3
334.265	8.19
334.478	10.24
334.691	108.54
334.903	53.25
335.116	0
335.329	28.67
335.541	28.67
335.754	57.34
335.966	43.01
336.179	61.44
336.392	77.82
336.604	61.44
336.817	90.11
337.029	112.64
337.242	83.97
337.454	92.16
337.667	4.1
337.88	65.54
338.092	51.2
338.305	57.34
338.517	-6.14
338.729	98.3
338.942	118.78
339.154	26.62
339.367	-10.24
339.579	77.82
339.792	49.15
340.004	63.49
340.217	-6.14
340.429	57.34
340.641	75.77
340.854	94.21
341.066	-8.19
341.278	75.77
341.491	79.87
341.703	75.77
341.915	-2.05
342.128	100.35
342.34	88.06
342.552	45.06
342.764	22.53
342.977	61.44
343.189	71.68
343.401	104.45
343.613	22.53
343.826	102.4
344.038	18.43
344.25	36.86
344.462	-26.62
344.674	92.16
344.886	47.1
345.099	34.82
345.311	81.92
345.523	88.06
345.735	-32.77
345.947	6.14
346.159	77.82
346.371	53.25
346.583	6.14
346.795	90.11
347.007	47.1
347.219	79.87
347.431	73.73
347.643	86.01
347.855	73.73
348.067	53.25
348.279	26.62
348.491	67.58
348.703	90.11
348.915	79.87
349.127	18.43
349.339	83.97
349.551	4.1
349.763	61.44
349.975	45.06
350.187	100.35
350.399	-2.05
350.61	110.59
350.822	96.25
351.034	86.01
351.246	-12.29
351.458	47.1
351.669	55.3
351.881	73.73
352.093	16.38
352.305	112.64
352.517	61.44
352.728	77.82
352.94	6.14
353.152	79.87
353.363	20.48
353.575	30.72
353.787	75.77
353.999	10.24
354.21	79.87
354.422	40.96
354.633	69.63
354.845	6.14
355.057	63.49
355.268	90.11
355.48	86.01
355.692	0
355.903	2.05
356.115	-16.38
356.326	40.96
356.538	88.06
356.749	92.16
356.961	94.21
357.172	30.72
357.384	51.2
357.595	53.25
357.807	55.3
358.018	18.43
358.23	100.35
358.441	92.16
358.653	2.05
358.864	38.91
359.075	-10.24
359.287	77.82
359.498	63.49
359.709	131.07
359.921	45.06
360.132	67.58
360.344	32.77
360.555	67.58
360.766	14.34
360.977	-24.58
361.189	120.83
361.4	65.54
361.611	108.54
361.823	65.54
362.034	34.82
362.245	-34.82
362.456	51.2
362.667	131.07
362.879	51.2
363.09	79.87
363.301	88.06
363.512	0
363.723	8.19
363.935	18.43
364.146	30.72
364.357	40.96
364.568	14.34
364.779	-4.1
364.99	88.06
365.201	22.53
365.412	61.44
365.623	-10.24
365.834	-6.14
366.045	75.77
366.256	116.73
366.467	110.59
366.678	57.34
366.889	-6.14
367.1	153.6
367.311	59.39
367.522	6.14
367.733	26.62
367.944	155.65
368.155	-16.38
368.366	81.92
368.577	98.3
368.788	90.11
368.999	-6.14
369.209	47.1
369.42	129.02
369.631	165.89
369.842	83.97
370.053	-4.1
370.264	45.06
370.474	-14.34
370.685	75.77
370.896	43.01
371.107	147.45
371.317	131.07
371.528	43.01
371.739	90.11
371.95	157.69
372.16	71.68
372.371	55.3
372.582	77.82
372.792	102.4
373.003	65.54
373.214	34.82
373.424	116.73
373.635	34.82
373.846	90.11
374.056	-26.62
374.267	108.54
374.477	49.15
374.688	40.96
374.898	47.1
375.109	77.82
375.319	86.01
375.53	100.35
375.74	-22.53
375.951	36.86
376.161	38.91
376.372	16.38
376.582	12.29
376.793	69.63
377.003	30.72
377.214	71.68
377.424	88.06
377.635	47.1
377.845	24.58
378.055	73.73
378.266	-79.87
378.476	24.58
378.686	77.82
378.897	90.11
379.107	18.43
379.317	112.64
379.528	6.14
379.738	106.49
379.948	34.82
380.158	4.1
380.369	96.25
380.579	116.73
380.789	51.2
380.999	61.44
381.21	129.02
381.42	106.49
381.63	100.35
381.84	71.68
382.05	83.97
382.261	98.3
382.471	65.54
382.681	16.38
382.891	155.65
383.101	24.58
383.311	-18.43
383.521	22.53
383.731	32.77
383.941	57.34
384.151	4.1
384.361	53.25
384.571	65.54
384.781	118.78
384.991	112.64
385.201	96.25
385.411	104.45
385.621	83.97
385.831	61.44
386.041	73.73
386.251	65.54
386.461	88.06
386.671	98.3
386.881	24.58
387.091	36.86
387.301	129.02
387.511	26.62
387.72	55.3
387.93	53.25
388.14	-14.34
388.35	18.43
388.56	92.16
388.769	59.39
388.979	71.68
389.189	12.29
389.399	116.73
389.609	63.49
389.818	120.83
390.028	77.82
390.238	-24.58
390.447	67.58
390.657	141.31
390.867	110.59
391.076	16.38
391.286	75.77
391.496	45.06
391.705	73.73
391.915	129.02
392.125	100.35
392.334	143.36
392.544	116.73
392.753	30.72
392.963	114.69
393.172	149.5
393.382	86.01
393.591	49.15
393.801	98.3
394.01	102.4
394.22	98.3
394.429	65.54
394.639	65.54
394.848	94.21
395.058	75.77
395.267	104.45
395.477	49.15
395.686	71.68
395.895	137.21
396.105	196.61
396.314	129.02
396.524	96.25
396.733	71.68
396.942	184.32
397.152	79.87
397.361	155.65
397.57	69.63
397.78	81.92
397.989	77.82
398.198	129.02
398.407	73.73
398.617	122.88
398.826	57.34
399.035	118.78
399.244	77.82
399.453	139.26
399.663	116.73
399.872	145.41
400.081	61.44
400.29	149.5
400.499	135.17
400.708	114.69
400.917	90.11
401.127	81.92
401.336	83.97
401.545	90.11
401.754	182.27
401.963	100.35
402.172	104.45
402.381	81.92
402.59	141.31
402.799	61.44
403.008	133.12
403.217	73.73
403.426	79.87
403.635	120.83
403.844	100.35
404.053	112.64
404.262	63.49
404.471	196.61
404.68	215.04
404.888	129.02
405.097	229.37
405.306	122.88
405.515	147.45
405.724	217.08
405.933	188.41
406.142	235.52
406.35	184.32
406.559	131.07
406.768	167.93
406.977	194.56
407.185	200.7
407.394	260.09
407.603	206.84
407.812	219.13
408.02	239.61
408.229	227.32
408.438	174.08
408.646	198.65
408.855	272.38
409.064	258.04
409.272	278.52
409.481	264.19
409.69	319.48
409.898	270.33
410.107	262.14
410.315	296.96
410.524	370.68
410.733	405.5
410.941	290.81
411.15	372.73
411.358	405.5
411.567	458.75
411.775	438.27
411.984	495.61
412.192	477.18
412.401	409.59
412.609	481.27
412.818	417.79
413.026	432.12
413.234	585.72
413.443	434.17
413.651	600.05
413.86	528.38
414.068	636.92
414.276	585.72
414.485	614.39
414.693	614.39
414.901	724.98
415.11	684.02
415.318	712.69
415.526	741.36
415.734	767.99
415.943	772.08
416.151	888.82
416.359	843.76
416.567	811
416.776	894.96
416.984	1001.46
417.192	923.63
417.4	954.35
417.608	972.79
417.817	1040.37
418.025	1130.48
418.233	1155.05
418.441	1058.8
418.649	1157.1
418.857	1230.83
419.065	1275.88
419.273	1312.75
419.481	1325.04
419.689	1415.15
419.897	1507.31
420.105	1468.39
420.313	1472.49
420.521	1646.57
420.729	1595.37
420.937	1689.57
421.145	1611.75
421.353	1808.36
421.561	1888.23
421.769	1937.38
421.977	2009.06
422.185	2097.12
422.393	2211.81
422.601	2289.63
422.809	2267.1
423.017	2213.85
423.224	2367.45
423.432	2465.75
423.64	2465.75
423.848	2658.26
424.056	2617.3
424.263	2754.52
424.471	2832.34
424.679	2871.25
424.887	2893.78
425.094	3100.62
425.302	3209.17
425.51	3200.98
425.718	3418.06
425.925	3477.45
426.133	3600.33
426.341	3717.06
426.548	3786.69
426.756	4014.02
426.964	4005.83
427.171	4116.42
427.379	4368.32
427.586	4227.01
427.794	4448.19
428.001	4669.37
428.209	4863.93
428.417	4827.06
428.624	5205.94
428.832	5078.96
429.039	5056.43
429.247	5294
429.454	5717.93
429.662	6072.23
429.869	5607.34
430.076	5961.64
430.284	5851.05
430.491	6121.38
430.699	6375.33
430.906	6571.93
431.114	6539.16
431.321	6705.05
431.528	6905.75
431.736	7321.49
431.943	7526.29
432.15	7534.48
432.358	7491.47
432.565	8046.47
432.772	7843.72
432.979	8480.64
433.187	8402.82
433.394	8429.44
433.601	9115.51
433.808	9064.31
434.016	9015.16
434.223	9461.62
434.43	10022.76
434.637	9838.44
434.844	10354.53
435.052	10616.67
435.259	10346.34
435.466	10719.07
435.673	10688.35
435.88	11319.12
436.087	11931.47
436.294	12091.21
436.501	11700.05
436.708	11880.27
436.915	11992.9
437.122	12746.56
437.329	12640.06
437.537	13125.43
437.743	13254.45
437.95	13289.27
438.157	13918
438.364	14276.39
438.571	14384.93
438.778	14235.43
438.985	15714.06
439.192	15034.14
439.399	15683.34
439.606	15230.74
439.813	16121.61
440.02	17075.96
440.227	16770.82
440.433	16764.67
440.64	17204.99
440.847	17166.07
441.054	17575.67
441.261	18775.78
441.467	18622.18
441.674	18841.31
441.881	19728.08
442.088	19373.78
442.294	19130.08
442.501	19920.59
442.708	20422.34
442.914	20844.23
443.121	21913.27
443.328	21239.48
443.534	22865.57
443.741	22199.98
443.948	21726.9
444.154	23625.37
444.361	23066.27
444.568	23494.3
444.774	23299.74
444.981	23975.57
445.187	24520.33
445.394	25312.89
445.6	24884.87
445.807	27510.36
446.013	26519.15
446.22	26906.21
446.426	27999.83
446.633	28204.63
446.839	29193.79
447.046	27997.78
447.252	29658.68
447.459	29681.21
447.665	29439.55
447.871	30701.1
448.078	31751.71
448.284	30176.82
448.491	31378.98
448.697	32335.38
448.903	33240.58
449.11	33627.65
449.316	32824.84
449.522	33445.38
449.728	34377.2
449.935	34477.55
450.141	34559.47
450.347	35192.29
450.553	34139.64
450.76	34375.16
450.966	35859.93
451.172	35319.27
451.378	36267.48
451.584	35474.91
451.791	36447.7
451.997	36462.04
452.203	37084.62
452.409	37064.14
452.615	36617.68
452.821	35620.32
453.027	35134.95
453.233	36912.59
453.44	35528.16
453.646	35847.64
453.852	35890.65
454.058	36572.63
454.264	35431.91
454.47	36453.84
454.676	35634.66
454.882	36734.42
455.088	33510.91
455.294	33977.85
455.5	34166.26
455.705	34618.86
455.911	33756.67
456.117	32693.77
456.323	32773.64
456.529	30567.98
456.735	31979.03
456.941	31313.44
457.147	30535.21
457.352	29806.14
457.558	29433.41
457.764	29404.74
457.97	28950.09
458.176	28661.32
458.381	28575.31
458.587	26891.88
458.793	27020.9
458.999	25591.42
459.204	27539.04
459.41	26574.44
459.616	24929.92
459.821	24915.59
460.027	24882.82
460.233	24080.02
460.438	22943.39
460.644	23565.98
460.85	22269.61
461.055	22073.01
461.261	22099.63
461.466	20338.38
461.672	19525.33
461.878	20928.19
462.083	19660.5
462.289	19115.74
462.494	19044.06
462.7	18222.83
462.905	17848.05
463.111	18536.17
463.316	18568.93
463.522	17802.99
463.727	17747.7
463.932	18099.95
464.138	17925.87
464.343	18069.23
464.549	17247.99
464.754	17966.83
464.959	17862.38
465.165	17610.48
465.37	17075.96
465.575	16371.46
465.781	17254.14
465.986	17123.07
466.191	16656.13
466.397	16396.04
466.602	15474.45
466.807	16299.78
467.012	16193.29
467.218	16080.65
467.423	15951.63
467.628	16002.83
467.833	16654.08
468.038	15982.35
468.244	15464.21
468.449	15898.38
468.654	15902.48
468.859	15453.97
469.064	15478.55
469.269	14935.84
469.474	14980.89
469.679	15320.85
469.885	14821.15
470.09	14929.69
470.295	14872.35
470.5	14313.25
470.705	14507.81
470.91	14505.76
471.115	14233.38
471.32	14491.43
471.525	14546.72
471.73	14210.86
471.935	13879.08
472.139	13420.34
472.344	13772.59
472.549	13440.82
472.754	13403.96
472.959	13260.6
473.164	12863.29
473.369	12631.87
473.574	13172.53
473.778	13139.77
473.983	12961.59
474.188	12922.68
474.393	12027.72
474.598	12410.69
474.802	12193.61
475.007	12097.35
475.212	12273.48
475.417	11802.44
475.621	11687.76
475.826	11552.59
476.031	11650.89
476.235	11302.74
476.44	11581.26
476.645	11143
476.849	11333.46
477.054	11321.17
477.259	10921.82
477.463	10921.82
477.668	10700.64
477.872	11024.22
478.077	10579.81
478.282	10389.35
478.486	10551.13
478.691	10344.29
478.895	10159.97
479.1	9949.03
479.304	10110.82
479.509	9920.36
479.713	9985.9
479.918	9750.38
480.122	9781.1
480.326	9932.65
480.531	9670.51
480.735	9740.14
480.94	9535.34
481.144	9901.93
481.348	9467.76
481.553	9594.73
481.757	9289.59
481.961	9471.86
482.166	9744.24
482.37	9695.08
482.574	9508.72
482.778	9369.46
482.983	9465.71
483.187	9363.31
483.391	9531.25
483.595	9400.18
483.8	9451.38
484.004	9566.06
484.208	9656.17
484.412	9365.36
484.616	9475.95
484.821	9363.31
485.025	9013.11
485.229	9353.07
485.433	9322.35
485.637	9269.11
485.841	9246.58
486.045	9402.22
486.249	9478
486.453	9152.37
486.657	9525.1
486.861	9301.87
487.065	9045.88
487.269	9305.97
487.473	9287.54
487.677	9463.66
487.881	9322.35
488.085	9416.56
488.289	9557.87
488.493	9521.01
488.697	9453.42
488.901	9658.22
489.105	9283.44
489.309	9467.76
489.512	9475.95
489.716	9523.05
489.92	9355.12
490.124	9547.63
490.328	9668.46
490.531	9525.1
490.735	9635.69
490.939	9766.76
491.143	9539.44
491.346	9518.96
491.55	9826.15
491.754	9721.71
491.958	9664.36
492.161	9623.41
492.365	9705.32
492.569	10035.05
492.772	9893.74
492.976	9912.17
493.18	9973.61
493.383	10076.01
493.587	10082.15
493.79	10325.86
493.994	10205.03
494.197	10268.52
494.401	10231.65
494.605	10465.12
494.808	10542.94
495.012	10442.59
495.215	10547.04
495.419	10803.04
495.622	10616.67
495.825	10735.45
496.029	10862.43
496.232	10903.39
496.436	10991.45
496.639	11155.29
496.843	11220.82
497.046	11304.79
497.249	11595.6
497.453	11681.61
497.656	11706.19
497.859	11794.25
498.063	11784.01
498.266	12320.58
498.469	11925.32
498.673	12072.78
498.876	12164.93
499.079	12441.41
499.282	12513.09
499.485	12932.92
499.689	12707.65
499.892	12959.55
500.095	13104.95
500.298	13209.4
500.501	13182.77
500.705	13643.57
500.908	13729.58
501.111	13934.38
501.314	13829.93
501.517	13852.46
501.72	14163.75
501.923	14229.29
502.126	14343.97
502.329	14585.63
502.532	14827.29
502.735	14989.08
502.938	15089.43
503.141	15189.78
503.344	15345.43
503.547	15400.72
503.75	15472.4
503.953	15945.48
504.156	16146.19
504.359	16158.47
504.562	16361.22
504.765	16662.27
504.968	16584.45
505.17	17125.11
505.373	16985.85
505.576	17227.51
505.779	17305.34
505.982	17460.98
506.185	17835.76
506.387	17882.86
506.59	18034.41
506.793	18435.81
506.996	18407.14
507.198	18638.56
507.401	18802.4
507.604	18972.38
507.807	19373.78
508.009	19343.06
508.212	19302.11
508.415	19838.67
508.617	20092.62
508.82	19900.11
509.022	20090.57
509.225	20592.33
509.428	20508.36
509.63	20956.86
509.833	20829.89
510.035	21518.01
510.238	21206.72
510.44	21692.08
510.643	21927.6
510.845	22181.55
511.048	21995.18
511.25	22822.56
511.453	22490.79
511.655	23248.54
511.858	23084.7
512.06	23309.98
512.262	23295.64
512.465	23250.59
512.667	23565.98
512.87	24004.24
513.072	24051.34
513.274	24692.36
513.477	24450.7
513.679	24602.25
513.881	25382.52
514.084	25421.44
514.286	25226.88
514.488	25597.56
514.69	25884.28
514.893	26465.9
515.095	25904.76
515.297	26728.04
515.499	26472.04
515.701	26662.51
515.904	26887.78
516.106	27455.07
516.308	27270.75
516.51	27922.01
516.712	27860.57
516.914	28384.85
517.116	28431.95
517.318	28460.62
517.52	28821.06
517.722	28890.7
517.925	29449.79
518.127	29525.57
518.329	29251.14
518.531	29646.4
518.733	30066.23
518.935	30311.99
519.136	30205.49
519.338	30971.43
519.54	30756.39
519.742	31209
519.944	30891.56
520.146	31323.68
520.348	31802.91
520.55	32341.52
520.752	31987.22
520.954	32560.66
521.155	32058.9
521.357	32710.16
521.559	32855.56
521.761	33580.54
521.963	33216.01
522.164	33347.08
522.366	33732.09
522.568	33902.07
522.77	34221.56
522.971	34663.92
523.173	34031.1
523.375	34387.44
523.576	34346.48
523.778	34616.82
523.98	35003.88
524.181	35362.28
524.383	35034.6
524.584	35401.19
524.786	35436
524.988	35263.97
525.189	36251.09
525.391	35964.38
525.592	35902.94
525.794	36290.01
525.995	36423.12
526.197	36107.74
526.398	36525.52
526.6	36943.31
526.801	36959.69
527.003	37070.28
527.204	36670.93
527.406	37320.13
527.607	37279.18
527.808	37938.62
528.01	36802
528.211	37295.56
528.412	38094.27
528.614	37537.22
528.815	37621.19
529.016	38010.3
529.218	37649.86
529.419	37721.54
529.62	38104.51
529.822	37914.05
530.023	37967.29
530.224	38356.41
530.425	38198.71
530.626	37746.11
530.828	37823.93
531.029	38524.34
531.23	38378.93
531.431	38057.4
531.632	38317.5
531.833	38714.8
532.035	38319.54
532.236	38722.99
532.437	38553.01
532.638	38469.04
532.839	38581.68
533.04	38878.64
533.241	38274.49
533.442	39110.06
533.643	38825.39
533.844	38698.42
534.045	38876.59
534.246	38550.96
534.447	38821.3
534.648	38323.64
534.849	38911.41
535.05	38411.7
535.251	38563.25
535.451	38440.37
535.652	39140.78
535.853	38624.69
536.054	38829.49
536.255	39075.24
536.456	38149.56
536.657	38870.45
536.857	38503.86
537.058	38454.71
537.259	38843.82
537.46	38512.05
537.66	38346.17
537.861	38452.66
538.062	38585.78
538.263	38473.14
538.463	38407.61
538.664	38931.89
538.865	38657.46
539.065	39105.96
539.266	37918.14
539.466	38749.62
539.667	38475.19
539.868	39097.77
540.068	38507.96
540.269	38544.82
540.469	38768.05
540.67	38475.19
540.87	38323.64
541.071	38452.66
541.271	39015.85
541.472	38163.9
541.672	38348.21
541.873	38301.11
542.073	38174.14
542.274	38774.19
542.474	38436.28
542.675	38061.5
542.875	38514.1
543.075	38303.16
543.276	37909.95
543.476	38481.33
543.676	38196.67
543.877	38428.09
544.077	38127.03
544.277	38176.19
544.478	38270.39
544.678	38450.61
544.878	37825.98
545.078	38010.3
545.279	37930.43
545.479	37879.23
545.679	38544.82
545.879	38147.51
546.079	38106.55
546.28	37809.6
546.48	37821.89
546.68	37985.72
546.88	38135.23
547.08	38155.71
547.28	37909.95
547.48	37557.7
547.68	37905.85
547.88	37631.43
548.081	38198.71
548.281	37600.71
548.481	37868.99
548.681	37895.61
548.881	37819.84
549.081	37688.77
549.28	37301.7
549.48	38256.06
549.68	38260.15
549.88	38069.69
550.08	37406.15
550.28	37842.37
550.48	37797.31
550.68	38002.11
550.88	37438.92
551.08	37643.71
551.279	37979.58
551.479	37270.98
551.679	37553.6
551.879	37440.96
552.079	37588.42
552.278	37248.46
552.478	37735.87
552.678	37262.79
552.878	37684.67
553.077	37518.79
553.277	36963.79
553.477	38055.36
553.676	37565.89
553.876	37176.78
554.076	37062.09
554.275	37451.2
554.475	36885.97
554.674	37526.98
554.874	37213.64
555.074	37205.45
555.273	37492.16
555.473	37297.61
555.672	37017.04
555.872	37711.3
556.071	37205.45
556.271	37367.24
556.47	37408.2
556.67	37055.95
556.869	36941.26
557.068	37172.68
557.268	37101
557.467	37041.61
557.667	36869.58
557.866	36746.7
558.065	36738.51
558.265	36832.72
558.464	36443.6
558.663	37209.54
558.863	36486.61
559.062	36996.56
559.261	36349.4
559.461	36734.42
559.66	36484.56
559.859	36562.39
560.058	36031.96
560.258	36322.77
560.457	36083.16
560.656	36419.03
560.855	36173.27
561.054	36543.95
561.253	36240.85
561.453	35904.99
561.652	36165.08
561.851	36242.9
562.05	35796.45
562.249	35825.12
562.448	36232.66
562.647	35956.19
562.846	36361.69
563.045	36152.79
563.244	35864.03
563.443	36083.16
563.642	35597.79
563.841	35423.72
564.04	35388.9
564.239	35741.15
564.438	35397.09
564.637	35886.56
564.836	35806.69
565.035	35007.98
565.234	35360.23
565.432	35239.4
565.631	35243.49
565.83	35319.27
566.029	35149.29
566.228	35206.63
566.427	35083.75
566.625	35014.12
566.824	34559.47
567.023	34942.44
567.222	34633.2
567.42	35204.58
567.619	34643.44
567.818	34704.88
568.016	34645.49
568.215	34967.02
568.414	34422.26
568.612	34881
568.811	34067.96
569.01	34149.88
569.208	33969.66
569.407	34389.49
569.605	34147.83
569.804	34407.92
570.002	33809.92
570.201	34315.76
570.4	33715.71
570.598	34067.96
570.797	33717.76
570.995	33650.17
571.193	33646.08
571.392	33842.68
571.59	33293.83
571.789	33463.81
571.987	33291.78
572.186	33379.84
572.384	33340.93
572.582	33596.93
572.781	33467.91
572.979	33328.64
573.177	33183.24
573.376	33152.52
573.574	33072.65
573.772	33519.1
573.971	33195.53
574.169	32892.43
574.367	32548.37
574.565	33109.51
574.763	32880.14
574.962	32673.29
575.16	32290.32
575.358	32216.6
575.556	32095.77
575.754	32648.72
575.952	32466.45
576.151	32536.08
576.349	32048.66
576.547	32056.85
576.745	32208.4
576.943	32038.42
577.141	31995.42
577.339	31780.38
577.537	31938.07
577.735	31649.31
577.933	31559.2
578.131	32032.28
578.329	31548.96
578.527	30996.01
578.725	31505.95
578.923	31350.31
579.121	31319.59
579.319	31387.17
579.516	31497.76
579.714	30928.42
579.912	31077.93
580.11	30965.29
580.308	31190.56
580.506	30838.31
580.704	30535.21
580.901	30823.98
581.099	31036.97
581.297	30596.65
581.495	30541.36
581.692	30639.66
581.89	30271.03
582.088	30514.73
582.285	30178.87
582.483	30295.6
582.681	30246.45
582.878	30017.08
583.076	29984.31
583.274	30266.93
583.471	29644.35
583.669	29939.26
583.866	29406.78
584.064	29990.45
584.262	29265.47
584.459	29730.36
584.657	29421.12
584.854	29681.21
585.052	28755.53
585.249	29263.43
585.447	29144.64
585.644	28812.87
585.841	29140.55
586.039	29378.11
586.236	28538.44
586.434	29046.34
586.631	28849.74
586.828	28841.54
587.026	28737.1
587.223	28515.92
587.42	28356.18
587.618	28481.1
587.815	28083.8
588.012	28409.42
588.21	28259.92
588.407	28292.69
588.604	28124.75
588.801	27704.92
588.999	27860.57
589.196	28214.87
589.393	27811.42
589.59	27647.58
589.787	27739.74
589.984	27618.91
590.182	27299.42
590.379	27520.6
590.576	27395.68
590.773	27317.86
590.97	27240.03
591.167	27100.77
591.364	26906.21
591.561	26955.36
591.758	26801.77
591.955	26855.01
592.152	26918.5
592.349	26558.06
592.546	27070.05
592.743	26875.49
592.94	26383.98
593.137	26793.58
593.334	26484.33
593.531	25808.5
593.727	26355.31
593.924	26295.92
594.121	26044.02
594.318	26125.94
594.515	26224.24
594.712	26082.93
594.908	25644.66
595.105	25931.38
595.302	25321.09
595.499	25656.95
595.696	25540.22
595.892	25319.04
596.089	25738.87
596.286	25421.44
596.482	25417.34
596.679	24934.02
596.876	25228.93
597.072	24956.55
597.269	25261.69
597.466	24772.23
597.662	24780.42
597.859	24909.44
598.055	25071.23
598.252	24684.17
598.448	24796.81
598.645	24503.95
598.841	24497.8
599.038	24299.15
599.234	24213.13
599.431	24536.71
599.627	23975.57
599.824	24299.15
600.02	23832.21
600.217	23805.59
600.413	23578.26
600.609	23748.25
600.806	23625.37
601.002	23582.36
601.198	23387.8
601.395	23570.07
601.591	23361.18
601.787	23383.71
601.984	23299.74
602.18	23461.53
602.376	23127.71
602.572	22867.62
602.769	23035.55
602.965	23041.7
603.161	23090.85
603.357	22818.47
603.553	22699.69
603.75	22898.34
603.946	22541.99
604.142	22847.14
604.338	22451.88
604.534	22369.96
604.73	22062.77
604.926	22132.4
605.122	22167.21
605.318	22367.91
605.514	21970.61
605.71	22142.64
605.906	22097.58
606.102	21876.4
606.298	21929.65
606.494	21870.26
606.69	21829.3
606.886	21765.81
607.082	21558.97
607.278	21935.79
607.474	21423.8
607.67	21661.37
607.866	21139.13
608.062	21759.67
608.257	21200.57
608.453	21802.68
608.649	21321.4
608.845	20907.71
609.041	21337.79
609.236	21380.79
609.432	21409.47
609.628	21169.85
609.824	21339.83
610.019	20946.62
610.215	21006.02
610.411	21044.93
610.606	21036.73
610.802	20909.76
610.998	20989.63
611.193	20727.49
611.389	20838.08
611.584	20850.37
611.78	20784.83
611.976	20711.11
612.171	20797.12
612.367	20377.29
612.562	20721.35
612.758	20563.65
612.953	20596.42
613.149	20584.13
613.344	20313.8
613.539	20518.6
613.735	20328.14
613.93	20367.05
614.126	20057.81
614.321	20541.13
614.517	20076.24
614.712	20133.58
614.907	20518.6
615.103	20059.85
615.298	20117.2
615.493	20137.68
615.688	19986.13
615.884	20170.44
616.079	19889.87
616.274	19703.51
616.47	19848.91
616.665	19840.72
616.86	19683.03
617.055	19803.86
617.25	19799.76
617.445	19918.54
617.641	19658.45
617.836	19846.87
618.031	19521.24
618.226	19328.73
618.421	19185.37
618.616	19173.08
618.811	19279.58
619.006	19392.22
619.201	18966.24
619.396	19406.55
619.591	18726.63
619.786	19064.54
619.981	18517.73
620.176	19156.7
620.371	18521.83
620.566	18394.86
620.761	18626.28
620.956	18720.48
621.151	18419.43
621.346	18403.05
621.541	18106.09
621.735	18384.62
621.93	17854.19
622.125	17966.83
622.32	17739.51
622.515	17764.08
622.709	17680.11
622.904	17762.03
623.099	17719.03
623.294	17575.67
623.488	17592.05
623.683	17590
623.878	16938.75
624.072	17086.2
624.267	17194.75
624.462	17078.01
624.656	16801.54
624.851	16836.35
625.046	16645.89
625.24	16613.12
625.435	16463.62
625.629	16611.07
625.824	16254.73
626.018	16502.53
626.213	16084.75
626.407	16045.84
626.602	15986.44
626.796	16152.33
626.991	16031.5
627.185	15726.35
627.38	15671.06
627.574	15482.64
627.768	15419.16
627.963	15394.58
628.157	15204.12
628.352	15447.83
628.546	15042.33
628.74	15380.25
628.935	14989.08
629.129	15003.42
629.323	14788.38
629.517	14708.51
629.712	14657.31
629.906	14642.98
630.1	14493.47
630.294	14513.95
630.489	14493.47
630.683	14454.56
630.877	13944.62
631.071	13985.58
631.265	14194.47
631.459	13862.7
631.653	13823.79
631.848	13846.32
632.042	13721.39
632.236	13979.43
632.43	13688.62
632.624	13797.17
632.818	13510.45
633.012	13455.15
633.206	13457.2
633.4	13311.8
633.594	13233.97
633.788	13182.77
633.982	13049.66
634.176	13098.81
634.369	12971.83
634.563	12967.74
634.757	13059.9
634.951	12996.41
635.145	12803.9
635.339	12742.46
635.533	12681.02
635.726	12560.19
635.92	12844.86
636.114	12365.64
636.308	12517.19
636.501	12488.51
636.695	12212.04
636.889	12058.44
637.083	12300.1
637.276	12191.56
637.47	12140.36
637.664	12009.29
637.857	12042.06
638.051	11986.76
638.244	11878.22
638.438	11544.4
638.632	11669.33
638.825	11622.22
639.019	11511.63
639.212	11466.58
639.406	11738.96
639.599	11353.94
639.793	11415.38
639.986	11130.71
640.18	11116.37
640.373	11259.73
640.567	10952.54
640.76	11292.5
640.954	10948.44
641.147	10987.35
641.34	11032.41
641.534	10774.36
641.727	10696.54
641.92	10848.09
642.114	10665.82
642.307	10612.57
642.5	10516.32
642.694	10387.3
642.887	10381.15
643.08	10622.81
643.273	10313.57
643.467	10346.34
643.66	10149.73
643.853	10379.11
644.046	9953.13
644.239	10135.4
644.432	9801.58
644.626	9949.03
644.819	10012.52
645.012	9969.51
645.205	9908.07
645.398	9744.24
645.591	9619.31
645.784	9744.24
645.977	9752.43
646.17	9404.27
646.363	9746.28
646.556	9473.9
646.749	9371.51
646.942	9523.05
647.135	9363.31
647.328	9326.45
647.521	9400.18
647.714	9203.57
647.907	9158.52
648.099	9230.2
648.292	9133.94
648.485	9084.79
648.678	9025.4
648.871	8693.63
649.064	8806.27
649.256	8767.35
649.449	8851.32
649.642	8730.49
649.835	8816.51
650.027	8710.01
650.22	8460.16
650.413	8474.49
650.605	8517.5
650.798	8638.33
650.991	8302.47
651.183	8355.71
651.376	8327.04
651.568	8374.14
651.761	8263.55
651.954	8337.28
652.146	8232.83
652.339	8222.59
652.531	8013.7
652.724	8060.8
652.916	7968.65
653.109	7853.96
653.301	7972.74
653.494	7839.62
653.686	7821.19
653.879	7845.77
654.071	7692.17
654.263	7608.2
654.456	7636.88
654.648	7638.92
654.84	7473.04
655.033	7505.81
655.225	7581.58
655.417	7358.35
655.61	7552.91
655.802	7462.8
655.994	7241.62
656.186	7368.59
656.379	7356.3
656.571	7229.33
656.763	7331.73
656.955	7143.31
657.148	7153.55
657.34	7258
657.532	7192.47
657.724	7169.94
657.916	7030.68
658.108	7108.5
658.3	6956.95
658.492	6959
658.684	6848.41
658.876	6875.03
659.068	6709.15
659.26	6836.12
659.452	6666.14
659.644	6707.1
659.836	6614.94
660.028	6555.55
660.22	6518.68
660.412	6541.21
660.604	6422.43
660.796	6569.88
660.988	6502.3
661.18	6428.57
661.372	6365.09
661.563	6201.25
661.755	6250.4
661.947	6250.4
662.139	6303.65
662.331	6371.23
662.522	6117.28
662.714	6156.19
662.906	6139.81
663.097	6188.96
663.289	6061.99
663.481	5928.87
663.673	5959.59
663.864	6016.93
664.056	5855.14
664.247	5961.64
664.439	5945.25
664.631	6006.69
664.822	5838.76
665.014	5801.9
665.205	5816.23
665.397	5552.04
665.588	5760.94
665.78	5662.63
665.971	5748.65
666.163	5611.43
666.354	5609.39
666.546	5502.89
666.737	5601.19
666.929	5543.85
667.12	5513.13
667.311	5623.72
667.503	5494.7
667.694	5400.49
667.885	5457.84
668.077	5564.33
668.268	5341.1
668.459	5199.79
668.651	5154.74
668.842	5261.23
669.033	5316.53
669.224	5089.2
669.416	5275.57
669.607	5126.07
669.798	5322.67
669.989	5162.93
670.18	5138.35
670.371	5095.35
670.563	5013.43
670.754	4954.04
670.945	5035.96
671.136	5015.48
671.327	4949.94
671.518	5011.38
671.709	4972.47
671.9	5070.77
672.091	4966.32
672.282	4892.6
672.473	4702.14
672.664	4874.17
672.855	4986.8
673.046	4747.19
673.237	4876.21
673.428	4685.75
673.619	4732.86
673.809	4612.03
674	4906.93
674.191	4716.47
674.382	4595.64
674.573	4886.45
674.764	4655.03
674.954	4714.42
675.145	4652.98
675.336	4526.01
675.527	4595.64
675.717	4536.25
675.908	4542.39
676.099	4476.86
676.289	4532.15
676.48	4452.28
676.671	4495.29
676.861	4403.13
677.052	4351.93
677.243	4251.58
677.433	4302.78
677.624	4396.99
677.814	4341.69
678.005	4392.89
678.195	4351.93
678.386	4483
678.576	4208.58
678.767	4224.96
678.957	4104.13
679.148	4331.45
679.338	4313.02
679.529	4360.13
679.719	4274.11
679.909	4233.15
680.1	4194.24
680.29	4114.37
680.481	4159.42
680.671	4304.83
680.861	4134.85
681.052	4069.31
681.242	4171.71
681.432	4177.86
681.622	4038.59
681.813	4114.37
682.003	4140.99
682.193	4011.97
682.383	3946.44
682.573	4110.27
682.764	3995.59
682.954	3983.3
683.144	4018.11
683.334	3930.05
683.524	3901.38
683.714	3903.43
683.904	3983.3
684.094	3839.94
684.284	4001.73
684.474	4028.35
684.664	3928
684.854	3893.19
685.044	3911.62
685.234	3772.36
685.424	3893.19
685.614	3786.69
685.804	3846.09
685.994	3989.44
686.184	3856.33
686.374	3821.51
686.564	3774.41
686.753	3712.97
686.943	3749.83
687.133	3727.3
687.323	3839.94
687.513	3629
687.702	3680.2
687.892	3594.19
688.082	3555.27
688.272	3520.46
688.461	3602.38
688.651	3641.29
688.841	3598.28
689.03	3504.07
689.22	3547.08
689.41	3547.08
689.599	3547.08
689.789	3522.51
689.979	3561.42
690.168	3489.74
690.358	3479.5
690.547	3313.61
690.737	3418.06
690.926	3311.57
691.116	3250.13
691.305	3403.72
691.495	3313.61
691.684	3268.56
691.874	3342.28
692.063	3295.18
692.252	3254.22
692.442	3155.92
692.631	3190.74
692.82	3147.73
693.01	3233.74
693.199	3157.97
693.388	3188.69
693.578	3102.67
693.767	3162.06
693.956	3080.15
694.146	3133.39
694.335	3098.58
694.524	3088.34
694.713	2987.99
694.902	3139.54
695.092	2906.07
695.281	2975.7
695.47	3010.51
695.659	2994.13
695.848	2930.64
696.037	2918.36
696.226	2848.72
696.415	2858.96
696.604	2830.29
696.793	2850.77
696.982	2936.79
697.171	2920.4
697.36	2832.34
697.549	2856.92
697.738	2799.57
697.927	2766.81
698.116	2736.09
698.305	2744.28
698.494	2867.16
698.683	2815.96
698.872	2805.72
699.061	2697.17
699.25	2670.55
699.438	2818.01
699.627	2811.86
699.816	2797.53
700.005	2527.19
700.193	2740.18
700.382	2705.37
700.571	2731.99
700.76	2625.5
700.948	2621.4
701.137	2564.06
701.326	2711.51
701.514	2678.74
701.703	2662.36
701.892	2555.87
702.08	2639.83
702.269	2707.41
702.457	2670.55
702.646	2596.82
702.834	2564.06
703.023	2435.03
703.212	2564.06
703.4	2555.87
703.589	2490.33
703.777	2594.78
703.965	2510.81
704.154	2514.91
704.342	2502.62
704.531	2459.61
704.719	2521.05
704.907	2463.71
705.096	2451.42
705.284	2551.77
705.472	2459.61
705.661	2398.17
705.849	2428.89
706.037	2504.67
706.226	2492.38
706.414	2600.92
706.602	2453.47
706.79	2400.22
706.979	2334.68
707.167	2418.65
707.355	2430.94
707.543	2465.75
707.731	2512.86
707.919	2510.81
708.107	2359.26
708.296	2432.99
708.484	2342.88
708.672	2424.8
708.86	2365.4
709.048	2424.8
709.236	2402.27
709.424	2467.8
709.612	2447.32
709.8	2473.95
709.988	2299.87
710.176	2349.02
710.364	2312.16
710.551	2445.27
710.739	2312.16
710.927	2353.12
711.115	2326.49
711.303	2342.88
711.491	2265.05
711.679	2316.25
711.866	2355.16
712.054	2394.08
712.242	2320.35
712.43	2432.99
712.617	2363.36
712.805	2242.53
712.993	2394.08
713.181	2265.05
713.368	2357.21
713.556	2312.16
713.744	2306.01
713.931	2486.23
714.119	2359.26
714.306	2387.93
714.494	2318.3
714.682	2394.08
714.869	2328.54
715.057	2267.1
715.244	2111.46
715.432	2416.6
715.619	2220
715.807	2330.59
715.994	2260.96
716.182	2285.53
716.369	2349.02
716.556	2355.16
716.744	2299.87
716.931	2275.29
717.119	2324.44
717.306	2361.31
717.493	2334.68
717.681	2396.12
717.868	2299.87
718.055	2308.06
718.242	2306.01
718.43	2295.77
718.617	2332.64
718.804	2275.29
718.991	2316.25
719.179	2279.39
719.366	2234.33
719.553	2260.96
719.74	2299.87
719.927	2195.42
720.114	2176.99
720.301	2258.91
720.488	2201.57
720.676	2420.7
720.863	2308.06
721.05	2316.25
721.237	2260.96
721.424	2258.91
721.611	2314.2
721.798	2205.66
721.985	2238.43
722.172	2283.49
722.358	2263.01
722.545	2244.57
722.732	2129.89
722.919	2297.82
723.106	2295.77
723.293	2396.12
723.48	2316.25
723.667	2349.02
723.853	2285.53
724.04	2437.08
724.227	2281.44
724.414	2385.88
724.6	2318.3
724.787	2377.69
724.974	2340.83
725.161	2310.11
725.347	2258.91
725.534	2351.07
725.72	2359.26
725.907	2449.37
726.094	2332.64
726.28	2369.5
726.467	2279.39
726.653	2349.02
726.84	2400.22
727.027	2416.6
727.213	2349.02
727.4	2340.83
727.586	2357.21
727.773	2346.97
727.959	2318.3
728.145	2324.44
728.332	2430.94
728.518	2363.36
728.705	2279.39
728.891	2344.92
729.077	2418.65
729.264	2316.25
729.45	2424.8
729.636	2420.7
729.823	2400.22
730.009	2295.77
730.195	2457.56
730.382	2514.91
730.568	2344.92
730.754	2369.5
730.94	2435.03
731.126	2389.98
731.313	2404.32
731.499	2408.41
731.685	2332.64
731.871	2410.46
732.057	2537.43
732.243	2598.87
732.429	2396.12
732.615	2467.8
732.801	2480.09
732.987	2529.24
733.173	2432.99
733.359	2424.8
733.545	2406.36
733.731	2457.56
733.917	2504.67
734.103	2439.13
734.289	2459.61
734.475	2377.69
734.661	2516.95
734.847	2475.99
735.033	2531.29
735.219	2541.53
735.404	2521.05
735.59	2396.12
735.776	2314.2
735.962	2529.24
736.148	2473.95
736.333	2498.52
736.519	2416.6
736.705	2482.14
736.89	2516.95
737.076	2547.67
737.262	2596.82
737.447	2498.52
737.633	2443.23
737.819	2529.24
738.004	2504.67
738.19	2539.48
738.375	2441.18
738.561	2557.91
738.747	2480.09
738.932	2482.14
739.118	2445.27
739.303	2480.09
739.489	2633.69
739.674	2463.71
739.859	2453.47
740.045	2441.18
740.23	2629.59
740.416	2564.06
740.601	2656.22
740.786	2467.8
740.972	2531.29
741.157	2572.25
741.342	2478.04
741.528	2512.86
741.713	2598.87
741.898	2496.47
742.084	2385.88
742.269	2566.1
742.454	2484.19
742.639	2349.02
742.824	2428.89
743.01	2598.87
743.195	2549.72
743.38	2482.14
743.565	2478.04
743.75	2469.85
743.935	2447.32
744.12	2545.63
744.305	2398.17
744.49	2443.23
744.675	2496.47
744.86	2527.19
745.045	2467.8
745.23	2451.42
745.415	2402.27
745.6	2508.76
745.785	2312.16
745.97	2459.61
746.155	2316.25
746.34	2303.96
746.525	2400.22
746.71	2299.87
746.895	2361.31
747.079	2430.94
747.264	2306.01
747.449	2349.02
747.634	2215.9
747.819	2398.17
748.003	2283.49
748.188	2260.96
748.373	2263.01
748.557	2344.92
748.742	2318.3
748.927	2254.81
749.111	2281.44
749.296	2271.2
749.481	2344.92
749.665	2332.64
749.85	2156.51
750.034	2260.96
750.219	2308.06
750.404	2172.89
750.588	2179.04
750.773	2213.85
750.957	2101.22
751.141	2234.33
751.326	2213.85
751.51	2191.33
751.695	2097.12
751.879	2131.94
752.064	2228.19
752.248	2107.36
752.432	2174.94
752.617	2066.4
752.801	2080.74
752.985	1976.29
753.17	2193.37
753.354	2078.69
753.538	2213.85
753.722	1898.47
753.907	2021.35
754.091	1884.13
754.275	2105.31
754.459	1912.8
754.643	1837.03
754.828	1908.71
755.012	1980.39
755.196	1935.33
755.38	1871.84
755.564	1978.34
755.748	1933.28
755.932	1902.56
756.116	1908.71
756.3	1861.6
756.484	1904.61
756.668	1902.56
756.852	1904.61
757.036	1859.56
757.22	1748.97
757.404	1769.45
757.588	1767.4
757.772	1765.35
757.956	1798.12
758.14	1830.88
758.323	1755.11
758.507	1722.34
758.691	1703.91
758.875	1761.25
759.059	1787.88
759.242	1636.33
759.426	1603.56
759.61	1648.61
759.794	1617.9
759.977	1683.43
760.161	1728.49
760.345	1656.81
760.528	1654.76
760.712	1710.05
760.895	1597.42
761.079	1562.6
761.263	1472.49
761.446	1619.94
761.63	1519.59
761.813	1581.03
761.997	1552.36
762.18	1560.55
762.364	1531.88
762.547	1490.92
762.731	1578.98
762.914	1568.74
763.098	1576.94
763.281	1521.64
763.464	1449.96
763.648	1552.36
763.831	1531.88
764.015	1470.44
764.198	1499.11
764.381	1540.07
764.564	1445.87
764.748	1538.02
764.931	1452.01
765.114	1384.43
765.297	1538.02
765.481	1470.44
765.664	1480.68
765.847	1353.71
766.03	1376.24
766.213	1431.53
766.397	1447.91
766.58	1411.05
766.763	1398.76
766.946	1458.15
767.129	1423.34
767.312	1468.39
767.495	1452.01
767.678	1404.91
767.861	1417.19
768.044	1388.52
768.227	1458.15
768.41	1355.76
768.593	1378.28
768.776	1413.1
768.959	1255.4
769.142	1341.42
769.324	1329.13
769.507	1402.86
769.69	1243.12
769.873	1316.84
770.056	1468.39
770.239	1398.76
770.421	1320.94
770.604	1279.98
770.787	1294.32
770.97	1232.88
771.152	1269.74
771.335	1253.36
771.518	1247.21
771.7	1282.03
771.883	1294.32
772.066	1236.97
772.248	1208.3
772.431	1261.55
772.613	1341.42
772.796	1275.88
772.978	1191.92
773.161	1247.21
773.343	1077.23
773.526	1173.49
773.708	1204.21
773.891	1081.33
774.073	1214.45
774.256	1144.81
774.438	1263.6
774.621	1140.72
774.803	1257.45
774.985	1183.73
775.168	1142.77
775.35	1103.86
775.532	1089.52
775.715	1142.77
775.897	1034.22
776.079	1077.23
776.261	1097.71
776.444	1079.28
776.626	1110
776.808	1120.24
776.99	1042.42
777.173	987.12
777.355	987.12
777.537	974.83
777.719	942.07
777.901	1054.7
778.083	970.74
778.265	929.78
778.447	950.26
778.629	995.31
778.811	940.02
778.993	835.57
779.175	940.02
779.357	995.31
779.539	933.87
779.721	966.64
779.903	864.24
780.085	864.24
780.267	927.73
780.449	899.06
780.631	856.05
780.812	999.41
780.994	935.92
781.176	919.54
781.358	874.48
781.54	796.66
781.721	804.85
781.903	856.05
782.085	825.33
782.267	854
782.448	794.61
782.63	808.95
782.812	825.33
782.993	806.9
783.175	796.66
783.357	718.84
783.538	825.33
783.72	704.5
783.901	741.36
784.083	835.57
784.264	767.99
784.446	694.26
784.627	727.03
784.809	751.6
784.99	653.3
785.172	710.65
785.353	702.45
785.535	757.75
785.716	755.7
785.897	655.35
786.079	677.88
786.26	729.08
786.441	632.82
786.623	591.86
786.804	638.97
786.985	602.1
787.167	583.67
787.348	604.15
787.529	661.49
787.71	665.59
787.891	688.12
788.073	681.97
788.254	555
788.435	679.93
788.616	618.49
788.797	604.15
788.978	643.06
789.159	577.53
789.34	563.19
789.522	495.61
789.703	634.87
789.884	614.39
790.065	589.82
790.246	616.44
790.427	542.71
790.607	624.63
790.788	569.34
790.969	503.8
791.15	546.81
791.331	589.82
791.512	448.51
791.693	391.16
791.874	417.79
792.054	499.7
792.235	495.61
792.416	489.46
792.597	475.13
792.778	495.61
792.958	477.18
793.139	485.37
793.32	507.9
793.5	436.22
793.681	477.18
793.862	419.83
794.042	573.43
794.223	403.45
794.404	419.83
794.584	524.28
794.765	481.27
794.945	475.13
795.126	481.27
795.306	518.14
795.487	364.54
795.667	425.98
795.848	434.17
796.028	382.97
796.209	534.52
796.389	448.51
796.57	362.49
796.75	368.63
796.93	415.74
797.111	337.91
797.291	409.59
797.471	407.55
797.652	403.45
797.832	329.72
798.012	387.07
798.192	358.39
798.373	397.31
798.553	397.31
798.733	382.97
798.913	417.79
799.093	399.35
799.274	475.13
799.454	364.54
799.634	487.42
799.814	372.73
799.994	356.35
800.174	301.05
800.354	321.53
800.534	368.63
800.714	382.97
800.894	411.64
801.074	331.77
801.254	411.64
801.434	362.49
801.614	337.91
801.794	331.77
801.974	991.22
802.154	290.81
802.334	428.03
802.514	262.14
802.693	335.87
802.873	362.49
803.053	256
803.233	374.78
803.413	342.01
803.592	311.29
803.772	299
803.952	360.44
804.131	247.8
804.311	317.44
804.491	368.63
804.67	296.96
804.85	286.72
805.03	348.15
805.209	325.63
805.389	286.72
805.568	221.18
805.748	278.52
805.928	262.14
806.107	309.24
806.287	282.62
806.466	296.96
806.646	284.67
806.825	274.43
807.004	282.62
807.184	309.24
807.363	344.06
807.543	358.39
807.722	309.24
807.901	331.77
808.081	309.24
808.26	256
808.439	309.24
808.619	288.76
808.798	288.76
808.977	249.85
809.156	337.91
809.336	262.14
809.515	311.29
809.694	243.71
809.873	278.52
810.052	292.86
810.231	245.76
810.411	296.96
810.59	288.76
810.769	239.61
810.948	235.52
811.127	206.84
811.306	198.65
811.485	233.47
811.664	301.05
811.843	249.85
812.022	247.8
812.201	231.42
812.38	270.33
812.559	217.08
812.737	239.61
812.916	223.23
813.095	169.98
813.274	253.95
813.453	174.08
813.632	182.27
813.811	174.08
813.989	139.26
814.168	247.8
814.347	180.22
814.526	161.79
814.704	268.28
814.883	258.04
815.062	217.08
815.24	278.52
815.419	184.32
815.598	233.47
815.776	139.26
815.955	243.71
816.133	161.79
816.312	227.32
816.49	268.28
816.669	247.8
816.847	139.26
817.026	114.69
817.204	112.64
817.383	161.79
817.561	167.93
817.74	286.72
817.918	190.46
818.097	186.37
818.275	159.74
818.453	268.28
818.632	169.98
818.81	223.23
818.988	188.41
819.167	262.14
819.345	155.65
819.523	169.98
819.701	169.98
819.879	206.84
820.058	122.88
820.236	180.22
820.414	223.23
820.592	217.08
820.77	157.69
820.948	260.09
821.127	131.07
821.305	186.37
821.483	167.93
821.661	202.75
821.839	188.41
822.017	221.18
822.195	294.91
822.373	176.13
822.551	180.22
822.729	210.94
822.907	165.89
823.085	147.45
823.262	167.93
823.44	143.36
823.618	190.46
823.796	200.7
823.974	153.6
824.152	129.02
824.329	180.22
824.507	204.8
824.685	176.13
824.863	178.17
825.04	169.98
825.218	204.8
825.396	153.6
825.574	122.88
825.751	190.46
825.929	155.65
826.107	110.59
826.284	96.25
826.462	202.75
826.639	141.31
826.817	133.12
826.994	172.03
827.172	81.92
827.349	290.81
827.527	135.17
827.704	124.93
827.882	172.03
828.059	65.54
828.237	131.07
828.414	137.21
828.591	53.25
828.769	149.5
828.946	118.78
829.124	122.88
829.301	155.65
829.478	131.07
829.655	81.92
829.833	100.35
830.01	106.49
830.187	204.8
830.364	159.74
830.542	165.89
830.719	172.03
830.896	98.3
831.073	137.21
831.25	137.21
831.427	172.03
831.604	81.92
831.782	73.73
831.959	47.1
832.136	81.92
832.313	63.49
832.49	77.82
832.667	124.93
832.844	65.54
833.021	159.74
833.198	124.93
833.374	63.49
833.551	108.54
833.728	104.45
833.905	153.6
834.082	53.25
834.259	106.49
834.436	116.73
834.612	106.49
834.789	137.21
834.966	100.35
835.143	18.43
835.319	55.3
835.496	92.16
835.673	124.93
835.85	106.49
836.026	126.97
836.203	135.17
836.38	69.63
836.556	63.49
836.733	71.68
836.909	88.06
837.086	55.3
837.262	67.58
837.439	122.88
837.616	92.16
837.792	90.11
837.968	34.82
838.145	88.06
838.321	38.91
838.498	151.55
838.674	98.3
838.851	131.07
839.027	112.64
839.203	88.06
839.38	79.87
839.556	45.06
839.732	131.07
839.909	57.34
840.085	139.26
840.261	73.73
840.437	75.77
840.614	83.97
840.79	231.42
840.966	155.65
841.142	73.73
841.318	153.6
841.494	141.31
841.671	32.77
841.847	28.67
842.023	38.91
842.199	83.97
842.375	110.59
842.551	43.01
842.727	116.73
842.903	86.01
843.079	65.54
843.255	96.25
843.431	96.25
843.607	153.6
843.783	14.34
843.959	124.93
844.134	96.25
844.31	94.21
844.486	73.73
844.662	133.12
844.838	61.44
845.013	57.34
845.189	79.87
845.365	49.15
845.541	83.97
845.716	104.45
845.892	96.25
846.068	28.67
846.244	75.77
846.419	79.87
846.595	32.77
846.77	83.97
846.946	126.97
847.122	153.6
847.297	79.87
847.473	86.01
847.648	61.44
847.824	137.21
847.999	38.91
848.175	77.82
848.35	22.53
848.526	135.17
848.701	124.93
848.876	73.73
849.052	163.84
849.227	34.82
849.403	53.25
849.578	124.93
849.753	122.88
849.929	77.82
850.104	18.43
850.279	22.53
850.454	90.11
850.63	88.06
850.805	69.63
850.98	47.1
851.155	20.48
851.33	57.34
851.505	40.96
851.681	32.77
851.856	43.01
852.031	139.26
852.206	77.82
852.381	69.63
852.556	63.49
852.731	63.49
852.906	67.58
853.081	63.49
853.256	73.73
853.431	16.38
853.606	2.05
853.781	8.19
853.956	75.77
854.131	57.34
854.305	-2.05
854.48	20.48
854.655	-18.43
854.83	18.43
855.005	75.77
855.18	22.53
855.354	55.3
855.529	143.36
855.704	67.58
855.879	-24.58
856.053	22.53
856.228	92.16
856.403	47.1
856.577	120.83
856.752	-51.2
856.926	71.68
857.101	2.05
857.276	-14.34
857.45	8.19
857.625	49.15
857.799	26.62
857.974	-30.72
858.148	-12.29
858.323	79.87
858.497	12.29
858.672	-8.19
858.846	43.01
859.02	49.15
859.195	83.97
859.369	86.01
859.543	16.38
859.718	45.06
859.892	34.82
860.066	0
860.241	36.86
860.415	-104.45
860.589	73.73
860.763	-12.29
860.938	77.82
861.112	65.54
861.286	0
861.46	49.15
861.634	32.77
861.808	-18.43
861.982	30.72
862.157	0
862.331	22.53
862.505	18.43
862.679	-8.19
862.853	63.49
863.027	2.05
863.201	63.49
863.375	22.53
863.549	45.06
863.722	49.15
863.896	30.72
864.07	-8.19
864.244	36.86
864.418	34.82
864.592	59.39
864.766	-6.14
864.939	51.2
865.113	81.92
865.287	100.35
865.461	-4.1
865.634	81.92
865.808	10.24
865.982	16.38
866.156	49.15
866.329	4.1
866.503	71.68
866.676	45.06
866.85	26.62
867.024	100.35
867.197	30.72
867.371	22.53
867.544	14.34
867.718	6.14
867.891	47.1
868.065	8.19
868.238	83.97
868.412	88.06
868.585	104.45
868.759	6.14
868.932	71.68
869.105	-12.29
869.279	67.58
869.452	12.29
869.625	45.06
869.799	-12.29
869.972	-8.19
870.145	43.01
870.319	32.77
870.492	-22.53
870.665	-2.05
870.838	22.53
871.011	-40.96
871.185	67.58
871.358	18.43
871.531	79.87
871.704	-4.1
871.877	30.72
872.05	-38.91
872.223	16.38
872.396	14.34
872.569	-8.19
872.742	-65.53
872.915	10.24
873.088	-40.96
873.261	14.34
873.434	86.01
873.607	51.2
873.78	63.49
873.953	-8.19
874.126	28.67
874.299	47.1
874.471	32.77
874.644	67.58
874.817	-34.82
874.99	81.92
875.163	-24.58
875.335	94.21
875.508	8.19
875.681	45.06
875.853	-38.91
876.026	47.1
876.199	67.58
876.371	55.3
876.544	24.58
876.717	-14.34
876.889	-51.2
877.062	28.67
877.234	-18.43
877.407	6.14
877.579	8.19
877.752	-26.62
877.924	51.2
878.097	90.11
878.269	12.29
878.442	86.01
878.614	47.1
878.786	88.06
878.959	38.91
879.131	28.67
879.303	-14.34
879.476	-2.05
879.648	22.53
879.82	36.86
879.993	18.43
880.165	16.38
880.337	16.38
880.509	59.39
880.681	0
880.854	38.91
881.026	83.97
881.198	67.58
881.37	108.54
881.542	61.44
881.714	2.05
881.886	126.97
882.058	-10.24
882.23	-2.05
882.402	-57.34
882.574	57.34
882.746	40.96
882.918	57.34
883.09	18.43
883.262	12.29
883.434	49.15
883.606	16.38
883.778	83.97
883.95	122.88
884.122	71.68
884.293	28.67
884.465	30.72
884.637	57.34
884.809	-40.96
884.98	-40.96
885.152	61.44
885.324	53.25
885.496	16.38
885.667	34.82
885.839	-12.29
886.011	36.86
886.182	20.48
886.354	94.21
886.525	4.1
886.697	45.06
886.869	18.43
887.04	-8.19
887.212	14.34
887.383	28.67
887.555	18.43
887.726	-14.34
887.897	71.68
888.069	-10.24
888.24	0
888.412	0
888.583	6.14
888.754	-10.24
888.926	32.77
889.097	14.34
889.268	-116.73
889.44	108.54
889.611	77.82
889.782	16.38
889.953	-69.63
890.125	14.34
890.296	57.34
890.467	20.48
890.638	0
890.809	57.34
890.98	45.06
891.151	-38.91
891.323	79.87
891.494	12.29
891.665	6.14
891.836	-30.72
892.007	61.44
892.178	-26.62
892.349	26.62
892.52	-22.53
892.691	49.15
892.862	-16.38
893.032	-69.63
893.203	4.1
893.374	-40.96
893.545	67.58
893.716	-36.86
893.887	24.58
894.057	-26.62
894.228	32.77
894.399	-6.14
894.57	67.58
894.74	30.72
894.911	51.2
895.082	-40.96
895.253	-32.77
895.423	-83.97
895.594	73.73
895.764	4.1
895.935	-47.1
896.106	71.68
896.276	55.3
896.447	43.01
896.617	24.58
896.788	-12.29
896.958	22.53
897.129	4.1
897.299	49.15
897.47	20.48
897.64	8.19
897.81	16.38
897.981	-4.1
898.151	-6.14
898.322	88.06
898.492	81.92
898.662	4.1
898.832	49.15
899.003	0
899.173	14.34
899.343	-59.39
899.513	34.82
