Data from USB4F104151__56__12-41-54-890.txt Node

Date: Fri Mar 14 12:41:54 EDT 2025
User: louis
Spectrometer: USB4F10415
Trigger mode: 4
Integration Time (sec): 3.000000E-2
Scans to average: 1
Electric dark correction enabled: true
Nonlinearity correction enabled: false
Boxcar width: 0
XAxis mode: Wavelengths
Number of Pixels in Spectrum: 3648
>>>>>Begin Spectral Data<<<<<
178.204	-201.38
178.424	-201.38
178.644	-201.38
178.864	-144.04
179.084	-107.18
179.304	30.04
179.524	-15.02
179.744	-0.68
179.964	73.04
180.184	5.46
180.404	-62.12
180.624	30.04
180.844	-12.97
181.064	-53.93
181.283	-19.11
181.503	-29.35
181.723	54.61
181.943	21.84
182.163	64.85
182.383	13.65
182.602	75.09
182.822	-21.16
183.042	38.23
183.262	5.46
183.482	5.46
183.701	27.99
183.921	42.32
184.141	9.56
184.361	1.37
184.58	-45.74
184.8	60.76
185.02	36.18
185.239	68.95
185.459	-25.26
185.679	87.38
185.898	-25.26
186.118	34.13
186.338	85.33
186.557	-43.69
186.777	-4.78
186.997	50.52
187.216	-6.83
187.436	50.52
187.655	46.42
187.875	11.61
188.095	9.56
188.314	-0.68
188.534	44.37
188.753	-10.92
188.973	44.37
189.192	75.09
189.412	52.56
189.631	85.33
189.851	15.7
190.07	38.23
190.29	-55.98
190.509	-17.07
190.729	25.94
190.948	95.57
191.168	75.09
191.387	93.52
191.607	34.13
191.826	-12.97
192.045	-6.83
192.265	34.13
192.484	56.66
192.704	30.04
192.923	-21.16
193.142	46.42
193.362	15.7
193.581	58.71
193.8	-12.97
194.02	60.76
194.239	-29.35
194.458	5.46
194.678	-41.64
194.897	-19.11
195.116	11.61
195.335	-0.68
195.555	11.61
195.774	-10.92
195.993	9.56
196.212	13.65
196.432	15.7
196.651	46.42
196.87	-23.21
197.089	114
197.308	77.14
197.528	32.08
197.747	-8.87
197.966	7.51
198.185	89.43
198.404	-10.92
198.623	66.9
198.842	105.81
199.062	17.75
199.281	27.99
199.5	38.23
199.719	50.52
199.938	-4.78
200.157	66.9
200.376	-0.68
200.595	54.61
200.814	-6.83
201.033	-12.97
201.252	50.52
201.471	42.32
201.69	64.85
201.909	-33.45
202.128	13.65
202.347	66.9
202.566	46.42
202.785	-25.26
203.004	-82.6
203.223	122.2
203.442	73.04
203.661	23.89
203.879	19.8
204.098	-10.92
204.317	-17.07
204.536	7.51
204.755	-25.26
204.974	48.47
205.193	87.38
205.411	83.28
205.63	9.56
205.849	25.94
206.068	25.94
206.287	7.51
206.505	64.85
206.724	-4.78
206.943	7.51
207.162	-10.92
207.381	52.56
207.599	40.28
207.818	-4.78
208.037	71
208.255	48.47
208.474	46.42
208.693	56.66
208.911	-0.68
209.13	23.89
209.349	-2.73
209.567	95.57
209.786	54.61
210.005	36.18
210.223	87.38
210.442	-66.22
210.661	44.37
210.879	1.37
211.098	-15.02
211.316	52.56
211.535	56.66
211.753	5.46
211.972	50.52
212.191	17.75
212.409	15.7
212.628	21.84
212.846	-2.73
213.065	9.56
213.283	32.08
213.502	30.04
213.72	52.56
213.938	19.8
214.157	-29.35
214.375	60.76
214.594	-15.02
214.812	11.61
215.031	9.56
215.249	-27.31
215.467	-0.68
215.686	-15.02
215.904	38.23
216.122	-8.87
216.341	83.28
216.559	-17.07
216.778	56.66
216.996	54.61
217.214	-58.03
217.432	-43.69
217.651	-58.03
217.869	-23.21
218.087	56.66
218.306	19.8
218.524	-17.07
218.742	-41.64
218.96	32.08
219.179	23.89
219.397	50.52
219.615	77.14
219.833	99.67
220.051	56.66
220.27	34.13
220.488	17.75
220.706	1.37
220.924	-6.83
221.142	30.04
221.36	101.72
221.578	-10.92
221.796	11.61
222.015	91.48
222.233	1.37
222.451	32.08
222.669	-41.64
222.887	62.8
223.105	-88.75
223.323	-0.68
223.541	11.61
223.759	11.61
223.977	-15.02
224.195	23.89
224.413	32.08
224.631	50.52
224.849	7.51
225.067	44.37
225.285	9.56
225.503	-25.26
225.721	-33.45
225.939	105.81
226.157	27.99
226.375	64.85
226.592	-23.21
226.81	-60.07
227.028	38.23
227.246	111.96
227.464	-0.68
227.682	54.61
227.9	46.42
228.117	71
228.335	48.47
228.553	107.86
228.771	124.24
228.989	46.42
229.206	30.04
229.424	-45.74
229.642	-27.31
229.86	5.46
230.077	21.84
230.295	23.89
230.513	34.13
230.731	40.28
230.948	79.19
231.166	97.62
231.384	-66.22
231.601	36.18
231.819	62.8
232.037	52.56
232.254	-62.12
232.472	56.66
232.689	25.94
232.907	34.13
233.125	-23.21
233.342	7.51
233.56	-39.59
233.777	40.28
233.995	48.47
234.213	71
234.43	64.85
234.648	-25.26
234.865	1.37
235.083	48.47
235.3	-41.64
235.518	46.42
235.735	71
235.953	85.33
236.17	-35.5
236.388	5.46
236.605	17.75
236.822	7.51
237.04	-55.98
237.257	66.9
237.475	-58.03
237.692	50.52
237.909	11.61
238.127	13.65
238.344	93.52
238.562	-17.07
238.779	1.37
238.996	38.23
239.214	40.28
239.431	-31.4
239.648	-58.03
239.865	52.56
240.083	75.09
240.3	17.75
240.517	-82.6
240.735	81.24
240.952	11.61
241.169	30.04
241.386	-47.79
241.603	9.56
241.821	-12.97
242.038	107.86
242.255	36.18
242.472	-0.68
242.689	13.65
242.907	58.71
243.124	87.38
243.341	-10.92
243.558	-10.92
243.775	32.08
243.992	-35.5
244.209	-6.83
244.426	97.62
244.643	93.52
244.86	1.37
245.078	66.9
245.295	34.13
245.512	-6.83
245.729	3.41
245.946	-6.83
246.163	-4.78
246.38	66.9
246.597	60.76
246.814	1.37
247.031	56.66
247.248	1.37
247.464	85.33
247.681	25.94
247.898	15.7
248.115	38.23
248.332	-90.79
248.549	1.37
248.766	103.76
248.983	71
249.2	42.32
249.417	21.84
249.633	23.89
249.85	77.14
250.067	9.56
250.284	-17.07
250.501	52.56
250.717	-23.21
250.934	27.99
251.151	99.67
251.368	34.13
251.585	-37.55
251.801	13.65
252.018	60.76
252.235	85.33
252.451	-47.79
252.668	-53.93
252.885	-15.02
253.102	66.9
253.318	73.04
253.535	-2.73
253.752	62.8
253.968	136.53
254.185	-15.02
254.401	66.9
254.618	21.84
254.835	38.23
255.051	15.7
255.268	1.37
255.484	17.75
255.701	30.04
255.917	64.85
256.134	-0.68
256.351	36.18
256.567	-74.41
256.784	50.52
257	19.8
257.217	21.84
257.433	23.89
257.65	73.04
257.866	3.41
258.082	15.7
258.299	-43.69
258.515	27.99
258.732	48.47
258.948	15.7
259.165	1.37
259.381	11.61
259.597	68.95
259.814	-51.88
260.03	7.51
260.246	7.51
260.463	23.89
260.679	46.42
260.895	58.71
261.112	71
261.328	-29.35
261.544	15.7
261.761	23.89
261.977	30.04
262.193	17.75
262.409	91.48
262.626	50.52
262.842	-78.51
263.058	-80.55
263.274	-66.22
263.49	91.48
263.707	13.65
263.923	46.42
264.139	-4.78
264.355	50.52
264.571	46.42
264.787	36.18
265.004	62.8
265.22	-10.92
265.436	107.86
265.652	87.38
265.868	5.46
266.084	-33.45
266.3	23.89
266.516	7.51
266.732	1.37
266.948	-37.55
267.164	23.89
267.38	21.84
267.596	17.75
267.812	23.89
268.028	48.47
268.244	-0.68
268.46	21.84
268.676	-37.55
268.892	56.66
269.108	-8.87
269.324	54.61
269.54	48.47
269.756	105.81
269.972	-6.83
270.188	-80.55
270.403	-76.46
270.619	3.41
270.835	9.56
271.051	-6.83
271.267	27.99
271.483	99.67
271.698	60.76
271.914	30.04
272.13	58.71
272.346	52.56
272.562	48.47
272.777	25.94
272.993	27.99
273.209	1.37
273.425	-19.11
273.64	-37.55
273.856	48.47
274.072	42.32
274.287	-15.02
274.503	64.85
274.719	-27.31
274.934	-27.31
275.15	-19.11
275.366	-21.16
275.581	-23.21
275.797	32.08
276.012	3.41
276.228	38.23
276.444	40.28
276.659	27.99
276.875	1.37
277.09	-41.64
277.306	-39.59
277.521	71
277.737	13.65
277.952	116.05
278.168	36.18
278.383	-15.02
278.599	60.76
278.814	75.09
279.03	-55.98
279.245	7.51
279.461	54.61
279.676	7.51
279.892	30.04
280.107	-15.02
280.322	62.8
280.538	17.75
280.753	44.37
280.969	97.62
281.184	62.8
281.399	79.19
281.615	91.48
281.83	11.61
282.045	-2.73
282.26	-12.97
282.476	-19.11
282.691	64.85
282.906	-33.45
283.122	68.95
283.337	3.41
283.552	44.37
283.767	11.61
283.983	62.8
284.198	-45.74
284.413	58.71
284.628	-31.4
284.843	71
285.058	-0.68
285.274	15.7
285.489	79.19
285.704	87.38
285.919	-47.79
286.134	-41.64
286.349	-4.78
286.564	58.71
286.779	58.71
286.995	19.8
287.21	-53.93
287.425	85.33
287.64	-12.97
287.855	54.61
288.07	-6.83
288.285	11.61
288.5	54.61
288.715	50.52
288.93	-35.5
289.145	15.7
289.36	32.08
289.575	15.7
289.79	50.52
290.004	38.23
290.219	75.09
290.434	-10.92
290.649	7.51
290.864	-49.83
291.079	7.51
291.294	11.61
291.509	-10.92
291.724	-2.73
291.938	-37.55
292.153	60.76
292.368	-70.31
292.583	36.18
292.798	64.85
293.012	-27.31
293.227	42.32
293.442	79.19
293.657	19.8
293.871	58.71
294.086	-23.21
294.301	50.52
294.516	48.47
294.73	-41.64
294.945	-35.5
295.16	-45.74
295.374	-0.68
295.589	107.86
295.804	36.18
296.018	68.95
296.233	95.57
296.447	44.37
296.662	52.56
296.877	75.09
297.091	64.85
297.306	3.41
297.52	42.32
297.735	44.37
297.949	-12.97
298.164	71
298.378	36.18
298.593	79.19
298.807	-33.45
299.022	58.71
299.236	-43.69
299.451	-4.78
299.665	-2.73
299.88	40.28
300.094	-12.97
300.309	52.56
300.523	3.41
300.737	105.81
300.952	23.89
301.166	3.41
301.381	17.75
301.595	-17.07
301.809	118.1
302.024	27.99
302.238	-58.03
302.452	73.04
302.667	40.28
302.881	32.08
303.095	34.13
303.309	32.08
303.524	21.84
303.738	32.08
303.952	-12.97
304.166	44.37
304.381	-96.94
304.595	40.28
304.809	21.84
305.023	79.19
305.237	-33.45
305.452	30.04
305.666	34.13
305.88	71
306.094	60.76
306.308	-12.97
306.522	111.96
306.736	42.32
306.95	62.8
307.164	-19.11
307.379	-29.35
307.593	83.28
307.807	-12.97
308.021	-8.87
308.235	116.05
308.449	11.61
308.663	-8.87
308.877	71
309.091	21.84
309.305	85.33
309.519	-47.79
309.733	50.52
309.947	23.89
310.161	-15.02
310.374	9.56
310.588	68.95
310.802	17.75
311.016	-19.11
311.23	60.76
311.444	-51.88
311.658	-39.59
311.872	89.43
312.085	-12.97
312.299	38.23
312.513	66.9
312.727	7.51
312.941	44.37
313.154	21.84
313.368	93.52
313.582	11.61
313.796	73.04
314.009	91.48
314.223	64.85
314.437	66.9
314.651	81.24
314.864	-8.87
315.078	13.65
315.292	-17.07
315.505	83.28
315.719	73.04
315.933	44.37
316.146	73.04
316.36	23.89
316.573	-19.11
316.787	-23.21
317.001	30.04
317.214	48.47
317.428	71
317.641	36.18
317.855	-19.11
318.068	-2.73
318.282	-8.87
318.495	83.28
318.709	44.37
318.922	-33.45
319.136	114
319.349	91.48
319.563	-12.97
319.776	50.52
319.99	13.65
320.203	73.04
320.417	19.8
320.63	34.13
320.843	64.85
321.057	66.9
321.27	44.37
321.483	-15.02
321.697	75.09
321.91	75.09
322.124	19.8
322.337	46.42
322.55	40.28
322.763	75.09
322.977	-23.21
323.19	38.23
323.403	-43.69
323.617	134.48
323.83	105.81
324.043	-47.79
324.256	56.66
324.469	52.56
324.683	27.99
324.896	46.42
325.109	-21.16
325.322	19.8
325.535	64.85
325.748	34.13
325.962	-19.11
326.175	73.04
326.388	60.76
326.601	-6.83
326.814	17.75
327.027	19.8
327.24	30.04
327.453	23.89
327.666	42.32
327.879	99.67
328.092	-19.11
328.305	-29.35
328.518	15.7
328.731	-8.87
328.944	87.38
329.157	23.89
329.37	27.99
329.583	40.28
329.796	58.71
330.009	-17.07
330.222	73.04
330.435	-19.11
330.648	7.51
330.861	13.65
331.073	23.89
331.286	40.28
331.499	64.85
331.712	-0.68
331.925	-23.21
332.138	40.28
332.35	130.39
332.563	-19.11
332.776	60.76
332.989	1.37
333.202	5.46
333.414	32.08
333.627	154.96
333.84	103.76
334.053	25.94
334.265	50.52
334.478	-17.07
334.691	1.37
334.903	48.47
335.116	-4.78
335.329	23.89
335.541	64.85
335.754	11.61
335.966	3.41
336.179	-15.02
336.392	7.51
336.604	56.66
336.817	50.52
337.029	30.04
337.242	58.71
337.454	32.08
337.667	64.85
337.88	128.34
338.092	-0.68
338.305	50.52
338.517	54.61
338.729	134.48
338.942	13.65
339.154	3.41
339.367	-70.31
339.579	73.04
339.792	27.99
340.004	7.51
340.217	105.81
340.429	107.86
340.641	62.8
340.854	-6.83
341.066	11.61
341.278	140.63
341.491	52.56
341.703	38.23
341.915	-4.78
342.128	27.99
342.34	-0.68
342.552	52.56
342.764	11.61
342.977	79.19
343.189	3.41
343.401	32.08
343.613	91.48
343.826	23.89
344.038	46.42
344.25	54.61
344.462	77.14
344.674	11.61
344.886	19.8
345.099	66.9
345.311	40.28
345.523	-29.35
345.735	-49.83
345.947	21.84
346.159	44.37
346.371	25.94
346.583	93.52
346.795	5.46
347.007	9.56
347.219	27.99
347.431	93.52
347.643	62.8
347.855	73.04
348.067	42.32
348.279	19.8
348.491	36.18
348.703	21.84
348.915	-12.97
349.127	46.42
349.339	101.72
349.551	5.46
349.763	19.8
349.975	36.18
350.187	34.13
350.399	89.43
350.61	56.66
350.822	85.33
351.034	13.65
351.246	15.7
351.458	91.48
351.669	71
351.881	11.61
352.093	54.61
352.305	-19.11
352.517	32.08
352.728	56.66
352.94	73.04
353.152	23.89
353.363	-4.78
353.575	21.84
353.787	120.15
353.999	3.41
354.21	42.32
354.422	114
354.633	-0.68
354.845	27.99
355.057	-2.73
355.268	40.28
355.48	73.04
355.692	11.61
355.903	44.37
356.115	-0.68
356.326	-31.4
356.538	68.95
356.749	46.42
356.961	15.7
357.172	48.47
357.384	-23.21
357.595	73.04
357.807	-6.83
358.018	7.51
358.23	32.08
358.441	56.66
358.653	42.32
358.864	48.47
359.075	23.89
359.287	95.57
359.498	105.81
359.709	17.75
359.921	46.42
360.132	58.71
360.344	-2.73
360.555	11.61
360.766	27.99
360.977	75.09
361.189	46.42
361.4	58.71
361.611	-33.45
361.823	60.76
362.034	-25.26
362.245	40.28
362.456	19.8
362.667	-6.83
362.879	54.61
363.09	-4.78
363.301	60.76
363.512	-29.35
363.723	25.94
363.935	-19.11
364.146	68.95
364.357	17.75
364.568	56.66
364.779	-10.92
364.99	-6.83
365.201	40.28
365.412	11.61
365.623	27.99
365.834	-12.97
366.045	-15.02
366.256	103.76
366.467	17.75
366.678	19.8
366.889	-12.97
367.1	19.8
367.311	73.04
367.522	-25.26
367.733	95.57
367.944	52.56
368.155	-49.83
368.366	68.95
368.577	83.28
368.788	79.19
368.999	62.8
369.209	56.66
369.42	83.28
369.631	73.04
369.842	1.37
370.053	83.28
370.264	71
370.474	15.7
370.685	81.24
370.896	27.99
371.107	13.65
371.317	30.04
371.528	71
371.739	128.34
371.95	-17.07
372.16	25.94
372.371	68.95
372.582	42.32
372.792	97.62
373.003	23.89
373.214	-27.31
373.424	128.34
373.635	-10.92
373.846	116.05
374.056	40.28
374.267	87.38
374.477	25.94
374.688	19.8
374.898	-19.11
375.109	17.75
375.319	9.56
375.53	15.7
375.74	3.41
375.951	56.66
376.161	23.89
376.372	120.15
376.582	9.56
376.793	75.09
377.003	91.48
377.214	95.57
377.424	60.76
377.635	46.42
377.845	32.08
378.055	32.08
378.266	77.14
378.476	77.14
378.686	71
378.897	58.71
379.107	60.76
379.317	32.08
379.528	54.61
379.738	-47.79
379.948	81.24
380.158	71
380.369	23.89
380.579	62.8
380.789	40.28
380.999	111.96
381.21	11.61
381.42	120.15
381.63	-2.73
381.84	48.47
382.05	126.29
382.261	71
382.471	52.56
382.681	36.18
382.891	71
383.101	95.57
383.311	1.37
383.521	-12.97
383.731	42.32
383.941	136.53
384.151	64.85
384.361	56.66
384.571	52.56
384.781	-0.68
384.991	105.81
385.201	60.76
385.411	9.56
385.621	52.56
385.831	56.66
386.041	17.75
386.251	-4.78
386.461	101.72
386.671	-19.11
386.881	58.71
387.091	101.72
387.301	71
387.511	11.61
387.72	17.75
387.93	-23.21
388.14	42.32
388.35	89.43
388.56	30.04
388.769	30.04
388.979	38.23
389.189	13.65
389.399	62.8
389.609	87.38
389.818	15.7
390.028	32.08
390.238	40.28
390.447	36.18
390.657	99.67
390.867	32.08
391.076	40.28
391.286	46.42
391.496	32.08
391.705	107.86
391.915	64.85
392.125	36.18
392.334	111.96
392.544	83.28
392.753	52.56
392.963	48.47
393.172	32.08
393.382	25.94
393.591	161.11
393.801	54.61
394.01	120.15
394.22	124.24
394.429	50.52
394.639	101.72
394.848	103.76
395.058	5.46
395.267	81.24
395.477	91.48
395.686	154.96
395.895	89.43
396.105	136.53
396.314	105.81
396.524	40.28
396.733	38.23
396.942	142.68
397.152	81.24
397.361	71
397.57	5.46
397.78	152.91
397.989	144.72
398.198	64.85
398.407	138.58
398.617	107.86
398.826	66.9
399.035	83.28
399.244	103.76
399.453	56.66
399.663	87.38
399.872	148.82
400.081	38.23
400.29	132.44
400.499	32.08
400.708	114
400.917	71
401.127	114
401.336	138.58
401.545	157.01
401.754	167.25
401.963	89.43
402.172	52.56
402.381	9.56
402.59	167.25
402.799	101.72
403.008	181.59
403.217	150.87
403.426	83.28
403.635	157.01
403.844	148.82
404.053	136.53
404.262	122.2
404.471	177.49
404.68	144.72
404.888	163.15
405.097	183.63
405.306	97.62
405.515	187.73
405.724	118.1
405.933	224.59
406.142	165.2
406.35	232.79
406.559	212.31
406.768	208.21
406.977	202.07
407.185	193.87
407.394	222.55
407.603	132.44
407.812	261.46
408.02	275.79
408.229	175.44
408.438	204.11
408.646	183.63
408.855	243.03
409.064	322.9
409.272	277.84
409.481	341.33
409.69	257.36
409.898	279.89
410.107	298.32
410.315	372.05
410.524	245.07
410.733	390.48
410.941	427.34
411.15	367.95
411.358	378.19
411.567	394.58
411.775	376.14
411.984	421.2
412.192	390.48
412.401	521.55
412.609	433.49
412.818	539.98
413.026	443.73
413.234	501.07
413.443	527.69
413.651	494.93
413.86	558.41
414.068	623.95
414.276	613.71
414.485	695.63
414.693	697.67
414.901	726.35
415.11	699.72
415.318	648.52
415.526	732.49
415.734	771.4
415.943	679.24
416.151	855.37
416.359	808.26
416.567	892.23
416.776	894.28
416.984	1000.77
417.192	908.62
417.4	1004.87
417.608	976.2
417.817	1039.69
418.025	1070.4
418.233	1154.37
418.441	1187.14
418.649	1178.95
418.857	1289.54
419.065	1434.94
419.273	1328.45
419.481	1363.26
419.689	1500.48
419.897	1547.58
420.105	1592.64
420.313	1668.41
420.521	1619.26
420.729	1596.73
420.937	1793.34
421.145	1797.43
421.353	1877.3
421.561	2000.18
421.769	1965.37
421.977	2006.33
422.185	1965.37
422.393	2090.29
422.601	2233.65
422.809	2317.62
423.017	2393.39
423.224	2377.01
423.432	2526.51
423.64	2540.85
423.848	2872.62
424.056	2749.74
424.263	2913.58
424.471	2882.86
424.679	2897.19
424.887	3020.07
425.094	3155.24
425.302	3198.24
425.51	3267.88
425.718	3476.77
425.925	3380.51
426.133	3609.89
426.341	3769.63
426.548	3910.94
426.756	3974.42
426.964	4205.85
427.171	4236.56
427.379	4261.14
427.586	4306.2
427.794	4707.6
428.001	4836.62
428.209	5029.13
428.417	4926.73
428.624	5299.46
428.832	5328.13
429.039	5143.81
429.247	5256.45
429.454	5610.75
429.662	6051.06
429.869	5739.77
430.076	6206.71
430.284	6008.06
430.491	6147.32
430.699	6657.26
430.906	6419.7
431.114	6632.69
431.321	6849.77
431.528	7230.69
431.736	7396.58
431.943	7771.36
432.15	7472.36
432.358	7728.35
432.565	8189.14
432.772	8217.82
432.979	8627.41
433.187	8762.58
433.394	8619.22
433.601	9206.98
433.808	9442.5
434.016	9370.82
434.223	9751.74
434.43	10194.11
434.637	9993.4
434.844	10745.01
435.052	11007.15
435.259	10931.37
435.466	11041.96
435.673	10859.7
435.88	11381.93
436.087	12164.25
436.294	12221.59
436.501	12080.28
436.708	12049.57
436.915	12313.75
437.122	13081.74
437.329	12772.5
437.537	13624.45
437.743	13845.63
437.95	13350.03
438.157	14257.28
438.364	14799.99
438.571	14888.05
438.778	14875.76
438.985	16139.36
439.192	15498.34
439.399	15971.43
439.606	15975.52
439.813	16577.62
440.02	17822.79
440.227	17464.39
440.433	16995.41
440.64	17679.43
440.847	17501.26
441.054	18140.22
441.261	19196.98
441.467	19231.79
441.674	19401.77
441.881	19960.87
442.088	19946.53
442.294	20032.55
442.501	20288.54
442.708	20681.75
442.914	21570.57
443.121	22496.25
443.328	22078.47
443.534	23342.07
443.741	22488.06
443.948	22502.4
444.154	24142.82
444.361	24280.03
444.568	23954.41
444.774	24308.71
444.981	24224.74
445.187	25179.09
445.394	26278.85
445.6	26180.55
445.807	28693.41
446.013	27550.64
446.22	27845.55
446.426	28539.81
446.633	29305.75
446.839	30118.79
447.046	28644.26
447.252	30425.99
447.459	30139.27
447.665	30251.91
447.871	31472.5
448.078	33080.16
448.284	31654.77
448.491	32357.22
448.697	33420.12
448.903	33721.17
449.11	34337.61
449.316	33848.14
449.522	34231.11
449.728	35556.15
449.935	35507
450.141	35554.1
450.347	36234.03
450.553	35111.74
450.76	35871.54
450.966	36940.58
451.172	36533.03
451.378	37319.45
451.584	36279.08
451.791	37528.34
451.997	37661.46
452.203	38075.15
452.409	37856.02
452.615	37888.79
452.821	36377.39
453.027	36006.7
453.233	37761.81
453.44	36729.64
453.646	37073.7
453.852	36973.35
454.058	37702.42
454.264	36535.08
454.47	37550.87
454.676	36672.29
454.882	37587.74
455.088	34548.55
455.294	35070.78
455.5	35627.83
455.705	35867.44
455.911	34300.75
456.117	34145.1
456.323	33487.7
456.529	31722.35
456.735	32977.76
456.941	32633.7
457.147	31683.44
457.352	30442.37
457.558	30430.08
457.764	30507.91
457.97	29647.76
458.176	29504.4
458.381	29232.02
458.587	27849.64
458.793	27663.28
458.999	26465.22
459.204	28269.48
459.41	27327.41
459.616	25492.43
459.821	25887.69
460.027	25773
460.233	25048.02
460.438	24136.68
460.644	24206.31
460.85	22885.37
461.055	22952.95
461.261	22637.56
461.466	21083.16
461.672	20352.03
461.878	22060.04
462.083	20352.03
462.289	19792.94
462.494	19921.96
462.7	18887.73
462.905	18187.33
463.111	19041.33
463.316	19186.74
463.522	18859.06
463.727	18777.14
463.932	18783.29
464.138	18545.72
464.343	18570.3
464.549	17988.67
464.754	18494.52
464.959	18414.65
465.165	18340.93
465.37	17585.22
465.575	17079.38
465.781	17646.66
465.986	18007.11
466.191	17245.26
466.397	16862.29
466.602	16022.62
466.807	16727.13
467.012	16807
467.218	16454.75
467.423	16342.11
467.628	16419.93
467.833	17142.86
468.038	16399.45
468.244	16067.68
468.449	16716.89
468.654	16002.15
468.859	16055.39
469.064	16055.39
469.269	15510.63
469.474	15682.66
469.679	15830.12
469.885	15318.12
470.09	15660.13
470.295	15359.08
470.5	15101.04
470.705	15066.22
470.91	14982.26
471.115	14767.22
471.32	15012.98
471.525	14959.73
471.73	14363.77
471.935	14240.89
472.139	13831.3
472.344	14232.7
472.549	13714.56
472.754	13935.74
472.959	13407.37
473.164	13073.55
473.369	13165.71
473.574	13481.1
473.778	13399.18
473.983	13427.85
474.188	13415.56
474.393	12891.28
474.598	12749.97
474.802	12469.4
475.007	12416.15
475.212	12461.21
475.417	12194.97
475.621	12024.99
475.826	11943.07
476.031	11951.26
476.235	11672.74
476.44	11836.58
476.645	11486.37
476.849	11660.45
477.054	11484.33
477.259	11072.68
477.463	11257
477.668	10923.18
477.872	11357.35
478.077	10851.5
478.282	10564.79
478.486	10644.66
478.691	10421.43
478.895	10552.5
479.1	10575.03
479.304	10534.07
479.509	10251.45
479.713	10403
479.918	10081.47
480.122	10017.98
480.326	10034.36
480.531	10108.09
480.735	9929.92
480.94	9880.77
481.144	10337.46
481.348	9798.85
481.553	9903.29
481.757	9626.82
481.961	9848
482.166	9782.46
482.37	9815.23
482.574	9843.9
482.778	9735.36
482.983	9954.49
483.187	9655.49
483.391	9852.09
483.595	9448.65
483.8	9583.81
484.004	9733.31
484.208	9718.98
484.412	9700.55
484.616	9780.42
484.821	9684.16
485.025	9643.2
485.229	9770.18
485.433	9675.97
485.637	9757.89
485.841	9501.89
486.045	9426.12
486.249	9688.26
486.453	9618.63
486.657	9600.19
486.861	9557.19
487.065	9462.98
487.269	9770.18
487.473	9573.57
487.677	9641.15
487.881	9936.06
488.085	9682.11
488.289	9819.33
488.493	9716.93
488.697	9714.88
488.901	9827.52
489.105	9741.5
489.309	9743.55
489.512	9776.32
489.716	9559.24
489.92	9684.16
490.124	9757.89
490.328	9942.21
490.531	9747.65
490.735	9903.29
490.939	10001.6
491.143	9749.7
491.346	9790.66
491.55	10069.18
491.754	10099.9
491.958	10058.94
492.161	10028.22
492.365	9891.01
492.569	10028.22
492.772	10222.78
492.976	10069.18
493.18	10149.05
493.383	10314.94
493.587	10525.88
493.79	10560.69
493.994	10278.07
494.197	10632.37
494.401	10554.55
494.605	10763.44
494.808	10867.89
495.012	10945.71
495.215	10828.98
495.419	11207.85
495.622	10947.76
495.825	11140.27
496.029	10929.33
496.232	11269.29
496.436	11177.13
496.639	11732.13
496.843	11533.48
497.046	11547.81
497.249	12027.04
497.453	11680.93
497.656	12070.05
497.859	12156.06
498.063	11934.88
498.266	12301.47
498.469	12276.89
498.673	12551.32
498.876	12692.63
499.079	12790.93
499.282	12684.44
499.485	13079.69
499.689	13221
499.892	13354.12
500.095	13558.92
500.298	13481.1
500.501	13540.49
500.705	14138.49
500.908	14273.66
501.111	14191.74
501.314	14283.9
501.517	14441.59
501.72	14589.05
501.923	14754.93
502.126	14926.96
502.329	15133.81
502.532	15139.95
502.735	15303.79
502.938	15697
503.141	15481.96
503.344	16073.82
503.547	15879.27
503.75	16295
503.953	16452.7
504.156	16516.19
504.359	16671.83
504.562	16729.17
504.765	17198.16
504.968	16964.69
505.17	17443.92
505.373	17476.68
505.576	17968.2
505.779	18023.49
505.982	18187.33
506.185	18496.57
506.387	18463.8
506.59	18820.15
506.793	19129.39
506.996	18959.41
507.198	19502.12
507.401	19557.42
507.604	19420.2
507.807	19428.4
508.009	19821.61
508.212	20069.41
508.415	20380.7
508.617	20448.29
508.82	20489.24
509.022	20589.6
509.225	21093.4
509.428	21328.91
509.63	21578.76
509.833	21470.22
510.035	22236.16
510.238	22004.74
510.44	22397.95
510.643	22414.34
510.845	22782.97
511.048	22645.76
511.25	22875.13
511.453	23219.19
511.655	23778.28
511.858	23671.79
512.06	23780.33
512.262	24116.2
512.465	24009.7
512.667	24312.8
512.87	25025.5
513.072	24812.51
513.274	25340.88
513.477	25301.97
513.679	25463.76
513.881	25533.39
514.084	25930.7
514.286	26031.05
514.488	26125.25
514.69	27149.24
514.893	27001.79
515.095	26840
515.297	27116.47
515.499	27513.78
515.701	27616.18
515.904	27937.71
516.106	27993
516.308	28373.92
516.51	28390.31
516.712	28951.45
516.914	29154.2
517.116	29543.31
517.318	29666.19
517.52	29381.52
517.722	29510.55
517.925	30294.92
518.127	30198.66
518.329	30653.31
518.531	30337.93
518.733	30897.02
518.935	31341.43
519.136	31103.87
519.338	31732.59
519.54	31984.49
519.742	31927.15
519.944	31953.77
520.146	32643.94
520.348	32713.57
520.55	32723.81
520.752	32805.73
520.954	33770.32
521.155	32826.21
521.357	33491.8
521.559	33792.85
521.761	34372.42
521.963	34009.93
522.164	34450.25
522.366	34517.83
522.568	34933.57
522.77	35031.87
522.971	35287.87
523.173	35181.37
523.375	35126.08
523.576	35748.66
523.778	35488.57
523.98	36059.95
524.181	36176.69
524.383	36078.38
524.584	36483.88
524.786	36922.15
524.988	36528.94
525.189	36969.25
525.391	37071.65
525.592	37219.1
525.794	37186.33
525.995	37323.55
526.197	37604.12
526.398	37477.15
526.6	37733.14
526.801	37974.8
527.003	38015.76
527.204	38269.71
527.406	38269.71
527.607	38212.37
527.808	38601.48
528.01	37958.42
528.211	38716.17
528.412	38972.16
528.614	38818.56
528.815	38972.16
529.016	39416.57
529.218	39074.56
529.419	39164.67
529.62	39236.35
529.822	39043.84
530.023	39084.8
530.224	39029.51
530.425	39211.77
530.626	38880
530.828	38806.28
531.029	40014.58
531.23	38857.48
531.431	39473.92
531.632	39277.31
531.833	39934.71
532.035	39240.45
532.236	39457.53
532.437	40012.53
532.638	39453.44
532.839	39725.82
533.04	39875.32
533.241	39369.47
533.442	40116.98
533.643	39953.14
533.844	39662.33
534.045	39834.36
534.246	39990
534.447	40358.64
534.648	39736.06
534.849	39478.01
535.05	39205.63
535.251	39961.33
535.451	39402.24
535.652	40026.87
535.853	39959.28
536.054	40084.21
536.255	40252.14
536.456	39426.81
536.657	39899.89
536.857	39537.4
537.058	39678.71
537.259	40157.94
537.46	39899.89
537.66	39787.25
537.861	39564.03
538.062	39688.95
538.263	40235.76
538.463	39586.55
538.664	39703.29
538.865	39748.34
539.065	39629.56
539.266	39555.83
539.466	40006.39
539.667	39277.31
539.868	40135.41
540.068	39488.25
540.269	39480.06
540.469	39662.33
540.67	39353.08
540.87	39584.51
541.071	39549.69
541.271	39262.97
541.472	39269.12
541.672	39295.74
541.873	39000.83
542.073	39056.13
542.274	39762.68
542.474	39422.72
542.675	39334.65
542.875	39521.02
543.075	39269.12
543.276	38537.99
543.476	39510.78
543.676	39031.55
543.877	39502.59
544.077	39480.06
544.277	39365.37
544.478	39342.84
544.678	39332.61
544.878	39373.56
545.078	38918.92
545.279	39310.08
545.479	39154.43
545.679	39138.05
545.879	39295.74
546.079	39080.7
546.28	39136
546.48	38949.63
546.68	39260.93
546.88	39150.34
547.08	39095.04
547.28	38896.39
547.48	38796.04
547.68	39197.44
547.88	38726.41
548.081	39371.52
548.281	38775.56
548.481	38673.16
548.681	39027.46
548.881	39097.09
549.081	38798.09
549.28	38589.19
549.48	39101.18
549.68	38933.25
549.88	38966.02
550.08	38490.89
550.28	38886.15
550.48	38728.45
550.68	39244.54
550.88	38607.62
551.08	38562.57
551.279	38855.43
551.479	38548.23
551.679	38888.2
551.879	38484.75
552.079	38568.71
552.278	38490.89
552.478	38757.13
552.678	38669.06
552.878	39064.32
553.077	38431.5
553.277	37911.31
553.477	38863.62
553.676	38292.24
553.876	38306.57
554.076	38232.85
554.275	38445.83
554.475	38212.37
554.674	38142.74
554.874	38425.35
555.074	38132.5
555.273	38390.54
555.473	38482.7
555.672	38312.72
555.872	38249.23
556.071	38462.22
556.271	38507.27
556.47	37872.4
556.67	37716.76
556.869	37939.99
557.068	38175.5
557.268	37802.77
557.467	37720.85
557.667	37651.22
557.866	37810.96
558.065	37542.68
558.265	37792.53
558.464	37446.43
558.663	38198.03
558.863	37548.82
559.062	38183.69
559.261	37399.32
559.461	38159.12
559.66	37477.15
559.859	37380.89
560.058	37360.41
560.258	37714.71
560.457	37036.83
560.656	37559.06
560.855	37237.53
561.054	37337.88
561.253	36750.12
561.453	37249.82
561.652	37249.82
561.851	37540.63
562.05	36967.2
562.249	37180.19
562.448	37284.64
562.647	36877.09
562.846	36838.18
563.045	37092.13
563.244	36696.87
563.443	37032.74
563.642	36371.24
563.841	36639.53
564.04	36213.55
564.239	37167.9
564.438	36279.08
564.637	36293.42
564.836	36479.78
565.035	36426.54
565.234	36303.66
565.432	35967.79
565.631	36258.6
565.83	36225.84
566.029	35783.48
566.228	35846.96
566.427	36248.36
566.625	35935.02
566.824	35494.71
567.023	36135.73
567.222	35326.78
567.42	36352.81
567.619	35511.1
567.818	35658.55
568.016	35390.27
568.215	35711.8
568.414	35427.13
568.612	35842.87
568.811	35156.8
569.01	35547.96
569.208	34829.12
569.407	35527.48
569.605	34968.38
569.804	35453.75
570.002	34933.57
570.201	34992.96
570.4	34978.62
570.598	34927.42
570.797	34476.87
570.995	34837.31
571.193	34431.82
571.392	34886.46
571.59	34405.19
571.789	34485.06
571.987	34710.34
572.186	34626.37
572.384	34483.02
572.582	34286.41
572.781	34464.58
572.979	33989.45
573.177	34366.28
573.376	34384.71
573.574	33719.12
573.772	34313.03
573.971	34032.46
574.169	33919.82
574.367	33493.85
574.565	34016.08
574.763	33510.23
574.962	33211.23
575.16	33082.2
575.358	33667.92
575.556	32793.44
575.754	33831.76
575.952	32848.74
576.151	33487.7
576.349	32867.17
576.547	32818.02
576.745	32861.02
576.943	32955.23
577.141	32877.41
577.339	32953.18
577.537	32955.23
577.735	32738.15
577.933	32297.83
578.131	32676.71
578.329	32285.54
578.527	31902.57
578.725	32019.31
578.923	32547.68
579.121	32230.25
579.319	32461.67
579.516	32580.45
579.714	32746.34
579.912	31798.13
580.11	31933.29
580.308	31542.13
580.506	31947.63
580.704	31114.11
580.901	31865.71
581.099	31728.5
581.297	31212.41
581.495	31419.25
581.692	31597.43
581.89	30794.62
582.088	31470.45
582.285	31236.98
582.483	31429.49
582.681	31120.25
582.878	31067
583.076	30882.69
583.274	31159.16
583.471	30591.87
583.669	31026.04
583.866	30579.59
584.064	30919.55
584.262	30227.34
584.459	30722.94
584.657	30405.51
584.854	30602.11
585.052	30024.59
585.249	30215.05
585.447	30268.3
585.644	29825.93
585.841	30020.49
586.039	30006.16
586.236	29653.9
586.434	29655.95
586.631	29447.06
586.828	29891.47
587.026	29389.72
587.223	29629.33
587.42	29103
587.618	29141.91
587.815	29076.38
588.012	29070.23
588.21	28863.39
588.407	29266.84
588.604	28871.58
588.801	28677.02
588.999	28785.57
589.196	29016.99
589.393	28568.48
589.59	28539.81
589.787	28468.13
589.984	28496.8
590.182	28025.77
590.379	28523.43
590.576	27902.89
590.773	28183.46
590.97	28226.47
591.167	28119.98
591.364	27857.84
591.561	28042.15
591.758	27605.94
591.955	27714.48
592.152	27872.17
592.349	27087.8
592.546	27532.21
592.743	27231.16
592.94	27136.95
593.137	27286.45
593.334	27587.5
593.531	26891.19
593.727	27014.07
593.924	27026.36
594.121	26745.79
594.318	27024.31
594.515	26399.68
594.712	26825.66
594.908	26147.78
595.105	26528.7
595.302	26317.76
595.499	26328
595.696	26194.89
595.892	25809.87
596.089	26168.26
596.286	26409.92
596.482	26012.62
596.679	26133.45
596.876	25932.75
597.072	25899.98
597.269	25535.44
597.466	25568.21
597.662	25646.03
597.859	25717.71
598.055	25578.45
598.252	25191.38
598.448	25199.57
598.645	25304.02
598.841	25050.07
599.038	25195.48
599.234	25218
599.431	24568.8
599.627	24826.84
599.824	24943.58
600.02	24441.82
600.217	24708.06
600.413	24523.74
600.609	24243.17
600.806	24589.28
601.002	24617.95
601.198	24239.08
601.395	24058.85
601.591	24110.05
601.787	24081.38
601.984	24028.13
602.18	24202.21
602.376	23737.32
602.572	23657.45
602.769	23804.91
602.965	23776.23
603.161	23475.18
603.357	23475.18
603.553	23354.35
603.75	23444.46
603.946	23278.58
604.142	23264.24
604.338	23059.45
604.534	23211
604.73	23061.49
604.926	22612.99
605.122	23262.19
605.318	22801.4
605.514	22713.34
605.71	22746.11
605.906	22813.69
606.102	22780.92
606.298	22846.46
606.494	22569.98
606.69	22707.19
606.886	22412.29
607.082	22205.44
607.278	22596.6
607.474	22111.24
607.67	22565.88
607.866	21980.17
608.062	22236.16
608.257	22252.55
608.453	22201.35
608.649	21890.06
608.845	21666.83
609.041	21642.25
609.236	22117.38
609.432	21804.04
609.628	21812.23
609.824	21849.1
610.019	21627.92
610.215	21343.25
610.411	21715.98
610.606	21496.85
610.802	21656.59
610.998	21470.22
611.193	21500.94
611.389	21193.75
611.584	21310.48
611.78	21535.76
611.976	21271.57
612.171	21328.91
612.367	21328.91
612.562	21031.96
612.758	20915.22
612.953	21017.62
613.149	21359.63
613.344	21044.24
613.539	21292.05
613.735	21079.06
613.93	20732.95
614.126	20917.27
614.321	21054.48
614.517	20837.4
614.712	20612.12
614.907	20591.64
615.103	20902.93
615.298	20620.31
615.493	20677.66
615.688	20450.33
615.884	20694.04
616.079	20468.76
616.274	20767.77
616.47	20300.83
616.665	20597.79
616.86	20245.54
617.055	20347.93
617.25	20147.23
617.445	20202.53
617.641	19983.4
617.836	20194.34
618.031	20030.5
618.226	20057.12
618.421	19768.36
618.616	19977.25
618.811	19553.32
619.006	20147.23
619.201	19569.71
619.396	19481.64
619.591	19280.94
619.786	19483.69
619.981	19108.91
620.176	19686.44
620.371	19250.22
620.566	19272.75
620.761	18992.18
620.956	19338.29
621.151	18699.32
621.346	19156.02
621.541	18744.38
621.735	18674.74
621.93	18527.29
622.125	18254.91
622.32	18437.18
622.515	18603.07
622.709	18097.22
622.904	18179.14
623.099	18230.34
623.294	17904.71
623.488	17650.76
623.683	18058.31
623.878	17593.42
624.072	17624.14
624.267	17736.77
624.462	17423.44
624.656	17214.54
624.851	17294.41
625.046	16976.98
625.24	17425.48
625.435	16915.54
625.629	17163.34
625.824	16911.44
626.018	16594.01
626.213	16495.71
626.407	16544.86
626.602	16208.99
626.796	16284.76
626.991	16354.4
627.185	16350.3
627.38	16309.34
627.574	15803.49
627.768	15963.23
627.963	15823.97
628.157	15805.54
628.352	15807.59
628.546	15436.91
628.74	15576.17
628.935	15570.02
629.129	15508.58
629.323	15064.18
629.517	15305.84
629.712	15363.18
629.906	15105.13
630.1	14771.32
630.294	15058.03
630.489	14656.63
630.683	15103.09
630.877	14500.98
631.071	14613.62
631.265	14527.61
631.459	14310.52
631.653	14423.16
631.848	14335.1
632.042	14212.22
632.236	14169.21
632.43	14025.86
632.624	14124.16
632.818	13796.48
633.012	13786.24
633.206	13819.01
633.4	13769.86
633.594	13530.25
633.788	13481.1
633.982	13757.57
634.176	13413.51
634.369	13503.62
634.563	13497.48
634.757	13325.45
634.951	13374.6
635.145	13204.62
635.339	13253.77
635.533	13163.66
635.726	12922
635.92	12817.55
636.114	12876.94
636.308	12690.58
636.501	12745.87
636.695	12532.89
636.889	12526.74
637.083	12481.69
637.276	12424.34
637.47	12258.46
637.664	12170.4
637.857	12311.71
638.051	12248.22
638.244	11977.89
638.438	12326.04
638.632	12102.81
638.825	11852.96
639.019	12074.14
639.212	11883.68
639.406	11758.75
639.599	11799.71
639.793	11781.28
639.986	11635.88
640.18	11609.25
640.373	11300.01
640.567	11300.01
640.76	11343.02
640.954	11361.45
641.147	11312.3
641.34	11121.84
641.534	11390.12
641.727	11242.67
641.92	11216.04
642.114	10910.89
642.307	11396.26
642.5	10761.39
642.694	10788.02
642.887	10769.58
643.08	10857.65
643.273	10529.97
643.467	10691.76
643.66	10532.02
643.853	10589.36
644.046	10058.94
644.239	10407.09
644.432	10615.99
644.626	10259.64
644.819	10261.69
645.012	10104
645.205	10020.03
645.398	10081.47
645.591	9956.54
645.784	10077.37
645.977	9919.68
646.17	9907.39
646.363	9745.6
646.556	9755.84
646.749	9772.22
646.942	9802.94
647.135	9589.95
647.328	9469.12
647.521	9309.38
647.714	9368.77
647.907	9413.83
648.099	9389.25
648.292	9387.21
648.485	9268.42
648.678	9161.93
648.871	9071.82
649.064	8985.8
649.256	9172.17
649.449	8869.07
649.642	8858.83
649.835	8967.37
650.027	9002.19
650.22	8910.03
650.413	8778.96
650.605	8860.88
650.798	8682.7
650.991	8795.34
651.183	8785.1
651.376	8406.23
651.568	8639.7
651.761	8520.92
651.954	8488.15
652.146	8553.68
652.339	8279.25
652.531	8441.04
652.724	8307.93
652.916	8314.07
653.109	8123.61
653.301	8232.15
653.494	8209.62
653.686	7963.87
653.879	7986.4
654.071	7900.38
654.263	8068.31
654.456	8121.56
654.648	7830.75
654.84	7820.51
655.033	7775.45
655.225	7658.72
655.417	7824.61
655.61	7920.86
655.802	7539.94
655.994	7691.49
656.186	7773.41
656.379	7441.64
656.571	7535.84
656.763	7460.07
656.955	7410.92
657.148	7388.39
657.34	7288.04
657.532	7148.78
657.724	7132.39
657.916	7091.43
658.108	7273.7
658.3	7161.06
658.492	7083.24
658.684	7093.48
658.876	7107.82
659.068	7136.49
659.26	7017.71
659.452	6929.64
659.644	6943.98
659.836	6757.61
660.028	6896.88
660.22	6759.66
660.412	6872.3
660.604	6743.28
660.796	6784.24
660.988	6661.36
661.18	6730.99
661.372	6411.51
661.563	6636.78
661.755	6448.37
661.947	6495.47
662.139	6358.26
662.331	6440.18
662.522	6309.11
662.714	6339.83
662.906	6380.79
663.097	6231.29
663.289	6235.38
663.481	6186.23
663.673	6057.21
663.864	6169.85
664.056	6219
664.247	6083.83
664.439	6071.54
664.631	6055.16
664.822	6206.71
665.014	6102.26
665.205	5919.99
665.397	5766.4
665.588	5944.57
665.78	5915.9
665.971	5819.64
666.163	6063.35
666.354	5741.82
666.546	5776.64
666.737	5641.47
666.929	5707.01
667.12	5684.48
667.311	5692.67
667.503	5641.47
667.694	5590.27
667.885	5645.57
668.077	5655.81
668.268	5545.22
668.459	5522.69
668.651	5610.75
668.842	5549.31
669.033	5485.83
669.224	5414.15
669.416	5291.27
669.607	5416.19
669.798	5422.34
669.989	5365
670.18	5291.27
670.371	5233.93
670.563	5121.29
670.754	5260.55
670.945	5109
671.136	5215.49
671.327	5264.64
671.518	5235.97
671.709	5217.54
671.9	5082.38
672.091	5154.05
672.282	5147.91
672.473	5043.46
672.664	4945.16
672.855	4949.26
673.046	4807.95
673.237	4914.44
673.428	4947.21
673.619	4859.15
673.809	4730.13
674	4887.82
674.191	4885.77
674.382	4865.29
674.573	4871.43
674.764	4750.6
674.954	4773.13
675.145	4826.38
675.336	4771.08
675.527	4711.69
675.717	4683.02
675.908	4592.91
676.099	4713.74
676.289	4603.15
676.48	4752.65
676.671	4693.26
676.861	4744.46
677.052	4611.34
677.243	4625.68
677.433	4631.82
677.624	4521.23
677.814	4656.4
678.005	4627.73
678.195	4576.53
678.386	4564.24
678.576	4384.02
678.767	4513.04
678.957	4367.63
679.148	4390.16
679.338	4347.15
679.529	4508.94
679.719	4332.82
679.909	4435.22
680.1	4365.59
680.29	4308.24
680.481	4379.92
680.671	4384.02
680.861	4472.08
681.052	4375.83
681.242	4308.24
681.432	4349.2
681.622	4289.81
681.813	4318.48
682.003	4164.89
682.193	4197.65
682.383	4300.05
682.573	4277.52
682.764	4168.98
682.954	4164.89
683.144	4265.24
683.334	4152.6
683.524	4259.09
683.714	4293.91
683.904	4214.04
684.094	4138.26
684.284	4005.14
684.474	4220.18
684.664	4228.37
684.854	4121.88
685.044	4095.25
685.234	4042.01
685.424	4048.15
685.614	4074.78
685.804	4082.97
685.994	3994.9
686.184	4023.58
686.374	4001.05
686.564	3972.38
686.753	3917.08
686.943	3833.11
687.133	3921.18
687.323	3960.09
687.513	4001.05
687.702	3912.99
687.892	3710.24
688.082	3847.45
688.272	3839.26
688.461	3702.04
688.651	3816.73
688.841	3843.35
689.03	3681.57
689.22	3687.71
689.41	3734.81
689.599	3691.8
689.789	3679.52
689.979	3697.95
690.168	3573.02
690.358	3650.85
690.547	3538.21
690.737	3550.5
690.926	3568.93
691.116	3433.76
691.305	3581.21
691.495	3472.67
691.684	3630.37
691.874	3390.75
692.063	3505.44
692.252	3603.74
692.442	3429.66
692.631	3458.34
692.82	3423.52
693.01	3304.74
693.199	3235.11
693.388	3237.16
693.578	3427.62
693.767	3388.71
693.956	3284.26
694.146	3241.25
694.335	3188
694.524	3136.81
694.713	3198.24
694.902	3165.48
695.092	3128.61
695.281	3126.57
695.47	3235.11
695.659	3151.14
695.848	3126.57
696.037	3114.28
696.226	3134.76
696.415	3087.65
696.604	3099.94
696.793	3007.78
696.982	2972.97
697.171	3077.41
697.36	2942.25
697.549	2929.96
697.738	2874.67
697.927	2913.58
698.116	3011.88
698.305	2833.71
698.494	2913.58
698.683	2899.24
698.872	2942.25
699.061	2819.37
699.25	2725.16
699.438	2835.75
699.627	2860.33
699.816	2899.24
700.005	2692.4
700.193	2796.84
700.382	2817.32
700.571	2751.79
700.76	2796.84
700.948	2788.65
701.137	2774.31
701.326	2731.31
701.514	2833.71
701.703	2766.12
701.892	2555.18
702.08	2864.43
702.269	2710.83
702.457	2741.55
702.646	2759.98
702.834	2573.61
703.023	2764.08
703.212	2755.88
703.4	2694.44
703.589	2696.49
703.777	2639.15
703.965	2530.61
704.154	2575.66
704.342	2575.66
704.531	2633.01
704.719	2594.09
704.907	2737.45
705.096	2622.77
705.284	2673.96
705.472	2649.39
705.661	2620.72
705.849	2766.12
706.037	2557.23
706.226	2661.68
706.414	2583.85
706.602	2563.37
706.79	2618.67
706.979	2524.46
707.167	2540.85
707.355	2432.3
707.543	2575.66
707.731	2549.04
707.919	2428.21
708.107	2422.06
708.296	2579.76
708.484	2571.57
708.672	2583.85
708.86	2567.47
709.048	2573.61
709.236	2501.94
709.424	2618.67
709.612	2553.13
709.8	2393.39
709.988	2499.89
710.176	2575.66
710.364	2522.41
710.551	2450.74
710.739	2458.93
710.927	2450.74
711.115	2469.17
711.303	2458.93
711.491	2389.3
711.679	2483.5
711.866	2526.51
712.054	2387.25
712.242	2456.88
712.43	2389.3
712.617	2477.36
712.805	2344.24
712.993	2352.43
713.181	2364.72
713.368	2534.7
713.556	2436.4
713.744	2434.35
713.931	2491.7
714.119	2485.55
714.306	2489.65
714.494	2409.78
714.682	2407.73
714.869	2452.78
715.057	2426.16
715.244	2319.67
715.432	2573.61
715.619	2471.22
715.807	2432.3
715.994	2483.5
716.182	2409.78
716.369	2424.11
716.556	2452.78
716.744	2374.96
716.931	2305.33
717.119	2442.54
717.306	2430.26
717.493	2428.21
717.681	2379.06
717.868	2420.02
718.055	2426.16
718.242	2424.11
718.43	2442.54
718.617	2409.78
718.804	2348.34
718.991	2481.46
719.179	2458.93
719.366	2297.14
719.553	2342.19
719.74	2317.62
719.927	2477.36
720.114	2286.9
720.301	2360.63
720.488	2344.24
720.676	2450.74
720.863	2432.3
721.05	2483.5
721.237	2463.02
721.424	2546.99
721.611	2471.22
721.798	2379.06
721.985	2321.71
722.172	2405.68
722.358	2397.49
722.545	2381.1
722.732	2334
722.919	2555.18
723.106	2389.3
723.293	2405.68
723.48	2450.74
723.667	2368.82
723.853	2381.1
724.04	2491.7
724.227	2401.58
724.414	2420.02
724.6	2491.7
724.787	2555.18
724.974	2510.13
725.161	2413.87
725.347	2415.92
725.534	2436.4
725.72	2458.93
725.907	2491.7
726.094	2477.36
726.28	2456.88
726.467	2448.69
726.653	2383.15
726.84	2534.7
727.027	2524.46
727.213	2592.05
727.4	2485.55
727.586	2479.41
727.773	2501.94
727.959	2479.41
728.145	2524.46
728.332	2393.39
728.518	2448.69
728.705	2485.55
728.891	2440.5
729.077	2338.1
729.264	2555.18
729.45	2530.61
729.636	2653.48
729.823	2456.88
730.009	2577.71
730.195	2581.81
730.382	2534.7
730.568	2585.9
730.754	2497.84
730.94	2579.76
731.126	2585.9
731.313	2633.01
731.499	2708.78
731.685	2532.65
731.871	2555.18
732.057	2565.42
732.243	2590
732.429	2575.66
732.615	2579.76
732.801	2551.09
732.987	2594.09
733.173	2680.11
733.359	2637.1
733.545	2397.49
733.731	2551.09
733.917	2567.47
734.103	2626.86
734.289	2569.52
734.475	2557.23
734.661	2835.75
734.847	2612.53
735.033	2618.67
735.219	2639.15
735.404	2647.34
735.59	2624.81
735.776	2585.9
735.962	2614.57
736.148	2669.87
736.333	2575.66
736.519	2671.92
736.705	2626.86
736.89	2577.71
737.076	2637.1
737.262	2604.33
737.447	2571.57
737.633	2620.72
737.819	2696.49
738.004	2635.05
738.19	2647.34
738.375	2635.05
738.561	2813.23
738.747	2665.77
738.932	2643.24
739.118	2813.23
739.303	2700.59
739.489	2694.44
739.674	2628.91
739.859	2622.77
740.045	2688.3
740.23	2682.16
740.416	2700.59
740.601	2649.39
740.786	2733.36
740.972	2811.18
741.157	2680.11
741.342	2583.85
741.528	2700.59
741.713	2751.79
741.898	2481.46
742.084	2712.88
742.269	2776.36
742.454	2573.61
742.639	2749.74
742.824	2751.79
743.01	2702.64
743.195	2702.64
743.38	2671.92
743.565	2606.38
743.75	2696.49
743.935	2721.07
744.12	2704.68
744.305	2471.22
744.49	2714.92
744.675	2667.82
744.86	2577.71
745.045	2655.53
745.23	2659.63
745.415	2655.53
745.6	2639.15
745.785	2579.76
745.97	2516.27
746.155	2587.95
746.34	2604.33
746.525	2495.79
746.71	2503.98
746.895	2522.41
747.079	2440.5
747.264	2516.27
747.449	2387.25
747.634	2555.18
747.819	2487.6
748.003	2510.13
748.188	2518.32
748.373	2465.07
748.557	2499.89
748.742	2354.48
748.927	2489.65
749.111	2483.5
749.296	2440.5
749.481	2456.88
749.665	2391.34
749.85	2311.47
750.034	2397.49
750.219	2307.38
750.404	2307.38
750.588	2383.15
750.773	2223.41
750.957	2344.24
751.141	2303.28
751.326	2266.42
751.51	2172.21
751.695	2252.08
751.879	2182.45
752.064	2250.03
752.248	2223.41
752.432	2262.32
752.617	2239.8
752.801	2141.49
752.985	2200.88
753.17	2190.64
753.354	2069.81
753.538	2194.74
753.722	2069.81
753.907	2114.87
754.091	2161.97
754.275	2188.6
754.459	2065.72
754.643	2092.34
754.828	2127.16
755.012	1944.89
755.196	2035
755.38	2078.01
755.564	2051.38
755.748	1996.09
755.932	2045.24
756.116	2037.05
756.3	2002.23
756.484	2006.33
756.668	1916.22
756.852	1963.32
757.036	1967.42
757.22	2018.61
757.404	2000.18
757.588	1897.78
757.772	1903.93
757.956	1905.98
758.14	1850.68
758.323	2004.28
758.507	1836.35
758.691	1830.2
758.875	1822.01
759.059	1957.18
759.242	1789.24
759.426	1735.99
759.61	1801.53
759.794	1740.09
759.977	1838.39
760.161	1916.22
760.345	1862.97
760.528	1813.82
760.712	1754.43
760.895	1715.52
761.079	1723.71
761.263	1768.76
761.446	1656.12
761.63	1623.36
761.813	1725.75
761.997	1660.22
762.18	1623.36
762.364	1617.21
762.547	1649.98
762.731	1752.38
762.914	1604.92
763.098	1545.53
763.281	1627.45
763.464	1533.25
763.648	1643.84
763.831	1613.12
764.015	1588.54
764.198	1574.21
764.381	1649.98
764.564	1539.39
764.748	1619.26
764.931	1549.63
765.114	1641.79
765.297	1504.57
765.481	1533.25
765.664	1566.01
765.847	1584.45
766.03	1549.63
766.213	1502.53
766.397	1488.19
766.58	1504.57
766.763	1496.38
766.946	1473.85
767.129	1508.67
767.312	1465.66
767.495	1469.76
767.678	1412.42
767.861	1514.81
768.044	1416.51
768.227	1486.14
768.41	1436.99
768.593	1412.42
768.776	1373.5
768.959	1353.02
769.142	1457.47
769.324	1381.7
769.507	1471.81
769.69	1393.98
769.873	1459.52
770.056	1443.14
770.239	1355.07
770.421	1463.61
770.604	1396.03
770.787	1287.49
770.97	1289.54
771.152	1299.78
771.335	1418.56
771.518	1336.64
771.7	1361.22
771.883	1402.18
772.066	1291.59
772.248	1318.21
772.431	1293.63
772.613	1293.63
772.796	1185.09
772.978	1252.67
773.161	1363.26
773.343	1240.39
773.526	1232.19
773.708	1201.47
773.891	1238.34
774.073	1211.71
774.256	1148.23
774.438	1381.7
774.621	1248.58
774.803	1277.25
774.985	1176.9
775.168	1176.9
775.35	1144.13
775.532	1197.38
775.715	1111.36
775.897	1066.31
776.079	1045.83
776.261	1113.41
776.444	1043.78
776.626	1135.94
776.808	1113.41
776.99	1043.78
777.173	1123.65
777.355	1125.7
777.537	925
777.719	1011.01
777.901	994.63
778.083	1043.78
778.265	1066.31
778.447	1039.69
778.629	965.96
778.811	894.28
778.993	1084.74
779.175	1008.97
779.357	990.53
779.539	982.34
779.721	929.1
779.903	996.68
780.085	1027.4
780.267	939.33
780.449	957.77
780.631	955.72
780.812	961.86
780.994	1002.82
781.176	879.94
781.358	863.56
781.54	767.31
781.721	916.81
781.903	945.48
782.085	861.51
782.267	863.56
782.448	777.55
782.63	793.93
782.812	771.4
782.993	789.83
783.175	783.69
783.357	757.07
783.538	812.36
783.72	838.98
783.901	701.77
784.083	724.3
784.264	798.03
784.446	619.85
784.627	744.78
784.809	849.22
784.99	722.25
785.172	709.96
785.353	671.05
785.535	621.9
785.716	824.65
785.897	671.05
786.079	755.02
786.26	767.31
786.441	671.05
786.623	621.9
786.804	609.61
786.985	699.72
787.167	695.63
787.348	582.99
787.529	621.9
787.71	662.86
787.891	728.39
788.073	591.18
788.254	576.84
788.435	671.05
788.616	685.39
788.797	539.98
788.978	580.94
789.159	585.04
789.34	718.15
789.522	564.56
789.703	564.56
789.884	609.61
790.065	582.99
790.246	626
790.427	566.6
790.607	570.7
790.788	587.08
790.969	517.45
791.15	556.36
791.331	580.94
791.512	539.98
791.693	562.51
791.874	574.8
792.054	513.36
792.235	476.49
792.416	496.97
792.597	474.45
792.778	533.84
792.958	466.25
793.139	462.16
793.32	587.08
793.5	478.54
793.681	548.17
793.862	574.8
794.042	445.77
794.223	501.07
794.404	443.73
794.584	517.45
794.765	466.25
794.945	466.25
795.126	449.87
795.306	531.79
795.487	490.83
795.667	447.82
795.848	421.2
796.028	298.32
796.209	486.73
796.389	488.78
796.57	447.82
796.75	460.11
796.93	460.11
797.111	376.14
797.291	353.62
797.471	425.29
797.652	419.15
797.832	429.39
798.012	404.82
798.192	355.66
798.373	415.05
798.553	351.57
798.733	427.34
798.913	394.58
799.093	320.85
799.274	441.68
799.454	417.1
799.634	400.72
799.814	376.14
799.994	462.16
800.174	316.75
800.354	320.85
800.534	253.27
800.714	349.52
800.894	312.66
801.074	290.13
801.254	400.72
801.434	390.48
801.614	308.56
801.794	337.23
801.974	992.58
802.154	273.75
802.334	318.8
802.514	322.9
802.693	275.79
802.873	294.22
803.053	359.76
803.233	306.51
803.413	331.09
803.592	277.84
803.772	288.08
803.952	355.66
804.131	341.33
804.311	359.76
804.491	306.51
804.67	226.64
804.85	322.9
805.03	312.66
805.209	359.76
805.389	267.6
805.568	363.86
805.748	259.41
805.928	267.6
806.107	339.28
806.287	224.59
806.466	300.37
806.646	214.35
806.825	333.14
807.004	310.61
807.184	345.42
807.363	286.03
807.543	267.6
807.722	292.18
807.901	302.42
808.081	306.51
808.26	288.08
808.439	314.7
808.619	261.46
808.798	286.03
808.977	339.28
809.156	236.88
809.336	331.09
809.515	357.71
809.694	148.82
809.873	247.12
810.052	230.74
810.231	261.46
810.411	251.22
810.59	304.46
810.769	232.79
810.948	279.89
811.127	245.07
811.306	230.74
811.485	275.79
811.664	265.55
811.843	300.37
812.022	275.79
812.201	249.17
812.38	202.07
812.559	214.35
812.737	230.74
812.916	208.21
813.095	257.36
813.274	218.45
813.453	255.31
813.632	324.94
813.811	228.69
813.989	144.72
814.168	240.98
814.347	214.35
814.526	163.15
814.704	208.21
814.883	238.93
815.062	200.02
815.24	236.88
815.419	122.2
815.598	247.12
815.776	142.68
815.955	214.35
816.133	171.35
816.312	202.07
816.49	154.96
816.669	204.11
816.847	204.11
817.026	236.88
817.204	140.63
817.383	177.49
817.561	150.87
817.74	210.26
817.918	165.2
818.097	185.68
818.275	175.44
818.453	204.11
818.632	187.73
818.81	146.77
818.988	169.3
819.167	202.07
819.345	183.63
819.523	175.44
819.701	128.34
819.879	208.21
820.058	171.35
820.236	142.68
820.414	193.87
820.592	161.11
820.77	247.12
820.948	165.2
821.127	122.2
821.305	159.06
821.483	148.82
821.661	216.4
821.839	142.68
822.017	109.91
822.195	183.63
822.373	134.48
822.551	163.15
822.729	181.59
822.907	132.44
823.085	191.83
823.262	187.73
823.44	200.02
823.618	114
823.796	179.54
823.974	187.73
824.152	226.64
824.329	138.58
824.507	210.26
824.685	138.58
824.863	189.78
825.04	134.48
825.218	144.72
825.396	130.39
825.574	152.91
825.751	144.72
825.929	204.11
826.107	114
826.284	142.68
826.462	150.87
826.639	165.2
826.817	91.48
826.994	163.15
827.172	38.23
827.349	208.21
827.527	77.14
827.704	154.96
827.882	163.15
828.059	128.34
828.237	134.48
828.414	128.34
828.591	163.15
828.769	175.44
828.946	93.52
829.124	122.2
829.301	138.58
829.478	64.85
829.655	93.52
829.833	40.28
830.01	122.2
830.187	144.72
830.364	138.58
830.542	128.34
830.719	200.02
830.896	191.83
831.073	114
831.25	173.39
831.427	150.87
831.604	200.02
831.782	161.11
831.959	101.72
832.136	134.48
832.313	120.15
832.49	105.81
832.667	134.48
832.844	66.9
833.021	62.8
833.198	107.86
833.374	120.15
833.551	42.32
833.728	120.15
833.905	66.9
834.082	50.52
834.259	79.19
834.436	101.72
834.612	99.67
834.789	97.62
834.966	46.42
835.143	93.52
835.319	44.37
835.496	103.76
835.673	157.01
835.85	89.43
836.026	77.14
836.203	140.63
836.38	140.63
836.556	83.28
836.733	52.56
836.909	68.95
837.086	148.82
837.262	114
837.439	101.72
837.616	97.62
837.792	107.86
837.968	109.91
838.145	7.51
838.321	75.09
838.498	36.18
838.674	148.82
838.851	71
839.027	71
839.203	124.24
839.38	60.76
839.556	83.28
839.732	120.15
839.909	66.9
840.085	116.05
840.261	27.99
840.437	34.13
840.614	105.81
840.79	109.91
840.966	111.96
841.142	54.61
841.318	116.05
841.494	128.34
841.671	99.67
841.847	91.48
842.023	56.66
842.199	116.05
842.375	146.77
842.551	5.46
842.727	46.42
842.903	165.2
843.079	60.76
843.255	73.04
843.431	99.67
843.607	109.91
843.783	23.89
843.959	81.24
844.134	54.61
844.31	136.53
844.486	68.95
844.662	66.9
844.838	77.14
845.013	85.33
845.189	60.76
845.365	48.47
845.541	23.89
845.716	118.1
845.892	19.8
846.068	64.85
846.244	-4.78
846.419	134.48
846.595	34.13
846.77	52.56
846.946	40.28
847.122	81.24
847.297	71
847.473	46.42
847.648	13.65
847.824	23.89
847.999	-60.07
848.175	77.14
848.35	85.33
848.526	64.85
848.701	42.32
848.876	103.76
849.052	128.34
849.227	97.62
849.403	60.76
849.578	48.47
849.753	13.65
849.929	71
850.104	34.13
850.279	136.53
850.454	54.61
850.63	66.9
850.805	3.41
850.98	19.8
851.155	-6.83
851.33	44.37
851.505	19.8
851.681	120.15
851.856	11.61
852.031	85.33
852.206	23.89
852.381	25.94
852.556	34.13
852.731	44.37
852.906	-6.83
853.081	95.57
853.256	138.58
853.431	27.99
853.606	15.7
853.781	-51.88
853.956	-4.78
854.131	89.43
854.305	13.65
854.48	50.52
854.655	-41.64
854.83	40.28
855.005	-25.26
855.18	50.52
855.354	32.08
855.529	-27.31
855.704	17.75
855.879	7.51
856.053	-19.11
856.228	21.84
856.403	36.18
856.577	89.43
856.752	-21.16
856.926	114
857.101	54.61
857.276	-17.07
857.45	9.56
857.625	46.42
857.799	-21.16
857.974	1.37
858.148	-6.83
858.323	97.62
858.497	-66.22
858.672	-43.69
858.846	-4.78
859.02	99.67
859.195	19.8
859.369	38.23
859.543	34.13
859.718	1.37
859.892	77.14
860.066	15.7
860.241	1.37
860.415	32.08
860.589	3.41
860.763	3.41
860.938	-25.26
861.112	17.75
861.286	-8.87
861.46	25.94
861.634	-31.4
861.808	56.66
861.982	25.94
862.157	23.89
862.331	-12.97
862.505	79.19
862.679	-17.07
862.853	66.9
863.027	-17.07
863.201	101.72
863.375	32.08
863.549	-4.78
863.722	15.7
863.896	-8.87
864.07	9.56
864.244	27.99
864.418	34.13
864.592	25.94
864.766	5.46
864.939	-8.87
865.113	19.8
865.287	54.61
865.461	21.84
865.634	-2.73
865.808	58.71
865.982	-41.64
866.156	25.94
866.329	-2.73
866.503	-125.61
866.676	73.04
866.85	-43.69
867.024	13.65
867.197	13.65
867.371	-10.92
867.544	21.84
867.718	50.52
867.891	-23.21
868.065	13.65
868.238	23.89
868.412	36.18
868.585	54.61
868.759	77.14
868.932	-23.21
869.105	23.89
869.279	46.42
869.452	-41.64
869.625	-62.12
869.799	-55.98
869.972	-25.26
870.145	5.46
870.319	-4.78
870.492	60.76
870.665	50.52
870.838	23.89
871.011	-76.46
871.185	-25.26
871.358	36.18
871.531	101.72
871.704	5.46
871.877	40.28
872.05	1.37
872.223	15.7
872.396	-0.68
872.569	11.61
872.742	-33.45
872.915	3.41
873.088	-60.07
873.261	-6.83
873.434	52.56
873.607	27.99
873.78	50.52
873.953	-53.93
874.126	-62.12
874.299	75.09
874.471	-53.93
874.644	48.47
874.817	13.65
874.99	101.72
875.163	50.52
875.335	-15.02
875.508	-12.97
875.681	52.56
875.853	5.46
876.026	52.56
876.199	40.28
876.371	-19.11
876.544	19.8
876.717	44.37
876.889	27.99
877.062	62.8
877.234	-29.35
877.407	-4.78
877.579	-23.21
877.752	48.47
877.924	38.23
878.097	81.24
878.269	-90.79
878.442	5.46
878.614	7.51
878.786	-4.78
878.959	93.52
879.131	-10.92
879.303	-31.4
879.476	-31.4
879.648	40.28
879.82	62.8
879.993	32.08
880.165	-25.26
880.337	-19.11
880.509	44.37
880.681	-0.68
880.854	17.75
881.026	44.37
881.198	66.9
881.37	13.65
881.542	17.75
881.714	-8.87
881.886	-33.45
882.058	3.41
882.23	38.23
882.402	-17.07
882.574	-31.4
882.746	-4.78
882.918	34.13
883.09	-35.5
883.262	58.71
883.434	15.7
883.606	-33.45
883.778	7.51
883.95	71
884.122	-45.74
884.293	89.43
884.465	-8.87
884.637	64.85
884.809	-23.21
884.98	25.94
885.152	-2.73
885.324	-25.26
885.496	3.41
885.667	19.8
885.839	15.7
886.011	95.57
886.182	11.61
886.354	9.56
886.525	-8.87
886.697	-10.92
886.869	-12.97
887.04	5.46
887.212	42.32
887.383	95.57
887.555	13.65
887.726	73.04
887.897	-6.83
888.069	54.61
888.24	-19.11
888.412	46.42
888.583	7.51
888.754	-37.55
888.926	-33.45
889.097	64.85
889.268	-64.17
889.44	32.08
889.611	-41.64
889.782	-72.36
889.953	-29.35
890.125	58.71
890.296	-72.36
890.467	-6.83
890.638	42.32
890.809	-21.16
890.98	7.51
891.151	-25.26
891.323	-37.55
891.494	-10.92
891.665	38.23
891.836	36.18
892.007	38.23
892.178	34.13
892.349	-51.88
892.52	13.65
892.691	19.8
892.862	40.28
893.032	-96.94
893.203	-58.03
893.374	34.13
893.545	-19.11
893.716	19.8
893.887	21.84
894.057	1.37
894.228	17.75
894.399	-8.87
894.57	-12.97
894.74	-17.07
894.911	21.84
895.082	30.04
895.253	-33.45
895.423	19.8
895.594	56.66
895.764	17.75
895.935	-29.35
896.106	71
896.276	19.8
896.447	85.33
896.617	-0.68
896.788	-21.16
896.958	-10.92
897.129	-78.51
897.299	-58.03
897.47	19.8
897.64	50.52
897.81	-80.55
897.981	58.71
898.151	-39.59
898.322	25.94
898.492	-41.64
898.662	17.75
898.832	-68.27
899.003	42.32
899.173	97.62
899.343	-37.55
899.513	32.08
