Data from USB4F104151__22__11-44-40-173.txt Node

Date: Fri Mar 14 11:44:40 EDT 2025
User: louis
Spectrometer: USB4F10415
Trigger mode: 4
Integration Time (sec): 2.000000E-2
Scans to average: 1
Electric dark correction enabled: true
Nonlinearity correction enabled: false
Boxcar width: 0
XAxis mode: Wavelengths
Number of Pixels in Spectrum: 3648
>>>>>Begin Spectral Data<<<<<
178.204	-117.42
178.424	-117.42
178.644	-117.42
178.864	-60.07
179.084	-35.5
179.304	30.04
179.524	-66.22
179.744	-27.31
179.964	25.94
180.184	27.99
180.404	44.37
180.624	-27.31
180.844	-19.11
181.064	-60.07
181.283	5.46
181.503	73.04
181.723	-6.83
181.943	-23.21
182.163	71
182.383	-0.68
182.602	11.61
182.822	30.04
183.042	44.37
183.262	52.56
183.482	17.75
183.701	-10.92
183.921	21.84
184.141	-41.64
184.361	107.86
184.58	56.66
184.8	-0.68
185.02	56.66
185.239	54.61
185.459	-10.92
185.679	-33.45
185.898	-10.92
186.118	17.75
186.338	-2.73
186.557	13.65
186.777	3.41
186.997	40.28
187.216	44.37
187.436	42.32
187.655	40.28
187.875	23.89
188.095	21.84
188.314	7.51
188.534	13.65
188.753	7.51
188.973	52.56
189.192	44.37
189.412	46.42
189.631	23.89
189.851	27.99
190.07	-39.59
190.29	-29.35
190.509	17.75
190.729	3.41
190.948	42.32
191.168	107.86
191.387	79.19
191.607	3.41
191.826	54.61
192.045	36.18
192.265	-6.83
192.484	1.37
192.704	50.52
192.923	46.42
193.142	17.75
193.362	-39.59
193.581	-31.4
193.8	89.43
194.02	5.46
194.239	13.65
194.458	73.04
194.678	79.19
194.897	-15.02
195.116	23.89
195.335	68.95
195.555	46.42
195.774	15.7
195.993	68.95
196.212	11.61
196.432	-78.51
196.651	81.24
196.87	60.76
197.089	111.96
197.308	109.91
197.528	79.19
197.747	-41.64
197.966	77.14
198.185	40.28
198.404	73.04
198.623	42.32
198.842	66.9
199.062	21.84
199.281	-6.83
199.5	52.56
199.719	5.46
199.938	17.75
200.157	64.85
200.376	105.81
200.595	17.75
200.814	-10.92
201.033	36.18
201.252	32.08
201.471	13.65
201.69	36.18
201.909	15.7
202.128	58.71
202.347	23.89
202.566	13.65
202.785	40.28
203.004	-17.07
203.223	44.37
203.442	9.56
203.661	5.46
203.879	36.18
204.098	34.13
204.317	7.51
204.536	62.8
204.755	5.46
204.974	-4.78
205.193	11.61
205.411	79.19
205.63	21.84
205.849	50.52
206.068	7.51
206.287	-39.59
206.505	54.61
206.724	-47.79
206.943	-10.92
207.162	-33.45
207.381	-0.68
207.599	5.46
207.818	52.56
208.037	56.66
208.255	75.09
208.474	21.84
208.693	-19.11
208.911	-31.4
209.13	71
209.349	50.52
209.567	17.75
209.786	79.19
210.005	85.33
210.223	64.85
210.442	-10.92
210.661	54.61
210.879	58.71
211.098	62.8
211.316	38.23
211.535	23.89
211.753	32.08
211.972	58.71
212.191	40.28
212.409	-35.5
212.628	1.37
212.846	1.37
213.065	97.62
213.283	25.94
213.502	44.37
213.72	75.09
213.938	71
214.157	44.37
214.375	-23.21
214.594	30.04
214.812	36.18
215.031	-8.87
215.249	34.13
215.467	56.66
215.686	23.89
215.904	79.19
216.122	-8.87
216.341	75.09
216.559	21.84
216.778	48.47
216.996	36.18
217.214	56.66
217.432	15.7
217.651	-39.59
217.869	40.28
218.087	15.7
218.306	-47.79
218.524	5.46
218.742	21.84
218.96	42.32
219.179	-4.78
219.397	56.66
219.615	60.76
219.833	91.48
220.051	64.85
220.27	27.99
220.488	-23.21
220.706	-47.79
220.924	48.47
221.142	-15.02
221.36	87.38
221.578	1.37
221.796	103.76
222.015	62.8
222.233	58.71
222.451	15.7
222.669	19.8
222.887	-27.31
223.105	-39.59
223.323	-0.68
223.541	-2.73
223.759	19.8
223.977	-23.21
224.195	58.71
224.413	44.37
224.631	93.52
224.849	5.46
225.067	87.38
225.285	-58.03
225.503	42.32
225.721	-82.6
225.939	-29.35
226.157	71
226.375	54.61
226.592	30.04
226.81	32.08
227.028	44.37
227.246	46.42
227.464	32.08
227.682	13.65
227.9	46.42
228.117	25.94
228.335	25.94
228.553	58.71
228.771	64.85
228.989	-27.31
229.206	5.46
229.424	89.43
229.642	114
229.86	46.42
230.077	46.42
230.295	34.13
230.513	42.32
230.731	40.28
230.948	52.56
231.166	91.48
231.384	38.23
231.601	27.99
231.819	87.38
232.037	44.37
232.254	-19.11
232.472	25.94
232.689	50.52
232.907	27.99
233.125	34.13
233.342	48.47
233.56	5.46
233.777	17.75
233.995	11.61
234.213	19.8
234.43	32.08
234.648	3.41
234.865	17.75
235.083	109.91
235.3	-45.74
235.518	7.51
235.735	111.96
235.953	15.7
236.17	34.13
236.388	-10.92
236.605	9.56
236.822	54.61
237.04	30.04
237.257	-15.02
237.475	-15.02
237.692	107.86
237.909	-10.92
238.127	91.48
238.344	3.41
238.562	116.05
238.779	-53.93
238.996	-15.02
239.214	58.71
239.431	-31.4
239.648	48.47
239.865	58.71
240.083	54.61
240.3	15.7
240.517	-21.16
240.735	3.41
240.952	-41.64
241.169	13.65
241.386	54.61
241.603	23.89
241.821	-2.73
242.038	23.89
242.255	5.46
242.472	34.13
242.689	111.96
242.907	38.23
243.124	5.46
243.341	-21.16
243.558	-27.31
243.775	-31.4
243.992	-0.68
244.209	19.8
244.426	-51.88
244.643	75.09
244.86	13.65
245.078	50.52
245.295	27.99
245.512	79.19
245.729	-12.97
245.946	89.43
246.163	17.75
246.38	62.8
246.597	73.04
246.814	19.8
247.031	5.46
247.248	-6.83
247.464	66.9
247.681	23.89
247.898	87.38
248.115	44.37
248.332	71
248.549	93.52
248.766	-0.68
248.983	48.47
249.2	-19.11
249.417	75.09
249.633	-8.87
249.85	-17.07
250.067	58.71
250.284	56.66
250.501	79.19
250.717	30.04
250.934	13.65
251.151	32.08
251.368	36.18
251.585	42.32
251.801	-2.73
252.018	-29.35
252.235	60.76
252.451	54.61
252.668	19.8
252.885	52.56
253.102	62.8
253.318	30.04
253.535	-6.83
253.752	66.9
253.968	13.65
254.185	-10.92
254.401	54.61
254.618	-43.69
254.835	-0.68
255.051	107.86
255.268	40.28
255.484	66.9
255.701	50.52
255.917	64.85
256.134	15.7
256.351	64.85
256.567	-45.74
256.784	30.04
257	15.7
257.217	48.47
257.433	71
257.65	66.9
257.866	-19.11
258.082	15.7
258.299	-17.07
258.515	68.95
258.732	15.7
258.948	38.23
259.165	32.08
259.381	23.89
259.597	3.41
259.814	81.24
260.03	-39.59
260.246	89.43
260.463	-0.68
260.679	81.24
260.895	32.08
261.112	-74.41
261.328	-27.31
261.544	54.61
261.761	34.13
261.977	85.33
262.193	-17.07
262.409	42.32
262.626	95.57
262.842	105.81
263.058	17.75
263.274	30.04
263.49	87.38
263.707	66.9
263.923	68.95
264.139	27.99
264.355	105.81
264.571	52.56
264.787	-12.97
265.004	-17.07
265.22	34.13
265.436	36.18
265.652	42.32
265.868	56.66
266.084	-19.11
266.3	-10.92
266.516	60.76
266.732	-15.02
266.948	25.94
267.164	7.51
267.38	64.85
267.596	9.56
267.812	66.9
268.028	34.13
268.244	27.99
268.46	50.52
268.676	9.56
268.892	-23.21
269.108	62.8
269.324	17.75
269.54	95.57
269.756	17.75
269.972	21.84
270.188	91.48
270.403	27.99
270.619	103.76
270.835	38.23
271.051	52.56
271.267	1.37
271.483	60.76
271.698	1.37
271.914	5.46
272.13	116.05
272.346	17.75
272.562	71
272.777	91.48
272.993	25.94
273.209	56.66
273.425	-21.16
273.64	-31.4
273.856	-0.68
274.072	25.94
274.287	-4.78
274.503	58.71
274.719	7.51
274.934	52.56
275.15	64.85
275.366	46.42
275.581	32.08
275.797	58.71
276.012	50.52
276.228	36.18
276.444	17.75
276.659	19.8
276.875	42.32
277.09	44.37
277.306	-2.73
277.521	54.61
277.737	7.51
277.952	60.76
278.168	62.8
278.383	-2.73
278.599	17.75
278.814	79.19
279.03	46.42
279.245	60.76
279.461	-17.07
279.676	-27.31
279.892	30.04
280.107	91.48
280.322	34.13
280.538	66.9
280.753	73.04
280.969	-35.5
281.184	62.8
281.399	62.8
281.615	19.8
281.83	23.89
282.045	36.18
282.26	-4.78
282.476	5.46
282.691	40.28
282.906	46.42
283.122	40.28
283.337	32.08
283.552	40.28
283.767	23.89
283.983	19.8
284.198	11.61
284.413	44.37
284.628	40.28
284.843	122.2
285.058	32.08
285.274	62.8
285.489	-35.5
285.704	44.37
285.919	17.75
286.134	66.9
286.349	5.46
286.564	93.52
286.779	44.37
286.995	15.7
287.21	66.9
287.425	-6.83
287.64	-17.07
287.855	50.52
288.07	23.89
288.285	23.89
288.5	-43.69
288.715	79.19
288.93	13.65
289.145	23.89
289.36	13.65
289.575	30.04
289.79	32.08
290.004	48.47
290.219	91.48
290.434	-35.5
290.649	25.94
290.864	-10.92
291.079	93.52
291.294	85.33
291.509	1.37
291.724	52.56
291.938	-15.02
292.153	38.23
292.368	-0.68
292.583	44.37
292.798	46.42
293.012	17.75
293.227	54.61
293.442	34.13
293.657	54.61
293.871	25.94
294.086	73.04
294.301	81.24
294.516	-0.68
294.73	21.84
294.945	34.13
295.16	62.8
295.374	62.8
295.589	-21.16
295.804	11.61
296.018	42.32
296.233	30.04
296.447	68.95
296.662	27.99
296.877	64.85
297.091	46.42
297.306	44.37
297.52	30.04
297.735	77.14
297.949	52.56
298.164	83.28
298.378	64.85
298.593	60.76
298.807	25.94
299.022	60.76
299.236	-4.78
299.451	30.04
299.665	15.7
299.88	-17.07
300.094	42.32
300.309	40.28
300.523	64.85
300.737	25.94
300.952	30.04
301.166	116.05
301.381	21.84
301.595	30.04
301.809	81.24
302.024	40.28
302.238	87.38
302.452	17.75
302.667	-21.16
302.881	7.51
303.095	111.96
303.309	109.91
303.524	58.71
303.738	13.65
303.952	50.52
304.166	9.56
304.381	13.65
304.595	118.1
304.809	-6.83
305.023	32.08
305.237	-8.87
305.452	64.85
305.666	32.08
305.88	-19.11
306.094	11.61
306.308	36.18
306.522	81.24
306.736	23.89
306.95	97.62
307.164	120.15
307.379	-4.78
307.593	25.94
307.807	79.19
308.021	21.84
308.235	5.46
308.449	-45.74
308.663	50.52
308.877	58.71
309.091	25.94
309.305	-4.78
309.519	126.29
309.733	19.8
309.947	11.61
310.161	79.19
310.374	81.24
310.588	30.04
310.802	38.23
311.016	81.24
311.23	17.75
311.444	54.61
311.658	11.61
311.872	56.66
312.085	118.1
312.299	32.08
312.513	46.42
312.727	50.52
312.941	3.41
313.154	-15.02
313.368	1.37
313.582	44.37
313.796	122.2
314.009	13.65
314.223	34.13
314.437	17.75
314.651	52.56
314.864	32.08
315.078	62.8
315.292	32.08
315.505	54.61
315.719	71
315.933	64.85
316.146	103.76
316.36	44.37
316.573	60.76
316.787	27.99
317.001	75.09
317.214	-10.92
317.428	52.56
317.641	-12.97
317.855	3.41
318.068	-15.02
318.282	38.23
318.495	52.56
318.709	52.56
318.922	60.76
319.136	124.24
319.349	116.05
319.563	44.37
319.776	38.23
319.99	89.43
320.203	23.89
320.417	40.28
320.63	71
320.843	83.28
321.057	30.04
321.27	23.89
321.483	30.04
321.697	1.37
321.91	73.04
322.124	128.34
322.337	95.57
322.55	-23.21
322.763	93.52
322.977	58.71
323.19	93.52
323.403	50.52
323.617	83.28
323.83	87.38
324.043	-17.07
324.256	77.14
324.469	9.56
324.683	46.42
324.896	46.42
325.109	-2.73
325.322	-15.02
325.535	54.61
325.748	-4.78
325.962	23.89
326.175	3.41
326.388	42.32
326.601	9.56
326.814	34.13
327.027	60.76
327.24	93.52
327.453	-19.11
327.666	48.47
327.879	83.28
328.092	1.37
328.305	-0.68
328.518	-47.79
328.731	15.7
328.944	19.8
329.157	48.47
329.37	71
329.583	120.15
329.796	56.66
330.009	-2.73
330.222	83.28
330.435	85.33
330.648	23.89
330.861	21.84
331.073	25.94
331.286	73.04
331.499	21.84
331.712	-23.21
331.925	17.75
332.138	21.84
332.35	17.75
332.563	23.89
332.776	132.44
332.989	-51.88
333.202	118.1
333.414	3.41
333.627	13.65
333.84	44.37
334.053	19.8
334.265	1.37
334.478	107.86
334.691	-2.73
334.903	107.86
335.116	77.14
335.329	9.56
335.541	79.19
335.754	87.38
335.966	32.08
336.179	73.04
336.392	32.08
336.604	87.38
336.817	50.52
337.029	81.24
337.242	-19.11
337.454	66.9
337.667	-35.5
337.88	95.57
338.092	116.05
338.305	3.41
338.517	-25.26
338.729	27.99
338.942	120.15
339.154	-6.83
339.367	44.37
339.579	23.89
339.792	-19.11
340.004	56.66
340.217	-6.83
340.429	77.14
340.641	-6.83
340.854	30.04
341.066	48.47
341.278	34.13
341.491	85.33
341.703	19.8
341.915	99.67
342.128	-12.97
342.34	36.18
342.552	-19.11
342.764	30.04
342.977	-2.73
343.189	30.04
343.401	42.32
343.613	1.37
343.826	-2.73
344.038	64.85
344.25	142.68
344.462	38.23
344.674	68.95
344.886	15.7
345.099	64.85
345.311	1.37
345.523	-37.55
345.735	60.76
345.947	50.52
346.159	87.38
346.371	42.32
346.583	111.96
346.795	87.38
347.007	101.72
347.219	99.67
347.431	-55.98
347.643	-4.78
347.855	17.75
348.067	140.63
348.279	-23.21
348.491	66.9
348.703	62.8
348.915	21.84
349.127	52.56
349.339	34.13
349.551	116.05
349.763	27.99
349.975	17.75
350.187	60.76
350.399	60.76
350.61	111.96
350.822	11.61
351.034	54.61
351.246	52.56
351.458	73.04
351.669	77.14
351.881	87.38
352.093	54.61
352.305	109.91
352.517	71
352.728	21.84
352.94	34.13
353.152	62.8
353.363	50.52
353.575	79.19
353.787	56.66
353.999	13.65
354.21	54.61
354.422	23.89
354.633	50.52
354.845	62.8
355.057	103.76
355.268	87.38
355.48	116.05
355.692	66.9
355.903	83.28
356.115	62.8
356.326	13.65
356.538	97.62
356.749	50.52
356.961	116.05
357.172	81.24
357.384	91.48
357.595	44.37
357.807	85.33
358.018	81.24
358.23	111.96
358.441	21.84
358.653	91.48
358.864	-10.92
359.075	89.43
359.287	93.52
359.498	46.42
359.709	7.51
359.921	42.32
360.132	81.24
360.344	15.7
360.555	21.84
360.766	27.99
360.977	-4.78
361.189	75.09
361.4	5.46
361.611	105.81
361.823	114
362.034	42.32
362.245	-41.64
362.456	17.75
362.667	71
362.879	54.61
363.09	71
363.301	54.61
363.512	-43.69
363.723	11.61
363.935	38.23
364.146	114
364.357	17.75
364.568	7.51
364.779	-23.21
364.99	23.89
365.201	142.68
365.412	87.38
365.623	32.08
365.834	122.2
366.045	118.1
366.256	68.95
366.467	-25.26
366.678	34.13
366.889	3.41
367.1	-2.73
367.311	68.95
367.522	105.81
367.733	89.43
367.944	75.09
368.155	66.9
368.366	17.75
368.577	144.72
368.788	38.23
368.999	77.14
369.209	81.24
369.42	120.15
369.631	40.28
369.842	101.72
370.053	21.84
370.264	81.24
370.474	75.09
370.685	19.8
370.896	9.56
371.107	87.38
371.317	48.47
371.528	64.85
371.739	103.76
371.95	56.66
372.16	58.71
372.371	68.95
372.582	21.84
372.792	38.23
373.003	75.09
373.214	17.75
373.424	64.85
373.635	54.61
373.846	30.04
374.056	111.96
374.267	34.13
374.477	116.05
374.688	54.61
374.898	103.76
375.109	50.52
375.319	34.13
375.53	165.2
375.74	114
375.951	62.8
376.161	146.77
376.372	175.44
376.582	66.9
376.793	64.85
377.003	48.47
377.214	93.52
377.424	97.62
377.635	101.72
377.845	64.85
378.055	66.9
378.266	19.8
378.476	44.37
378.686	21.84
378.897	87.38
379.107	52.56
379.317	66.9
379.528	46.42
379.738	75.09
379.948	25.94
380.158	79.19
380.369	97.62
380.579	68.95
380.789	97.62
380.999	81.24
381.21	73.04
381.42	120.15
381.63	107.86
381.84	34.13
382.05	107.86
382.261	75.09
382.471	48.47
382.681	68.95
382.891	60.76
383.101	91.48
383.311	64.85
383.521	9.56
383.731	128.34
383.941	75.09
384.151	159.06
384.361	87.38
384.571	64.85
384.781	107.86
384.991	91.48
385.201	118.1
385.411	48.47
385.621	73.04
385.831	152.91
386.041	99.67
386.251	48.47
386.461	140.63
386.671	32.08
386.881	25.94
387.091	68.95
387.301	85.33
387.511	130.39
387.72	44.37
387.93	60.76
388.14	-12.97
388.35	62.8
388.56	75.09
388.769	99.67
388.979	118.1
389.189	73.04
389.399	21.84
389.609	44.37
389.818	89.43
390.028	83.28
390.238	25.94
390.447	114
390.657	118.1
390.867	128.34
391.076	52.56
391.286	79.19
391.496	60.76
391.705	105.81
391.915	122.2
392.125	77.14
392.334	64.85
392.544	54.61
392.753	116.05
392.963	83.28
393.172	44.37
393.382	46.42
393.591	105.81
393.801	68.95
394.01	124.24
394.22	54.61
394.429	91.48
394.639	71
394.848	124.24
395.058	126.29
395.267	138.58
395.477	79.19
395.686	161.11
395.895	130.39
396.105	114
396.314	136.53
396.524	105.81
396.733	152.91
396.942	97.62
397.152	34.13
397.361	126.29
397.57	163.15
397.78	116.05
397.989	154.96
398.198	165.2
398.407	177.49
398.617	122.2
398.826	116.05
399.035	191.83
399.244	71
399.453	136.53
399.663	114
399.872	120.15
400.081	177.49
400.29	122.2
400.499	101.72
400.708	167.25
400.917	97.62
401.127	128.34
401.336	107.86
401.545	238.93
401.754	218.45
401.963	103.76
402.172	144.72
402.381	159.06
402.59	111.96
402.799	195.92
403.008	181.59
403.217	171.35
403.426	175.44
403.635	150.87
403.844	195.92
404.053	195.92
404.262	234.83
404.471	261.46
404.68	167.25
404.888	234.83
405.097	197.97
405.306	150.87
405.515	202.07
405.724	247.12
405.933	300.37
406.142	243.03
406.35	255.31
406.559	273.75
406.768	247.12
406.977	220.5
407.185	253.27
407.394	300.37
407.603	275.79
407.812	218.45
408.02	333.14
408.229	367.95
408.438	249.17
408.646	367.95
408.855	324.94
409.064	273.75
409.272	304.46
409.481	339.28
409.69	265.55
409.898	361.81
410.107	464.21
410.315	503.12
410.524	367.95
410.733	492.88
410.941	423.25
411.15	554.32
411.358	525.65
411.567	599.37
411.775	531.79
411.984	619.85
412.192	656.72
412.401	605.52
412.609	558.41
412.818	693.58
413.026	587.08
413.234	658.76
413.443	748.87
413.651	679.24
413.86	795.98
414.068	775.5
414.276	879.94
414.485	812.36
414.693	881.99
414.901	978.25
415.11	898.38
415.318	961.86
415.526	1041.73
415.734	992.58
415.943	1082.69
416.151	1189.19
416.359	1109.32
416.567	1166.66
416.776	1250.63
416.984	1291.59
417.192	1373.5
417.4	1375.55
417.608	1391.94
417.817	1518.91
418.025	1543.49
418.233	1664.32
418.441	1627.45
418.649	1551.68
418.857	1779
419.065	1838.39
419.273	1785.15
419.481	1897.78
419.689	2039.09
419.897	2016.57
420.105	2047.29
420.313	2202.93
420.521	2153.78
420.729	2254.13
420.937	2360.63
421.145	2329.91
421.353	2637.1
421.561	2573.61
421.769	2747.69
421.977	2891.05
422.185	2848.04
422.393	2999.59
422.601	3196.2
422.809	3126.57
423.017	3185.96
423.224	3323.17
423.432	3290.4
423.64	3474.72
423.848	3710.24
424.056	3786.01
424.263	3970.33
424.471	3935.51
424.679	4113.69
424.887	4255
425.094	4367.63
425.302	4289.81
425.51	4664.59
425.718	4785.42
425.925	4730.13
426.133	5025.03
426.341	5285.12
426.548	5522.69
426.756	5504.26
426.964	5369.09
427.171	5776.64
427.379	6030.59
427.586	6055.16
427.794	6182.13
428.001	6632.69
428.209	6907.12
428.417	6745.33
428.624	7199.98
428.832	7183.59
429.039	7212.26
429.247	7181.54
429.454	8058.07
429.662	8363.22
429.869	7718.11
430.076	8533.2
430.284	8119.51
430.491	8672.47
430.699	9051.34
430.906	8889.55
431.114	9186.51
431.321	9589.95
431.528	9768.13
431.736	10163.39
431.943	10775.73
432.15	10593.46
432.358	10681.52
432.565	11158.7
432.772	11203.75
432.979	11617.44
433.187	11932.83
433.394	12037.28
433.601	12807.31
433.808	12999.82
434.016	12985.49
434.223	13290.63
434.43	14109.82
434.637	13753.48
434.844	14664.82
435.052	15064.18
435.259	14834.8
435.466	14871.67
435.673	14890.1
435.88	15778.92
436.087	16727.13
436.294	16643.16
436.501	16299.1
436.708	16886.87
436.915	17243.21
437.122	18072.64
437.329	18127.94
437.537	18543.67
437.743	18656.31
437.95	18578.49
438.157	19436.59
438.364	20390.94
438.571	20141.09
438.778	20132.9
438.985	21916.68
439.192	21523.47
439.399	22133.76
439.606	21617.68
439.813	22905.85
440.02	24275.94
440.227	23636.97
440.433	23485.42
440.64	24450.02
440.847	24200.16
441.054	24697.82
441.261	26205.13
441.467	26061.77
441.674	26842.04
441.881	27444.15
442.088	27558.83
442.294	27130.81
442.501	28005.29
442.708	28644.26
442.914	29709.2
443.121	30823.29
443.328	30065.55
443.534	32392.04
443.741	31216.5
443.948	30751.62
444.154	33209.18
444.361	32777.06
444.568	33252.19
444.774	33330.01
444.981	33348.44
445.187	34603.85
445.394	35855.15
445.6	35550.01
445.807	38886.15
446.013	37384.99
446.22	37776.15
446.426	38824.71
446.633	39607.03
446.839	41269.98
447.046	39117.57
447.252	41728.73
447.459	41491.16
447.665	41095.91
447.871	43064
448.078	44862.12
448.284	42965.7
448.491	44163.76
448.697	45812.38
448.903	46113.43
449.11	46394
449.316	45451.94
449.522	46527.12
449.728	47460.99
449.935	47831.68
450.141	47745.66
450.347	49171.05
450.553	47669.89
450.76	48083.58
450.966	49795.68
451.172	49252.97
451.378	50580.05
451.584	49441.38
451.791	50485.84
451.997	50340.44
452.203	51337.8
452.409	51436.1
452.615	51180.1
452.821	49435.23
453.027	48851.56
453.233	51450.44
453.44	49719.9
453.646	49621.6
453.852	50000.47
454.058	50674.26
454.264	49025.64
454.47	50518.61
454.676	49109.61
454.882	50592.34
455.088	46432.91
455.294	47446.66
455.5	48106.1
455.705	48175.73
455.911	46355.09
456.117	45380.26
456.323	44683.95
456.529	42842.82
456.735	44307.12
456.941	43532.99
457.147	42828.49
457.352	41358.05
457.558	40950.5
457.764	41208.54
457.97	40289.01
458.176	39590.65
458.381	39475.96
458.587	37458.71
458.793	37389.08
458.999	35474.23
459.204	38279.95
459.41	37339.93
459.616	34624.32
459.821	34845.51
460.027	34558.79
460.233	33966.93
460.438	32312.17
460.644	32777.06
460.85	30868.35
461.055	30806.91
461.261	30497.67
461.466	28289.96
461.672	27378.61
461.878	29623.19
462.083	27620.27
462.289	27012.03
462.494	26651.58
462.7	25547.73
462.905	24806.36
463.111	25678.8
463.316	25922.51
463.522	25347.03
463.727	25347.03
463.932	25326.55
464.138	24984.54
464.343	24978.39
464.549	24046.57
464.754	25197.52
464.959	24792.03
465.165	24593.37
465.37	23712.75
465.575	22998.01
465.781	24175.59
465.986	24001.51
466.191	23335.92
466.397	22901.75
466.602	21740.55
466.807	22479.87
467.012	22404.1
467.218	22354.94
467.423	22242.31
467.628	22154.24
467.833	23116.79
468.038	22135.81
468.244	21269.52
468.449	22670.33
468.654	21838.86
468.859	21525.52
469.064	21429.26
469.269	20646.94
469.474	20763.67
469.679	21533.71
469.885	20667.42
470.09	20988.95
470.295	20747.29
470.5	20304.93
470.705	20691.99
470.91	20007.97
471.115	19600.43
471.32	20124.71
471.525	19850.28
471.73	19385.39
471.935	19647.53
472.139	18639.93
472.344	18977.84
472.549	18676.79
472.754	18639.93
472.959	18039.87
473.164	17736.77
473.369	17646.66
473.574	18398.27
473.778	17957.96
473.983	18021.44
474.188	17863.75
474.393	16911.44
474.598	17345.61
474.802	16931.92
475.007	16710.74
475.212	16874.58
475.417	16149.6
475.621	16174.17
475.826	16364.64
476.031	15826.02
476.235	15717.48
476.44	16036.96
476.645	15539.3
476.849	15760.48
477.054	15543.4
477.259	15385.71
477.463	15246.44
477.668	14558.33
477.872	15023.22
478.077	14648.44
478.282	14417.02
478.486	14238.84
478.691	14062.72
478.895	14259.32
479.1	14023.81
479.304	13898.88
479.509	13573.25
479.713	13816.96
479.918	13724.8
480.122	13489.29
480.326	13429.9
480.531	13702.28
480.735	13388.94
480.94	13329.55
481.144	13739.14
481.348	13194.38
481.553	13241.48
481.757	13091.98
481.961	13044.88
482.166	13356.17
482.37	13075.6
482.574	13018.25
482.778	12878.99
482.983	13358.22
483.187	13003.92
483.391	13221
483.595	12979.34
483.8	12692.63
484.004	12917.9
484.208	13505.67
484.412	12883.09
484.616	12991.63
484.821	13065.36
485.025	12858.51
485.229	12932.24
485.433	12969.1
485.637	13249.68
485.841	12979.34
486.045	12805.27
486.249	12774.55
486.453	12725.4
486.657	12811.41
486.861	12979.34
487.065	12657.81
487.269	13085.84
487.473	12592.28
487.677	12999.82
487.881	13104.27
488.085	13020.3
488.289	12940.43
488.493	12831.89
488.697	12979.34
488.901	13065.36
489.105	12956.82
489.309	13208.72
489.512	13055.12
489.716	13032.59
489.92	12975.25
490.124	13030.54
490.328	13290.63
490.531	13055.12
490.735	13300.87
490.939	13153.42
491.143	13247.63
491.346	13356.17
491.55	13350.03
491.754	13790.34
491.958	13712.52
492.161	13507.72
492.365	13663.36
492.569	13610.12
492.772	13380.75
492.976	13675.65
493.18	13909.12
493.383	13962.37
493.587	14075.01
493.79	14163.07
493.994	13857.92
494.197	13902.98
494.401	14486.65
494.605	14302.33
494.808	14425.21
495.012	14539.9
495.215	14656.63
495.419	14664.82
495.622	14722.16
495.825	14963.82
496.029	14926.96
496.232	15072.37
496.436	15418.47
496.639	15684.71
496.843	15494.25
497.046	15764.58
497.249	16020.58
497.453	15866.98
497.656	16184.41
497.859	16317.53
498.063	16432.22
498.266	16704.6
498.469	16673.88
498.673	16817.24
498.876	16942.16
499.079	17259.6
499.282	17032.27
499.485	17837.13
499.689	17830.98
499.892	17992.77
500.095	17906.76
500.298	18316.35
500.501	18357.31
500.705	18543.67
500.908	18836.53
501.111	18918.45
501.314	19262.51
501.517	19455.02
501.72	19692.58
501.923	19715.11
502.126	20040.74
502.329	20294.69
502.532	20386.85
502.735	20341.79
502.938	20821.02
503.141	21054.48
503.344	21322.77
503.547	21427.21
503.75	21801.99
503.953	22072.32
504.156	22365.18
504.359	22438.91
504.562	22551.55
504.765	22940.66
504.968	23092.21
505.17	23122.93
505.373	23319.54
505.576	23827.43
505.779	23948.26
505.982	24161.25
506.185	24689.63
506.387	24722.4
506.59	25220.05
506.793	25326.55
506.996	25244.63
507.198	26117.06
507.401	25730
507.604	25873.35
507.807	26805.18
508.009	27016.12
508.212	27272.12
508.415	27542.45
508.617	27700.14
508.82	27773.87
509.022	27618.22
509.225	28357.54
509.428	28365.73
509.63	28634.02
509.833	28711.84
510.035	29387.67
510.238	29510.55
510.44	29668.24
510.643	30073.74
510.845	30034.83
511.048	30374.79
511.25	30692.22
511.453	31241.08
511.655	31968.11
511.858	31597.43
512.06	32117.61
512.262	32213.87
512.465	32375.66
512.667	33106.78
512.87	33262.43
513.072	33160.03
513.274	33872.72
513.477	33905.49
513.679	34179.92
513.881	34812.74
514.084	34911.04
514.286	34720.58
514.488	35136.32
514.69	35748.66
514.893	36006.7
515.095	36078.38
515.297	36627.24
515.499	36776.74
515.701	36829.99
515.904	37614.36
516.106	37501.72
516.308	38091.54
516.51	38234.89
516.712	38267.66
516.914	38914.82
517.116	39414.52
517.318	39127.81
517.52	39234.3
517.722	39512.83
517.925	39987.96
518.127	40579.82
518.329	41097.95
518.531	40950.5
518.733	41540.32
518.935	41343.71
519.136	41644.76
519.338	42255.06
519.54	42543.82
519.742	42658.51
519.944	42746.57
520.146	43606.72
520.348	43711.16
520.55	44030.65
520.752	44343.98
520.954	44534.45
521.155	44352.18
521.357	44868.26
521.559	45347.49
521.761	45697.69
521.963	45826.71
522.164	45775.51
522.366	45890.2
522.568	46414.48
522.77	46670.48
522.971	47350.4
523.173	46832.27
523.375	47383.17
523.576	47407.75
523.778	47012.49
523.98	47882.87
524.181	48167.54
524.383	47796.86
524.584	48751.21
524.786	48777.84
524.988	48568.94
525.189	48910.95
525.391	49345.12
525.592	49830.49
525.794	49807.97
525.995	49418.85
526.197	49795.68
526.398	50149.98
526.6	49994.33
526.801	50360.92
527.003	50756.17
527.204	50489.94
527.406	50799.18
527.607	50928.2
527.808	51702.34
528.01	50324.05
528.211	51231.3
528.412	52007.48
528.614	51489.35
528.815	51894.85
529.016	52142.65
529.218	51481.16
529.419	51485.25
529.62	51460.68
529.822	51739.2
530.023	52173.37
530.224	51810.88
530.425	51907.13
530.626	51810.88
530.828	51550.79
531.029	52914.73
531.23	52107.83
531.431	52247.1
531.632	52449.84
531.833	52283.96
532.035	52425.27
532.236	52390.45
532.437	52800.05
532.638	52091.45
532.839	52650.55
533.04	52691.51
533.241	52193.85
533.442	53111.34
533.643	52947.5
533.844	52720.18
534.045	52961.84
534.246	52251.19
534.447	52984.36
534.648	52740.66
534.849	52560.44
535.05	52458.04
535.251	52650.55
535.451	52099.64
535.652	52902.45
535.853	52728.37
536.054	52963.89
536.255	52974.12
536.456	52468.28
536.657	53041.71
536.857	52177.47
537.058	52259.38
537.259	52455.99
537.46	52630.07
537.66	51997.24
537.861	52691.51
538.062	52494.9
538.263	52697.65
538.463	52705.84
538.664	52107.83
538.865	52574.77
539.065	52947.5
539.266	51968.57
539.466	52632.11
539.667	51896.89
539.868	53121.58
540.068	52181.56
540.269	52208.18
540.469	52574.77
540.67	51968.57
540.87	52286.01
541.071	52417.08
541.271	52726.32
541.472	51749.44
541.672	52032.06
541.873	52292.15
542.073	51958.33
542.274	52578.87
542.474	52275.77
542.675	51999.29
542.875	52402.74
543.075	52302.39
543.276	51681.86
543.476	52490.8
543.676	51896.89
543.877	52398.65
544.077	51966.52
544.277	51880.51
544.478	51814.97
544.678	52484.66
544.878	51778.11
545.078	51870.27
545.279	51743.3
545.479	51829.31
545.679	52220.47
545.879	51644.99
546.079	51939.9
546.28	51511.88
546.48	51364.42
546.68	52009.53
546.88	52005.44
547.08	51710.53
547.28	51495.49
547.48	51378.76
547.68	51614.27
547.88	51534.4
548.081	52013.63
548.281	51970.62
548.481	51583.55
548.681	51972.67
548.881	51972.67
549.081	51804.73
549.28	51440.2
549.48	51931.71
549.68	51389
549.88	52019.77
550.08	51028.55
550.28	51391.05
550.48	51202.63
550.68	51778.11
550.88	51171.91
551.08	51257.93
551.279	51264.07
551.479	51178.06
551.679	51339.85
551.879	50864.72
552.079	51712.58
552.278	51192.39
552.478	50936.4
552.678	51599.94
552.878	51282.5
553.077	51006.03
553.277	50983.5
553.477	51839.55
553.676	50860.62
553.876	51044.94
554.076	51059.27
554.275	50893.39
554.475	50936.4
554.674	51102.28
554.874	51223.11
555.074	50836.05
555.273	50960.97
555.473	50664.02
555.672	50625.1
555.872	50772.56
556.071	50799.18
556.271	51149.38
556.47	50575.95
556.67	50416.21
556.869	50393.68
557.068	50731.6
557.268	50516.56
557.467	50137.69
557.667	50088.54
557.866	50563.67
558.065	50338.39
558.265	50154.07
558.464	50137.69
558.663	50649.68
558.863	49558.11
559.062	50508.37
559.261	50192.98
559.461	50162.26
559.66	49902.17
559.859	49531.49
560.058	49605.22
560.258	49668.7
560.457	49478.24
560.656	50059.87
560.855	48986.73
561.054	50027.1
561.253	49474.15
561.453	49797.73
561.652	49584.74
561.851	49494.63
562.05	49535.59
562.249	49033.83
562.448	49343.08
562.647	49461.86
562.846	49388.13
563.045	49306.21
563.244	48622.19
563.443	49705.57
563.642	48540.27
563.841	49052.26
564.04	48706.16
564.239	49379.94
564.438	48413.3
564.637	48505.46
564.836	48847.47
565.035	48235.13
565.234	48484.98
565.432	48151.16
565.631	48153.21
565.83	48216.69
566.029	48200.31
566.228	48028.28
566.427	47788.67
566.625	48056.95
566.824	47266.44
567.023	48233.08
567.222	46932.62
567.42	47839.87
567.619	47643.26
567.818	47549.06
568.016	47014.54
568.215	47766.14
568.414	47272.58
568.612	47811.2
568.811	47217.28
569.01	47237.76
569.208	46486.16
569.407	47338.11
569.605	46531.22
569.804	47137.41
570.002	46551.69
570.201	46832.27
570.4	46510.74
570.598	46140.05
570.797	46369.43
570.995	46426.77
571.193	46070.42
571.392	46584.46
571.59	46594.7
571.789	46422.67
571.987	46242.45
572.186	45836.95
572.384	45759.13
572.582	46203.54
572.781	45802.14
572.979	45232.8
573.177	45933.21
573.376	45841.05
573.574	45353.63
573.772	45529.76
573.971	45095.59
574.169	44997.29
574.367	44858.02
574.565	45378.21
574.763	44958.38
574.962	44817.07
575.16	44538.54
575.358	45218.47
575.556	44161.72
575.754	45050.53
575.952	44200.63
576.151	44442.29
576.349	44153.52
576.547	44069.56
576.745	44178.1
576.943	44380.85
577.141	43928.25
577.339	43827.9
577.537	44014.26
577.735	44020.41
577.933	43494.08
578.131	43891.38
578.329	43403.97
578.527	42932.93
578.725	43397.82
578.923	43588.28
579.121	42838.73
579.319	42871.5
579.516	42990.28
579.714	43043.52
579.912	42853.06
580.11	42584.78
580.308	43125.44
580.506	42359.5
580.704	42236.62
580.901	42556.11
581.099	43131.59
581.297	42056.4
581.495	42029.78
581.692	42171.09
581.89	41327.33
582.088	42085.08
582.285	41671.39
582.483	41491.16
582.681	41786.07
582.878	41585.37
583.076	41069.28
583.274	41607.9
583.471	40522.47
583.669	41315.04
583.866	40805.09
584.064	41192.16
584.262	40616.68
584.459	41126.63
584.657	40596.2
584.854	40841.96
585.052	39963.38
585.249	40538.86
585.447	40360.69
585.644	39996.15
585.841	39805.69
586.039	40190.7
586.236	39641.85
586.434	40006.39
586.631	39541.5
586.828	39783.16
587.026	39811.83
587.223	39568.12
587.42	39144.19
587.618	39469.82
587.815	38830.85
588.012	39215.87
588.21	39054.08
588.407	39160.58
588.604	38763.27
588.801	38705.93
588.999	38560.52
589.196	38343.44
589.393	38640.39
589.59	38116.11
589.787	38087.44
589.984	38032.14
590.182	37888.79
590.379	38339.34
590.576	37753.62
590.773	37794.58
590.97	37397.27
591.167	37745.43
591.364	37509.91
591.561	37372.7
591.758	36997.92
591.955	36987.68
592.152	37473.05
592.349	36637.48
592.546	36893.47
592.743	36424.49
592.94	36371.24
593.137	36754.21
593.334	36426.54
593.531	36072.24
593.727	36303.66
593.924	36301.61
594.121	35828.53
594.318	36311.85
594.515	35531.58
594.712	35806
594.908	35463.99
595.105	35564.34
595.302	35248.96
595.499	35576.63
595.696	34962.24
595.892	35265.34
596.089	35240.76
596.286	35042.11
596.482	35070.78
596.679	35029.82
596.876	35091.26
597.072	34339.66
597.269	34777.92
597.466	34018.13
597.662	34370.38
597.859	34196.3
598.055	34165.58
598.252	33338.2
598.448	33985.36
598.645	33835.86
598.841	33540.95
599.038	33631.06
599.234	33676.12
599.431	33282.91
599.627	33250.14
599.824	33375.06
600.02	33076.06
600.217	33235.8
600.413	32797.54
600.609	32930.65
600.806	32455.53
601.002	33057.63
601.198	32602.98
601.395	32983.9
601.591	32228.2
601.787	32394.09
601.984	32179.05
602.18	32377.7
602.376	31865.71
602.572	31808.37
602.769	32297.83
602.965	31615.86
603.161	31814.51
603.357	31726.45
603.553	31601.52
603.75	31478.64
603.946	31325.05
604.142	31505.27
604.338	31126.39
604.534	31243.13
604.73	30733.18
604.926	30729.09
605.122	30778.24
605.318	30845.82
605.514	30356.36
605.71	30622.59
605.906	30233.48
606.102	30567.3
606.298	30241.67
606.494	30372.74
606.69	30313.35
606.886	30804.86
607.082	30264.2
607.278	29930.38
607.474	29875.09
607.67	29989.77
607.866	29815.69
608.062	29936.52
608.257	29705.1
608.453	29877.13
608.649	29784.97
608.845	29559.7
609.041	29614.99
609.236	29926.28
609.432	29381.53
609.628	29514.64
609.824	29182.87
610.019	29000.6
610.215	29137.82
610.411	29246.36
610.606	28879.77
610.802	29012.89
610.998	28957.6
611.193	28890.01
611.389	28605.34
611.584	28713.89
611.78	28693.41
611.976	28742.56
612.171	28550.05
612.367	28441.51
612.562	28664.74
612.758	28138.41
612.953	28335.01
613.149	28572.58
613.344	28314.53
613.539	28910.49
613.735	28261.29
613.93	28386.21
614.126	27880.36
614.321	28541.86
614.517	28136.36
614.712	28226.47
614.907	27941.8
615.103	28138.41
615.298	27962.28
615.493	28265.38
615.688	27509.68
615.884	28050.35
616.079	27462.58
616.274	27597.74
616.47	27591.6
616.665	27734.96
616.86	27397.04
617.055	27358.13
617.25	26966.97
617.445	27442.1
617.641	26971.07
617.836	27235.25
618.031	26846.14
618.226	27059.13
618.421	26835.9
618.616	27302.84
618.811	26497.99
619.006	27077.56
619.201	26655.68
619.396	26649.53
619.591	26420.16
619.786	26276.8
619.981	25942.99
620.176	26389.44
620.371	25652.17
620.566	25854.92
620.761	26123.21
620.956	25811.92
621.151	25281.49
621.346	25607.12
621.541	25408.47
621.735	25439.19
621.93	24699.87
622.125	25070.55
622.32	24796.12
622.515	25062.36
622.709	24554.46
622.904	24445.92
623.099	24693.72
623.294	24257.51
623.488	23849.96
623.683	24185.83
623.878	23884.78
624.072	23749.61
624.267	23739.37
624.462	23688.17
624.656	23368.69
624.851	23282.67
625.046	23366.64
625.24	23114.74
625.435	22967.29
625.629	22952.95
625.824	22776.83
626.018	22641.66
626.213	22217.73
626.407	22586.36
626.602	22017.03
626.796	21988.36
626.991	22045.7
627.185	21660.68
627.38	21865.48
627.574	21599.24
627.768	21349.39
627.963	21187.6
628.157	21228.56
628.352	21181.46
628.546	21132.31
628.74	21146.64
628.935	20755.48
629.129	20898.84
629.323	20571.16
629.517	20524.06
629.712	20757.53
629.906	20206.62
630.1	20208.67
630.294	20020.26
630.489	19975.2
630.683	19948.58
630.877	19524.65
631.071	19770.41
631.265	19868.71
631.459	19629.1
631.653	19487.79
631.848	19393.58
632.042	19233.84
632.236	19381.29
632.43	18795.57
632.624	18924.6
632.818	19164.21
633.012	18816.05
633.206	18715.7
633.4	18562.11
633.594	18015.3
633.788	18455.61
633.982	18349.12
634.176	18293.82
634.369	18080.83
634.563	17925.19
634.757	17935.43
634.951	17685.58
635.145	17699.91
635.339	17796.17
635.533	17536.07
635.726	17597.51
635.92	17495.11
636.114	17396.81
636.308	17183.82
636.501	17235.02
636.695	17022.03
636.889	16985.17
637.083	16655.45
637.276	16776.28
637.47	16616.54
637.664	16507.99
637.857	16292.96
638.051	16393.31
638.244	16297.05
638.438	16335.96
638.632	16352.35
638.825	16172.13
639.019	16006.24
639.212	15928.42
639.406	15729.77
639.599	16030.82
639.793	15879.27
639.986	15602.79
640.18	15469.67
640.373	15434.86
640.567	15244.4
640.76	15656.04
640.954	15221.87
641.147	15162.48
641.34	15117.42
641.534	15015.02
641.727	14929.01
641.92	14877.81
642.114	14550.14
642.307	14699.64
642.5	14564.47
642.694	14587
642.887	14316.67
643.08	14679.16
643.273	14490.74
643.467	14316.67
643.66	14118.01
643.853	14124.16
644.046	13935.74
644.239	14103.68
644.432	14038.14
644.626	13974.66
644.819	13728.9
645.012	13837.44
645.205	13577.35
645.398	13653.12
645.591	13616.26
645.784	13456.52
645.977	13202.57
646.17	13212.81
646.363	13302.92
646.556	13153.42
646.749	13053.07
646.942	13005.97
647.135	12907.66
647.328	12965.01
647.521	12573.85
647.714	12549.27
647.907	12782.74
648.099	12553.37
648.292	12850.32
648.485	12702.87
648.678	12252.31
648.871	12323.99
649.064	12287.13
649.256	12272.79
649.449	12029.09
649.642	11680.93
649.835	12039.33
650.027	11871.39
650.22	11742.37
650.413	11861.15
650.605	11771.04
650.798	11707.55
650.991	11576.48
651.183	11406.5
651.376	11771.04
651.568	11459.75
651.761	11392.17
651.954	11232.43
652.146	11416.74
652.339	11244.71
652.531	11377.83
652.724	11064.49
652.916	10845.36
653.109	11007.15
653.301	11072.68
653.494	10927.28
653.686	10622.13
653.879	10976.43
654.071	10722.48
654.263	10630.32
654.456	10570.93
654.648	10589.36
654.84	10491.06
655.033	10411.19
655.225	10376.38
655.417	10495.16
655.61	10468.53
655.802	10163.39
655.994	10157.24
656.186	10294.46
656.379	10327.22
656.571	10120.38
656.763	9858.24
656.955	9983.16
657.148	9974.97
657.34	9780.42
657.532	9626.82
657.724	9706.69
657.916	9774.27
658.108	9630.91
658.3	9602.24
658.492	9698.5
658.684	9413.83
658.876	9295.05
659.068	9503.94
659.26	9356.49
659.452	9321.67
659.644	9327.81
659.836	9034.96
660.028	9288.9
660.22	9147.59
660.412	9086.15
660.604	8815.82
660.796	9012.43
660.988	9090.25
661.18	8826.06
661.372	8934.6
661.563	8824.01
661.755	8553.68
661.947	8803.53
662.139	8543.44
662.331	8725.71
662.522	8383.7
662.714	8563.92
662.906	8463.57
663.097	8303.83
663.289	8498.39
663.481	8189.14
663.673	8359.13
663.864	8146.14
664.056	8152.28
664.247	8309.97
664.439	8146.14
664.631	8051.93
664.822	8039.64
665.014	8041.69
665.205	7884
665.397	8013.02
665.588	7910.62
665.78	7789.79
665.971	7718.11
666.163	7836.89
666.354	7709.92
666.546	7562.47
666.737	7554.27
666.929	7732.45
667.12	7615.71
667.311	7558.37
667.503	7451.88
667.694	7466.21
667.885	7376.1
668.077	7415.01
668.268	7353.57
668.459	7406.82
668.651	7316.71
668.842	7185.64
669.033	7040.23
669.224	7128.3
669.416	7193.83
669.607	7111.91
669.798	7068.91
669.989	7019.75
670.18	7019.75
670.371	6948.08
670.563	6802.67
670.754	6993.13
670.945	6708.46
671.136	6868.2
671.327	6786.29
671.518	6679.79
671.709	6894.83
671.9	6860.01
672.091	6735.09
672.282	6520.05
672.473	6571.25
672.664	6526.19
672.855	6610.16
673.046	6659.31
673.237	6505.71
673.428	6538.48
673.619	6591.73
673.809	6575.34
674	6325.49
674.191	6472.95
674.382	6331.64
674.573	6356.21
674.764	6163.7
674.954	6333.68
675.145	6276.34
675.336	6239.48
675.527	6051.06
675.717	6309.11
675.908	6173.94
676.099	6157.56
676.289	6071.54
676.48	5897.47
676.671	6221.05
676.861	6040.83
677.052	6018.3
677.243	5946.62
677.433	5860.6
677.624	5889.28
677.814	6014.2
678.005	5854.46
678.195	5864.7
678.386	5942.52
678.576	5797.12
678.767	5909.76
678.957	5850.36
679.148	5876.99
679.338	5772.54
679.529	5717.25
679.719	5799.16
679.909	5795.07
680.1	5788.92
680.29	5645.57
680.481	5582.08
680.671	5698.81
680.861	5594.37
681.052	5616.9
681.242	5637.38
681.432	5606.66
681.622	5473.54
681.813	5444.87
682.003	5506.31
682.193	5541.12
682.383	5430.53
682.573	5428.48
682.764	5326.08
682.954	5440.77
683.144	5516.55
683.334	5377.28
683.524	5330.18
683.714	5485.83
683.904	5278.98
684.094	5238.02
684.284	5352.71
684.474	5266.69
684.664	5250.31
684.854	5367.04
685.044	5113.1
685.234	5192.97
685.424	5162.25
685.614	5197.06
685.804	5068.04
685.994	5004.55
686.184	5065.99
686.374	5031.18
686.564	5053.7
686.753	5063.94
686.943	5020.94
687.133	5004.55
687.323	4922.63
687.513	4918.54
687.702	4896.01
687.892	4750.6
688.082	4803.85
688.272	4971.79
688.461	4787.47
688.651	4648.21
688.841	4732.17
689.03	4842.76
689.22	4674.83
689.41	4558.1
689.599	4523.28
689.789	4691.21
689.979	4592.91
690.168	4549.9
690.358	4474.13
690.547	4478.22
690.737	4488.46
690.926	4500.75
691.116	4422.93
691.305	4445.46
691.495	4371.73
691.684	4353.3
691.874	4269.33
692.063	4336.92
692.252	4242.71
692.442	4322.58
692.631	4164.89
692.82	4232.47
693.01	4150.55
693.199	4134.17
693.388	4093.21
693.578	4101.4
693.767	4220.18
693.956	4080.92
694.146	4025.62
694.335	3908.89
694.524	3894.55
694.713	4017.43
694.902	3869.98
695.092	3818.78
695.281	3996.95
695.47	3857.69
695.659	3845.4
695.848	3796.25
696.037	3765.53
696.226	3904.79
696.415	3812.64
696.604	3710.24
696.793	3743
696.982	3781.92
697.171	3767.58
697.36	3648.8
697.549	3663.13
697.738	3681.57
697.927	3554.59
698.116	3624.22
698.305	3671.33
698.494	3568.93
698.683	3556.64
698.872	3685.66
699.061	3687.71
699.25	3581.21
699.438	3530.02
699.627	3493.15
699.816	3564.83
700.005	3372.32
700.193	3384.61
700.382	3388.71
700.571	3523.87
700.76	3366.18
700.948	3525.92
701.137	3446.05
701.326	3296.55
701.514	3304.74
701.703	3351.84
701.892	3288.36
702.08	3341.6
702.269	3411.23
702.457	3263.78
702.646	3306.79
702.834	3357.99
703.023	3245.35
703.212	3284.26
703.4	3345.7
703.589	3278.12
703.777	3116.33
703.965	3196.2
704.154	3304.74
704.342	3237.16
704.531	3306.79
704.719	3130.66
704.907	3104.04
705.096	3231.01
705.284	3145
705.472	3274.02
705.661	3046.69
705.849	3204.39
706.037	3056.93
706.226	3065.13
706.414	3161.38
706.602	3087.65
706.79	2948.39
706.979	3048.74
707.167	3151.14
707.355	3077.41
707.543	3118.37
707.731	3118.37
707.919	3126.57
708.107	3077.41
708.296	3018.02
708.484	2966.82
708.672	3071.27
708.86	3003.69
709.048	3128.61
709.236	3018.02
709.424	3022.12
709.612	3101.99
709.8	2940.2
709.988	3032.36
710.176	3067.17
710.364	2942.25
710.551	2897.19
710.739	3032.36
710.927	2850.09
711.115	3034.41
711.303	2925.86
711.491	2901.29
711.679	2876.71
711.866	2942.25
712.054	2987.3
712.242	2950.44
712.43	2776.36
712.617	2944.3
712.805	2807.08
712.993	2872.62
713.181	2860.33
713.368	2856.23
713.556	2915.62
713.744	2807.08
713.931	2995.5
714.119	2927.91
714.306	2952.49
714.494	2852.14
714.682	2893.1
714.869	2833.71
715.057	2917.67
715.244	2852.14
715.432	2905.38
715.619	2942.25
715.807	2878.76
715.994	2768.17
716.182	2868.52
716.369	2884.91
716.556	2862.38
716.744	2850.09
716.931	2790.7
717.119	2770.22
717.306	2807.08
717.493	2757.93
717.681	2784.55
717.868	2757.93
718.055	2807.08
718.242	2745.64
718.43	2729.26
718.617	2776.36
718.804	2790.7
718.991	2815.27
719.179	2802.99
719.366	2743.6
719.553	2768.17
719.74	2688.3
719.927	2823.47
720.114	2706.73
720.301	2721.07
720.488	2643.24
720.676	2700.59
720.863	2780.46
721.05	2845.99
721.237	2776.36
721.424	2661.68
721.611	2694.44
721.798	2807.08
721.985	2719.02
722.172	2815.27
722.358	2731.31
722.545	2721.07
722.732	2755.88
722.919	2700.59
723.106	2845.99
723.293	2753.84
723.48	2716.97
723.667	2704.68
723.853	2743.6
724.04	2800.94
724.227	2667.82
724.414	2698.54
724.6	2776.36
724.787	2788.65
724.974	2778.41
725.161	2809.13
725.347	2628.91
725.534	2723.12
725.72	2682.16
725.907	2782.51
726.094	2700.59
726.28	2680.11
726.467	2700.59
726.653	2727.21
726.84	2737.45
727.027	2747.69
727.213	2774.31
727.4	2649.39
727.586	2747.69
727.773	2725.16
727.959	2741.55
728.145	2630.96
728.332	2798.89
728.518	2794.79
728.705	2762.03
728.891	2692.4
729.077	2696.49
729.264	2698.54
729.45	2723.12
729.636	2864.43
729.823	2788.65
730.009	2864.43
730.195	2807.08
730.382	2727.21
730.568	2721.07
730.754	2817.32
730.94	2733.36
731.126	2739.5
731.313	2827.56
731.499	2733.36
731.685	2858.28
731.871	2782.51
732.057	2712.88
732.243	2786.6
732.429	2762.03
732.615	2759.98
732.801	2782.51
732.987	2745.64
733.173	2676.01
733.359	2827.56
733.545	2817.32
733.731	2680.11
733.917	2798.89
734.103	2880.81
734.289	2796.84
734.475	2766.12
734.661	2911.53
734.847	2895.15
735.033	2796.84
735.219	2710.83
735.404	2860.33
735.59	2796.84
735.776	2749.74
735.962	2704.68
736.148	2764.08
736.333	2829.61
736.519	2753.84
736.705	2770.22
736.89	2741.55
737.076	2745.64
737.262	2706.73
737.447	2823.47
737.633	2821.42
737.819	2737.45
738.004	2770.22
738.19	2690.35
738.375	2737.45
738.561	2770.22
738.747	2639.15
738.932	2753.84
739.118	2733.36
739.303	2780.46
739.489	2741.55
739.674	2766.12
739.859	2673.96
740.045	2600.24
740.23	2653.48
740.416	2819.37
740.601	2546.99
740.786	2704.68
740.972	2827.56
741.157	2733.36
741.342	2667.82
741.528	2639.15
741.713	2641.2
741.898	2698.54
742.084	2667.82
742.269	2737.45
742.454	2708.78
742.639	2706.73
742.824	2653.48
743.01	2645.29
743.195	2649.39
743.38	2567.47
743.565	2614.57
743.75	2520.37
743.935	2555.18
744.12	2569.52
744.305	2565.42
744.49	2555.18
744.675	2501.94
744.86	2540.85
745.045	2528.56
745.23	2506.03
745.415	2508.08
745.6	2602.29
745.785	2485.55
745.97	2338.1
746.155	2501.94
746.34	2528.56
746.525	2411.82
746.71	2432.3
746.895	2493.74
747.079	2479.41
747.264	2342.19
747.449	2526.51
747.634	2307.38
747.819	2395.44
748.003	2391.34
748.188	2372.91
748.373	2325.81
748.557	2360.63
748.742	2270.51
748.927	2321.71
749.111	2350.39
749.296	2282.8
749.481	2260.27
749.665	2268.47
749.85	2137.4
750.034	2260.27
750.219	2268.47
750.404	2094.39
750.588	2170.16
750.773	2071.86
750.957	2290.99
751.141	2180.4
751.326	2147.64
751.51	2106.68
751.695	2059.57
751.879	2159.92
752.064	2184.5
752.248	2053.43
752.432	2061.62
752.617	2086.2
752.801	2043.19
752.985	2043.19
753.17	2057.53
753.354	1994.04
753.538	2116.92
753.722	1953.08
753.907	1955.13
754.091	1914.17
754.275	1957.18
754.459	1910.07
754.643	1918.26
754.828	1936.7
755.012	1895.74
755.196	1879.35
755.38	1877.3
755.564	1803.58
755.748	1754.43
755.932	1822.01
756.116	1836.35
756.3	1774.91
756.484	1803.58
756.668	1799.48
756.852	1725.75
757.036	1664.32
757.22	1762.62
757.404	1711.42
757.588	1690.94
757.772	1686.84
757.956	1645.88
758.14	1699.13
758.323	1680.7
758.507	1613.12
758.691	1654.08
758.875	1666.36
759.059	1705.28
759.242	1615.16
759.426	1563.97
759.61	1619.26
759.794	1652.03
759.977	1598.78
760.161	1566.01
760.345	1557.82
760.528	1549.63
760.712	1584.45
760.895	1473.85
761.079	1490.24
761.263	1451.33
761.446	1506.62
761.63	1500.48
761.813	1477.95
761.997	1482.05
762.18	1398.08
762.364	1443.14
762.547	1457.47
762.731	1441.09
762.914	1482.05
763.098	1471.81
763.281	1412.42
763.464	1428.8
763.648	1367.36
763.831	1402.18
764.015	1420.61
764.198	1322.31
764.381	1379.65
764.564	1434.94
764.748	1381.7
764.931	1447.23
765.114	1219.91
765.297	1361.22
765.481	1312.07
765.664	1318.21
765.847	1361.22
766.03	1375.55
766.213	1234.24
766.397	1393.98
766.58	1242.43
766.763	1385.79
766.946	1156.42
767.129	1164.61
767.312	1232.19
767.495	1191.24
767.678	1314.11
767.861	1277.25
768.044	1310.02
768.227	1283.39
768.41	1269.06
768.593	1310.02
768.776	1183.04
768.959	1250.63
769.142	1213.76
769.324	1205.57
769.507	1111.36
769.69	1238.34
769.873	1127.75
770.056	1205.57
770.239	1070.4
770.421	1252.67
770.604	1170.76
770.787	1084.74
770.97	1209.67
771.152	1178.95
771.335	1168.71
771.518	1158.47
771.7	1187.14
771.883	1174.85
772.066	1135.94
772.248	1105.22
772.431	1148.23
772.613	1068.36
772.796	1117.51
772.978	1166.66
773.161	1162.56
773.343	1056.07
773.526	1084.74
773.708	1058.12
773.891	929.1
774.073	1037.64
774.256	1043.78
774.438	943.43
774.621	974.15
774.803	1094.98
774.985	972.1
775.168	933.19
775.35	1045.83
775.532	1004.87
775.715	996.68
775.897	1025.35
776.079	961.86
776.261	955.72
776.444	959.81
776.626	949.57
776.808	988.49
776.99	931.14
777.173	984.39
777.355	941.38
777.537	943.43
777.719	820.55
777.901	808.26
778.083	881.99
778.265	892.23
778.447	976.2
778.629	845.13
778.811	867.66
778.993	869.7
779.175	894.28
779.357	828.74
779.539	761.16
779.721	806.22
779.903	857.42
780.085	771.4
780.267	738.63
780.449	804.17
780.631	728.39
780.812	841.03
780.994	634.19
781.176	750.92
781.358	773.45
781.54	820.55
781.721	757.07
781.903	787.79
782.085	795.98
782.267	775.5
782.448	769.35
782.63	652.62
782.812	630.09
782.993	769.35
783.175	626
783.357	660.81
783.538	673.1
783.72	640.33
783.901	636.24
784.083	675.15
784.264	677.19
784.446	712.01
784.627	615.76
784.809	660.81
784.99	628.04
785.172	630.09
785.353	595.28
785.535	652.62
785.716	505.17
785.897	570.7
786.079	607.56
786.26	578.89
786.441	654.67
786.623	519.5
786.804	531.79
786.985	580.94
787.167	601.42
787.348	552.27
787.529	574.8
787.71	562.51
787.891	638.28
788.073	519.5
788.254	488.78
788.435	640.33
788.616	556.36
788.797	482.64
788.978	527.69
789.159	482.64
789.34	517.45
789.522	519.5
789.703	558.41
789.884	517.45
790.065	484.69
790.246	456.01
790.427	548.17
790.607	562.51
790.788	519.5
790.969	511.31
791.15	425.29
791.331	468.3
791.512	476.49
791.693	351.57
791.874	480.59
792.054	464.21
792.235	431.44
792.416	441.68
792.597	365.9
792.778	453.97
792.958	456.01
793.139	447.82
793.32	460.11
793.5	357.71
793.681	378.19
793.862	410.96
794.042	513.36
794.223	435.53
794.404	365.9
794.584	380.24
794.765	331.09
794.945	318.8
795.126	417.1
795.306	398.67
795.487	398.67
795.667	425.29
795.848	400.72
796.028	415.05
796.209	421.2
796.389	273.75
796.57	324.94
796.75	402.77
796.93	390.48
797.111	353.62
797.291	394.58
797.471	445.77
797.652	357.71
797.832	406.86
798.012	363.86
798.192	378.19
798.373	394.58
798.553	386.38
798.733	382.29
798.913	253.27
799.093	357.71
799.274	361.81
799.454	374.1
799.634	326.99
799.814	413.01
799.994	351.57
800.174	271.7
800.354	341.33
800.534	294.22
800.714	308.56
800.894	290.13
801.074	300.37
801.254	318.8
801.434	339.28
801.614	300.37
801.794	341.33
801.974	703.82
802.154	210.26
802.334	324.94
802.514	283.98
802.693	314.7
802.873	329.04
803.053	286.03
803.233	310.61
803.413	341.33
803.592	277.84
803.772	298.32
803.952	230.74
804.131	324.94
804.311	249.17
804.491	298.32
804.67	204.11
804.85	220.5
805.03	300.37
805.209	275.79
805.389	220.5
805.568	341.33
805.748	322.9
805.928	273.75
806.107	189.78
806.287	296.27
806.466	232.79
806.646	324.94
806.825	273.75
807.004	300.37
807.184	253.27
807.363	374.1
807.543	234.83
807.722	255.31
807.901	288.08
808.081	243.03
808.26	281.94
808.439	218.45
808.619	279.89
808.798	247.12
808.977	277.84
809.156	226.64
809.336	202.07
809.515	263.51
809.694	171.35
809.873	177.49
810.052	191.83
810.231	269.65
810.411	202.07
810.59	208.21
810.769	263.51
810.948	240.98
811.127	204.11
811.306	226.64
811.485	193.87
811.664	283.98
811.843	210.26
812.022	195.92
812.201	236.88
812.38	154.96
812.559	179.54
812.737	185.68
812.916	195.92
813.095	220.5
813.274	210.26
813.453	224.59
813.632	175.44
813.811	228.69
813.989	134.48
814.168	255.31
814.347	247.12
814.526	171.35
814.704	236.88
814.883	210.26
815.062	177.49
815.24	220.5
815.419	230.74
815.598	240.98
815.776	154.96
815.955	185.68
816.133	163.15
816.312	177.49
816.49	210.26
816.669	206.16
816.847	152.91
817.026	140.63
817.204	251.22
817.383	140.63
817.561	177.49
817.74	195.92
817.918	228.69
818.097	286.03
818.275	54.61
818.453	187.73
818.632	154.96
818.81	189.78
818.988	118.1
819.167	144.72
819.345	171.35
819.523	130.39
819.701	181.59
819.879	161.11
820.058	144.72
820.236	175.44
820.414	99.67
820.592	210.26
820.77	193.87
820.948	216.4
821.127	159.06
821.305	130.39
821.483	150.87
821.661	165.2
821.839	136.53
822.017	157.01
822.195	130.39
822.373	150.87
822.551	111.96
822.729	177.49
822.907	189.78
823.085	165.2
823.262	114
823.44	154.96
823.618	171.35
823.796	169.3
823.974	87.38
824.152	132.44
824.329	50.52
824.507	187.73
824.685	87.38
824.863	193.87
825.04	159.06
825.218	169.3
825.396	165.2
825.574	148.82
825.751	116.05
825.929	105.81
826.107	99.67
826.284	120.15
826.462	154.96
826.639	163.15
826.817	165.2
826.994	77.14
827.172	171.35
827.349	165.2
827.527	83.28
827.704	105.81
827.882	138.58
828.059	116.05
828.237	118.1
828.414	154.96
828.591	93.52
828.769	95.57
828.946	128.34
829.124	87.38
829.301	95.57
829.478	114
829.655	128.34
829.833	157.01
830.01	75.09
830.187	101.72
830.364	101.72
830.542	144.72
830.719	193.87
830.896	163.15
831.073	175.44
831.25	77.14
831.427	101.72
831.604	124.24
831.782	140.63
831.959	52.56
832.136	122.2
832.313	85.33
832.49	-2.73
832.667	105.81
832.844	116.05
833.021	138.58
833.198	118.1
833.374	85.33
833.551	85.33
833.728	109.91
833.905	126.29
834.082	124.24
834.259	58.71
834.436	144.72
834.612	99.67
834.789	138.58
834.966	109.91
835.143	152.91
835.319	111.96
835.496	130.39
835.673	118.1
835.85	99.67
836.026	50.52
836.203	197.97
836.38	109.91
836.556	13.65
836.733	138.58
836.909	171.35
837.086	224.59
837.262	52.56
837.439	126.29
837.616	99.67
837.792	25.94
837.968	83.28
838.145	56.66
838.321	111.96
838.498	116.05
838.674	132.44
838.851	148.82
839.027	62.8
839.203	130.39
839.38	87.38
839.556	62.8
839.732	116.05
839.909	103.76
840.085	83.28
840.261	85.33
840.437	75.09
840.614	77.14
840.79	91.48
840.966	54.61
841.142	77.14
841.318	89.43
841.494	85.33
841.671	46.42
841.847	79.19
842.023	46.42
842.199	138.58
842.375	91.48
842.551	93.52
842.727	44.37
842.903	30.04
843.079	42.32
843.255	99.67
843.431	60.76
843.607	64.85
843.783	25.94
843.959	118.1
844.134	97.62
844.31	107.86
844.486	30.04
844.662	89.43
844.838	101.72
845.013	107.86
845.189	75.09
845.365	48.47
845.541	48.47
845.716	175.44
845.892	107.86
846.068	11.61
846.244	15.7
846.419	71
846.595	79.19
846.77	73.04
846.946	17.75
847.122	132.44
847.297	21.84
847.473	68.95
847.648	58.71
847.824	79.19
847.999	60.76
848.175	52.56
848.35	83.28
848.526	30.04
848.701	30.04
848.876	27.99
849.052	64.85
849.227	17.75
849.403	50.52
849.578	58.71
849.753	21.84
849.929	25.94
850.104	-27.31
850.279	101.72
850.454	36.18
850.63	89.43
850.805	103.76
850.98	77.14
851.155	66.9
851.33	114
851.505	21.84
851.681	93.52
851.856	19.8
852.031	11.61
852.206	-10.92
852.381	50.52
852.556	58.71
852.731	17.75
852.906	114
853.081	-41.64
853.256	81.24
853.431	48.47
853.606	46.42
853.781	30.04
853.956	-4.78
854.131	101.72
854.305	54.61
854.48	34.13
854.655	3.41
854.83	79.19
855.005	58.71
855.18	21.84
855.354	52.56
855.529	38.23
855.704	17.75
855.879	81.24
856.053	-2.73
856.228	68.95
856.403	23.89
856.577	101.72
856.752	75.09
856.926	34.13
857.101	23.89
857.276	46.42
857.45	21.84
857.625	79.19
857.799	30.04
857.974	-2.73
858.148	21.84
858.323	101.72
858.497	93.52
858.672	11.61
858.846	60.76
859.02	25.94
859.195	81.24
859.369	-21.16
859.543	-10.92
859.718	9.56
859.892	56.66
860.066	71
860.241	1.37
860.415	25.94
860.589	-0.68
860.763	46.42
860.938	44.37
861.112	3.41
861.286	19.8
861.46	64.85
861.634	25.94
861.808	30.04
861.982	-12.97
862.157	-10.92
862.331	54.61
862.505	13.65
862.679	3.41
862.853	11.61
863.027	13.65
863.201	1.37
863.375	21.84
863.549	-4.78
863.722	79.19
863.896	50.52
864.07	44.37
864.244	15.7
864.418	126.29
864.592	-15.02
864.766	109.91
864.939	27.99
865.113	9.56
865.287	15.7
865.461	32.08
865.634	9.56
865.808	1.37
865.982	42.32
866.156	32.08
866.329	-8.87
866.503	-19.11
866.676	13.65
866.85	15.7
867.024	25.94
867.197	105.81
867.371	-6.83
867.544	13.65
867.718	-17.07
867.891	109.91
868.065	21.84
868.238	85.33
868.412	58.71
868.585	40.28
868.759	15.7
868.932	-0.68
869.105	73.04
869.279	-8.87
869.452	66.9
869.625	-51.88
869.799	27.99
869.972	9.56
870.145	44.37
870.319	-2.73
870.492	11.61
870.665	5.46
870.838	1.37
871.011	21.84
871.185	13.65
871.358	56.66
871.531	64.85
871.704	34.13
871.877	58.71
872.05	19.8
872.223	7.51
872.396	95.57
872.569	-8.87
872.742	23.89
872.915	64.85
873.088	19.8
873.261	52.56
873.434	13.65
873.607	38.23
873.78	-19.11
873.953	7.51
874.126	46.42
874.299	54.61
874.471	9.56
874.644	34.13
874.817	-51.88
874.99	103.76
875.163	-47.79
875.335	9.56
875.508	15.7
875.681	-49.83
875.853	-49.83
876.026	19.8
876.199	30.04
876.371	30.04
876.544	11.61
876.717	46.42
876.889	30.04
877.062	-6.83
877.234	-4.78
877.407	5.46
877.579	-60.07
877.752	75.09
877.924	-2.73
878.097	11.61
878.269	17.75
878.442	58.71
878.614	-4.78
878.786	13.65
878.959	54.61
879.131	73.04
879.303	-35.5
879.476	21.84
879.648	46.42
879.82	-19.11
879.993	46.42
880.165	-15.02
880.337	-33.45
880.509	-29.35
880.681	-10.92
880.854	5.46
881.026	-21.16
881.198	19.8
881.37	-2.73
881.542	58.71
881.714	54.61
881.886	-2.73
882.058	-10.92
882.23	-25.26
882.402	32.08
882.574	23.89
882.746	42.32
882.918	17.75
883.09	54.61
883.262	-39.59
883.434	38.23
883.606	-41.64
883.778	17.75
883.95	50.52
884.122	-8.87
884.293	48.47
884.465	13.65
884.637	25.94
884.809	-25.26
884.98	40.28
885.152	7.51
885.324	-2.73
885.496	23.89
885.667	9.56
885.839	5.46
886.011	93.52
886.182	-8.87
886.354	91.48
886.525	-4.78
886.697	40.28
886.869	19.8
887.04	23.89
887.212	32.08
887.383	120.15
887.555	-12.97
887.726	-15.02
887.897	-37.55
888.069	62.8
888.24	13.65
888.412	-19.11
888.583	9.56
888.754	-33.45
888.926	-8.87
889.097	-21.16
889.268	15.7
889.44	62.8
889.611	-6.83
889.782	-43.69
889.953	9.56
890.125	91.48
890.296	-8.87
890.467	-43.69
890.638	-103.08
890.809	-2.73
890.98	-17.07
891.151	38.23
891.323	40.28
891.494	46.42
891.665	40.28
891.836	34.13
892.007	1.37
892.178	-62.12
892.349	30.04
892.52	30.04
892.691	1.37
892.862	21.84
893.032	-68.27
893.203	17.75
893.374	9.56
893.545	-6.83
893.716	71
893.887	13.65
894.057	13.65
894.228	-15.02
894.399	-49.83
894.57	19.8
894.74	-6.83
894.911	30.04
895.082	-19.11
895.253	-51.88
895.423	34.13
895.594	-8.87
895.764	-0.68
895.935	-45.74
896.106	-0.68
896.276	-19.11
896.447	-45.74
896.617	-51.88
896.788	-60.07
896.958	56.66
897.129	-2.73
897.299	36.18
897.47	21.84
897.64	120.15
897.81	-62.12
897.981	36.18
898.151	25.94
898.322	-15.02
898.492	-10.92
898.662	-62.12
898.832	-70.31
899.003	46.42
899.173	36.18
899.343	52.56
899.513	-39.59
