Data from USB4F104151__0__11-44-19-609.txt Node

Date: Fri Mar 14 11:44:19 EDT 2025
User: louis
Spectrometer: USB4F10415
Trigger mode: 4
Integration Time (sec): 2.000000E-2
Scans to average: 1
Electric dark correction enabled: true
Nonlinearity correction enabled: false
Boxcar width: 0
XAxis mode: Wavelengths
Number of Pixels in Spectrum: 3648
>>>>>Begin Spectral Data<<<<<
178.204	-62.98
178.424	-62.98
178.644	-62.98
178.864	-22.02
179.084	-44.54
179.304	35.33
179.524	10.75
179.744	37.38
179.964	-13.82
180.184	12.8
180.404	47.62
180.624	12.8
180.844	-89.6
181.064	-5.63
181.283	12.8
181.503	-71.17
181.723	10.75
181.943	27.14
182.163	49.66
182.383	-15.87
182.602	51.71
182.822	57.86
183.042	78.33
183.262	-15.87
183.482	88.57
183.701	20.99
183.921	-50.69
184.141	55.81
184.361	33.28
184.58	76.29
184.8	10.75
185.02	-11.78
185.239	33.28
185.459	45.57
185.679	55.81
185.898	47.62
186.118	39.42
186.338	20.99
186.557	98.81
186.777	18.94
186.997	104.96
187.216	10.75
187.436	37.38
187.655	-3.58
187.875	55.81
188.095	-32.26
188.314	96.77
188.534	-5.63
188.753	12.8
188.973	70.14
189.192	29.18
189.412	84.48
189.631	33.28
189.851	14.85
190.07	14.85
190.29	10.75
190.509	-46.59
190.729	18.94
190.948	29.18
191.168	154.11
191.387	107.01
191.607	-11.78
191.826	31.23
192.045	59.9
192.265	20.99
192.484	53.76
192.704	98.81
192.923	82.43
193.142	35.33
193.362	68.09
193.581	94.72
193.8	72.19
194.02	94.72
194.239	-7.68
194.458	68.09
194.678	27.14
194.897	98.81
195.116	-42.5
195.335	61.95
195.555	98.81
195.774	61.95
195.993	41.47
196.212	14.85
196.432	88.57
196.651	70.14
196.87	-22.02
197.089	80.38
197.308	41.47
197.528	86.53
197.747	27.14
197.966	8.7
198.185	33.28
198.404	-9.73
198.623	37.38
198.842	88.57
199.062	55.81
199.281	88.57
199.5	66.05
199.719	-9.73
199.938	16.9
200.157	33.28
200.376	10.75
200.595	43.52
200.814	117.25
201.033	53.76
201.252	18.94
201.471	20.99
201.69	55.81
201.909	51.71
202.128	16.9
202.347	107.01
202.566	70.14
202.785	37.38
203.004	12.8
203.223	66.05
203.442	-52.74
203.661	61.95
203.879	98.81
204.098	92.67
204.317	-24.06
204.536	0.51
204.755	35.33
204.974	6.66
205.193	66.05
205.411	82.43
205.63	4.61
205.849	16.9
206.068	61.95
206.287	0.51
206.505	35.33
206.724	66.05
206.943	2.56
207.162	-11.78
207.381	14.85
207.599	37.38
207.818	4.61
208.037	-11.78
208.255	39.42
208.474	-24.06
208.693	-38.4
208.911	-15.87
209.13	92.67
209.349	-3.58
209.567	25.09
209.786	88.57
210.005	61.95
210.223	68.09
210.442	23.04
210.661	78.33
210.879	18.94
211.098	61.95
211.316	8.7
211.535	8.7
211.753	51.71
211.972	61.95
212.191	-36.35
212.409	27.14
212.628	4.61
212.846	61.95
213.065	-32.26
213.283	80.38
213.502	37.38
213.72	104.96
213.938	-5.63
214.157	43.52
214.375	59.9
214.594	31.23
214.812	61.95
215.031	-9.73
215.249	-13.82
215.467	-26.11
215.686	-30.21
215.904	57.86
216.122	41.47
216.341	96.77
216.559	-17.92
216.778	-5.63
216.996	39.42
217.214	-7.68
217.432	4.61
217.651	51.71
217.869	31.23
218.087	14.85
218.306	66.05
218.524	37.38
218.742	51.71
218.96	61.95
219.179	141.82
219.397	4.61
219.615	-7.68
219.833	45.57
220.051	12.8
220.27	6.66
220.488	53.76
220.706	98.81
220.924	41.47
221.142	23.04
221.36	16.9
221.578	31.23
221.796	-81.41
222.015	45.57
222.233	-22.02
222.451	12.8
222.669	18.94
222.887	43.52
223.105	53.76
223.323	27.14
223.541	-22.02
223.759	31.23
223.977	57.86
224.195	115.2
224.413	55.81
224.631	53.76
224.849	-19.97
225.067	82.43
225.285	-26.11
225.503	25.09
225.721	-93.69
225.939	16.9
226.157	-1.54
226.375	92.67
226.592	37.38
226.81	10.75
227.028	49.66
227.246	41.47
227.464	45.57
227.682	10.75
227.9	6.66
228.117	76.29
228.335	39.42
228.553	47.62
228.771	25.09
228.989	90.62
229.206	18.94
229.424	-17.92
229.642	49.66
229.86	51.71
230.077	51.71
230.295	31.23
230.513	25.09
230.731	80.38
230.948	18.94
231.166	92.67
231.384	66.05
231.601	37.38
231.819	0.51
232.037	-62.98
232.254	27.14
232.472	102.91
232.689	25.09
232.907	72.19
233.125	72.19
233.342	20.99
233.56	37.38
233.777	43.52
233.995	-15.87
234.213	31.23
234.43	6.66
234.648	78.33
234.865	41.47
235.083	74.24
235.3	10.75
235.518	66.05
235.735	-3.58
235.953	49.66
236.17	35.33
236.388	41.47
236.605	76.29
236.822	47.62
237.04	82.43
237.257	78.33
237.475	-13.82
237.692	100.86
237.909	-3.58
238.127	14.85
238.344	55.81
238.562	115.2
238.779	-13.82
238.996	-15.87
239.214	-34.3
239.431	82.43
239.648	23.04
239.865	18.94
240.083	27.14
240.3	-19.97
240.517	-13.82
240.735	27.14
240.952	135.68
241.169	78.33
241.386	2.56
241.603	-3.58
241.821	51.71
242.038	-15.87
242.255	37.38
242.472	45.57
242.689	94.72
242.907	104.96
243.124	-77.31
243.341	-7.68
243.558	-11.78
243.775	-13.82
243.992	31.23
244.209	90.62
244.426	35.33
244.643	107.01
244.86	18.94
245.078	51.71
245.295	29.18
245.512	29.18
245.729	18.94
245.946	8.7
246.163	72.19
246.38	-24.06
246.597	18.94
246.814	57.86
247.031	57.86
247.248	57.86
247.464	104.96
247.681	-13.82
247.898	-1.54
248.115	51.71
248.332	-5.63
248.549	117.25
248.766	113.15
248.983	2.56
249.2	16.9
249.417	14.85
249.633	29.18
249.85	-5.63
250.067	78.33
250.284	51.71
250.501	76.29
250.717	45.57
250.934	18.94
251.151	33.28
251.368	14.85
251.585	0.51
251.801	68.09
252.018	-7.68
252.235	-13.82
252.451	-3.58
252.668	-5.63
252.885	70.14
253.102	61.95
253.318	31.23
253.535	102.91
253.752	57.86
253.968	53.76
254.185	23.04
254.401	31.23
254.618	4.61
254.835	37.38
255.051	78.33
255.268	45.57
255.484	39.42
255.701	66.05
255.917	55.81
256.134	31.23
256.351	127.49
256.567	-11.78
256.784	8.7
257	-1.54
257.217	31.23
257.433	8.7
257.65	-3.58
257.866	12.8
258.082	-3.58
258.299	4.61
258.515	59.9
258.732	86.53
258.948	20.99
259.165	47.62
259.381	74.24
259.597	41.47
259.814	10.75
260.03	12.8
260.246	31.23
260.463	47.62
260.679	14.85
260.895	88.57
261.112	43.52
261.328	76.29
261.544	61.95
261.761	113.15
261.977	74.24
262.193	-11.78
262.409	53.76
262.626	-7.68
262.842	82.43
263.058	-3.58
263.274	82.43
263.49	49.66
263.707	82.43
263.923	35.33
264.139	-3.58
264.355	57.86
264.571	82.43
264.787	-19.97
265.004	43.52
265.22	33.28
265.436	31.23
265.652	74.24
265.868	-1.54
266.084	45.57
266.3	39.42
266.516	39.42
266.732	61.95
266.948	64
267.164	12.8
267.38	49.66
267.596	6.66
267.812	76.29
268.028	-30.21
268.244	66.05
268.46	55.81
268.676	-44.54
268.892	10.75
269.108	-9.73
269.324	18.94
269.54	12.8
269.756	47.62
269.972	43.52
270.188	78.33
270.403	-42.5
270.619	43.52
270.835	-32.26
271.051	29.18
271.267	-5.63
271.483	-40.45
271.698	51.71
271.914	70.14
272.13	-3.58
272.346	31.23
272.562	55.81
272.777	57.86
272.993	-3.58
273.209	35.33
273.425	14.85
273.64	51.71
273.856	141.82
274.072	49.66
274.287	0.51
274.503	20.99
274.719	96.77
274.934	49.66
275.15	-5.63
275.366	64
275.581	6.66
275.797	33.28
276.012	84.48
276.228	39.42
276.444	10.75
276.659	94.72
276.875	29.18
277.09	66.05
277.306	45.57
277.521	74.24
277.737	55.81
277.952	64
278.168	27.14
278.383	31.23
278.599	66.05
278.814	-11.78
279.03	53.76
279.245	76.29
279.461	102.91
279.676	31.23
279.892	47.62
280.107	20.99
280.322	45.57
280.538	33.28
280.753	-44.54
280.969	18.94
281.184	25.09
281.399	39.42
281.615	-1.54
281.83	35.33
282.045	8.7
282.26	27.14
282.476	57.86
282.691	35.33
282.906	55.81
283.122	88.57
283.337	43.52
283.552	10.75
283.767	66.05
283.983	92.67
284.198	55.81
284.413	16.9
284.628	76.29
284.843	59.9
285.058	-1.54
285.274	33.28
285.489	-22.02
285.704	86.53
285.919	0.51
286.134	14.85
286.349	-40.45
286.564	96.77
286.779	119.29
286.995	-32.26
287.21	-5.63
287.425	68.09
287.64	66.05
287.855	39.42
288.07	-22.02
288.285	25.09
288.5	78.33
288.715	49.66
288.93	117.25
289.145	57.86
289.36	72.19
289.575	-40.45
289.79	-5.63
290.004	59.9
290.219	74.24
290.434	-19.97
290.649	18.94
290.864	55.81
291.079	29.18
291.294	0.51
291.509	-40.45
291.724	20.99
291.938	55.81
292.153	23.04
292.368	20.99
292.583	49.66
292.798	119.29
293.012	59.9
293.227	66.05
293.442	37.38
293.657	12.8
293.871	49.66
294.086	39.42
294.301	25.09
294.516	-38.4
294.73	37.38
294.945	25.09
295.16	33.28
295.374	74.24
295.589	39.42
295.804	43.52
296.018	109.05
296.233	39.42
296.447	31.23
296.662	74.24
296.877	115.2
297.091	55.81
297.306	51.71
297.52	37.38
297.735	33.28
297.949	61.95
298.164	55.81
298.378	-3.58
298.593	29.18
298.807	49.66
299.022	66.05
299.236	10.75
299.451	55.81
299.665	4.61
299.88	64
300.094	64
300.309	41.47
300.523	64
300.737	20.99
300.952	25.09
301.166	35.33
301.381	74.24
301.595	25.09
301.809	45.57
302.024	61.95
302.238	53.76
302.452	59.9
302.667	4.61
302.881	70.14
303.095	57.86
303.309	104.96
303.524	45.57
303.738	49.66
303.952	4.61
304.166	86.53
304.381	4.61
304.595	117.25
304.809	82.43
305.023	35.33
305.237	66.05
305.452	25.09
305.666	53.76
305.88	12.8
306.094	86.53
306.308	78.33
306.522	39.42
306.736	27.14
306.95	64
307.164	35.33
307.379	-22.02
307.593	119.29
307.807	68.09
308.021	37.38
308.235	-11.78
308.449	-7.68
308.663	-22.02
308.877	111.1
309.091	119.29
309.305	57.86
309.519	41.47
309.733	113.15
309.947	-7.68
310.161	23.04
310.374	10.75
310.588	8.7
310.802	37.38
311.016	72.19
311.23	53.76
311.444	84.48
311.658	90.62
311.872	47.62
312.085	45.57
312.299	78.33
312.513	55.81
312.727	70.14
312.941	41.47
313.154	27.14
313.368	-7.68
313.582	96.77
313.796	45.57
314.009	51.71
314.223	98.81
314.437	10.75
314.651	25.09
314.864	18.94
315.078	29.18
315.292	-3.58
315.505	25.09
315.719	-5.63
315.933	74.24
316.146	0.51
316.36	-50.69
316.573	123.39
316.787	57.86
317.001	55.81
317.214	59.9
317.428	80.38
317.641	49.66
317.855	49.66
318.068	115.2
318.282	68.09
318.495	111.1
318.709	6.66
318.922	98.81
319.136	113.15
319.349	51.71
319.563	49.66
319.776	74.24
319.99	68.09
320.203	104.96
320.417	88.57
320.63	-9.73
320.843	37.38
321.057	45.57
321.27	82.43
321.483	18.94
321.697	47.62
321.91	102.91
322.124	86.53
322.337	-15.87
322.55	23.04
322.763	-1.54
322.977	49.66
323.19	6.66
323.403	-44.54
323.617	64
323.83	37.38
324.043	20.99
324.256	41.47
324.469	66.05
324.683	-3.58
324.896	12.8
325.109	10.75
325.322	-38.4
325.535	35.33
325.748	4.61
325.962	66.05
326.175	45.57
326.388	14.85
326.601	90.62
326.814	57.86
327.027	86.53
327.24	55.81
327.453	29.18
327.666	45.57
327.879	49.66
328.092	88.57
328.305	94.72
328.518	45.57
328.731	6.66
328.944	68.09
329.157	49.66
329.37	49.66
329.583	0.51
329.796	39.42
330.009	78.33
330.222	-13.82
330.435	29.18
330.648	104.96
330.861	41.47
331.073	55.81
331.286	33.28
331.499	35.33
331.712	39.42
331.925	57.86
332.138	39.42
332.35	64
332.563	-7.68
332.776	82.43
332.989	25.09
333.202	33.28
333.414	55.81
333.627	-3.58
333.84	6.66
334.053	68.09
334.265	80.38
334.478	12.8
334.691	53.76
334.903	76.29
335.116	18.94
335.329	66.05
335.541	29.18
335.754	107.01
335.966	61.95
336.179	37.38
336.392	53.76
336.604	12.8
336.817	66.05
337.029	4.61
337.242	90.62
337.454	66.05
337.667	64
337.88	90.62
338.092	18.94
338.305	33.28
338.517	25.09
338.729	-38.4
338.942	4.61
339.154	59.9
339.367	49.66
339.579	61.95
339.792	23.04
340.004	98.81
340.217	68.09
340.429	16.9
340.641	-24.06
340.854	96.77
341.066	37.38
341.278	12.8
341.491	88.57
341.703	82.43
341.915	55.81
342.128	72.19
342.34	88.57
342.552	92.67
342.764	123.39
342.977	16.9
343.189	4.61
343.401	66.05
343.613	20.99
343.826	-3.58
344.038	20.99
344.25	66.05
344.462	-7.68
344.674	66.05
344.886	43.52
345.099	27.14
345.311	61.95
345.523	10.75
345.735	61.95
345.947	70.14
346.159	16.9
346.371	70.14
346.583	51.71
346.795	109.05
347.007	25.09
347.219	31.23
347.431	102.91
347.643	55.81
347.855	117.25
348.067	35.33
348.279	-1.54
348.491	74.24
348.703	35.33
348.915	41.47
349.127	76.29
349.339	35.33
349.551	55.81
349.763	-3.58
349.975	59.9
350.187	152.06
350.399	27.14
350.61	53.76
350.822	37.38
351.034	68.09
351.246	2.56
351.458	45.57
351.669	33.28
351.881	-22.02
352.093	8.7
352.305	96.77
352.517	100.86
352.728	94.72
352.94	66.05
353.152	113.15
353.363	66.05
353.575	23.04
353.787	39.42
353.999	29.18
354.21	74.24
354.422	76.29
354.633	-36.35
354.845	92.67
355.057	66.05
355.268	55.81
355.48	31.23
355.692	70.14
355.903	57.86
356.115	47.62
356.326	18.94
356.538	66.05
356.749	78.33
356.961	64
357.172	-13.82
357.384	35.33
357.595	115.2
357.807	45.57
358.018	39.42
358.23	51.71
358.441	152.06
358.653	43.52
358.864	82.43
359.075	45.57
359.287	70.14
359.498	80.38
359.709	84.48
359.921	51.71
360.132	-67.07
360.344	47.62
360.555	14.85
360.766	25.09
360.977	35.33
361.189	100.86
361.4	-28.16
361.611	115.2
361.823	45.57
362.034	33.28
362.245	45.57
362.456	23.04
362.667	61.95
362.879	18.94
363.09	14.85
363.301	-9.73
363.512	37.38
363.723	-56.83
363.935	72.19
364.146	39.42
364.357	51.71
364.568	98.81
364.779	14.85
364.99	66.05
365.201	143.87
365.412	43.52
365.623	45.57
365.834	47.62
366.045	70.14
366.256	-7.68
366.467	-24.06
366.678	57.86
366.889	82.43
367.1	10.75
367.311	49.66
367.522	55.81
367.733	104.96
367.944	141.82
368.155	51.71
368.366	117.25
368.577	41.47
368.788	111.1
368.999	111.1
369.209	4.61
369.42	76.29
369.631	96.77
369.842	53.76
370.053	55.81
370.264	90.62
370.474	66.05
370.685	76.29
370.896	47.62
371.107	49.66
371.317	76.29
371.528	49.66
371.739	100.86
371.95	61.95
372.16	127.49
372.371	74.24
372.582	76.29
372.792	72.19
373.003	133.63
373.214	88.57
373.424	84.48
373.635	-1.54
373.846	31.23
374.056	80.38
374.267	74.24
374.477	78.33
374.688	66.05
374.898	70.14
375.109	57.86
375.319	82.43
375.53	100.86
375.74	90.62
375.951	82.43
376.161	121.34
376.372	150.01
376.582	94.72
376.793	119.29
377.003	-28.16
377.214	125.44
377.424	86.53
377.635	45.57
377.845	68.09
378.055	74.24
378.266	4.61
378.476	35.33
378.686	27.14
378.897	135.68
379.107	39.42
379.317	90.62
379.528	76.29
379.738	80.38
379.948	55.81
380.158	35.33
380.369	64
380.579	20.99
380.789	47.62
380.999	43.52
381.21	33.28
381.42	84.48
381.63	0.51
381.84	94.72
382.05	92.67
382.261	68.09
382.471	115.2
382.681	25.09
382.891	49.66
383.101	0.51
383.311	61.95
383.521	86.53
383.731	72.19
383.941	20.99
384.151	121.34
384.361	-38.4
384.571	78.33
384.781	-32.26
384.991	82.43
385.201	10.75
385.411	102.91
385.621	154.11
385.831	-15.87
386.041	94.72
386.251	-32.26
386.461	27.14
386.671	156.16
386.881	10.75
387.091	68.09
387.301	94.72
387.511	94.72
387.72	27.14
387.93	45.57
388.14	43.52
388.35	41.47
388.56	109.05
388.769	53.76
388.979	131.58
389.189	8.7
389.399	-9.73
389.609	55.81
389.818	78.33
390.028	109.05
390.238	59.9
390.447	51.71
390.657	78.33
390.867	29.18
391.076	78.33
391.286	53.76
391.496	53.76
391.705	109.05
391.915	94.72
392.125	64
392.334	98.81
392.544	92.67
392.753	70.14
392.963	80.38
393.172	109.05
393.382	57.86
393.591	121.34
393.801	76.29
394.01	94.72
394.22	154.11
394.429	115.2
394.639	43.52
394.848	88.57
395.058	78.33
395.267	84.48
395.477	47.62
395.686	100.86
395.895	80.38
396.105	129.53
396.314	104.96
396.524	59.9
396.733	76.29
396.942	154.11
397.152	66.05
397.361	150.01
397.57	162.3
397.78	143.87
397.989	88.57
398.198	88.57
398.407	45.57
398.617	111.1
398.826	123.39
399.035	94.72
399.244	37.38
399.453	129.53
399.663	107.01
399.872	154.11
400.081	55.81
400.29	117.25
400.499	107.01
400.708	43.52
400.917	102.91
401.127	86.53
401.336	156.16
401.545	178.69
401.754	141.82
401.963	147.97
402.172	80.38
402.381	61.95
402.59	123.39
402.799	160.25
403.008	184.83
403.217	164.35
403.426	123.39
403.635	131.58
403.844	121.34
404.053	143.87
404.262	166.4
404.471	180.73
404.68	104.96
404.888	186.88
405.097	172.54
405.306	188.93
405.515	203.26
405.724	162.3
405.933	109.05
406.142	123.39
406.35	207.36
406.559	178.69
406.768	211.45
406.977	246.27
407.185	197.12
407.394	197.12
407.603	199.16
407.812	221.69
408.02	256.51
408.229	244.22
408.438	215.55
408.646	305.66
408.855	193.02
409.064	256.51
409.272	205.31
409.481	233.98
409.69	240.12
409.898	320
410.107	287.23
410.315	373.24
410.524	311.8
410.733	320
410.941	360.95
411.15	338.43
411.358	401.91
411.567	406.01
411.775	414.2
411.984	367.1
412.192	322.04
412.401	436.73
412.609	459.26
412.818	528.89
413.026	471.54
413.234	485.88
413.443	508.41
413.651	489.98
413.86	553.46
414.068	563.7
414.276	623.09
414.485	555.51
414.693	567.8
414.901	688.63
415.11	616.95
415.318	696.82
415.526	745.97
415.734	752.12
415.943	762.36
416.151	727.54
416.359	819.7
416.567	784.88
416.776	879.09
416.984	920.05
417.192	934.39
417.4	995.82
417.608	1004.02
417.817	942.58
418.025	1071.6
418.233	1047.02
418.441	1026.54
418.649	1061.36
418.857	1112.56
419.065	1249.77
419.273	1284.59
419.481	1325.55
419.689	1360.36
419.897	1423.85
420.105	1434.09
420.313	1444.33
420.521	1487.34
420.729	1485.29
420.937	1688.04
421.145	1585.64
421.353	1733.09
421.561	1782.24
421.769	1776.1
421.977	1882.6
422.185	1976.8
422.393	2036.19
422.601	2181.6
422.809	2212.32
423.017	2181.6
423.224	2294.24
423.432	2355.68
423.64	2404.83
423.848	2607.58
424.056	2611.67
424.263	2714.07
424.471	2904.53
424.679	2806.23
424.887	3054.03
425.094	3070.42
425.302	3090.9
425.51	3084.75
425.718	3213.77
425.925	3299.79
426.133	3426.76
426.341	3494.35
426.548	3725.77
426.756	3723.72
426.964	3807.69
427.171	4141.5
427.379	4014.53
427.586	4159.94
427.794	4407.74
428.001	4430.27
428.209	4639.16
428.417	4618.68
428.624	4940.21
428.832	4899.25
429.039	5048.75
429.247	4985.27
429.454	5370.29
429.662	5732.78
429.869	5437.87
430.076	5904.81
430.284	5620.14
430.491	5818.79
430.699	6168.99
430.906	6138.27
431.114	6277.54
431.321	6504.86
431.528	6619.55
431.736	7074.2
431.943	7373.2
432.15	7182.74
432.358	7223.7
432.565	7815.56
432.772	7563.66
432.979	7969.16
433.187	8251.78
433.394	8167.81
433.601	8874.36
433.808	8724.86
434.016	8788.35
434.223	8823.16
434.43	9429.36
434.637	9431.41
434.844	9939.3
435.052	10189.16
435.259	10176.87
435.466	9953.64
435.673	10277.22
435.88	10883.42
436.087	11485.52
436.294	11544.91
436.501	11047.26
436.708	11354.45
436.915	11706.7
437.122	12243.27
437.329	12411.2
437.537	12728.64
437.743	12927.29
437.95	12579.14
438.157	13406.52
438.364	13730.09
438.571	14088.49
438.778	13924.65
438.985	15063.32
439.192	14436.64
439.399	15182.1
439.606	14668.06
439.813	15626.51
440.02	16658.69
440.227	16345.35
440.433	15960.33
440.64	16734.46
440.847	16279.82
441.054	16711.94
441.261	18004.21
441.467	17918.19
441.674	18223.34
441.881	18878.69
442.088	18815.2
442.294	18577.64
442.501	19185.88
442.708	19753.17
442.914	20383.94
443.121	20904.13
443.328	20596.93
443.534	21749.94
443.741	21475.51
443.948	21141.69
444.154	22786.21
444.361	22517.93
444.568	22763.68
444.774	22937.76
444.981	23062.69
445.187	23765.14
445.394	24658.06
445.6	24725.64
445.807	26718.31
446.013	25700.47
446.22	25751.67
446.426	26941.54
446.633	27457.63
446.839	28176.47
447.046	27035.75
447.252	28610.64
447.459	28706.89
447.665	28489.81
447.871	29630.52
448.078	30808.11
448.284	29503.55
448.491	30570.54
448.697	31381.54
448.903	32299.03
449.11	31864.86
449.316	31741.98
449.522	32430.1
449.728	32768.01
449.935	33140.74
450.141	33204.23
450.347	34179.06
450.553	32614.41
450.76	33280
450.966	34615.28
451.172	33970.17
451.378	34932.71
451.584	34160.63
451.791	34854.89
451.997	34791.41
452.203	35227.62
452.409	35583.97
452.615	35186.66
452.821	33953.79
453.027	33310.72
453.233	35635.17
453.44	34375.67
453.646	34623.47
453.852	34422.77
454.058	34887.66
454.264	34224.12
454.47	35076.07
454.676	33927.16
454.882	35211.24
455.088	32081.94
455.294	32651.28
455.5	33146.89
455.705	33595.39
455.911	32163.86
456.117	30959.66
456.323	31029.29
456.529	29243.46
456.735	30806.06
456.941	29812.79
457.147	29376.58
457.352	28502.09
457.558	28285.01
457.764	28344.4
457.97	27560.03
458.176	26959.97
458.381	27199.58
458.587	25942.13
458.793	25788.53
458.999	24672.39
459.204	26288.24
459.41	25708.66
459.616	23767.19
459.821	23724.18
460.027	23509.15
460.233	23326.88
460.438	22167.73
460.644	22591.66
460.85	21395.64
461.055	20943.04
461.261	20627.65
461.466	19454.17
461.672	18976.99
461.878	20115.66
462.083	18696.42
462.289	18567.4
462.494	18340.07
462.7	17590.52
462.905	16873.73
463.111	17877.23
463.316	17647.86
463.522	17191.16
463.727	17455.35
463.932	17273.08
464.138	17131.77
464.343	17006.84
464.549	16644.35
464.754	16992.51
464.959	16931.07
465.165	16900.35
465.37	16263.43
465.575	15673.62
465.781	16382.21
465.986	16533.76
466.191	16038.16
466.397	15456.53
466.602	14754.08
466.807	15456.53
467.012	15542.55
467.218	15264.02
467.423	14997.79
467.628	15180.06
467.833	15876.37
468.038	15274.26
468.244	14993.69
468.449	15513.88
468.654	14780.7
468.859	14715.17
469.064	14663.97
469.269	13889.84
469.474	14145.83
469.679	14551.33
469.885	13959.47
470.09	14350.63
470.295	14104.87
470.5	13828.4
470.705	13898.03
470.91	13637.94
471.115	13535.54
471.32	13685.04
471.525	13904.17
471.73	13066.55
471.935	13201.72
472.139	12634.43
472.344	13005.11
472.549	12951.87
472.754	12605.76
472.959	12454.21
473.164	12155.21
473.369	12065.1
473.574	12470.59
473.778	12276.04
473.983	12224.84
474.188	11936.07
474.393	11579.73
474.598	11800.91
474.802	11485.52
475.007	11598.16
475.212	11546.96
475.417	11069.78
475.621	11217.24
475.826	11151.7
476.031	10719.58
476.235	10555.74
476.44	10918.23
476.645	10570.08
476.849	10639.71
477.054	10699.1
477.259	10279.27
477.463	10387.81
477.668	10027.37
477.872	10234.21
478.077	9904.49
478.282	9847.15
478.486	9814.38
478.691	9787.75
478.895	9759.08
479.1	9494.9
479.304	9748.84
479.509	9173.36
479.713	9548.14
479.918	9451.89
480.122	9130.36
480.326	9335.15
480.531	9425.26
480.735	9228.66
480.94	9193.84
481.144	9408.88
481.348	8716.67
481.553	9066.87
481.757	8761.72
481.961	8851.83
482.166	8939.9
482.37	9056.63
482.574	8761.72
482.778	8903.03
482.983	9228.66
483.187	8952.18
483.391	9171.32
483.595	8855.93
483.8	9040.25
484.004	8810.87
484.208	9056.63
484.412	8958.33
484.616	8860.02
484.821	8884.6
485.025	8741.24
485.229	8974.71
485.433	8733.05
485.637	8872.31
485.841	8827.26
486.045	8780.15
486.249	8892.79
486.453	8798.59
486.657	9005.43
486.861	8927.61
487.065	8579.45
487.269	8982.9
487.473	8593.79
487.677	8978.81
487.881	8966.52
488.085	8757.63
488.289	8941.94
488.493	8989.05
488.697	9126.26
488.901	9003.38
489.105	9058.68
489.309	8905.08
489.512	8954.23
489.716	8872.31
489.92	8946.04
490.124	8907.13
490.328	9142.64
490.531	9040.25
490.735	9036.15
490.939	9214.32
491.143	8796.54
491.346	9179.51
491.55	9378.16
491.754	9277.81
491.958	9304.43
492.161	9335.15
492.365	9425.26
492.569	9277.81
492.772	9396.59
492.976	9384.3
493.18	9613.68
493.383	9554.29
493.587	9630.06
493.79	9585.01
493.994	9621.87
494.197	9666.92
494.401	9806.19
494.605	9886.06
494.808	10094.95
495.012	9980.26
495.215	9980.26
495.419	10226.02
495.622	10178.92
495.825	10647.9
496.029	10258.79
496.232	10455.39
496.436	10457.44
496.639	10762.59
496.843	10678.62
497.046	10738.01
497.249	11096.41
497.453	10813.79
497.656	11123.03
497.859	11163.99
498.063	11358.55
498.266	11319.64
498.469	11489.62
498.673	11462.99
498.876	11815.24
499.079	11655.5
499.282	11835.72
499.485	12273.99
499.689	12108.1
499.892	12366.15
500.095	12259.65
500.298	12613.95
500.501	12542.27
500.705	12718.4
500.908	12915
501.111	13097.27
501.314	12982.59
501.517	13291.83
501.72	13840.68
501.923	13285.69
502.126	13769.01
502.329	14113.06
502.532	14301.48
502.735	14049.58
502.938	14582.05
503.141	14651.68
503.344	14870.81
503.547	14741.79
503.75	14913.82
503.953	15444.24
504.156	15257.88
504.359	15403.28
504.562	15595.79
504.765	15773.97
504.968	15800.59
505.17	16017.68
505.373	16152.84
505.576	16570.63
505.779	16480.52
505.982	16832.77
506.185	17058.04
506.387	17066.24
506.59	17283.32
506.793	17588.47
506.996	17582.32
507.198	17961.2
507.401	17877.23
507.604	18149.61
507.807	18387.18
508.009	18460.9
508.212	18487.53
508.415	19001.57
508.617	18882.78
508.82	19069.15
509.022	18749.67
509.225	19491.03
509.428	19790.03
509.63	20031.69
509.833	19964.11
510.035	20545.73
510.238	20396.23
510.44	20535.49
510.643	20644.04
510.845	21131.45
511.048	20783.3
511.25	21330.11
511.453	21422.27
511.655	22472.87
511.858	21784.76
512.06	22139.05
512.262	22386.86
512.465	22550.7
512.667	22792.36
512.87	23001.25
513.072	22878.37
513.274	23376.03
513.477	23566.49
513.679	23818.39
513.881	23851.16
514.084	24019.09
514.286	24080.53
514.488	24676.49
514.69	24912
514.893	25106.56
515.095	25434.24
515.297	25168
515.499	25612.41
515.701	25675.9
515.904	25829.49
516.106	26007.67
516.308	26396.78
516.51	26642.54
516.712	26574.95
516.914	26976.36
517.116	27517.02
517.318	27373.66
517.52	27744.34
517.722	27727.96
517.925	28256.34
518.127	28459.09
518.329	28291.15
518.531	28147.79
518.733	29239.36
518.935	29446.21
519.136	28887.11
519.338	29632.57
519.54	29585.47
519.742	30103.6
519.944	29911.1
520.146	30662.7
520.348	30545.97
520.55	31113.25
520.752	30816.3
520.954	31541.28
521.155	31154.21
521.357	31784.99
521.559	31930.39
521.761	32143.38
521.963	32198.68
522.164	32030.74
522.366	32647.18
522.568	32536.59
522.77	32839.69
522.971	33552.38
523.173	32974.86
523.375	33366.02
523.576	33255.43
523.778	33323.01
523.98	33978.36
524.181	33923.07
524.383	34156.53
524.584	34482.16
524.786	34559.98
524.988	34557.94
525.189	34846.7
525.391	34863.08
525.592	35041.26
525.794	35057.64
525.995	35444.71
526.197	35452.9
526.398	35403.75
526.6	35899.36
526.801	35862.49
527.003	35737.57
527.204	35897.31
527.406	36229.08
527.607	36065.24
527.808	36491.22
528.01	35915.74
528.211	36274.13
528.412	37001.16
528.614	36773.84
528.815	36478.93
529.016	37228.49
529.218	37107.66
529.419	36919.24
529.62	37050.31
529.822	36704.21
530.023	37177.29
530.224	37130.19
530.425	37230.54
530.626	37060.55
530.828	36980.68
531.029	37494.72
531.23	37394.37
531.431	37095.37
531.632	37248.97
531.833	37601.22
532.035	37670.85
532.236	37828.54
532.437	37767.1
532.638	37042.12
532.839	37971.9
533.04	37615.55
533.241	37382.09
533.442	38283.19
533.643	37912.51
533.844	37777.34
534.045	37726.14
534.246	37504.96
534.447	37885.89
534.648	37820.35
534.849	37988.28
535.05	37619.65
535.251	37906.37
535.451	37421
535.652	38021.05
535.853	37881.79
536.054	37961.66
536.255	37941.18
536.456	37445.57
536.657	38289.34
536.857	37664.71
537.058	37556.16
537.259	38172.6
537.46	38133.69
537.66	38154.17
537.861	37803.97
538.062	37435.33
538.263	37826.49
538.463	37582.79
538.664	37918.65
538.865	37693.38
539.065	37726.14
539.266	37263.3
539.466	37926.85
539.667	37382.09
539.868	38336.44
540.068	37664.71
540.269	37631.94
540.469	38113.21
540.67	37326.79
540.87	37857.21
541.071	37584.83
541.271	37629.89
541.472	37613.51
541.672	37562.31
541.873	37425.09
542.073	37099.47
542.274	37889.98
542.474	37693.38
542.675	37728.19
542.875	37760.96
543.075	37662.66
543.276	36779.98
543.476	37539.78
543.676	37255.11
543.877	37984.19
544.077	37443.52
544.277	37437.38
544.478	37580.74
544.678	37582.79
544.878	37316.55
545.078	37519.3
545.279	37574.59
545.479	37146.57
545.679	37253.06
545.879	37558.21
546.079	36956.11
546.28	37392.33
546.48	37048.27
546.68	37136.33
546.88	37132.23
547.08	37169.1
547.28	37482.44
547.48	36689.87
547.68	37396.42
547.88	36845.52
548.081	37507.01
548.281	37316.55
548.481	36925.39
548.681	37214.15
548.881	37154.76
549.081	37009.36
549.28	37115.85
549.48	37466.05
549.68	37095.37
549.88	37707.71
550.08	36868.05
550.28	37113.8
550.48	36980.68
550.68	37058.51
550.88	37013.45
551.08	37091.27
551.279	36995.02
551.479	36796.37
551.679	37273.54
551.879	37068.75
552.079	37048.27
552.278	36896.72
552.478	36972.49
552.678	36911.05
552.878	37128.14
553.077	36743.12
553.277	36351.96
553.477	37291.97
553.676	36693.97
553.876	36661.2
554.076	36730.83
554.275	36857.81
554.475	36509.65
554.674	36646.86
554.874	36657.1
555.074	36360.15
555.273	36825.04
555.473	37132.23
555.672	36222.94
555.872	36409.3
556.071	36419.54
556.271	36661.2
556.47	36358.1
556.67	36329.43
556.869	36450.26
557.068	36351.96
557.268	35698.66
557.467	36155.35
557.667	36265.94
557.866	36556.75
558.065	36667.34
558.265	36167.64
558.464	35817.44
558.663	36491.22
558.863	35801.05
559.062	36513.75
559.261	35592.16
559.461	36001.75
559.66	35454.95
559.859	35667.94
560.058	35760.09
560.258	35864.54
560.457	35305.45
560.656	35925.98
560.855	35311.59
561.054	35416.04
561.253	35184.62
561.453	35325.92
561.652	35809.25
561.851	35667.94
562.05	35248.1
562.249	35086.31
562.448	35375.08
562.647	35456.99
562.846	35141.61
563.045	35608.54
563.244	35145.7
563.443	35600.35
563.642	34856.94
563.841	34736.11
564.04	34926.57
564.239	35012.59
564.438	34668.53
564.637	34852.84
564.836	35082.22
565.035	34408.43
565.234	34693.1
565.432	34144.25
565.631	34271.22
565.83	34406.39
566.029	34457.59
566.228	34531.31
566.427	33982.46
566.625	34033.66
566.824	34107.38
567.023	34492.4
567.222	33413.12
567.42	34537.46
567.619	33978.36
567.818	33978.36
568.016	33863.68
568.215	34101.24
568.414	33845.24
568.612	34136.06
568.811	33519.62
569.01	33695.74
569.208	33220.61
569.407	33466.37
569.605	33429.51
569.804	33478.66
570.002	33042.44
570.201	33310.72
570.4	33157.13
570.598	33040.39
570.797	32870.41
570.995	32999.43
571.193	32567.31
571.392	33212.42
571.59	32530.45
571.789	32917.51
571.987	32548.88
572.186	32368.66
572.384	32714.76
572.582	32776.2
572.781	32522.26
572.979	32026.65
573.177	32278.55
573.376	32215.06
573.574	32241.68
573.772	32161.81
573.971	31961.11
574.169	31483.94
574.367	32043.03
574.565	31959.06
574.763	31717.4
574.962	31260.71
575.16	31547.42
575.358	31864.86
575.556	31084.58
575.754	31459.36
575.952	31092.77
576.151	31348.77
576.349	31029.29
576.547	30967.85
576.745	31098.92
576.943	31076.39
577.141	31115.3
577.339	30822.44
577.537	30529.58
577.735	30965.8
577.933	30390.32
578.131	30742.57
578.329	30584.88
578.527	30545.97
578.725	30498.86
578.923	30406.7
579.121	30079.03
579.319	30425.14
579.516	30443.57
579.714	30378.03
579.912	30103.6
580.11	29884.47
580.308	30095.41
580.506	29691.96
580.704	29573.18
580.901	29853.75
581.099	29833.27
581.297	29458.49
581.495	29614.14
581.692	29835.32
581.89	29405.25
582.088	29411.39
582.285	29126.72
582.483	29356.1
582.681	29003.85
582.878	29186.11
583.076	28866.63
583.274	29032.52
583.471	28573.77
583.669	28809.29
583.866	28317.78
584.064	29091.91
584.262	28225.62
584.459	28866.63
584.657	28383.31
584.854	28741.71
585.052	28178.51
585.249	28672.07
585.447	28223.57
585.644	27893.85
585.841	27754.58
586.039	28457.04
586.236	27594.84
586.434	27756.63
586.631	27869.27
586.828	27816.02
587.026	27777.11
587.223	27461.72
587.42	27418.72
587.618	27482.2
587.815	27000.93
588.012	27005.03
588.21	27435.1
588.407	27502.68
588.604	26955.88
588.801	26843.24
588.999	26634.35
589.196	26720.36
589.393	27086.95
589.59	26587.24
589.787	26490.99
589.984	26622.06
590.182	26314.86
590.379	26404.97
590.576	26617.96
590.773	26390.64
590.97	26304.62
591.167	26220.66
591.364	25995.38
591.561	26278
591.758	25632.89
591.955	25706.62
592.152	26005.62
592.349	25530.49
592.546	25856.12
592.743	25600.12
592.94	25405.56
593.137	25577.59
593.334	25671.8
593.531	25247.87
593.727	25438.33
593.924	25286.78
594.121	24963.2
594.318	25122.94
594.515	24561.8
594.712	24993.92
594.908	24871.04
595.105	25043.07
595.302	24776.84
595.499	24907.91
595.696	24973.44
595.892	24610.95
596.089	24244.37
596.286	24369.29
596.482	24219.79
596.679	24389.77
596.876	24301.71
597.072	23773.33
597.269	24215.69
597.466	23589.02
597.662	23822.48
597.859	24033.43
598.055	24076.43
598.252	23562.39
598.448	23888.02
598.645	23431.32
598.841	23113.89
599.038	23423.13
599.234	23455.9
599.431	23253.15
599.627	23210.14
599.824	23361.69
600.02	23247.01
600.217	23185.57
600.413	23052.45
600.609	22956.19
600.806	22567.08
601.002	22706.34
601.198	22827.17
601.395	22649
601.591	22462.63
601.787	22237.36
601.984	22505.64
602.18	22567.08
602.376	22208.69
602.572	21993.65
602.769	22075.57
602.965	22034.61
603.161	22251.69
603.357	22038.7
603.553	21811.38
603.75	21954.74
603.946	21825.71
604.142	21831.86
604.338	21244.09
604.534	21825.71
604.73	21518.52
604.926	21639.35
605.122	21250.24
605.318	21301.43
605.514	21285.05
605.71	21457.08
605.906	21485.75
606.102	21237.95
606.298	21145.79
606.494	21151.93
606.69	20859.07
606.886	20981.95
607.082	20664.52
607.278	20840.64
607.474	20605.13
607.67	20873.41
607.866	20603.08
608.062	20738.24
608.257	20574.41
608.453	20721.86
608.649	20500.68
608.845	20533.45
609.041	20310.22
609.236	20463.82
609.432	20418.76
609.628	20342.99
609.824	20185.29
610.019	20148.43
610.215	20230.35
610.411	20074.7
610.606	20064.46
610.802	20297.93
610.998	20179.15
611.193	19847.38
611.389	19808.47
611.584	19945.68
611.78	19806.42
611.976	19796.18
612.171	19851.47
612.367	19689.68
612.562	20113.61
612.758	19648.72
612.953	19722.45
613.149	19839.19
613.344	19308.76
613.539	19957.97
613.735	19544.28
613.93	19552.47
614.126	19458.26
614.321	19519.7
614.517	19316.95
614.712	19437.78
614.907	19249.37
615.103	19456.22
615.298	19171.55
615.493	19605.72
615.688	19036.38
615.884	19464.41
616.079	18778.34
616.274	19396.82
616.47	19126.49
616.665	19034.33
616.86	18940.13
617.055	19292.38
617.25	18786.53
617.445	19065.05
617.641	18651.36
617.836	18946.27
618.031	18630.88
618.226	18878.69
618.421	18929.89
618.616	18800.87
618.811	18325.74
619.006	18686.18
619.201	18260.2
619.396	18387.18
619.591	18249.96
619.786	18262.25
619.981	17852.66
620.176	18133.23
620.371	17787.12
620.566	18059.5
620.761	17766.64
620.956	18301.16
621.151	17891.57
621.346	17649.91
621.541	17402.1
621.735	17662.19
621.93	17236.22
622.125	17334.52
622.32	17285.37
622.515	17285.37
622.709	17205.5
622.904	17113.34
623.099	16951.55
623.294	17021.18
623.488	16546.05
623.683	17148.15
623.878	16738.56
624.072	16482.56
624.267	16251.14
624.462	16359.69
624.656	16154.89
624.851	16271.62
625.046	15976.72
625.24	16079.11
625.435	15964.43
625.629	15614.23
625.824	15571.22
626.018	15669.52
626.213	15239.45
626.407	15511.83
626.602	15296.79
626.796	15391
626.991	15540.5
627.185	15206.68
627.38	14928.16
627.574	14911.77
627.768	14915.87
627.963	15024.41
628.157	14594.34
628.352	14842.14
628.546	14606.63
628.74	14532.9
628.935	14416.16
629.129	14727.46
629.323	14178.6
629.517	14029.1
629.712	14002.47
629.906	13941.04
630.1	13826.35
630.294	13979.95
630.489	13965.61
630.683	13879.6
630.877	13539.63
631.071	13687.09
631.265	13775.15
631.459	13533.49
631.653	13365.56
631.848	13404.47
632.042	13035.83
632.236	13271.35
632.43	12888.38
632.624	13025.59
632.818	13109.56
633.012	12902.72
633.206	12847.42
633.4	12869.95
633.594	12900.67
633.788	12697.92
633.982	12826.94
634.176	12570.94
634.369	12339.52
634.563	12493.12
634.757	12321.09
634.951	12325.19
635.145	12292.42
635.339	12159.3
635.533	12142.92
635.726	12208.45
635.92	11909.45
636.114	11895.11
636.308	12044.62
636.501	11915.59
636.695	12003.66
636.889	11901.26
637.083	11667.79
637.276	11632.97
637.47	11385.17
637.664	11610.45
637.857	11542.86
638.051	11422.03
638.244	11186.52
638.438	11383.12
638.632	11010.39
638.825	11114.84
639.019	10922.33
639.212	11207
639.406	10959.19
639.599	11086.17
639.793	10969.43
639.986	10647.9
640.18	10662.24
640.373	10529.12
640.567	10598.75
640.76	10432.86
640.954	10461.54
641.147	10555.74
641.34	10379.62
641.534	10305.89
641.727	10324.32
641.92	9918.82
642.114	10338.66
642.307	10144.1
642.5	10037.61
642.694	9914.73
642.887	9841
643.08	9972.07
643.273	9832.81
643.467	9859.43
643.66	9701.74
643.853	9695.6
644.046	9472.37
644.239	9623.92
644.432	9621.87
644.626	9767.27
644.819	9333.11
645.012	9609.58
645.205	9546.09
645.398	9224.56
645.591	9314.67
645.784	9324.91
645.977	9105.78
646.17	9230.71
646.363	9056.63
646.556	9077.11
646.749	9128.31
646.942	8980.85
647.135	8991.09
647.328	9048.44
647.521	8866.17
647.714	8741.24
647.907	8884.6
648.099	8780.15
648.292	8862.07
648.485	8608.12
648.678	8452.48
648.871	8442.24
649.064	8632.7
649.256	8503.68
649.449	8325.5
649.642	8366.46
649.835	8372.61
650.027	8337.79
650.22	8120.71
650.413	8194.43
650.605	8173.96
650.798	8067.46
650.991	7997.83
651.183	8022.41
651.376	8042.89
651.568	8116.61
651.761	8083.84
651.954	7684.49
652.146	7911.82
652.339	7760.27
652.531	8075.65
652.724	7745.93
652.916	7446.93
653.109	7762.31
653.301	7463.31
653.494	7451.02
653.686	7426.45
653.879	7637.39
654.071	7156.11
654.263	7281.04
654.456	7276.94
654.648	7451.02
654.84	7242.13
655.033	7231.89
655.225	7219.6
655.417	7178.64
655.61	7154.07
655.802	7197.07
655.994	7000.47
656.186	6945.17
656.379	6900.12
656.571	7074.2
656.763	6810.01
656.955	6672.79
657.148	7008.66
657.34	6676.89
657.532	6683.03
657.724	6838.68
657.916	6627.74
658.108	6637.98
658.3	6750.62
658.492	6754.71
658.684	6451.61
658.876	6420.89
659.068	6408.61
659.26	6468
659.452	6594.97
659.644	6269.34
659.836	6388.13
660.028	6566.3
660.22	6320.54
660.412	6173.09
660.604	6400.41
660.796	6285.73
660.988	6242.72
661.18	6060.45
661.372	6115.75
661.563	6193.57
661.755	6005.16
661.947	5976.48
662.139	5923.24
662.331	5835.17
662.522	5845.41
662.714	5951.91
662.906	5820.84
663.097	5843.37
663.289	5851.56
663.481	5814.7
663.673	5927.33
663.864	5616.04
664.056	5581.23
664.247	5724.58
664.439	5558.7
664.631	5517.74
664.822	5661.1
665.014	5540.27
665.205	5575.08
665.397	5476.78
665.588	5587.37
665.78	5458.35
665.971	5423.53
666.163	5491.12
666.354	5329.33
666.546	5362.09
666.737	5380.53
666.929	5243.31
667.12	5415.34
667.311	5192.11
667.503	5005.75
667.694	5222.83
667.885	5198.26
668.077	5122.48
668.268	5056.95
668.459	5192.11
668.651	5112.24
668.842	5030.32
669.033	5091.76
669.224	4913.59
669.416	4999.6
669.607	4958.64
669.798	5009.84
669.989	4993.46
670.18	5058.99
670.371	4778.42
670.563	4927.92
670.754	4946.36
670.945	4745.66
671.136	4833.72
671.327	4862.39
671.518	4649.4
671.709	4714.94
671.9	4694.46
672.091	4610.49
672.282	4657.59
672.473	4575.67
672.664	4678.07
672.855	4829.62
673.046	4807.09
673.237	4626.87
673.428	4610.49
673.619	4542.91
673.809	4532.67
674	4544.95
674.191	4583.87
674.382	4553.15
674.573	4477.37
674.764	4504
674.954	4372.93
675.145	4286.91
675.336	4413.88
675.527	4309.44
675.717	4424.12
675.908	4481.47
676.099	4366.78
676.289	4379.07
676.48	4350.4
676.671	4313.53
676.861	4325.82
677.052	4215.23
677.243	4364.73
677.433	4233.66
677.624	4291.01
677.814	4174.27
678.005	4284.86
678.195	4153.79
678.386	4145.6
678.576	4135.36
678.767	4223.42
678.957	4157.89
679.148	4342.21
679.338	4170.18
679.529	4172.22
679.719	4075.97
679.909	4161.98
680.1	4151.74
680.29	4127.17
680.481	4051.39
680.671	4024.77
680.861	4137.41
681.052	3989.96
681.242	4014.53
681.432	4014.53
681.622	3971.52
681.813	3905.99
682.003	3957.19
682.193	3899.84
682.383	4045.25
682.573	3922.37
682.764	3938.76
682.954	3934.66
683.144	3992
683.334	3779.01
683.524	3836.36
683.714	3791.3
683.904	3869.12
684.094	3961.28
684.284	3846.6
684.474	3936.71
684.664	3889.6
684.854	3695.05
685.044	3840.45
685.234	3805.64
685.424	3781.06
685.614	3643.85
685.804	3656.14
685.994	3729.86
686.184	3682.76
686.374	3666.38
686.564	3813.83
686.753	3611.08
686.943	3625.42
687.133	3695.05
687.323	3639.75
687.513	3582.41
687.702	3561.93
687.892	3498.44
688.082	3457.48
688.272	3570.12
688.461	3477.96
688.651	3543.5
688.841	3492.3
689.03	3414.48
689.22	3459.53
689.41	3465.68
689.599	3383.76
689.789	3350.99
689.979	3391.95
690.168	3394
690.358	3350.99
690.547	3365.32
690.737	3377.61
690.926	3305.93
691.116	3113.42
691.305	3441.1
691.495	3123.66
691.684	3336.65
691.874	3205.58
692.063	3133.9
692.252	3080.66
692.442	3226.06
692.631	3107.28
692.82	3133.9
693.01	3254.73
693.199	3125.71
693.388	2994.64
693.578	3133.9
693.767	2925.01
693.956	2994.64
694.146	2978.26
694.335	3043.79
694.524	2965.97
694.713	3023.31
694.902	2959.83
695.092	2904.53
695.281	2836.95
695.47	2820.56
695.659	2990.55
695.848	2916.82
696.037	2836.95
696.226	2898.39
696.415	2795.99
696.604	2896.34
696.793	2746.84
696.982	2707.93
697.171	2769.37
697.36	2810.33
697.549	2646.49
697.738	2896.34
697.927	2650.58
698.116	2714.07
698.305	2666.97
698.494	2675.16
698.683	2726.36
698.872	2742.74
699.061	2703.83
699.25	2542.04
699.438	2664.92
699.627	2716.12
699.816	2693.59
700.005	2576.86
700.193	2726.36
700.382	2621.91
700.571	2607.58
700.76	2705.88
700.948	2712.02
701.137	2673.11
701.326	2726.36
701.514	2517.47
701.703	2669.02
701.892	2558.42
702.08	2570.71
702.269	2628.06
702.457	2650.58
702.646	2599.38
702.834	2523.61
703.023	2630.1
703.212	2535.9
703.4	2394.59
703.589	2550.23
703.777	2609.62
703.965	2456.03
704.154	2527.71
704.342	2509.27
704.531	2410.97
704.719	2474.46
704.907	2550.23
705.096	2566.62
705.284	2453.98
705.472	2513.37
705.661	2533.85
705.849	2478.55
706.037	2470.36
706.226	2492.89
706.414	2517.47
706.602	2466.27
706.79	2537.95
706.979	2548.19
707.167	2419.16
707.355	2443.74
707.543	2458.07
707.731	2408.92
707.919	2435.55
708.107	2494.94
708.296	2503.13
708.484	2388.44
708.672	2482.65
708.86	2437.59
709.048	2445.79
709.236	2427.35
709.424	2492.89
709.612	2413.02
709.8	2445.79
709.988	2451.93
710.176	2415.07
710.364	2468.31
710.551	2515.42
710.739	2410.97
710.927	2421.21
711.115	2443.74
711.303	2437.59
711.491	2367.96
711.679	2501.08
711.866	2445.79
712.054	2353.63
712.242	2320.86
712.43	2400.73
712.617	2451.93
712.805	2413.02
712.993	2525.66
713.181	2404.83
713.368	2462.17
713.556	2341.34
713.744	2419.16
713.931	2496.99
714.119	2464.22
714.306	2306.52
714.494	2468.31
714.682	2423.26
714.869	2431.45
715.057	2398.68
715.244	2269.66
715.432	2447.83
715.619	2433.5
715.807	2413.02
715.994	2435.55
716.182	2390.49
716.369	2365.92
716.556	2468.31
716.744	2357.72
716.931	2353.63
717.119	2515.42
717.306	2339.29
717.493	2408.92
717.681	2480.6
717.868	2435.55
718.055	2361.82
718.242	2370.01
718.43	2402.78
718.617	2443.74
718.804	2363.87
718.991	2441.69
719.179	2388.44
719.366	2511.32
719.553	2417.12
719.74	2443.74
719.927	2415.07
720.114	2439.64
720.301	2423.26
720.488	2410.97
720.676	2421.21
720.863	2488.79
721.05	2447.83
721.237	2535.9
721.424	2539.99
721.611	2529.75
721.798	2316.76
721.985	2486.75
722.172	2335.2
722.358	2501.08
722.545	2380.25
722.732	2382.3
722.919	2421.21
723.106	2351.58
723.293	2384.35
723.48	2456.03
723.667	2441.69
723.853	2425.31
724.04	2427.35
724.227	2312.67
724.414	2517.47
724.6	2402.78
724.787	2451.93
724.974	2499.03
725.161	2413.02
725.347	2488.79
725.534	2423.26
725.72	2429.4
725.907	2490.84
726.094	2513.37
726.28	2503.13
726.467	2529.75
726.653	2378.2
726.84	2503.13
727.027	2478.55
727.213	2427.35
727.4	2505.18
727.586	2529.75
727.773	2453.98
727.959	2509.27
728.145	2408.92
728.332	2484.7
728.518	2419.16
728.705	2404.83
728.891	2539.99
729.077	2634.2
729.264	2456.03
729.45	2587.1
729.636	2548.19
729.823	2517.47
730.009	2548.19
730.195	2566.62
730.382	2630.1
730.568	2445.79
730.754	2550.23
730.94	2537.95
731.126	2562.52
731.313	2388.44
731.499	2560.47
731.685	2453.98
731.871	2613.72
732.057	2652.63
732.243	2628.06
732.429	2519.51
732.615	2439.64
732.801	2496.99
732.987	2572.76
733.173	2496.99
733.359	2568.66
733.545	2484.7
733.731	2595.29
733.917	2607.58
734.103	2572.76
734.289	2640.34
734.475	2470.36
734.661	2615.77
734.847	2533.85
735.033	2613.72
735.219	2578.9
735.404	2619.86
735.59	2519.51
735.776	2562.52
735.962	2695.64
736.148	2601.43
736.333	2705.88
736.519	2517.47
736.705	2691.54
736.89	2482.65
737.076	2658.78
737.262	2492.89
737.447	2548.19
737.633	2490.84
737.819	2490.84
738.004	2527.71
738.19	2593.24
738.375	2539.99
738.561	2578.9
738.747	2499.03
738.932	2456.03
739.118	2560.47
739.303	2566.62
739.489	2554.33
739.674	2478.55
739.859	2503.13
740.045	2509.27
740.23	2578.9
740.416	2574.81
740.601	2531.8
740.786	2580.95
740.972	2501.08
741.157	2499.03
741.342	2476.51
741.528	2595.29
741.713	2357.72
741.898	2468.31
742.084	2484.7
742.269	2572.76
742.454	2339.29
742.639	2593.24
742.824	2445.79
743.01	2447.83
743.195	2509.27
743.38	2370.01
743.565	2425.31
743.75	2372.06
743.935	2333.15
744.12	2388.44
744.305	2433.5
744.49	2337.24
744.675	2296.28
744.86	2374.11
745.045	2337.24
745.23	2392.54
745.415	2408.92
745.6	2238.94
745.785	2374.11
745.97	2327
746.155	2361.82
746.34	2181.6
746.525	2271.71
746.71	2349.53
746.895	2296.28
747.079	2269.66
747.264	2273.76
747.449	2228.7
747.634	2296.28
747.819	2265.57
748.003	2062.82
748.188	2230.75
748.373	2152.93
748.557	2271.71
748.742	2126.3
748.927	2071.01
749.111	2079.2
749.296	2167.26
749.481	2114.02
749.665	2167.26
749.85	2120.16
750.034	2116.06
750.219	2169.31
750.404	2048.48
750.588	2013.67
750.773	1925.6
750.957	2046.43
751.141	2030.05
751.326	1925.6
751.51	2005.47
751.695	1993.19
751.879	1892.84
752.064	1964.51
752.248	1970.66
752.432	1898.98
752.617	1995.23
752.801	1825.25
752.985	1841.64
753.17	1874.4
753.354	1853.92
753.538	1892.84
753.722	1925.6
753.907	1841.64
754.091	1786.34
754.275	1753.57
754.459	1786.34
754.643	1722.85
754.828	1784.29
755.012	1673.7
755.196	1763.81
755.38	1647.08
755.564	1735.14
755.748	1741.29
755.932	1765.86
756.116	1739.24
756.3	1642.98
756.484	1700.33
756.668	1622.5
756.852	1516.01
757.036	1591.78
757.22	1532.39
757.404	1630.7
757.588	1593.83
757.772	1610.22
757.956	1690.09
758.14	1597.93
758.323	1599.98
758.507	1548.78
758.691	1470.95
758.875	1618.41
759.059	1536.49
759.242	1436.14
759.426	1477.1
759.61	1468.91
759.794	1450.47
759.977	1429.99
760.161	1462.76
760.345	1427.95
760.528	1421.8
760.712	1466.86
760.895	1475.05
761.079	1366.51
761.263	1348.08
761.446	1329.64
761.63	1407.47
761.813	1454.57
761.997	1378.79
762.18	1343.98
762.364	1327.6
762.547	1438.19
762.731	1356.27
762.914	1298.92
763.098	1307.12
763.281	1227.25
763.464	1393.13
763.648	1292.78
763.831	1235.44
764.015	1296.88
764.198	1255.92
764.381	1221.1
764.564	1356.27
764.748	1194.48
764.931	1253.87
765.114	1296.88
765.297	1282.54
765.481	1212.91
765.664	1243.63
765.847	1161.71
766.03	1196.53
766.213	1217.01
766.397	1223.15
766.58	1120.75
766.763	1212.91
766.946	1151.47
767.129	1219.05
767.312	1245.68
767.495	1217.01
767.678	1210.86
767.861	1190.38
768.044	1108.46
768.227	1090.03
768.41	1141.23
768.593	1120.75
768.776	1200.62
768.959	1096.18
769.142	1206.77
769.324	1106.42
769.507	1071.6
769.69	1110.51
769.873	1184.24
770.056	1069.55
770.239	1116.65
770.421	1159.66
770.604	1073.65
770.787	1053.17
770.97	1141.23
771.152	1065.46
771.335	1135.09
771.518	1026.54
771.7	1155.57
771.883	1077.74
772.066	1077.74
772.248	1032.69
772.431	1026.54
772.613	1032.69
772.796	1065.46
772.978	1014.26
773.161	1057.26
773.343	979.44
773.526	997.87
773.708	944.63
773.891	1018.35
774.073	909.81
774.256	940.53
774.438	995.82
774.621	920.05
774.803	897.52
774.985	985.58
775.168	1016.3
775.35	920.05
775.532	895.47
775.715	944.63
775.897	932.34
776.079	930.29
776.261	891.38
776.444	881.14
776.626	905.71
776.808	770.55
776.99	840.18
777.173	905.71
777.355	948.72
777.537	836.08
777.719	850.42
777.901	776.69
778.083	823.8
778.265	754.16
778.447	823.8
778.629	764.4
778.811	856.56
778.993	784.88
779.175	844.28
779.357	735.73
779.539	707.06
779.721	733.68
779.903	711.16
780.085	700.92
780.267	780.79
780.449	741.88
780.631	702.97
780.812	791.03
780.994	707.06
781.176	721.4
781.358	723.44
781.54	662.01
781.721	780.79
781.903	686.58
782.085	682.49
782.267	702.97
782.448	623.09
782.63	631.29
782.812	575.99
782.993	692.73
783.175	694.77
783.357	639.48
783.538	621.05
783.72	580.09
783.901	649.72
784.083	600.57
784.264	657.91
784.446	604.66
784.627	643.57
784.809	594.42
784.99	569.85
785.172	586.23
785.353	588.28
785.535	604.66
785.716	604.66
785.897	596.47
786.079	610.81
786.26	567.8
786.441	586.23
786.623	489.98
786.804	543.22
786.985	535.03
787.167	561.66
787.348	500.22
787.529	510.46
787.71	498.17
787.891	492.02
788.073	524.79
788.254	449.02
788.435	537.08
788.616	551.42
788.797	463.35
788.978	467.45
789.159	453.11
789.34	549.37
789.522	459.26
789.703	455.16
789.884	434.68
790.065	475.64
790.246	459.26
790.427	489.98
790.607	518.65
790.788	479.74
790.969	436.73
791.15	483.83
791.331	469.5
791.512	455.16
791.693	375.29
791.874	377.34
792.054	504.31
792.235	416.25
792.416	438.78
792.597	334.33
792.778	451.07
792.958	397.82
793.139	397.82
793.32	489.98
793.5	373.24
793.681	446.97
793.862	416.25
794.042	375.29
794.223	406.01
794.404	367.1
794.584	342.52
794.765	471.54
794.945	403.96
795.126	406.01
795.306	320
795.487	375.29
795.667	377.34
795.848	385.53
796.028	385.53
796.209	322.04
796.389	354.81
796.57	322.04
796.75	358.91
796.93	367.1
797.111	403.96
797.291	377.34
797.471	363
797.652	309.76
797.832	397.82
798.012	401.91
798.192	363
798.373	371.19
798.553	358.91
798.733	412.15
798.913	346.62
799.093	293.37
799.274	311.8
799.454	360.95
799.634	344.57
799.814	381.43
799.994	320
800.174	317.95
800.354	344.57
800.534	303.61
800.714	326.14
800.894	274.94
801.074	262.65
801.254	330.23
801.434	307.71
801.614	322.04
801.794	270.84
801.974	676.34
802.154	285.18
802.334	322.04
802.514	297.47
802.693	244.22
802.873	258.56
803.053	274.94
803.233	209.4
803.413	313.85
803.592	303.61
803.772	274.94
803.952	252.41
804.131	240.12
804.311	270.84
804.491	381.43
804.67	328.19
804.85	350.71
805.03	291.32
805.209	283.13
805.389	256.51
805.568	287.23
805.748	303.61
805.928	285.18
806.107	283.13
806.287	295.42
806.466	279.04
806.646	274.94
806.825	279.04
807.004	229.88
807.184	258.56
807.363	264.7
807.543	250.36
807.722	250.36
807.901	291.32
808.081	289.28
808.26	201.21
808.439	246.27
808.619	266.75
808.798	256.51
808.977	164.35
809.156	266.75
809.336	160.25
809.515	213.5
809.694	193.02
809.873	168.45
810.052	260.6
810.231	256.51
810.411	199.16
810.59	248.32
810.769	258.56
810.948	262.65
811.127	248.32
811.306	172.54
811.485	225.79
811.664	160.25
811.843	283.13
812.022	213.5
812.201	178.69
812.38	197.12
812.559	193.02
812.737	201.21
812.916	176.64
813.095	172.54
813.274	180.73
813.453	152.06
813.632	244.22
813.811	199.16
813.989	174.59
814.168	223.74
814.347	170.49
814.526	176.64
814.704	209.4
814.883	141.82
815.062	160.25
815.24	252.41
815.419	186.88
815.598	238.08
815.776	205.31
815.955	166.4
816.133	197.12
816.312	172.54
816.49	145.92
816.669	137.73
816.847	143.87
817.026	119.29
817.204	225.79
817.383	182.78
817.561	154.11
817.74	164.35
817.918	195.07
818.097	176.64
818.275	131.58
818.453	244.22
818.632	152.06
818.81	139.77
818.988	156.16
819.167	143.87
819.345	184.83
819.523	139.77
819.701	236.03
819.879	178.69
820.058	190.97
820.236	164.35
820.414	74.24
820.592	176.64
820.77	139.77
820.948	131.58
821.127	162.3
821.305	160.25
821.483	139.77
821.661	213.5
821.839	137.73
822.017	102.91
822.195	57.86
822.373	172.54
822.551	115.2
822.729	186.88
822.907	137.73
823.085	137.73
823.262	184.83
823.44	180.73
823.618	147.97
823.796	190.97
823.974	133.63
824.152	213.5
824.329	156.16
824.507	186.88
824.685	166.4
824.863	68.09
825.04	180.73
825.218	154.11
825.396	145.92
825.574	176.64
825.751	80.38
825.929	80.38
826.107	90.62
826.284	160.25
826.462	150.01
826.639	129.53
826.817	145.92
826.994	168.45
827.172	96.77
827.349	152.06
827.527	150.01
827.704	98.81
827.882	156.16
828.059	113.15
828.237	107.01
828.414	131.58
828.591	20.99
828.769	100.86
828.946	109.05
829.124	113.15
829.301	119.29
829.478	84.48
829.655	133.63
829.833	76.29
830.01	4.61
830.187	84.48
830.364	59.9
830.542	113.15
830.719	123.39
830.896	166.4
831.073	162.3
831.25	92.67
831.427	88.57
831.604	31.23
831.782	133.63
831.959	135.68
832.136	184.83
832.313	197.12
832.49	111.1
832.667	90.62
832.844	33.28
833.021	84.48
833.198	178.69
833.374	147.97
833.551	115.2
833.728	94.72
833.905	66.05
834.082	57.86
834.259	127.49
834.436	137.73
834.612	172.54
834.789	147.97
834.966	57.86
835.143	111.1
835.319	98.81
835.496	131.58
835.673	129.53
835.85	156.16
836.026	100.86
836.203	127.49
836.38	78.33
836.556	94.72
836.733	111.1
836.909	174.59
837.086	131.58
837.262	8.7
837.439	39.42
837.616	96.77
837.792	137.73
837.968	88.57
838.145	82.43
838.321	33.28
838.498	197.12
838.674	20.99
838.851	25.09
839.027	37.38
839.203	78.33
839.38	125.44
839.556	113.15
839.732	129.53
839.909	20.99
840.085	53.76
840.261	82.43
840.437	123.39
840.614	90.62
840.79	98.81
840.966	90.62
841.142	61.95
841.318	82.43
841.494	115.2
841.671	49.66
841.847	43.52
842.023	82.43
842.199	59.9
842.375	68.09
842.551	76.29
842.727	104.96
842.903	111.1
843.079	96.77
843.255	96.77
843.431	33.28
843.607	43.52
843.783	16.9
843.959	57.86
844.134	68.09
844.31	92.67
844.486	41.47
844.662	80.38
844.838	139.77
845.013	100.86
845.189	61.95
845.365	80.38
845.541	92.67
845.716	129.53
845.892	111.1
846.068	125.44
846.244	-17.92
846.419	43.52
846.595	137.73
846.77	0.51
846.946	102.91
847.122	125.44
847.297	2.56
847.473	64
847.648	43.52
847.824	94.72
847.999	0.51
848.175	78.33
848.35	113.15
848.526	66.05
848.701	66.05
848.876	57.86
849.052	94.72
849.227	78.33
849.403	82.43
849.578	70.14
849.753	20.99
849.929	-1.54
850.104	96.77
850.279	53.76
850.454	125.44
850.63	70.14
850.805	23.04
850.98	90.62
851.155	-5.63
851.33	53.76
851.505	57.86
851.681	2.56
851.856	53.76
852.031	78.33
852.206	43.52
852.381	80.38
852.556	45.57
852.731	104.96
852.906	-44.54
853.081	47.62
853.256	102.91
853.431	25.09
853.606	25.09
853.781	68.09
853.956	33.28
854.131	88.57
854.305	27.14
854.48	39.42
854.655	55.81
854.83	107.01
855.005	29.18
855.18	76.29
855.354	51.71
855.529	33.28
855.704	31.23
855.879	74.24
856.053	37.38
856.228	39.42
856.403	47.62
856.577	41.47
856.752	37.38
856.926	-1.54
857.101	47.62
857.276	78.33
857.45	20.99
857.625	43.52
857.799	49.66
857.974	25.09
858.148	68.09
858.323	61.95
858.497	45.57
858.672	98.81
858.846	39.42
859.02	84.48
859.195	-75.26
859.369	92.67
859.543	76.29
859.718	12.8
859.892	41.47
860.066	37.38
860.241	14.85
860.415	57.86
860.589	10.75
860.763	127.49
860.938	68.09
861.112	-7.68
861.286	-7.68
861.46	-11.78
861.634	-5.63
861.808	92.67
861.982	0.51
862.157	78.33
862.331	31.23
862.505	51.71
862.679	29.18
862.853	25.09
863.027	61.95
863.201	45.57
863.375	43.52
863.549	6.66
863.722	35.33
863.896	80.38
864.07	33.28
864.244	-13.82
864.418	55.81
864.592	-15.87
864.766	45.57
864.939	55.81
865.113	-40.45
865.287	72.19
865.461	78.33
865.634	43.52
865.808	4.61
865.982	59.9
866.156	-7.68
866.329	57.86
866.503	47.62
866.676	92.67
866.85	16.9
867.024	86.53
867.197	72.19
867.371	74.24
867.544	25.09
867.718	-1.54
867.891	55.81
868.065	6.66
868.238	23.04
868.412	8.7
868.585	57.86
868.759	-3.58
868.932	-30.21
869.105	74.24
869.279	70.14
869.452	-3.58
869.625	37.38
869.799	27.14
869.972	66.05
870.145	66.05
870.319	78.33
870.492	45.57
870.665	-13.82
870.838	-1.54
871.011	57.86
871.185	39.42
871.358	86.53
871.531	-1.54
871.704	16.9
871.877	104.96
872.05	-3.58
872.223	25.09
872.396	25.09
872.569	98.81
872.742	45.57
872.915	31.23
873.088	6.66
873.261	12.8
873.434	-15.87
873.607	47.62
873.78	35.33
873.953	33.28
874.126	16.9
874.299	25.09
874.471	16.9
874.644	23.04
874.817	4.61
874.99	92.67
875.163	16.9
875.335	20.99
875.508	51.71
875.681	45.57
875.853	12.8
876.026	0.51
876.199	35.33
876.371	80.38
876.544	2.56
876.717	20.99
876.889	53.76
877.062	-7.68
877.234	25.09
877.407	25.09
877.579	45.57
877.752	49.66
877.924	14.85
878.097	25.09
878.269	-7.68
878.442	47.62
878.614	45.57
878.786	-22.02
878.959	94.72
879.131	-9.73
879.303	-32.26
879.476	59.9
879.648	86.53
879.82	23.04
879.993	18.94
880.165	74.24
880.337	4.61
880.509	-5.63
880.681	18.94
880.854	74.24
881.026	-42.5
881.198	102.91
881.37	6.66
881.542	-11.78
881.714	-7.68
881.886	107.01
882.058	70.14
882.23	80.38
882.402	-17.92
882.574	12.8
882.746	23.04
882.918	96.77
883.09	43.52
883.262	25.09
883.434	78.33
883.606	72.19
883.778	12.8
883.95	72.19
884.122	39.42
884.293	10.75
884.465	-5.63
884.637	61.95
884.809	-48.64
884.98	25.09
885.152	12.8
885.324	-13.82
885.496	-44.54
885.667	-42.5
885.839	-9.73
886.011	137.73
886.182	8.7
886.354	12.8
886.525	88.57
886.697	84.48
886.869	31.23
887.04	113.15
887.212	23.04
887.383	96.77
887.555	37.38
887.726	-5.63
887.897	86.53
888.069	-5.63
888.24	53.76
888.412	-50.69
888.583	0.51
888.754	-26.11
888.926	-24.06
889.097	59.9
889.268	59.9
889.44	82.43
889.611	90.62
889.782	45.57
889.953	4.61
890.125	86.53
890.296	-15.87
890.467	-62.98
890.638	-5.63
890.809	8.7
890.98	82.43
891.151	113.15
891.323	59.9
891.494	37.38
891.665	14.85
891.836	-17.92
892.007	-7.68
892.178	61.95
892.349	66.05
892.52	18.94
892.691	-19.97
892.862	51.71
893.032	-24.06
893.203	104.96
893.374	-3.58
893.545	16.9
893.716	8.7
893.887	-44.54
894.057	2.56
894.228	-13.82
894.399	8.7
894.57	41.47
894.74	59.9
894.911	61.95
895.082	33.28
895.253	33.28
895.423	-40.45
895.594	82.43
895.764	53.76
895.935	-40.45
896.106	39.42
896.276	-30.21
896.447	-15.87
896.617	47.62
896.788	39.42
896.958	66.05
897.129	4.61
897.299	31.23
897.47	29.18
897.64	29.18
897.81	2.56
897.981	29.18
898.151	-40.45
898.322	39.42
898.492	66.05
898.662	82.43
898.832	-40.45
899.003	25.09
899.173	-56.83
899.343	35.33
899.513	-19.97
