Data from USB4F104151__27__11-44-49-273.txt Node

Date: Fri Mar 14 11:44:49 EDT 2025
User: louis
Spectrometer: USB4F10415
Trigger mode: 4
Integration Time (sec): 2.000000E-2
Scans to average: 1
Electric dark correction enabled: true
Nonlinearity correction enabled: false
Boxcar width: 0
XAxis mode: Wavelengths
Number of Pixels in Spectrum: 3648
>>>>>Begin Spectral Data<<<<<
178.204	-13.48
178.424	-13.48
178.644	-13.48
178.864	-70.83
179.084	-29.87
179.304	86.87
179.524	-7.34
179.744	58.2
179.964	-5.29
180.184	-27.82
180.404	-31.91
180.624	-83.11
180.844	9.05
181.064	21.33
181.283	-33.96
181.503	-15.53
181.723	29.52
181.943	97.11
182.163	27.48
182.383	43.86
182.602	95.06
182.822	113.49
183.042	72.53
183.262	33.62
183.482	35.67
183.701	117.59
183.921	84.82
184.141	35.67
184.361	72.53
184.58	107.35
184.8	78.68
185.02	15.19
185.239	47.96
185.459	-9.39
185.679	78.68
185.898	68.44
186.118	62.29
186.338	88.92
186.557	99.16
186.777	113.49
186.997	146.26
187.216	-1.19
187.436	160.59
187.655	54.1
187.875	109.4
188.095	90.96
188.314	150.36
188.534	80.72
188.753	-42.15
188.973	72.53
189.192	140.12
189.412	84.82
189.631	-17.58
189.851	56.15
190.07	144.21
190.29	17.24
190.509	95.06
190.729	70.48
190.948	58.2
191.168	99.16
191.387	52.05
191.607	-11.43
191.826	70.48
192.045	68.44
192.265	101.2
192.484	78.68
192.704	82.77
192.923	93.01
193.142	52.05
193.362	62.29
193.581	64.34
193.8	144.21
194.02	66.39
194.239	76.63
194.458	88.92
194.678	23.38
194.897	60.24
195.116	103.25
195.335	119.64
195.555	70.48
195.774	72.53
195.993	152.4
196.212	68.44
196.432	66.39
196.651	21.33
196.87	21.33
197.089	68.44
197.308	90.96
197.528	54.1
197.747	0.85
197.966	146.26
198.185	209.75
198.404	140.12
198.623	82.77
198.842	78.68
199.062	43.86
199.281	60.24
199.5	41.81
199.719	109.4
199.938	80.72
200.157	113.49
200.376	43.86
200.595	123.73
200.814	66.39
201.033	113.49
201.252	95.06
201.471	52.05
201.69	33.62
201.909	74.58
202.128	7
202.347	52.05
202.566	68.44
202.785	80.72
203.004	37.72
203.223	86.87
203.442	86.87
203.661	121.68
203.879	68.44
204.098	74.58
204.317	29.52
204.536	95.06
204.755	121.68
204.974	115.54
205.193	86.87
205.411	115.54
205.63	70.48
205.849	56.15
206.068	97.11
206.287	56.15
206.505	97.11
206.724	33.62
206.943	76.63
207.162	72.53
207.381	88.92
207.599	74.58
207.818	76.63
208.037	33.62
208.255	60.24
208.474	43.86
208.693	101.2
208.911	90.96
209.13	50
209.349	60.24
209.567	86.87
209.786	62.29
210.005	105.3
210.223	80.72
210.442	47.96
210.661	103.25
210.879	58.2
211.098	80.72
211.316	80.72
211.535	70.48
211.753	66.39
211.972	70.48
212.191	62.29
212.409	88.92
212.628	64.34
212.846	47.96
213.065	11.09
213.283	23.38
213.502	62.29
213.72	56.15
213.938	111.44
214.157	74.58
214.375	93.01
214.594	99.16
214.812	74.58
215.031	39.76
215.249	76.63
215.467	54.1
215.686	31.57
215.904	99.16
216.122	101.2
216.341	52.05
216.559	95.06
216.778	31.57
216.996	7
217.214	121.68
217.432	-13.48
217.651	37.72
217.869	97.11
218.087	74.58
218.306	119.64
218.524	82.77
218.742	62.29
218.96	101.2
219.179	50
219.397	31.57
219.615	127.83
219.833	64.34
220.051	-25.77
220.27	62.29
220.488	13.14
220.706	93.01
220.924	-42.15
221.142	56.15
221.36	37.72
221.578	-5.29
221.796	115.54
222.015	66.39
222.233	105.3
222.451	105.3
222.669	64.34
222.887	146.26
223.105	25.43
223.323	29.52
223.541	86.87
223.759	7
223.977	82.77
224.195	70.48
224.413	56.15
224.631	45.91
224.849	15.19
225.067	88.92
225.285	37.72
225.503	82.77
225.721	15.19
225.939	31.57
226.157	88.92
226.375	101.2
226.592	23.38
226.81	103.25
227.028	82.77
227.246	80.72
227.464	43.86
227.682	54.1
227.9	119.64
228.117	93.01
228.335	37.72
228.553	56.15
228.771	-3.24
228.989	142.16
229.206	72.53
229.424	35.67
229.642	68.44
229.86	-23.72
230.077	117.59
230.295	25.43
230.513	111.44
230.731	146.26
230.948	39.76
231.166	68.44
231.384	31.57
231.601	86.87
231.819	90.96
232.037	23.38
232.254	21.33
232.472	68.44
232.689	74.58
232.907	23.38
233.125	84.82
233.342	43.86
233.56	74.58
233.777	105.3
233.995	66.39
234.213	103.25
234.43	113.49
234.648	19.29
234.865	35.67
235.083	35.67
235.3	19.29
235.518	125.78
235.735	62.29
235.953	52.05
236.17	68.44
236.388	68.44
236.605	111.44
236.822	113.49
237.04	97.11
237.257	66.39
237.475	78.68
237.692	133.97
237.909	88.92
238.127	88.92
238.344	68.44
238.562	37.72
238.779	29.52
238.996	60.24
239.214	80.72
239.431	84.82
239.648	4.95
239.865	45.91
240.083	23.38
240.3	0.85
240.517	58.2
240.735	76.63
240.952	121.68
241.169	82.77
241.386	60.24
241.603	62.29
241.821	58.2
242.038	70.48
242.255	86.87
242.472	0.85
242.689	103.25
242.907	37.72
243.124	54.1
243.341	70.48
243.558	66.39
243.775	76.63
243.992	7
244.209	58.2
244.426	107.35
244.643	-1.19
244.86	84.82
245.078	72.53
245.295	60.24
245.512	90.96
245.729	99.16
245.946	99.16
246.163	105.3
246.38	35.67
246.597	54.1
246.814	86.87
247.031	58.2
247.248	88.92
247.464	84.82
247.681	103.25
247.898	25.43
248.115	54.1
248.332	37.72
248.549	60.24
248.766	119.64
248.983	7
249.2	84.82
249.417	84.82
249.633	76.63
249.85	52.05
250.067	47.96
250.284	31.57
250.501	93.01
250.717	2.9
250.934	11.09
251.151	21.33
251.368	82.77
251.585	50
251.801	125.78
252.018	4.95
252.235	50
252.451	115.54
252.668	21.33
252.885	54.1
253.102	50
253.318	31.57
253.535	35.67
253.752	56.15
253.968	95.06
254.185	-17.58
254.401	101.2
254.618	62.29
254.835	78.68
255.051	66.39
255.268	66.39
255.484	11.09
255.701	54.1
255.917	78.68
256.134	29.52
256.351	45.91
256.567	35.67
256.784	74.58
257	76.63
257.217	101.2
257.433	58.2
257.65	58.2
257.866	47.96
258.082	39.76
258.299	23.38
258.515	54.1
258.732	31.57
258.948	60.24
259.165	56.15
259.381	45.91
259.597	27.48
259.814	39.76
260.03	113.49
260.246	84.82
260.463	78.68
260.679	88.92
260.895	54.1
261.112	43.86
261.328	70.48
261.544	-13.48
261.761	43.86
261.977	27.48
262.193	27.48
262.409	95.06
262.626	113.49
262.842	90.96
263.058	129.88
263.274	82.77
263.49	45.91
263.707	129.88
263.923	76.63
264.139	117.59
264.355	78.68
264.571	109.4
264.787	68.44
265.004	76.63
265.22	62.29
265.436	-1.19
265.652	41.81
265.868	80.72
266.084	54.1
266.3	60.24
266.516	47.96
266.732	62.29
266.948	103.25
267.164	56.15
267.38	64.34
267.596	27.48
267.812	60.24
268.028	72.53
268.244	43.86
268.46	90.96
268.676	72.53
268.892	76.63
269.108	62.29
269.324	76.63
269.54	74.58
269.756	80.72
269.972	95.06
270.188	50
270.403	56.15
270.619	74.58
270.835	99.16
271.051	31.57
271.267	29.52
271.483	131.92
271.698	136.02
271.914	127.83
272.13	31.57
272.346	164.69
272.562	76.63
272.777	181.07
272.993	43.86
273.209	41.81
273.425	43.86
273.64	152.4
273.856	43.86
274.072	41.81
274.287	119.64
274.503	105.3
274.719	84.82
274.934	58.2
275.15	95.06
275.366	86.87
275.581	11.09
275.797	121.68
276.012	52.05
276.228	45.91
276.444	101.2
276.659	88.92
276.875	74.58
277.09	43.86
277.306	35.67
277.521	70.48
277.737	78.68
277.952	58.2
278.168	37.72
278.383	37.72
278.599	113.49
278.814	35.67
279.03	43.86
279.245	117.59
279.461	43.86
279.676	129.88
279.892	84.82
280.107	150.36
280.322	60.24
280.538	62.29
280.753	93.01
280.969	17.24
281.184	50
281.399	107.35
281.615	78.68
281.83	72.53
282.045	35.67
282.26	25.43
282.476	78.68
282.691	176.98
282.906	88.92
283.122	50
283.337	11.09
283.552	133.97
283.767	2.9
283.983	76.63
284.198	84.82
284.413	88.92
284.628	15.19
284.843	97.11
285.058	-1.19
285.274	68.44
285.489	52.05
285.704	123.73
285.919	39.76
286.134	138.07
286.349	93.01
286.564	82.77
286.779	64.34
286.995	90.96
287.21	74.58
287.425	68.44
287.64	70.48
287.855	105.3
288.07	37.72
288.285	97.11
288.5	88.92
288.715	23.38
288.93	56.15
289.145	138.07
289.36	133.97
289.575	60.24
289.79	90.96
290.004	58.2
290.219	64.34
290.434	86.87
290.649	142.16
290.864	43.86
291.079	64.34
291.294	45.91
291.509	109.4
291.724	11.09
291.938	95.06
292.153	47.96
292.368	29.52
292.583	66.39
292.798	127.83
293.012	105.3
293.227	56.15
293.442	90.96
293.657	43.86
293.871	33.62
294.086	107.35
294.301	119.64
294.516	95.06
294.73	107.35
294.945	76.63
295.16	90.96
295.374	127.83
295.589	101.2
295.804	29.52
296.018	17.24
296.233	80.72
296.447	121.68
296.662	31.57
296.877	99.16
297.091	56.15
297.306	23.38
297.52	37.72
297.735	113.49
297.949	115.54
298.164	41.81
298.378	47.96
298.593	62.29
298.807	72.53
299.022	23.38
299.236	43.86
299.451	60.24
299.665	107.35
299.88	70.48
300.094	31.57
300.309	33.62
300.523	88.92
300.737	58.2
300.952	60.24
301.166	35.67
301.381	88.92
301.595	88.92
301.809	47.96
302.024	19.29
302.238	39.76
302.452	66.39
302.667	54.1
302.881	84.82
303.095	47.96
303.309	140.12
303.524	88.92
303.738	101.2
303.952	70.48
304.166	150.36
304.381	33.62
304.595	90.96
304.809	60.24
305.023	68.44
305.237	156.5
305.452	72.53
305.666	105.3
305.88	43.86
306.094	99.16
306.308	86.87
306.522	127.83
306.736	72.53
306.95	56.15
307.164	66.39
307.379	86.87
307.593	70.48
307.807	54.1
308.021	9.05
308.235	-11.43
308.449	64.34
308.663	62.29
308.877	125.78
309.091	-5.29
309.305	109.4
309.519	43.86
309.733	95.06
309.947	136.02
310.161	119.64
310.374	107.35
310.588	52.05
310.802	50
311.016	70.48
311.23	23.38
311.444	27.48
311.658	119.64
311.872	148.31
312.085	80.72
312.299	52.05
312.513	121.68
312.727	52.05
312.941	11.09
313.154	80.72
313.368	-9.39
313.582	107.35
313.796	158.55
314.009	88.92
314.223	127.83
314.437	129.88
314.651	158.55
314.864	27.48
315.078	97.11
315.292	125.78
315.505	101.2
315.719	-1.19
315.933	115.54
316.146	64.34
316.36	60.24
316.573	121.68
316.787	95.06
317.001	136.02
317.214	58.2
317.428	97.11
317.641	93.01
317.855	56.15
318.068	21.33
318.282	101.2
318.495	54.1
318.709	103.25
318.922	52.05
319.136	138.07
319.349	101.2
319.563	47.96
319.776	101.2
319.99	23.38
320.203	154.45
320.417	37.72
320.63	29.52
320.843	111.44
321.057	107.35
321.27	88.92
321.483	222.03
321.697	162.64
321.91	33.62
322.124	86.87
322.337	58.2
322.55	103.25
322.763	78.68
322.977	142.16
323.19	11.09
323.403	154.45
323.617	136.02
323.83	88.92
324.043	21.33
324.256	93.01
324.469	4.95
324.683	158.55
324.896	-31.91
325.109	19.29
325.322	105.3
325.535	140.12
325.748	86.87
325.962	47.96
326.175	76.63
326.388	82.77
326.601	99.16
326.814	45.91
327.027	76.63
327.24	103.25
327.453	74.58
327.666	109.4
327.879	107.35
328.092	76.63
328.305	113.49
328.518	37.72
328.731	31.57
328.944	52.05
329.157	39.76
329.37	72.53
329.583	60.24
329.796	78.68
330.009	15.19
330.222	97.11
330.435	33.62
330.648	90.96
330.861	64.34
331.073	76.63
331.286	142.16
331.499	-1.19
331.712	113.49
331.925	82.77
332.138	123.73
332.35	109.4
332.563	35.67
332.776	82.77
332.989	56.15
333.202	31.57
333.414	-19.63
333.627	95.06
333.84	86.87
334.053	86.87
334.265	58.2
334.478	99.16
334.691	68.44
334.903	68.44
335.116	50
335.329	13.14
335.541	103.25
335.754	140.12
335.966	88.92
336.179	156.5
336.392	43.86
336.604	7
336.817	80.72
337.029	131.92
337.242	60.24
337.454	97.11
337.667	95.06
337.88	115.54
338.092	15.19
338.305	86.87
338.517	23.38
338.729	103.25
338.942	109.4
339.154	21.33
339.367	93.01
339.579	168.79
339.792	45.91
340.004	52.05
340.217	138.07
340.429	39.76
340.641	70.48
340.854	148.31
341.066	45.91
341.278	103.25
341.491	93.01
341.703	109.4
341.915	4.95
342.128	99.16
342.34	86.87
342.552	88.92
342.764	74.58
342.977	68.44
343.189	76.63
343.401	74.58
343.613	138.07
343.826	47.96
344.038	113.49
344.25	80.72
344.462	66.39
344.674	64.34
344.886	17.24
345.099	80.72
345.311	127.83
345.523	47.96
345.735	0.85
345.947	97.11
346.159	43.86
346.371	45.91
346.583	72.53
346.795	109.4
347.007	80.72
347.219	47.96
347.431	78.68
347.643	84.82
347.855	64.34
348.067	56.15
348.279	72.53
348.491	60.24
348.703	88.92
348.915	86.87
349.127	76.63
349.339	95.06
349.551	9.05
349.763	60.24
349.975	84.82
350.187	103.25
350.399	52.05
350.61	113.49
350.822	11.09
351.034	136.02
351.246	142.16
351.458	39.76
351.669	101.2
351.881	101.2
352.093	86.87
352.305	107.35
352.517	93.01
352.728	123.73
352.94	88.92
353.152	144.21
353.363	56.15
353.575	95.06
353.787	138.07
353.999	142.16
354.21	78.68
354.422	148.31
354.633	88.92
354.845	127.83
355.057	76.63
355.268	140.12
355.48	54.1
355.692	72.53
355.903	211.79
356.115	103.25
356.326	74.58
356.538	97.11
356.749	80.72
356.961	142.16
357.172	95.06
357.384	58.2
357.595	107.35
357.807	27.48
358.018	27.48
358.23	82.77
358.441	111.44
358.653	62.29
358.864	97.11
359.075	35.67
359.287	146.26
359.498	125.78
359.709	88.92
359.921	50
360.132	80.72
360.344	119.64
360.555	138.07
360.766	97.11
360.977	80.72
361.189	99.16
361.4	74.58
361.611	66.39
361.823	129.88
362.034	86.87
362.245	88.92
362.456	62.29
362.667	138.07
362.879	86.87
363.09	76.63
363.301	66.39
363.512	86.87
363.723	27.48
363.935	84.82
364.146	84.82
364.357	152.4
364.568	54.1
364.779	111.44
364.99	84.82
365.201	127.83
365.412	86.87
365.623	64.34
365.834	115.54
366.045	50
366.256	164.69
366.467	109.4
366.678	82.77
366.889	88.92
367.1	50
367.311	90.96
367.522	150.36
367.733	146.26
367.944	99.16
368.155	76.63
368.366	101.2
368.577	72.53
368.788	62.29
368.999	82.77
369.209	154.45
369.42	103.25
369.631	111.44
369.842	86.87
370.053	111.44
370.264	105.3
370.474	58.2
370.685	131.92
370.896	95.06
371.107	123.73
371.317	56.15
371.528	52.05
371.739	62.29
371.95	117.59
372.16	111.44
372.371	76.63
372.582	144.21
372.792	121.68
373.003	179.03
373.214	64.34
373.424	123.73
373.635	54.1
373.846	115.54
374.056	62.29
374.267	78.68
374.477	107.35
374.688	133.97
374.898	125.78
375.109	156.5
375.319	86.87
375.53	136.02
375.74	13.14
375.951	54.1
376.161	90.96
376.372	45.91
376.582	99.16
376.793	64.34
377.003	95.06
377.214	119.64
377.424	138.07
377.635	136.02
377.845	45.91
378.055	226.13
378.266	119.64
378.476	111.44
378.686	136.02
378.897	142.16
379.107	166.74
379.317	129.88
379.528	115.54
379.738	105.3
379.948	45.91
380.158	144.21
380.369	127.83
380.579	62.29
380.789	136.02
380.999	72.53
381.21	70.48
381.42	142.16
381.63	115.54
381.84	82.77
382.05	45.91
382.261	86.87
382.471	103.25
382.681	50
382.891	111.44
383.101	185.17
383.311	103.25
383.521	86.87
383.731	64.34
383.941	142.16
384.151	146.26
384.361	72.53
384.571	119.64
384.781	129.88
384.991	88.92
385.201	164.69
385.411	144.21
385.621	109.4
385.831	125.78
386.041	54.1
386.251	45.91
386.461	146.26
386.671	140.12
386.881	82.77
387.091	60.24
387.301	148.31
387.511	176.98
387.72	78.68
387.93	125.78
388.14	111.44
388.35	72.53
388.56	168.79
388.769	103.25
388.979	150.36
389.189	66.39
389.399	111.44
389.609	131.92
389.818	131.92
390.028	103.25
390.238	117.59
390.447	121.68
390.657	131.92
390.867	93.01
391.076	107.35
391.286	101.2
391.496	107.35
391.705	109.4
391.915	146.26
392.125	176.98
392.334	185.17
392.544	187.22
392.753	133.97
392.963	146.26
393.172	136.02
393.382	80.72
393.591	172.88
393.801	23.38
394.01	127.83
394.22	76.63
394.429	131.92
394.639	58.2
394.848	131.92
395.058	105.3
395.267	111.44
395.477	109.4
395.686	142.16
395.895	127.83
396.105	252.75
396.314	47.96
396.524	166.74
396.733	109.4
396.942	148.31
397.152	199.51
397.361	228.18
397.57	162.64
397.78	111.44
397.989	121.68
398.198	172.88
398.407	121.68
398.617	160.59
398.826	195.41
399.035	127.83
399.244	119.64
399.453	183.12
399.663	203.6
399.872	170.83
400.081	176.98
400.29	113.49
400.499	103.25
400.708	140.12
400.917	150.36
401.127	211.79
401.336	150.36
401.545	219.99
401.754	185.17
401.963	109.4
402.172	117.59
402.381	125.78
402.59	142.16
402.799	219.99
403.008	158.55
403.217	119.64
403.426	113.49
403.635	213.84
403.844	232.27
404.053	193.36
404.262	160.59
404.471	201.55
404.68	217.94
404.888	179.03
405.097	275.28
405.306	236.37
405.515	197.46
405.724	219.99
405.933	226.13
406.142	240.47
406.35	211.79
406.559	203.6
406.768	211.79
406.977	303.95
407.185	226.13
407.394	269.14
407.603	285.52
407.812	303.95
408.02	275.28
408.229	301.9
408.438	326.48
408.646	295.76
408.855	260.95
409.064	371.54
409.272	222.03
409.481	377.68
409.69	367.44
409.898	377.68
410.107	412.5
410.315	451.41
410.524	316.24
410.733	430.93
410.941	406.35
411.15	465.74
411.358	424.78
411.567	498.51
411.775	453.45
411.984	539.47
412.192	467.79
412.401	590.67
412.609	549.71
412.818	559.95
413.026	557.9
413.234	504.65
413.443	639.82
413.651	588.62
413.86	701.26
414.068	711.5
414.276	725.83
414.485	815.94
414.693	789.32
414.901	785.23
415.11	799.56
415.318	844.62
415.526	877.38
415.734	811.85
415.943	916.3
416.151	951.11
416.359	936.78
416.567	965.45
416.776	992.07
416.984	1045.32
417.192	1047.37
417.4	1170.24
417.608	1110.85
417.817	1168.2
418.025	1264.45
418.233	1350.46
418.441	1389.38
418.649	1356.61
418.857	1475.39
419.065	1499.97
419.273	1579.84
419.481	1518.4
419.689	1661.76
419.897	1796.92
420.105	1700.67
420.313	1710.91
420.521	1854.27
420.729	1864.5
420.937	2020.15
421.145	2020.15
421.353	1983.29
421.561	2005.81
421.769	2288.43
421.977	2356.02
422.185	2317.11
422.393	2462.51
422.601	2599.73
422.809	2521.9
423.017	2595.63
423.224	2710.32
423.432	2863.91
423.64	2839.34
423.848	3044.13
424.056	3058.47
424.263	3255.08
424.471	3234.6
424.679	3277.6
424.887	3461.92
425.094	3519.26
425.302	3564.32
425.51	3771.16
425.718	3853.08
425.925	3932.95
426.133	4084.5
426.341	4252.44
426.548	4268.82
426.756	4356.88
426.964	4647.69
427.171	4635.41
427.379	4981.51
427.586	5018.38
427.794	5120.78
428.001	5217.03
428.209	5548.8
428.417	5475.07
428.624	5845.76
428.832	5778.17
429.039	5833.47
429.247	5810.94
429.454	6513.39
429.662	6791.92
429.869	6439.67
430.076	6841.07
430.284	6730.48
430.491	6888.17
430.699	7283.43
430.906	7258.85
431.114	7205.61
431.321	7568.1
431.528	7801.57
431.736	8243.93
431.943	8692.43
432.15	8397.53
432.358	8491.73
432.565	9032.4
432.772	8962.76
432.979	9388.74
433.187	9702.08
433.394	9638.59
433.601	10551.99
433.808	10398.39
434.016	10402.49
434.223	10601.14
434.43	11438.76
434.637	11205.29
434.844	11860.64
435.052	12057.25
435.259	11940.51
435.466	12036.77
435.673	11928.22
435.88	12685.97
436.087	13396.62
436.294	13568.65
436.501	13087.37
436.708	13537.93
436.915	13910.66
437.122	14320.25
437.329	14303.87
437.537	14830.2
437.743	15065.71
437.95	14832.24
438.157	15954.53
438.364	16175.71
438.571	16200.29
438.778	16462.43
438.985	17875.52
439.192	16962.13
439.399	17803.85
439.606	17080.91
439.813	18369.09
440.02	19137.07
440.227	18967.09
440.433	18870.84
440.64	19655.21
440.847	19286.58
441.054	20011.56
441.261	21168.66
441.467	20750.87
441.674	21269.01
441.881	22034.95
442.088	22008.33
442.294	21686.79
442.501	22450.69
442.708	22772.22
442.914	23740.91
443.121	24748.51
443.328	24054.25
443.534	25754.06
443.741	25102.81
443.948	24527.33
444.154	26268.1
444.361	26427.84
444.568	26661.31
444.774	26507.71
444.981	26716.61
445.187	27660.72
445.394	28869.02
445.6	28549.54
445.807	31318.39
446.013	29893.01
446.22	30120.33
446.426	31482.23
446.633	32090.48
446.839	33046.88
447.046	31644.02
447.252	33169.76
447.459	33483.09
447.665	33339.74
447.871	34580.81
448.078	35991.86
448.284	34439.5
448.491	35467.58
448.697	36452.65
448.903	37241.12
449.11	37527.83
449.316	36413.74
449.522	37617.94
449.728	38373.64
449.935	38467.85
450.141	38672.65
450.347	39690.49
450.553	38394.12
450.76	38936.84
450.966	40313.07
451.172	39987.44
451.378	40575.21
451.584	39592.19
451.791	40667.37
451.997	40468.72
452.203	41423.07
452.409	40775.91
452.615	40931.56
452.821	39622.9
453.027	39489.79
453.233	41208.03
453.44	39772.41
453.646	40239.34
453.852	40206.58
454.058	40866.02
454.264	39575.8
454.47	40610.03
454.676	39256.32
454.882	40829.16
455.088	37155.1
455.294	37830.93
455.5	38566.15
455.705	38854.92
455.911	37159.2
456.117	36544.81
456.323	36022.58
456.529	34093.39
456.735	35981.62
456.941	34982.21
457.147	34244.94
457.352	33007.97
457.558	32842.08
457.764	33065.31
457.97	32280.94
458.176	31162.75
458.381	31537.52
458.587	30224.78
458.793	29989.26
458.999	28486.05
459.204	30153.1
459.41	29847.95
459.616	27963.82
459.821	27630
460.027	27933.1
460.233	26978.75
460.438	25604.56
460.644	25950.67
460.85	24898.01
461.055	24295.91
461.261	24596.96
461.466	22635
461.672	21787.14
461.878	23454.19
462.083	21871.11
462.289	21572.11
462.494	21389.84
462.7	20458.01
462.905	19282.48
463.111	20412.96
463.316	20707.87
463.522	20175.39
463.727	19888.68
463.932	19935.78
464.138	19943.97
464.343	19753.51
464.549	19225.14
464.754	20161.06
464.959	19837.48
465.165	19628.59
465.37	18772.53
465.575	18442.81
465.781	18979.38
465.986	19221.04
466.191	18481.72
466.397	18102.85
466.602	17203.79
466.807	17941.06
467.012	18178.62
467.218	17893.96
467.423	17723.97
467.628	17842.76
467.833	18567.74
468.038	17738.31
468.244	17103.44
468.449	17959.49
468.654	17293.9
468.859	17168.98
469.064	17345.1
469.269	16388.7
469.474	16573.02
469.679	16876.12
469.885	16507.48
470.09	16659.03
470.295	16740.95
470.5	16085.6
470.705	16171.61
470.91	15721.06
471.115	15741.54
471.32	15764.07
471.525	15762.02
471.73	15686.25
471.935	15479.4
472.139	15127.15
472.344	14951.03
472.549	14893.68
472.754	14625.4
472.959	14568.06
473.164	14248.57
473.369	14047.87
473.574	14555.77
473.778	14363.26
473.983	14187.13
474.188	14011.01
474.393	13499.02
474.598	13693.57
474.802	13603.46
475.007	13578.89
475.212	13347.47
475.417	12964.5
475.621	12933.78
475.826	13003.41
476.031	12444.31
476.235	12518.04
476.44	12546.71
476.645	12325.53
476.849	12475.03
477.054	12472.98
477.259	12075.68
477.463	12216.99
477.668	11803.3
477.872	11899.55
478.077	11809.44
478.282	11295.4
478.486	11199.15
478.691	11338.41
478.895	11248.3
479.1	11199.15
479.304	11133.61
479.509	10781.36
479.713	11104.94
479.918	10853.04
480.122	10877.62
480.326	10685.11
480.531	10756.79
480.735	10603.19
480.94	10449.59
481.144	10822.32
481.348	10470.07
481.553	10422.97
481.757	10431.16
481.961	10265.27
482.166	10457.78
482.37	10259.13
482.574	10236.6
482.778	10461.88
482.983	10484.41
483.187	10508.98
483.391	10132.15
483.595	10386.1
483.8	10183.35
484.004	10457.78
484.208	10359.48
484.412	10365.62
484.616	10242.75
484.821	10375.86
485.025	10373.82
485.229	10257.08
485.433	10158.78
485.637	10416.82
485.841	10224.31
486.045	10197.69
486.249	10422.97
486.453	10263.22
486.657	10355.38
486.861	10404.53
487.065	10064.57
487.269	10306.23
487.473	10302.14
487.677	10392.25
487.881	10351.29
488.085	10224.31
488.289	10476.21
488.493	10230.46
488.697	10326.71
488.901	10224.31
489.105	10322.62
489.309	10212.03
489.512	10513.08
489.716	10582.71
489.92	10230.46
490.124	10339
490.328	10375.86
490.531	10445.49
490.735	10678.96
490.939	10611.38
491.143	10470.07
491.346	10666.67
491.55	10826.42
491.754	10654.39
491.958	10611.38
492.161	10588.85
492.365	10779.31
492.569	10824.37
492.772	10736.31
492.976	11096.75
493.18	10705.59
493.383	11207.34
493.587	11215.53
493.79	11305.64
493.994	11152.04
494.197	11240.11
494.401	11317.93
494.605	11545.25
494.808	11719.33
495.012	11522.73
495.215	11766.43
495.419	12010.14
495.622	11709.09
495.825	12096.16
496.029	12040.86
496.232	12212.89
496.436	12024.48
496.639	12419.74
496.843	12501.65
497.046	12624.53
497.249	12720.79
497.453	12638.87
497.656	12778.13
497.859	12761.75
498.063	13179.53
498.266	13376.14
498.469	13154.96
498.673	13169.29
498.876	13419.14
499.079	13757.06
499.282	13695.62
499.485	13879.94
499.689	14078.59
499.892	14287.48
500.095	14287.48
500.298	14772.85
500.501	14514.81
500.705	15045.23
500.908	15161.97
501.111	15125.1
501.314	15448.68
501.517	15483.5
501.72	15676.01
501.923	15577.7
502.126	16185.95
502.329	16116.32
502.532	16347.74
502.735	16403.04
502.938	16478.81
503.141	16480.86
503.344	16976.47
503.547	17109.58
503.75	17334.86
503.953	17744.45
504.156	17513.03
504.359	17910.34
504.562	17893.96
504.765	18217.54
504.968	18397.76
505.17	18391.61
505.373	18557.5
505.576	18995.76
505.779	18948.66
505.982	19313.2
506.185	19677.74
506.387	19626.54
506.59	19847.72
506.793	20353.57
506.996	19759.66
507.198	20701.72
507.401	20603.42
507.604	20978.2
507.807	21443.09
508.009	21465.61
508.212	21555.72
508.415	21801.48
508.617	22082.05
508.82	22180.35
509.022	22215.17
509.225	22761.98
509.428	22888.95
509.63	23116.28
509.833	22651.39
510.035	23833.07
510.238	23480.82
510.44	23654.89
510.643	24289.76
510.845	24359.39
511.048	24316.39
511.25	24605.15
511.453	24889.82
511.655	25414.1
511.858	25336.27
512.06	25225.68
512.262	25782.73
512.465	25678.29
512.667	26249.67
512.87	26524.1
513.072	26329.54
513.274	27349.43
513.477	27251.13
513.679	27435.44
513.881	27826.6
514.084	28279.21
514.286	28191.14
514.488	28035.5
514.69	29096.35
514.893	28928.41
515.095	28733.85
515.297	29391.25
515.499	29514.13
515.701	29704.59
515.904	30167.43
516.106	30493.06
516.308	30542.21
516.51	30491.01
516.712	31248.76
516.914	31269.24
517.116	31928.69
517.318	31871.34
517.52	32129.39
517.722	32293.22
517.925	32395.62
518.127	32762.21
518.329	32827.74
518.531	33089.88
518.733	33501.53
518.935	33982.8
519.136	33917.26
519.338	34408.78
519.54	34300.23
519.742	34920.77
519.944	34904.38
520.146	35406.14
520.348	35385.66
520.55	35653.94
520.752	35723.57
520.954	36577.58
521.155	35995.95
521.357	36641.06
521.559	36731.17
521.761	37667.09
521.963	37421.34
522.164	37366.04
522.366	37851.41
522.568	37935.38
522.77	38115.6
522.971	38660.36
523.173	38455.56
523.375	38916.36
523.576	39147.78
523.778	39215.36
523.98	39608.57
524.181	39819.51
524.383	39819.51
524.584	40251.63
524.786	40296.69
524.988	40190.19
525.189	40354.03
525.391	40775.91
525.592	41134.31
525.794	41177.31
525.995	41224.42
526.197	40954.08
526.398	41292
526.6	41523.42
526.801	41693.4
527.003	42254.54
527.204	41808.09
527.406	42229.97
527.607	42387.66
527.808	42541.26
528.01	41957.59
528.211	42686.67
528.412	43473.09
528.614	42645.71
528.815	42932.42
529.016	43438.27
529.218	43307.2
529.419	43614.4
529.62	43479.23
529.822	43434.17
530.023	43337.92
530.224	43393.22
530.425	43745.47
530.626	43296.96
530.828	43499.71
531.029	44050.61
531.23	43282.62
531.431	43688.12
531.632	44302.51
531.833	44220.59
532.035	43868.34
532.236	43913.4
532.437	44409.01
532.638	43708.6
532.839	44300.47
533.04	44466.35
533.241	44122.29
533.442	44863.66
533.643	44318.9
533.844	44406.96
534.045	44511.41
534.246	44116.15
534.447	44855.46
534.648	44286.13
534.849	44245.17
535.05	44468.4
535.251	44314.8
535.451	44064.95
535.652	44423.34
535.853	44515.5
536.054	44742.83
536.255	44431.54
536.456	43800.76
536.657	44933.29
536.857	44642.48
537.058	44355.76
537.259	44554.41
537.46	44488.88
537.66	44122.29
537.861	44564.65
538.062	44599.47
538.263	44880.04
538.463	44290.23
538.664	44228.79
538.865	44697.77
539.065	44918.95
539.266	44460.21
539.466	44800.17
539.667	44056.76
539.868	44894.38
540.068	44619.95
540.269	44417.2
540.469	44791.98
540.67	44284.08
540.87	44564.65
541.071	44554.41
541.271	44214.45
541.472	44273.84
541.672	44325.04
541.873	44060.85
542.073	43698.36
542.274	44116.15
542.474	44187.83
542.675	43972.79
542.875	44419.25
543.075	44196.02
543.276	43530.43
543.476	44126.39
543.676	44077.24
543.877	44181.68
544.077	44126.39
544.277	43913.4
544.478	44085.43
544.678	44402.86
544.878	44208.31
545.078	44384.43
545.279	43825.34
545.479	43532.48
545.679	44048.57
545.879	43737.27
546.079	43978.93
546.28	43897.02
546.48	43395.26
546.68	44056.76
546.88	43931.83
547.08	43802.81
547.28	43841.72
547.48	43802.81
547.68	43788.47
547.88	43344.06
548.081	44144.82
548.281	43667.64
548.481	43935.93
548.681	43745.47
548.881	43442.37
549.081	43673.79
549.28	43501.76
549.48	43978.93
549.68	43634.88
549.88	44140.72
550.08	43212.99
550.28	43641.02
550.48	43612.35
550.68	43897.02
550.88	43673.79
551.08	43557.05
551.279	43413.69
551.479	43643.07
551.679	43657.4
551.879	43880.63
552.079	43796.67
552.278	43389.12
552.478	43522.24
552.678	43796.67
552.878	43335.87
553.077	43198.66
553.277	42631.37
553.477	43794.62
553.676	43346.11
553.876	43083.97
554.076	43299.01
554.275	43366.59
554.475	42502.35
554.674	43141.32
554.874	43047.11
555.074	43266.24
555.273	43450.56
555.473	43325.63
555.672	42725.58
555.872	42868.94
556.071	43389.12
556.271	43102.4
556.47	42731.72
556.67	42473.68
556.869	43120.84
557.068	42948.81
557.268	42086.61
557.467	42279.12
557.667	42692.81
557.866	42563.79
558.065	42488.01
558.265	42436.81
558.464	42152.15
558.663	42432.72
558.863	42076.37
559.062	42784.97
559.261	42100.95
559.461	42442.96
559.66	42176.72
559.859	41928.92
560.058	41855.19
560.258	42043.6
560.457	41588.95
560.656	42197.2
560.855	41648.35
561.054	42213.59
561.253	41138.4
561.453	41357.53
561.652	41748.7
561.851	41857.24
562.05	41201.89
562.249	41232.61
562.448	41967.83
562.647	41072.87
562.846	41156.83
563.045	41021.67
563.244	40833.25
563.443	41517.28
563.642	40499.44
563.841	40900.84
564.04	40919.27
564.239	41269.47
564.438	40542.44
564.637	40364.27
564.836	40638.7
565.035	39854.33
565.234	40749.29
565.432	40399.08
565.631	40292.59
565.83	40274.16
566.029	39854.33
566.228	40274.16
566.427	39764.21
566.625	39641.34
566.824	39207.17
567.023	40108.27
567.222	39534.84
567.42	39981.3
567.619	39983.35
567.818	39375.1
568.016	38949.12
568.215	39545.08
568.414	38881.54
568.612	39377.15
568.811	38920.45
569.01	39307.52
569.208	38584.58
569.407	38940.93
569.605	38342.92
569.804	39180.54
570.002	38375.69
570.201	38682.89
570.4	38248.72
570.598	38195.47
570.797	38121.74
570.995	38209.81
571.193	38002.96
571.392	38596.87
571.59	38017.3
571.789	38199.57
571.987	37998.87
572.186	37861.65
572.384	37519.64
572.582	37818.64
572.781	37472.54
572.979	36925.73
573.177	37466.39
573.376	37364
573.574	37001.5
573.772	37249.31
573.971	37214.49
574.169	36806.95
574.367	36553
574.565	36835.62
574.763	37165.34
574.962	36628.77
575.16	36286.76
575.358	36509.99
575.556	35754.29
575.754	36843.81
575.952	36151.6
576.151	36364.59
576.349	36084.01
576.547	36014.38
576.745	35995.95
576.943	36174.13
577.141	35674.42
577.339	35727.67
577.537	35586.36
577.735	35651.89
577.933	35164.48
578.131	35582.26
578.329	35522.87
578.527	35273.02
578.725	35373.37
578.923	35082.56
579.121	34869.57
579.319	34885.95
579.516	35004.74
579.714	34830.66
579.912	34801.99
580.11	34795.84
580.308	34482.5
580.506	34234.7
580.704	33927.5
580.901	34263.37
581.099	34404.68
581.297	33671.51
581.495	34208.08
581.692	34044.24
581.89	33974.61
582.088	33818.96
582.285	33579.35
582.483	33591.64
582.681	33937.74
582.878	33280.35
583.076	33147.23
583.274	33360.22
583.471	32999.77
583.669	33104.22
583.866	32620.9
584.064	33096.03
584.262	32534.88
584.459	32944.48
584.657	32907.62
584.854	32510.31
585.052	32160.11
585.249	32573.8
585.447	32596.32
585.644	32379.24
585.841	31924.59
586.039	32489.83
586.236	31613.3
586.434	32258.41
586.631	31693.17
586.828	31957.36
587.026	31711.6
587.223	31314.3
587.42	31701.36
587.618	31830.38
587.815	31136.12
588.012	31293.82
588.21	31238.52
588.407	30931.33
588.604	31148.41
588.801	30884.22
588.999	30593.41
589.196	30753.15
589.393	30556.55
589.59	30767.49
589.787	30615.94
589.984	30550.4
590.182	30275.98
590.379	30507.4
590.576	30298.5
590.773	30159.24
590.97	29811.09
591.167	30407.05
591.364	30044.55
591.561	30196.1
591.758	29696.4
591.955	29708.69
592.152	29800.85
592.349	29405.59
592.546	29786.51
592.743	29940.11
592.94	29047.19
593.137	29538.71
593.334	29563.28
593.531	28936.6
593.727	29014.43
593.924	28979.61
594.121	28473.76
594.318	28821.92
594.515	28725.66
594.712	28801.44
594.908	28629.41
595.105	28457.38
595.302	28092.84
595.499	28348.84
595.696	28273.06
595.892	28180.9
596.089	28119.46
596.286	28215.72
596.482	27785.65
596.679	28049.83
596.876	28066.22
597.072	27931.05
597.269	27818.41
597.466	27523.51
597.662	27412.92
597.859	27161.01
598.055	27255.22
598.252	27179.45
598.448	27158.97
598.645	27486.64
598.841	26894.78
599.038	26943.93
599.234	26968.51
599.431	26798.52
599.627	26497.47
599.824	26980.79
600.02	26399.17
600.217	26362.31
600.413	26300.87
600.609	26104.26
600.806	25930.19
601.002	26128.84
601.198	26206.66
601.395	25948.62
601.591	25792.97
601.787	25887.18
601.984	25569.74
602.18	26266.05
602.376	25534.93
602.572	25383.38
602.769	25545.17
602.965	25477.58
603.161	25244.12
603.357	25379.28
603.553	25201.11
603.75	24951.26
603.946	24758.75
604.142	24957.4
604.338	24535.52
604.534	24656.35
604.73	24535.52
604.926	24695.26
605.122	24547.81
605.318	24627.68
605.514	24359.39
605.71	24044.01
605.906	24572.38
606.102	24336.87
606.298	24252.9
606.494	24060.39
606.69	24371.68
606.886	24113.64
607.082	23523.82
607.278	23740.91
607.474	23552.49
607.67	24015.33
607.866	23499.25
608.062	23570.93
608.257	23400.94
608.453	23613.93
608.649	23470.58
608.845	23384.56
609.041	23216.63
609.236	23464.43
609.432	23206.39
609.628	23228.91
609.824	23278.07
610.019	23081.46
610.215	23058.93
610.411	23171.57
610.606	22895.1
610.802	23106.04
610.998	22958.58
611.193	22862.33
611.389	22682.11
611.584	22774.27
611.78	22430.21
611.976	22792.7
612.171	22884.86
612.367	22755.83
612.562	22481.41
612.758	22094.34
612.953	22348.29
613.149	22678.01
613.344	22297.09
613.539	22696.44
613.735	22368.77
613.93	22374.91
614.126	22262.27
614.321	22366.72
614.517	22196.74
614.712	22204.93
614.907	21879.3
615.103	22202.88
615.298	21934.6
615.493	22311.42
615.688	21760.52
615.884	22022.66
616.079	21688.84
616.274	21748.23
616.47	21735.95
616.665	21993.99
616.86	21680.65
617.055	21797.38
617.25	21352.98
617.445	21672.46
617.641	21176.85
617.836	21807.62
618.031	21090.84
618.226	21219.86
618.421	20916.76
618.616	21269.01
618.811	20802.07
619.006	21080.6
619.201	20546.08
619.396	20941.33
619.591	20529.69
619.786	20627.99
619.981	20523.55
620.176	20765.21
620.371	20202.02
620.566	20367.9
620.761	20316.7
620.956	20195.87
621.151	20036.13
621.346	19900.97
621.541	19829.29
621.735	20212.26
621.93	19599.91
622.125	19520.04
622.32	19659.31
622.515	19882.53
622.709	19276.34
622.904	19208.75
623.099	19305.01
623.294	19327.53
623.488	19141.17
623.683	19130.93
623.878	18934.32
624.072	18663.99
624.267	18627.13
624.462	18790.97
624.656	18336.32
624.851	18264.64
625.046	18244.16
625.24	18285.12
625.435	17828.42
625.629	18123.33
625.824	17814.09
626.018	17973.83
626.213	17582.67
626.407	17588.81
626.602	17525.32
626.796	17396.3
626.991	17365.58
627.185	17189.46
627.38	17390.16
627.574	17128.02
627.768	16912.98
627.963	16663.13
628.157	16525.91
628.352	16773.72
628.546	16370.27
628.74	16573.02
628.935	16591.45
629.129	16603.74
629.323	16020.06
629.517	16177.76
629.712	15911.52
629.906	15878.76
630.1	15811.17
630.294	15778.4
630.489	15749.73
630.683	15843.94
630.877	15411.82
631.071	15485.55
631.265	15374.95
631.459	15356.52
631.653	15221.36
631.848	15078
632.042	15063.66
632.236	14959.22
632.43	15014.51
632.624	15069.81
632.818	14881.39
633.012	14787.19
633.206	14525.05
633.4	14506.62
633.594	14183.04
633.788	14477.94
633.982	14662.26
634.176	14439.03
634.369	14123.65
634.563	14072.45
634.757	14219.9
634.951	13994.62
635.145	13949.57
635.339	14187.13
635.533	14064.25
635.726	13482.63
635.92	13458.06
636.114	13693.57
636.308	13470.34
636.501	13488.78
636.695	13499.02
636.889	13230.73
637.083	13124.24
637.276	13134.48
637.47	13238.92
637.664	13140.62
637.857	12937.87
638.051	13077.13
638.244	12923.54
638.438	12925.58
638.632	12552.85
638.825	12591.77
639.019	12540.57
639.212	12343.96
639.406	12526.23
639.599	12546.71
639.793	12421.78
639.986	11991.71
640.18	12280.47
640.373	12241.56
640.567	12090.01
640.76	12096.16
640.954	11973.28
641.147	11598.5
641.34	11741.86
641.534	11754.15
641.727	11877.02
641.92	11633.32
642.114	11504.29
642.307	11649.7
642.5	11614.88
642.694	11375.27
642.887	11221.67
643.08	11371.18
643.273	11360.94
643.467	11113.13
643.66	11147.95
643.853	11121.32
644.046	10887.86
644.239	10982.06
644.432	10902.19
644.626	10748.59
644.819	10791.6
645.012	10736.31
645.205	10857.14
645.398	10658.48
645.591	10631.86
645.784	10615.48
645.977	10316.47
646.17	10371.77
646.363	10265.27
646.556	10169.02
646.749	10339
646.942	10402.49
647.135	10179.26
647.328	10220.22
647.521	9999.04
647.714	10070.72
647.907	9886.4
648.099	9976.51
648.292	9970.37
648.485	9933.5
648.678	9841.34
648.871	9706.18
649.064	9476.8
649.256	9489.09
649.449	9562.82
649.642	9401.03
649.835	9423.56
650.027	9306.82
650.22	9460.42
650.413	9272.01
650.605	9243.34
650.798	9261.77
650.991	9272.01
651.183	9251.53
651.376	8950.48
651.568	8909.52
651.761	8872.65
651.954	9112.27
652.146	8846.03
652.339	8952.52
652.531	8768.21
652.724	8899.28
652.916	8606.42
653.109	8696.53
653.301	8641.23
653.494	8622.8
653.686	8501.97
653.879	8479.44
654.071	8512.21
654.263	8295.13
654.456	8442.58
654.648	8252.12
654.84	8266.46
655.033	8168.15
655.225	8393.43
655.417	8233.69
655.61	8221.4
655.802	8078.04
655.994	8049.37
656.186	8194.78
656.379	7932.64
656.571	8092.38
656.763	7871.2
656.955	7811.81
657.148	7744.22
657.34	7908.06
657.532	7494.37
657.724	7711.46
657.916	7512.8
658.108	7590.63
658.3	7535.33
658.492	7637.73
658.684	7572.19
658.876	7402.21
659.068	7451.36
659.26	7365.35
659.452	7332.58
659.644	7344.87
659.836	7178.98
660.028	7097.07
660.22	7160.55
660.412	7201.51
660.604	7191.27
660.796	7193.32
660.988	7058.15
661.18	7095.02
661.372	6892.27
661.563	6986.47
661.755	6740.72
661.947	6845.16
662.139	6791.92
662.331	6873.84
662.522	6785.77
662.714	6673.14
662.906	6736.62
663.097	6685.42
663.289	6548.21
663.481	6423.28
663.673	6548.21
663.864	6521.59
664.056	6445.81
664.247	6408.95
664.439	6441.72
664.631	6367.99
664.822	6353.65
665.014	6353.65
665.205	6232.82
665.397	6073.08
665.588	6490.87
665.78	6220.53
665.971	6095.61
666.163	6161.14
666.354	5962.49
666.546	6089.46
666.737	5974.78
666.929	5991.16
667.12	5989.11
667.311	5868.28
667.503	5870.33
667.694	5819.13
667.885	5821.18
668.077	5921.53
668.268	5806.84
668.459	5741.31
668.651	5724.93
668.842	5649.15
669.033	5593.86
669.224	5733.12
669.416	5835.52
669.607	5718.78
669.798	5729.02
669.989	5606.14
670.18	5616.38
670.371	5585.66
670.563	5507.84
670.754	5475.07
670.945	5362.44
671.136	5552.9
671.327	5483.27
671.518	5217.03
671.709	5417.73
671.9	5452.55
672.091	5425.92
672.282	5339.91
672.473	5319.43
672.664	5391.11
672.855	5327.62
673.046	5286.66
673.237	5223.17
673.428	5180.17
673.619	5094.15
673.809	5075.72
674	5147.4
674.191	5053.19
674.382	4971.27
674.573	5047.05
674.764	5034.76
674.954	5030.66
675.145	4958.99
675.336	5040.9
675.527	4866.83
675.717	5194.5
675.908	5001.99
676.099	4948.75
676.289	5001.99
676.48	4887.31
676.671	4952.84
676.861	4879.11
677.052	4926.22
677.243	4786.96
677.433	4864.78
677.624	4852.49
677.814	4795.15
678.005	4739.85
678.195	4760.33
678.386	4856.59
678.576	4578.06
678.767	4672.27
678.957	4668.17
679.148	4797.2
679.338	4651.79
679.529	4561.68
679.719	4547.34
679.909	4735.76
680.1	4573.97
680.29	4596.5
680.481	4561.68
680.671	4496.14
680.861	4541.2
681.052	4408.08
681.242	4432.66
681.432	4588.3
681.622	4473.62
681.813	4360.98
682.003	4395.79
682.193	4475.67
682.383	4391.7
682.573	4418.32
682.764	4315.92
682.954	4371.22
683.144	4391.7
683.334	4412.18
683.524	4371.22
683.714	4283.16
683.904	4342.55
684.094	4430.61
684.284	4215.57
684.474	4354.83
684.664	4279.06
684.854	4268.82
685.044	4127.51
685.234	4250.39
685.424	4205.33
685.614	4186.9
685.804	4098.84
685.994	4174.61
686.184	4059.93
686.374	4145.94
686.564	4037.4
686.753	4090.65
686.943	4027.16
687.133	4066.07
687.323	4059.93
687.513	3992.34
687.702	4000.54
687.892	4021.02
688.082	3930.91
688.272	3902.23
688.461	4029.21
688.651	4010.78
688.841	3846.94
689.03	3947.29
689.22	3912.47
689.41	3853.08
689.599	3808.03
689.789	3842.84
689.979	3746.59
690.168	3730.2
690.358	3818.27
690.547	3767.07
690.737	3681.05
690.926	3717.92
691.116	3633.95
691.305	3695.39
691.495	3652.38
691.684	3588.89
691.874	3715.87
692.063	3525.41
692.252	3574.56
692.442	3595.04
692.631	3547.94
692.82	3468.06
693.01	3566.37
693.199	3425.06
693.388	3357.47
693.578	3461.92
693.767	3482.4
693.956	3423.01
694.146	3425.06
694.335	3361.57
694.524	3511.07
694.713	3345.19
694.902	3427.11
695.092	3281.7
695.281	3373.86
695.47	3267.36
695.659	3224.36
695.848	3218.21
696.037	3277.6
696.226	3240.74
696.415	3263.27
696.604	3267.36
696.793	3330.85
696.982	3281.7
697.171	3224.36
697.36	3226.4
697.549	3197.73
697.738	3048.23
697.927	3128.1
698.116	3214.12
698.305	3064.61
698.494	3210.02
698.683	3134.25
698.872	3177.25
699.061	3101.48
699.25	3054.37
699.438	2988.84
699.627	3029.8
699.816	2956.07
700.005	3103.53
700.193	3144.49
700.382	3064.61
700.571	2988.84
700.76	3087.14
700.948	2951.98
701.137	3019.56
701.326	2913.06
701.514	2880.3
701.703	3027.75
701.892	2947.88
702.08	3054.37
702.269	2939.69
702.457	2882.35
702.646	2962.22
702.834	2898.73
703.023	2880.3
703.212	2951.98
703.4	2915.11
703.589	3068.71
703.777	3011.37
703.965	2951.98
704.154	2917.16
704.342	2911.02
704.531	2921.26
704.719	2962.22
704.907	2890.54
705.096	2804.52
705.284	2915.11
705.472	2931.5
705.661	2855.72
705.849	2884.39
706.037	2851.63
706.226	2820.91
706.414	2812.71
706.602	2779.95
706.79	2954.02
706.979	2870.06
707.167	2890.54
707.355	2708.27
707.543	2845.48
707.731	2728.75
707.919	2843.43
708.107	2784.04
708.296	2880.3
708.484	2831.15
708.672	2814.76
708.86	2804.52
709.048	2779.95
709.236	2642.73
709.424	2732.84
709.612	2827.05
709.8	2714.41
709.988	2769.71
710.176	2954.02
710.364	2759.47
710.551	2861.87
710.739	2759.47
710.927	2718.51
711.115	2724.65
711.303	2751.28
711.491	2761.52
711.679	2724.65
711.866	2810.67
712.054	2851.63
712.242	2716.46
712.43	2702.12
712.617	2679.6
712.805	2784.04
712.993	2624.3
713.181	2812.71
713.368	2738.99
713.556	2757.42
713.744	2693.93
713.931	2784.04
714.119	2646.83
714.306	2843.43
714.494	2769.71
714.682	2712.36
714.869	2685.74
715.057	2794.28
715.244	2749.23
715.432	2749.23
715.619	2755.37
715.807	2763.56
715.994	2763.56
716.182	2685.74
716.369	2704.17
716.556	2802.47
716.744	2857.77
716.931	2695.98
717.119	2667.31
717.306	2702.12
717.493	2657.07
717.681	2652.97
717.868	2788.14
718.055	2706.22
718.242	2644.78
718.43	2829.1
718.617	2712.36
718.804	2722.6
718.991	2847.53
719.179	2644.78
719.366	2763.56
719.553	2730.8
719.74	2741.04
719.927	2874.15
720.114	2671.4
720.301	2761.52
720.488	2622.25
720.676	2728.75
720.863	2741.04
721.05	2755.37
721.237	2655.02
721.424	2777.9
721.611	2710.32
721.798	2773.8
721.985	2655.02
722.172	2636.59
722.358	2607.92
722.545	2638.64
722.732	2698.03
722.919	2814.76
723.106	2646.83
723.293	2702.12
723.48	2728.75
723.667	2634.54
723.853	2587.44
724.04	2769.71
724.227	2683.69
724.414	2728.75
724.6	2722.6
724.787	2747.18
724.974	2784.04
725.161	2685.74
725.347	2638.64
725.534	2671.4
725.72	2655.02
725.907	2767.66
726.094	2702.12
726.28	2632.49
726.467	2671.4
726.653	2712.36
726.84	2753.32
727.027	2755.37
727.213	2775.85
727.4	2724.65
727.586	2628.4
727.773	2736.94
727.959	2687.79
728.145	2677.55
728.332	2720.56
728.518	2730.8
728.705	2716.46
728.891	2753.32
729.077	2755.37
729.264	2726.7
729.45	2669.36
729.636	2884.39
729.823	2775.85
730.009	2700.08
730.195	2663.21
730.382	2761.52
730.568	2720.56
730.754	2726.7
730.94	2757.42
731.126	2747.18
731.313	2747.18
731.499	2687.79
731.685	2736.94
731.871	2747.18
732.057	2847.53
732.243	2685.74
732.429	2704.17
732.615	2689.84
732.801	2855.72
732.987	2710.32
733.173	2630.45
733.359	2640.69
733.545	2853.67
733.731	2788.14
733.917	2825
734.103	2865.96
734.289	2726.7
734.475	2677.55
734.661	2728.75
734.847	2724.65
735.033	2851.63
735.219	2612.01
735.404	2749.23
735.59	2726.7
735.776	2765.61
735.962	2728.75
736.148	2706.22
736.333	2829.1
736.519	2765.61
736.705	2632.49
736.89	2728.75
737.076	2700.08
737.262	2765.61
737.447	2685.74
737.633	2685.74
737.819	2792.23
738.004	2751.28
738.19	2681.64
738.375	2669.36
738.561	2831.15
738.747	2722.6
738.932	2706.22
739.118	2751.28
739.303	2663.21
739.489	2677.55
739.674	2571.05
739.859	2601.77
740.045	2683.69
740.23	2679.6
740.416	2632.49
740.601	2583.34
740.786	2638.64
740.972	2530.09
741.157	2603.82
741.342	2626.35
741.528	2583.34
741.713	2708.27
741.898	2659.12
742.084	2603.82
742.269	2612.01
742.454	2579.25
742.639	2558.77
742.824	2560.81
743.01	2698.03
743.195	2695.98
743.38	2501.42
743.565	2558.77
743.75	2538.29
743.935	2591.53
744.12	2667.31
744.305	2513.71
744.49	2482.99
744.675	2429.74
744.86	2403.12
745.045	2474.8
745.23	2478.9
745.415	2411.31
745.6	2444.08
745.785	2456.37
745.97	2345.78
746.155	2401.07
746.34	2423.6
746.525	2323.25
746.71	2450.22
746.895	2349.87
747.079	2325.3
747.264	2192.18
747.449	2456.37
747.634	2358.07
747.819	2222.9
748.003	2319.15
748.188	2229.04
748.373	2300.72
748.557	2337.59
748.742	2280.24
748.927	2143.03
749.111	2145.08
749.296	2222.9
749.481	2104.12
749.665	2231.09
749.85	2116.41
750.034	2071.35
750.219	2116.41
750.404	2227
750.588	2163.51
750.773	2108.21
750.957	2224.95
751.141	2091.83
751.326	1977.14
751.51	2052.92
751.695	1997.62
751.879	2104.12
752.064	2087.73
752.248	1905.46
752.432	1973.05
752.617	1960.76
752.801	2048.82
752.985	1950.52
753.17	1932.09
753.354	1897.27
753.538	2028.34
753.722	1893.18
753.907	1911.61
754.091	1858.36
754.275	1927.99
754.459	1819.45
754.643	1919.8
754.828	1891.13
755.012	1831.74
755.196	1866.55
755.38	1778.49
755.564	1770.3
755.748	1768.25
755.932	1755.96
756.116	1725.24
756.3	1778.49
756.484	1682.24
756.668	1809.21
756.852	1610.56
757.036	1657.66
757.22	1579.84
757.404	1690.43
757.588	1631.04
757.772	1727.29
757.956	1692.48
758.14	1577.79
758.323	1588.03
758.507	1561.41
758.691	1590.08
758.875	1669.95
759.059	1606.46
759.242	1485.63
759.426	1604.41
759.61	1485.63
759.794	1633.08
759.977	1442.62
760.161	1588.03
760.345	1585.98
760.528	1534.78
760.712	1598.27
760.895	1393.47
761.079	1510.21
761.263	1495.87
761.446	1405.76
761.63	1485.63
761.813	1512.25
761.997	1448.77
762.18	1348.42
762.364	1444.67
762.547	1424.19
762.731	1405.76
762.914	1407.81
763.098	1311.55
763.281	1407.81
763.464	1434.43
763.648	1370.94
763.831	1471.29
764.015	1356.61
764.198	1260.35
764.381	1338.18
764.564	1309.51
764.748	1497.92
764.931	1309.51
765.114	1252.16
765.297	1309.51
765.481	1297.22
765.664	1342.27
765.847	1272.64
766.03	1315.65
766.213	1207.11
766.397	1336.13
766.58	1153.86
766.763	1200.96
766.946	1250.11
767.129	1219.39
767.312	1188.68
767.495	1243.97
767.678	1215.3
767.861	1209.15
768.044	1342.27
768.227	1205.06
768.41	1194.82
768.593	1174.34
768.776	1258.31
768.959	1147.72
769.142	1203.01
769.324	1141.57
769.507	1256.26
769.69	1205.06
769.873	1131.33
770.056	1186.63
770.239	1235.78
770.421	1096.52
770.604	1082.18
770.787	1092.42
770.97	1188.68
771.152	1055.56
771.335	1153.86
771.518	1108.8
771.7	1078.08
771.883	1047.37
772.066	1028.93
772.248	1063.75
772.431	1026.89
772.613	1119.04
772.796	1039.17
772.978	1131.33
773.161	1098.56
773.343	1041.22
773.526	1102.66
773.708	1059.65
773.891	973.64
774.073	1045.32
774.256	1012.55
774.438	1004.36
774.621	981.83
774.803	1039.17
774.985	1049.41
775.168	1049.41
775.35	908.1
775.532	1053.51
775.715	942.92
775.897	979.78
776.079	940.87
776.261	920.39
776.444	963.4
776.626	928.58
776.808	858.95
776.99	899.91
777.173	942.92
777.355	942.92
777.537	793.42
777.719	883.53
777.901	973.64
778.083	820.04
778.265	848.71
778.447	867.14
778.629	897.86
778.811	817.99
778.993	842.57
779.175	846.66
779.357	826.18
779.539	701.26
779.721	861
779.903	729.93
780.085	678.73
780.267	895.82
780.449	695.11
780.631	754.51
780.812	803.66
780.994	781.13
781.176	774.99
781.358	709.45
781.54	772.94
781.721	691.02
781.903	811.85
782.085	770.89
782.267	736.07
782.448	717.64
782.63	668.49
782.812	742.22
782.993	734.03
783.175	723.79
783.357	598.86
783.538	705.35
783.72	633.68
783.901	654.16
784.083	650.06
784.264	699.21
784.446	666.44
784.627	637.77
784.809	691.02
784.99	639.82
785.172	676.68
785.353	568.14
785.535	678.73
785.716	713.55
785.897	537.42
786.079	566.09
786.26	598.86
786.441	633.68
786.623	518.99
786.804	574.28
786.985	498.51
787.167	602.96
787.348	574.28
787.529	549.71
787.71	645.96
787.891	582.48
788.073	559.95
788.254	633.68
788.435	555.85
788.616	537.42
788.797	539.47
788.978	543.57
789.159	480.08
789.34	471.89
789.522	484.17
789.703	516.94
789.884	504.65
790.065	518.99
790.246	531.28
790.427	451.41
790.607	504.65
790.788	545.61
790.969	398.16
791.15	461.65
791.331	527.18
791.512	523.09
791.693	363.34
791.874	469.84
792.054	469.84
792.235	506.7
792.416	420.69
792.597	484.17
792.778	469.84
792.958	369.49
793.139	504.65
793.32	398.16
793.5	432.97
793.681	432.97
793.862	480.08
794.042	357.2
794.223	418.64
794.404	441.17
794.584	428.88
794.765	424.78
794.945	324.43
795.126	396.11
795.306	430.93
795.487	447.31
795.667	392.02
795.848	344.91
796.028	432.97
796.209	426.83
796.389	389.97
796.57	473.93
796.75	369.49
796.93	410.45
797.111	400.21
797.291	373.58
797.471	430.93
797.652	342.86
797.832	387.92
798.012	445.26
798.192	318.29
798.373	387.92
798.553	346.96
798.733	369.49
798.913	248.66
799.093	369.49
799.274	443.21
799.454	398.16
799.634	334.67
799.814	410.45
799.994	375.63
800.174	359.25
800.354	365.39
800.534	299.86
800.714	361.3
800.894	283.47
801.074	361.3
801.254	340.82
801.434	357.2
801.614	324.43
801.794	332.62
801.974	715.59
802.154	273.23
802.334	326.48
802.514	318.29
802.693	295.76
802.873	299.86
803.053	316.24
803.233	338.77
803.413	211.79
803.592	258.9
803.772	359.25
803.952	285.52
804.131	338.77
804.311	322.38
804.491	324.43
804.67	297.81
804.85	318.29
805.03	310.1
805.209	295.76
805.389	301.9
805.568	232.27
805.748	301.9
805.928	297.81
806.107	277.33
806.287	326.48
806.466	258.9
806.646	299.86
806.825	371.54
807.004	342.86
807.184	250.71
807.363	340.82
807.543	279.38
807.722	277.33
807.901	357.2
808.081	322.38
808.26	240.47
808.439	295.76
808.619	273.23
808.798	283.47
808.977	258.9
809.156	232.27
809.336	236.37
809.515	193.36
809.694	181.07
809.873	217.94
810.052	246.61
810.231	228.18
810.411	301.9
810.59	287.57
810.769	205.65
810.948	244.56
811.127	281.43
811.306	336.72
811.485	219.99
811.664	310.1
811.843	252.75
812.022	254.8
812.201	242.51
812.38	250.71
812.559	267.09
812.737	219.99
812.916	267.09
813.095	275.28
813.274	246.61
813.453	226.13
813.632	209.75
813.811	211.79
813.989	154.45
814.168	299.86
814.347	236.37
814.526	244.56
814.704	230.23
814.883	203.6
815.062	189.27
815.24	232.27
815.419	211.79
815.598	217.94
815.776	224.08
815.955	244.56
816.133	203.6
816.312	230.23
816.49	203.6
816.669	205.65
816.847	224.08
817.026	246.61
817.204	187.22
817.383	222.03
817.561	179.03
817.74	179.03
817.918	197.46
818.097	215.89
818.275	154.45
818.453	189.27
818.632	230.23
818.81	166.74
818.988	168.79
819.167	205.65
819.345	203.6
819.523	195.41
819.701	205.65
819.879	230.23
820.058	185.17
820.236	158.55
820.414	187.22
820.592	211.79
820.77	250.71
820.948	226.13
821.127	166.74
821.305	228.18
821.483	115.54
821.661	283.47
821.839	244.56
822.017	148.31
822.195	191.31
822.373	230.23
822.551	164.69
822.729	205.65
822.907	88.92
823.085	133.97
823.262	193.36
823.44	193.36
823.618	199.51
823.796	111.44
823.974	60.24
824.152	164.69
824.329	179.03
824.507	148.31
824.685	127.83
824.863	164.69
825.04	131.92
825.218	146.26
825.396	183.12
825.574	183.12
825.751	78.68
825.929	187.22
826.107	90.96
826.284	158.55
826.462	119.64
826.639	222.03
826.817	93.01
826.994	183.12
827.172	121.68
827.349	181.07
827.527	90.96
827.704	215.89
827.882	144.21
828.059	113.49
828.237	185.17
828.414	209.75
828.591	86.87
828.769	150.36
828.946	189.27
829.124	191.31
829.301	215.89
829.478	125.78
829.655	150.36
829.833	179.03
830.01	66.39
830.187	183.12
830.364	107.35
830.542	127.83
830.719	125.78
830.896	121.68
831.073	93.01
831.25	127.83
831.427	144.21
831.604	111.44
831.782	152.4
831.959	142.16
832.136	111.44
832.313	160.59
832.49	142.16
832.667	131.92
832.844	121.68
833.021	115.54
833.198	115.54
833.374	66.39
833.551	121.68
833.728	181.07
833.905	127.83
834.082	93.01
834.259	166.74
834.436	107.35
834.612	109.4
834.789	127.83
834.966	146.26
835.143	191.31
835.319	43.86
835.496	176.98
835.673	131.92
835.85	140.12
836.026	152.4
836.203	191.31
836.38	129.88
836.556	179.03
836.733	131.92
836.909	193.36
837.086	156.5
837.262	54.1
837.439	179.03
837.616	90.96
837.792	111.44
837.968	78.68
838.145	99.16
838.321	103.25
838.498	62.29
838.674	152.4
838.851	115.54
839.027	84.82
839.203	84.82
839.38	127.83
839.556	170.83
839.732	74.58
839.909	-7.34
840.085	107.35
840.261	74.58
840.437	142.16
840.614	93.01
840.79	97.11
840.966	150.36
841.142	74.58
841.318	86.87
841.494	146.26
841.671	113.49
841.847	103.25
842.023	129.88
842.199	158.55
842.375	127.83
842.551	115.54
842.727	119.64
842.903	121.68
843.079	82.77
843.255	68.44
843.431	101.2
843.607	127.83
843.783	95.06
843.959	109.4
844.134	97.11
844.31	121.68
844.486	93.01
844.662	156.5
844.838	127.83
845.013	136.02
845.189	131.92
845.365	99.16
845.541	154.45
845.716	117.59
845.892	152.4
846.068	99.16
846.244	80.72
846.419	31.57
846.595	138.07
846.77	29.52
846.946	74.58
847.122	58.2
847.297	125.78
847.473	78.68
847.648	138.07
847.824	107.35
847.999	47.96
848.175	82.77
848.35	76.63
848.526	54.1
848.701	101.2
848.876	80.72
849.052	72.53
849.227	99.16
849.403	-9.39
849.578	138.07
849.753	64.34
849.929	133.97
850.104	121.68
850.279	99.16
850.454	62.29
850.63	129.88
850.805	119.64
850.98	133.97
851.155	90.96
851.33	109.4
851.505	62.29
851.681	146.26
851.856	70.48
852.031	88.92
852.206	60.24
852.381	35.67
852.556	119.64
852.731	127.83
852.906	60.24
853.081	154.45
853.256	39.76
853.431	11.09
853.606	105.3
853.781	101.2
853.956	103.25
854.131	64.34
854.305	52.05
854.48	35.67
854.655	52.05
854.83	76.63
855.005	86.87
855.18	88.92
855.354	99.16
855.529	80.72
855.704	74.58
855.879	103.25
856.053	58.2
856.228	133.97
856.403	33.62
856.577	140.12
856.752	72.53
856.926	99.16
857.101	95.06
857.276	101.2
857.45	154.45
857.625	90.96
857.799	64.34
857.974	93.01
858.148	0.85
858.323	109.4
858.497	19.29
858.672	52.05
858.846	84.82
859.02	113.49
859.195	60.24
859.369	93.01
859.543	103.25
859.718	39.76
859.892	93.01
860.066	82.77
860.241	76.63
860.415	117.59
860.589	101.2
860.763	54.1
860.938	19.29
861.112	66.39
861.286	7
861.46	95.06
861.634	86.87
861.808	82.77
861.982	123.73
862.157	103.25
862.331	93.01
862.505	119.64
862.679	105.3
862.853	39.76
863.027	129.88
863.201	84.82
863.375	41.81
863.549	80.72
863.722	80.72
863.896	29.52
864.07	88.92
864.244	78.68
864.418	39.76
864.592	50
864.766	93.01
864.939	78.68
865.113	35.67
865.287	78.68
865.461	56.15
865.634	35.67
865.808	76.63
865.982	31.57
866.156	62.29
866.329	93.01
866.503	123.73
866.676	109.4
866.85	72.53
867.024	-29.87
867.197	136.02
867.371	113.49
867.544	60.24
867.718	115.54
867.891	56.15
868.065	39.76
868.238	144.21
868.412	47.96
868.585	125.78
868.759	2.9
868.932	125.78
869.105	54.1
869.279	50
869.452	27.48
869.625	15.19
869.799	74.58
869.972	76.63
870.145	11.09
870.319	25.43
870.492	123.73
870.665	82.77
870.838	58.2
871.011	70.48
871.185	97.11
871.358	4.95
871.531	17.24
871.704	7
871.877	50
872.05	64.34
872.223	13.14
872.396	54.1
872.569	82.77
872.742	86.87
872.915	-5.29
873.088	66.39
873.261	64.34
873.434	43.86
873.607	64.34
873.78	4.95
873.953	-15.53
874.126	25.43
874.299	86.87
874.471	113.49
874.644	119.64
874.817	101.2
874.99	80.72
875.163	-17.58
875.335	54.1
875.508	47.96
875.681	62.29
875.853	0.85
876.026	45.91
876.199	90.96
876.371	82.77
876.544	-5.29
876.717	82.77
876.889	93.01
877.062	58.2
877.234	60.24
877.407	27.48
877.579	37.72
877.752	47.96
877.924	74.58
878.097	103.25
878.269	115.54
878.442	54.1
878.614	95.06
878.786	19.29
878.959	60.24
879.131	62.29
879.303	56.15
879.476	64.34
879.648	54.1
879.82	105.3
879.993	80.72
880.165	68.44
880.337	-38.06
880.509	50
880.681	39.76
880.854	86.87
881.026	27.48
881.198	84.82
881.37	88.92
881.542	84.82
881.714	80.72
881.886	17.24
882.058	23.38
882.23	60.24
882.402	111.44
882.574	23.38
882.746	80.72
882.918	119.64
883.09	60.24
883.262	31.57
883.434	54.1
883.606	4.95
883.778	62.29
883.95	25.43
884.122	25.43
884.293	60.24
884.465	7
884.637	121.68
884.809	37.72
884.98	41.81
885.152	97.11
885.324	54.1
885.496	62.29
885.667	95.06
885.839	-27.82
886.011	72.53
886.182	66.39
886.354	37.72
886.525	117.59
886.697	113.49
886.869	84.82
887.04	60.24
887.212	123.73
887.383	74.58
887.555	39.76
887.726	52.05
887.897	80.72
888.069	72.53
888.24	45.91
888.412	50
888.583	2.9
888.754	37.72
888.926	17.24
889.097	47.96
889.268	45.91
889.44	97.11
889.611	27.48
889.782	74.58
889.953	9.05
890.125	47.96
890.296	39.76
890.467	74.58
890.638	-15.53
890.809	31.57
890.98	105.3
891.151	52.05
891.323	66.39
891.494	25.43
891.665	72.53
891.836	70.48
892.007	19.29
892.178	99.16
892.349	2.9
892.52	144.21
892.691	-40.11
892.862	41.81
893.032	35.67
893.203	33.62
893.374	62.29
893.545	62.29
893.716	31.57
893.887	111.44
894.057	52.05
894.228	52.05
894.399	103.25
894.57	86.87
894.74	140.12
894.911	52.05
895.082	31.57
895.253	45.91
895.423	29.52
895.594	70.48
895.764	41.81
895.935	52.05
896.106	68.44
896.276	11.09
896.447	-5.29
896.617	9.05
896.788	39.76
896.958	54.1
897.129	95.06
897.299	27.48
897.47	27.48
897.64	47.96
897.81	123.73
897.981	47.96
898.151	72.53
898.322	68.44
898.492	33.62
898.662	23.38
898.832	27.48
899.003	-52.39
899.173	50
899.343	-27.82
899.513	39.76
