Data from USB4F104151__68__11-45-25-448.txt Node

Date: Fri Mar 14 11:45:25 EDT 2025
User: louis
Spectrometer: USB4F10415
Trigger mode: 4
Integration Time (sec): 2.000000E-2
Scans to average: 1
Electric dark correction enabled: true
Nonlinearity correction enabled: false
Boxcar width: 0
XAxis mode: Wavelengths
Number of Pixels in Spectrum: 3648
>>>>>Begin Spectral Data<<<<<
178.204	-99.33
178.424	-99.33
178.644	-99.33
178.864	-46.08
179.084	-95.23
179.304	11.26
179.524	-31.74
179.744	-54.27
179.964	31.74
180.184	19.46
180.404	-78.85
180.624	3.07
180.844	46.08
181.064	9.22
181.283	31.74
181.503	-41.98
181.723	54.27
181.943	-33.79
182.163	37.89
182.383	29.7
182.602	107.52
182.822	37.89
183.042	13.31
183.262	58.37
183.482	-11.26
183.701	64.51
183.921	-13.31
184.141	-9.22
184.361	109.57
184.58	27.65
184.8	-48.13
185.02	-76.8
185.239	138.24
185.459	39.94
185.679	50.18
185.898	-5.12
186.118	33.79
186.338	-7.17
186.557	13.31
186.777	-68.61
186.997	-35.84
187.216	115.71
187.436	-5.12
187.655	46.08
187.875	70.65
188.095	-3.07
188.314	72.7
188.534	19.46
188.753	54.27
188.973	23.55
189.192	72.7
189.412	-3.07
189.631	31.74
189.851	-68.61
190.07	46.08
190.29	82.94
190.509	-23.55
190.729	17.41
190.948	89.09
191.168	74.75
191.387	44.03
191.607	130.05
191.826	48.13
192.045	31.74
192.265	97.28
192.484	33.79
192.704	7.17
192.923	68.61
193.142	78.85
193.362	13.31
193.581	93.18
193.8	93.18
194.02	-19.46
194.239	-44.03
194.458	62.46
194.678	15.36
194.897	-37.89
195.116	-33.79
195.335	44.03
195.555	64.51
195.774	39.94
195.993	39.94
196.212	19.46
196.432	23.55
196.651	-13.31
196.87	-9.22
197.089	27.65
197.308	31.74
197.528	48.13
197.747	1.02
197.966	-41.98
198.185	31.74
198.404	11.26
198.623	-19.46
198.842	17.41
199.062	39.94
199.281	87.04
199.5	19.46
199.719	29.7
199.938	21.5
200.157	15.36
200.376	-3.07
200.595	91.13
200.814	11.26
201.033	58.37
201.252	-3.07
201.471	54.27
201.69	33.79
201.909	-21.5
202.128	-13.31
202.347	-9.22
202.566	-19.46
202.785	-50.18
203.004	7.17
203.223	-25.6
203.442	-15.36
203.661	-29.7
203.879	46.08
204.098	74.75
204.317	-1.02
204.536	-9.22
204.755	-3.07
204.974	44.03
205.193	23.55
205.411	58.37
205.63	23.55
205.849	101.37
206.068	39.94
206.287	7.17
206.505	-23.55
206.724	-39.94
206.943	50.18
207.162	9.22
207.381	19.46
207.599	-21.5
207.818	33.79
208.037	84.99
208.255	-52.22
208.474	3.07
208.693	78.85
208.911	-35.84
209.13	25.6
209.349	-21.5
209.567	-5.12
209.786	1.02
210.005	46.08
210.223	66.56
210.442	-41.98
210.661	37.89
210.879	52.22
211.098	17.41
211.316	91.13
211.535	1.02
211.753	-15.36
211.972	72.7
212.191	68.61
212.409	37.89
212.628	15.36
212.846	33.79
213.065	41.98
213.283	50.18
213.502	21.5
213.72	-50.18
213.938	13.31
214.157	109.57
214.375	27.65
214.594	82.94
214.812	11.26
215.031	39.94
215.249	-41.98
215.467	19.46
215.686	37.89
215.904	-11.26
216.122	54.27
216.341	101.37
216.559	5.12
216.778	-11.26
216.996	-1.02
217.214	-5.12
217.432	1.02
217.651	78.85
217.869	-15.36
218.087	13.31
218.306	-11.26
218.524	68.61
218.742	-82.94
218.96	-5.12
219.179	-7.17
219.397	3.07
219.615	25.6
219.833	27.65
220.051	13.31
220.27	13.31
220.488	17.41
220.706	37.89
220.924	48.13
221.142	46.08
221.36	-33.79
221.578	84.99
221.796	-21.5
222.015	50.18
222.233	-13.31
222.451	5.12
222.669	9.22
222.887	78.85
223.105	74.75
223.323	46.08
223.541	-39.94
223.759	39.94
223.977	-27.65
224.195	13.31
224.413	39.94
224.631	13.31
224.849	-15.36
225.067	44.03
225.285	62.46
225.503	-3.07
225.721	1.02
225.939	-1.02
226.157	23.55
226.375	48.13
226.592	-41.98
226.81	21.5
227.028	66.56
227.246	52.22
227.464	33.79
227.682	56.32
227.9	17.41
228.117	54.27
228.335	9.22
228.553	-21.5
228.771	-1.02
228.989	13.31
229.206	48.13
229.424	33.79
229.642	-23.55
229.86	13.31
230.077	97.28
230.295	-41.98
230.513	25.6
230.731	58.37
230.948	52.22
231.166	80.89
231.384	-5.12
231.601	41.98
231.819	1.02
232.037	-29.7
232.254	13.31
232.472	7.17
232.689	-13.31
232.907	44.03
233.125	-58.37
233.342	-9.22
233.56	31.74
233.777	7.17
233.995	39.94
234.213	21.5
234.43	76.8
234.648	-15.36
234.865	-19.46
235.083	46.08
235.3	60.42
235.518	54.27
235.735	27.65
235.953	70.65
236.17	-27.65
236.388	-31.74
236.605	134.14
236.822	31.74
237.04	78.85
237.257	56.32
237.475	11.26
237.692	25.6
237.909	58.37
238.127	37.89
238.344	66.56
238.562	58.37
238.779	3.07
238.996	11.26
239.214	-25.6
239.431	7.17
239.648	35.84
239.865	46.08
240.083	52.22
240.3	60.42
240.517	1.02
240.735	-44.03
240.952	60.42
241.169	-9.22
241.386	66.56
241.603	60.42
241.821	-17.41
242.038	48.13
242.255	64.51
242.472	-17.41
242.689	99.33
242.907	29.7
243.124	72.7
243.341	39.94
243.558	-33.79
243.775	60.42
243.992	15.36
244.209	21.5
244.426	72.7
244.643	-29.7
244.86	-27.65
245.078	68.61
245.295	-7.17
245.512	64.51
245.729	-9.22
245.946	5.12
246.163	-9.22
246.38	-1.02
246.597	37.89
246.814	21.5
247.031	25.6
247.248	17.41
247.464	33.79
247.681	72.7
247.898	97.28
248.115	46.08
248.332	-9.22
248.549	44.03
248.766	23.55
248.983	82.94
249.2	7.17
249.417	111.61
249.633	60.42
249.85	46.08
250.067	-11.26
250.284	37.89
250.501	62.46
250.717	87.04
250.934	-1.02
251.151	-66.56
251.368	87.04
251.585	-1.02
251.801	-31.74
252.018	21.5
252.235	80.89
252.451	7.17
252.668	46.08
252.885	19.46
253.102	54.27
253.318	9.22
253.535	-21.5
253.752	56.32
253.968	27.65
254.185	7.17
254.401	39.94
254.618	17.41
254.835	-5.12
255.051	54.27
255.268	-82.94
255.484	39.94
255.701	-9.22
255.917	68.61
256.134	-11.26
256.351	9.22
256.567	-1.02
256.784	132.09
257	-3.07
257.217	15.36
257.433	27.65
257.65	27.65
257.866	35.84
258.082	-7.17
258.299	48.13
258.515	72.7
258.732	-56.32
258.948	-25.6
259.165	25.6
259.381	9.22
259.597	87.04
259.814	-17.41
260.03	9.22
260.246	-1.02
260.463	70.65
260.679	37.89
260.895	91.13
261.112	87.04
261.328	-7.17
261.544	74.75
261.761	21.5
261.977	25.6
262.193	-13.31
262.409	-33.79
262.626	-41.98
262.842	29.7
263.058	-3.07
263.274	91.13
263.49	89.09
263.707	23.55
263.923	3.07
264.139	-31.74
264.355	-9.22
264.571	58.37
264.787	27.65
265.004	128
265.22	97.28
265.436	-39.94
265.652	-3.07
265.868	-44.03
266.084	23.55
266.3	54.27
266.516	-39.94
266.732	111.61
266.948	125.95
267.164	-60.42
267.38	-9.22
267.596	39.94
267.812	82.94
268.028	56.32
268.244	-39.94
268.46	23.55
268.676	33.79
268.892	58.37
269.108	5.12
269.324	-52.22
269.54	27.65
269.756	-5.12
269.972	23.55
270.188	19.46
270.403	37.89
270.619	66.56
270.835	5.12
271.051	91.13
271.267	37.89
271.483	-27.65
271.698	17.41
271.914	21.5
272.13	-3.07
272.346	91.13
272.562	15.36
272.777	58.37
272.993	39.94
273.209	-21.5
273.425	48.13
273.64	23.55
273.856	58.37
274.072	-3.07
274.287	-1.02
274.503	3.07
274.719	35.84
274.934	-17.41
275.15	-3.07
275.366	11.26
275.581	9.22
275.797	-17.41
276.012	68.61
276.228	62.46
276.444	15.36
276.659	3.07
276.875	-9.22
277.09	80.89
277.306	23.55
277.521	27.65
277.737	-13.31
277.952	72.7
278.168	3.07
278.383	132.09
278.599	-27.65
278.814	5.12
279.03	21.5
279.245	37.89
279.461	1.02
279.676	27.65
279.892	23.55
280.107	13.31
280.322	-41.98
280.538	7.17
280.753	9.22
280.969	111.61
281.184	48.13
281.399	62.46
281.615	29.7
281.83	11.26
282.045	3.07
282.26	41.98
282.476	-5.12
282.691	21.5
282.906	58.37
283.122	56.32
283.337	46.08
283.552	68.61
283.767	23.55
283.983	91.13
284.198	29.7
284.413	50.18
284.628	-31.74
284.843	46.08
285.058	-13.31
285.274	-19.46
285.489	48.13
285.704	41.98
285.919	3.07
286.134	-3.07
286.349	31.74
286.564	50.18
286.779	93.18
286.995	21.5
287.21	1.02
287.425	-15.36
287.64	44.03
287.855	62.46
288.07	-46.08
288.285	103.42
288.5	78.85
288.715	103.42
288.93	13.31
289.145	54.27
289.36	58.37
289.575	50.18
289.79	9.22
290.004	39.94
290.219	21.5
290.434	93.18
290.649	33.79
290.864	31.74
291.079	-13.31
291.294	-11.26
291.509	82.94
291.724	29.7
291.938	3.07
292.153	54.27
292.368	41.98
292.583	-17.41
292.798	54.27
293.012	64.51
293.227	44.03
293.442	72.7
293.657	9.22
293.871	101.37
294.086	87.04
294.301	80.89
294.516	62.46
294.73	46.08
294.945	37.89
295.16	31.74
295.374	11.26
295.589	117.76
295.804	-44.03
296.018	48.13
296.233	119.81
296.447	41.98
296.662	19.46
296.877	74.75
297.091	35.84
297.306	-17.41
297.52	-17.41
297.735	74.75
297.949	46.08
298.164	62.46
298.378	7.17
298.593	41.98
298.807	11.26
299.022	13.31
299.236	60.42
299.451	9.22
299.665	-21.5
299.88	44.03
300.094	15.36
300.309	7.17
300.523	-23.55
300.737	91.13
300.952	21.5
301.166	41.98
301.381	3.07
301.595	5.12
301.809	62.46
302.024	56.32
302.238	78.85
302.452	56.32
302.667	54.27
302.881	109.57
303.095	21.5
303.309	60.42
303.524	-23.55
303.738	52.22
303.952	-7.17
304.166	11.26
304.381	-7.17
304.595	125.95
304.809	15.36
305.023	-39.94
305.237	-11.26
305.452	-29.7
305.666	-33.79
305.88	48.13
306.094	-21.5
306.308	74.75
306.522	54.27
306.736	33.79
306.95	78.85
307.164	11.26
307.379	-1.02
307.593	70.65
307.807	-9.22
308.021	50.18
308.235	19.46
308.449	-19.46
308.663	17.41
308.877	56.32
309.091	25.6
309.305	109.57
309.519	-66.56
309.733	64.51
309.947	52.22
310.161	27.65
310.374	74.75
310.588	-25.6
310.802	50.18
311.016	95.23
311.23	39.94
311.444	33.79
311.658	41.98
311.872	37.89
312.085	50.18
312.299	15.36
312.513	52.22
312.727	-5.12
312.941	-21.5
313.154	107.52
313.368	19.46
313.582	64.51
313.796	97.28
314.009	31.74
314.223	80.89
314.437	68.61
314.651	17.41
314.864	25.6
315.078	134.14
315.292	27.65
315.505	60.42
315.719	117.76
315.933	48.13
316.146	5.12
316.36	48.13
316.573	111.61
316.787	19.46
317.001	15.36
317.214	82.94
317.428	101.37
317.641	29.7
317.855	48.13
318.068	41.98
318.282	19.46
318.495	70.65
318.709	99.33
318.922	54.27
319.136	60.42
319.349	41.98
319.563	11.26
319.776	17.41
319.99	-11.26
320.203	46.08
320.417	17.41
320.63	-9.22
320.843	123.9
321.057	25.6
321.27	33.79
321.483	25.6
321.697	39.94
321.91	72.7
322.124	87.04
322.337	21.5
322.55	19.46
322.763	111.61
322.977	74.75
323.19	39.94
323.403	39.94
323.617	-11.26
323.83	103.42
324.043	9.22
324.256	41.98
324.469	103.42
324.683	25.6
324.896	11.26
325.109	11.26
325.322	11.26
325.535	84.99
325.748	15.36
325.962	74.75
326.175	54.27
326.388	80.89
326.601	1.02
326.814	1.02
327.027	5.12
327.24	35.84
327.453	21.5
327.666	35.84
327.879	39.94
328.092	54.27
328.305	29.7
328.518	62.46
328.731	74.75
328.944	29.7
329.157	44.03
329.37	62.46
329.583	33.79
329.796	107.52
330.009	7.17
330.222	87.04
330.435	52.22
330.648	-54.27
330.861	74.75
331.073	121.85
331.286	91.13
331.499	99.33
331.712	66.56
331.925	72.7
332.138	46.08
332.35	58.37
332.563	-25.6
332.776	9.22
332.989	21.5
333.202	1.02
333.414	-44.03
333.627	-23.55
333.84	1.02
334.053	48.13
334.265	-17.41
334.478	37.89
334.691	48.13
334.903	11.26
335.116	-41.98
335.329	50.18
335.541	54.27
335.754	82.94
335.966	103.42
336.179	17.41
336.392	9.22
336.604	64.51
336.817	-17.41
337.029	76.8
337.242	-13.31
337.454	64.51
337.667	48.13
337.88	9.22
338.092	113.66
338.305	74.75
338.517	50.18
338.729	-3.07
338.942	44.03
339.154	-35.84
339.367	-31.74
339.579	-27.65
339.792	-25.6
340.004	128
340.217	-35.84
340.429	99.33
340.641	52.22
340.854	72.7
341.066	70.65
341.278	80.89
341.491	46.08
341.703	72.7
341.915	1.02
342.128	7.17
342.34	62.46
342.552	7.17
342.764	60.42
342.977	84.99
343.189	15.36
343.401	64.51
343.613	103.42
343.826	60.42
344.038	19.46
344.25	78.85
344.462	-15.36
344.674	119.81
344.886	64.51
345.099	130.05
345.311	60.42
345.523	21.5
345.735	25.6
345.947	50.18
346.159	-25.6
346.371	-1.02
346.583	50.18
346.795	138.24
347.007	58.37
347.219	62.46
347.431	1.02
347.643	123.9
347.855	72.7
348.067	76.8
348.279	37.89
348.491	60.42
348.703	41.98
348.915	74.75
349.127	-31.74
349.339	84.99
349.551	109.57
349.763	132.09
349.975	70.65
350.187	37.89
350.399	-25.6
350.61	1.02
350.822	-1.02
351.034	31.74
351.246	78.85
351.458	19.46
351.669	74.75
351.881	72.7
352.093	13.31
352.305	5.12
352.517	19.46
352.728	31.74
352.94	-9.22
353.152	50.18
353.363	7.17
353.575	-7.17
353.787	101.37
353.999	-21.5
354.21	29.7
354.422	19.46
354.633	-1.02
354.845	41.98
355.057	33.79
355.268	37.89
355.48	21.5
355.692	27.65
355.903	-3.07
356.115	13.31
356.326	7.17
356.538	62.46
356.749	66.56
356.961	50.18
357.172	9.22
357.384	-72.7
357.595	80.89
357.807	46.08
358.018	64.51
358.23	35.84
358.441	27.65
358.653	89.09
358.864	50.18
359.075	56.32
359.287	-5.12
359.498	103.42
359.709	82.94
359.921	13.31
360.132	82.94
360.344	33.79
360.555	82.94
360.766	62.46
360.977	60.42
361.189	99.33
361.4	41.98
361.611	50.18
361.823	95.23
362.034	60.42
362.245	50.18
362.456	35.84
362.667	17.41
362.879	37.89
363.09	21.5
363.301	105.47
363.512	46.08
363.723	-7.17
363.935	-13.31
364.146	113.66
364.357	64.51
364.568	-11.26
364.779	25.6
364.99	62.46
365.201	97.28
365.412	115.71
365.623	37.89
365.834	95.23
366.045	60.42
366.256	62.46
366.467	15.36
366.678	99.33
366.889	7.17
367.1	58.37
367.311	64.51
367.522	91.13
367.733	107.52
367.944	132.09
368.155	9.22
368.366	70.65
368.577	58.37
368.788	109.57
368.999	74.75
369.209	80.89
369.42	46.08
369.631	87.04
369.842	97.28
370.053	-29.7
370.264	74.75
370.474	58.37
370.685	99.33
370.896	23.55
371.107	52.22
371.317	37.89
371.528	27.65
371.739	15.36
371.95	17.41
372.16	84.99
372.371	19.46
372.582	60.42
372.792	-19.46
373.003	29.7
373.214	-17.41
373.424	91.13
373.635	105.47
373.846	33.79
374.056	78.85
374.267	80.89
374.477	70.65
374.688	31.74
374.898	-25.6
375.109	136.19
375.319	80.89
375.53	91.13
375.74	58.37
375.951	39.94
376.161	29.7
376.372	68.61
376.582	19.46
376.793	74.75
377.003	48.13
377.214	103.42
377.424	35.84
377.635	95.23
377.845	39.94
378.055	58.37
378.266	35.84
378.476	48.13
378.686	54.27
378.897	52.22
379.107	64.51
379.317	13.31
379.528	33.79
379.738	89.09
379.948	-37.89
380.158	101.37
380.369	62.46
380.579	-39.94
380.789	84.99
380.999	68.61
381.21	95.23
381.42	80.89
381.63	13.31
381.84	82.94
382.05	60.42
382.261	123.9
382.471	99.33
382.681	21.5
382.891	39.94
383.101	62.46
383.311	17.41
383.521	21.5
383.731	56.32
383.941	82.94
384.151	41.98
384.361	66.56
384.571	39.94
384.781	29.7
384.991	29.7
385.201	76.8
385.411	109.57
385.621	25.6
385.831	9.22
386.041	52.22
386.251	70.65
386.461	72.7
386.671	78.85
386.881	80.89
387.091	52.22
387.301	152.57
387.511	15.36
387.72	44.03
387.93	33.79
388.14	39.94
388.35	84.99
388.56	60.42
388.769	89.09
388.979	33.79
389.189	54.27
389.399	21.5
389.609	121.85
389.818	23.55
390.028	7.17
390.238	107.52
390.447	29.7
390.657	54.27
390.867	39.94
391.076	7.17
391.286	121.85
391.496	132.09
391.705	-7.17
391.915	162.81
392.125	66.56
392.334	101.37
392.544	52.22
392.753	64.51
392.963	9.22
393.172	121.85
393.382	41.98
393.591	78.85
393.801	105.47
394.01	142.33
394.22	115.71
394.429	109.57
394.639	91.13
394.848	82.94
395.058	64.51
395.267	46.08
395.477	95.23
395.686	105.47
395.895	99.33
396.105	140.29
396.314	56.32
396.524	87.04
396.733	84.99
396.942	119.81
397.152	171.01
397.361	150.53
397.57	111.61
397.78	150.53
397.989	87.04
398.198	93.18
398.407	82.94
398.617	44.03
398.826	173.05
399.035	78.85
399.244	111.61
399.453	199.68
399.663	173.05
399.872	121.85
400.081	41.98
400.29	95.23
400.499	148.48
400.708	111.61
400.917	56.32
401.127	117.76
401.336	80.89
401.545	164.86
401.754	115.71
401.963	166.91
402.172	11.26
402.381	99.33
402.59	113.66
402.799	154.62
403.008	123.9
403.217	189.44
403.426	181.25
403.635	158.72
403.844	162.81
404.053	132.09
404.262	99.33
404.471	232.44
404.68	162.81
404.888	91.13
405.097	154.62
405.306	146.43
405.515	183.29
405.724	115.71
405.933	273.4
406.142	214.01
406.35	207.87
406.559	177.15
406.768	189.44
406.977	201.72
407.185	257.02
407.394	259.07
407.603	185.34
407.812	232.44
408.02	254.97
408.229	244.73
408.438	334.84
408.646	312.32
408.855	300.03
409.064	330.75
409.272	291.84
409.481	392.19
409.69	312.32
409.898	332.79
410.107	349.18
410.315	316.41
410.524	275.45
410.733	412.67
410.941	478.2
411.15	510.97
411.358	443.39
411.567	504.82
411.775	404.47
411.984	431.1
412.192	517.11
412.401	502.78
412.609	486.39
412.818	558.07
413.026	629.75
413.234	541.69
413.443	639.99
413.651	560.12
413.86	623.61
414.068	609.27
414.276	695.29
414.485	734.2
414.693	809.97
414.901	801.78
415.11	760.82
415.318	709.62
415.526	893.94
415.734	863.22
415.943	1004.53
416.151	1031.15
416.359	908.27
416.567	1031.15
416.776	1129.45
416.984	1102.83
417.192	1151.98
417.4	1188.85
417.608	1217.52
417.817	1240.05
418.025	1311.72
418.233	1403.88
418.441	1346.54
418.649	1367.02
418.857	1373.16
419.065	1493.99
419.273	1506.28
419.481	1625.06
419.689	1739.75
419.897	1760.23
420.105	1825.76
420.313	1825.76
420.521	1901.54
420.729	1803.24
420.937	1979.36
421.145	2081.76
421.353	2175.97
421.561	2221.02
421.769	2245.6
421.977	2401.24
422.185	2364.38
422.393	2542.55
422.601	2714.58
422.809	2685.91
423.017	2665.43
423.224	2847.7
423.432	2980.82
423.64	3011.54
423.848	3146.7
424.056	3029.97
424.263	3285.97
424.471	3277.77
424.679	3521.48
424.887	3576.78
425.094	3589.07
425.302	3683.27
425.51	3791.81
425.718	4051.91
425.925	3974.08
426.133	4119.49
426.341	4346.81
426.548	4518.84
426.756	4608.95
426.964	4651.96
427.171	4942.77
427.379	5032.88
427.586	5075.89
427.794	5278.64
428.001	5596.07
428.209	5761.96
428.417	5706.66
428.624	6155.17
428.832	5962.66
429.039	6112.16
429.247	6001.57
429.454	6708.12
429.662	6943.64
429.869	6585.24
430.076	7123.86
430.284	7095.19
430.491	7373.71
430.699	7723.91
430.906	7562.12
431.114	7834.5
431.321	8223.62
431.528	8428.42
431.736	8590.2
431.943	8987.51
432.15	8946.55
432.358	8952.7
432.565	9188.21
432.772	9370.48
432.979	9790.31
433.187	9911.14
433.394	10226.53
433.601	10885.98
433.808	10578.78
434.016	10779.48
434.223	11203.41
434.43	11967.31
434.637	11606.86
434.844	12426.05
435.052	12763.97
435.259	12495.68
435.466	12686.14
435.673	12495.68
435.88	13310.77
436.087	14301.99
436.294	14023.47
436.501	13898.54
436.708	14091.05
436.915	14379.81
437.122	15424.28
437.329	15061.79
437.537	15563.54
437.743	15649.55
437.95	15690.51
438.157	16632.58
438.364	16968.45
438.571	17107.71
438.778	17134.33
438.985	18840.29
439.192	18092.78
439.399	18670.31
439.606	18082.54
439.813	19399.38
440.02	20613.83
440.227	19899.09
440.433	19692.24
440.64	20488.9
440.847	20638.41
441.054	21041.85
441.261	22194.86
441.467	21957.3
441.674	22469.29
441.881	23110.3
442.088	23165.6
442.294	22997.67
442.501	23480.99
442.708	24138.38
442.914	25160.32
443.121	25956.98
443.328	25301.63
443.534	27230.82
443.741	26661.48
443.948	25821.81
444.154	27937.37
444.361	27779.67
444.568	27976.28
444.774	27986.52
444.981	28256.85
445.187	28813.9
445.394	30573.1
445.6	30075.45
445.807	32977.42
446.013	31429.15
446.22	32045.59
446.426	33016.33
446.633	33511.94
446.839	34580.98
447.046	32991.75
447.252	34834.92
447.459	35183.08
447.665	35021.29
447.871	36485.59
448.078	37925.31
448.284	36270.55
448.491	37104.07
448.697	38889.9
448.903	39465.38
449.11	39877.02
449.316	38889.9
449.522	39629.22
449.728	40640.92
449.935	40913.3
450.141	40888.72
450.347	41941.38
450.553	40438.17
450.76	40941.97
450.966	41724.29
451.172	41775.49
451.378	42789.24
451.584	42027.39
451.791	42742.13
451.997	43012.46
452.203	43657.57
452.409	43604.33
452.615	43446.63
452.821	41722.24
453.027	41699.72
453.233	43778.4
453.44	42191.23
453.646	42670.45
453.852	42248.57
454.058	43243.88
454.264	41779.59
454.47	42574.2
454.676	41515.4
454.882	43170.16
455.088	39584.16
455.294	39934.37
455.5	40741.27
455.705	41003.41
455.911	39176.62
456.117	38750.64
456.323	38083
456.529	36004.31
456.735	37398.98
456.941	36829.65
457.147	35899.87
457.352	34961.9
457.558	34583.02
457.764	34732.53
457.97	34111.99
458.176	33442.31
458.381	33618.43
458.587	31984.15
458.793	31392.29
458.999	30075.45
459.204	32193.04
459.41	31255.08
459.616	29284.93
459.821	29471.29
460.027	29567.55
460.233	28398.16
460.438	27368.03
460.644	27611.74
460.85	26018.42
461.055	26126.96
461.261	26190.45
461.466	24087.18
461.672	23159.45
461.878	24867.46
462.083	23505.56
462.289	22934.18
462.494	22575.78
462.7	21668.53
462.905	21009.09
463.111	21668.53
463.316	21660.34
463.522	21463.74
463.727	21312.19
463.932	21189.31
464.138	21111.49
464.343	21109.44
464.549	20550.34
464.754	21174.97
464.959	21050.05
465.165	20851.39
465.37	19851.99
465.575	19428.06
465.781	20406.98
465.986	20292.3
466.191	19411.67
466.397	19354.33
466.602	18133.74
466.807	19436.25
467.012	19182.3
467.218	18883.3
467.423	18655.97
467.628	19018.46
467.833	19555.03
468.038	18612.96
468.244	18213.61
468.449	19157.72
468.654	18565.86
468.859	18250.47
469.064	18107.12
469.269	17289.98
469.474	17556.21
469.679	17861.36
469.885	17406.71
470.09	17513.2
470.295	17636.08
470.5	17119.99
470.705	17361.66
470.91	16679.68
471.115	16775.94
471.32	16950.01
471.525	16780.03
471.73	16372.49
471.935	16560.9
472.139	15938.32
472.344	16014.09
472.549	15612.69
472.754	15639.31
472.959	15430.42
473.164	15102.75
473.369	14975.77
473.574	15133.47
473.778	15420.18
473.983	15295.25
474.188	15074.07
474.393	14490.4
474.598	14449.44
474.802	14404.39
475.007	14250.79
475.212	14136.1
475.417	13902.64
475.621	13654.83
475.826	13566.77
476.031	13570.86
476.235	13278.01
476.44	13484.85
476.645	13278.01
476.849	13239.09
477.054	13093.69
477.259	12938.04
477.463	13001.53
477.668	12413.76
477.872	12700.48
478.077	12239.69
478.282	12190.53
478.486	12225.35
478.691	11955.02
478.895	11826
479.1	12020.55
479.304	11869
479.509	11475.79
479.713	11821.9
479.918	11580.24
480.122	11332.44
480.326	11479.89
480.531	11393.87
480.735	11260.76
480.94	11058.01
481.144	11737.93
481.348	11133.78
481.553	11219.8
481.757	10961.75
481.961	11064.15
482.166	11066.2
482.37	11090.77
482.574	10777.44
482.778	10935.13
482.983	11244.37
483.187	10906.46
483.391	10910.55
483.595	11062.1
483.8	10746.72
484.004	11182.93
484.208	10967.9
484.412	10865.5
484.616	11125.59
484.821	11045.72
485.025	10824.54
485.229	11043.67
485.433	11045.72
485.637	10957.66
485.841	10924.89
486.045	11043.67
486.249	10986.33
486.453	10824.54
486.657	11053.91
486.861	11070.3
487.065	10629.98
487.269	10953.56
487.473	10810.2
487.677	11072.34
487.881	10777.44
488.085	10922.84
488.289	11094.87
488.493	10771.29
488.697	11088.73
488.901	11045.72
489.105	10924.89
489.309	10959.7
489.512	11168.6
489.716	11023.19
489.92	11105.11
490.124	11053.91
490.328	11109.21
490.531	11072.34
490.735	11033.43
490.939	11189.08
491.143	11043.67
491.346	11111.25
491.55	11359.06
491.754	11502.42
491.958	11432.79
492.161	11545.42
492.365	11473.74
492.569	11445.07
492.772	11393.87
492.976	11522.9
493.18	11645.77
493.383	11813.71
493.587	11725.65
493.79	11885.39
493.994	11680.59
494.197	12030.79
494.401	12112.71
494.605	12219.21
494.808	12342.08
495.012	12337.99
495.215	12424
495.419	12452.67
495.622	12440.39
495.825	12565.31
496.029	12917.56
496.232	13118.26
496.436	12833.6
496.639	12946.23
496.843	13099.83
497.046	13239.09
497.249	13450.03
497.453	13802.29
497.656	13562.67
497.859	13878.06
498.063	13593.39
498.266	14054.19
498.469	14299.94
498.673	14441.25
498.876	14203.69
499.079	14598.95
499.282	14660.38
499.485	14738.21
499.689	14959.39
499.892	15348.5
500.095	15242.01
500.298	15725.33
500.501	15493.91
500.705	16012.04
500.908	15907.6
501.111	15862.54
501.314	16356.1
501.517	16612.1
501.72	16696.07
501.923	16597.76
502.126	16966.4
502.329	17253.11
502.532	17361.66
502.735	17439.48
502.938	17847.02
503.141	17701.62
503.344	18248.43
503.547	18014.96
503.75	18481.89
503.953	18698.98
504.156	18993.89
504.359	19127
504.562	18967.26
504.765	19485.4
504.968	19700.44
505.17	19731.15
505.373	19782.35
505.576	20118.22
505.779	20509.38
505.982	20447.94
506.185	21242.56
506.387	21271.23
506.59	20980.42
506.793	21652.15
506.996	21584.57
507.198	22317.74
507.401	21914.29
507.604	22399.66
507.807	22672.04
508.009	22717.09
508.212	22938.27
508.415	23403.16
508.617	23515.8
508.82	23605.91
509.022	23759.51
509.225	24267.41
509.428	24552.07
509.63	24156.82
509.833	24298.13
510.035	25244.29
510.238	24937.09
510.44	25594.49
510.643	26202.74
510.845	26096.24
511.048	25887.35
511.25	26094.19
511.453	26616.43
511.655	27488.86
511.858	27277.92
512.06	27408.99
512.262	27449.95
512.465	27724.38
512.667	28152.4
512.87	28570.19
513.072	28623.44
513.274	29008.45
513.477	29117
513.679	29653.56
513.881	29542.97
514.084	29749.82
514.286	30140.98
514.488	30063.16
514.69	30915.11
514.893	30902.82
515.095	30992.94
515.297	31564.32
515.499	31738.4
515.701	31918.62
515.904	32000.54
516.106	32573.97
516.308	32723.47
516.51	33065.48
516.712	33266.18
516.914	33806.84
517.116	34396.66
517.318	34255.35
517.52	34439.67
517.722	34679.28
517.925	35119.59
518.127	35846.62
518.329	36006.36
518.531	35871.2
518.733	36295.13
518.935	36436.44
519.136	36508.11
519.338	36819.41
519.54	37081.55
519.742	37777.86
519.944	37636.55
520.146	38549.94
520.348	38320.57
520.55	38402.49
520.752	38812.08
520.954	39090.6
521.155	39074.22
521.357	39455.14
521.559	39930.27
521.761	40806.8
521.963	40761.75
522.164	40935.82
522.366	40827.28
522.568	41220.49
522.77	41103.76
522.971	42496.38
523.173	41861.51
523.375	42080.64
523.576	42076.54
523.778	42285.43
523.98	43268.46
524.181	42725.75
524.383	43354.47
524.584	43518.31
524.786	43731.3
524.988	43432.3
525.189	43862.37
525.391	43993.44
525.592	44501.34
525.794	44595.54
525.995	44769.62
526.197	44468.57
526.398	45320.52
526.6	45369.68
526.801	45629.77
527.003	45597
527.204	45764.93
527.406	45996.35
527.607	46360.89
527.808	46444.86
528.01	45732.17
528.211	46225.73
528.412	46846.26
528.614	46950.71
528.815	46719.29
529.016	47440.17
529.218	46623.03
529.419	46895.41
529.62	47128.88
529.822	46776.63
530.023	47235.38
530.224	47276.33
530.425	47495.47
530.626	47020.34
530.828	46850.36
531.029	48443.68
531.23	47481.13
531.431	47458.6
531.632	47923.49
531.833	47970.6
532.035	48247.07
532.236	48050.47
532.437	47984.93
532.638	48167.2
532.839	48441.63
533.04	48218.4
533.241	47827.24
533.442	48218.4
533.643	48754.97
533.844	48285.98
534.045	48503.07
534.246	48122.15
534.447	49010.96
534.648	48525.6
534.849	48021.8
535.05	48066.85
535.251	48544.03
535.451	48392.48
535.652	49015.06
535.853	48298.27
536.054	48722.2
536.255	48939.29
536.456	48253.22
536.657	48826.65
536.857	48214.3
537.058	48486.68
537.259	48367.9
537.46	48855.32
537.66	48486.68
537.861	48417.05
538.062	48273.7
538.263	48367.9
538.463	48662.81
538.664	48304.41
538.865	48609.56
539.065	48779.54
539.266	47982.88
539.466	48828.69
539.667	48116
539.868	49000.72
540.068	48703.77
540.269	48613.66
540.469	48482.59
540.67	48275.74
540.87	48134.43
541.071	47941.92
541.271	48326.94
541.472	48656.67
541.672	48156.96
541.873	48367.9
542.073	47958.31
542.274	48929.05
542.474	48361.76
542.675	47982.88
542.875	48339.23
543.075	48283.94
543.276	47864.1
543.476	48630.04
543.676	48410.91
543.877	48363.81
544.077	48177.44
544.277	48245.02
544.478	48050.47
544.678	48427.29
544.878	47888.68
545.078	48392.48
545.279	47730.98
545.479	47845.67
545.679	48144.67
545.879	48179.49
546.079	48013.6
546.28	47675.69
546.48	47655.21
546.68	47997.22
546.88	48263.46
547.08	48150.82
547.28	47704.36
547.48	47767.85
547.68	48132.39
547.88	47264.05
548.081	48052.51
548.281	47886.63
548.481	47782.18
548.681	48097.57
548.881	47790.37
549.081	47821.09
549.28	47874.34
549.48	47855.91
549.68	47620.39
549.88	48707.86
550.08	47268.14
550.28	47857.96
550.48	47753.51
550.68	47960.36
550.88	47470.89
551.08	47876.39
551.279	47495.47
551.479	47483.18
551.679	47692.07
551.879	47059.25
552.079	47724.84
552.278	47282.48
552.478	47720.74
552.678	47747.37
552.878	47857.96
553.077	47341.87
553.277	47270.19
553.477	47849.77
553.676	47024.43
553.876	47413.55
554.076	47405.36
554.275	47468.84
554.475	47102.26
554.674	47411.5
554.874	47305.01
555.074	47081.78
555.273	46909.75
555.473	47216.94
555.672	46598.46
555.872	47104.31
556.071	46930.23
556.271	47030.58
556.47	47200.56
556.67	46250.3
556.869	46586.17
557.068	46942.52
557.268	46367.04
557.467	46958.9
557.667	46903.6
557.866	46731.57
558.065	46367.04
558.265	46616.89
558.464	46264.64
558.663	46731.57
558.863	46139.71
559.062	46803.25
559.261	46051.65
559.461	46813.49
559.66	45699.4
559.859	46143.81
560.058	45490.51
560.258	45988.16
560.457	45429.07
560.656	46291.26
560.855	45496.65
561.054	46129.47
561.253	45306.19
561.453	45654.34
561.652	45721.93
561.851	45623.62
562.05	45240.65
562.249	44845.4
562.448	45242.7
562.647	45218.13
562.846	45492.55
563.045	45148.5
563.244	44626.26
563.443	45392.2
563.642	44568.92
563.841	44880.21
564.04	44644.69
564.239	45056.34
564.438	44544.34
564.637	44718.42
564.836	44775.76
565.035	44568.92
565.234	44536.15
565.432	43964.77
565.631	44177.76
565.83	44011.87
566.029	43821.41
566.228	43882.85
566.427	43702.63
566.625	43456.87
566.824	43190.64
567.023	43755.88
567.222	43456.87
567.42	43854.18
567.619	43235.69
567.818	43428.2
568.016	42895.73
568.215	43309.42
568.414	42912.11
568.612	43428.2
568.811	42985.84
569.01	42789.24
569.208	41959.81
569.407	42772.85
569.605	42488.18
569.804	42985.84
570.002	42070.4
570.201	42353.02
570.4	42150.27
570.598	41865.6
570.797	41914.75
570.995	41834.88
571.193	41376.14
571.392	41902.46
571.59	41376.14
571.789	41488.77
571.987	41251.21
572.186	40987.02
572.384	41091.47
572.582	41187.72
572.781	41408.9
572.979	40814.99
573.177	40911.25
573.376	41091.47
573.574	40679.83
573.772	40976.78
573.971	40456.6
574.169	40483.22
574.367	40010.14
574.565	40591.76
574.763	40372.63
574.962	40176.03
575.16	39702.95
575.358	40290.71
575.556	39604.64
575.754	40053.15
575.952	39535.01
576.151	39917.98
576.349	39104.94
576.547	39729.57
576.745	39457.19
576.943	39438.76
577.141	39113.13
577.339	39027.12
577.537	39168.43
577.735	38855.09
577.933	38816.18
578.131	38779.31
578.329	38676.91
578.527	38066.62
578.725	38320.57
578.923	38455.73
579.121	38203.83
579.319	38304.18
579.516	37904.83
579.714	37906.88
579.912	37808.58
580.11	37996.99
580.308	37824.96
580.506	37542.34
580.704	37312.97
580.901	37509.57
581.099	37620.16
581.297	36997.58
581.495	37188.04
581.692	37466.56
581.89	36774.35
582.088	37104.07
582.285	36405.72
582.483	36913.61
582.681	36880.85
582.878	36770.25
583.076	36448.72
583.274	36784.59
583.471	36280.79
583.669	36114.9
583.866	36200.92
584.064	36305.37
584.262	35758.56
584.459	35842.53
584.657	35828.19
584.854	36123.1
585.052	35351.01
585.249	35824.09
585.447	35703.26
585.644	35322.34
585.841	35256.81
586.039	35312.1
586.236	34875.88
586.434	35009
586.631	34585.07
586.828	34812.4
587.026	34546.16
587.223	34757.1
587.42	34580.98
587.618	34572.78
587.815	34271.73
588.012	34187.77
588.21	34408.95
588.407	34365.94
588.604	34011.64
588.801	33626.62
588.999	34150.9
589.196	33790.46
589.393	33710.59
589.59	33550.85
589.787	33464.83
589.984	33638.91
590.182	33055.24
590.379	33450.5
590.576	32846.35
590.773	32838.15
590.97	33069.58
591.167	32973.32
591.364	32311.83
591.561	32746
591.758	32342.55
591.955	32422.42
592.152	32786.96
592.349	32047.64
592.546	32164.37
592.743	31896.09
592.94	31992.34
593.137	31910.43
593.334	32041.5
593.531	31408.67
593.727	31511.07
593.924	31861.27
594.121	31519.26
594.318	31711.77
594.515	31074.85
594.712	31810.07
594.908	31144.48
595.105	31017.51
595.302	31191.59
595.499	30992.94
595.696	30773.8
595.892	30493.23
596.089	30984.74
596.286	30884.39
596.482	30659.12
596.679	30194.23
596.876	30390.83
597.072	30116.4
597.269	30300.72
597.466	30145.08
597.662	30018.1
597.859	30153.27
598.055	29993.53
598.252	29950.52
598.448	29887.03
598.645	29360.7
598.841	29225.54
599.038	29612.6
599.234	29565.5
599.431	28951.11
599.627	28813.9
599.824	29317.7
600.02	28953.16
600.217	29067.84
600.413	28752.46
600.609	28760.65
600.806	28396.11
601.002	28574.28
601.198	28541.52
601.395	28146.26
601.591	28373.58
601.787	28234.32
601.984	28240.47
602.18	28254.8
602.376	27970.13
602.572	27978.33
602.769	27691.61
602.965	27898.45
603.161	27980.37
603.357	27712.09
603.553	27517.53
603.75	27675.23
603.946	27069.03
604.142	27302.5
604.338	27390.56
604.534	27296.35
604.73	26780.26
604.926	26888.81
605.122	27247.2
605.318	27019.88
605.514	26661.48
605.71	26614.38
605.906	26442.35
606.102	26532.46
606.298	26808.93
606.494	26421.87
606.69	26444.4
606.886	26229.36
607.082	26129.01
607.278	26364.53
607.474	25705.08
607.67	26264.18
607.866	25604.73
608.062	26176.11
608.257	25879.16
608.453	25870.97
608.649	26198.64
608.845	25674.36
609.041	25406.08
609.236	25526.91
609.432	25307.77
609.628	25426.56
609.824	25643.64
610.019	25080.45
610.215	25336.45
610.411	25533.05
610.606	25158.27
610.802	25361.02
610.998	25121.41
611.193	24973.95
611.389	25021.06
611.584	25066.11
611.78	24722.05
611.976	25086.59
612.171	24783.49
612.367	24851.08
612.562	24754.82
612.758	24613.51
612.953	24418.96
613.149	25084.55
613.344	24271.5
613.539	24728.2
613.735	24461.96
613.93	24607.37
614.126	24564.36
614.321	24689.29
614.517	24185.49
614.712	24167.06
614.907	24201.87
615.103	24404.62
615.298	24275.6
615.493	24687.24
615.688	24011.41
615.884	24482.44
616.079	23843.48
616.274	24101.52
616.47	24171.15
616.665	23986.83
616.86	23696.02
617.055	23800.47
617.25	23532.18
617.445	24078.99
617.641	23532.18
617.836	23552.66
618.031	23118.5
618.226	23661.21
618.421	23173.79
618.616	23704.21
618.811	23347.87
619.006	23526.04
619.201	22940.32
619.396	23155.36
619.591	22725.29
619.786	22866.6
619.981	22241.96
620.176	22993.57
620.371	22409.9
620.566	22520.49
620.761	22424.23
620.956	22477.48
621.151	21842.61
621.346	22457
621.541	22137.52
621.735	22207.15
621.93	21631.67
622.125	21705.4
622.32	21615.29
622.515	21605.05
622.709	21306.04
622.904	21328.57
623.099	20943.55
623.294	20929.22
623.488	21080.77
623.683	20927.17
623.878	20622.02
624.072	20624.07
624.267	20488.9
624.462	20449.99
624.656	20265.67
624.851	20163.28
625.046	20398.79
625.24	20247.24
625.435	19806.93
625.629	19700.44
625.824	19679.96
626.018	19559.13
626.213	19217.11
626.407	19339.99
626.602	19198.68
626.796	19319.51
626.991	19086.04
627.185	19239.64
627.38	18879.2
627.574	18959.07
627.768	18862.82
627.963	18514.66
628.157	18619.11
628.352	18291.43
628.546	18371.3
628.74	18115.31
628.935	18107.12
629.129	18107.12
629.323	17986.29
629.517	17920.75
629.712	17683.19
629.906	17554.16
630.1	17304.31
630.294	17351.42
630.489	17500.92
630.683	17238.78
630.877	17064.7
631.071	16630.53
631.265	17285.88
631.459	16888.57
631.653	16718.59
631.848	16646.91
632.042	16524.04
632.236	16597.76
632.43	16491.27
632.624	16524.04
632.818	16499.46
633.012	15874.83
633.206	16352.01
633.4	16126.73
633.594	16089.87
633.788	15872.78
633.982	15973.13
634.176	15835.92
634.369	15696.66
634.563	15772.43
634.757	15227.67
634.951	15434.52
635.145	15233.82
635.339	15047.45
635.533	15186.71
635.726	14992.16
635.92	14846.75
636.114	15131.42
636.308	14631.71
636.501	14842.65
636.695	14844.7
636.889	14572.32
637.083	14527.27
637.276	14447.4
637.47	14371.62
637.664	14316.33
637.857	14168.87
638.051	14363.43
638.244	13945.64
638.438	14222.12
638.632	14258.98
638.825	13994.79
639.019	13919.02
639.212	13798.19
639.406	13695.79
639.599	13718.32
639.793	13531.95
639.986	13339.44
640.18	13568.82
640.373	13357.88
640.567	13235
640.76	13251.38
640.954	13175.61
641.147	13122.36
641.34	12901.18
641.534	12923.71
641.727	12839.74
641.92	12753.73
642.114	12788.54
642.307	12677.95
642.5	12491.59
642.694	12577.6
642.887	12186.44
643.08	12469.06
643.273	12407.62
643.467	12313.41
643.66	11989.83
643.853	12221.25
644.046	11862.86
644.239	12053.32
644.432	11983.69
644.626	11957.07
644.819	11805.52
645.012	11731.79
645.205	11795.28
645.398	11840.33
645.591	11610.96
645.784	11481.94
645.977	11668.3
646.17	11486.03
646.363	11240.28
646.556	11301.72
646.749	11248.47
646.942	11170.65
647.135	11094.87
647.328	11064.15
647.521	11012.95
647.714	10779.48
647.907	10947.42
648.099	10629.98
648.292	10888.03
648.485	10777.44
648.678	10576.73
648.871	10759
649.064	10709.85
649.256	10675.04
649.449	10494.82
649.642	10396.51
649.835	10322.79
650.027	10105.7
650.22	10220.39
650.413	10107.75
650.605	10382.18
650.798	10072.93
650.991	10064.74
651.183	10183.52
651.376	10031.97
651.568	9861.99
651.761	9814.89
651.954	9522.03
652.146	9788.27
652.339	9747.31
652.531	9685.87
652.724	9626.48
652.916	9331.57
653.109	9476.98
653.301	9407.34
653.494	9282.42
653.686	9329.52
653.879	9329.52
654.071	9419.63
654.263	9126.77
654.456	9259.89
654.648	9337.71
654.84	8856.44
655.033	9091.96
655.225	8835.96
655.417	8790.91
655.61	8811.39
655.802	8805.24
655.994	8706.94
656.186	8856.44
656.379	8717.18
656.571	8803.19
656.763	8846.2
656.955	8700.8
657.148	8485.76
657.34	8532.86
657.532	8340.35
657.724	8364.93
657.916	8180.61
658.108	8287.11
658.3	8196.99
658.492	8362.88
658.684	8129.41
658.876	8147.84
659.068	8100.74
659.26	7941
659.452	8141.7
659.644	7932.81
659.836	7842.7
660.028	7912.33
660.22	7908.23
660.412	7805.83
660.604	7682.95
660.796	7760.78
660.988	7658.38
661.18	7773.07
661.372	7406.48
661.563	7715.72
661.755	7549.84
661.947	7519.12
662.139	7342.99
662.331	7433.1
662.522	7287.7
662.714	7289.74
662.906	7353.23
663.097	7271.31
663.289	7162.77
663.481	7132.05
663.673	7150.48
663.864	7007.13
664.056	7021.46
664.247	7279.5
664.439	6988.69
664.631	6882.2
664.822	6884.25
665.014	7091.09
665.205	6851.48
665.397	6874.01
665.588	6763.42
665.78	6771.61
665.971	6769.56
666.163	6824.86
666.354	6712.22
666.546	6638.49
666.737	6562.72
666.929	6470.56
667.12	6536.09
667.311	6556.57
667.503	6392.73
667.694	6552.48
667.885	6366.11
668.077	6636.44
668.268	6288.29
668.459	6216.61
668.651	6216.61
668.842	6235.04
669.033	6151.07
669.224	6269.86
669.416	6112.16
669.607	6204.32
669.798	6052.77
669.989	6212.51
670.18	6159.27
670.371	6120.35
670.563	5940.13
670.754	5895.08
670.945	6011.81
671.136	5977
671.327	5940.13
671.518	5817.26
671.709	5913.51
671.9	5890.98
672.091	5796.78
672.282	5692.33
672.473	5731.24
672.664	5825.45
672.855	5786.54
673.046	5761.96
673.237	5876.65
673.428	5579.69
673.619	5657.51
673.809	5510.06
674	5526.44
674.191	5587.88
674.382	5569.45
674.573	5512.11
674.764	5604.27
674.954	5559.21
675.145	5313.45
675.336	5452.72
675.527	5458.86
675.717	5368.75
675.908	5331.89
676.099	5405.61
676.289	5434.29
676.48	5204.91
676.671	5256.11
676.861	5462.96
677.052	5180.34
677.243	5106.61
677.433	5303.22
677.624	5245.87
677.814	5331.89
678.005	5170.1
678.195	5067.7
678.386	5135.28
678.576	5188.53
678.767	5102.51
678.957	5100.47
679.148	5049.27
679.338	5094.32
679.529	5059.51
679.719	5008.31
679.909	4967.35
680.1	5041.08
680.29	4912.05
680.481	5051.31
680.671	5008.31
680.861	4891.57
681.052	4811.7
681.242	4787.13
681.432	5004.21
681.622	4737.98
681.813	4799.41
682.003	4893.62
682.193	4666.3
682.383	5018.55
682.573	4780.98
682.764	4727.74
682.954	4758.46
683.144	4778.94
683.334	4867
683.524	4701.11
683.714	4834.23
683.904	4551.61
684.094	4697.02
684.284	4578.23
684.474	4547.51
684.664	4666.3
684.854	4570.04
685.044	4537.27
685.234	4531.13
685.424	4602.81
685.614	4543.42
685.804	4549.56
685.994	4459.45
686.184	4524.99
686.374	4350.91
686.564	4518.84
686.753	4355.01
686.943	4422.59
687.133	4467.64
687.323	4420.54
687.513	4553.66
687.702	4328.38
687.892	4352.96
688.082	4219.84
688.272	4273.09
688.461	4299.71
688.651	4279.23
688.841	4268.99
689.03	4244.42
689.22	4172.74
689.41	4160.45
689.599	4142.02
689.789	4283.33
689.979	4219.84
690.168	4119.49
690.358	4002.75
690.547	3867.59
690.737	4076.48
690.926	3904.45
691.116	3953.6
691.305	4060.1
691.495	3931.08
691.684	3937.22
691.874	3898.31
692.063	3918.79
692.252	3890.12
692.442	3828.68
692.631	3759.05
692.82	3810.25
693.01	3644.36
693.199	3861.45
693.388	3748.81
693.578	3656.65
693.767	3771.33
693.956	3746.76
694.146	3757
694.335	3738.57
694.524	3728.33
694.713	3748.81
694.902	3621.83
695.092	3515.34
695.281	3685.32
695.47	3576.78
695.659	3634.12
695.848	3523.53
696.037	3644.36
696.226	3648.46
696.415	3537.87
696.604	3580.87
696.793	3505.1
696.982	3453.9
697.171	3443.66
697.36	3513.29
697.549	3556.3
697.738	3394.51
697.927	3478.47
698.116	3492.81
698.305	3488.71
698.494	3533.77
698.683	3351.5
698.872	3271.63
699.061	3414.99
699.25	3380.17
699.438	3441.61
699.627	3412.94
699.816	3388.36
700.005	3298.25
700.193	3257.29
700.382	3492.81
700.571	3365.84
700.76	3392.46
700.948	3306.45
701.137	3376.08
701.326	3249.1
701.514	3314.64
701.703	3308.49
701.892	3236.81
702.08	3306.45
702.269	3251.15
702.457	3367.88
702.646	3247.05
702.834	3304.4
703.023	3271.63
703.212	3380.17
703.4	3371.98
703.589	3095.5
703.777	3202
703.965	3349.45
704.154	3271.63
704.342	3269.58
704.531	3249.1
704.719	3197.9
704.907	3077.07
705.096	3228.62
705.284	3292.11
705.472	3189.71
705.661	3075.03
705.849	3343.31
706.037	3177.42
706.226	3259.34
706.414	3179.47
706.602	3193.81
706.79	3097.55
706.979	3126.22
707.167	3251.15
707.355	3009.49
707.543	3202
707.731	3113.94
707.919	3095.5
708.107	3154.9
708.296	3177.42
708.484	3068.88
708.672	3056.59
708.86	3185.62
709.048	3115.98
709.236	3056.59
709.424	3142.61
709.612	3163.09
709.8	3019.73
709.988	3134.42
710.176	3099.6
710.364	3150.8
710.551	3079.12
710.739	3083.22
710.927	3011.54
711.115	2995.15
711.303	3130.32
711.491	3046.35
711.679	3079.12
711.866	2980.82
712.054	3025.87
712.242	3152.85
712.43	3093.46
712.617	3091.41
712.805	2995.15
712.993	2946
713.181	3029.97
713.368	3077.07
713.556	3032.02
713.744	2954.19
713.931	3072.98
714.119	2968.53
714.306	3021.78
714.494	2946
714.682	3019.73
714.869	3017.68
715.057	3066.83
715.244	2937.81
715.432	3025.87
715.619	2900.95
715.807	2954.19
715.994	2933.72
716.182	3023.83
716.369	2995.15
716.556	2991.06
716.744	3013.59
716.931	2974.67
717.119	2913.24
717.306	3007.44
717.493	3027.92
717.681	3060.69
717.868	2890.71
718.055	3019.73
718.242	2982.87
718.43	2954.19
718.617	2814.93
718.804	3009.49
718.991	2917.33
719.179	2915.28
719.366	2905.04
719.553	2986.96
719.74	2913.24
719.927	2948.05
720.114	3017.68
720.301	2898.9
720.488	2968.53
720.676	2853.84
720.863	3068.88
721.05	2923.48
721.237	2956.24
721.424	2923.48
721.611	2896.85
721.798	2642.9
721.985	2900.95
722.172	2956.24
722.358	2872.28
722.545	2968.53
722.732	2737.11
722.919	2917.33
723.106	2948.05
723.293	2888.66
723.48	2968.53
723.667	2903
723.853	2876.37
724.04	2919.38
724.227	2878.42
724.414	2929.62
724.6	2960.34
724.787	2876.37
724.974	2898.9
725.161	2980.82
725.347	2857.94
725.534	2890.71
725.72	2917.33
725.907	2896.85
726.094	2831.32
726.28	2921.43
726.467	2939.86
726.653	2745.3
726.84	2894.8
727.027	2952.15
727.213	2780.12
727.4	2882.52
727.586	2827.22
727.773	2894.8
727.959	2896.85
728.145	2968.53
728.332	2857.94
728.518	2880.47
728.705	2939.86
728.891	2835.41
729.077	2831.32
729.264	2859.99
729.45	2804.69
729.636	2962.39
729.823	2851.8
730.009	2894.8
730.195	2960.34
730.382	2966.48
730.568	2835.41
730.754	2843.6
730.94	2894.8
731.126	2911.19
731.313	2989.01
731.499	3001.3
731.685	2698.2
731.871	2870.23
732.057	2929.62
732.243	2894.8
732.429	2995.15
732.615	2898.9
732.801	2980.82
732.987	2757.59
733.173	2903
733.359	3023.83
733.545	2876.37
733.731	2724.82
733.917	2935.76
734.103	2931.67
734.289	2872.28
734.475	2808.79
734.661	2964.43
734.847	2839.51
735.033	2950.1
735.219	2882.52
735.404	2919.38
735.59	2898.9
735.776	2835.41
735.962	2892.76
736.148	3013.59
736.333	2909.14
736.519	2962.39
736.705	2825.17
736.89	2790.36
737.076	2911.19
737.262	2726.87
737.447	2782.17
737.633	2733.01
737.819	2851.8
738.004	2743.25
738.19	2905.04
738.375	2808.79
738.561	2681.82
738.747	2683.86
738.932	2702.29
739.118	2798.55
739.303	2925.52
739.489	2673.62
739.674	2714.58
739.859	2778.07
740.045	2849.75
740.23	2649.05
740.416	2718.68
740.601	2745.3
740.786	2761.69
740.972	2655.19
741.157	2718.68
741.342	2698.2
741.528	2624.47
741.713	2720.73
741.898	2712.53
742.084	2765.78
742.269	2773.97
742.454	2644.95
742.639	2712.53
742.824	2630.62
743.01	2687.96
743.195	2591.7
743.38	2679.77
743.565	2522.07
743.75	2628.57
743.935	2571.22
744.12	2649.05
744.305	2513.88
744.49	2610.14
744.675	2642.9
744.86	2448.35
745.045	2563.03
745.23	2448.35
745.415	2560.98
745.6	2481.11
745.785	2542.55
745.97	2522.07
746.155	2399.2
746.34	2429.91
746.525	2378.72
746.71	2511.83
746.895	2444.25
747.079	2520.03
747.264	2434.01
747.449	2434.01
747.634	2405.34
747.819	2450.39
748.003	2298.84
748.188	2382.81
748.373	2356.19
748.557	2323.42
748.742	2403.29
748.927	2325.47
749.111	2247.65
749.296	2196.45
749.481	2243.55
749.665	2253.79
749.85	2208.73
750.034	2251.74
750.219	2114.53
750.404	2208.73
750.588	2139.1
750.773	2042.85
750.957	2114.53
751.141	2044.9
751.326	2032.61
751.51	2112.48
751.695	2098.14
751.879	2079.71
752.064	2104.29
752.248	1948.64
752.432	2012.13
752.617	2094.05
752.801	1942.5
752.985	2051.04
753.17	1940.45
753.354	2048.99
753.538	1975.27
753.722	1950.69
753.907	2018.27
754.091	1881.06
754.275	1852.39
754.459	1805.28
754.643	1876.96
754.828	1803.24
755.012	1897.44
755.196	1764.33
755.38	1801.19
755.564	1801.19
755.748	1815.52
755.932	1762.28
756.116	1717.22
756.3	1788.9
756.484	1788.9
756.668	1788.9
756.852	1663.97
757.036	1745.89
757.22	1608.68
757.404	1672.17
757.588	1649.64
757.772	1623.02
757.956	1723.37
758.14	1620.97
758.323	1606.63
758.507	1631.21
758.691	1618.92
758.875	1553.38
759.059	1483.75
759.242	1586.15
759.426	1522.66
759.61	1592.3
759.794	1459.18
759.977	1580.01
760.161	1551.34
760.345	1516.52
760.528	1487.85
760.712	1524.71
760.895	1485.8
761.079	1502.19
761.263	1489.9
761.446	1379.31
761.63	1379.31
761.813	1541.1
761.997	1602.54
762.18	1354.73
762.364	1442.79
762.547	1428.46
762.731	1407.98
762.914	1475.56
763.098	1410.03
763.281	1367.02
763.464	1405.93
763.648	1393.64
763.831	1307.63
764.015	1418.22
764.198	1356.78
764.381	1338.35
764.564	1307.63
764.748	1338.35
764.931	1432.55
765.114	1371.12
765.297	1369.07
765.481	1346.54
765.664	1250.28
765.847	1287.15
766.03	1389.55
766.213	1217.52
766.397	1264.62
766.58	1262.57
766.763	1276.91
766.946	1201.13
767.129	1285.1
767.312	1262.57
767.495	1281
767.678	1051.63
767.861	1268.72
768.044	1154.03
768.227	1299.44
768.41	1238
768.593	1326.06
768.776	1207.28
768.959	1174.51
769.142	1217.52
769.324	1129.45
769.507	1242.09
769.69	1065.97
769.873	1127.41
770.056	1192.94
770.239	1158.13
770.421	1160.17
770.604	1100.78
770.787	1076.21
770.97	1084.4
771.152	1051.63
771.335	1104.88
771.518	1215.47
771.7	1180.65
771.883	1102.83
772.066	1135.6
772.248	1096.69
772.431	1049.58
772.613	977.91
772.796	1035.25
772.978	1006.58
773.161	1145.84
773.343	1047.54
773.526	986.1
773.708	1033.2
773.891	996.34
774.073	1092.59
774.256	975.86
774.438	1086.45
774.621	922.61
774.803	1012.72
774.985	1041.39
775.168	887.79
775.35	932.85
775.532	918.51
775.715	959.47
775.897	965.62
776.079	928.75
776.261	979.95
776.444	920.56
776.626	859.12
776.808	906.23
776.99	885.75
777.173	861.17
777.355	912.37
777.537	883.7
777.719	906.23
777.901	746.48
778.083	873.46
778.265	844.79
778.447	787.44
778.629	836.6
778.811	834.55
778.993	828.4
779.175	865.27
779.357	865.27
779.539	736.24
779.721	799.73
779.903	836.6
780.085	750.58
780.267	805.88
780.449	820.21
780.631	812.02
780.812	750.58
780.994	789.49
781.176	711.67
781.358	674.81
781.54	726
781.721	685.05
781.903	670.71
782.085	781.3
782.267	734.2
782.448	674.81
782.63	764.92
782.812	670.71
782.993	637.94
783.175	719.86
783.357	627.7
783.538	728.05
783.72	648.18
783.901	601.08
784.083	596.98
784.264	609.27
784.446	660.47
784.627	564.22
784.809	592.89
784.99	666.61
785.172	601.08
785.353	594.93
785.535	582.65
785.716	613.37
785.897	541.69
786.079	566.26
786.26	605.17
786.441	570.36
786.623	547.83
786.804	527.35
786.985	562.17
787.167	578.55
787.348	541.69
787.529	537.59
787.71	541.69
787.891	498.68
788.073	553.98
788.254	572.41
788.435	580.6
788.616	519.16
788.797	558.07
788.978	570.36
789.159	527.35
789.34	472.06
789.522	502.78
789.703	470.01
789.884	455.67
790.065	445.43
790.246	363.51
790.427	459.77
790.607	490.49
790.788	539.64
790.969	412.67
791.15	424.95
791.331	396.28
791.512	467.96
791.693	390.14
791.874	406.52
792.054	484.34
792.235	420.86
792.416	410.62
792.597	506.87
792.778	394.23
792.958	537.59
793.139	439.29
793.32	388.09
793.5	443.39
793.681	482.3
793.862	461.82
794.042	402.43
794.223	439.29
794.404	396.28
794.584	353.27
794.765	498.68
794.945	435.19
795.126	361.47
795.306	492.54
795.487	351.23
795.667	377.85
795.848	463.86
796.028	388.09
796.209	406.52
796.389	435.19
796.57	386.04
796.75	410.62
796.93	332.79
797.111	400.38
797.291	404.47
797.471	261.12
797.652	390.14
797.832	420.86
798.012	379.9
798.192	328.7
798.373	275.45
798.553	355.32
798.733	291.84
798.913	359.42
799.093	338.94
799.274	355.32
799.454	404.47
799.634	349.18
799.814	334.84
799.994	330.75
800.174	265.21
800.354	361.47
800.534	334.84
800.714	318.46
800.894	285.69
801.074	326.65
801.254	261.12
801.434	394.23
801.614	371.71
801.794	322.56
801.974	736.24
802.154	259.07
802.334	312.32
802.514	269.31
802.693	226.3
802.873	265.21
803.053	357.37
803.233	300.03
803.413	324.6
803.592	347.13
803.772	316.41
803.952	207.87
804.131	246.78
804.311	275.45
804.491	293.88
804.67	222.2
804.85	308.22
805.03	271.36
805.209	308.22
805.389	222.2
805.568	287.74
805.748	318.46
805.928	246.78
806.107	281.6
806.287	287.74
806.466	234.49
806.646	232.44
806.825	191.49
807.004	205.82
807.184	234.49
807.363	261.12
807.543	222.2
807.722	267.26
807.901	285.69
808.081	297.98
808.26	216.06
808.439	275.45
808.619	209.92
808.798	279.55
808.977	285.69
809.156	295.93
809.336	214.01
809.515	181.25
809.694	134.14
809.873	263.16
810.052	168.96
810.231	193.53
810.411	248.83
810.59	244.73
810.769	197.63
810.948	257.02
811.127	197.63
811.306	156.67
811.485	214.01
811.664	283.64
811.843	254.97
812.022	119.81
812.201	193.53
812.38	195.58
812.559	232.44
812.737	211.96
812.916	168.96
813.095	187.39
813.274	211.96
813.453	164.86
813.632	222.2
813.811	216.06
813.989	173.05
814.168	197.63
814.347	152.57
814.526	248.83
814.704	226.3
814.883	222.2
815.062	179.2
815.24	152.57
815.419	105.47
815.598	226.3
815.776	191.49
815.955	209.92
816.133	152.57
816.312	228.35
816.49	187.39
816.669	211.96
816.847	113.66
817.026	136.19
817.204	162.81
817.383	177.15
817.561	121.85
817.74	140.29
817.918	185.34
818.097	181.25
818.275	97.28
818.453	211.96
818.632	154.62
818.81	189.44
818.988	191.49
819.167	117.76
819.345	72.7
819.523	152.57
819.701	173.05
819.879	144.38
820.058	154.62
820.236	158.72
820.414	197.63
820.592	150.53
820.77	173.05
820.948	207.87
821.127	150.53
821.305	218.11
821.483	27.65
821.661	142.33
821.839	80.89
822.017	111.61
822.195	183.29
822.373	150.53
822.551	205.82
822.729	177.15
822.907	148.48
823.085	179.2
823.262	162.81
823.44	125.95
823.618	105.47
823.796	193.53
823.974	105.47
824.152	123.9
824.329	164.86
824.507	146.43
824.685	177.15
824.863	150.53
825.04	113.66
825.218	101.37
825.396	41.98
825.574	117.76
825.751	103.42
825.929	177.15
826.107	142.33
826.284	132.09
826.462	148.48
826.639	111.61
826.817	111.61
826.994	60.42
827.172	95.23
827.349	154.62
827.527	103.42
827.704	111.61
827.882	107.52
828.059	117.76
828.237	76.8
828.414	142.33
828.591	54.27
828.769	195.58
828.946	109.57
829.124	123.9
829.301	99.33
829.478	105.47
829.655	121.85
829.833	117.76
830.01	115.71
830.187	111.61
830.364	91.13
830.542	177.15
830.719	76.8
830.896	78.85
831.073	93.18
831.25	183.29
831.427	97.28
831.604	136.19
831.782	60.42
831.959	109.57
832.136	84.99
832.313	166.91
832.49	70.65
832.667	125.95
832.844	68.61
833.021	177.15
833.198	87.04
833.374	64.51
833.551	68.61
833.728	125.95
833.905	37.89
834.082	33.79
834.259	29.7
834.436	214.01
834.612	54.27
834.789	74.75
834.966	58.37
835.143	121.85
835.319	46.08
835.496	132.09
835.673	80.89
835.85	99.33
836.026	95.23
836.203	82.94
836.38	101.37
836.556	109.57
836.733	29.7
836.909	113.66
837.086	134.14
837.262	60.42
837.439	103.42
837.616	119.81
837.792	74.75
837.968	76.8
838.145	78.85
838.321	89.09
838.498	66.56
838.674	41.98
838.851	70.65
839.027	17.41
839.203	95.23
839.38	142.33
839.556	87.04
839.732	91.13
839.909	152.57
840.085	1.02
840.261	148.48
840.437	-17.41
840.614	80.89
840.79	115.71
840.966	84.99
841.142	70.65
841.318	35.84
841.494	35.84
841.671	119.81
841.847	72.7
842.023	44.03
842.199	44.03
842.375	166.91
842.551	25.6
842.727	80.89
842.903	70.65
843.079	41.98
843.255	33.79
843.431	84.99
843.607	93.18
843.783	9.22
843.959	109.57
844.134	99.33
844.31	128
844.486	74.75
844.662	48.13
844.838	56.32
845.013	89.09
845.189	41.98
845.365	66.56
845.541	72.7
845.716	113.66
845.892	33.79
846.068	84.99
846.244	-25.6
846.419	41.98
846.595	31.74
846.77	62.46
846.946	62.46
847.122	84.99
847.297	48.13
847.473	50.18
847.648	1.02
847.824	64.51
847.999	33.79
848.175	33.79
848.35	82.94
848.526	25.6
848.701	7.17
848.876	27.65
849.052	97.28
849.227	19.46
849.403	64.51
849.578	33.79
849.753	-9.22
849.929	62.46
850.104	-17.41
850.279	64.51
850.454	50.18
850.63	82.94
850.805	35.84
850.98	41.98
851.155	70.65
851.33	62.46
851.505	19.46
851.681	93.18
851.856	72.7
852.031	50.18
852.206	52.22
852.381	173.05
852.556	68.61
852.731	48.13
852.906	44.03
853.081	11.26
853.256	54.27
853.431	13.31
853.606	-11.26
853.781	3.07
853.956	-62.46
854.131	7.17
854.305	54.27
854.48	35.84
854.655	-33.79
854.83	-15.36
855.005	60.42
855.18	64.51
855.354	-3.07
855.529	74.75
855.704	70.65
855.879	54.27
856.053	3.07
856.228	9.22
856.403	54.27
856.577	62.46
856.752	56.32
856.926	50.18
857.101	7.17
857.276	3.07
857.45	46.08
857.625	123.9
857.799	7.17
857.974	74.75
858.148	-44.03
858.323	23.55
858.497	19.46
858.672	15.36
858.846	11.26
859.02	109.57
859.195	-7.17
859.369	25.6
859.543	-13.31
859.718	62.46
859.892	13.31
860.066	11.26
860.241	99.33
860.415	39.94
860.589	11.26
860.763	78.85
860.938	-19.46
861.112	97.28
861.286	19.46
861.46	-19.46
861.634	52.22
861.808	62.46
861.982	62.46
862.157	13.31
862.331	46.08
862.505	19.46
862.679	-33.79
862.853	56.32
863.027	25.6
863.201	121.85
863.375	11.26
863.549	-11.26
863.722	52.22
863.896	50.18
864.07	33.79
864.244	142.33
864.418	1.02
864.592	21.5
864.766	7.17
864.939	-15.36
865.113	-23.55
865.287	82.94
865.461	35.84
865.634	56.32
865.808	-35.84
865.982	64.51
866.156	-9.22
866.329	62.46
866.503	54.27
866.676	27.65
866.85	64.51
867.024	19.46
867.197	27.65
867.371	117.76
867.544	56.32
867.718	60.42
867.891	5.12
868.065	-39.94
868.238	31.74
868.412	-15.36
868.585	-35.84
868.759	52.22
868.932	-9.22
869.105	52.22
869.279	11.26
869.452	72.7
869.625	60.42
869.799	33.79
869.972	-3.07
870.145	-5.12
870.319	-80.89
870.492	11.26
870.665	7.17
870.838	13.31
871.011	-21.5
871.185	1.02
871.358	-58.37
871.531	56.32
871.704	-9.22
871.877	109.57
872.05	-1.02
872.223	13.31
872.396	37.89
872.569	13.31
872.742	9.22
872.915	80.89
873.088	1.02
873.261	50.18
873.434	80.89
873.607	48.13
873.78	3.07
873.953	56.32
874.126	-9.22
874.299	-15.36
874.471	17.41
874.644	50.18
874.817	25.6
874.99	62.46
875.163	-62.46
875.335	-1.02
875.508	29.7
875.681	78.85
875.853	37.89
876.026	87.04
876.199	19.46
876.371	-35.84
876.544	60.42
876.717	21.5
876.889	13.31
877.062	50.18
877.234	-50.18
877.407	23.55
877.579	-21.5
877.752	11.26
877.924	35.84
878.097	41.98
878.269	66.56
878.442	80.89
878.614	-9.22
878.786	15.36
878.959	27.65
879.131	72.7
879.303	-44.03
879.476	93.18
879.648	35.84
879.82	-23.55
879.993	60.42
880.165	-35.84
880.337	13.31
880.509	13.31
880.681	-19.46
880.854	-9.22
881.026	-7.17
881.198	15.36
881.37	23.55
881.542	-13.31
881.714	-3.07
881.886	19.46
882.058	41.98
882.23	50.18
882.402	52.22
882.574	25.6
882.746	17.41
882.918	-3.07
883.09	33.79
883.262	27.65
883.434	23.55
883.606	37.89
883.778	-17.41
883.95	87.04
884.122	-1.02
884.293	-7.17
884.465	27.65
884.637	39.94
884.809	56.32
884.98	46.08
885.152	-39.94
885.324	17.41
885.496	-3.07
885.667	70.65
885.839	5.12
886.011	54.27
886.182	68.61
886.354	-84.99
886.525	35.84
886.697	13.31
886.869	-5.12
887.04	-3.07
887.212	33.79
887.383	52.22
887.555	-9.22
887.726	52.22
887.897	13.31
888.069	-5.12
888.24	60.42
888.412	-7.17
888.583	95.23
888.754	25.6
888.926	-35.84
889.097	-3.07
889.268	17.41
889.44	31.74
889.611	-1.02
889.782	-56.32
889.953	37.89
890.125	-37.89
890.296	19.46
890.467	5.12
890.638	-5.12
890.809	19.46
890.98	-29.7
891.151	-21.5
891.323	-1.02
891.494	37.89
891.665	19.46
891.836	25.6
892.007	23.55
892.178	-5.12
892.349	-27.65
892.52	-3.07
892.691	-17.41
892.862	52.22
893.032	17.41
893.203	84.99
893.374	-48.13
893.545	15.36
893.716	-11.26
893.887	21.5
894.057	15.36
894.228	27.65
894.399	87.04
894.57	48.13
894.74	109.57
894.911	1.02
895.082	-1.02
895.253	39.94
895.423	-9.22
895.594	44.03
895.764	23.55
895.935	15.36
896.106	-15.36
896.276	1.02
896.447	-9.22
896.617	-11.26
896.788	15.36
896.958	37.89
897.129	-19.46
897.299	48.13
897.47	62.46
897.64	9.22
897.81	-1.02
897.981	-5.12
898.151	-23.55
898.322	78.85
898.492	-82.94
898.662	19.46
898.832	23.55
899.003	-5.12
899.173	-25.6
899.343	-5.12
899.513	29.7
