Data from USB4F104151__82__11-45-34-507.txt Node

Date: Fri Mar 14 11:45:34 EDT 2025
User: louis
Spectrometer: USB4F10415
Trigger mode: 4
Integration Time (sec): 2.000000E-2
Scans to average: 1
Electric dark correction enabled: true
Nonlinearity correction enabled: false
Boxcar width: 0
XAxis mode: Wavelengths
Number of Pixels in Spectrum: 3648
>>>>>Begin Spectral Data<<<<<
178.204	-9.9
178.424	-9.9
178.644	-9.9
178.864	-89.77
179.084	-122.54
179.304	-5.8
179.524	6.49
179.744	-1.71
179.964	-28.33
180.184	37.2
180.404	18.77
180.624	47.44
180.844	-40.62
181.064	-50.86
181.283	41.3
181.503	-3.75
181.723	-20.14
181.943	-77.48
182.163	22.87
182.383	24.92
182.602	-44.71
182.822	37.2
183.042	-7.85
183.262	31.06
183.482	8.53
183.701	-48.81
183.921	-50.86
184.141	8.53
184.361	-26.28
184.58	33.11
184.8	67.92
185.02	67.92
185.239	-7.85
185.459	59.73
185.679	82.26
185.898	22.87
186.118	31.06
186.338	63.83
186.557	98.64
186.777	47.44
186.997	4.44
187.216	24.92
187.436	92.5
187.655	18.77
187.875	55.64
188.095	35.16
188.314	31.06
188.534	20.82
188.753	0.34
188.973	10.58
189.192	10.58
189.412	41.3
189.631	10.58
189.851	6.49
190.07	-44.71
190.29	31.06
190.509	63.83
190.729	-22.19
190.948	37.2
191.168	119.12
191.387	47.44
191.607	6.49
191.826	14.68
192.045	20.82
192.265	33.11
192.484	10.58
192.704	35.16
192.923	-1.71
193.142	155.99
193.362	37.2
193.581	67.92
193.8	78.16
194.02	45.4
194.239	14.68
194.458	49.49
194.678	4.44
194.897	37.2
195.116	-3.75
195.335	-7.85
195.555	-7.85
195.774	-24.23
195.993	39.25
196.212	-7.85
196.432	78.16
196.651	51.54
196.87	37.2
197.089	33.11
197.308	-9.9
197.528	29.01
197.747	20.82
197.966	-46.76
198.185	-48.81
198.404	-7.85
198.623	37.2
198.842	45.4
199.062	69.97
199.281	69.97
199.5	4.44
199.719	20.82
199.938	2.39
200.157	61.78
200.376	129.36
200.595	-22.19
200.814	35.16
201.033	104.79
201.252	49.49
201.471	33.11
201.69	33.11
201.909	2.39
202.128	24.92
202.347	-5.8
202.566	-18.09
202.785	96.6
203.004	57.68
203.223	72.02
203.442	-22.19
203.661	-36.52
203.879	-7.85
204.098	8.53
204.317	-3.75
204.536	-40.62
204.755	-13.99
204.974	139.6
205.193	55.64
205.411	86.36
205.63	45.4
205.849	88.4
206.068	80.21
206.287	65.88
206.505	37.2
206.724	59.73
206.943	8.53
207.162	10.58
207.381	37.2
207.599	-16.04
207.818	57.68
208.037	53.59
208.255	2.39
208.474	61.78
208.693	80.21
208.911	61.78
209.13	0.34
209.349	45.4
209.567	45.4
209.786	29.01
210.005	-24.23
210.223	-7.85
210.442	59.73
210.661	76.12
210.879	10.58
211.098	88.4
211.316	6.49
211.535	92.5
211.753	-26.28
211.972	18.77
212.191	10.58
212.409	37.2
212.628	0.34
212.846	20.82
213.065	22.87
213.283	78.16
213.502	29.01
213.72	37.2
213.938	6.49
214.157	45.4
214.375	-22.19
214.594	43.35
214.812	-13.99
215.031	43.35
215.249	98.64
215.467	76.12
215.686	41.3
215.904	106.84
216.122	-5.8
216.341	61.78
216.559	51.54
216.778	76.12
216.996	65.88
217.214	59.73
217.432	-26.28
217.651	-3.75
217.869	-3.75
218.087	4.44
218.306	47.44
218.524	57.68
218.742	16.73
218.96	78.16
219.179	20.82
219.397	35.16
219.615	12.63
219.833	88.4
220.051	8.53
220.27	57.68
220.488	63.83
220.706	33.11
220.924	16.73
221.142	12.63
221.36	-22.19
221.578	18.77
221.796	39.25
222.015	67.92
222.233	-44.71
222.451	106.84
222.669	37.2
222.887	-9.9
223.105	49.49
223.323	98.64
223.541	33.11
223.759	82.26
223.977	96.6
224.195	20.82
224.413	49.49
224.631	4.44
224.849	12.63
225.067	20.82
225.285	10.58
225.503	-26.28
225.721	-18.09
225.939	14.68
226.157	-40.62
226.375	88.4
226.592	-28.33
226.81	-3.75
227.028	45.4
227.246	115.03
227.464	-1.71
227.682	84.31
227.9	45.4
228.117	-22.19
228.335	16.73
228.553	2.39
228.771	-20.14
228.989	59.73
229.206	-61.1
229.424	-22.19
229.642	-7.85
229.86	43.35
230.077	-73.39
230.295	-26.28
230.513	35.16
230.731	49.49
230.948	12.63
231.166	4.44
231.384	61.78
231.601	104.79
231.819	47.44
232.037	51.54
232.254	-24.23
232.472	37.2
232.689	24.92
232.907	31.06
233.125	84.31
233.342	-11.95
233.56	47.44
233.777	74.07
233.995	49.49
234.213	98.64
234.43	24.92
234.648	65.88
234.865	14.68
235.083	80.21
235.3	-30.38
235.518	20.82
235.735	82.26
235.953	94.55
236.17	127.32
236.388	-3.75
236.605	33.11
236.822	63.83
237.04	-16.04
237.257	29.01
237.475	8.53
237.692	-9.9
237.909	12.63
238.127	10.58
238.344	63.83
238.562	76.12
238.779	10.58
238.996	37.2
239.214	121.17
239.431	69.97
239.648	6.49
239.865	24.92
240.083	47.44
240.3	41.3
240.517	20.82
240.735	108.88
240.952	31.06
241.169	59.73
241.386	53.59
241.603	18.77
241.821	-85.67
242.038	45.4
242.255	-52.91
242.472	20.82
242.689	-34.47
242.907	43.35
243.124	35.16
243.341	72.02
243.558	31.06
243.775	4.44
243.992	18.77
244.209	24.92
244.426	43.35
244.643	47.44
244.86	-48.81
245.078	6.49
245.295	51.54
245.512	102.74
245.729	57.68
245.946	47.44
246.163	-5.8
246.38	63.83
246.597	-5.8
246.814	88.4
247.031	78.16
247.248	-16.04
247.464	-32.43
247.681	53.59
247.898	41.3
248.115	55.64
248.332	82.26
248.549	12.63
248.766	67.92
248.983	41.3
249.2	43.35
249.417	31.06
249.633	24.92
249.85	53.59
250.067	37.2
250.284	53.59
250.501	57.68
250.717	98.64
250.934	37.2
251.151	53.59
251.368	43.35
251.585	26.96
251.801	37.2
252.018	45.4
252.235	14.68
252.451	43.35
252.668	35.16
252.885	86.36
253.102	49.49
253.318	0.34
253.535	20.82
253.752	41.3
253.968	26.96
254.185	-44.71
254.401	26.96
254.618	45.4
254.835	20.82
255.051	55.64
255.268	80.21
255.484	61.78
255.701	-22.19
255.917	47.44
256.134	-22.19
256.351	0.34
256.567	24.92
256.784	-1.71
257	-7.85
257.217	98.64
257.433	80.21
257.65	29.01
257.866	72.02
258.082	33.11
258.299	92.5
258.515	74.07
258.732	96.6
258.948	22.87
259.165	-40.62
259.381	-7.85
259.597	-1.71
259.814	35.16
260.03	76.12
260.246	-26.28
260.463	117.08
260.679	59.73
260.895	69.97
261.112	49.49
261.328	2.39
261.544	-9.9
261.761	100.69
261.977	121.17
262.193	16.73
262.409	39.25
262.626	80.21
262.842	41.3
263.058	59.73
263.274	65.88
263.49	43.35
263.707	90.45
263.923	47.44
264.139	31.06
264.355	74.07
264.571	119.12
264.787	80.21
265.004	72.02
265.22	69.97
265.436	6.49
265.652	-54.95
265.868	84.31
266.084	-34.47
266.3	8.53
266.516	4.44
266.732	76.12
266.948	26.96
267.164	24.92
267.38	6.49
267.596	74.07
267.812	0.34
268.028	37.2
268.244	8.53
268.46	47.44
268.676	8.53
268.892	108.88
269.108	47.44
269.324	35.16
269.54	57.68
269.756	-48.81
269.972	31.06
270.188	-5.8
270.403	-75.43
270.619	37.2
270.835	-18.09
271.051	-32.43
271.267	63.83
271.483	-30.38
271.698	31.06
271.914	-1.71
272.13	24.92
272.346	16.73
272.562	12.63
272.777	47.44
272.993	47.44
273.209	47.44
273.425	49.49
273.64	-20.14
273.856	59.73
274.072	-1.71
274.287	49.49
274.503	90.45
274.719	26.96
274.934	37.2
275.15	43.35
275.366	10.58
275.581	78.16
275.797	-3.75
276.012	-16.04
276.228	-57
276.444	12.63
276.659	104.79
276.875	29.01
277.09	61.78
277.306	41.3
277.521	26.96
277.737	20.82
277.952	37.2
278.168	-3.75
278.383	39.25
278.599	41.3
278.814	31.06
279.03	63.83
279.245	76.12
279.461	90.45
279.676	4.44
279.892	6.49
280.107	-42.67
280.322	-11.95
280.538	4.44
280.753	33.11
280.969	61.78
281.184	47.44
281.399	55.64
281.615	63.83
281.83	33.11
282.045	18.77
282.26	-5.8
282.476	76.12
282.691	31.06
282.906	41.3
283.122	37.2
283.337	57.68
283.552	31.06
283.767	12.63
283.983	4.44
284.198	-16.04
284.413	121.17
284.628	-11.95
284.843	35.16
285.058	4.44
285.274	6.49
285.489	-26.28
285.704	20.82
285.919	57.68
286.134	65.88
286.349	94.55
286.564	20.82
286.779	-40.62
286.995	14.68
287.21	33.11
287.425	88.4
287.64	49.49
287.855	39.25
288.07	39.25
288.285	41.3
288.5	37.2
288.715	94.55
288.93	51.54
289.145	82.26
289.36	53.59
289.575	47.44
289.79	35.16
290.004	61.78
290.219	102.74
290.434	-16.04
290.649	86.36
290.864	43.35
291.079	41.3
291.294	26.96
291.509	20.82
291.724	29.01
291.938	-20.14
292.153	8.53
292.368	26.96
292.583	133.46
292.798	-9.9
293.012	84.31
293.227	41.3
293.442	57.68
293.657	12.63
293.871	102.74
294.086	53.59
294.301	98.64
294.516	94.55
294.73	12.63
294.945	49.49
295.16	-18.09
295.374	112.98
295.589	53.59
295.804	20.82
296.018	12.63
296.233	74.07
296.447	31.06
296.662	10.58
296.877	74.07
297.091	35.16
297.306	57.68
297.52	6.49
297.735	8.53
297.949	45.4
298.164	53.59
298.378	12.63
298.593	31.06
298.807	74.07
299.022	80.21
299.236	-3.75
299.451	53.59
299.665	-7.85
299.88	14.68
300.094	53.59
300.309	92.5
300.523	14.68
300.737	8.53
300.952	96.6
301.166	6.49
301.381	31.06
301.595	12.63
301.809	72.02
302.024	131.41
302.238	8.53
302.452	-11.95
302.667	22.87
302.881	86.36
303.095	16.73
303.309	53.59
303.524	39.25
303.738	82.26
303.952	24.92
304.166	61.78
304.381	80.21
304.595	112.98
304.809	31.06
305.023	39.25
305.237	-1.71
305.452	69.97
305.666	65.88
305.88	39.25
306.094	16.73
306.308	41.3
306.522	37.2
306.736	26.96
306.95	-22.19
307.164	43.35
307.379	80.21
307.593	100.69
307.807	49.49
308.021	74.07
308.235	69.97
308.449	-28.33
308.663	35.16
308.877	117.08
309.091	92.5
309.305	57.68
309.519	-46.76
309.733	18.77
309.947	-1.71
310.161	33.11
310.374	137.56
310.588	57.68
310.802	18.77
311.016	47.44
311.23	4.44
311.444	22.87
311.658	8.53
311.872	86.36
312.085	-7.85
312.299	96.6
312.513	22.87
312.727	26.96
312.941	55.64
313.154	20.82
313.368	12.63
313.582	49.49
313.796	55.64
314.009	96.6
314.223	96.6
314.437	82.26
314.651	72.02
314.864	55.64
315.078	53.59
315.292	72.02
315.505	29.01
315.719	92.5
315.933	92.5
316.146	67.92
316.36	8.53
316.573	108.88
316.787	55.64
317.001	16.73
317.214	78.16
317.428	51.54
317.641	76.12
317.855	6.49
318.068	76.12
318.282	88.4
318.495	72.02
318.709	127.32
318.922	53.59
319.136	69.97
319.349	94.55
319.563	55.64
319.776	69.97
319.99	33.11
320.203	18.77
320.417	51.54
320.63	41.3
320.843	78.16
321.057	98.64
321.27	10.58
321.483	22.87
321.697	-30.38
321.91	-11.95
322.124	41.3
322.337	14.68
322.55	12.63
322.763	37.2
322.977	0.34
323.19	2.39
323.403	-18.09
323.617	55.64
323.83	76.12
324.043	8.53
324.256	12.63
324.469	108.88
324.683	0.34
324.896	24.92
325.109	-26.28
325.322	-50.86
325.535	43.35
325.748	6.49
325.962	-1.71
326.175	61.78
326.388	43.35
326.601	90.45
326.814	63.83
327.027	22.87
327.24	18.77
327.453	16.73
327.666	74.07
327.879	12.63
328.092	108.88
328.305	108.88
328.518	43.35
328.731	22.87
328.944	26.96
329.157	78.16
329.37	37.2
329.583	102.74
329.796	61.78
330.009	35.16
330.222	6.49
330.435	129.36
330.648	29.01
330.861	35.16
331.073	72.02
331.286	33.11
331.499	74.07
331.712	20.82
331.925	45.4
332.138	112.98
332.35	63.83
332.563	-48.81
332.776	41.3
332.989	18.77
333.202	-7.85
333.414	31.06
333.627	43.35
333.84	12.63
334.053	63.83
334.265	-7.85
334.478	72.02
334.691	0.34
334.903	47.44
335.116	76.12
335.329	10.58
335.541	65.88
335.754	96.6
335.966	43.35
336.179	88.4
336.392	41.3
336.604	59.73
336.817	22.87
337.029	49.49
337.242	24.92
337.454	69.97
337.667	112.98
337.88	74.07
338.092	35.16
338.305	90.45
338.517	41.3
338.729	47.44
338.942	35.16
339.154	-3.75
339.367	67.92
339.579	12.63
339.792	80.21
340.004	33.11
340.217	55.64
340.429	96.6
340.641	29.01
340.854	37.2
341.066	90.45
341.278	135.51
341.491	67.92
341.703	90.45
341.915	20.82
342.128	47.44
342.34	63.83
342.552	84.31
342.764	31.06
342.977	-13.99
343.189	31.06
343.401	94.55
343.613	24.92
343.826	49.49
344.038	-26.28
344.25	88.4
344.462	149.84
344.674	37.2
344.886	16.73
345.099	69.97
345.311	63.83
345.523	76.12
345.735	-5.8
345.947	4.44
346.159	16.73
346.371	82.26
346.583	20.82
346.795	94.55
347.007	61.78
347.219	10.58
347.431	-9.9
347.643	100.69
347.855	37.2
348.067	110.93
348.279	-40.62
348.491	20.82
348.703	37.2
348.915	47.44
349.127	-48.81
349.339	84.31
349.551	14.68
349.763	45.4
349.975	31.06
350.187	-3.75
350.399	80.21
350.61	61.78
350.822	41.3
351.034	67.92
351.246	22.87
351.458	22.87
351.669	24.92
351.881	92.5
352.093	53.59
352.305	108.88
352.517	69.97
352.728	96.6
352.94	55.64
353.152	155.99
353.363	55.64
353.575	80.21
353.787	61.78
353.999	86.36
354.21	55.64
354.422	18.77
354.633	49.49
354.845	33.11
355.057	108.88
355.268	47.44
355.48	110.93
355.692	45.4
355.903	-20.14
356.115	8.53
356.326	-1.71
356.538	59.73
356.749	119.12
356.961	72.02
357.172	-26.28
357.384	41.3
357.595	76.12
357.807	35.16
358.018	-38.57
358.23	72.02
358.441	63.83
358.653	12.63
358.864	117.08
359.075	41.3
359.287	29.01
359.498	18.77
359.709	96.6
359.921	-5.8
360.132	14.68
360.344	123.22
360.555	53.59
360.766	63.83
360.977	80.21
361.189	43.35
361.4	72.02
361.611	78.16
361.823	47.44
362.034	78.16
362.245	49.49
362.456	31.06
362.667	80.21
362.879	147.8
363.09	90.45
363.301	78.16
363.512	-32.43
363.723	45.4
363.935	78.16
364.146	49.49
364.357	39.25
364.568	115.03
364.779	-28.33
364.99	98.64
365.201	45.4
365.412	67.92
365.623	65.88
365.834	55.64
366.045	-7.85
366.256	74.07
366.467	57.68
366.678	24.92
366.889	67.92
367.1	92.5
367.311	47.44
367.522	22.87
367.733	55.64
367.944	47.44
368.155	57.68
368.366	45.4
368.577	115.03
368.788	94.55
368.999	31.06
369.209	88.4
369.42	151.89
369.631	117.08
369.842	80.21
370.053	88.4
370.264	47.44
370.474	-3.75
370.685	37.2
370.896	43.35
371.107	74.07
371.317	72.02
371.528	59.73
371.739	78.16
371.95	63.83
372.16	94.55
372.371	-20.14
372.582	29.01
372.792	55.64
373.003	110.93
373.214	69.97
373.424	94.55
373.635	65.88
373.846	100.69
374.056	37.2
374.267	0.34
374.477	53.59
374.688	24.92
374.898	82.26
375.109	22.87
375.319	125.27
375.53	117.08
375.74	39.25
375.951	104.79
376.161	67.92
376.372	31.06
376.582	106.84
376.793	-1.71
377.003	39.25
377.214	51.54
377.424	-30.38
377.635	127.32
377.845	12.63
378.055	82.26
378.266	4.44
378.476	51.54
378.686	88.4
378.897	86.36
379.107	84.31
379.317	82.26
379.528	90.45
379.738	-11.95
379.948	-1.71
380.158	135.51
380.369	61.78
380.579	24.92
380.789	55.64
380.999	88.4
381.21	-11.95
381.42	108.88
381.63	88.4
381.84	76.12
382.05	72.02
382.261	47.44
382.471	33.11
382.681	115.03
382.891	45.4
383.101	80.21
383.311	69.97
383.521	137.56
383.731	106.84
383.941	121.17
384.151	45.4
384.361	51.54
384.571	35.16
384.781	149.84
384.991	26.96
385.201	10.58
385.411	16.73
385.621	76.12
385.831	65.88
386.041	76.12
386.251	92.5
386.461	45.4
386.671	90.45
386.881	35.16
387.091	76.12
387.301	-7.85
387.511	127.32
387.72	65.88
387.93	88.4
388.14	-11.95
388.35	78.16
388.56	41.3
388.769	-20.14
388.979	59.73
389.189	84.31
389.399	49.49
389.609	63.83
389.818	145.75
390.028	16.73
390.238	94.55
390.447	-16.04
390.657	45.4
390.867	53.59
391.076	98.64
391.286	72.02
391.496	22.87
391.705	92.5
391.915	72.02
392.125	33.11
392.334	53.59
392.544	137.56
392.753	57.68
392.963	100.69
393.172	115.03
393.382	26.96
393.591	108.88
393.801	41.3
394.01	180.56
394.22	158.03
394.429	110.93
394.639	78.16
394.848	53.59
395.058	26.96
395.267	31.06
395.477	94.55
395.686	24.92
395.895	82.26
396.105	162.13
396.314	133.46
396.524	129.36
396.733	63.83
396.942	164.18
397.152	80.21
397.361	137.56
397.57	43.35
397.78	119.12
397.989	69.97
398.198	164.18
398.407	100.69
398.617	96.6
398.826	76.12
399.035	78.16
399.244	82.26
399.453	106.84
399.663	117.08
399.872	143.7
400.081	145.75
400.29	94.55
400.499	106.84
400.708	115.03
400.917	149.84
401.127	153.94
401.336	108.88
401.545	125.27
401.754	155.99
401.963	102.74
402.172	100.69
402.381	221.52
402.59	153.94
402.799	86.36
403.008	172.37
403.217	84.31
403.426	108.88
403.635	153.94
403.844	129.36
404.053	149.84
404.262	96.6
404.471	110.93
404.68	53.59
404.888	178.51
405.097	186.71
405.306	149.84
405.515	194.9
405.724	151.89
405.933	149.84
406.142	147.8
406.35	211.28
406.559	254.29
406.768	145.75
406.977	250.19
407.185	229.71
407.394	201.04
407.603	229.71
407.812	246.1
408.02	184.66
408.229	262.48
408.438	223.57
408.646	158.03
408.855	244.05
409.064	213.33
409.272	258.39
409.481	352.59
409.69	278.87
409.898	323.92
410.107	330.06
410.315	340.3
410.524	334.16
410.733	389.46
410.941	340.3
411.15	389.46
411.358	428.37
411.567	348.5
411.775	434.51
411.984	467.28
412.192	551.24
412.401	483.66
412.609	465.23
412.818	477.52
413.026	500.05
413.234	547.15
413.443	530.77
413.651	610.64
413.86	700.75
414.068	633.16
414.276	727.37
414.485	655.69
414.693	643.4
414.901	790.86
415.11	751.95
415.318	698.7
415.526	790.86
415.734	835.91
415.943	909.64
416.151	938.31
416.359	921.93
416.567	917.83
416.776	928.07
416.984	1018.18
417.192	1030.47
417.4	1102.15
417.608	999.75
417.817	1192.26
418.025	1169.73
418.233	1360.19
418.441	1222.98
418.649	1206.59
418.857	1417.54
419.065	1392.96
419.273	1386.82
419.481	1483.07
419.689	1620.28
419.897	1665.34
420.105	1759.55
420.313	1765.69
420.521	1696.06
420.729	1773.88
420.937	1804.6
421.145	1950.01
421.353	2076.98
421.561	2027.83
421.769	2185.52
421.977	2240.82
422.185	2185.52
422.393	2316.59
422.601	2474.29
422.809	2459.95
423.017	2427.18
423.224	2535.73
423.432	2654.51
423.64	2789.67
423.848	2871.59
424.056	2892.07
424.263	3092.77
424.471	3053.86
424.679	3227.94
424.887	3356.96
425.094	3471.65
425.302	3473.7
425.51	3498.27
425.718	3651.87
425.925	3713.31
426.133	3801.37
426.341	4141.33
426.548	4268.31
426.756	4196.63
426.964	4342.04
427.171	4464.91
427.379	4784.4
427.586	4671.76
427.794	4845.84
428.001	5091.59
428.209	5286.15
428.417	5337.35
428.624	5693.69
428.832	5665.02
429.039	5652.74
429.247	5548.29
429.454	6123.77
429.662	6531.31
429.869	6150.39
430.076	6412.53
430.284	6240.5
430.491	6574.32
430.699	7053.55
430.906	7078.12
431.114	7014.63
431.321	7354.6
431.528	7649.5
431.736	7844.06
431.943	8411.35
432.15	8100.06
432.358	8220.89
432.565	8751.31
432.772	8489.17
432.979	9119.95
433.187	9167.05
433.394	9355.46
433.601	9896.13
433.808	10025.15
434.016	9926.85
434.223	10156.22
434.43	10991.79
434.637	10715.31
434.844	11333.8
435.052	11733.15
435.259	11552.93
435.466	11761.83
435.673	11643.04
435.88	12353.69
436.087	12871.82
436.294	12763.28
436.501	12644.5
436.708	12630.16
436.915	13408.39
437.122	13779.08
437.329	13752.45
437.537	14274.68
437.743	14712.95
437.95	14405.75
438.157	14934.13
438.364	15790.18
438.571	15634.53
438.778	15544.42
438.985	17414.22
439.192	16574.55
439.399	17043.54
439.606	16730.2
439.813	17821.77
440.02	18829.37
440.227	18272.32
440.433	18288.7
440.64	18722.87
440.847	18647.1
441.054	19140.66
441.261	20477.98
441.467	20197.41
441.674	20594.72
441.881	21209.11
442.088	21557.26
442.294	20977.69
442.501	21944.33
442.708	22050.82
442.914	22794.23
443.121	24309.73
443.328	23541.74
443.534	24936.41
443.741	24031.21
443.948	23695.34
444.154	25925.58
444.361	25538.51
444.568	25782.22
444.774	25675.73
444.981	26148.81
445.187	26589.12
445.394	28037.03
445.6	27473.84
445.807	30146.44
446.013	28764.06
446.22	29429.65
446.426	30801.79
446.633	30926.72
446.839	31811.44
447.046	30441.35
447.252	32016.24
447.459	32049
447.665	31838.06
447.871	33349.46
448.078	34856.77
448.284	33355.61
448.491	33560.41
448.697	35747.64
448.903	36245.29
449.11	36142.89
449.316	35678
449.522	36450.09
449.728	37209.89
449.935	37560.09
450.141	37267.23
450.347	38713.09
450.553	37670.68
450.76	37527.32
450.966	38758.15
451.172	38135.57
451.378	39446.27
451.584	38745.86
451.791	39857.91
451.997	39329.53
452.203	40302.32
452.409	40007.41
452.615	40314.61
452.821	38240.01
453.027	37992.21
453.233	40275.69
453.44	38287.12
453.646	38985.47
453.852	39728.89
454.058	39796.47
454.264	37961.49
454.47	39184.13
454.676	38254.35
454.882	39558.91
455.088	35956.53
455.294	36622.12
455.5	37580.57
455.705	38045.46
455.911	36411.18
456.117	35567.41
456.323	35018.56
456.529	33216.35
456.735	34545.48
456.941	33806.16
457.147	33275.74
457.352	32423.78
457.558	32098.16
457.764	31971.18
457.97	31403.89
458.176	30439.3
458.381	30713.73
458.587	29247.38
458.793	29597.59
458.999	27729.84
459.204	29738.9
459.41	28692.38
459.616	27207.61
459.821	26992.57
460.027	26843.07
460.233	26363.84
460.438	25114.58
460.644	25386.96
460.85	24023.01
461.055	23838.7
461.261	23695.34
461.466	22149.12
461.672	21209.11
461.878	22859.77
462.083	21393.42
462.289	20959.25
462.494	20641.82
462.7	19875.88
462.905	19445.8
463.111	19800.1
463.316	19914.79
463.522	19517.48
463.727	19525.68
463.932	19429.42
464.138	19054.64
464.343	19482.67
464.549	18718.78
464.754	19288.11
464.959	19068.98
465.165	19191.86
465.37	18544.7
465.575	17987.65
465.781	18659.38
465.986	18960.44
466.191	18425.92
466.397	17520.71
466.602	16703.57
466.807	17238.09
467.012	17655.88
467.218	17334.35
467.423	17045.59
467.628	17379.4
467.833	18012.23
468.038	17266.77
468.244	16527.45
468.449	17522.76
468.654	16873.56
468.859	17078.35
469.064	16722.01
469.269	16078.94
469.474	16080.99
469.679	16609.37
469.885	15896.67
470.09	16193.63
470.295	16607.32
470.5	15722.6
470.705	15808.61
470.91	15736.93
471.115	15294.57
471.32	15704.17
471.525	15282.28
471.73	15132.78
471.935	15061.1
472.139	14338.17
472.344	14655.61
472.549	14739.57
472.754	14411.9
472.959	14069.89
473.164	13783.17
473.369	13738.12
473.574	14041.22
473.778	13920.38
473.983	13635.72
474.188	13645.96
474.393	13072.53
474.598	13320.33
474.802	12925.07
475.007	13058.19
475.212	13097.1
475.417	12482.71
475.621	12624.02
475.826	12468.38
476.031	12320.92
476.235	12210.33
476.44	12265.63
476.645	12040.35
476.849	11962.53
477.054	12077.21
477.259	11798.69
477.463	11896.99
477.668	11534.5
477.872	11608.23
478.077	11423.91
478.282	11098.28
478.486	11047.08
478.691	10928.3
478.895	11061.42
479.1	10873.01
479.304	10922.16
479.509	10617.01
479.713	10741.94
479.918	10535.09
480.122	10256.57
480.326	10649.78
480.531	10449.08
480.735	10426.55
480.94	10258.62
481.144	10664.11
481.348	9943.23
481.553	10254.52
481.757	10113.21
481.961	10076.35
482.166	10178.75
482.37	10217.66
482.574	10035.39
482.778	10053.82
482.983	10383.54
483.187	10025.15
483.391	10123.45
483.595	10320.06
483.8	9922.75
484.004	10008.76
484.208	10332.34
484.412	10080.44
484.616	10143.93
484.821	10113.21
485.025	9795.78
485.229	10139.83
485.433	9885.89
485.637	10068.16
485.841	10074.3
486.045	9949.37
486.249	10143.93
486.453	10092.73
486.657	10158.27
486.861	10049.72
487.065	9767.1
487.269	9859.26
487.473	9822.4
487.677	10029.24
487.881	10137.79
488.085	9941.18
488.289	9838.78
488.493	10039.48
488.697	10102.97
488.901	10369.21
489.105	10246.33
489.309	10082.49
489.512	10254.52
489.716	10174.65
489.92	10102.97
490.124	10244.28
490.328	10379.45
490.531	9838.78
490.735	10346.68
490.939	10498.23
491.143	10375.35
491.346	10186.94
491.55	10557.62
491.754	10442.93
491.958	10516.66
492.161	10625.2
492.365	10676.4
492.569	10623.16
492.772	10545.33
492.976	10653.87
493.18	10660.02
493.383	10887.34
493.587	11016.37
493.79	10997.93
493.994	10782.9
494.197	10977.45
494.401	10971.31
494.605	10938.54
494.808	11260.07
495.012	11090.09
495.215	11372.71
495.419	11323.56
495.622	11520.17
495.825	11507.88
496.029	11589.8
496.232	11948.19
496.436	11886.75
496.639	12038.3
496.843	12056.73
497.046	12206.24
497.249	12312.73
497.453	12404.89
497.656	12664.98
497.859	12550.29
498.063	12810.39
498.266	13146.25
498.469	13183.12
498.673	13183.12
498.876	13394.06
499.079	13465.74
499.282	13338.76
499.485	13709.44
499.689	13897.86
499.892	13899.91
500.095	13996.16
500.298	14311.55
500.501	14133.37
500.705	14723.19
500.908	14626.93
501.111	14823.54
501.314	14807.16
501.517	15059.06
501.72	15222.89
501.923	15247.47
502.126	15612.01
502.329	15749.22
502.532	16087.14
502.735	16115.81
502.938	16539.74
503.141	16592.98
503.344	16695.38
503.547	16797.78
503.75	16947.28
503.953	17254.48
504.156	17459.27
504.359	17485.9
504.562	17610.82
504.765	18032.71
504.968	17952.84
505.17	18425.92
505.373	18485.31
505.576	18827.32
505.779	18726.97
505.982	18966.58
506.185	19335.21
506.387	19361.84
506.59	19652.65
506.793	20142.11
506.996	19871.78
507.198	20596.76
507.401	20346.91
507.604	20443.17
507.807	21008.4
508.009	21075.99
508.212	21245.97
508.415	21194.77
508.617	21891.08
508.82	21585.93
509.022	21690.38
509.225	22534.14
509.428	22525.95
509.63	22671.36
509.833	22857.72
510.035	23476.21
510.238	23164.92
510.44	23599.09
510.643	23756.78
510.845	24010.73
511.048	24109.03
511.25	24397.79
511.453	24545.25
511.655	25505.74
511.858	25380.82
512.06	25176.02
512.262	25483.22
512.465	25511.89
512.667	26001.35
512.87	26062.79
513.072	25989.06
513.274	26838.97
513.477	26931.13
513.679	27187.13
513.881	27180.98
514.084	28100.52
514.286	27660.21
514.488	28002.22
514.69	29001.63
514.893	28954.52
515.095	28839.84
515.297	29550.48
515.499	29255.57
515.701	30011.28
515.904	30162.83
516.106	30185.35
516.308	30766.98
516.51	31049.6
516.712	30832.51
516.914	31336.31
517.116	31952.75
517.318	31844.21
517.52	32163.69
517.722	32520.04
517.925	32546.66
518.127	32862.05
518.329	33384.28
518.531	32911.2
518.733	33806.16
518.935	33963.86
519.136	33916.75
519.338	34719.56
519.54	34740.04
519.742	35311.42
519.944	35180.35
520.146	35630.9
520.348	35739.44
520.55	35764.02
520.752	36349.74
520.954	36654.89
521.155	36697.89
521.357	37652.25
521.559	37359.39
521.761	37850.9
521.963	37678.87
522.164	38158.1
522.366	38366.99
522.568	38317.84
522.77	39044.87
522.971	39618.3
523.173	39450.36
523.375	39501.56
523.576	39923.44
523.778	39585.53
523.98	40402.67
524.181	40134.38
524.383	40283.89
524.584	41389.79
524.786	41051.87
524.988	40828.65
525.189	41461.47
525.391	41379.55
525.592	42131.15
525.794	41760.47
525.995	42223.31
526.197	42342.1
526.398	42340.05
526.6	42352.34
526.801	42706.63
527.003	43056.84
527.204	43034.31
527.406	43359.94
527.607	43407.04
527.808	43910.84
528.01	43120.32
528.211	43525.82
528.412	44394.16
528.614	44205.75
528.815	44224.18
529.016	44887.72
529.218	44099.25
529.419	44558
529.62	44801.71
529.822	44578.48
530.023	44951.21
530.224	44451.5
530.425	44990.12
530.626	44555.95
530.828	44693.16
531.029	45610.65
531.23	45307.55
531.431	45276.83
531.632	45276.83
531.833	45430.43
532.035	45479.58
532.236	45147.81
532.437	45885.08
532.638	45452.96
532.839	45301.41
533.04	45668
533.241	45536.93
533.442	46425.74
533.643	45905.56
533.844	45987.48
534.045	45989.53
534.246	45711
534.447	46036.63
534.648	46046.87
534.849	46069.4
535.05	45639.32
535.251	46081.69
535.451	45799.07
535.652	45897.37
535.853	45403.81
536.054	45952.66
536.255	46028.44
536.456	45520.54
536.657	46388.88
536.857	45930.14
537.058	45524.64
537.259	46139.03
537.46	46386.83
537.66	45860.51
537.861	46245.52
538.062	46249.62
538.263	46141.08
538.463	45731.48
538.664	45788.83
538.865	46108.31
539.065	46638.73
539.266	45735.58
539.466	46343.83
539.667	45549.21
539.868	46270.1
540.068	45907.61
540.269	46204.56
540.469	45999.77
540.67	45840.03
540.87	45932.18
541.071	45819.55
541.271	46218.9
541.472	45729.44
541.672	45831.83
541.873	45504.16
542.073	45674.14
542.274	46456.46
542.474	45508.25
542.675	45780.63
542.875	46089.88
543.075	46116.5
543.276	45211.3
543.476	46190.23
543.676	45581.98
543.877	45983.38
544.077	45833.88
544.277	45622.94
544.478	45690.52
544.678	45510.3
544.878	45797.02
545.078	45596.32
545.279	45233.83
545.479	45792.92
545.679	45794.97
545.879	45352.61
546.079	45633.18
546.28	45631.13
546.48	45356.71
546.68	45852.31
546.88	45729.44
547.08	45770.39
547.28	45416.1
547.48	45055.65
547.68	45481.63
547.88	45332.13
548.081	45559.45
548.281	45467.3
548.481	45432.48
548.681	45880.99
548.881	45358.75
549.081	45565.6
549.28	45201.06
549.48	46231.19
549.68	45321.89
549.88	46358.16
550.08	45375.14
550.28	45412
550.48	45065.89
550.68	45758.11
550.88	45244.07
551.08	45958.81
551.279	45520.54
551.479	44895.91
551.679	45108.9
551.879	45045.41
552.079	45596.32
552.278	44654.25
552.478	45412
552.678	45704.86
552.878	45498.02
553.077	45221.54
553.277	44824.23
553.477	45745.82
553.676	44801.71
553.876	45364.9
554.076	45096.61
554.275	44846.76
554.475	44609.2
554.674	45356.71
554.874	45328.03
555.074	44578.48
555.273	44953.26
555.473	44979.88
555.672	44601
555.872	44734.12
556.071	44621.48
556.271	45043.37
556.47	44658.35
556.67	43577.02
556.869	44453.55
557.068	44828.33
557.268	44156.6
557.467	44287.67
557.667	44295.86
557.866	44285.62
558.065	44140.21
558.265	44029.62
558.464	43980.47
558.663	44523.18
558.863	43648.7
559.062	44576.43
559.261	43566.78
559.461	44295.86
559.66	43630.27
559.859	43853.5
560.058	43409.09
560.258	43624.12
560.457	43253.44
560.656	43998.9
560.855	43458.24
561.054	43591.36
561.253	43169.47
561.453	42944.2
561.652	43267.78
561.851	43245.25
562.05	43075.27
562.249	42589.9
562.448	43091.65
562.647	42956.49
562.846	42682.06
563.045	43124.42
563.244	42567.37
563.443	42688.2
563.642	42165.97
563.841	42225.36
564.04	42249.94
564.239	42514.12
564.438	42299.09
564.637	42260.18
564.836	41952.98
565.035	41748.18
565.234	41797.34
565.432	41584.35
565.631	41674.46
565.83	41944.79
566.029	41838.29
566.228	41838.29
566.427	41686.75
566.625	41299.68
566.824	40666.86
567.023	40939.24
567.222	40804.07
567.42	41604.83
567.619	40910.57
567.818	40685.29
568.016	40601.32
568.215	41555.68
568.414	40693.48
568.612	41015.01
568.811	40623.85
569.01	40515.31
569.208	40064.75
569.407	40179.44
569.605	39810.81
569.804	40482.54
570.002	39845.62
570.201	40326.89
570.4	39577.34
570.598	39741.17
570.797	38942.47
570.995	39218.94
571.193	39081.73
571.392	39714.55
571.59	38838.02
571.789	39218.94
571.987	38821.64
572.186	38928.13
572.384	38815.49
572.582	38782.73
572.781	38702.85
572.979	38489.87
573.177	38442.76
573.376	38530.83
573.574	38233.87
573.772	38524.68
573.971	38020.88
574.169	38176.53
574.367	37912.34
574.565	38086.42
574.763	37678.87
574.962	37457.69
575.16	37328.67
575.358	37750.55
575.556	37062.43
575.754	37887.76
575.952	37037.86
576.151	37050.14
576.349	36788
576.547	36753.19
576.745	36880.16
576.943	36816.68
577.141	36482.86
577.339	36839.2
577.537	36347.69
577.735	36210.48
577.933	36048.69
578.131	36503.34
578.329	36026.16
578.527	35761.97
578.725	35579.7
578.923	35938.1
579.121	35673.91
579.319	35837.75
579.516	35966.77
579.714	35649.33
579.912	35583.8
580.11	35323.71
580.308	35624.76
580.506	35475.26
580.704	34914.11
580.901	35153.72
581.099	35213.12
581.297	34989.89
581.495	34756.42
581.692	34834.24
581.89	34514.76
582.088	34506.57
582.285	34697.03
582.483	34596.68
582.681	34338.63
582.878	34240.33
583.076	33838.93
583.274	34182.99
583.471	33683.28
583.669	33826.64
583.866	33681.24
584.064	33937.23
584.262	33091.42
584.459	33728.34
584.657	33242.97
584.854	33609.56
585.052	33007.45
585.249	33333.08
585.447	33431.38
585.644	32927.58
585.841	32970.59
586.039	33048.41
586.236	32716.64
586.434	32755.55
586.631	32456.55
586.828	32425.83
587.026	32526.18
587.223	32536.42
587.42	32147.31
587.618	32200.55
587.815	31807.34
588.012	31954.8
588.21	31889.26
588.407	31913.84
588.604	31623.03
588.801	31330.17
588.999	31678.32
589.196	31180.67
589.393	31559.54
589.59	31248.25
589.787	31451
589.984	31108.99
590.182	30769.02
590.379	31016.83
590.576	30973.82
590.773	30965.63
590.97	30568.32
591.167	30658.43
591.364	30453.64
591.561	30685.06
591.758	30158.73
591.955	30185.35
592.152	30572.42
592.349	29945.74
592.546	30152.59
592.743	30152.59
592.94	29634.45
593.137	29716.37
593.334	30097.29
593.531	29181.85
593.727	29466.52
593.924	29331.35
594.121	29407.12
594.318	29144.98
594.515	28825.5
594.712	29058.97
594.908	28858.27
595.105	28936.09
595.302	28710.82
595.499	28178.34
595.696	28551.07
595.892	28520.35
596.089	28868.51
596.286	28759.97
596.482	28616.61
596.679	28608.42
596.876	28145.58
597.072	28063.66
597.269	28075.94
597.466	28020.65
597.662	27778.99
597.859	27975.59
598.055	27785.13
598.252	27635.63
598.448	27498.42
598.645	27520.95
598.841	27357.11
599.038	27461.55
599.234	27363.25
599.431	27215.8
599.627	26920.89
599.824	27455.41
600.02	26927.03
600.217	27049.91
600.413	26855.36
600.609	26734.53
600.806	26376.13
601.002	26775.48
601.198	26574.78
601.395	26208.2
601.591	26148.81
601.787	26587.07
601.984	26062.79
602.18	26318.79
602.376	25913.29
602.572	25739.21
602.769	25780.17
602.965	25604.05
603.161	25817.04
603.357	25472.98
603.553	25499.6
603.75	25481.17
603.946	25276.37
604.142	25608.14
604.338	25065.43
604.534	25499.6
604.73	24829.91
604.926	24954.84
605.122	25239.51
605.318	24442.85
605.514	24813.53
605.71	24324.07
605.906	24518.62
606.102	24741.85
606.298	24600.54
606.494	24467.42
606.69	24268.77
606.886	24469.47
607.082	24309.73
607.278	24475.62
607.474	24074.21
607.67	24149.99
607.866	23877.61
608.062	24256.48
608.257	23795.69
608.453	23937
608.649	24018.92
608.845	23758.83
609.041	23943.14
609.236	23767.02
609.432	23701.48
609.628	23545.84
609.824	23627.76
610.019	23148.53
610.215	23382
610.411	23590.89
610.606	23537.65
610.802	23224.31
610.998	23181.3
611.193	23302.13
611.389	23128.05
611.584	23138.29
611.78	23050.23
611.976	23058.42
612.171	23148.53
612.367	23107.57
612.562	22771.71
612.758	22456.32
612.953	22556.67
613.149	23394.29
613.344	22708.22
613.539	23021.56
613.735	22648.83
613.93	22630.4
614.126	22548.48
614.321	22847.48
614.517	22872.06
614.712	22462.46
614.907	22138.88
615.103	22419.46
615.298	22401.02
615.493	22413.31
615.688	21999.62
615.884	22558.72
616.079	22216.71
616.274	22519.81
616.47	22370.3
616.665	22087.68
616.86	22016.01
617.055	21960.71
617.25	22020.1
617.445	22071.3
617.641	21628.94
617.836	21927.94
618.031	21209.11
618.226	21884.94
618.421	21553.16
618.616	21690.38
618.811	21514.25
619.006	21764.11
619.201	20916.25
619.396	21389.33
619.591	20795.42
619.786	21194.77
619.981	20520.99
620.176	21231.63
620.371	20629.53
620.566	20957.21
620.761	20840.47
620.956	20586.52
621.151	20443.17
621.346	20428.83
621.541	19804.2
621.735	20422.69
621.93	20113.44
622.125	20076.58
622.32	19572.78
622.515	19886.12
622.709	19802.15
622.904	19857.45
623.099	19513.39
623.294	19757.1
623.488	19111.99
623.683	19394.61
623.878	18929.72
624.072	19105.84
624.267	19005.49
624.462	18743.35
624.656	18565.18
624.851	18673.72
625.046	18460.73
625.24	18233.41
625.435	18194.5
625.629	18202.69
625.824	18014.27
626.018	17985.6
626.213	17733.7
626.407	17989.7
626.602	17881.16
626.796	17596.49
626.991	17557.58
627.185	17608.78
627.38	17350.73
627.574	17401.93
627.768	17211.47
627.963	17358.92
628.157	16920.66
628.352	17127.5
628.546	16760.92
628.74	17281.1
628.935	16701.53
629.129	16676.95
629.323	16685.14
629.517	16310.36
629.712	16357.47
629.906	16488.54
630.1	16113.76
630.294	16158.81
630.489	15984.74
630.683	16195.68
630.877	15972.45
631.071	15646.82
631.265	15702.12
631.459	15681.64
631.653	15564.9
631.848	15620.2
632.042	15388.78
632.236	15382.63
632.43	14884.98
632.624	15087.73
632.818	14946.42
633.012	14739.57
633.206	14663.8
633.4	14884.98
633.594	14633.08
633.788	14719.09
633.982	14696.57
634.176	14454.9
634.369	14430.33
634.563	14473.34
634.757	14229.63
634.951	14463.1
635.145	14084.22
635.339	14145.66
635.533	14020.74
635.726	14073.98
635.92	13844.61
636.114	13904
636.308	13781.12
636.501	13670.53
636.695	13580.42
636.889	13299.85
637.083	13510.79
637.276	13369.48
637.47	13203.6
637.664	13265.03
637.857	13201.55
638.051	13050
638.244	13011.09
638.438	12875.92
638.632	12916.88
638.825	12816.53
639.019	12882.06
639.212	12800.15
639.406	12603.54
639.599	12638.36
639.793	12597.4
639.986	12267.67
640.18	12345.5
640.373	12361.88
640.567	12126.36
640.76	12421.27
640.954	12103.84
641.147	12175.52
641.34	12085.4
641.534	11899.04
641.727	11782.31
641.92	11837.6
642.114	11552.93
642.307	11821.22
642.5	11643.04
642.694	11395.24
642.887	11333.8
643.08	11428.01
643.273	11446.44
643.467	11382.95
643.66	11223.21
643.853	11155.63
644.046	11036.84
644.239	10952.88
644.432	10999.98
644.626	11006.13
644.819	10981.55
645.012	10969.26
645.205	10928.3
645.398	10762.42
645.591	10850.48
645.784	10678.45
645.977	10483.89
646.17	10414.26
646.363	10455.22
646.556	10401.97
646.749	10293.43
646.942	10328.25
647.135	10139.83
647.328	10285.24
647.521	10094.78
647.714	10111.16
647.907	10010.81
648.099	10234.04
648.292	10033.34
648.485	9713.86
648.678	9889.98
648.871	9881.79
649.064	9760.96
649.256	9879.74
649.449	9564.36
649.642	9740.48
649.835	9539.78
650.027	9525.44
650.22	9500.87
650.413	9502.92
650.605	9341.13
650.798	9306.31
650.991	9355.46
651.183	9119.95
651.376	9109.71
651.568	9087.18
651.761	9103.56
651.954	8956.11
652.146	8956.11
652.339	8927.44
652.531	8794.32
652.724	8884.43
652.916	8564.95
653.109	8814.8
653.301	8808.65
653.494	8523.99
653.686	8446.16
653.879	8696.02
654.071	8466.64
654.263	8448.21
654.456	8440.02
654.648	8384.73
654.84	8300.76
655.033	8313.05
655.225	8239.32
655.417	8237.27
655.61	8169.69
655.802	8155.35
655.994	8132.83
656.186	8157.4
656.379	7852.25
656.571	8048.86
656.763	8106.2
656.955	7844.06
657.148	7921.88
657.34	7952.6
657.532	7704.8
657.724	7676.13
657.916	7682.27
658.108	7680.22
658.3	7583.97
658.492	7586.02
658.684	7495.91
658.876	7655.65
659.068	7362.79
659.26	7291.11
659.452	7522.53
659.644	7432.42
659.836	7325.93
660.028	7274.73
660.22	7137.51
660.412	7170.28
660.604	7151.85
660.796	7061.74
660.988	7194.86
661.18	7055.59
661.372	6914.28
661.563	6701.3
661.755	6873.32
661.947	6826.22
662.139	6844.65
662.331	6899.95
662.522	6709.49
662.714	6893.8
662.906	6723.82
663.097	6734.06
663.289	6746.35
663.481	6668.53
663.673	6609.14
663.864	6480.11
664.056	6449.39
664.247	6607.09
664.439	6387.96
664.631	6406.39
664.822	6390
665.014	6340.85
665.205	6330.61
665.397	6428.92
665.588	6193.4
665.78	6220.02
665.971	6369.52
666.163	6338.8
666.354	6050.04
666.546	6146.3
666.737	6195.45
666.929	6189.3
667.12	6093.05
667.311	5931.26
667.503	6035.71
667.694	6097.14
667.885	5878.01
668.077	5980.41
668.268	5822.72
668.459	5740.8
668.651	5886.2
668.842	5732.61
669.033	5886.2
669.224	5810.43
669.416	5802.24
669.607	5734.65
669.798	5613.82
669.989	5628.16
670.18	5675.26
670.371	5488.9
670.563	5517.57
670.754	5546.24
670.945	5486.85
671.136	5480.71
671.327	5454.08
671.518	5388.55
671.709	5499.14
671.9	5517.57
672.091	5374.21
672.282	5525.76
672.473	5320.96
672.664	5230.85
672.855	5257.48
673.046	5212.42
673.237	5237
673.428	5193.99
673.619	5183.75
673.809	5185.8
674	5308.68
674.191	5185.8
674.382	5157.13
674.573	5058.82
674.764	5038.34
674.954	5040.39
675.145	4856.08
675.336	5120.26
675.527	5095.69
675.717	4847.88
675.908	5056.78
676.099	5021.96
676.289	5017.86
676.48	4935.95
676.671	4913.42
676.861	5017.86
677.052	4823.31
677.243	4864.27
677.433	4864.27
677.624	5038.34
677.814	4978.95
678.005	4901.13
678.195	4788.49
678.386	4782.35
678.576	4727.05
678.767	4755.72
678.957	4632.85
679.148	4757.77
679.338	4720.91
679.529	4679.95
679.719	4645.13
679.909	4761.87
680.1	4727.05
680.29	4589.84
680.481	4600.08
680.671	4716.81
680.861	4616.46
681.052	4581.65
681.242	4501.78
681.432	4616.46
681.622	4524.3
681.813	4569.36
682.003	4432.15
682.193	4477.2
682.383	4487.44
682.573	4485.39
682.764	4411.67
682.954	4497.68
683.144	4477.2
683.334	4469.01
683.524	4423.95
683.714	4380.95
683.904	4311.32
684.094	4462.87
684.284	4423.95
684.474	4305.17
684.664	4344.08
684.854	4219.16
685.044	4360.47
685.234	4344.08
685.424	4280.6
685.614	4301.08
685.804	4417.81
685.994	4284.69
686.184	4350.23
686.374	4270.36
686.564	4137.24
686.753	4215.06
686.943	4149.53
687.133	4010.26
687.323	3997.98
687.513	4110.61
687.702	4120.85
687.892	3969.3
688.082	3944.73
688.272	4102.42
688.461	3938.59
688.651	4077.85
688.841	3916.06
689.03	4006.17
689.22	3897.63
689.41	3932.44
689.599	3821.85
689.789	4047.13
689.979	3932.44
690.168	3748.12
690.358	3684.64
690.547	3891.48
690.737	3703.07
690.926	3784.99
691.116	3688.73
691.305	3817.76
691.495	3727.64
691.684	3711.26
691.874	3621.15
692.063	3852.57
692.252	3629.34
692.442	3590.43
692.631	3455.26
692.82	3703.07
693.01	3580.19
693.199	3623.2
693.388	3399.97
693.578	3502.37
693.767	3436.83
693.956	3584.29
694.146	3496.22
694.335	3516.7
694.524	3424.55
694.713	3490.08
694.902	3320.1
695.092	3477.79
695.281	3402.02
695.47	3393.83
695.659	3551.52
695.848	3356.96
696.037	3287.33
696.226	3307.81
696.415	3328.29
696.604	3477.79
696.793	3440.93
696.982	3332.39
697.171	3287.33
697.36	3359.01
697.549	3352.87
697.738	3260.71
697.927	3215.65
698.116	3369.25
698.305	3105.06
698.494	3295.52
698.683	3281.19
698.872	3215.65
699.061	3268.9
699.25	3201.32
699.438	3170.6
699.627	3223.84
699.816	3383.59
700.005	3242.28
700.193	3236.13
700.382	3301.67
700.571	3213.6
700.76	3201.32
700.948	3240.23
701.137	3146.02
701.326	3283.24
701.514	3154.21
701.703	3205.41
701.892	3078.44
702.08	3219.75
702.269	3168.55
702.457	3207.46
702.646	3182.88
702.834	3152.17
703.023	3182.88
703.212	3090.73
703.4	3127.59
703.589	3189.03
703.777	3072.29
703.965	2998.57
704.154	3045.67
704.342	3113.25
704.531	3131.69
704.719	3152.17
704.907	3113.25
705.096	3080.49
705.284	3002.66
705.472	3080.49
705.661	3160.36
705.849	3076.39
706.037	3131.69
706.226	3125.54
706.414	3025.19
706.602	3031.34
706.79	3017
706.979	2971.94
707.167	3068.2
707.355	2984.23
707.543	3072.29
707.731	3103.01
707.919	3039.53
708.107	3031.34
708.296	3021.1
708.484	3014.95
708.672	3062.05
708.86	3098.92
709.048	3072.29
709.236	2937.13
709.424	3051.81
709.612	3029.29
709.8	3051.81
709.988	2959.66
710.176	3068.2
710.364	3096.87
710.551	2978.09
710.739	2920.74
710.927	3023.14
711.115	2935.08
711.303	2900.27
711.491	2953.51
711.679	3043.62
711.866	2990.38
712.054	2937.13
712.242	2910.5
712.43	2928.94
712.617	2953.51
712.805	2904.36
712.993	2959.66
713.181	3002.66
713.368	3047.72
713.556	3031.34
713.744	2953.51
713.931	2883.88
714.119	2939.18
714.306	2928.94
714.494	2840.87
714.682	2930.98
714.869	2885.93
715.057	3023.14
715.244	2859.31
715.432	2935.08
715.619	2928.94
715.807	2947.37
715.994	2883.88
716.182	2904.36
716.369	3014.95
716.556	2869.55
716.744	2933.03
716.931	2933.03
717.119	2871.59
717.306	3019.05
717.493	2928.94
717.681	2933.03
717.868	2898.22
718.055	2922.79
718.242	2998.57
718.43	2877.74
718.617	2914.6
718.804	2898.22
718.991	2935.08
719.179	2773.29
719.366	2916.65
719.553	2881.83
719.74	2890.03
719.927	2761
720.114	2851.11
720.301	2826.54
720.488	2791.72
720.676	2875.69
720.863	2896.17
721.05	2885.93
721.237	2808.11
721.424	2812.2
721.611	2869.55
721.798	2920.74
721.985	2769.2
722.172	2853.16
722.358	2797.87
722.545	2914.6
722.732	2814.25
722.919	2863.4
723.106	2799.91
723.293	2871.59
723.48	2842.92
723.667	2814.25
723.853	2808.11
724.04	2824.49
724.227	2853.16
724.414	2830.63
724.6	3072.29
724.787	2924.84
724.974	2863.4
725.161	2758.96
725.347	2672.94
725.534	2912.55
725.72	2842.92
725.907	2855.21
726.094	2896.17
726.28	2881.83
726.467	2920.74
726.653	2830.63
726.84	2871.59
727.027	2935.08
727.213	2742.57
727.4	2941.22
727.586	2832.68
727.773	2871.59
727.959	2865.45
728.145	2752.81
728.332	2840.87
728.518	2801.96
728.705	2935.08
728.891	2832.68
729.077	2881.83
729.264	2769.2
729.45	2795.82
729.636	2838.83
729.823	2793.77
730.009	2756.91
730.195	2916.65
730.382	2945.32
730.568	2930.98
730.754	2738.48
730.94	2789.67
731.126	2750.76
731.313	2877.74
731.499	2943.27
731.685	2824.49
731.871	2769.2
732.057	2756.91
732.243	2785.58
732.429	2664.75
732.615	2668.84
732.801	2771.24
732.987	2771.24
733.173	2808.11
733.359	2775.34
733.545	2666.8
733.731	2746.67
733.917	2818.35
734.103	2818.35
734.289	2844.97
734.475	2654.51
734.661	2787.63
734.847	2718
735.033	2750.76
735.219	2771.24
735.404	2730.28
735.59	2687.28
735.776	2804.01
735.962	2777.39
736.148	2754.86
736.333	2840.87
736.519	2902.31
736.705	2605.36
736.89	2818.35
737.076	2752.81
737.262	2777.39
737.447	2740.52
737.633	2627.89
737.819	2775.34
738.004	2705.71
738.19	2734.38
738.375	2556.21
738.561	2769.2
738.747	2668.84
738.932	2595.12
739.118	2642.22
739.303	2693.42
739.489	2636.08
739.674	2691.37
739.859	2748.72
740.045	2748.72
740.23	2619.69
740.416	2586.93
740.601	2588.97
740.786	2664.75
740.972	2623.79
741.157	2662.7
741.342	2586.93
741.528	2597.17
741.713	2654.51
741.898	2515.25
742.084	2603.31
742.269	2576.69
742.454	2578.73
742.639	2509.1
742.824	2554.16
743.01	2611.5
743.195	2621.74
743.38	2447.66
743.565	2449.71
743.75	2529.58
743.935	2511.15
744.12	2384.18
744.305	2543.92
744.49	2586.93
744.675	2453.81
744.86	2402.61
745.045	2423.09
745.23	2466.1
745.415	2369.84
745.6	2359.6
745.785	2412.85
745.97	2394.42
746.155	2369.84
746.34	2332.98
746.525	2355.51
746.71	2314.55
746.895	2353.46
747.079	2371.89
747.264	2335.03
747.449	2302.26
747.634	2285.87
747.819	2283.83
748.003	2181.43
748.188	2169.14
748.373	2109.75
748.557	2249.01
748.742	2117.94
748.927	2214.2
749.111	2130.23
749.296	2185.52
749.481	2238.77
749.665	2046.26
749.85	2066.74
750.034	2109.75
750.219	2060.6
750.404	2124.08
750.588	2113.85
750.773	1962.3
750.957	2074.93
751.141	2015.54
751.326	2029.88
751.51	1952.06
751.695	1907
751.879	1921.34
752.064	1980.73
752.248	2009.4
752.432	1909.05
752.617	1833.27
752.801	1876.28
752.985	1945.91
753.17	1839.42
753.354	1782.07
753.538	1863.99
753.722	1796.41
753.907	1898.81
754.091	1884.47
754.275	1839.42
754.459	1827.13
754.643	1853.75
754.828	1820.99
755.012	1741.11
755.196	1810.75
755.38	1716.54
755.564	1749.31
755.748	1757.5
755.932	1669.44
756.116	1589.57
756.3	1706.3
756.484	1610.04
756.668	1626.43
756.852	1595.71
757.036	1567.04
757.22	1554.75
757.404	1683.77
757.588	1569.09
757.772	1554.75
757.956	1597.76
758.14	1556.8
758.323	1519.93
758.507	1550.65
758.691	1458.5
758.875	1593.66
759.059	1438.02
759.242	1507.65
759.426	1462.59
759.61	1526.08
759.794	1497.41
759.977	1505.6
760.161	1640.76
760.345	1405.25
760.528	1562.94
760.712	1493.31
760.895	1458.5
761.079	1354.05
761.263	1474.88
761.446	1429.82
761.63	1358.14
761.813	1384.77
761.997	1433.92
762.18	1458.5
762.364	1417.54
762.547	1364.29
762.731	1341.76
762.914	1349.95
763.098	1233.22
763.281	1237.31
763.464	1259.84
763.648	1302.85
763.831	1284.42
764.015	1368.38
764.198	1331.52
764.381	1214.79
764.564	1321.28
764.748	1323.33
764.931	1212.74
765.114	1157.44
765.297	1280.32
765.481	1147.2
765.664	1202.5
765.847	1188.16
766.03	1296.71
766.213	1143.11
766.397	1222.98
766.58	1239.36
766.763	1171.78
766.946	1161.54
767.129	1159.49
767.312	1179.97
767.495	1257.79
767.678	1126.72
767.861	1139.01
768.044	1120.58
768.227	1182.02
768.41	1179.97
768.593	1085.76
768.776	1147.2
768.959	1059.14
769.142	1237.31
769.324	1128.77
769.507	1179.97
769.69	1046.85
769.873	1081.67
770.056	1089.86
770.239	1139.01
770.421	1155.4
770.604	1075.52
770.787	1075.52
770.97	1030.47
771.152	1067.33
771.335	1087.81
771.518	1102.15
771.7	1020.23
771.883	1083.72
772.066	1053
772.248	1036.61
772.431	1085.76
772.613	1001.8
772.796	1016.13
772.978	1089.86
773.161	1036.61
773.343	934.22
773.526	956.74
773.708	973.13
773.891	1087.81
774.073	909.64
774.256	1012.04
774.438	962.89
774.621	950.6
774.803	934.22
774.985	926.02
775.168	887.11
775.35	903.5
775.532	946.5
775.715	936.26
775.897	1005.89
776.079	829.77
776.261	889.16
776.444	938.31
776.626	870.73
776.808	858.44
776.99	923.98
777.173	821.58
777.355	858.44
777.537	837.96
777.719	837.96
777.901	889.16
778.083	813.38
778.265	745.8
778.447	813.38
778.629	786.76
778.811	770.38
778.993	819.53
779.175	788.81
779.357	799.05
779.539	696.65
779.721	768.33
779.903	825.67
780.085	686.41
780.267	815.43
780.449	741.71
780.631	688.46
780.812	753.99
780.994	766.28
781.176	743.75
781.358	684.36
781.54	608.59
781.721	713.03
781.903	672.08
782.085	706.89
782.267	713.03
782.448	686.41
782.63	649.55
782.812	667.98
782.993	627.02
783.175	631.12
783.357	604.49
783.538	674.12
783.72	635.21
783.901	602.44
784.083	651.6
784.264	618.83
784.446	561.48
784.627	614.73
784.809	588.11
784.99	573.77
785.172	602.44
785.353	616.78
785.535	534.86
785.716	571.72
785.897	604.49
786.079	545.1
786.26	608.59
786.441	565.58
786.623	491.85
786.804	553.29
786.985	563.53
787.167	530.77
787.348	538.96
787.529	498
787.71	512.33
787.891	506.19
788.073	553.29
788.254	411.98
788.435	524.62
788.616	520.53
788.797	395.6
788.978	477.52
789.159	508.24
789.34	522.57
789.522	457.04
789.703	514.38
789.884	438.61
790.065	446.8
790.246	459.09
790.427	477.52
790.607	530.77
790.788	459.09
790.969	440.65
791.15	368.98
791.331	463.18
791.512	414.03
791.693	483.66
791.874	514.38
792.054	495.95
792.235	426.32
792.416	407.89
792.597	385.36
792.778	393.55
792.958	475.47
793.139	454.99
793.32	401.74
793.5	391.5
793.681	481.61
793.862	403.79
794.042	401.74
794.223	426.32
794.404	385.36
794.584	393.55
794.765	375.12
794.945	487.76
795.126	438.61
795.306	334.16
795.487	346.45
795.667	334.16
795.848	280.91
796.028	375.12
796.209	307.54
796.389	319.82
796.57	356.69
796.75	272.72
796.93	289.1
797.111	430.41
797.291	356.69
797.471	422.22
797.652	297.3
797.832	328.02
798.012	364.88
798.192	352.59
798.373	317.78
798.553	360.78
798.733	391.5
798.913	221.52
799.093	291.15
799.274	325.97
799.454	272.72
799.634	321.87
799.814	328.02
799.994	301.39
800.174	307.54
800.354	336.21
800.534	262.48
800.714	307.54
800.894	217.43
801.074	336.21
801.254	291.15
801.434	262.48
801.614	266.58
801.794	295.25
801.974	710.99
802.154	356.69
802.334	285.01
802.514	383.31
802.693	274.77
802.873	340.3
803.053	344.4
803.233	301.39
803.413	319.82
803.592	287.06
803.772	250.19
803.952	276.82
804.131	272.72
804.311	268.63
804.491	248.15
804.67	248.15
804.85	272.72
805.03	221.52
805.209	305.49
805.389	242
805.568	282.96
805.748	184.66
805.928	309.58
806.107	225.62
806.287	229.71
806.466	276.82
806.646	246.1
806.825	229.71
807.004	252.24
807.184	268.63
807.363	260.43
807.543	291.15
807.722	211.28
807.901	289.1
808.081	172.37
808.26	155.99
808.439	229.71
808.619	262.48
808.798	196.95
808.977	278.87
809.156	291.15
809.336	168.27
809.515	174.42
809.694	219.47
809.873	287.06
810.052	184.66
810.231	207.19
810.411	225.62
810.59	237.91
810.769	213.33
810.948	192.85
811.127	172.37
811.306	278.87
811.485	180.56
811.664	235.86
811.843	254.29
812.022	229.71
812.201	262.48
812.38	248.15
812.559	180.56
812.737	207.19
812.916	188.75
813.095	127.32
813.274	219.47
813.453	102.74
813.632	276.82
813.811	198.99
813.989	196.95
814.168	137.56
814.347	205.14
814.526	153.94
814.704	219.47
814.883	221.52
815.062	117.08
815.24	137.56
815.419	164.18
815.598	176.47
815.776	168.27
815.955	133.46
816.133	227.67
816.312	217.43
816.49	53.59
816.669	143.7
816.847	201.04
817.026	188.75
817.204	178.51
817.383	184.66
817.561	233.81
817.74	207.19
817.918	194.9
818.097	205.14
818.275	123.22
818.453	147.8
818.632	203.09
818.81	155.99
818.988	129.36
819.167	170.32
819.345	188.75
819.523	151.89
819.701	182.61
819.879	65.88
820.058	131.41
820.236	164.18
820.414	143.7
820.592	225.62
820.77	112.98
820.948	133.46
821.127	129.36
821.305	160.08
821.483	37.2
821.661	170.32
821.839	108.88
822.017	133.46
822.195	104.79
822.373	190.8
822.551	131.41
822.729	158.03
822.907	135.51
823.085	53.59
823.262	184.66
823.44	102.74
823.618	153.94
823.796	65.88
823.974	160.08
824.152	51.54
824.329	115.03
824.507	119.12
824.685	127.32
824.863	133.46
825.04	102.74
825.218	182.61
825.396	90.45
825.574	110.93
825.751	133.46
825.929	139.6
826.107	12.63
826.284	115.03
826.462	125.27
826.639	176.47
826.817	143.7
826.994	51.54
827.172	172.37
827.349	178.51
827.527	119.12
827.704	145.75
827.882	117.08
828.059	96.6
828.237	207.19
828.414	121.17
828.591	24.92
828.769	172.37
828.946	143.7
829.124	69.97
829.301	186.71
829.478	176.47
829.655	139.6
829.833	119.12
830.01	110.93
830.187	94.55
830.364	69.97
830.542	82.26
830.719	198.99
830.896	82.26
831.073	135.51
831.25	92.5
831.427	139.6
831.604	158.03
831.782	92.5
831.959	72.02
832.136	33.11
832.313	106.84
832.49	102.74
832.667	65.88
832.844	96.6
833.021	69.97
833.198	49.49
833.374	121.17
833.551	78.16
833.728	102.74
833.905	100.69
834.082	90.45
834.259	115.03
834.436	143.7
834.612	82.26
834.789	155.99
834.966	35.16
835.143	129.36
835.319	69.97
835.496	115.03
835.673	129.36
835.85	127.32
836.026	12.63
836.203	153.94
836.38	29.01
836.556	139.6
836.733	174.42
836.909	86.36
837.086	47.44
837.262	115.03
837.439	67.92
837.616	88.4
837.792	129.36
837.968	69.97
838.145	65.88
838.321	24.92
838.498	196.95
838.674	110.93
838.851	47.44
839.027	69.97
839.203	153.94
839.38	74.07
839.556	-13.99
839.732	98.64
839.909	55.64
840.085	47.44
840.261	74.07
840.437	110.93
840.614	84.31
840.79	129.36
840.966	26.96
841.142	80.21
841.318	76.12
841.494	98.64
841.671	76.12
841.847	86.36
842.023	24.92
842.199	43.35
842.375	61.78
842.551	43.35
842.727	53.59
842.903	223.57
843.079	29.01
843.255	61.78
843.431	22.87
843.607	53.59
843.783	41.3
843.959	78.16
844.134	74.07
844.31	123.22
844.486	61.78
844.662	4.44
844.838	37.2
845.013	88.4
845.189	78.16
845.365	82.26
845.541	72.02
845.716	82.26
845.892	47.44
846.068	14.68
846.244	47.44
846.419	18.77
846.595	49.49
846.77	92.5
846.946	84.31
847.122	94.55
847.297	18.77
847.473	72.02
847.648	51.54
847.824	102.74
847.999	47.44
848.175	37.2
848.35	98.64
848.526	65.88
848.701	39.25
848.876	94.55
849.052	57.68
849.227	143.7
849.403	69.97
849.578	57.68
849.753	102.74
849.929	47.44
850.104	67.92
850.279	65.88
850.454	12.63
850.63	86.36
850.805	141.65
850.98	-46.76
851.155	8.53
851.33	108.88
851.505	-85.67
851.681	26.96
851.856	47.44
852.031	31.06
852.206	57.68
852.381	4.44
852.556	59.73
852.731	59.73
852.906	12.63
853.081	131.41
853.256	22.87
853.431	112.98
853.606	0.34
853.781	63.83
853.956	-32.43
854.131	29.01
854.305	65.88
854.48	158.03
854.655	-36.52
854.83	110.93
855.005	37.2
855.18	24.92
855.354	39.25
855.529	31.06
855.704	10.58
855.879	31.06
856.053	90.45
856.228	61.78
856.403	12.63
856.577	53.59
856.752	35.16
856.926	16.73
857.101	20.82
857.276	84.31
857.45	98.64
857.625	119.12
857.799	29.01
857.974	14.68
858.148	4.44
858.323	35.16
858.497	31.06
858.672	47.44
858.846	20.82
859.02	22.87
859.195	106.84
859.369	18.77
859.543	16.73
859.718	18.77
859.892	55.64
860.066	90.45
860.241	8.53
860.415	-7.85
860.589	24.92
860.763	4.44
860.938	16.73
861.112	20.82
861.286	12.63
861.46	74.07
861.634	72.02
861.808	45.4
861.982	49.49
862.157	72.02
862.331	49.49
862.505	43.35
862.679	-22.19
862.853	8.53
863.027	20.82
863.201	100.69
863.375	20.82
863.549	20.82
863.722	-30.38
863.896	45.4
864.07	31.06
864.244	78.16
864.418	49.49
864.592	-30.38
864.766	57.68
864.939	61.78
865.113	31.06
865.287	31.06
865.461	82.26
865.634	65.88
865.808	69.97
865.982	8.53
866.156	12.63
866.329	-32.43
866.503	4.44
866.676	57.68
866.85	-3.75
867.024	18.77
867.197	20.82
867.371	47.44
867.544	57.68
867.718	8.53
867.891	26.96
868.065	61.78
868.238	78.16
868.412	33.11
868.585	67.92
868.759	78.16
868.932	90.45
869.105	22.87
869.279	14.68
869.452	-20.14
869.625	53.59
869.799	55.64
869.972	-22.19
870.145	55.64
870.319	31.06
870.492	39.25
870.665	37.2
870.838	35.16
871.011	33.11
871.185	-22.19
871.358	-52.91
871.531	18.77
871.704	4.44
871.877	18.77
872.05	90.45
872.223	43.35
872.396	69.97
872.569	37.2
872.742	45.4
872.915	24.92
873.088	12.63
873.261	82.26
873.434	-16.04
873.607	2.39
873.78	39.25
873.953	-11.95
874.126	41.3
874.299	67.92
874.471	26.96
874.644	-26.28
874.817	20.82
874.99	6.49
875.163	-9.9
875.335	37.2
875.508	-34.47
875.681	82.26
875.853	12.63
876.026	26.96
876.199	55.64
876.371	26.96
876.544	37.2
876.717	-30.38
876.889	-16.04
877.062	-3.75
877.234	0.34
877.407	102.74
877.579	-13.99
877.752	-5.8
877.924	31.06
878.097	26.96
878.269	29.01
878.442	31.06
878.614	74.07
878.786	-34.47
878.959	-112.3
879.131	72.02
879.303	29.01
879.476	-13.99
879.648	-63.15
879.82	14.68
879.993	16.73
880.165	29.01
880.337	31.06
880.509	-42.67
880.681	16.73
880.854	76.12
881.026	61.78
881.198	100.69
881.37	-9.9
881.542	55.64
881.714	-30.38
881.886	-38.57
882.058	16.73
882.23	78.16
882.402	20.82
882.574	108.88
882.746	-5.8
882.918	35.16
883.09	123.22
883.262	90.45
883.434	49.49
883.606	-36.52
883.778	24.92
883.95	14.68
884.122	-9.9
884.293	-13.99
884.465	88.4
884.637	20.82
884.809	16.73
884.98	39.25
885.152	39.25
885.324	12.63
885.496	-1.71
885.667	92.5
885.839	12.63
886.011	6.49
886.182	47.44
886.354	4.44
886.525	20.82
886.697	20.82
886.869	-9.9
887.04	37.2
887.212	-34.47
887.383	67.92
887.555	-20.14
887.726	-7.85
887.897	10.58
888.069	-36.52
888.24	35.16
888.412	76.12
888.583	8.53
888.754	31.06
888.926	-50.86
889.097	80.21
889.268	-48.81
889.44	-9.9
889.611	-11.95
889.782	29.01
889.953	24.92
890.125	6.49
890.296	-18.09
890.467	-16.04
890.638	20.82
890.809	51.54
890.98	-36.52
891.151	-5.8
891.323	26.96
891.494	-3.75
891.665	59.73
891.836	16.73
892.007	26.96
892.178	18.77
892.349	-57
892.52	43.35
892.691	-44.71
892.862	0.34
893.032	-1.71
893.203	41.3
893.374	4.44
893.545	76.12
893.716	-26.28
893.887	51.54
894.057	-9.9
894.228	31.06
894.399	-44.71
894.57	57.68
894.74	16.73
894.911	16.73
895.082	41.3
895.253	14.68
895.423	-1.71
895.594	35.16
895.764	67.92
895.935	-30.38
896.106	-16.04
896.276	-11.95
896.447	16.73
896.617	-7.85
896.788	24.92
896.958	-7.85
897.129	-1.71
897.299	8.53
897.47	-26.28
897.64	-11.95
897.81	4.44
897.981	-34.47
898.151	-38.57
898.322	-30.38
898.492	14.68
898.662	35.16
898.832	31.06
899.003	63.83
899.173	35.16
899.343	-32.43
899.513	-18.09
