Data from USB4F104151__66__11-45-24-828.txt Node

Date: Fri Mar 14 11:45:24 EDT 2025
User: louis
Spectrometer: USB4F10415
Trigger mode: 4
Integration Time (sec): 2.000000E-2
Scans to average: 1
Electric dark correction enabled: true
Nonlinearity correction enabled: false
Boxcar width: 0
XAxis mode: Wavelengths
Number of Pixels in Spectrum: 3648
>>>>>Begin Spectral Data<<<<<
178.204	-69.29
178.424	-69.29
178.644	-69.29
178.864	-118.44
179.084	-30.38
179.304	4.44
179.524	-9.9
179.744	-34.47
179.964	-3.75
180.184	-26.28
180.404	16.73
180.624	4.44
180.844	4.44
181.064	-18.09
181.283	-26.28
181.503	-34.47
181.723	123.22
181.943	-42.67
182.163	59.73
182.383	-30.38
182.602	-61.1
182.822	24.92
183.042	24.92
183.262	-16.04
183.482	45.4
183.701	63.83
183.921	31.06
184.141	-42.67
184.361	45.4
184.58	-11.95
184.8	-24.23
185.02	-3.75
185.239	51.54
185.459	24.92
185.679	39.25
185.898	-13.99
186.118	57.68
186.338	59.73
186.557	31.06
186.777	-40.62
186.997	65.88
187.216	76.12
187.436	82.26
187.655	35.16
187.875	108.88
188.095	-7.85
188.314	-28.33
188.534	0.34
188.753	31.06
188.973	47.44
189.192	41.3
189.412	61.78
189.631	16.73
189.851	45.4
190.07	10.58
190.29	4.44
190.509	-36.52
190.729	20.82
190.948	51.54
191.168	92.5
191.387	186.71
191.607	-26.28
191.826	16.73
192.045	2.39
192.265	67.92
192.484	51.54
192.704	33.11
192.923	-13.99
193.142	51.54
193.362	74.07
193.581	51.54
193.8	80.21
194.02	53.59
194.239	6.49
194.458	41.3
194.678	-24.23
194.897	69.97
195.116	10.58
195.335	35.16
195.555	49.49
195.774	104.79
195.993	16.73
196.212	-67.24
196.432	-3.75
196.651	53.59
196.87	-26.28
197.089	102.74
197.308	49.49
197.528	-16.04
197.747	-30.38
197.966	72.02
198.185	110.93
198.404	-3.75
198.623	88.4
198.842	29.01
199.062	133.46
199.281	88.4
199.5	22.87
199.719	65.88
199.938	100.69
200.157	63.83
200.376	86.36
200.595	41.3
200.814	29.01
201.033	63.83
201.252	96.6
201.471	-9.9
201.69	53.59
201.909	14.68
202.128	39.25
202.347	-36.52
202.566	31.06
202.785	16.73
203.004	33.11
203.223	55.64
203.442	43.35
203.661	6.49
203.879	18.77
204.098	-32.43
204.317	29.01
204.536	47.44
204.755	-13.99
204.974	39.25
205.193	45.4
205.411	51.54
205.63	18.77
205.849	41.3
206.068	31.06
206.287	-9.9
206.505	39.25
206.724	0.34
206.943	-16.04
207.162	-3.75
207.381	41.3
207.599	86.36
207.818	22.87
208.037	55.64
208.255	29.01
208.474	2.39
208.693	26.96
208.911	-20.14
209.13	53.59
209.349	88.4
209.567	104.79
209.786	43.35
210.005	29.01
210.223	57.68
210.442	47.44
210.661	57.68
210.879	61.78
211.098	57.68
211.316	45.4
211.535	51.54
211.753	-1.71
211.972	90.45
212.191	-38.57
212.409	33.11
212.628	10.58
212.846	82.26
213.065	-7.85
213.283	88.4
213.502	-34.47
213.72	16.73
213.938	-34.47
214.157	-3.75
214.375	106.84
214.594	31.06
214.812	-5.8
215.031	-13.99
215.249	16.73
215.467	-20.14
215.686	55.64
215.904	29.01
216.122	39.25
216.341	20.82
216.559	22.87
216.778	86.36
216.996	96.6
217.214	18.77
217.432	12.63
217.651	16.73
217.869	35.16
218.087	45.4
218.306	18.77
218.524	-9.9
218.742	57.68
218.96	22.87
219.179	78.16
219.397	18.77
219.615	59.73
219.833	-1.71
220.051	31.06
220.27	10.58
220.488	18.77
220.706	0.34
220.924	59.73
221.142	39.25
221.36	8.53
221.578	-36.52
221.796	63.83
222.015	69.97
222.233	-13.99
222.451	106.84
222.669	26.96
222.887	74.07
223.105	45.4
223.323	39.25
223.541	18.77
223.759	-46.76
223.977	29.01
224.195	78.16
224.413	55.64
224.631	-36.52
224.849	24.92
225.067	90.45
225.285	-1.71
225.503	24.92
225.721	104.79
225.939	33.11
226.157	12.63
226.375	67.92
226.592	10.58
226.81	45.4
227.028	-1.71
227.246	16.73
227.464	35.16
227.682	-1.71
227.9	-59.05
228.117	88.4
228.335	-30.38
228.553	-5.8
228.771	63.83
228.989	22.87
229.206	20.82
229.424	18.77
229.642	92.5
229.86	37.2
230.077	55.64
230.295	18.77
230.513	90.45
230.731	106.84
230.948	-3.75
231.166	37.2
231.384	63.83
231.601	43.35
231.819	49.49
232.037	43.35
232.254	112.98
232.472	37.2
232.689	86.36
232.907	37.2
233.125	33.11
233.342	-9.9
233.56	39.25
233.777	84.31
233.995	61.78
234.213	63.83
234.43	53.59
234.648	-30.38
234.865	18.77
235.083	-9.9
235.3	-32.43
235.518	41.3
235.735	102.74
235.953	63.83
236.17	61.78
236.388	-28.33
236.605	69.97
236.822	82.26
237.04	29.01
237.257	78.16
237.475	72.02
237.692	51.54
237.909	47.44
238.127	-28.33
238.344	10.58
238.562	8.53
238.779	0.34
238.996	-36.52
239.214	61.78
239.431	45.4
239.648	43.35
239.865	92.5
240.083	18.77
240.3	-50.86
240.517	37.2
240.735	108.88
240.952	106.84
241.169	4.44
241.386	51.54
241.603	57.68
241.821	8.53
242.038	88.4
242.255	78.16
242.472	-7.85
242.689	-22.19
242.907	61.78
243.124	39.25
243.341	-9.9
243.558	-16.04
243.775	-7.85
243.992	2.39
244.209	80.21
244.426	72.02
244.643	63.83
244.86	8.53
245.078	39.25
245.295	39.25
245.512	59.73
245.729	-3.75
245.946	47.44
246.163	26.96
246.38	20.82
246.597	-1.71
246.814	45.4
247.031	4.44
247.248	18.77
247.464	43.35
247.681	33.11
247.898	-44.71
248.115	-5.8
248.332	-24.23
248.549	-1.71
248.766	115.03
248.983	22.87
249.2	24.92
249.417	84.31
249.633	6.49
249.85	63.83
250.067	0.34
250.284	-5.8
250.501	47.44
250.717	67.92
250.934	55.64
251.151	51.54
251.368	-36.52
251.585	4.44
251.801	72.02
252.018	2.39
252.235	63.83
252.451	45.4
252.668	6.49
252.885	53.59
253.102	-26.28
253.318	14.68
253.535	0.34
253.752	49.49
253.968	45.4
254.185	16.73
254.401	43.35
254.618	92.5
254.835	18.77
255.051	63.83
255.268	47.44
255.484	-11.95
255.701	-38.57
255.917	61.78
256.134	26.96
256.351	55.64
256.567	47.44
256.784	18.77
257	59.73
257.217	37.2
257.433	12.63
257.65	135.51
257.866	100.69
258.082	39.25
258.299	65.88
258.515	67.92
258.732	-7.85
258.948	24.92
259.165	12.63
259.381	-50.86
259.597	22.87
259.814	-5.8
260.03	18.77
260.246	-9.9
260.463	37.2
260.679	125.27
260.895	-7.85
261.112	26.96
261.328	-3.75
261.544	8.53
261.761	57.68
261.977	41.3
262.193	16.73
262.409	35.16
262.626	76.12
262.842	45.4
263.058	37.2
263.274	110.93
263.49	2.39
263.707	57.68
263.923	-1.71
264.139	65.88
264.355	35.16
264.571	45.4
264.787	63.83
265.004	31.06
265.22	78.16
265.436	0.34
265.652	-32.43
265.868	14.68
266.084	-3.75
266.3	119.12
266.516	12.63
266.732	92.5
266.948	-13.99
267.164	115.03
267.38	-50.86
267.596	82.26
267.812	117.08
268.028	-7.85
268.244	0.34
268.46	33.11
268.676	-30.38
268.892	51.54
269.108	24.92
269.324	-26.28
269.54	14.68
269.756	39.25
269.972	-3.75
270.188	-71.34
270.403	-18.09
270.619	41.3
270.835	18.77
271.051	51.54
271.267	-26.28
271.483	33.11
271.698	-28.33
271.914	86.36
272.13	31.06
272.346	65.88
272.562	69.97
272.777	102.74
272.993	35.16
273.209	16.73
273.425	94.55
273.64	49.49
273.856	74.07
274.072	33.11
274.287	51.54
274.503	57.68
274.719	-3.75
274.934	59.73
275.15	-3.75
275.366	35.16
275.581	51.54
275.797	-24.23
276.012	22.87
276.228	102.74
276.444	16.73
276.659	76.12
276.875	6.49
277.09	45.4
277.306	49.49
277.521	137.56
277.737	31.06
277.952	-3.75
278.168	102.74
278.383	4.44
278.599	82.26
278.814	86.36
279.03	63.83
279.245	47.44
279.461	18.77
279.676	55.64
279.892	-20.14
280.107	39.25
280.322	-40.62
280.538	-24.23
280.753	29.01
280.969	80.21
281.184	59.73
281.399	110.93
281.615	2.39
281.83	22.87
282.045	10.58
282.26	63.83
282.476	16.73
282.691	24.92
282.906	51.54
283.122	24.92
283.337	4.44
283.552	61.78
283.767	-30.38
283.983	123.22
284.198	22.87
284.413	63.83
284.628	-13.99
284.843	14.68
285.058	18.77
285.274	14.68
285.489	-11.95
285.704	82.26
285.919	-1.71
286.134	37.2
286.349	6.49
286.564	-57
286.779	29.01
286.995	0.34
287.21	14.68
287.425	55.64
287.64	39.25
287.855	86.36
288.07	-1.71
288.285	104.79
288.5	110.93
288.715	129.36
288.93	72.02
289.145	22.87
289.36	29.01
289.575	82.26
289.79	88.4
290.004	2.39
290.219	-9.9
290.434	18.77
290.649	-3.75
290.864	35.16
291.079	31.06
291.294	102.74
291.509	43.35
291.724	143.7
291.938	61.78
292.153	0.34
292.368	22.87
292.583	65.88
292.798	26.96
293.012	-5.8
293.227	59.73
293.442	72.02
293.657	88.4
293.871	133.46
294.086	94.55
294.301	121.17
294.516	65.88
294.73	24.92
294.945	20.82
295.16	47.44
295.374	-36.52
295.589	37.2
295.804	37.2
296.018	-40.62
296.233	65.88
296.447	82.26
296.662	47.44
296.877	57.68
297.091	35.16
297.306	55.64
297.52	65.88
297.735	72.02
297.949	31.06
298.164	29.01
298.378	43.35
298.593	57.68
298.807	-46.76
299.022	24.92
299.236	16.73
299.451	63.83
299.665	65.88
299.88	61.78
300.094	8.53
300.309	63.83
300.523	16.73
300.737	4.44
300.952	69.97
301.166	57.68
301.381	106.84
301.595	51.54
301.809	76.12
302.024	129.36
302.238	82.26
302.452	-5.8
302.667	57.68
302.881	74.07
303.095	74.07
303.309	4.44
303.524	35.16
303.738	43.35
303.952	-57
304.166	2.39
304.381	14.68
304.595	14.68
304.809	24.92
305.023	-7.85
305.237	18.77
305.452	4.44
305.666	80.21
305.88	121.17
306.094	80.21
306.308	18.77
306.522	61.78
306.736	61.78
306.95	8.53
307.164	-3.75
307.379	78.16
307.593	43.35
307.807	39.25
308.021	10.58
308.235	14.68
308.449	72.02
308.663	47.44
308.877	12.63
309.091	61.78
309.305	43.35
309.519	41.3
309.733	51.54
309.947	-65.19
310.161	96.6
310.374	24.92
310.588	49.49
310.802	26.96
311.016	12.63
311.23	45.4
311.444	72.02
311.658	-1.71
311.872	29.01
312.085	96.6
312.299	-22.19
312.513	41.3
312.727	43.35
312.941	29.01
313.154	72.02
313.368	-1.71
313.582	63.83
313.796	-11.95
314.009	22.87
314.223	115.03
314.437	72.02
314.651	14.68
314.864	37.2
315.078	96.6
315.292	22.87
315.505	22.87
315.719	82.26
315.933	61.78
316.146	37.2
316.36	59.73
316.573	33.11
316.787	33.11
317.001	53.59
317.214	22.87
317.428	102.74
317.641	2.39
317.855	0.34
318.068	29.01
318.282	55.64
318.495	127.32
318.709	29.01
318.922	37.2
319.136	14.68
319.349	100.69
319.563	-1.71
319.776	90.45
319.99	18.77
320.203	14.68
320.417	96.6
320.63	35.16
320.843	33.11
321.057	16.73
321.27	74.07
321.483	104.79
321.697	22.87
321.91	6.49
322.124	59.73
322.337	65.88
322.55	129.36
322.763	-1.71
322.977	39.25
323.19	47.44
323.403	18.77
323.617	61.78
323.83	69.97
324.043	-24.23
324.256	26.96
324.469	-9.9
324.683	72.02
324.896	29.01
325.109	55.64
325.322	69.97
325.535	26.96
325.748	67.92
325.962	39.25
326.175	96.6
326.388	106.84
326.601	53.59
326.814	37.2
327.027	74.07
327.24	43.35
327.453	-20.14
327.666	55.64
327.879	84.31
328.092	67.92
328.305	43.35
328.518	39.25
328.731	-20.14
328.944	76.12
329.157	76.12
329.37	26.96
329.583	135.51
329.796	53.59
330.009	33.11
330.222	80.21
330.435	90.45
330.648	4.44
330.861	22.87
331.073	14.68
331.286	59.73
331.499	82.26
331.712	35.16
331.925	41.3
332.138	45.4
332.35	94.55
332.563	6.49
332.776	92.5
332.989	-48.81
333.202	86.36
333.414	80.21
333.627	74.07
333.84	29.01
334.053	63.83
334.265	47.44
334.478	39.25
334.691	33.11
334.903	18.77
335.116	-20.14
335.329	174.42
335.541	8.53
335.754	72.02
335.966	92.5
336.179	49.49
336.392	24.92
336.604	78.16
336.817	82.26
337.029	35.16
337.242	-1.71
337.454	51.54
337.667	-65.19
337.88	123.22
338.092	61.78
338.305	63.83
338.517	35.16
338.729	67.92
338.942	16.73
339.154	57.68
339.367	29.01
339.579	84.31
339.792	88.4
340.004	29.01
340.217	-22.19
340.429	133.46
340.641	-32.43
340.854	69.97
341.066	55.64
341.278	31.06
341.491	61.78
341.703	65.88
341.915	33.11
342.128	76.12
342.34	57.68
342.552	59.73
342.764	76.12
342.977	86.36
343.189	37.2
343.401	-54.95
343.613	45.4
343.826	22.87
344.038	31.06
344.25	59.73
344.462	6.49
344.674	67.92
344.886	12.63
345.099	41.3
345.311	49.49
345.523	53.59
345.735	22.87
345.947	123.22
346.159	53.59
346.371	131.41
346.583	43.35
346.795	78.16
347.007	63.83
347.219	18.77
347.431	100.69
347.643	57.68
347.855	14.68
348.067	100.69
348.279	49.49
348.491	123.22
348.703	-24.23
348.915	72.02
349.127	14.68
349.339	82.26
349.551	-7.85
349.763	76.12
349.975	65.88
350.187	33.11
350.399	39.25
350.61	59.73
350.822	31.06
351.034	78.16
351.246	35.16
351.458	104.79
351.669	59.73
351.881	76.12
352.093	29.01
352.305	67.92
352.517	76.12
352.728	53.59
352.94	37.2
353.152	74.07
353.363	123.22
353.575	43.35
353.787	80.21
353.999	43.35
354.21	184.66
354.422	29.01
354.633	-3.75
354.845	12.63
355.057	57.68
355.268	22.87
355.48	-3.75
355.692	-52.91
355.903	94.55
356.115	90.45
356.326	37.2
356.538	121.17
356.749	4.44
356.961	72.02
357.172	57.68
357.384	20.82
357.595	67.92
357.807	2.39
358.018	39.25
358.23	10.58
358.441	14.68
358.653	14.68
358.864	47.44
359.075	96.6
359.287	119.12
359.498	59.73
359.709	14.68
359.921	92.5
360.132	76.12
360.344	67.92
360.555	69.97
360.766	-13.99
360.977	55.64
361.189	69.97
361.4	100.69
361.611	37.2
361.823	55.64
362.034	51.54
362.245	-18.09
362.456	65.88
362.667	49.49
362.879	45.4
363.09	104.79
363.301	57.68
363.512	8.53
363.723	53.59
363.935	76.12
364.146	61.78
364.357	53.59
364.568	65.88
364.779	33.11
364.99	72.02
365.201	35.16
365.412	31.06
365.623	94.55
365.834	96.6
366.045	94.55
366.256	84.31
366.467	47.44
366.678	69.97
366.889	6.49
367.1	-9.9
367.311	51.54
367.522	49.49
367.733	78.16
367.944	53.59
368.155	8.53
368.366	63.83
368.577	47.44
368.788	55.64
368.999	-34.47
369.209	18.77
369.42	96.6
369.631	16.73
369.842	37.2
370.053	117.08
370.264	149.84
370.474	-46.76
370.685	41.3
370.896	45.4
371.107	37.2
371.317	110.93
371.528	63.83
371.739	59.73
371.95	141.65
372.16	110.93
372.371	69.97
372.582	67.92
372.792	29.01
373.003	78.16
373.214	67.92
373.424	37.2
373.635	45.4
373.846	35.16
374.056	41.3
374.267	96.6
374.477	59.73
374.688	22.87
374.898	33.11
375.109	55.64
375.319	45.4
375.53	143.7
375.74	108.88
375.951	76.12
376.161	37.2
376.372	2.39
376.582	80.21
376.793	45.4
377.003	47.44
377.214	31.06
377.424	57.68
377.635	6.49
377.845	82.26
378.055	110.93
378.266	100.69
378.476	69.97
378.686	35.16
378.897	92.5
379.107	117.08
379.317	12.63
379.528	69.97
379.738	63.83
379.948	55.64
380.158	57.68
380.369	0.34
380.579	76.12
380.789	53.59
380.999	63.83
381.21	43.35
381.42	37.2
381.63	76.12
381.84	37.2
382.05	63.83
382.261	104.79
382.471	104.79
382.681	78.16
382.891	31.06
383.101	47.44
383.311	67.92
383.521	96.6
383.731	121.17
383.941	104.79
384.151	51.54
384.361	51.54
384.571	86.36
384.781	135.51
384.991	108.88
385.201	88.4
385.411	65.88
385.621	108.88
385.831	35.16
386.041	106.84
386.251	84.31
386.461	88.4
386.671	61.78
386.881	162.13
387.091	55.64
387.301	112.98
387.511	22.87
387.72	72.02
387.93	145.75
388.14	84.31
388.35	51.54
388.56	123.22
388.769	129.36
388.979	94.55
389.189	61.78
389.399	102.74
389.609	22.87
389.818	29.01
390.028	67.92
390.238	57.68
390.447	20.82
390.657	121.17
390.867	47.44
391.076	-3.75
391.286	65.88
391.496	98.64
391.705	74.07
391.915	155.99
392.125	98.64
392.334	143.7
392.544	41.3
392.753	121.17
392.963	55.64
393.172	149.84
393.382	59.73
393.591	69.97
393.801	61.78
394.01	115.03
394.22	43.35
394.429	86.36
394.639	78.16
394.848	135.51
395.058	76.12
395.267	37.2
395.477	72.02
395.686	104.79
395.895	115.03
396.105	207.19
396.314	94.55
396.524	74.07
396.733	72.02
396.942	110.93
397.152	108.88
397.361	176.47
397.57	63.83
397.78	67.92
397.989	78.16
398.198	252.24
398.407	117.08
398.617	108.88
398.826	90.45
399.035	100.69
399.244	131.41
399.453	155.99
399.663	190.8
399.872	82.26
400.081	127.32
400.29	104.79
400.499	121.17
400.708	117.08
400.917	141.65
401.127	90.45
401.336	86.36
401.545	129.36
401.754	180.56
401.963	141.65
402.172	178.51
402.381	100.69
402.59	149.84
402.799	65.88
403.008	119.12
403.217	176.47
403.426	166.23
403.635	215.38
403.844	137.56
404.053	104.79
404.262	129.36
404.471	201.04
404.68	227.67
404.888	190.8
405.097	211.28
405.306	139.6
405.515	149.84
405.724	246.1
405.933	227.67
406.142	209.23
406.35	164.18
406.559	170.32
406.768	182.61
406.977	205.14
407.185	264.53
407.394	278.87
407.603	272.72
407.812	285.01
408.02	237.91
408.229	242
408.438	313.68
408.646	244.05
408.855	307.54
409.064	299.34
409.272	311.63
409.481	297.3
409.69	289.1
409.898	313.68
410.107	336.21
410.315	377.17
410.524	403.79
410.733	475.47
410.941	399.7
411.15	424.27
411.358	420.17
411.567	512.33
411.775	485.71
411.984	514.38
412.192	504.14
412.401	524.62
412.609	559.44
412.818	610.64
413.026	592.2
413.234	559.44
413.443	598.35
413.651	700.75
413.86	614.73
414.068	676.17
414.276	700.75
414.485	751.95
414.693	737.61
414.901	825.67
415.11	887.11
415.318	915.78
415.526	895.3
415.734	864.58
415.943	999.75
416.151	960.84
416.359	901.45
416.567	981.32
416.776	1046.85
416.984	1077.57
417.192	1118.53
417.4	1198.4
417.608	1198.4
417.817	1184.07
418.025	1329.47
418.233	1397.06
418.441	1231.17
418.649	1386.82
418.857	1493.31
419.065	1583.42
419.273	1524.03
419.481	1474.88
419.689	1630.52
419.897	1716.54
420.105	1708.35
420.313	1874.23
420.521	1866.04
420.729	1982.78
420.937	1968.44
421.145	1968.44
421.353	2165.04
421.561	2302.26
421.769	2324.79
421.977	2386.22
422.185	2320.69
422.393	2513.2
422.601	2691.37
422.809	2660.65
423.017	2750.76
423.224	2758.96
423.432	2820.39
423.64	2906.41
423.848	3189.03
424.056	3105.06
424.263	3352.87
424.471	3363.11
424.679	3516.7
424.887	3543.33
425.094	3729.69
425.302	3762.46
425.51	3830.04
425.718	3938.59
425.925	3928.35
426.133	4274.45
426.341	4249.88
426.548	4663.57
426.756	4489.49
426.964	4638.99
427.171	5067.02
427.379	4993.29
427.586	5183.75
427.794	5273.86
428.001	5550.34
428.209	5703.93
428.417	5738.75
428.624	5974.27
428.832	6148.34
429.039	6052.09
429.247	6129.91
429.454	6727.92
429.662	7112.94
429.869	6648.05
430.076	7166.18
430.284	6906.09
430.491	7297.25
430.699	7647.46
430.906	7637.22
431.114	7819.49
431.321	8018.14
431.528	8349.91
431.736	8622.29
431.943	8921.29
432.15	8816.85
432.358	8931.53
432.565	9529.54
432.772	9308.36
432.979	9973.95
433.187	10004.67
433.394	10229.95
433.601	11032.75
433.808	10686.64
434.016	10604.72
434.223	11206.83
434.43	11774.11
434.637	11479.21
434.844	12572.82
435.052	12714.13
435.259	12488.85
435.466	12605.59
435.673	12640.4
435.88	13430.92
436.087	14082.17
436.294	14020.74
436.501	13834.37
436.708	14151.81
436.915	14583.93
437.122	15190.13
437.329	15145.07
437.537	15652.97
437.743	15845.48
437.95	15532.14
438.157	16660.57
438.364	17014.87
438.571	17084.5
438.778	17174.61
438.985	18718.78
439.192	17981.51
439.399	18647.1
439.606	18315.33
439.813	19290.16
440.02	20527.13
440.227	20099.11
440.433	20121.63
440.64	20725.79
440.847	20359.2
441.054	20877.33
441.261	22222.85
441.467	22067.2
441.674	22540.29
441.881	23203.83
442.088	23187.44
442.294	22910.97
442.501	23500.78
442.708	24221.67
442.914	25182.17
443.121	25868.23
443.328	25057.24
443.534	27033.53
443.741	26632.13
443.948	26058.7
444.154	28084.14
444.361	27531.19
444.568	28098.47
444.774	28030.89
444.981	28274.6
445.187	29308.82
445.394	30588.8
445.6	30320.52
445.807	33021.79
446.013	31336.31
446.22	32114.54
446.426	33091.42
446.633	33763.15
446.839	34443.08
447.046	33288.03
447.252	35219.26
447.459	35348.28
447.665	35299.13
447.871	36738.85
448.078	38139.66
448.284	36230.96
448.491	37320.48
448.697	38756.1
448.903	38858.5
449.11	39606.01
449.316	38702.85
449.522	39732.98
449.728	40568.55
449.935	41287.39
450.141	40924.9
450.347	41887.45
450.553	40279.79
450.76	41309.92
450.966	42569.42
451.172	41672.41
451.378	43036.36
451.584	41926.36
451.791	42958.53
451.997	42854.09
452.203	43851.45
452.409	43472.57
452.615	43337.41
452.821	41529.05
453.027	41410.27
453.233	43497.15
453.44	41991.89
453.646	42159.83
453.852	42307.28
454.058	43181.76
454.264	41463.52
454.47	42991.3
454.676	41684.7
454.882	43239.11
455.088	39165.7
455.294	39941.88
455.5	40380.14
455.705	40937.19
455.911	39300.86
456.117	38866.69
456.323	38366.99
456.529	35995.44
456.735	37523.22
456.941	36790.05
457.147	36179.76
457.352	34867.01
457.558	34694.98
457.764	35129.15
457.97	34185.04
458.176	33695.57
458.381	33531.73
458.587	31958.89
458.793	31979.37
458.999	30293.9
459.204	32221.03
459.41	31471.48
459.616	29413.27
459.821	29233.05
460.027	29208.47
460.233	28594.08
460.438	27152.31
460.644	27695.02
460.85	26181.57
461.055	25788.36
461.261	25821.13
461.466	24147.94
461.672	23515.12
461.878	25077.72
462.083	23461.87
462.289	23087.09
462.494	22689.79
462.7	21520.4
462.905	21116.95
463.111	21897.22
463.316	22034.44
463.522	21311.5
463.727	21223.44
463.932	21348.37
464.138	21059.6
464.343	21418
464.549	20541.47
464.754	21385.23
464.959	20901.91
465.165	21082.13
465.37	20054.05
465.575	19402.8
465.781	20308
465.986	20314.14
466.191	19879.97
466.397	19048.5
466.602	18382.91
466.807	19212.34
467.012	19095.6
467.218	19028.02
467.423	18759.74
467.628	19241.01
467.833	19548.2
468.038	18718.78
468.244	18491.45
468.449	19124.27
468.654	18319.42
468.859	18403.39
469.064	18198.59
469.269	17678.41
469.474	17801.29
469.679	18137.15
469.885	17582.15
470.09	17776.71
470.295	17533
470.5	17311.82
470.705	17049.68
470.91	16746.58
471.115	16679
471.32	16998.48
471.525	16902.23
471.73	16308.32
471.935	16226.4
472.139	15849.57
472.344	16076.9
472.549	15896.67
472.754	15657.06
472.959	15302.76
473.164	15181.93
473.369	14964.85
473.574	15464.55
473.778	15270
473.983	15331.44
474.188	15001.71
474.393	14360.7
474.598	14524.54
474.802	14520.44
475.007	14370.94
475.212	14239.87
475.417	13607.05
475.621	13682.82
475.826	13766.79
476.031	13615.24
476.235	13381.77
476.44	13721.73
476.645	13074.57
476.849	13068.43
477.054	12929.17
477.259	12773.52
477.463	12830.87
477.668	12615.83
477.872	12722.32
478.077	12603.54
478.282	12146.84
478.486	12091.55
478.691	11925.66
478.895	12079.26
479.1	11915.42
479.304	11911.33
479.509	11714.72
479.713	11802.79
479.918	11548.84
480.122	11397.29
480.326	11454.63
480.531	11587.75
480.735	11266.22
480.94	10997.93
481.144	11495.59
481.348	10967.21
481.553	11301.03
481.757	10862.77
481.961	11192.49
482.166	11278.51
482.37	11272.36
482.574	10989.74
482.778	10930.35
482.983	11321.51
483.187	11042.99
483.391	11104.43
483.595	11051.18
483.8	10782.9
484.004	10760.37
484.208	11100.33
484.412	10817.71
484.616	11161.77
484.821	11165.87
485.025	10901.68
485.229	11202.73
485.433	10991.79
485.637	10954.93
485.841	10774.7
486.045	10961.07
486.249	11053.23
486.453	10840.24
486.657	11012.27
486.861	10875.06
487.065	10821.81
487.269	11063.47
487.473	10619.06
487.677	10848.43
487.881	11071.66
488.085	11010.22
488.289	10875.06
488.493	10922.16
488.697	10965.17
488.901	11045.04
489.105	11133.1
489.309	10913.97
489.512	10854.58
489.716	11051.18
489.92	11083.95
490.124	11196.59
490.328	11188.39
490.531	11251.88
490.735	11255.98
490.939	11262.12
491.143	10979.5
491.346	11350.18
491.55	11403.43
491.754	11430.05
491.958	11491.49
492.161	11387.05
492.365	11503.78
492.569	11493.54
492.772	11444.39
492.976	11602.08
493.18	11612.32
493.383	11774.11
493.587	11831.46
493.79	12181.66
493.994	11765.92
494.197	11823.26
494.401	12056.73
494.605	12212.38
494.808	12318.87
495.012	12439.7
495.215	12294.3
495.419	12507.29
495.622	12386.46
495.825	12589.21
496.029	12617.88
496.232	12873.87
496.436	12701.84
496.639	13041.81
496.843	13090.96
497.046	13363.34
497.249	13412.49
497.453	13600.9
497.656	13936.77
497.859	13707.4
498.063	13865.09
498.266	14049.41
498.469	14112.89
498.673	14078.08
498.876	14465.14
499.079	14606.45
499.282	14538.87
499.485	14663.8
499.689	14831.73
499.892	15212.65
500.095	15231.08
500.298	15554.66
500.501	15618.15
500.705	15976.55
500.908	16187.49
501.111	16234.59
501.314	16474.2
501.517	16367.71
501.72	16564.31
501.923	16615.51
502.126	17223.76
502.329	17324.11
502.532	17377.36
502.735	17582.15
502.938	17895.49
503.141	17649.74
503.344	18370.62
503.547	18161.73
503.75	18413.63
503.953	18675.77
504.156	18946.1
504.359	19005.49
504.562	19140.66
504.765	19529.77
504.968	19503.15
505.17	19914.79
505.373	20035.62
505.576	20381.73
505.779	20484.12
505.982	20361.25
506.185	20832.28
506.387	20850.71
506.59	21428.24
506.793	21852.17
506.996	21477.39
507.198	22210.56
507.401	22142.98
507.604	22429.7
507.807	22906.87
508.009	22994.93
508.212	22761.47
508.415	23490.54
508.617	23396.34
508.82	23855.08
509.022	23762.92
509.225	24465.38
509.428	24600.54
509.63	24559.58
509.833	24602.59
510.035	25098.2
510.238	25382.87
510.44	25333.71
510.643	25989.06
510.845	26062.79
511.048	26003.4
511.25	26351.56
511.453	26228.68
511.655	27400.12
511.858	27135.93
512.06	27404.21
512.262	27834.28
512.465	27867.05
512.667	28262.31
512.87	28372.9
513.072	28256.17
513.274	28848.03
513.477	29353.88
513.679	29626.26
513.881	29540.24
514.084	30005.13
514.286	30248.84
514.488	30324.61
514.69	31448.95
514.893	31151.99
515.095	31129.47
515.297	31561.59
515.499	31655.79
515.701	32395.11
515.904	32520.04
516.106	32634.72
516.308	32722.79
516.51	33261.4
516.712	33541.97
516.914	33865.55
517.116	34455.37
517.318	34350.92
517.52	34660.16
517.722	34805.57
517.925	34998.08
518.127	35481.4
518.329	35741.49
518.531	35591.99
518.733	36151.09
518.935	36618.02
519.136	36431.66
519.338	37205.79
519.54	37207.84
519.742	37394.2
519.944	38006.55
520.146	38170.38
520.348	38680.33
520.55	38446.86
520.752	38747.91
520.954	39722.74
521.155	39110.4
521.357	39436.03
521.559	39943.92
521.761	40468.2
521.963	40433.39
522.164	40978.15
522.366	40734.44
522.568	41119.46
522.77	41393.89
522.971	41983.7
523.173	42106.58
523.375	42180.31
523.576	42215.12
523.778	42417.87
523.98	42428.11
524.181	42727.11
524.383	43187.91
524.584	43722.43
524.786	43351.74
524.988	43454.14
525.189	43781.82
525.391	44302
525.592	44713.64
525.794	44781.23
525.995	44682.92
526.197	45059.75
526.398	44611.24
526.6	45399.71
526.801	45647.52
527.003	45364.9
527.204	45837.98
527.406	46214.8
527.607	46143.13
527.808	46227.09
528.01	45708.96
528.211	46601.87
528.412	46833.29
528.614	46825.1
528.815	46902.92
529.016	47081.09
529.218	46651.02
529.419	46812.81
529.62	46980.74
529.822	47120.01
530.023	47033.99
530.224	47445.63
530.425	47378.05
530.626	47132.29
530.828	47156.87
531.029	48385.65
531.23	47545.98
531.431	47437.44
531.632	47785.6
531.833	48193.14
532.035	47894.14
532.236	48336.5
532.437	48578.16
532.638	47926.91
532.839	48586.35
533.04	48254.58
533.241	47586.94
533.442	48844.4
533.643	48432.75
533.844	48307.83
534.045	48723.57
534.246	48037.5
534.447	48606.83
534.648	48223.86
534.849	48459.38
535.05	48373.36
535.251	48701.04
535.451	48225.91
535.652	48522.86
535.853	48666.22
536.054	49063.53
536.255	48385.65
536.456	48000.63
536.657	48916.07
536.857	47971.96
537.058	48316.02
537.259	48529.01
537.46	48723.57
537.66	48406.13
537.861	49012.33
538.062	48524.91
538.263	48356.98
538.463	48230.01
538.664	48260.72
538.865	48701.04
539.065	48395.89
539.266	48412.27
539.466	48954.99
539.667	48064.12
539.868	48897.64
540.068	48660.08
540.269	48600.69
540.469	48547.44
540.67	48512.63
540.87	47926.91
541.071	48477.81
541.271	48610.93
541.472	48406.13
541.672	48172.66
541.873	48270.96
542.073	48017.02
542.274	48805.48
542.474	47951.48
542.675	47820.41
542.875	48557.68
543.075	48361.08
543.276	47758.97
543.476	48793.2
543.676	48234.1
543.877	48367.22
544.077	47957.63
544.277	48199.29
544.478	48025.21
544.678	48354.93
544.878	48090.74
545.078	48670.32
545.279	48121.46
545.479	47603.33
545.679	48137.85
545.879	48189.05
546.079	47859.32
546.28	47928.95
546.48	48088.7
546.68	48395.89
546.88	47992.44
547.08	47955.58
547.28	48029.3
547.48	47572.61
547.68	48160.37
547.88	47967.87
548.081	48473.71
548.281	48217.72
548.481	47748.73
548.681	48240.25
548.881	47636.09
549.081	47922.81
549.28	47904.38
549.48	48297.59
549.68	47746.68
549.88	48393.84
550.08	47687.29
550.28	47820.41
550.48	47367.81
550.68	48107.13
550.88	47783.55
551.08	47758.97
551.279	47509.12
551.479	47572.61
551.679	47883.9
551.879	47453.83
552.079	47730.3
552.278	47165.06
552.478	47443.59
552.678	47519.36
552.878	48041.59
553.077	47771.26
553.277	47507.07
553.477	47767.16
553.676	47339.14
553.876	47333
554.076	47193.73
554.275	47306.37
554.475	47050.38
554.674	47228.55
554.874	47535.74
555.074	46827.15
555.273	47326.85
555.473	47840.89
555.672	47181.45
555.872	47189.64
556.071	47054.47
556.271	47259.27
556.47	46939.79
556.67	46657.17
556.869	46990.98
557.068	47154.82
557.268	46734.99
557.467	46911.11
557.667	46681.74
557.866	46825.1
558.065	46792.33
558.265	46321.3
558.464	46079.64
558.663	47038.09
558.863	45846.17
559.062	46745.23
559.261	46055.06
559.461	46612.11
559.66	46270.1
559.859	46079.64
560.058	45692.57
560.258	46100.12
560.457	45446.82
560.656	46012.06
560.855	45997.72
561.054	45809.31
561.253	45567.65
561.453	45780.63
561.652	45772.44
561.851	45330.08
562.05	45276.83
562.249	45323.94
562.448	44945.06
562.647	45325.99
562.846	45082.28
563.045	45358.75
563.244	44979.88
563.443	45330.08
563.642	44146.36
563.841	44580.53
564.04	44590.76
564.239	45121.19
564.438	44424.88
564.637	44506.8
564.836	44568.24
565.035	44199.6
565.234	45069.99
565.432	44306.1
565.631	44080.82
565.83	44541.61
566.029	44252.85
566.228	43820.73
566.427	43896.5
566.625	43609.79
566.824	42919.62
567.023	43703.99
567.222	42696.39
567.42	43763.39
567.619	43222.72
567.818	43296.45
568.016	43015.88
568.215	43548.35
568.414	42940.1
568.612	43654.84
568.811	42589.9
569.01	43511.49
569.208	42782.41
569.407	42624.71
569.605	42325.71
569.804	42917.57
570.002	42213.07
570.201	42770.12
570.4	42254.03
570.598	42618.57
570.797	41979.6
570.995	42049.24
571.193	41508.57
571.392	41735.9
571.59	41707.22
571.789	41656.03
571.987	41557.72
572.186	40976.1
572.384	41367.26
572.582	41653.98
572.781	41045.73
572.979	40625.9
573.177	41004.77
573.376	41047.78
573.574	40677.1
573.772	41010.92
573.971	40621.8
574.169	40513.26
574.367	40322.8
574.565	40374
574.763	39763.7
574.962	40115.95
575.16	39943.92
575.358	39931.64
575.556	39659.26
575.754	40269.55
575.952	39587.58
576.151	39993.08
576.349	39503.61
576.547	39436.03
576.745	39128.83
576.943	39599.87
577.141	39243.52
577.339	39231.23
577.537	39018.24
577.735	39247.61
577.933	38534.92
578.131	38717.19
578.329	38614.79
578.527	38342.41
578.725	38235.92
578.923	38528.78
579.121	38295.31
579.319	38145.81
579.516	38348.56
579.714	38301.45
579.912	37881.62
580.11	38022.93
580.308	37736.21
580.506	37570.33
580.704	37599
580.901	37682.97
581.099	37998.35
581.297	37351.2
581.495	37297.95
581.692	37146.4
581.89	36790.05
582.088	37312.28
582.285	36656.93
582.483	37263.13
582.681	36855.59
582.878	36658.98
583.076	36196.14
583.274	36673.32
583.471	36456.23
583.669	36269.87
583.866	36118.32
584.064	36663.08
584.262	35776.31
584.459	36020.02
584.657	35450.68
584.854	35997.49
585.052	35553.08
585.249	35856.18
585.447	35610.42
585.644	35112.77
585.841	35604.28
586.039	35186.49
586.236	35274.56
586.434	35194.68
586.631	34660.16
586.828	34815.81
587.026	34942.78
587.223	34707.27
587.42	34527.05
587.618	34760.51
587.815	33926.99
588.012	34469.7
588.21	34242.38
588.407	34334.54
588.604	34058.06
588.801	34013.01
588.999	33828.69
589.196	33394.52
589.393	33931.09
589.59	33687.38
589.787	33242.97
589.984	33060.7
590.182	32905.06
590.379	33214.3
590.576	33072.99
590.773	33394.52
590.97	33036.13
591.167	32974.69
591.364	32399.21
591.561	33124.19
591.758	32483.17
591.955	32325.48
592.152	32530.28
592.349	32329.58
592.546	32552.8
592.743	32644.96
592.94	31887.21
593.137	32362.34
593.334	32225.13
593.531	31387.51
593.727	32157.55
593.924	31829.87
594.121	31375.22
594.318	31823.73
594.515	31115.13
594.712	31563.64
594.908	31582.07
595.105	31412.09
595.302	31055.74
595.499	31192.95
595.696	30951.29
595.892	30832.51
596.089	30713.73
596.286	30756.74
596.482	30795.65
596.679	30549.89
596.876	30328.71
597.072	30164.87
597.269	30377.86
597.466	30029.71
597.662	29820.81
597.859	29794.19
598.055	30031.76
598.252	29693.84
598.448	29587.35
598.645	29515.67
598.841	29454.23
599.038	29249.43
599.234	29671.31
599.431	28999.58
599.627	29106.07
599.824	29421.46
600.02	29020.06
600.217	28880.8
600.413	29009.82
600.609	29030.3
600.806	28845.98
601.002	29030.3
601.198	28276.65
601.395	28366.76
601.591	28088.23
601.787	28264.36
601.984	28006.31
602.18	28503.97
602.376	27903.92
602.572	27852.72
602.769	27936.68
602.965	27594.67
603.161	27944.87
603.357	27482.03
603.553	27668.4
603.75	27604.91
603.946	27226.04
604.142	27357.11
604.338	27385.78
604.534	27279.29
604.73	26838.97
604.926	26943.42
605.122	27054.01
605.318	26642.37
605.514	26759.1
605.71	26658.75
605.906	26910.65
606.102	26628.03
606.298	26486.72
606.494	26615.74
606.69	26529.73
606.886	26345.41
607.082	26042.31
607.278	26623.94
607.474	25782.22
607.67	26333.12
607.866	25704.4
608.062	26263.49
608.257	25880.52
608.453	26015.69
608.649	26079.18
608.845	25726.92
609.041	25724.88
609.236	25847.75
609.432	25659.34
609.628	25665.49
609.824	25346
610.019	25262.04
610.215	25655.25
610.411	25219.03
610.606	25137.11
610.802	25483.22
610.998	25264.08
611.193	24815.58
611.389	25120.73
611.584	25120.73
611.78	24719.32
611.976	24920.03
612.171	24897.5
612.367	25292.76
612.562	24752.09
612.758	24709.08
612.953	24506.34
613.149	24999.9
613.344	24575.97
613.539	24797.15
613.735	24498.14
613.93	24623.07
614.126	24217.57
614.321	24584.16
614.517	24463.33
614.712	24129.51
614.907	24141.8
615.103	24543.2
615.298	24293.35
615.493	24373.22
615.688	23775.21
615.884	24326.11
616.079	23844.84
616.274	24154.08
616.47	24094.69
616.665	23715.82
616.86	23863.27
617.055	24188.9
617.25	23846.89
617.445	23814.12
617.641	23611.37
617.836	23896.04
618.031	23511.02
618.226	23484.4
618.421	23113.72
618.616	23531.5
618.811	23058.42
619.006	23447.54
619.201	23011.32
619.396	23097.33
619.591	22466.56
619.786	23142.39
619.981	22571
620.176	22749.18
620.371	22630.4
620.566	22337.54
620.761	22292.48
620.956	22616.06
621.151	21839.88
621.346	22528
621.541	21993.48
621.735	22245.38
621.93	21590.03
622.125	21878.79
622.32	21354.51
622.515	21528.59
622.709	21291.02
622.904	21317.65
623.099	21121.04
623.294	21123.09
623.488	20860.95
623.683	20733.98
623.878	20658.2
624.072	20709.4
624.267	20629.53
624.462	20568.09
624.656	20492.32
624.851	20443.17
625.046	20181.03
625.24	20043.81
625.435	19941.41
625.629	19814.44
625.824	19918.89
626.018	19744.81
626.213	19361.84
626.407	19378.22
626.602	19179.57
626.796	19161.14
626.991	18968.63
627.185	19232.82
627.38	19277.87
627.574	18954.29
627.768	18864.18
627.963	18647.1
628.157	18399.29
628.352	18528.31
628.546	18157.63
628.74	18380.86
628.935	18360.38
629.129	18126.91
629.323	17846.34
629.517	18018.37
629.712	17598.54
629.906	17832.01
630.1	17436.75
630.294	17528.91
630.489	17244.24
630.683	17422.41
630.877	16967.76
631.071	17119.31
631.265	17184.85
631.459	16969.81
631.653	16881.75
631.848	16875.6
632.042	16552.02
632.236	16654.42
632.43	16435.29
632.624	16531.55
632.818	16371.8
633.012	15999.07
633.206	16224.35
633.4	16035.94
633.594	16193.63
633.788	15937.63
633.982	15966.31
634.176	15474.79
634.369	15538.28
634.563	16005.22
634.757	15673.45
634.951	15345.77
635.145	15493.22
635.339	15439.98
635.533	15276.14
635.726	15042.67
635.92	14938.23
636.114	14884.98
636.308	15044.72
636.501	14837.87
636.695	14682.23
636.889	14557.3
637.083	14700.66
637.276	14422.14
637.47	14495.86
637.664	14258.3
637.857	14469.24
638.051	14166.14
638.244	14104.7
638.438	14213.24
638.632	14139.52
638.825	13877.38
639.019	13975.68
639.212	13877.38
639.406	13858.95
639.599	13510.79
639.793	13625.48
639.986	13254.8
640.18	13539.46
640.373	13525.13
640.567	13328.52
640.76	13574.28
640.954	12953.74
641.147	13105.29
641.34	13168.78
641.534	12945.55
641.727	13006.99
641.92	12824.72
642.114	12841.11
642.307	12718.23
642.5	12550.29
642.694	12601.49
642.887	12361.88
643.08	12730.52
643.273	12357.78
643.467	12267.67
643.66	12187.8
643.853	12269.72
644.046	11888.8
644.239	12150.94
644.432	11980.96
644.626	11991.2
644.819	12099.74
645.012	12128.41
645.205	11894.94
645.398	11733.15
645.591	11712.67
645.784	11479.21
645.977	11577.51
646.17	11399.34
646.363	11438.25
646.556	11036.84
646.749	11473.06
646.942	11378.86
647.135	11075.76
647.328	11092.14
647.521	10817.71
647.714	11042.99
647.907	10928.3
648.099	10873.01
648.292	11028.65
648.485	10864.82
648.678	10725.55
648.871	10559.67
649.064	10504.37
649.256	10651.83
649.449	10647.73
649.642	10418.36
649.835	10428.6
650.027	10320.06
650.22	10182.84
650.413	10191.03
650.605	10115.26
650.798	10049.72
650.991	9894.08
651.183	9883.84
651.376	9861.31
651.568	9824.45
651.761	9871.55
651.954	9793.73
652.146	9849.02
652.339	9693.38
652.531	9734.34
652.724	9658.56
652.916	9388.23
653.109	9400.52
653.301	9550.02
653.494	9382.09
653.686	9281.74
653.879	9377.99
654.071	9154.76
654.263	9128.14
654.456	9244.87
654.648	9210.06
654.84	9095.37
655.033	8970.44
655.225	9058.51
655.417	8747.22
655.61	8909.01
655.802	8859.85
655.994	8788.18
656.186	8730.83
656.379	8732.88
656.571	8704.21
656.763	8624.34
656.955	8552.66
657.148	8501.46
657.34	8591.57
657.532	8374.49
657.724	8339.67
657.916	8255.7
658.108	8370.39
658.3	8093.91
658.492	8325.33
658.684	8063.19
658.876	8026.33
659.068	8177.88
659.26	7962.84
659.452	8016.09
659.644	8046.81
659.836	7885.02
660.028	7942.36
660.22	7844.06
660.412	7811.29
660.604	7829.73
660.796	7784.67
660.988	7712.99
661.18	7590.11
661.372	7751.9
661.563	7514.34
661.755	7563.49
661.947	7579.87
662.139	7428.32
662.331	7479.52
662.522	7297.25
662.714	7385.32
662.906	7231.72
663.097	7291.11
663.289	7352.55
663.481	7201
663.673	7149.8
663.864	7121.13
664.056	7080.17
664.247	7078.12
664.439	6910.19
664.631	6969.58
664.822	6998.25
665.014	7112.94
665.205	6807.79
665.397	7024.87
665.588	6574.32
665.78	6783.21
665.971	6732.01
666.163	6838.51
666.354	6709.49
666.546	6758.64
666.737	6633.71
666.929	6543.6
667.12	6414.58
667.311	6371.57
667.503	6414.58
667.694	6527.22
667.885	6408.44
668.077	6363.38
668.268	6478.07
668.459	6211.83
668.651	6310.13
668.842	6191.35
669.033	6084.86
669.224	6242.55
669.416	6265.08
669.607	6097.14
669.798	6054.14
669.989	6283.51
670.18	6105.34
670.371	6158.58
670.563	5939.45
670.754	5900.54
670.945	5980.41
671.136	5953.79
671.327	5998.84
671.518	6009.08
671.709	5865.72
671.9	5865.72
672.091	5837.05
672.282	5822.72
672.473	5802.24
672.664	5894.4
672.855	5644.54
673.046	5710.08
673.237	5771.52
673.428	5484.8
673.619	5744.89
673.809	5634.3
674	5452.03
674.191	5662.97
674.382	5472.51
674.573	5589.25
674.764	5409.03
674.954	5460.23
675.145	5509.38
675.336	5431.55
675.527	5355.78
675.717	5370.12
675.908	5396.74
676.099	5476.61
676.289	5370.12
676.48	5323.01
676.671	5501.19
676.861	5306.63
677.052	5263.62
677.243	5206.28
677.433	5077.26
677.624	5234.95
677.814	5138.69
678.005	5216.52
678.195	5210.37
678.386	5116.17
678.576	5189.89
678.767	4978.95
678.957	5064.97
679.148	5181.7
679.338	5019.91
679.529	5282.05
679.719	5030.15
679.909	4921.61
680.1	4958.47
680.29	4976.91
680.481	4913.42
680.671	4903.18
680.861	4923.66
681.052	4987.15
681.242	4831.5
681.432	4897.03
681.622	4909.32
681.813	4819.21
682.003	4856.08
682.193	4706.57
682.383	4921.61
682.573	4790.54
682.764	4778.25
682.954	4800.78
683.144	4849.93
683.334	4784.4
683.524	4684.05
683.714	4682
683.904	4720.91
684.094	4581.65
684.284	4548.88
684.474	4559.12
684.664	4655.37
684.854	4593.94
685.044	4716.81
685.234	4512.02
685.424	4647.18
685.614	4540.69
685.804	4426
685.994	4444.43
686.184	4544.78
686.374	4411.67
686.564	4477.2
686.753	4413.71
686.943	4339.99
687.133	4454.67
687.323	4313.36
687.513	4393.23
687.702	4225.3
687.892	4294.93
688.082	4417.81
688.272	4256.02
688.461	4337.94
688.651	4307.22
688.841	4192.53
689.03	4241.68
689.22	4086.04
689.41	4149.53
689.599	4129.05
689.789	4155.67
689.979	4094.23
690.168	4020.5
690.358	3932.44
690.547	3940.63
690.737	3948.83
690.926	4014.36
691.116	3772.7
691.305	4098.33
691.495	3766.56
691.684	3864.86
691.874	3889.43
692.063	3905.82
692.252	3918.11
692.442	3784.99
692.631	3887.39
692.82	3834.14
693.01	3819.8
693.199	3795.23
693.388	3721.5
693.578	3703.07
693.767	3909.91
693.956	3789.08
694.146	3588.38
694.335	3768.6
694.524	3709.21
694.713	3668.25
694.902	3557.66
695.092	3621.15
695.281	3518.75
695.47	3617.05
695.659	3635.49
695.848	3553.57
696.037	3428.64
696.226	3471.65
696.415	3526.94
696.604	3524.9
696.793	3528.99
696.982	3469.6
697.171	3498.27
697.36	3567.9
697.549	3582.24
697.738	3379.49
697.927	3416.35
698.116	3371.3
698.305	3387.68
698.494	3397.92
698.683	3354.91
698.872	3336.48
699.061	3395.87
699.25	3330.34
699.438	3320.1
699.627	3494.18
699.816	3381.54
700.005	3410.21
700.193	3442.98
700.382	3326.24
700.571	3344.67
700.76	3168.55
700.948	3397.92
701.137	3283.24
701.326	3340.58
701.514	3305.76
701.703	3246.37
701.892	3141.93
702.08	3273
702.269	3324.19
702.457	3369.25
702.646	3289.38
702.834	3117.35
703.023	3340.58
703.212	3250.47
703.4	3207.46
703.589	3180.84
703.777	3281.19
703.965	3301.67
704.154	3217.7
704.342	3066.15
704.531	3131.69
704.719	3133.73
704.907	3225.89
705.096	3189.03
705.284	3236.13
705.472	3150.12
705.661	3248.42
705.849	3152.17
706.037	3191.08
706.226	3264.8
706.414	3346.72
706.602	3170.6
706.79	3096.87
706.979	3060.01
707.167	3135.78
707.355	3098.92
707.543	3166.5
707.731	3137.83
707.919	3068.2
708.107	3131.69
708.296	3205.41
708.484	3094.82
708.672	3080.49
708.86	3166.5
709.048	3023.14
709.236	3025.19
709.424	3084.58
709.612	3115.3
709.8	3060.01
709.988	3141.93
710.176	2976.04
710.364	3035.43
710.551	2947.37
710.739	3189.03
710.927	3121.45
711.115	3109.16
711.303	3174.69
711.491	3031.34
711.679	2953.51
711.866	3105.06
712.054	2984.23
712.242	3041.57
712.43	3133.73
712.617	3023.14
712.805	3031.34
712.993	3113.25
713.181	3025.19
713.368	3019.05
713.556	2994.47
713.744	2916.65
713.931	2992.42
714.119	3055.91
714.306	3070.25
714.494	3033.38
714.682	3043.62
714.869	3012.9
715.057	3025.19
715.244	3049.77
715.432	3012.9
715.619	3074.34
715.807	3055.91
715.994	2840.87
716.182	2994.47
716.369	2945.32
716.556	2957.61
716.744	2908.46
716.931	3012.9
717.119	3066.15
717.306	3049.77
717.493	3047.72
717.681	2982.18
717.868	2840.87
718.055	3053.86
718.242	2918.7
718.43	3047.72
718.617	3004.71
718.804	2963.75
718.991	2922.79
719.179	2832.68
719.366	2867.5
719.553	2967.85
719.74	2998.57
719.927	2937.13
720.114	2855.21
720.301	2906.41
720.488	2818.35
720.676	3045.67
720.863	3092.77
721.05	3029.29
721.237	2939.18
721.424	2801.96
721.611	2922.79
721.798	2902.31
721.985	2910.5
722.172	2832.68
722.358	2957.61
722.545	2922.79
722.732	2967.85
722.919	2785.58
723.106	2853.16
723.293	2847.02
723.48	2943.27
723.667	3025.19
723.853	2955.56
724.04	2971.94
724.227	2816.3
724.414	3025.19
724.6	2984.23
724.787	2910.5
724.974	3043.62
725.161	2973.99
725.347	2859.31
725.534	2939.18
725.72	2982.18
725.907	2890.03
726.094	2834.73
726.28	2795.82
726.467	2967.85
726.653	2933.03
726.84	2834.73
727.027	2976.04
727.213	2969.9
727.4	2949.42
727.586	3105.06
727.773	2810.15
727.959	2885.93
728.145	2842.92
728.332	2873.64
728.518	2873.64
728.705	2908.46
728.891	2902.31
729.077	2920.74
729.264	2840.87
729.45	2816.3
729.636	2926.89
729.823	2851.11
730.009	2859.31
730.195	2971.94
730.382	3043.62
730.568	2863.4
730.754	2853.16
730.94	2887.98
731.126	2957.61
731.313	2928.94
731.499	2900.27
731.685	2978.09
731.871	2945.32
732.057	2976.04
732.243	3000.62
732.429	2982.18
732.615	2844.97
732.801	2824.49
732.987	3019.05
733.173	2902.31
733.359	2804.01
733.545	2857.26
733.731	2879.79
733.917	2957.61
734.103	2838.83
734.289	2795.82
734.475	2883.88
734.661	2906.41
734.847	2808.11
735.033	2943.27
735.219	2875.69
735.404	2816.3
735.59	2924.84
735.776	2863.4
735.962	2814.25
736.148	2810.15
736.333	2847.02
736.519	2820.39
736.705	2806.06
736.89	2738.48
737.076	2859.31
737.262	2793.77
737.447	2783.53
737.633	2902.31
737.819	2840.87
738.004	2976.04
738.19	2740.52
738.375	2801.96
738.561	2967.85
738.747	2832.68
738.932	2691.37
739.118	2865.45
739.303	2785.58
739.489	2701.61
739.674	2816.3
739.859	2744.62
740.045	2799.91
740.23	2767.15
740.416	2756.91
740.601	2744.62
740.786	2804.01
740.972	2732.33
741.157	2740.52
741.342	2769.2
741.528	2640.17
741.713	2750.76
741.898	2709.8
742.084	2603.31
742.269	2588.97
742.454	2693.42
742.639	2601.26
742.824	2584.88
743.01	2840.87
743.195	2720.04
743.38	2505.01
743.565	2634.03
743.75	2588.97
743.935	2646.32
744.12	2656.56
744.305	2613.55
744.49	2425.14
744.675	2394.42
744.86	2443.57
745.045	2668.84
745.23	2552.11
745.415	2533.68
745.6	2484.53
745.785	2445.62
745.97	2375.99
746.155	2322.74
746.34	2378.03
746.525	2449.71
746.71	2447.66
746.895	2369.84
747.079	2378.03
747.264	2335.03
747.449	2396.46
747.634	2308.4
747.819	2445.62
748.003	2296.11
748.188	2230.58
748.373	2236.72
748.557	2287.92
748.742	2191.67
748.927	2218.29
749.111	2251.06
749.296	2208.05
749.481	2212.15
749.665	2163
749.85	2109.75
750.034	2142.52
750.219	2124.08
750.404	2140.47
750.588	2183.48
750.773	2023.73
750.957	2140.47
751.141	2107.7
751.326	2236.72
751.51	2048.31
751.695	2081.08
751.879	1995.06
752.064	2154.8
752.248	1950.01
752.432	2091.32
752.617	2060.6
752.801	2033.97
752.985	1968.44
753.17	1984.82
753.354	1939.77
753.538	1919.29
753.722	1939.77
753.907	1902.9
754.091	1904.95
754.275	1911.1
754.459	1829.18
754.643	1786.17
754.828	1849.66
755.012	1782.07
755.196	1790.27
755.38	1788.22
755.564	1730.87
755.748	1808.7
755.932	1798.46
756.116	1710.4
756.3	1677.63
756.484	1825.08
756.668	1737.02
756.852	1640.76
757.036	1706.3
757.22	1663.29
757.404	1657.15
757.588	1644.86
757.772	1775.93
757.956	1614.14
758.14	1573.18
758.323	1618.24
758.507	1716.54
758.691	1589.57
758.875	1579.33
759.059	1595.71
759.242	1644.86
759.426	1567.04
759.61	1548.61
759.794	1489.21
759.977	1597.76
760.161	1487.17
760.345	1386.82
760.528	1524.03
760.712	1540.41
760.895	1468.73
761.079	1341.76
761.263	1546.56
761.446	1472.83
761.63	1583.42
761.813	1470.78
761.997	1378.62
762.18	1460.54
762.364	1481.02
762.547	1421.63
762.731	1345.86
762.914	1413.44
763.098	1343.81
763.281	1390.91
763.464	1395.01
763.648	1343.81
763.831	1429.82
764.015	1386.82
764.198	1311.04
764.381	1315.14
764.564	1306.95
764.748	1278.27
764.931	1339.71
765.114	1284.42
765.297	1311.04
765.481	1274.18
765.664	1192.26
765.847	1259.84
766.03	1278.27
766.213	1304.9
766.397	1274.18
766.58	1253.7
766.763	1259.84
766.946	1284.42
767.129	1210.69
767.312	1206.59
767.495	1257.79
767.678	1222.98
767.861	1206.59
768.044	1265.99
768.227	1173.83
768.41	1241.41
768.593	1251.65
768.776	1173.83
768.959	1212.74
769.142	1286.47
769.324	1147.2
769.507	1126.72
769.69	1173.83
769.873	1171.78
770.056	1245.51
770.239	1124.68
770.421	1128.77
770.604	1190.21
770.787	1143.11
770.97	1194.31
771.152	1167.68
771.335	1184.07
771.518	1104.2
771.7	1122.63
771.883	1147.2
772.066	1122.63
772.248	1116.48
772.431	1134.92
772.613	1128.77
772.796	966.98
772.978	1016.13
773.161	1018.18
773.343	1077.57
773.526	1018.18
773.708	1009.99
773.891	1053
774.073	1110.34
774.256	1022.28
774.438	1044.81
774.621	981.32
774.803	1001.8
774.985	999.75
775.168	966.98
775.35	930.12
775.532	1042.76
775.715	911.69
775.897	1018.18
776.079	1005.89
776.261	932.17
776.444	1024.33
776.626	954.69
776.808	891.21
776.99	913.74
777.173	887.11
777.355	905.54
777.537	981.32
777.719	942.41
777.901	782.67
778.083	833.86
778.265	862.54
778.447	858.44
778.629	848.2
778.811	803.15
778.993	850.25
779.175	899.4
779.357	860.49
779.539	891.21
779.721	764.23
779.903	745.8
780.085	797
780.267	766.28
780.449	803.15
780.631	786.76
780.812	856.39
780.994	751.95
781.176	725.32
781.358	600.4
781.54	760.14
781.721	715.08
781.903	655.69
782.085	776.52
782.267	549.2
782.448	743.75
782.63	717.13
782.812	762.19
782.993	629.07
783.175	684.36
783.357	651.6
783.538	657.74
783.72	674.12
783.901	665.93
784.083	684.36
784.264	698.7
784.446	653.64
784.627	575.82
784.809	590.16
784.99	674.12
785.172	616.78
785.353	633.16
785.535	608.59
785.716	596.3
785.897	579.92
786.079	526.67
786.26	500.05
786.441	577.87
786.623	530.77
786.804	553.29
786.985	567.63
787.167	522.57
787.348	588.11
787.529	586.06
787.71	610.64
787.891	530.77
788.073	530.77
788.254	561.48
788.435	524.62
788.616	571.72
788.797	483.66
788.978	518.48
789.159	465.23
789.34	526.67
789.522	446.8
789.703	479.57
789.884	518.48
790.065	528.72
790.246	530.77
790.427	467.28
790.607	473.42
790.788	489.81
790.969	487.76
791.15	520.53
791.331	479.57
791.512	454.99
791.693	483.66
791.874	547.15
792.054	450.89
792.235	510.29
792.416	399.7
792.597	446.8
792.778	489.81
792.958	459.09
793.139	514.38
793.32	352.59
793.5	457.04
793.681	387.41
793.862	459.09
794.042	418.13
794.223	387.41
794.404	366.93
794.584	442.7
794.765	454.99
794.945	323.92
795.126	387.41
795.306	432.46
795.487	397.65
795.667	356.69
795.848	436.56
796.028	371.02
796.209	465.23
796.389	360.78
796.57	424.27
796.75	379.22
796.93	317.78
797.111	336.21
797.291	383.31
797.471	368.98
797.652	373.07
797.832	317.78
798.012	362.83
798.192	301.39
798.373	354.64
798.553	291.15
798.733	366.93
798.913	307.54
799.093	389.46
799.274	330.06
799.454	315.73
799.634	315.73
799.814	348.5
799.994	366.93
800.174	348.5
800.354	264.53
800.534	268.63
800.714	354.64
800.894	321.87
801.074	285.01
801.254	276.82
801.434	334.16
801.614	307.54
801.794	344.4
801.974	702.79
802.154	299.34
802.334	285.01
802.514	280.91
802.693	270.67
802.873	289.1
803.053	287.06
803.233	313.68
803.413	289.1
803.592	266.58
803.772	315.73
803.952	266.58
804.131	287.06
804.311	309.58
804.491	309.58
804.67	280.91
804.85	268.63
805.03	209.23
805.209	264.53
805.389	250.19
805.568	252.24
805.748	252.24
805.928	182.61
806.107	244.05
806.287	280.91
806.466	295.25
806.646	248.15
806.825	221.52
807.004	268.63
807.184	301.39
807.363	231.76
807.543	264.53
807.722	285.01
807.901	278.87
808.081	278.87
808.26	235.86
808.439	213.33
808.619	242
808.798	313.68
808.977	198.99
809.156	215.38
809.336	291.15
809.515	276.82
809.694	223.57
809.873	184.66
810.052	233.81
810.231	325.97
810.411	285.01
810.59	180.56
810.769	235.86
810.948	276.82
811.127	102.74
811.306	162.13
811.485	225.62
811.664	225.62
811.843	276.82
812.022	223.57
812.201	215.38
812.38	166.23
812.559	235.86
812.737	252.24
812.916	127.32
813.095	141.65
813.274	198.99
813.453	219.47
813.632	215.38
813.811	180.56
813.989	127.32
814.168	235.86
814.347	115.03
814.526	330.06
814.704	198.99
814.883	213.33
815.062	184.66
815.24	219.47
815.419	198.99
815.598	190.8
815.776	119.12
815.955	182.61
816.133	112.98
816.312	135.51
816.49	207.19
816.669	229.71
816.847	194.9
817.026	227.67
817.204	260.43
817.383	235.86
817.561	119.12
817.74	131.41
817.918	250.19
818.097	231.76
818.275	221.52
818.453	209.23
818.632	198.99
818.81	168.27
818.988	94.55
819.167	137.56
819.345	262.48
819.523	158.03
819.701	149.84
819.879	190.8
820.058	137.56
820.236	184.66
820.414	170.32
820.592	139.6
820.77	188.75
820.948	190.8
821.127	155.99
821.305	149.84
821.483	104.79
821.661	237.91
821.839	151.89
822.017	106.84
822.195	213.33
822.373	223.57
822.551	151.89
822.729	143.7
822.907	149.84
823.085	155.99
823.262	139.6
823.44	180.56
823.618	121.17
823.796	168.27
823.974	133.46
824.152	112.98
824.329	123.22
824.507	117.08
824.685	180.56
824.863	133.46
825.04	92.5
825.218	106.84
825.396	86.36
825.574	192.85
825.751	149.84
825.929	92.5
826.107	112.98
826.284	100.69
826.462	90.45
826.639	131.41
826.817	108.88
826.994	188.75
827.172	137.56
827.349	127.32
827.527	117.08
827.704	67.92
827.882	151.89
828.059	106.84
828.237	176.47
828.414	153.94
828.591	121.17
828.769	47.44
828.946	55.64
829.124	104.79
829.301	84.31
829.478	59.73
829.655	76.12
829.833	104.79
830.01	147.8
830.187	139.6
830.364	69.97
830.542	153.94
830.719	160.08
830.896	119.12
831.073	24.92
831.25	121.17
831.427	129.36
831.604	108.88
831.782	74.07
831.959	59.73
832.136	78.16
832.313	160.08
832.49	112.98
832.667	100.69
832.844	119.12
833.021	133.46
833.198	129.36
833.374	80.21
833.551	67.92
833.728	69.97
833.905	121.17
834.082	49.49
834.259	106.84
834.436	121.17
834.612	110.93
834.789	143.7
834.966	80.21
835.143	115.03
835.319	49.49
835.496	131.41
835.673	22.87
835.85	119.12
836.026	31.06
836.203	121.17
836.38	106.84
836.556	80.21
836.733	49.49
836.909	149.84
837.086	55.64
837.262	65.88
837.439	84.31
837.616	115.03
837.792	96.6
837.968	84.31
838.145	133.46
838.321	133.46
838.498	123.22
838.674	166.23
838.851	125.27
839.027	59.73
839.203	112.98
839.38	119.12
839.556	98.64
839.732	131.41
839.909	100.69
840.085	43.35
840.261	20.82
840.437	86.36
840.614	98.64
840.79	141.65
840.966	121.17
841.142	14.68
841.318	-1.71
841.494	74.07
841.671	80.21
841.847	55.64
842.023	61.78
842.199	53.59
842.375	57.68
842.551	72.02
842.727	22.87
842.903	147.8
843.079	20.82
843.255	37.2
843.431	65.88
843.607	102.74
843.783	35.16
843.959	63.83
844.134	39.25
844.31	94.55
844.486	59.73
844.662	76.12
844.838	57.68
845.013	57.68
845.189	137.56
845.365	110.93
845.541	72.02
845.716	12.63
845.892	117.08
846.068	106.84
846.244	121.17
846.419	63.83
846.595	45.4
846.77	133.46
846.946	86.36
847.122	63.83
847.297	92.5
847.473	26.96
847.648	69.97
847.824	76.12
847.999	76.12
848.175	14.68
848.35	53.59
848.526	76.12
848.701	39.25
848.876	88.4
849.052	74.07
849.227	51.54
849.403	74.07
849.578	10.58
849.753	76.12
849.929	133.46
850.104	67.92
850.279	29.01
850.454	51.54
850.63	45.4
850.805	121.17
850.98	10.58
851.155	72.02
851.33	29.01
851.505	31.06
851.681	92.5
851.856	94.55
852.031	67.92
852.206	18.77
852.381	108.88
852.556	100.69
852.731	69.97
852.906	78.16
853.081	63.83
853.256	92.5
853.431	18.77
853.606	51.54
853.781	65.88
853.956	-1.71
854.131	80.21
854.305	63.83
854.48	4.44
854.655	59.73
854.83	41.3
855.005	80.21
855.18	39.25
855.354	24.92
855.529	47.44
855.704	55.64
855.879	61.78
856.053	88.4
856.228	-3.75
856.403	55.64
856.577	55.64
856.752	39.25
856.926	53.59
857.101	57.68
857.276	65.88
857.45	49.49
857.625	131.41
857.799	-9.9
857.974	37.2
858.148	18.77
858.323	90.45
858.497	-28.33
858.672	53.59
858.846	-3.75
859.02	-3.75
859.195	16.73
859.369	49.49
859.543	86.36
859.718	47.44
859.892	51.54
860.066	49.49
860.241	67.92
860.415	22.87
860.589	31.06
860.763	78.16
860.938	-22.19
861.112	65.88
861.286	98.64
861.46	45.4
861.634	14.68
861.808	92.5
861.982	24.92
862.157	24.92
862.331	18.77
862.505	2.39
862.679	22.87
862.853	76.12
863.027	-5.8
863.201	-3.75
863.375	37.2
863.549	96.6
863.722	47.44
863.896	43.35
864.07	51.54
864.244	31.06
864.418	49.49
864.592	37.2
864.766	35.16
864.939	-3.75
865.113	-5.8
865.287	41.3
865.461	96.6
865.634	72.02
865.808	45.4
865.982	12.63
866.156	26.96
866.329	4.44
866.503	35.16
866.676	-93.87
866.85	61.78
867.024	4.44
867.197	4.44
867.371	80.21
867.544	57.68
867.718	39.25
867.891	26.96
868.065	-38.57
868.238	47.44
868.412	-20.14
868.585	-34.47
868.759	45.4
868.932	53.59
869.105	49.49
869.279	-7.85
869.452	125.27
869.625	-13.99
869.799	39.25
869.972	-11.95
870.145	-7.85
870.319	63.83
870.492	63.83
870.665	12.63
870.838	29.01
871.011	20.82
871.185	18.77
871.358	4.44
871.531	43.35
871.704	92.5
871.877	8.53
872.05	-54.95
872.223	29.01
872.396	-46.76
872.569	-22.19
872.742	-11.95
872.915	16.73
873.088	-40.62
873.261	108.88
873.434	-13.99
873.607	57.68
873.78	41.3
873.953	37.2
874.126	0.34
874.299	-20.14
874.471	8.53
874.644	78.16
874.817	65.88
874.99	112.98
875.163	22.87
875.335	65.88
875.508	-24.23
875.681	63.83
875.853	-44.71
876.026	4.44
876.199	59.73
876.371	47.44
876.544	65.88
876.717	29.01
876.889	16.73
877.062	29.01
877.234	10.58
877.407	33.11
877.579	45.4
877.752	112.98
877.924	12.63
878.097	20.82
878.269	0.34
878.442	-38.57
878.614	47.44
878.786	78.16
878.959	67.92
879.131	57.68
879.303	31.06
879.476	14.68
879.648	4.44
879.82	112.98
879.993	-22.19
880.165	20.82
880.337	22.87
880.509	51.54
880.681	-42.67
880.854	29.01
881.026	-57
881.198	153.94
881.37	18.77
881.542	49.49
881.714	-11.95
881.886	-13.99
882.058	63.83
882.23	0.34
882.402	63.83
882.574	39.25
882.746	31.06
882.918	-13.99
883.09	24.92
883.262	24.92
883.434	78.16
883.606	67.92
883.778	-1.71
883.95	39.25
884.122	-16.04
884.293	43.35
884.465	-3.75
884.637	41.3
884.809	-34.47
884.98	49.49
885.152	-13.99
885.324	104.79
885.496	29.01
885.667	-3.75
885.839	33.11
886.011	53.59
886.182	-36.52
886.354	69.97
886.525	18.77
886.697	41.3
886.869	-91.82
887.04	20.82
887.212	59.73
887.383	37.2
887.555	43.35
887.726	33.11
887.897	-63.15
888.069	-16.04
888.24	-9.9
888.412	29.01
888.583	39.25
888.754	96.6
888.926	-26.28
889.097	16.73
889.268	22.87
889.44	-11.95
889.611	88.4
889.782	2.39
889.953	-3.75
890.125	92.5
890.296	10.58
890.467	39.25
890.638	8.53
890.809	-30.38
890.98	22.87
891.151	65.88
891.323	4.44
891.494	22.87
891.665	2.39
891.836	22.87
892.007	4.44
892.178	-5.8
892.349	-5.8
892.52	16.73
892.691	45.4
892.862	-11.95
893.032	-42.67
893.203	59.73
893.374	29.01
893.545	53.59
893.716	-3.75
893.887	6.49
894.057	0.34
894.228	-18.09
894.399	45.4
894.57	63.83
894.74	33.11
894.911	31.06
895.082	12.63
895.253	-59.05
895.423	-28.33
895.594	31.06
895.764	14.68
895.935	29.01
896.106	18.77
896.276	22.87
896.447	4.44
896.617	-20.14
896.788	-5.8
896.958	22.87
897.129	-34.47
897.299	-40.62
897.47	67.92
897.64	80.21
897.81	-7.85
897.981	8.53
898.151	-3.75
898.322	2.39
898.492	10.58
898.662	18.77
898.832	-18.09
899.003	14.68
899.173	4.44
899.343	18.77
899.513	-18.09
