Data from USB4F104151__58__11-45-15-889.txt Node

Date: Fri Mar 14 11:45:15 EDT 2025
User: louis
Spectrometer: USB4F10415
Trigger mode: 4
Integration Time (sec): 2.000000E-2
Scans to average: 1
Electric dark correction enabled: true
Nonlinearity correction enabled: false
Boxcar width: 0
XAxis mode: Wavelengths
Number of Pixels in Spectrum: 3648
>>>>>Begin Spectral Data<<<<<
178.204	-49.32
178.424	-49.32
178.644	-49.32
178.864	-75.95
179.084	-75.95
179.304	-2.22
179.524	-8.36
179.744	-63.66
179.964	65.36
180.184	-10.41
180.404	5.97
180.624	38.74
180.844	14.17
181.064	-14.51
181.283	12.12
181.503	-34.99
181.723	-2.22
181.943	1.88
182.163	10.07
182.383	59.22
182.602	-22.7
182.822	-30.89
183.042	8.02
183.262	42.84
183.482	8.02
183.701	10.07
183.921	94.04
184.141	-84.14
184.361	14.17
184.58	-39.08
184.8	100.18
185.02	14.17
185.239	83.8
185.459	-39.08
185.679	18.26
185.898	-63.66
186.118	-32.94
186.338	-2.22
186.557	-24.75
186.777	-10.41
186.997	63.32
187.216	8.02
187.436	110.42
187.655	5.97
187.875	26.45
188.095	44.88
188.314	112.47
188.534	55.12
188.753	5.97
188.973	63.32
189.192	8.02
189.412	22.36
189.631	94.04
189.851	5.97
190.07	24.4
190.29	-34.99
190.509	38.74
190.729	16.21
190.948	10.07
191.168	91.99
191.387	63.32
191.607	-37.03
191.826	69.46
192.045	-41.13
192.265	-4.27
192.484	61.27
192.704	44.88
192.923	57.17
193.142	26.45
193.362	26.45
193.581	40.79
193.8	26.45
194.02	-14.51
194.239	106.32
194.458	32.6
194.678	38.74
194.897	36.69
195.116	-14.51
195.335	42.84
195.555	51.03
195.774	3.93
195.993	48.98
196.212	-22.7
196.432	34.64
196.651	-47.27
196.87	46.93
197.089	16.21
197.308	-8.36
197.528	-20.65
197.747	-96.43
197.966	63.32
198.185	12.12
198.404	-4.27
198.623	-8.36
198.842	77.65
199.062	71.51
199.281	57.17
199.5	-4.27
199.719	59.22
199.938	-16.55
200.157	73.56
200.376	5.97
200.595	-12.46
200.814	10.07
201.033	16.21
201.252	40.79
201.471	-45.23
201.69	1.88
201.909	34.64
202.128	-0.17
202.347	55.12
202.566	38.74
202.785	16.21
203.004	-4.27
203.223	75.6
203.442	22.36
203.661	18.26
203.879	55.12
204.098	44.88
204.317	22.36
204.536	30.55
204.755	-10.41
204.974	30.55
205.193	-6.31
205.411	61.27
205.63	20.31
205.849	3.93
206.068	-4.27
206.287	59.22
206.505	55.12
206.724	65.36
206.943	26.45
207.162	122.71
207.381	-55.47
207.599	28.5
207.818	1.88
208.037	-8.36
208.255	65.36
208.474	26.45
208.693	-20.65
208.911	51.03
209.13	40.79
209.349	16.21
209.567	75.6
209.786	26.45
210.005	38.74
210.223	55.12
210.442	10.07
210.661	18.26
210.879	-0.17
211.098	30.55
211.316	1.88
211.535	30.55
211.753	96.08
211.972	28.5
212.191	-0.17
212.409	-18.6
212.628	14.17
212.846	1.88
213.065	126.8
213.283	73.56
213.502	14.17
213.72	14.17
213.938	46.93
214.157	5.97
214.375	67.41
214.594	26.45
214.812	59.22
215.031	-10.41
215.249	-24.75
215.467	16.21
215.686	-0.17
215.904	96.08
216.122	-55.47
216.341	3.93
216.559	26.45
216.778	3.93
216.996	116.56
217.214	-12.46
217.432	10.07
217.651	40.79
217.869	-14.51
218.087	51.03
218.306	20.31
218.524	38.74
218.742	-4.27
218.96	38.74
219.179	38.74
219.397	55.12
219.615	108.37
219.833	38.74
220.051	30.55
220.27	32.6
220.488	-26.79
220.706	63.32
220.924	12.12
221.142	63.32
221.36	67.41
221.578	10.07
221.796	-16.55
222.015	89.94
222.233	-51.37
222.451	69.46
222.669	83.8
222.887	57.17
223.105	-34.99
223.323	94.04
223.541	1.88
223.759	20.31
223.977	55.12
224.195	-4.27
224.413	18.26
224.631	124.76
224.849	5.97
225.067	75.6
225.285	-43.18
225.503	116.56
225.721	-0.17
225.939	-14.51
226.157	30.55
226.375	114.52
226.592	-20.65
226.81	42.84
227.028	46.93
227.246	26.45
227.464	-10.41
227.682	87.89
227.9	-4.27
228.117	34.64
228.335	40.79
228.553	44.88
228.771	30.55
228.989	26.45
229.206	-14.51
229.424	53.08
229.642	-0.17
229.86	-24.75
230.077	-22.7
230.295	53.08
230.513	14.17
230.731	102.23
230.948	-18.6
231.166	12.12
231.384	-0.17
231.601	-6.31
231.819	5.97
232.037	48.98
232.254	-8.36
232.472	44.88
232.689	20.31
232.907	106.32
233.125	3.93
233.342	40.79
233.56	12.12
233.777	46.93
233.995	22.36
234.213	69.46
234.43	83.8
234.648	3.93
234.865	59.22
235.083	73.56
235.3	77.65
235.518	46.93
235.735	42.84
235.953	100.18
236.17	-2.22
236.388	-12.46
236.605	36.69
236.822	42.84
237.04	5.97
237.257	79.7
237.475	14.17
237.692	1.88
237.909	-47.27
238.127	65.36
238.344	-20.65
238.562	63.32
238.779	40.79
238.996	-69.8
239.214	10.07
239.431	-34.99
239.648	-28.84
239.865	87.89
240.083	53.08
240.3	10.07
240.517	30.55
240.735	36.69
240.952	87.89
241.169	40.79
241.386	48.98
241.603	-22.7
241.821	8.02
242.038	83.8
242.255	42.84
242.472	48.98
242.689	3.93
242.907	8.02
243.124	-8.36
243.341	26.45
243.558	51.03
243.775	-53.42
243.992	61.27
244.209	5.97
244.426	53.08
244.643	51.03
244.86	16.21
245.078	28.5
245.295	40.79
245.512	-2.22
245.729	20.31
245.946	8.02
246.163	5.97
246.38	100.18
246.597	53.08
246.814	108.37
247.031	36.69
247.248	-0.17
247.464	-8.36
247.681	67.41
247.898	1.88
248.115	3.93
248.332	32.6
248.549	32.6
248.766	69.46
248.983	3.93
249.2	-14.51
249.417	20.31
249.633	30.55
249.85	116.56
250.067	20.31
250.284	77.65
250.501	46.93
250.717	79.7
250.934	22.36
251.151	-18.6
251.368	-24.75
251.585	57.17
251.801	12.12
252.018	63.32
252.235	24.4
252.451	40.79
252.668	5.97
252.885	-16.55
253.102	16.21
253.318	26.45
253.535	10.07
253.752	32.6
253.968	5.97
254.185	-49.32
254.401	65.36
254.618	65.36
254.835	38.74
255.051	46.93
255.268	10.07
255.484	3.93
255.701	44.88
255.917	20.31
256.134	-28.84
256.351	94.04
256.567	10.07
256.784	55.12
257	-57.51
257.217	44.88
257.433	98.13
257.65	73.56
257.866	20.31
258.082	10.07
258.299	-22.7
258.515	53.08
258.732	85.84
258.948	16.21
259.165	63.32
259.381	5.97
259.597	53.08
259.814	26.45
260.03	8.02
260.246	1.88
260.463	30.55
260.679	42.84
260.895	24.4
261.112	87.89
261.328	-30.89
261.544	24.4
261.761	32.6
261.977	8.02
262.193	71.51
262.409	73.56
262.626	-8.36
262.842	53.08
263.058	12.12
263.274	26.45
263.49	61.27
263.707	20.31
263.923	-8.36
264.139	36.69
264.355	18.26
264.571	18.26
264.787	16.21
265.004	14.17
265.22	38.74
265.436	-8.36
265.652	16.21
265.868	34.64
266.084	36.69
266.3	1.88
266.516	14.17
266.732	32.6
266.948	65.36
267.164	46.93
267.38	36.69
267.596	12.12
267.812	14.17
268.028	22.36
268.244	77.65
268.46	20.31
268.676	79.7
268.892	59.22
269.108	36.69
269.324	8.02
269.54	-16.55
269.756	81.75
269.972	42.84
270.188	63.32
270.403	57.17
270.619	32.6
270.835	69.46
271.051	94.04
271.267	12.12
271.483	122.71
271.698	12.12
271.914	118.61
272.13	71.51
272.346	32.6
272.562	87.89
272.777	96.08
272.993	59.22
273.209	44.88
273.425	10.07
273.64	14.17
273.856	5.97
274.072	-18.6
274.287	-16.55
274.503	-51.37
274.719	26.45
274.934	59.22
275.15	-0.17
275.366	14.17
275.581	-55.47
275.797	59.22
276.012	-16.55
276.228	36.69
276.444	-12.46
276.659	65.36
276.875	5.97
277.09	16.21
277.306	-86.19
277.521	71.51
277.737	-51.37
277.952	32.6
278.168	61.27
278.383	28.5
278.599	26.45
278.814	-8.36
279.03	30.55
279.245	10.07
279.461	-4.27
279.676	34.64
279.892	18.26
280.107	46.93
280.322	57.17
280.538	20.31
280.753	16.21
280.969	-24.75
281.184	59.22
281.399	-4.27
281.615	3.93
281.83	63.32
282.045	65.36
282.26	73.56
282.476	34.64
282.691	79.7
282.906	-2.22
283.122	-43.18
283.337	-55.47
283.552	34.64
283.767	20.31
283.983	12.12
284.198	36.69
284.413	89.94
284.628	-26.79
284.843	32.6
285.058	91.99
285.274	-28.84
285.489	1.88
285.704	36.69
285.919	10.07
286.134	100.18
286.349	-4.27
286.564	22.36
286.779	75.6
286.995	30.55
287.21	34.64
287.425	30.55
287.64	34.64
287.855	8.02
288.07	-6.31
288.285	108.37
288.5	63.32
288.715	42.84
288.93	-28.84
289.145	48.98
289.36	-10.41
289.575	-18.6
289.79	1.88
290.004	34.64
290.219	46.93
290.434	-22.7
290.649	-4.27
290.864	-20.65
291.079	-0.17
291.294	-16.55
291.509	65.36
291.724	104.28
291.938	73.56
292.153	-39.08
292.368	14.17
292.583	40.79
292.798	36.69
293.012	12.12
293.227	-45.23
293.442	-0.17
293.657	42.84
293.871	81.75
294.086	20.31
294.301	100.18
294.516	20.31
294.73	14.17
294.945	22.36
295.16	-18.6
295.374	14.17
295.589	-8.36
295.804	-8.36
296.018	36.69
296.233	106.32
296.447	46.93
296.662	55.12
296.877	118.61
297.091	-4.27
297.306	16.21
297.52	-0.17
297.735	-12.46
297.949	3.93
298.164	110.42
298.378	71.51
298.593	-16.55
298.807	67.41
299.022	20.31
299.236	79.7
299.451	18.26
299.665	-34.99
299.88	42.84
300.094	24.4
300.309	28.5
300.523	-10.41
300.737	79.7
300.952	24.4
301.166	1.88
301.381	-12.46
301.595	-8.36
301.809	22.36
302.024	46.93
302.238	-16.55
302.452	38.74
302.667	-61.61
302.881	55.12
303.095	-30.89
303.309	34.64
303.524	-6.31
303.738	24.4
303.952	46.93
304.166	85.84
304.381	-32.94
304.595	104.28
304.809	-39.08
305.023	-12.46
305.237	57.17
305.452	48.98
305.666	26.45
305.88	5.97
306.094	22.36
306.308	51.03
306.522	145.24
306.736	42.84
306.95	51.03
307.164	16.21
307.379	73.56
307.593	-2.22
307.807	48.98
308.021	46.93
308.235	5.97
308.449	14.17
308.663	59.22
308.877	38.74
309.091	34.64
309.305	69.46
309.519	-10.41
309.733	100.18
309.947	53.08
310.161	-2.22
310.374	44.88
310.588	20.31
310.802	-2.22
311.016	51.03
311.23	36.69
311.444	61.27
311.658	1.88
311.872	73.56
312.085	-8.36
312.299	61.27
312.513	36.69
312.727	77.65
312.941	44.88
313.154	20.31
313.368	28.5
313.582	112.47
313.796	14.17
314.009	69.46
314.223	67.41
314.437	89.94
314.651	20.31
314.864	8.02
315.078	-24.75
315.292	73.56
315.505	63.32
315.719	85.84
315.933	5.97
316.146	96.08
316.36	-6.31
316.573	46.93
316.787	81.75
317.001	-14.51
317.214	14.17
317.428	59.22
317.641	-2.22
317.855	44.88
318.068	57.17
318.282	55.12
318.495	57.17
318.709	-34.99
318.922	26.45
319.136	69.46
319.349	26.45
319.563	8.02
319.776	24.4
319.99	-47.27
320.203	48.98
320.417	63.32
320.63	46.93
320.843	51.03
321.057	53.08
321.27	67.41
321.483	-26.79
321.697	44.88
321.91	22.36
322.124	38.74
322.337	8.02
322.55	14.17
322.763	34.64
322.977	24.4
323.19	104.28
323.403	48.98
323.617	18.26
323.83	69.46
324.043	-0.17
324.256	30.55
324.469	40.79
324.683	8.02
324.896	44.88
325.109	38.74
325.322	-8.36
325.535	104.28
325.748	114.52
325.962	26.45
326.175	96.08
326.388	-2.22
326.601	59.22
326.814	77.65
327.027	18.26
327.24	-16.55
327.453	-63.66
327.666	53.08
327.879	65.36
328.092	83.8
328.305	63.32
328.518	-2.22
328.731	77.65
328.944	75.6
329.157	38.74
329.37	71.51
329.583	67.41
329.796	143.19
330.009	63.32
330.222	69.46
330.435	16.21
330.648	8.02
330.861	42.84
331.073	-2.22
331.286	8.02
331.499	130.9
331.712	32.6
331.925	61.27
332.138	53.08
332.35	89.94
332.563	83.8
332.776	132.95
332.989	46.93
333.202	67.41
333.414	67.41
333.627	42.84
333.84	-26.79
334.053	55.12
334.265	32.6
334.478	44.88
334.691	-30.89
334.903	30.55
335.116	40.79
335.329	26.45
335.541	40.79
335.754	106.32
335.966	40.79
336.179	55.12
336.392	-14.51
336.604	14.17
336.817	12.12
337.029	34.64
337.242	61.27
337.454	100.18
337.667	34.64
337.88	-8.36
338.092	59.22
338.305	8.02
338.517	34.64
338.729	51.03
338.942	63.32
339.154	26.45
339.367	-4.27
339.579	32.6
339.792	110.42
340.004	42.84
340.217	44.88
340.429	83.8
340.641	-8.36
340.854	44.88
341.066	61.27
341.278	30.55
341.491	94.04
341.703	38.74
341.915	77.65
342.128	46.93
342.34	24.4
342.552	57.17
342.764	20.31
342.977	55.12
343.189	57.17
343.401	1.88
343.613	-14.51
343.826	48.98
344.038	-8.36
344.25	96.08
344.462	61.27
344.674	114.52
344.886	-24.75
345.099	71.51
345.311	-6.31
345.523	100.18
345.735	63.32
345.947	42.84
346.159	32.6
346.371	46.93
346.583	-6.31
346.795	89.94
347.007	-2.22
347.219	55.12
347.431	22.36
347.643	81.75
347.855	-12.46
348.067	87.89
348.279	-32.94
348.491	16.21
348.703	20.31
348.915	69.46
349.127	46.93
349.339	55.12
349.551	-45.23
349.763	77.65
349.975	42.84
350.187	63.32
350.399	18.26
350.61	100.18
350.822	57.17
351.034	42.84
351.246	24.4
351.458	145.24
351.669	32.6
351.881	102.23
352.093	85.84
352.305	40.79
352.517	61.27
352.728	5.97
352.94	12.12
353.152	126.8
353.363	-30.89
353.575	53.08
353.787	59.22
353.999	5.97
354.21	44.88
354.422	57.17
354.633	36.69
354.845	40.79
355.057	51.03
355.268	53.08
355.48	42.84
355.692	59.22
355.903	85.84
356.115	46.93
356.326	-2.22
356.538	-4.27
356.749	14.17
356.961	96.08
357.172	63.32
357.384	61.27
357.595	48.98
357.807	-51.37
358.018	40.79
358.23	34.64
358.441	89.94
358.653	128.85
358.864	28.5
359.075	46.93
359.287	55.12
359.498	55.12
359.709	67.41
359.921	71.51
360.132	40.79
360.344	12.12
360.555	77.65
360.766	26.45
360.977	14.17
361.189	59.22
361.4	71.51
361.611	73.56
361.823	42.84
362.034	89.94
362.245	16.21
362.456	67.41
362.667	42.84
362.879	67.41
363.09	67.41
363.301	89.94
363.512	16.21
363.723	48.98
363.935	75.6
364.146	69.46
364.357	81.75
364.568	55.12
364.779	75.6
364.99	87.89
365.201	26.45
365.412	44.88
365.623	-41.13
365.834	46.93
366.045	100.18
366.256	112.47
366.467	106.32
366.678	73.56
366.889	14.17
367.1	44.88
367.311	51.03
367.522	55.12
367.733	32.6
367.944	69.46
368.155	104.28
368.366	24.4
368.577	122.71
368.788	16.21
368.999	102.23
369.209	87.89
369.42	65.36
369.631	55.12
369.842	51.03
370.053	110.42
370.264	5.97
370.474	71.51
370.685	5.97
370.896	10.07
371.107	42.84
371.317	63.32
371.528	65.36
371.739	-4.27
371.95	-16.55
372.16	16.21
372.371	34.64
372.582	67.41
372.792	26.45
373.003	36.69
373.214	38.74
373.424	118.61
373.635	16.21
373.846	110.42
374.056	106.32
374.267	94.04
374.477	89.94
374.688	30.55
374.898	98.13
375.109	104.28
375.319	-10.41
375.53	77.65
375.74	18.26
375.951	14.17
376.161	75.6
376.372	53.08
376.582	100.18
376.793	40.79
377.003	26.45
377.214	65.36
377.424	-20.65
377.635	77.65
377.845	36.69
378.055	79.7
378.266	-4.27
378.476	40.79
378.686	79.7
378.897	81.75
379.107	85.84
379.317	73.56
379.528	116.56
379.738	130.9
379.948	-12.46
380.158	161.62
380.369	91.99
380.579	14.17
380.789	34.64
380.999	34.64
381.21	40.79
381.42	122.71
381.63	91.99
381.84	57.17
382.05	67.41
382.261	77.65
382.471	69.46
382.681	-0.17
382.891	141.14
383.101	69.46
383.311	-2.22
383.521	32.6
383.731	26.45
383.941	79.7
384.151	87.89
384.361	26.45
384.571	67.41
384.781	12.12
384.991	128.85
385.201	112.47
385.411	5.97
385.621	77.65
385.831	38.74
386.041	5.97
386.251	-4.27
386.461	137.04
386.671	91.99
386.881	96.08
387.091	85.84
387.301	48.98
387.511	71.51
387.72	112.47
387.93	22.36
388.14	53.08
388.35	116.56
388.56	69.46
388.769	42.84
388.979	79.7
389.189	75.6
389.399	12.12
389.609	38.74
389.818	122.71
390.028	38.74
390.238	-4.27
390.447	128.85
390.657	69.46
390.867	57.17
391.076	57.17
391.286	122.71
391.496	91.99
391.705	169.81
391.915	55.12
392.125	165.71
392.334	-6.31
392.544	83.8
392.753	75.6
392.963	57.17
393.172	114.52
393.382	87.89
393.591	65.36
393.801	89.94
394.01	145.24
394.22	22.36
394.429	118.61
394.639	116.56
394.848	163.67
395.058	132.95
395.267	85.84
395.477	106.32
395.686	149.33
395.895	151.38
396.105	69.46
396.314	126.8
396.524	55.12
396.733	48.98
396.942	89.94
397.152	75.6
397.361	137.04
397.57	73.56
397.78	55.12
397.989	116.56
398.198	104.28
398.407	83.8
398.617	128.85
398.826	112.47
399.035	225.11
399.244	77.65
399.453	141.14
399.663	59.22
399.872	137.04
400.081	110.42
400.29	141.14
400.499	128.85
400.708	190.29
400.917	116.56
401.127	159.57
401.336	100.18
401.545	126.8
401.754	147.28
401.963	100.18
402.172	77.65
402.381	100.18
402.59	165.71
402.799	221.01
403.008	198.48
403.217	120.66
403.426	159.57
403.635	151.38
403.844	130.9
404.053	184.15
404.262	130.9
404.471	171.86
404.68	210.77
404.888	227.15
405.097	218.96
405.306	178
405.515	200.53
405.724	190.29
405.933	221.01
406.142	212.82
406.35	188.24
406.559	159.57
406.768	268.11
406.977	202.58
407.185	261.97
407.394	249.68
407.603	264.02
407.812	296.78
408.02	321.36
408.229	339.79
408.438	255.83
408.646	315.22
408.855	337.74
409.064	182.1
409.272	300.88
409.481	354.13
409.69	300.88
409.898	368.46
410.107	378.7
410.315	370.51
410.524	411.47
410.733	395.09
410.941	509.77
411.15	419.66
411.358	436.05
411.567	532.3
411.775	526.16
411.984	569.16
412.192	608.08
412.401	452.43
412.609	606.03
412.818	583.5
413.026	669.52
413.234	610.12
413.443	616.27
413.651	587.6
413.86	718.67
414.068	704.33
414.276	780.11
414.485	812.87
414.693	851.78
414.901	862.02
415.11	853.83
415.318	878.41
415.526	870.22
415.734	896.84
415.943	950.09
416.151	943.94
416.359	952.13
416.567	1097.54
416.776	1003.33
416.984	1189.7
417.192	1128.26
417.4	1156.93
417.608	1199.94
417.817	1257.28
418.025	1384.26
418.233	1396.54
418.441	1466.17
418.649	1500.99
418.857	1550.14
419.065	1562.43
419.273	1558.33
419.481	1595.2
419.689	1791.8
419.897	1910.58
420.105	1941.3
420.313	1834.81
420.521	1935.16
420.729	2168.63
420.937	2033.46
421.145	2258.74
421.353	2232.12
421.561	2334.51
421.769	2389.81
421.977	2498.35
422.185	2389.81
422.393	2643.76
422.601	2846.51
422.809	2660.14
423.017	2844.46
423.224	2889.51
423.432	3002.15
423.64	3039.01
423.848	3176.23
424.056	3346.21
424.263	3528.48
424.471	3499.81
424.679	3604.25
424.887	3718.94
425.094	3788.57
425.302	3868.44
425.51	3940.12
425.718	4204.31
425.925	4087.57
426.133	4415.25
426.341	4505.36
426.548	5048.07
426.756	4878.09
426.964	4843.28
427.171	5216.01
427.379	5416.71
427.586	5506.82
427.794	5496.58
428.001	5844.73
428.209	6022.91
428.417	5818.11
428.624	6446.83
428.832	6389.49
429.039	6237.94
429.247	6418.16
429.454	6983.4
429.662	7263.97
429.869	6960.88
430.076	7487.2
430.284	7200.49
430.491	7683.81
430.699	7974.62
430.906	7917.28
431.114	8013.53
431.321	8406.74
431.528	8474.32
431.736	9135.82
431.943	9379.53
432.15	9127.63
432.358	9236.17
432.565	9852.61
432.772	9866.94
432.979	10305.21
433.187	10432.18
433.394	10532.53
433.601	11146.92
433.808	11060.91
434.016	11243.18
434.223	11562.66
434.43	12318.36
434.637	12234.39
434.844	12746.39
435.052	13184.65
435.259	13069.97
435.466	12969.62
435.673	13018.77
435.88	13958.78
436.087	14405.24
436.294	14694.01
436.501	14341.75
436.708	14749.3
436.915	14759.54
437.122	15937.12
437.329	15451.75
437.537	16049.76
437.743	16461.4
437.95	16334.43
438.157	17299.02
438.364	17819.21
438.571	17708.62
438.778	17854.02
438.985	19316.27
439.192	18665.02
439.399	19330.61
439.606	19289.65
439.813	19834.41
440.02	21329.42
440.227	20979.22
440.433	20616.73
440.64	21394.96
440.847	21210.64
441.054	21730.83
441.261	23070.2
441.467	22642.17
441.674	23184.88
441.881	24014.31
442.088	24071.65
442.294	23645.68
442.501	24497.63
442.708	25091.54
442.914	26029.51
443.121	27284.92
443.328	26439.11
443.534	27997.61
443.741	26949.05
443.948	27041.21
444.154	29250.97
444.361	28771.74
444.568	29277.59
444.774	28890.52
444.981	29515.15
445.187	30414.21
445.394	31352.18
445.6	31149.43
445.807	34401.61
446.013	32298.34
446.22	33062.24
446.426	34350.41
446.633	34741.57
446.839	36156.72
447.046	34624.84
447.252	36402.47
447.459	36396.33
447.665	36322.6
447.871	37874.96
448.078	39398.65
448.284	37670.17
448.491	38343.95
448.697	40017.14
448.903	41112.8
449.11	40903.91
449.316	40316.14
449.522	41041.12
449.728	41837.78
449.935	42104.02
450.141	42030.29
450.347	43091.14
450.553	41866.45
450.76	42390.73
450.966	44027.06
451.172	43562.17
451.378	44899.5
451.584	43799.74
451.791	44717.23
451.997	44483.76
452.203	45282.47
452.409	44784.81
452.615	45302.95
452.821	43322.56
453.027	42939.59
453.233	44911.78
453.44	43302.08
453.646	43973.81
453.852	44111.03
454.058	45030.57
454.264	43363.52
454.47	44690.6
454.676	43443.39
454.882	44481.71
455.088	40967.4
455.294	41954.52
455.5	42274
455.705	42452.17
455.911	40592.62
456.117	39677.18
456.323	39619.83
456.529	37328.16
456.735	39083.26
456.941	37985.55
457.147	37547.29
457.352	36599.08
457.558	35972.4
457.764	36441.39
457.97	35251.52
458.176	34796.87
458.381	34524.49
458.587	33103.2
458.793	33070.43
458.999	31591.8
459.204	33381.72
459.41	32390.5
459.616	30733.7
459.821	30137.74
460.027	30551.43
460.233	29353.37
460.438	28345.76
460.644	28478.88
460.85	27352.5
461.055	26553.79
461.261	26760.64
461.466	24643.04
461.672	23969.26
461.878	25687.5
462.083	24157.67
462.289	23889.38
462.494	23492.08
462.7	22328.83
462.905	21669.39
463.111	22459.9
463.316	22535.68
463.522	21947.91
463.727	22138.37
463.932	22382.08
464.138	21814.79
464.343	22038.02
464.549	21157.39
464.754	22095.36
464.959	21663.24
465.165	21227.03
465.37	21022.23
465.575	20233.76
465.781	20878.87
465.986	21247.51
466.191	20338.21
466.397	19813.93
466.602	18945.59
466.807	19740.2
467.012	19828.26
467.218	19629.61
467.423	19353.13
467.628	19445.29
467.833	20405.79
468.038	19676.71
468.244	19074.61
468.449	19998.24
468.654	19209.78
468.859	18933.3
469.064	18837.05
469.269	18024
469.474	18196.03
469.679	18703.93
469.885	18034.24
470.09	18286.14
470.295	18175.55
470.5	17937.99
470.705	17843.78
470.91	17714.76
471.115	17198.67
471.32	17837.64
471.525	17581.64
471.73	17040.98
471.935	17051.22
472.139	16471.64
472.344	16506.46
472.549	16713.3
472.754	16322.14
472.959	16103.01
473.164	15758.95
473.369	15603.3
473.574	16008.8
473.778	15832.68
473.983	15611.5
474.188	15496.81
474.393	14995.06
474.598	14868.08
474.802	14843.51
475.007	14599.8
475.212	14784.12
475.417	14159.49
475.621	14284.41
475.826	14325.37
476.031	13862.53
476.235	13606.53
476.44	13901.44
476.645	13512.33
476.849	13559.43
477.054	13336.2
477.259	13420.17
477.463	13252.24
477.668	12727.96
477.872	13055.63
478.077	12877.46
478.282	12648.08
478.486	12625.56
478.691	12428.95
478.895	12351.13
479.1	12277.4
479.304	12269.21
479.509	12172.96
479.713	12125.85
479.918	11941.54
480.122	11712.16
480.326	11730.59
480.531	11794.08
480.735	11622.05
480.94	11497.13
481.144	11986.59
481.348	11443.88
481.553	11568.8
481.757	11450.02
481.961	11439.78
482.166	11560.61
482.37	11568.8
482.574	11425.45
482.778	11486.89
482.983	11572.9
483.187	11452.07
483.391	11464.36
483.595	11237.03
483.8	11419.3
484.004	11638.44
484.208	11325.1
484.412	11447.97
484.616	11329.19
484.821	11388.58
485.025	11024.05
485.229	11364.01
485.433	11206.31
485.637	11349.67
485.841	11251.37
486.045	11277.99
486.249	11241.13
486.453	11175.59
486.657	11425.45
486.861	11443.88
487.065	11022
487.269	11314.86
487.473	11077.29
487.677	11318.95
487.881	11394.73
488.085	11306.66
488.289	11333.29
488.493	11318.95
488.697	11470.5
488.901	11501.22
489.105	11321
489.309	11464.36
489.512	11558.56
489.716	11458.21
489.92	11400.87
490.124	11458.21
490.328	11687.59
490.531	11447.97
490.735	11630.24
490.939	11654.82
491.143	11626.15
491.346	11554.47
491.55	11769.51
491.754	11675.3
491.958	11923.1
492.161	11968.16
492.365	11914.91
492.569	11906.72
492.772	11816.61
492.976	12039.84
493.18	11951.77
493.383	12320.41
493.587	12365.46
493.79	12299.93
493.994	12070.56
494.197	12433.05
494.401	12451.48
494.605	12416.66
494.808	12912.27
495.012	12756.63
495.215	12777.11
495.419	12969.62
495.622	12863.12
495.825	13074.06
496.029	13065.87
496.232	13409.93
496.436	13235.85
496.639	13678.21
496.843	13545.09
497.046	13807.23
497.249	13846.15
497.453	13952.64
497.656	13997.7
497.859	14018.18
498.063	14345.85
498.266	14483.06
498.469	14556.79
498.673	14655.09
498.876	14931.57
499.079	15050.35
499.282	15081.07
499.485	15490.66
499.689	15267.44
499.892	15687.27
500.095	15812.2
500.298	16080.48
500.501	15910.5
500.705	16447.07
500.908	16625.24
501.111	16879.19
501.314	16823.89
501.517	17129.04
501.72	17258.06
501.923	17108.56
502.126	17575.5
502.329	17897.03
502.532	17901.12
502.735	18105.92
502.938	18374.2
503.141	18511.42
503.344	18791.99
503.547	18810.42
503.75	18980.4
503.953	19226.16
504.156	19230.26
504.359	19656.23
504.562	19672.62
504.765	20209.18
504.968	20344.35
505.17	20270.62
505.373	20444.7
505.576	20786.71
505.779	21083.67
505.982	21356.05
506.185	21636.62
506.387	21663.24
506.59	21956.1
506.793	22291.97
506.996	22076.93
507.198	22672.89
507.401	22500.86
507.604	22928.89
507.807	23365.1
508.009	23475.7
508.212	23979.5
508.415	24194.53
508.617	24387.04
508.82	24430.05
509.022	24038.89
509.225	25142.74
509.428	25345.49
509.63	25490.9
509.833	25472.46
510.035	25980.36
510.238	26095.05
510.44	26242.5
510.643	26734.01
510.845	26992.06
511.048	26736.06
511.25	27409.84
511.453	27278.77
511.655	28360.1
511.858	27829.68
512.06	28372.39
512.262	28595.62
512.465	28695.97
512.667	29232.54
512.87	29246.87
513.072	29296.02
513.274	30127.5
513.477	30150.03
513.679	30344.58
513.881	30782.85
514.084	30903.68
514.286	30592.39
514.488	30899.58
514.69	32116.08
514.893	32134.51
515.095	32179.56
515.297	32310.63
515.499	32173.42
515.701	33092.96
515.904	33045.85
516.106	33408.34
516.308	33643.86
516.51	34184.52
516.712	34395.46
516.914	34714.95
517.116	34940.22
517.318	34790.72
517.52	35503.42
517.722	35532.09
517.925	36099.37
518.127	36281.64
518.329	36476.2
518.531	36556.07
518.733	36990.24
518.935	37600.54
519.136	37512.47
519.338	38057.23
519.54	37975.31
519.742	38286.61
519.944	38472.97
520.146	39030.02
520.348	39601.4
520.55	39337.21
520.752	39730.42
520.954	40256.75
521.155	39812.34
521.357	40574.19
521.559	40957.16
521.761	41159.91
521.963	41401.57
522.164	41766.1
522.366	41956.57
522.568	42665.16
522.77	41993.43
522.971	42519.76
523.173	42675.4
523.375	43246.79
523.576	43322.56
523.778	43027.65
523.98	43977.91
524.181	44037.3
524.383	43859.13
524.584	44522.67
524.786	44539.05
524.988	44586.16
525.189	44438.7
525.391	45233.32
525.592	45421.73
525.794	45524.13
525.995	45751.45
526.197	45798.55
526.398	45604
526.6	46544.02
526.801	46216.34
527.003	46828.68
527.204	46095.51
527.406	46693.52
527.607	47056.01
527.808	47244.42
528.01	46619.79
528.211	46951.56
528.412	47719.55
528.614	47774.84
528.815	47658.11
529.016	48389.23
529.218	47486.08
529.419	47832.19
529.62	48112.76
529.822	47944.83
530.023	48159.86
530.224	47973.5
530.425	48057.46
530.626	47961.21
530.828	48053.37
531.029	48987.24
531.23	48123
531.431	48221.3
531.632	48462.96
531.833	48483.44
532.035	48536.69
532.236	48827.5
532.437	48940.14
532.638	48671.85
532.839	48782.44
533.04	48925.8
533.241	48430.19
533.442	49427.56
533.643	49034.35
533.844	48815.21
534.045	49214.57
534.246	48555.12
534.447	49820.77
534.648	49060.97
534.849	49192.04
535.05	48804.97
535.251	48987.24
535.451	48766.06
535.652	49452.13
535.853	49056.87
536.054	49185.89
536.255	49431.65
536.456	48643.18
536.657	49751.13
536.857	49159.27
537.058	48747.63
537.259	49423.46
537.46	49644.64
537.66	49228.9
537.861	49140.84
538.062	49163.37
538.263	49116.26
538.463	49124.46
538.664	49097.83
538.865	49362.02
539.065	49220.71
539.266	48938.09
539.466	49513.57
539.667	48503.92
539.868	49728.61
540.068	48893.04
540.269	48905.32
540.469	49452.13
540.67	48712.81
540.87	48989.29
541.071	49058.92
541.271	49044.58
541.472	49216.61
541.672	49280.1
541.873	49140.84
542.073	48188.53
542.274	49491.04
542.474	48548.98
542.675	48634.99
542.875	49359.97
543.075	48739.44
543.276	48680.05
543.476	49159.27
543.676	48567.41
543.877	48602.22
544.077	48561.26
544.277	48503.92
544.478	49142.89
544.678	48878.7
544.878	48852.08
545.078	48888.94
545.279	48608.37
545.479	48880.75
545.679	48817.26
545.879	48694.38
546.079	48921.71
546.28	48690.29
546.48	48409.71
546.68	48950.38
546.88	48890.99
547.08	48581.74
547.28	48696.43
547.48	48485.49
547.68	48317.56
547.88	48249.97
548.081	48936.04
548.281	48348.28
548.481	48254.07
548.681	48829.55
548.881	48401.52
549.081	48364.66
549.28	48501.87
549.48	48518.26
549.68	48395.38
549.88	49280.1
550.08	47746.17
550.28	48589.94
550.48	48266.36
550.68	48106.62
550.88	48059.51
551.08	47959.16
551.279	48370.8
551.479	48020.6
551.679	47983.74
551.879	47914.11
552.079	48223.35
552.278	47938.68
552.478	48043.13
552.678	48311.41
552.878	48155.77
553.077	47795.32
553.277	47611.01
553.477	48536.69
553.676	47918.2
553.876	47729.79
554.076	47877.24
554.275	48063.61
554.475	47445.12
554.674	47881.34
554.874	48149.62
555.074	47551.62
555.273	47619.2
555.473	48108.66
555.672	47621.25
555.872	47410.31
556.071	47463.55
556.271	47832.19
556.47	47307.91
556.67	46943.37
556.869	47031.43
557.068	47461.51
557.268	47135.88
557.467	47406.21
557.667	47019.14
557.866	47133.83
558.065	46933.13
558.265	46855.31
558.464	46701.71
558.663	47301.76
558.863	46584.97
559.062	47240.32
559.261	46599.31
559.461	46908.55
559.66	46169.24
559.859	46470.29
560.058	46038.17
560.258	46427.28
560.457	45839.51
560.656	46423.18
560.855	46421.14
561.054	46314.64
561.253	46042.26
561.453	45853.85
561.652	46132.37
561.851	46552.21
562.05	45843.61
562.249	45864.09
562.448	46218.39
562.647	45628.57
562.846	45491.36
563.045	46017.69
563.244	44944.55
563.443	45677.72
563.642	44977.32
563.841	44940.46
564.04	45261.99
564.239	45290.66
564.438	44903.59
564.637	45198.5
564.836	44858.54
565.035	44749.99
565.234	44901.54
565.432	44754.09
565.631	44471.47
565.83	44616.88
566.029	44514.48
566.228	44319.92
566.427	44446.9
566.625	43855.03
566.824	43809.98
567.023	44324.02
567.222	43394.24
567.42	44059.83
567.619	44113.08
567.818	43353.28
568.016	43627.71
568.215	43711.67
568.414	43662.52
568.612	44059.83
568.811	43498.69
569.01	43723.96
569.208	43021.51
569.407	43306.18
569.605	42759.37
569.804	43898.04
570.002	42761.42
570.201	42937.54
570.4	42769.61
570.598	42183.89
570.797	42230.99
570.995	42642.63
571.193	41843.93
571.392	42702.03
571.59	42538.19
571.789	42179.79
571.987	41755.86
572.186	42097.87
572.384	41835.73
572.582	41798.87
572.781	41798.87
572.979	41301.22
573.177	41719
573.376	41739.48
573.574	40951.01
573.772	41522.4
573.971	41051.36
574.169	40441.07
574.367	40611.05
574.565	40791.27
574.763	40897.77
574.962	40502.51
575.16	40266.99
575.358	40658.15
575.556	40148.21
575.754	40926.44
575.952	39941.36
576.151	40449.26
576.349	39519.48
576.547	39912.69
576.745	39554.3
576.943	40125.68
577.141	39634.17
577.339	39808.25
577.537	39802.1
577.735	39812.34
577.933	38929.67
578.131	39380.22
578.329	39226.62
578.527	39185.66
578.725	39001.35
578.923	39300.35
579.121	38452.49
579.319	38735.11
579.516	38870.28
579.714	39034.11
579.912	38829.32
580.11	38487.31
580.308	38370.57
580.506	38053.14
580.704	37774.61
580.901	38104.34
581.099	38114.58
581.297	37764.37
581.495	37686.55
581.692	38130.96
581.89	37289.24
582.088	37594.39
582.285	37485.85
582.483	37539.1
582.681	37348.64
582.878	37164.32
583.076	36687.14
583.274	37254.43
583.471	36662.57
583.669	36627.75
583.866	36425
584.064	36779.3
584.262	36343.08
584.459	36943.14
584.657	36490.54
584.854	36318.51
585.052	35964.21
585.249	36031.79
585.447	36261.16
585.644	35849.52
585.841	36183.34
586.039	36017.46
586.236	35411.26
586.434	35310.91
586.631	35142.97
586.828	35525.94
587.026	35116.35
587.223	35349.82
587.42	34807.11
587.618	34671.94
587.815	34923.84
588.012	34577.73
588.21	34485.58
588.407	35009.86
588.604	34731.33
588.801	34372.94
588.999	34352.46
589.196	34213.2
589.393	34258.25
589.59	34526.53
589.787	33906
589.984	33961.3
590.182	33443.16
590.379	33881.42
590.576	33342.81
590.773	33629.52
590.97	33566.04
591.167	33510.74
591.364	33008.99
591.561	33148.25
591.758	32931.17
591.955	33090.91
592.152	33207.64
592.349	33064.28
592.546	32927.07
592.743	32640.36
592.94	32376.17
593.137	32550.24
593.334	32564.58
593.531	32167.27
593.727	32527.72
593.924	32253.29
594.121	31837.55
594.318	31980.91
594.515	31569.27
594.712	31954.29
594.908	31616.37
595.105	31806.83
595.302	31253.88
595.499	31417.72
595.696	31098.23
595.892	31004.03
596.089	31126.91
596.286	31210.87
596.482	31063.42
596.679	30993.79
596.876	30930.3
597.072	30733.7
597.269	30866.81
597.466	30453.12
597.662	30277
597.859	30692.74
598.055	30606.72
598.252	30340.49
598.448	29990.28
598.645	30166.41
598.841	29926.8
599.038	30156.17
599.234	30070.15
599.431	29595.03
599.627	29445.52
599.824	29799.82
600.02	29410.71
600.217	29472.15
600.413	29123.99
600.609	29255.06
600.806	29240.73
601.002	29486.48
601.198	28573.09
601.395	28816.8
601.591	28970.4
601.787	28710.3
601.984	28540.32
602.18	28673.44
602.376	28603.81
602.572	28263.85
602.769	28476.83
602.965	27796.91
603.161	28126.63
603.357	27712.94
603.553	27692.46
603.75	28343.72
603.946	27559.34
604.142	27993.51
604.338	27364.79
604.534	27616.69
604.73	27098.55
604.926	27190.71
605.122	27413.94
605.318	27356.6
605.514	26881.47
605.71	26951.1
605.906	26912.19
606.102	26957.24
606.298	27084.22
606.494	26908.09
606.69	27088.31
606.886	27178.42
607.082	26353.09
607.278	26664.38
607.474	26430.91
607.67	26410.43
607.866	26267.08
608.062	26449.35
608.257	26277.32
608.453	26109.38
608.649	26109.38
608.845	25994.7
609.041	26056.14
609.236	26037.7
609.432	26080.71
609.628	25771.47
609.824	25884.11
610.019	25675.21
610.215	25880.01
610.411	25920.97
610.606	25644.49
610.802	25603.53
610.998	25642.45
611.193	25744.84
611.389	25642.45
611.584	25472.46
611.78	25456.08
611.976	25671.12
612.171	25046.49
612.367	25128.41
612.562	24843.74
612.758	24907.23
612.953	24929.75
613.149	25095.64
613.344	24976.86
613.539	24939.99
613.735	24772.06
613.93	24872.41
614.126	24708.57
614.321	25019.86
614.517	24829.4
614.712	24776.16
614.907	24403.42
615.103	24806.87
615.298	24352.23
615.493	24698.33
615.688	24665.56
615.884	24747.48
616.079	24208.87
616.274	24108.52
616.47	24053.22
616.665	24346.08
616.86	24389.09
617.055	24497.63
617.25	24057.32
617.445	24210.92
617.641	23965.16
617.836	24008.17
618.031	23569.9
618.226	24006.12
618.421	23860.71
618.616	23793.13
618.811	23526.89
619.006	23444.98
619.201	23379.44
619.396	23653.87
619.591	23289.33
619.786	23334.39
619.981	22539.77
620.176	23162.36
620.371	23000.57
620.566	22769.15
620.761	22687.23
620.956	22887.93
621.151	22654.46
621.346	22443.52
621.541	22171.14
621.735	22513.15
621.93	21941.77
622.125	21904.9
622.32	21851.66
622.515	22298.11
622.709	21480.97
622.904	21761.55
623.099	21513.74
623.294	21329.42
623.488	21141.01
623.683	21536.27
623.878	20954.65
624.072	20962.84
624.267	21026.32
624.462	20622.87
624.656	20508.19
624.851	20862.49
625.046	20186.66
625.24	20413.98
625.435	20168.23
625.629	20086.31
625.824	20000.29
626.018	20125.22
626.213	19748.39
626.407	19551.79
626.602	19613.23
626.796	19658.28
626.991	19254.83
627.185	19191.34
627.38	19158.58
627.574	19291.69
627.768	18943.54
627.963	19093.04
628.157	18546.23
628.352	18904.63
628.546	18628.15
628.74	18560.57
628.935	18163.26
629.129	18290.24
629.323	18007.62
629.517	18183.74
629.712	18234.94
629.906	17823.3
630.1	17585.74
630.294	17718.85
630.489	17448.52
630.683	17684.04
630.877	17223.25
631.071	17213.01
631.265	17509.96
631.459	17137.23
631.653	17079.89
631.848	16952.91
632.042	16846.42
632.236	16963.15
632.43	16879.19
632.624	16475.74
632.818	16512.6
633.012	16389.72
633.206	16172.64
633.4	16137.82
633.594	16086.62
633.788	16131.68
633.982	16272.99
634.176	15922.79
634.369	15871.59
634.563	15783.52
634.757	15578.73
634.951	15787.62
635.145	15609.45
635.339	15623.78
635.533	15281.77
635.726	15185.52
635.92	15183.47
636.114	15099.5
636.308	15070.83
636.501	15232.62
636.695	14663.29
636.889	15150.7
637.083	14853.75
637.276	14802.55
637.47	14624.37
637.664	14587.51
637.857	14470.78
638.051	14487.16
638.244	14333.56
638.438	14347.9
638.632	14265.98
638.825	14024.32
639.019	14001.79
639.212	14102.14
639.406	13868.67
639.599	13768.32
639.793	13864.58
639.986	13794.95
640.18	13643.4
640.373	13559.43
640.567	13039.25
640.76	13477.51
640.954	13149.84
641.147	13106.83
641.34	13086.35
641.534	13170.32
641.727	13096.59
641.92	13031.05
642.114	12816.02
642.307	12879.5
642.5	12959.38
642.694	12615.32
642.887	12551.83
643.08	12732.05
643.273	12478.1
643.467	12480.15
643.66	12385.94
643.853	12166.81
644.046	12265.11
644.239	12316.31
644.432	12181.15
644.626	12007.07
644.819	11849.38
645.012	12121.76
645.205	12011.17
645.398	11970.21
645.591	11900.58
645.784	11622.05
645.977	11560.61
646.17	11638.44
646.363	11577
646.556	11392.68
646.749	11368.1
646.942	11450.02
647.135	11296.42
647.328	11230.89
647.521	11101.87
647.714	11183.79
647.907	10884.78
648.099	11019.95
648.292	10981.04
648.485	10837.68
648.678	10907.31
648.871	10880.69
649.064	10528.44
649.256	10690.23
649.449	10585.78
649.642	10567.35
649.835	10553.01
650.027	10481.33
650.22	10458.81
650.413	10303.16
650.605	10172.09
650.798	10317.5
650.991	10204.86
651.183	10200.76
651.376	10067.64
651.568	10131.13
651.761	9754.3
651.954	10090.17
652.146	9924.29
652.339	9957.05
652.531	9868.99
652.724	9608.9
652.916	9819.84
653.109	9643.71
653.301	9647.81
653.494	9688.77
653.686	9436.87
653.879	9428.68
654.071	9393.86
654.263	9246.41
654.456	9359.05
654.648	9465.54
654.84	9166.54
655.033	9287.37
655.225	9131.72
655.417	9064.14
655.61	9033.42
655.802	8926.93
655.994	8793.81
656.186	8980.17
656.379	8832.72
656.571	8746.7
656.763	8707.79
656.955	8720.08
657.148	8632.02
657.34	8634.07
657.532	8546
657.724	8629.97
657.916	8369.88
658.108	8251.1
658.3	8462.04
658.492	8324.82
658.684	8281.81
658.876	8361.69
659.068	8079.07
659.26	8171.22
659.452	8290.01
659.644	8218.33
659.836	7986.91
660.028	8089.31
660.22	7925.47
660.412	7827.17
660.604	7882.46
660.796	7786.21
660.988	7868.13
661.18	7745.25
661.372	7708.38
661.563	7823.07
661.755	7681.76
661.947	7622.37
662.139	7628.51
662.331	7452.39
662.522	7472.87
662.714	7343.85
662.906	7374.56
663.097	7423.72
663.289	7411.43
663.481	7362.28
663.673	7442.15
663.864	7208.68
664.056	7298.79
664.247	7161.58
664.439	7065.32
664.631	7294.69
664.822	6958.83
665.014	6962.92
665.205	7096.04
665.397	6807.28
665.588	6971.11
665.78	6872.81
665.971	6862.57
666.163	6979.31
666.354	6758.13
666.546	6663.92
666.737	6766.32
666.929	6557.43
667.12	6891.24
667.311	6622.96
667.503	6692.59
667.694	6582
667.885	6543.09
668.077	6352.63
668.268	6446.83
668.459	6405.88
668.651	6422.26
668.842	6432.5
669.033	6291.19
669.224	6373.11
669.416	6305.53
669.607	6162.17
669.798	6098.68
669.989	6235.89
670.18	6178.55
670.371	6051.58
670.563	6121.21
670.754	6194.93
670.945	6047.48
671.136	6063.86
671.327	5957.37
671.518	6217.46
671.709	6164.22
671.9	6012.67
672.091	5996.28
672.282	5975.8
672.473	5883.64
672.664	5955.32
672.855	5848.83
673.046	5631.74
673.237	6047.48
673.428	5627.65
673.619	5777.15
673.809	5611.26
674	5607.17
674.191	5779.2
674.382	5517.06
674.573	5492.48
674.764	5578.5
674.954	5564.16
675.145	5529.34
675.336	5478.15
675.527	5560.06
675.717	5517.06
675.908	5388.04
676.099	5529.34
676.289	5469.95
676.48	5562.11
676.671	5422.85
676.861	5299.97
677.052	5322.5
677.243	5297.92
677.433	5312.26
677.624	5267.2
677.814	5267.2
678.005	5138.18
678.195	5308.16
678.386	5244.68
678.576	5166.85
678.767	5066.5
678.957	5076.74
679.148	5236.49
679.338	5115.66
679.529	5084.94
679.719	5041.93
679.909	5025.54
680.1	5111.56
680.29	5019.4
680.481	4966.15
680.671	4921.1
680.861	5027.59
681.052	5084.94
681.242	4853.52
681.432	4927.24
681.622	4992.78
681.813	4822.8
682.003	4810.51
682.193	4757.26
682.383	4945.67
682.573	4927.24
682.764	4798.22
682.954	4861.71
683.144	4826.89
683.334	4704.01
683.524	4759.31
683.714	4761.36
683.904	4689.68
684.094	4880.14
684.284	4687.63
684.474	4744.97
684.664	4806.41
684.854	4593.42
685.044	4712.21
685.234	4570.9
685.424	4595.47
685.614	4560.66
685.804	4458.26
685.994	4618
686.184	4521.74
686.374	4577.04
686.564	4550.42
686.753	4359.95
686.943	4460.31
687.133	4339.48
687.323	4374.29
687.513	4378.39
687.702	4456.21
687.892	4255.51
688.082	4271.89
688.272	4167.45
688.461	4275.99
688.651	4208.41
688.841	4251.41
689.03	4257.56
689.22	4267.8
689.41	4198.17
689.599	4132.63
689.789	4224.79
689.979	3958.55
690.168	4218.64
690.358	4163.35
690.547	4097.81
690.737	3995.42
690.926	4224.79
691.116	3860.25
691.305	3958.55
691.495	4001.56
691.684	3868.44
691.874	4030.23
692.063	3864.35
692.252	3831.58
692.442	3737.37
692.631	3809.05
692.82	3823.39
693.01	3704.6
693.199	3890.97
693.388	3659.55
693.578	3825.43
693.767	3761.95
693.956	3712.8
694.146	3723.04
694.335	3559.2
694.524	3575.58
694.713	3833.63
694.902	3712.8
695.092	3696.41
695.281	3807
695.47	3690.27
695.659	3602.21
695.848	3602.21
696.037	3628.83
696.226	3501.86
696.415	3469.09
696.604	3532.58
696.793	3616.54
696.982	3497.76
697.171	3655.45
697.36	3438.37
697.549	3479.33
697.738	3419.94
697.927	3487.52
698.116	3417.89
698.305	3497.76
698.494	3295.01
698.683	3518.24
698.872	3338.02
699.061	3376.93
699.25	3368.74
699.438	3438.37
699.627	3452.7
699.816	3405.6
700.005	3385.12
700.193	3389.22
700.382	3325.73
700.571	3362.59
700.76	3317.54
700.948	3389.22
701.137	3235.62
701.326	3350.31
701.514	3366.69
701.703	3393.31
701.892	3356.45
702.08	3319.59
702.269	3194.66
702.457	3190.56
702.646	3252
702.834	3254.05
703.023	3227.43
703.212	3147.56
703.4	3276.58
703.589	3237.67
703.777	3108.65
703.965	3243.81
704.154	3155.75
704.342	3192.61
704.531	3268.39
704.719	3010.34
704.907	3243.81
705.096	3092.26
705.284	3139.37
705.472	3200.8
705.661	3145.51
705.849	3243.81
706.037	3286.82
706.226	3098.41
706.414	3020.58
706.602	3180.32
706.79	3106.6
706.979	2996.01
707.167	2987.82
707.355	3024.68
707.543	3122.98
707.731	3139.37
707.919	3104.55
708.107	3182.37
708.296	3141.41
708.484	3018.54
708.672	3024.68
708.86	3030.82
709.048	3133.22
709.236	3075.88
709.424	3133.22
709.612	2940.71
709.8	3088.17
709.988	2973.48
710.176	3071.78
710.364	3061.54
710.551	3098.41
710.739	3168.04
710.927	2920.23
711.115	3008.3
711.303	2881.32
711.491	2981.67
711.679	2967.34
711.866	2996.01
712.054	3053.35
712.242	2944.81
712.43	3094.31
712.617	2967.34
712.805	2965.29
712.993	3024.68
713.181	2957.1
713.368	2950.95
713.556	3036.97
713.744	2852.65
713.931	3022.63
714.119	2973.48
714.306	2920.23
714.494	3000.1
714.682	2930.47
714.869	2887.47
715.057	2889.51
715.244	2883.37
715.432	2940.71
715.619	2860.84
715.807	3086.12
715.994	2957.1
716.182	3016.49
716.369	2826.03
716.556	2998.06
716.744	2879.27
716.931	2897.71
717.119	2928.42
717.306	2887.47
717.493	3004.2
717.681	2858.79
717.868	2975.53
718.055	2953
718.242	2815.79
718.43	2875.18
718.617	2858.79
718.804	2795.31
718.991	2938.66
719.179	2899.75
719.366	2797.35
719.553	2866.99
719.74	2850.6
719.927	3071.78
720.114	2797.35
720.301	2758.44
720.488	2813.74
720.676	2791.21
720.863	2879.27
721.05	2791.21
721.237	2869.03
721.424	2893.61
721.611	2977.58
721.798	2809.64
721.985	2928.42
722.172	2830.12
722.358	2871.08
722.545	2844.46
722.732	2897.71
722.919	2950.95
723.106	2854.7
723.293	2801.45
723.48	2819.88
723.667	2844.46
723.853	2795.31
724.04	2780.97
724.227	2830.12
724.414	2791.21
724.6	2848.55
724.787	2848.55
724.974	2797.35
725.161	2852.65
725.347	2881.32
725.534	2856.75
725.72	2826.03
725.907	2848.55
726.094	2823.98
726.28	2809.64
726.467	2907.94
726.653	2866.99
726.84	2877.23
727.027	2912.04
727.213	2924.33
727.4	2838.31
727.586	2948.9
727.773	2834.22
727.959	2795.31
728.145	2797.35
728.332	2729.77
728.518	2799.4
728.705	2772.78
728.891	2834.22
729.077	2842.41
729.264	2744.11
729.45	2821.93
729.636	2828.07
729.823	2807.59
730.009	2909.99
730.195	2860.84
730.382	2877.23
730.568	2791.21
730.754	2819.88
730.94	2889.51
731.126	2801.45
731.313	2838.31
731.499	2877.23
731.685	2735.92
731.871	2828.07
732.057	2948.9
732.243	2924.33
732.429	2805.55
732.615	2866.99
732.801	2893.61
732.987	2893.61
733.173	2795.31
733.359	2836.27
733.545	2785.07
733.731	2791.21
733.917	2817.83
734.103	2783.02
734.289	2891.56
734.475	2852.65
734.661	2823.98
734.847	2864.94
735.033	2807.59
735.219	2789.16
735.404	2846.51
735.59	2783.02
735.776	2821.93
735.962	2754.35
736.148	2928.42
736.333	2697
736.519	2883.37
736.705	2735.92
736.89	2768.68
737.076	2785.07
737.262	2746.16
737.447	2834.22
737.633	2791.21
737.819	2787.11
738.004	2770.73
738.19	2758.44
738.375	2889.51
738.561	2776.87
738.747	2719.53
738.932	2654
739.118	2858.79
739.303	2735.92
739.489	2746.16
739.674	2672.43
739.859	2610.99
740.045	2697
740.23	2604.85
740.416	2643.76
740.601	2789.16
740.786	2699.05
740.972	2680.62
741.157	2621.23
741.342	2557.74
741.528	2631.47
741.713	2748.2
741.898	2619.18
742.084	2584.37
742.269	2537.26
742.454	2631.47
742.639	2647.85
742.824	2594.61
743.01	2600.75
743.195	2584.37
743.38	2541.36
743.565	2578.22
743.75	2602.8
743.935	2643.76
744.12	2563.89
744.305	2535.21
744.49	2441.01
744.675	2436.91
744.86	2481.97
745.045	2438.96
745.23	2514.73
745.415	2365.23
745.6	2524.97
745.785	2490.16
745.97	2533.17
746.155	2449.2
746.34	2465.58
746.525	2354.99
746.71	2354.99
746.895	2371.38
747.079	2469.68
747.264	2316.08
747.449	2395.95
747.634	2336.56
747.819	2455.34
748.003	2238.26
748.188	2336.56
748.373	2168.63
748.557	2281.27
748.742	2180.92
748.927	2264.88
749.111	2268.98
749.296	2125.62
749.481	2127.67
749.665	2080.57
749.85	2180.92
750.034	2180.92
750.219	2244.4
750.404	2131.76
750.588	2268.98
750.773	2031.41
750.957	2131.76
751.141	2084.66
751.326	2047.8
751.51	2125.62
751.695	2012.98
751.879	1886.01
752.064	2078.52
752.248	2035.51
752.432	1998.65
752.617	1990.45
752.801	2076.47
752.985	1963.83
753.17	1849.15
753.354	1832.76
753.538	2029.37
753.722	1838.91
753.907	1855.29
754.091	1742.65
754.275	1906.49
754.459	1877.82
754.643	1720.12
754.828	1777.47
755.012	1746.75
755.196	1810.23
755.38	1763.13
755.564	1724.22
755.748	1705.79
755.932	1822.52
756.116	1716.03
756.3	1763.13
756.484	1703.74
756.668	1709.88
756.852	1746.75
757.036	1716.03
757.22	1697.6
757.404	1615.68
757.588	1625.92
757.772	1531.71
757.956	1664.83
758.14	1689.4
758.323	1636.16
758.507	1605.44
758.691	1494.85
758.875	1572.67
759.059	1517.37
759.242	1486.65
759.426	1576.77
759.61	1492.8
759.794	1531.71
759.977	1584.96
760.161	1511.23
760.345	1544
760.528	1505.09
760.712	1410.88
760.895	1478.46
761.079	1433.41
761.263	1474.37
761.446	1462.08
761.63	1486.65
761.813	1464.13
761.997	1367.87
762.18	1408.83
762.364	1455.94
762.547	1437.5
762.731	1431.36
762.914	1414.98
763.098	1437.5
763.281	1265.47
763.464	1365.82
763.648	1386.3
763.831	1345.34
764.015	1333.06
764.198	1460.03
764.381	1394.5
764.564	1388.35
764.748	1328.96
764.931	1355.58
765.114	1263.43
765.297	1374.02
765.481	1320.77
765.664	1345.34
765.847	1331.01
766.03	1367.87
766.213	1216.32
766.397	1257.28
766.58	1290.05
766.763	1326.91
766.946	1232.71
767.129	1281.86
767.312	1220.42
767.495	1232.71
767.678	1247.04
767.861	1296.19
768.044	1199.94
768.227	1277.76
768.41	1199.94
768.593	1191.75
768.776	1238.85
768.959	1118.02
769.142	1134.4
769.324	1152.84
769.507	1185.6
769.69	1126.21
769.873	1105.73
770.056	1161.03
770.239	1193.8
770.421	1089.35
770.604	1079.11
770.787	1029.96
770.97	1095.49
771.152	1093.44
771.335	1140.55
771.518	1175.36
771.7	1050.44
771.883	1134.4
772.066	1072.96
772.248	1009.48
772.431	1083.2
772.613	1007.43
772.796	1009.48
772.978	1032.01
773.161	982.85
773.343	1052.49
773.526	1099.59
773.708	978.76
773.891	923.46
774.073	954.18
774.256	995.14
774.438	933.7
774.621	931.66
774.803	984.9
774.985	935.75
775.168	939.85
775.35	935.75
775.532	989
775.715	984.9
775.897	989
776.079	853.83
776.261	982.85
776.444	915.27
776.626	862.02
776.808	786.25
776.99	841.54
777.173	866.12
777.355	866.12
777.537	837.45
777.719	859.98
777.901	790.35
778.083	866.12
778.265	841.54
778.447	827.21
778.629	829.26
778.811	788.3
778.993	827.21
779.175	806.73
779.357	862.02
779.539	759.63
779.721	798.54
779.903	773.96
780.085	753.48
780.267	796.49
780.449	722.76
780.631	755.53
780.812	765.77
780.994	786.25
781.176	726.86
781.358	708.43
781.54	784.2
781.721	718.67
781.903	708.43
782.085	657.23
782.267	718.67
782.448	669.52
782.63	683.85
782.812	671.56
782.993	677.71
783.175	708.43
783.357	663.37
783.538	632.65
783.72	636.75
783.901	653.13
784.083	683.85
784.264	661.32
784.446	626.51
784.627	626.51
784.809	589.64
784.99	585.55
785.172	577.36
785.353	477.01
785.535	597.84
785.716	493.39
785.897	610.12
786.079	526.16
786.26	554.83
786.441	573.26
786.623	552.78
786.804	509.77
786.985	554.83
787.167	546.64
787.348	470.86
787.529	526.16
787.71	538.45
787.891	534.35
788.073	499.53
788.254	524.11
788.435	608.08
788.616	505.68
788.797	507.73
788.978	532.3
789.159	528.21
789.34	446.29
789.522	485.2
789.703	509.77
789.884	565.07
790.065	427.85
790.246	474.96
790.427	560.97
790.607	577.36
790.788	419.66
790.969	499.53
791.15	495.44
791.331	479.05
791.512	431.95
791.693	444.24
791.874	450.38
792.054	470.86
792.235	485.2
792.416	511.82
792.597	380.75
792.778	464.72
792.958	399.18
793.139	448.33
793.32	411.47
793.5	358.22
793.681	446.29
793.862	434
794.042	405.33
794.223	354.13
794.404	386.9
794.584	358.22
794.765	421.71
794.945	350.03
795.126	434
795.306	454.48
795.487	450.38
795.667	397.14
795.848	368.46
796.028	319.31
796.209	333.65
796.389	356.18
796.57	401.23
796.75	331.6
796.93	325.46
797.111	329.55
797.291	333.65
797.471	319.31
797.652	288.59
797.832	368.46
798.012	327.5
798.192	200.53
798.373	274.26
798.553	327.5
798.733	347.98
798.913	325.46
799.093	343.89
799.274	288.59
799.454	427.85
799.634	319.31
799.814	345.94
799.994	259.92
800.174	390.99
800.354	331.6
800.534	300.88
800.714	311.12
800.894	261.97
801.074	288.59
801.254	274.26
801.434	284.5
801.614	233.3
801.794	282.45
801.974	673.61
802.154	216.91
802.334	313.17
802.514	276.31
802.693	288.59
802.873	255.83
803.053	323.41
803.233	347.98
803.413	251.73
803.592	286.54
803.772	216.91
803.952	251.73
804.131	237.39
804.311	255.83
804.491	272.21
804.67	274.26
804.85	243.54
805.03	243.54
805.209	317.26
805.389	237.39
805.568	249.68
805.748	229.2
805.928	223.06
806.107	231.25
806.287	227.15
806.466	276.31
806.646	259.92
806.825	272.21
807.004	137.04
807.184	227.15
807.363	304.98
807.543	257.87
807.722	243.54
807.901	278.35
808.081	229.2
808.26	251.73
808.439	382.8
808.619	202.58
808.798	208.72
808.977	229.2
809.156	247.63
809.336	221.01
809.515	188.24
809.694	218.96
809.873	180.05
810.052	227.15
810.231	204.63
810.411	259.92
810.59	247.63
810.769	208.72
810.948	182.1
811.127	137.04
811.306	216.91
811.485	206.67
811.664	266.07
811.843	178
812.022	227.15
812.201	124.76
812.38	132.95
812.559	165.71
812.737	231.25
812.916	210.77
813.095	227.15
813.274	221.01
813.453	253.78
813.632	169.81
813.811	149.33
813.989	118.61
814.168	175.95
814.347	126.8
814.526	135
814.704	233.3
814.883	155.47
815.062	128.85
815.24	221.01
815.419	221.01
815.598	186.19
815.776	114.52
815.955	202.58
816.133	135
816.312	266.07
816.49	202.58
816.669	184.15
816.847	116.56
817.026	186.19
817.204	128.85
817.383	186.19
817.561	120.66
817.74	114.52
817.918	245.59
818.097	143.19
818.275	198.48
818.453	161.62
818.632	180.05
818.81	108.37
818.988	110.42
819.167	139.09
819.345	130.9
819.523	137.04
819.701	161.62
819.879	251.73
820.058	188.24
820.236	151.38
820.414	120.66
820.592	106.32
820.77	124.76
820.948	110.42
821.127	122.71
821.305	104.28
821.483	89.94
821.661	155.47
821.839	171.86
822.017	132.95
822.195	171.86
822.373	175.95
822.551	128.85
822.729	143.19
822.907	137.04
823.085	143.19
823.262	104.28
823.44	143.19
823.618	169.81
823.796	163.67
823.974	120.66
824.152	122.71
824.329	108.37
824.507	122.71
824.685	118.61
824.863	36.69
825.04	104.28
825.218	130.9
825.396	110.42
825.574	143.19
825.751	114.52
825.929	182.1
826.107	108.37
826.284	44.88
826.462	114.52
826.639	135
826.817	108.37
826.994	87.89
827.172	85.84
827.349	106.32
827.527	108.37
827.704	112.47
827.882	153.43
828.059	81.75
828.237	108.37
828.414	106.32
828.591	59.22
828.769	112.47
828.946	71.51
829.124	85.84
829.301	51.03
829.478	106.32
829.655	161.62
829.833	120.66
830.01	81.75
830.187	190.29
830.364	132.95
830.542	178
830.719	81.75
830.896	26.45
831.073	110.42
831.25	51.03
831.427	169.81
831.604	98.13
831.782	112.47
831.959	126.8
832.136	85.84
832.313	206.67
832.49	112.47
832.667	108.37
832.844	120.66
833.021	188.24
833.198	48.98
833.374	96.08
833.551	98.13
833.728	126.8
833.905	161.62
834.082	42.84
834.259	69.46
834.436	122.71
834.612	102.23
834.789	79.7
834.966	51.03
835.143	110.42
835.319	87.89
835.496	155.47
835.673	110.42
835.85	102.23
836.026	118.61
836.203	110.42
836.38	85.84
836.556	112.47
836.733	61.27
836.909	104.28
837.086	71.51
837.262	116.56
837.439	81.75
837.616	75.6
837.792	28.5
837.968	61.27
838.145	22.36
838.321	85.84
838.498	102.23
838.674	77.65
838.851	77.65
839.027	132.95
839.203	108.37
839.38	108.37
839.556	-2.22
839.732	26.45
839.909	116.56
840.085	102.23
840.261	75.6
840.437	81.75
840.614	104.28
840.79	73.56
840.966	106.32
841.142	-2.22
841.318	65.36
841.494	53.08
841.671	75.6
841.847	51.03
842.023	55.12
842.199	67.41
842.375	120.66
842.551	-0.17
842.727	63.32
842.903	48.98
843.079	-12.46
843.255	143.19
843.431	83.8
843.607	71.51
843.783	-32.94
843.959	71.51
844.134	48.98
844.31	26.45
844.486	83.8
844.662	28.5
844.838	65.36
845.013	157.52
845.189	100.18
845.365	69.46
845.541	94.04
845.716	89.94
845.892	10.07
846.068	28.5
846.244	65.36
846.419	5.97
846.595	108.37
846.77	67.41
846.946	61.27
847.122	44.88
847.297	102.23
847.473	-14.51
847.648	-30.89
847.824	48.98
847.999	28.5
848.175	55.12
848.35	108.37
848.526	98.13
848.701	-12.46
848.876	57.17
849.052	48.98
849.227	46.93
849.403	32.6
849.578	63.32
849.753	40.79
849.929	75.6
850.104	-41.13
850.279	32.6
850.454	87.89
850.63	89.94
850.805	85.84
850.98	51.03
851.155	-12.46
851.33	71.51
851.505	12.12
851.681	114.52
851.856	-28.84
852.031	40.79
852.206	96.08
852.381	16.21
852.556	63.32
852.731	34.64
852.906	59.22
853.081	91.99
853.256	42.84
853.431	26.45
853.606	42.84
853.781	18.26
853.956	22.36
854.131	12.12
854.305	83.8
854.48	-55.47
854.655	73.56
854.83	61.27
855.005	61.27
855.18	46.93
855.354	36.69
855.529	118.61
855.704	3.93
855.879	53.08
856.053	14.17
856.228	-12.46
856.403	28.5
856.577	30.55
856.752	-45.23
856.926	36.69
857.101	55.12
857.276	34.64
857.45	98.13
857.625	40.79
857.799	-14.51
857.974	53.08
858.148	48.98
858.323	61.27
858.497	61.27
858.672	26.45
858.846	-8.36
859.02	12.12
859.195	-0.17
859.369	-12.46
859.543	30.55
859.718	34.64
859.892	-43.18
860.066	83.8
860.241	8.02
860.415	94.04
860.589	40.79
860.763	34.64
860.938	65.36
861.112	26.45
861.286	40.79
861.46	-41.13
861.634	-24.75
861.808	53.08
861.982	18.26
862.157	20.31
862.331	-20.65
862.505	46.93
862.679	30.55
862.853	12.12
863.027	112.47
863.201	83.8
863.375	-18.6
863.549	5.97
863.722	24.4
863.896	63.32
864.07	32.6
864.244	26.45
864.418	65.36
864.592	36.69
864.766	-14.51
864.939	67.41
865.113	100.18
865.287	-32.94
865.461	63.32
865.634	-10.41
865.808	14.17
865.982	30.55
866.156	-39.08
866.329	5.97
866.503	18.26
866.676	57.17
866.85	65.36
867.024	30.55
867.197	59.22
867.371	22.36
867.544	42.84
867.718	42.84
867.891	102.23
868.065	30.55
868.238	87.89
868.412	77.65
868.585	-18.6
868.759	110.42
868.932	38.74
869.105	61.27
869.279	16.21
869.452	108.37
869.625	48.98
869.799	14.17
869.972	-0.17
870.145	44.88
870.319	-4.27
870.492	-4.27
870.665	-12.46
870.838	-8.36
871.011	3.93
871.185	81.75
871.358	-34.99
871.531	-14.51
871.704	10.07
871.877	40.79
872.05	32.6
872.223	-8.36
872.396	-65.71
872.569	24.4
872.742	26.45
872.915	53.08
873.088	48.98
873.261	-8.36
873.434	-2.22
873.607	-2.22
873.78	83.8
873.953	14.17
874.126	-34.99
874.299	1.88
874.471	16.21
874.644	-49.32
874.817	32.6
874.99	63.32
875.163	32.6
875.335	-30.89
875.508	3.93
875.681	42.84
875.853	10.07
876.026	55.12
876.199	20.31
876.371	30.55
876.544	40.79
876.717	18.26
876.889	-34.99
877.062	26.45
877.234	-108.71
877.407	-26.79
877.579	26.45
877.752	53.08
877.924	22.36
878.097	51.03
878.269	22.36
878.442	59.22
878.614	-67.75
878.786	34.64
878.959	75.6
879.131	53.08
879.303	-53.42
879.476	-30.89
879.648	38.74
879.82	-41.13
879.993	42.84
880.165	38.74
880.337	-18.6
880.509	-2.22
880.681	14.17
880.854	-41.13
881.026	-26.79
881.198	18.26
881.37	-45.23
881.542	-18.6
881.714	-8.36
881.886	63.32
882.058	30.55
882.23	22.36
882.402	-6.31
882.574	75.6
882.746	-37.03
882.918	53.08
883.09	-55.47
883.262	14.17
883.434	-6.31
883.606	-41.13
883.778	1.88
883.95	46.93
884.122	26.45
884.293	24.4
884.465	-8.36
884.637	-0.17
884.809	30.55
884.98	1.88
885.152	-6.31
885.324	3.93
885.496	-32.94
885.667	48.98
885.839	-20.65
886.011	-12.46
886.182	-10.41
886.354	-16.55
886.525	48.98
886.697	-30.89
886.869	-14.51
887.04	28.5
887.212	18.26
887.383	59.22
887.555	5.97
887.726	34.64
887.897	48.98
888.069	36.69
888.24	8.02
888.412	-49.32
888.583	-30.89
888.754	40.79
888.926	-82.09
889.097	3.93
889.268	51.03
889.44	-34.99
889.611	-28.84
889.782	-61.61
889.953	18.26
890.125	61.27
890.296	79.7
890.467	14.17
890.638	1.88
890.809	16.21
890.98	-24.75
891.151	36.69
891.323	36.69
891.494	69.46
891.665	57.17
891.836	18.26
892.007	38.74
892.178	1.88
892.349	-4.27
892.52	42.84
892.691	-8.36
892.862	28.5
893.032	-18.6
893.203	3.93
893.374	30.55
893.545	83.8
893.716	1.88
893.887	-4.27
894.057	18.26
894.228	26.45
894.399	-20.65
894.57	61.27
894.74	65.36
894.911	51.03
895.082	26.45
895.253	-6.31
895.423	34.64
895.594	-24.75
895.764	63.32
895.935	55.12
896.106	-67.75
896.276	36.69
896.447	83.8
896.617	12.12
896.788	8.02
896.958	3.93
897.129	-18.6
897.299	-6.31
897.47	3.93
897.64	28.5
897.81	36.69
897.981	28.5
898.151	-67.75
898.322	5.97
898.492	3.93
898.662	8.02
898.832	-61.61
899.003	77.65
899.173	48.98
899.343	28.5
899.513	65.36
