Data from USB4F104151__38__11-44-58-111.txt Node

Date: Fri Mar 14 11:44:58 EDT 2025
User: louis
Spectrometer: USB4F10415
Trigger mode: 4
Integration Time (sec): 2.000000E-2
Scans to average: 1
Electric dark correction enabled: true
Nonlinearity correction enabled: false
Boxcar width: 0
XAxis mode: Wavelengths
Number of Pixels in Spectrum: 3648
>>>>>Begin Spectral Data<<<<<
178.204	-84.31
178.424	-84.31
178.644	-84.31
178.864	-141.65
179.084	-31.06
179.304	-14.68
179.524	34.47
179.744	-22.87
179.964	-0.34
180.184	28.33
180.404	-51.54
180.624	-6.49
180.844	-2.39
181.064	-41.3
181.283	-53.59
181.503	18.09
181.723	112.3
181.943	-61.78
182.163	26.28
182.383	-59.73
182.602	20.14
182.822	-45.4
183.042	13.99
183.262	-22.87
183.482	13.99
183.701	-16.73
183.921	-53.59
184.141	-39.25
184.361	59.05
184.58	-108.88
184.8	-6.49
185.02	-33.11
185.239	16.04
185.459	-45.4
185.679	95.91
185.898	-6.49
186.118	26.28
186.338	-8.53
186.557	44.71
186.777	20.14
186.997	13.99
187.216	-59.73
187.436	67.24
187.655	-10.58
187.875	34.47
188.095	-14.68
188.314	48.81
188.534	-2.39
188.753	11.95
188.973	-6.49
189.192	40.62
189.412	-80.21
189.631	132.78
189.851	7.85
190.07	11.95
190.29	-0.34
190.509	34.47
190.729	-14.68
190.948	34.47
191.168	50.86
191.387	16.04
191.607	42.67
191.826	-0.34
192.045	-39.25
192.265	-0.34
192.484	16.04
192.704	-4.44
192.923	-41.3
193.142	18.09
193.362	-47.44
193.581	1.71
193.8	18.09
194.02	11.95
194.239	-22.87
194.458	-2.39
194.678	-2.39
194.897	-10.58
195.116	-51.54
195.335	16.04
195.555	-2.39
195.774	28.33
195.993	52.91
196.212	18.09
196.432	-31.06
196.651	24.23
196.87	-6.49
197.089	93.87
197.308	-67.92
197.528	11.95
197.747	32.43
197.966	-8.53
198.185	-12.63
198.404	-4.44
198.623	26.28
198.842	11.95
199.062	16.04
199.281	7.85
199.5	-0.34
199.719	65.19
199.938	50.86
200.157	-12.63
200.376	-74.07
200.595	36.52
200.814	-2.39
201.033	20.14
201.252	18.09
201.471	13.99
201.69	7.85
201.909	63.15
202.128	38.57
202.347	-2.39
202.566	73.39
202.785	11.95
203.004	-10.58
203.223	65.19
203.442	-22.87
203.661	-16.73
203.879	24.23
204.098	18.09
204.317	48.81
204.536	13.99
204.755	-10.58
204.974	79.53
205.193	67.24
205.411	40.62
205.63	-26.96
205.849	7.85
206.068	26.28
206.287	-14.68
206.505	22.19
206.724	-53.59
206.943	-22.87
207.162	63.15
207.381	38.57
207.599	-33.11
207.818	-18.77
208.037	-45.4
208.255	-20.82
208.474	-2.39
208.693	-29.01
208.911	-2.39
209.13	-6.49
209.349	69.29
209.567	26.28
209.786	-59.73
210.005	16.04
210.223	20.14
210.442	-8.53
210.661	-20.82
210.879	-18.77
211.098	1.71
211.316	42.67
211.535	-14.68
211.753	-41.3
211.972	73.39
212.191	-55.64
212.409	-10.58
212.628	-43.35
212.846	-45.4
213.065	-8.53
213.283	18.09
213.502	-47.44
213.72	7.85
213.938	-43.35
214.157	46.76
214.375	18.09
214.594	28.33
214.812	7.85
215.031	18.09
215.249	26.28
215.467	54.95
215.686	-55.64
215.904	100.01
216.122	11.95
216.341	-49.49
216.559	-55.64
216.778	-26.96
216.996	-20.82
217.214	-76.12
217.432	9.9
217.651	-16.73
217.869	28.33
218.087	42.67
218.306	52.91
218.524	38.57
218.742	-41.3
218.96	89.77
219.179	26.28
219.397	87.72
219.615	59.05
219.833	20.14
220.051	-33.11
220.27	22.19
220.488	-16.73
220.706	3.75
220.924	-76.12
221.142	32.43
221.36	3.75
221.578	79.53
221.796	-8.53
222.015	-6.49
222.233	-65.88
222.451	24.23
222.669	16.04
222.887	9.9
223.105	-24.92
223.323	30.38
223.541	-2.39
223.759	7.85
223.977	-65.88
224.195	-4.44
224.413	59.05
224.631	13.99
224.849	-22.87
225.067	71.34
225.285	7.85
225.503	-8.53
225.721	9.9
225.939	5.8
226.157	-22.87
226.375	67.24
226.592	-16.73
226.81	13.99
227.028	3.75
227.246	1.71
227.464	44.71
227.682	3.75
227.9	32.43
228.117	-69.97
228.335	18.09
228.553	26.28
228.771	-16.73
228.989	102.06
229.206	5.8
229.424	-61.78
229.642	28.33
229.86	36.52
230.077	-4.44
230.295	32.43
230.513	44.71
230.731	20.14
230.948	97.96
231.166	71.34
231.384	-65.88
231.601	-16.73
231.819	40.62
232.037	-37.2
232.254	-80.21
232.472	52.91
232.689	-31.06
232.907	87.72
233.125	-108.88
233.342	28.33
233.56	-14.68
233.777	-43.35
233.995	59.05
234.213	63.15
234.43	32.43
234.648	-14.68
234.865	-37.2
235.083	-18.77
235.3	48.81
235.518	54.95
235.735	67.24
235.953	104.11
236.17	1.71
236.388	36.52
236.605	54.95
236.822	-6.49
237.04	-41.3
237.257	50.86
237.475	28.33
237.692	26.28
237.909	11.95
238.127	-37.2
238.344	44.71
238.562	63.15
238.779	-6.49
238.996	-45.4
239.214	63.15
239.431	50.86
239.648	-10.58
239.865	32.43
240.083	18.09
240.3	20.14
240.517	-22.87
240.735	34.47
240.952	-14.68
241.169	-10.58
241.386	9.9
241.603	1.71
241.821	-6.49
242.038	79.53
242.255	28.33
242.472	-16.73
242.689	48.81
242.907	1.71
243.124	-76.12
243.341	24.23
243.558	22.19
243.775	-84.31
243.992	69.29
244.209	-33.11
244.426	67.24
244.643	7.85
244.86	-45.4
245.078	32.43
245.295	91.82
245.512	9.9
245.729	-6.49
245.946	-47.44
246.163	20.14
246.38	30.38
246.597	-51.54
246.814	61.1
247.031	13.99
247.248	46.76
247.464	-31.06
247.681	5.8
247.898	46.76
248.115	52.91
248.332	1.71
248.549	-6.49
248.766	26.28
248.983	16.04
249.2	46.76
249.417	67.24
249.633	9.9
249.85	46.76
250.067	46.76
250.284	-63.83
250.501	46.76
250.717	-18.77
250.934	36.52
251.151	77.48
251.368	-18.77
251.585	38.57
251.801	38.57
252.018	46.76
252.235	42.67
252.451	-22.87
252.668	54.95
252.885	-37.2
253.102	-18.77
253.318	100.01
253.535	-84.31
253.752	44.71
253.968	34.47
254.185	18.09
254.401	7.85
254.618	-2.39
254.835	-8.53
255.051	-12.63
255.268	93.87
255.484	38.57
255.701	-47.44
255.917	89.77
256.134	-59.73
256.351	36.52
256.567	24.23
256.784	1.71
257	-39.25
257.217	-39.25
257.433	32.43
257.65	40.62
257.866	38.57
258.082	46.76
258.299	32.43
258.515	40.62
258.732	30.38
258.948	-24.92
259.165	36.52
259.381	20.14
259.597	42.67
259.814	9.9
260.03	11.95
260.246	-26.96
260.463	-22.87
260.679	44.71
260.895	54.95
261.112	54.95
261.328	85.67
261.544	-53.59
261.761	24.23
261.977	1.71
262.193	-20.82
262.409	52.91
262.626	9.9
262.842	52.91
263.058	59.05
263.274	5.8
263.49	61.1
263.707	81.58
263.923	3.75
264.139	5.8
264.355	-51.54
264.571	118.44
264.787	-6.49
265.004	24.23
265.22	20.14
265.436	9.9
265.652	-33.11
265.868	61.1
266.084	-37.2
266.3	7.85
266.516	-39.25
266.732	-74.07
266.948	-6.49
267.164	-16.73
267.38	-41.3
267.596	-14.68
267.812	48.81
268.028	54.95
268.244	-6.49
268.46	-10.58
268.676	-57.68
268.892	-18.77
269.108	-26.96
269.324	-20.82
269.54	28.33
269.756	30.38
269.972	-35.16
270.188	9.9
270.403	11.95
270.619	32.43
270.835	24.23
271.051	-57.68
271.267	63.15
271.483	16.04
271.698	16.04
271.914	-10.58
272.13	32.43
272.346	18.09
272.562	9.9
272.777	50.86
272.993	-10.58
273.209	-33.11
273.425	18.09
273.64	28.33
273.856	13.99
274.072	91.82
274.287	-22.87
274.503	-12.63
274.719	46.76
274.934	46.76
275.15	7.85
275.366	-2.39
275.581	-35.16
275.797	-6.49
276.012	73.39
276.228	36.52
276.444	16.04
276.659	52.91
276.875	11.95
277.09	40.62
277.306	-22.87
277.521	65.19
277.737	16.04
277.952	18.09
278.168	20.14
278.383	22.19
278.599	-2.39
278.814	24.23
279.03	-8.53
279.245	13.99
279.461	32.43
279.676	-22.87
279.892	-8.53
280.107	40.62
280.322	22.19
280.538	5.8
280.753	34.47
280.969	38.57
281.184	-26.96
281.399	46.76
281.615	-53.59
281.83	-31.06
282.045	-8.53
282.26	9.9
282.476	5.8
282.691	61.1
282.906	-12.63
283.122	5.8
283.337	-29.01
283.552	-24.92
283.767	22.19
283.983	59.05
284.198	13.99
284.413	38.57
284.628	22.19
284.843	-18.77
285.058	-39.25
285.274	16.04
285.489	-43.35
285.704	22.19
285.919	-33.11
286.134	-41.3
286.349	18.09
286.564	44.71
286.779	77.48
286.995	3.75
287.21	93.87
287.425	20.14
287.64	-57.68
287.855	1.71
288.07	-26.96
288.285	42.67
288.5	59.05
288.715	-29.01
288.93	59.05
289.145	-29.01
289.36	128.68
289.575	34.47
289.79	24.23
290.004	-29.01
290.219	69.29
290.434	-0.34
290.649	-69.97
290.864	-12.63
291.079	24.23
291.294	30.38
291.509	3.75
291.724	-0.34
291.938	32.43
292.153	18.09
292.368	5.8
292.583	44.71
292.798	44.71
293.012	-6.49
293.227	3.75
293.442	32.43
293.657	-16.73
293.871	65.19
294.086	9.9
294.301	28.33
294.516	3.75
294.73	46.76
294.945	26.28
295.16	54.95
295.374	5.8
295.589	52.91
295.804	-14.68
296.018	-29.01
296.233	79.53
296.447	7.85
296.662	18.09
296.877	87.72
297.091	73.39
297.306	34.47
297.52	13.99
297.735	57
297.949	3.75
298.164	77.48
298.378	5.8
298.593	-18.77
298.807	32.43
299.022	48.81
299.236	26.28
299.451	85.67
299.665	11.95
299.88	-84.31
300.094	48.81
300.309	26.28
300.523	9.9
300.737	-18.77
300.952	-2.39
301.166	22.19
301.381	50.86
301.595	16.04
301.809	-33.11
302.024	9.9
302.238	-24.92
302.452	-10.58
302.667	-45.4
302.881	61.1
303.095	-10.58
303.309	71.34
303.524	-55.64
303.738	-76.12
303.952	71.34
304.166	54.95
304.381	13.99
304.595	-0.34
304.809	-33.11
305.023	-26.96
305.237	50.86
305.452	-12.63
305.666	38.57
305.88	-35.16
306.094	11.95
306.308	30.38
306.522	91.82
306.736	48.81
306.95	36.52
307.164	-26.96
307.379	46.76
307.593	24.23
307.807	71.34
308.021	44.71
308.235	-31.06
308.449	46.76
308.663	-92.5
308.877	149.16
309.091	3.75
309.305	36.52
309.519	-18.77
309.733	-6.49
309.947	-6.49
310.161	-43.35
310.374	1.71
310.588	48.81
310.802	-100.69
311.016	-0.34
311.23	-4.44
311.444	11.95
311.658	106.15
311.872	46.76
312.085	-22.87
312.299	16.04
312.513	65.19
312.727	3.75
312.941	-57.68
313.154	40.62
313.368	11.95
313.582	-0.34
313.796	-2.39
314.009	-6.49
314.223	26.28
314.437	-39.25
314.651	5.8
314.864	3.75
315.078	59.05
315.292	-29.01
315.505	-14.68
315.719	-6.49
315.933	46.76
316.146	-10.58
316.36	38.57
316.573	-22.87
316.787	-29.01
317.001	-2.39
317.214	-29.01
317.428	83.63
317.641	50.86
317.855	11.95
318.068	20.14
318.282	-29.01
318.495	130.73
318.709	61.1
318.922	9.9
319.136	50.86
319.349	69.29
319.563	65.19
319.776	-10.58
319.99	-22.87
320.203	65.19
320.417	22.19
320.63	9.9
320.843	34.47
321.057	-67.92
321.27	34.47
321.483	-12.63
321.697	26.28
321.91	1.71
322.124	18.09
322.337	30.38
322.55	-14.68
322.763	-16.73
322.977	11.95
323.19	-65.88
323.403	36.52
323.617	18.09
323.83	102.06
324.043	-8.53
324.256	50.86
324.469	38.57
324.683	57
324.896	22.19
325.109	13.99
325.322	1.71
325.535	52.91
325.748	1.71
325.962	87.72
326.175	-39.25
326.388	40.62
326.601	36.52
326.814	38.57
327.027	-10.58
327.24	42.67
327.453	-45.4
327.666	-2.39
327.879	20.14
328.092	106.15
328.305	11.95
328.518	69.29
328.731	-57.68
328.944	-0.34
329.157	-47.44
329.37	65.19
329.583	28.33
329.796	54.95
330.009	-69.97
330.222	5.8
330.435	-16.73
330.648	7.85
330.861	48.81
331.073	22.19
331.286	-47.44
331.499	-41.3
331.712	-22.87
331.925	11.95
332.138	67.24
332.35	-14.68
332.563	18.09
332.776	83.63
332.989	5.8
333.202	-26.96
333.414	7.85
333.627	44.71
333.84	67.24
334.053	30.38
334.265	34.47
334.478	-67.92
334.691	-16.73
334.903	26.28
335.116	34.47
335.329	5.8
335.541	-8.53
335.754	-6.49
335.966	61.1
336.179	120.49
336.392	1.71
336.604	50.86
336.817	36.52
337.029	-2.39
337.242	-2.39
337.454	32.43
337.667	-6.49
337.88	22.19
338.092	-10.58
338.305	13.99
338.517	42.67
338.729	32.43
338.942	-0.34
339.154	75.43
339.367	16.04
339.579	24.23
339.792	-8.53
340.004	32.43
340.217	26.28
340.429	-2.39
340.641	9.9
340.854	-26.96
341.066	3.75
341.278	63.15
341.491	-22.87
341.703	59.05
341.915	11.95
342.128	5.8
342.34	18.09
342.552	26.28
342.764	38.57
342.977	91.82
343.189	18.09
343.401	-2.39
343.613	-0.34
343.826	38.57
344.038	5.8
344.25	85.67
344.462	11.95
344.674	11.95
344.886	7.85
345.099	9.9
345.311	-20.82
345.523	-39.25
345.735	38.57
345.947	63.15
346.159	61.1
346.371	52.91
346.583	32.43
346.795	91.82
347.007	32.43
347.219	48.81
347.431	63.15
347.643	-4.44
347.855	-31.06
348.067	5.8
348.279	32.43
348.491	32.43
348.703	11.95
348.915	13.99
349.127	-43.35
349.339	48.81
349.551	77.48
349.763	69.29
349.975	18.09
350.187	32.43
350.399	9.9
350.61	54.95
350.822	38.57
351.034	67.24
351.246	63.15
351.458	54.95
351.669	42.67
351.881	36.52
352.093	65.19
352.305	42.67
352.517	3.75
352.728	38.57
352.94	16.04
353.152	87.72
353.363	11.95
353.575	108.2
353.787	83.63
353.999	38.57
354.21	9.9
354.422	-53.59
354.633	30.38
354.845	59.05
355.057	1.71
355.268	22.19
355.48	-26.96
355.692	22.19
355.903	106.15
356.115	-24.92
356.326	3.75
356.538	-0.34
356.749	5.8
356.961	7.85
357.172	26.28
357.384	-0.34
357.595	63.15
357.807	28.33
358.018	-8.53
358.23	16.04
358.441	-24.92
358.653	16.04
358.864	46.76
359.075	44.71
359.287	-24.92
359.498	20.14
359.709	18.09
359.921	5.8
360.132	1.71
360.344	-4.44
360.555	-4.44
360.766	63.15
360.977	-16.73
361.189	108.2
361.4	1.71
361.611	32.43
361.823	85.67
362.034	61.1
362.245	36.52
362.456	-12.63
362.667	-12.63
362.879	-94.55
363.09	61.1
363.301	-18.77
363.512	-47.44
363.723	71.34
363.935	-20.82
364.146	22.19
364.357	-31.06
364.568	54.95
364.779	32.43
364.99	71.34
365.201	65.19
365.412	69.29
365.623	-53.59
365.834	9.9
366.045	-31.06
366.256	87.72
366.467	-16.73
366.678	81.58
366.889	-2.39
367.1	32.43
367.311	52.91
367.522	42.67
367.733	22.19
367.944	52.91
368.155	48.81
368.366	116.39
368.577	-0.34
368.788	42.67
368.999	40.62
369.209	13.99
369.42	61.1
369.631	83.63
369.842	85.67
370.053	-29.01
370.264	-12.63
370.474	54.95
370.685	40.62
370.896	-2.39
371.107	63.15
371.317	71.34
371.528	54.95
371.739	3.75
371.95	32.43
372.16	30.38
372.371	-74.07
372.582	118.44
372.792	26.28
373.003	46.76
373.214	-8.53
373.424	9.9
373.635	1.71
373.846	16.04
374.056	32.43
374.267	40.62
374.477	57
374.688	11.95
374.898	20.14
375.109	63.15
375.319	-6.49
375.53	9.9
375.74	52.91
375.951	5.8
376.161	34.47
376.372	42.67
376.582	34.47
376.793	40.62
377.003	30.38
377.214	-78.16
377.424	16.04
377.635	42.67
377.845	-16.73
378.055	-41.3
378.266	26.28
378.476	32.43
378.686	30.38
378.897	20.14
379.107	46.76
379.317	9.9
379.528	7.85
379.738	61.1
379.948	13.99
380.158	95.91
380.369	93.87
380.579	28.33
380.789	85.67
380.999	54.95
381.21	126.63
381.42	59.05
381.63	63.15
381.84	63.15
382.05	73.39
382.261	-61.78
382.471	1.71
382.681	59.05
382.891	48.81
383.101	52.91
383.311	34.47
383.521	30.38
383.731	28.33
383.941	16.04
384.151	42.67
384.361	18.09
384.571	16.04
384.781	-26.96
384.991	91.82
385.201	44.71
385.411	63.15
385.621	26.28
385.831	5.8
386.041	81.58
386.251	-18.77
386.461	48.81
386.671	44.71
386.881	61.1
387.091	93.87
387.301	42.67
387.511	42.67
387.72	54.95
387.93	-10.58
388.14	59.05
388.35	38.57
388.56	61.1
388.769	34.47
388.979	110.25
389.189	81.58
389.399	40.62
389.609	122.54
389.818	65.19
390.028	44.71
390.238	67.24
390.447	73.39
390.657	34.47
390.867	48.81
391.076	75.43
391.286	67.24
391.496	34.47
391.705	63.15
391.915	67.24
392.125	85.67
392.334	100.01
392.544	79.53
392.753	75.43
392.963	52.91
393.172	73.39
393.382	30.38
393.591	147.11
393.801	87.72
394.01	46.76
394.22	30.38
394.429	85.67
394.639	61.1
394.848	91.82
395.058	63.15
395.267	48.81
395.477	83.63
395.686	89.77
395.895	85.67
396.105	79.53
396.314	40.62
396.524	79.53
396.733	71.34
396.942	95.91
397.152	138.92
397.361	71.34
397.57	118.44
397.78	50.86
397.989	93.87
398.198	122.54
398.407	-2.39
398.617	128.68
398.826	132.78
399.035	122.54
399.244	69.29
399.453	79.53
399.663	106.15
399.872	69.29
400.081	59.05
400.29	67.24
400.499	69.29
400.708	30.38
400.917	91.82
401.127	22.19
401.336	114.34
401.545	73.39
401.754	120.49
401.963	122.54
402.172	30.38
402.381	106.15
402.59	147.11
402.799	-16.73
403.008	126.63
403.217	73.39
403.426	65.19
403.635	46.76
403.844	91.82
404.053	69.29
404.262	112.3
404.471	155.3
404.68	67.24
404.888	116.39
405.097	65.19
405.306	87.72
405.515	81.58
405.724	183.98
405.933	159.4
406.142	147.11
406.35	100.01
406.559	83.63
406.768	192.17
406.977	149.16
407.185	140.97
407.394	149.16
407.603	192.17
407.812	220.84
408.02	181.93
408.229	245.41
408.438	149.16
408.646	208.55
408.855	140.97
409.064	95.91
409.272	175.78
409.481	190.12
409.69	214.7
409.898	188.07
410.107	204.46
410.315	265.89
410.524	183.98
410.733	288.42
410.941	226.98
411.15	296.61
411.358	304.81
411.567	261.8
411.775	280.23
411.984	349.86
412.192	364.2
412.401	341.67
412.609	337.57
412.818	454.31
413.026	460.45
413.234	433.83
413.443	431.78
413.651	464.55
413.86	446.12
414.068	491.17
414.276	485.03
414.485	542.37
414.693	620.19
414.901	634.53
415.11	593.57
415.318	650.91
415.526	644.77
415.734	640.67
415.943	566.95
416.151	722.59
416.359	736.93
416.567	644.77
416.776	679.58
416.984	886.43
417.192	798.37
417.4	800.41
417.608	884.38
417.817	896.67
418.025	945.82
418.233	919.2
418.441	947.87
418.649	970.4
418.857	1072.79
419.065	1144.47
419.273	1025.69
419.481	1128.09
419.689	1140.38
419.897	1242.78
420.105	1326.74
420.313	1404.57
420.521	1351.32
420.729	1386.13
420.937	1474.2
421.145	1461.91
421.353	1588.88
421.561	1666.71
421.769	1586.83
421.977	1816.21
422.185	1703.57
422.393	1889.93
422.601	1947.28
422.809	1937.04
423.017	1863.31
423.224	2059.92
423.432	2211.46
423.64	2178.7
423.848	2332.3
424.056	2346.63
424.263	2512.52
424.471	2453.13
424.679	2571.91
424.887	2668.16
425.094	2770.56
425.302	2719.36
425.51	2772.61
425.718	2895.49
425.925	2999.93
426.133	3012.22
426.341	3257.98
426.548	3315.32
426.756	3339.9
426.964	3427.96
427.171	3747.44
427.379	3833.46
427.586	3806.83
427.794	3671.67
428.001	4099.69
428.209	4126.32
428.417	4103.79
428.624	4503.14
428.832	4523.62
429.039	4310.63
429.247	4441.7
429.454	4982.37
429.662	5084.77
429.869	4648.55
430.076	5375.58
430.284	5146.2
430.491	5379.67
430.699	5598.81
430.906	5627.48
431.114	5623.38
431.321	5994.06
431.528	6106.7
431.736	6239.82
431.943	6731.33
432.15	6573.64
432.358	6461
432.565	6884.93
432.772	6798.91
432.979	7294.52
433.187	7386.68
433.394	7315
433.601	7910.96
433.808	8013.36
434.016	7962.16
434.223	8082.99
434.43	8840.74
434.637	8603.18
434.844	9014.82
435.052	9158.17
435.259	9082.4
435.466	9377.31
435.673	9287.2
435.88	9778.71
436.087	10139.15
436.294	10331.66
436.501	9930.26
436.708	10145.3
436.915	10694.15
437.122	10901
437.329	10931.72
437.537	11464.19
437.743	11433.47
437.95	11410.94
438.157	11955.7
438.364	12422.64
438.571	12371.44
438.778	12791.27
438.985	13544.92
439.192	13016.55
439.399	13602.27
439.606	13276.64
439.813	13962.71
440.02	14882.25
440.227	14140.88
440.433	14464.46
440.64	15029.7
440.847	14798.28
441.054	15285.7
441.261	16205.24
441.467	15758.78
441.674	16651.69
441.881	16774.57
442.088	16717.23
442.294	16692.65
442.501	17028.52
442.708	17673.63
442.914	18316.69
443.121	19084.68
443.328	18494.86
443.534	20006.27
443.741	19111.3
443.948	19123.59
444.154	20264.31
444.361	20331.89
444.568	20245.88
444.774	20174.2
444.981	20528.5
445.187	21013.87
445.394	22084.95
445.6	21620.06
445.807	23872.83
446.013	23022.92
446.22	23532.87
446.426	24331.58
446.633	24470.84
446.839	25199.91
447.046	24433.97
447.252	25394.47
447.459	25632.04
447.665	25548.07
447.871	26467.61
448.078	27677.96
448.284	26279.19
448.491	27413.77
448.697	27802.88
448.903	28761.33
449.11	28886.26
449.316	28292.35
449.522	28835.06
449.728	29494.5
449.935	29928.67
450.141	29971.68
450.347	30229.73
450.553	29324.52
450.76	29859.04
450.966	30874.84
451.172	30231.77
451.378	31010
451.584	30620.89
451.791	31114.45
451.997	31337.68
452.203	31646.92
452.409	31831.24
452.615	31821
452.821	30411.99
453.027	29820.13
453.233	31982.79
453.44	30682.33
453.646	30737.62
453.852	30975.19
454.058	31642.82
454.264	30520.54
454.47	31306.96
454.676	30149.85
454.882	31777.99
455.088	28732.66
455.294	29191.41
455.5	29887.71
455.705	29983.97
455.911	29060.34
456.117	28204.28
456.323	27819.27
456.529	26576.15
456.735	27772.16
456.941	26549.53
457.147	26508.57
457.352	25539.88
457.558	24919.34
457.764	25441.57
457.97	24876.34
458.176	24204.6
458.381	23950.65
458.587	22979.92
458.793	23092.55
458.999	22023.51
459.204	23672.13
459.41	22850.89
459.616	21378.4
459.821	21015.91
460.027	21099.88
460.233	20731.25
460.438	19934.59
460.644	20174.2
460.85	19062.15
461.055	18769.29
461.261	18441.62
461.466	17239.46
461.672	16612.78
461.878	17894.81
462.083	16840.11
462.289	16397.74
462.494	16446.9
462.7	15711.67
462.905	15371.71
463.111	15795.64
463.316	15762.87
463.522	15463.87
463.727	15185.35
463.932	15259.07
464.138	15300.03
464.343	15343.04
464.549	14915.02
464.754	15441.34
464.959	15381.95
465.165	15062.47
465.37	14521.81
465.575	14030.29
465.781	14714.31
465.986	14841.29
466.191	14048.72
466.397	13897.17
466.602	13057.51
466.807	13880.79
467.012	13712.86
467.218	13657.56
467.423	13585.88
467.628	13436.38
467.833	14058.96
468.038	13671.9
468.244	13247.97
468.449	13817.3
468.654	13026.79
468.859	13022.69
469.064	13075.94
469.269	12641.77
469.474	12705.26
469.679	12887.53
469.885	12346.86
470.09	12649.96
470.295	12396.01
470.5	12174.83
470.705	12459.5
470.91	12191.22
471.115	12234.22
471.32	12252.66
471.525	12025.33
471.73	11871.73
471.935	11787.77
472.139	11070.98
472.344	11595.26
472.549	11564.54
472.754	11359.74
472.959	11073.03
473.164	10919.43
473.369	10790.41
473.574	10980.87
473.778	11019.78
473.983	10804.74
474.188	10786.31
474.393	10376.72
474.598	10235.41
474.802	10423.82
475.007	10296.85
475.212	10382.86
475.417	9834
475.621	9866.77
475.826	9877.01
476.031	9879.06
476.235	9389.6
476.44	9578.01
476.645	9563.67
476.849	9528.86
477.054	9227.81
477.259	9260.57
477.463	9229.85
477.668	8945.19
477.872	9149.98
478.077	9006.63
478.282	8650.28
478.486	8861.22
478.691	8578.6
478.895	8724.01
479.1	8615.46
479.304	8537.64
479.509	8322.6
479.713	8523.3
479.918	8189.49
480.122	8001.07
480.326	8232.49
480.531	8300.08
480.735	8089.14
480.94	7900.72
481.144	8293.93
481.348	7896.63
481.553	8015.41
481.757	8007.22
481.961	8082.99
482.166	8162.86
482.37	7910.96
482.574	7984.69
482.778	7816.76
482.983	8058.42
483.187	7917.11
483.391	8005.17
483.595	7845.43
483.8	7677.49
484.004	7872.05
484.208	7988.78
484.412	7894.58
484.616	7939.63
484.821	7839.28
485.025	7708.21
485.229	7913.01
485.433	7788.08
485.637	7958.07
485.841	7792.18
486.045	7902.77
486.249	7929.39
486.453	7700.02
486.657	7657.01
486.861	7886.39
487.065	7595.57
487.269	7822.9
487.473	7738.93
487.677	7863.86
487.881	7947.83
488.085	7861.81
488.289	7855.67
488.493	7816.76
488.697	8017.46
488.901	7956.02
489.105	7767.6
489.309	8019.5
489.512	7829.04
489.716	8001.07
489.92	7886.39
490.124	7951.92
490.328	8218.16
490.531	7951.92
490.735	8027.7
490.939	8121.9
491.143	8003.12
491.346	7904.82
491.55	8214.06
491.754	8136.24
491.958	8212.01
492.161	8144.43
492.365	8240.68
492.569	8357.42
492.772	8298.03
492.976	8361.52
493.18	8226.35
493.383	8396.33
493.587	8658.47
493.79	8515.11
493.994	8513.06
494.197	8758.82
494.401	8728.1
494.605	8666.66
494.808	8898.08
495.012	8693.29
495.215	8932.9
495.419	8848.93
495.622	8799.78
495.825	9004.58
496.029	9166.37
496.232	9131.55
496.436	9135.65
496.639	9479.71
496.843	9379.36
497.046	9727.51
497.249	9635.35
497.453	9717.27
497.656	9907.73
497.859	9831.96
498.063	9858.58
498.266	10040.85
498.469	10057.23
498.673	10094.1
498.876	10534.41
499.079	10493.45
499.282	10485.26
499.485	10847.75
499.689	10651.14
499.892	10937.86
500.095	10733.06
500.298	11314.69
500.501	11257.34
500.705	11267.58
500.908	11404.8
501.111	11744.76
501.314	11740.66
501.517	11935.22
501.72	12031.48
501.923	11812.34
502.126	12199.41
502.329	12484.08
502.532	12504.56
502.735	12768.74
502.938	12832.23
503.141	12695.02
503.344	12938.73
503.547	12969.44
503.75	13333.98
503.953	13245.92
504.156	13632.99
504.359	13880.79
504.562	13811.16
504.765	13972.95
504.968	14073.3
505.17	14190.03
505.373	14304.72
505.576	14730.7
505.779	14611.92
505.982	14777.8
506.185	14925.25
506.387	15066.56
506.59	15130.05
506.793	15513.02
506.996	15510.97
507.198	15926.71
507.401	15726.01
507.604	16006.58
507.807	16268.72
508.009	16438.7
508.212	16506.29
508.415	16780.71
508.617	17051.05
508.82	17288.61
509.022	17049
509.225	17296.8
509.428	17661.34
509.63	17956.25
509.833	17589.66
510.035	18482.58
510.238	17722.78
510.44	18460.05
510.643	18517.39
510.845	18658.7
511.048	18714
511.25	18716.05
511.453	19369.35
511.655	20049.27
511.858	19142.02
512.06	19690.88
512.262	19879.29
512.465	19916.15
512.667	20223.35
512.87	20643.18
513.072	20802.93
513.274	20755.82
513.477	21038.44
513.679	21257.57
513.881	21390.69
514.084	21267.81
514.286	21558.63
514.488	22099.29
514.69	22297.94
514.893	22576.47
515.095	22367.57
515.297	22670.67
515.499	22752.59
515.701	23172.43
515.904	23344.45
516.106	23575.87
516.308	23668.03
516.51	24018.24
516.712	24067.39
516.914	24061.24
517.116	24870.19
517.318	24874.29
517.52	24810.8
517.722	25107.76
517.925	25148.71
518.127	25519.4
518.329	25437.48
518.531	25535.78
518.733	26191.13
518.935	25869.6
519.136	26180.89
519.338	26869.01
519.54	26842.39
519.742	27170.06
519.944	27096.33
520.146	27749.64
520.348	27444.49
520.55	27841.79
520.752	27956.48
520.954	28466.42
521.155	28175.61
521.357	28759.28
521.559	28708.08
521.761	29084.91
521.963	29136.11
522.164	29547.75
522.366	29727.97
522.568	29816.04
522.77	30080.22
522.971	30375.13
523.173	30127.33
523.375	30420.19
523.576	30749.91
523.778	30612.7
523.98	31509.71
524.181	31110.35
524.383	31214.8
524.584	31741.13
524.786	31794.37
524.988	31536.33
525.189	31792.33
525.391	32304.32
525.592	32124.1
525.794	32773.3
525.995	32638.14
526.197	32414.91
526.398	33043.63
526.6	32834.74
526.801	32912.56
527.003	33356.97
527.204	33178.8
527.406	33576.11
527.607	33684.65
527.808	34026.66
528.01	33432.75
528.211	33850.53
528.412	34452.64
528.614	34210.98
528.815	34337.95
529.016	34303.14
529.218	34073.76
529.419	34704.54
529.62	34294.94
529.822	34458.78
530.023	34774.17
530.224	34565.28
530.425	34368.67
530.626	34290.85
530.828	34505.88
531.029	35226.77
531.23	34649.24
531.431	35107.99
531.632	34524.32
531.833	35275.92
532.035	35036.31
532.236	35144.85
532.437	35529.87
532.638	35163.28
532.839	35708.04
533.04	35294.35
533.241	34765.98
533.442	35871.88
533.643	35394.7
533.844	35363.98
534.045	35724.43
534.246	35294.35
534.447	35777.67
534.648	35388.56
534.849	35515.53
535.05	35351.7
535.251	35581.07
535.451	35421.33
535.652	35738.76
535.853	35003.54
536.054	35597.45
536.255	35779.72
536.456	35036.31
536.657	36150.4
536.857	35470.48
537.058	35028.12
537.259	35599.5
537.46	35957.89
537.66	35546.25
537.861	35626.12
538.062	35695.75
538.263	35853.45
538.463	35091.6
538.664	35388.56
538.865	35726.47
539.065	35839.11
539.266	35267.73
539.466	35826.82
539.667	34753.69
539.868	35824.78
540.068	35499.15
540.269	35187.86
540.469	35738.76
540.67	35656.84
540.87	35617.93
541.071	35445.9
541.271	35648.65
541.472	35484.81
541.672	35230.87
541.873	35118.23
542.073	35335.31
542.274	35437.71
542.474	35431.57
542.675	35374.22
542.875	35587.21
543.075	35425.42
543.276	34720.92
543.476	35673.23
543.676	34940.05
543.877	35341.46
544.077	35386.51
544.277	35386.51
544.478	35337.36
544.678	35208.34
544.878	35003.54
545.078	35237.01
545.279	35359.89
545.479	35167.38
545.679	35175.57
545.879	34923.67
546.079	35488.91
546.28	35290.26
546.48	34645.15
546.68	35542.16
546.88	35142.8
547.08	34983.06
547.28	34983.06
547.48	34876.57
547.68	34843.8
547.88	34729.11
548.081	35165.33
548.281	35312.78
548.481	35187.86
548.681	35298.45
548.881	35318.93
549.081	34905.24
549.28	34827.42
549.48	34974.87
549.68	34851.99
549.88	35665.03
550.08	35085.46
550.28	35163.28
550.48	34976.92
550.68	35177.62
550.88	34833.56
551.08	34884.76
551.279	34895
551.479	34319.52
551.679	34774.17
551.879	34600.09
552.079	34974.87
552.278	34624.67
552.478	34626.71
552.678	34835.61
552.878	34831.51
553.077	34712.73
553.277	34282.66
553.477	35091.6
553.676	34649.24
553.876	34438.3
554.076	34301.09
554.275	34372.77
554.475	34356.38
554.674	34704.54
554.874	34426.01
555.074	34411.68
555.273	34532.51
555.473	34882.71
555.672	34600.09
555.872	34501.79
556.071	34757.78
556.271	34499.74
556.47	34127.01
556.67	33361.07
556.869	34155.68
557.068	34362.53
557.268	33825.96
557.467	33557.67
557.667	33995.94
557.866	34075.81
558.065	34026.66
558.265	34036.9
558.464	33778.86
558.663	34032.8
558.863	33758.38
559.062	33989.8
559.261	33426.6
559.461	34053.28
559.66	33408.17
559.859	33287.34
560.058	33510.57
560.258	33766.57
560.457	32879.8
560.656	33486
560.855	33230
561.054	33438.89
561.253	33060.02
561.453	33170.61
561.652	33348.78
561.851	32894.13
562.05	33160.37
562.249	32801.97
562.448	33008.82
562.647	32693.43
562.846	32631.99
563.045	32931
563.244	32562.36
563.443	33291.44
563.642	32275.65
563.841	32468.16
564.04	32169.15
564.239	32758.97
564.438	32228.54
564.637	32564.41
564.836	32189.63
565.035	31739.08
565.234	32222.4
565.432	32091.33
565.631	31866.05
565.83	32062.66
566.029	31839.43
566.228	31804.61
566.427	31782.09
566.625	31726.79
566.824	31309
567.023	31685.83
567.222	31124.69
567.42	31784.13
567.619	31210.7
567.818	31327.44
568.016	31036.63
568.215	31157.46
568.414	30926.03
568.612	31364.3
568.811	30944.47
569.01	31274.19
569.208	30522.58
569.407	30811.35
569.605	30592.22
569.804	30797.01
570.002	30178.53
570.201	30244.06
570.4	30280.92
570.598	30262.49
570.797	29891.81
570.995	30067.94
571.193	29918.43
571.392	30368.99
571.59	29715.69
571.789	29813.99
571.987	29709.54
572.186	29689.06
572.384	29506.79
572.582	29945.06
572.781	29494.5
572.979	29009.14
573.177	29388.01
573.376	29525.22
573.574	29142.25
573.772	29371.63
573.971	28939.51
574.169	28792.05
574.367	28896.5
574.565	28687.6
574.763	28693.75
574.962	28591.35
575.16	28503.29
575.358	28466.42
575.556	28157.18
575.754	28783.86
575.952	28226.81
576.151	28419.32
576.349	27770.11
576.547	28067.07
576.745	28142.85
576.943	27837.7
577.141	27817.22
577.339	27927.81
577.537	27823.36
577.735	27981.06
577.933	27233.55
578.131	27929.86
578.329	27485.45
578.527	27340.04
578.725	27454.73
578.923	27436.3
579.121	27307.27
579.319	27348.23
579.516	27254.03
579.714	26858.77
579.912	26918.16
580.11	26729.75
580.308	26748.18
580.506	26774.8
580.704	26373.4
580.901	26735.89
581.099	26633.49
581.297	26744.08
581.495	26772.75
581.692	26430.74
581.89	26074.4
582.088	26492.18
582.285	26354.97
582.483	26174.75
582.681	26076.44
582.878	26180.89
583.076	25783.59
583.274	26129.69
583.471	25460.01
583.669	25593.12
583.866	25611.56
584.064	25732.39
584.262	25439.53
584.459	25503.01
584.657	25648.42
584.854	25515.3
585.052	24907.05
585.249	25464.1
585.447	25103.66
585.644	24993.07
585.841	25036.08
586.039	25042.22
586.236	24538.42
586.434	24798.51
586.631	24790.32
586.828	24577.33
587.026	24433.97
587.223	24698.16
587.42	24077.63
587.618	24579.38
587.815	24292.66
588.012	24337.72
588.21	24278.33
588.407	24466.74
588.604	24087.87
588.801	23917.89
588.999	23981.37
589.196	24096.06
589.393	24130.87
589.59	23776.58
589.787	23549.25
589.984	23549.25
590.182	23065.93
590.379	23625.03
590.576	23002.44
590.773	23610.69
590.97	23133.51
591.167	23311.69
591.364	23074.12
591.561	22881.61
591.758	22768.98
591.955	23016.78
592.152	23121.23
592.349	22476.12
592.546	22625.62
592.743	23102.79
592.94	22363.48
593.137	22697.3
593.334	22664.53
593.531	22041.95
593.727	22236.5
593.924	22463.83
594.121	21994.84
594.318	22220.12
594.515	22027.61
594.712	22261.08
594.908	21871.96
595.105	22031.71
595.302	21972.32
595.499	21808.48
595.696	21841.25
595.892	21470.56
596.089	21407.08
596.286	21538.15
596.482	21536.1
596.679	21558.63
596.876	21362.02
597.072	21306.73
597.269	21097.83
597.466	20845.93
597.662	21140.84
597.859	20854.12
598.055	21335.4
598.252	21081.45
598.448	20524.4
598.645	20776.3
598.841	20348.28
599.038	20847.98
599.234	20813.17
599.431	20600.18
599.627	20686.19
599.824	20708.72
600.02	20321.65
600.217	20206.97
600.413	20299.12
600.609	20176.25
600.806	19840.38
601.002	20084.09
601.198	19910.01
601.395	19639.68
601.591	20235.64
601.787	19914.11
601.984	19637.63
602.18	19854.72
602.376	19699.07
602.572	19389.83
602.769	19711.36
602.965	19367.3
603.161	19205.51
603.357	19344.77
603.553	19256.71
603.75	19197.32
603.946	18898.31
604.142	19164.55
604.338	18943.37
604.534	18986.38
604.73	18929.03
604.926	18984.33
605.122	18982.28
605.318	18744.72
605.514	18759.05
605.71	18775.44
605.906	18738.57
606.102	18726.28
606.298	18689.42
606.494	18621.84
606.69	18285.97
606.886	18539.92
607.082	18185.62
607.278	18337.17
607.474	18304.4
607.67	18218.39
607.866	17960.34
608.062	18251.16
608.257	18197.91
608.453	18101.65
608.649	18351.51
608.845	18005.4
609.041	17915.29
609.236	18212.24
609.432	17903
609.628	17907.1
609.824	17804.7
610.019	17726.88
610.215	17769.88
610.411	17769.88
610.606	17524.13
610.802	17669.53
610.998	17573.28
611.193	17468.83
611.389	17632.67
611.584	17415.58
611.78	17212.84
611.976	17239.46
612.171	17419.68
612.367	17278.37
612.562	17294.75
612.758	17046.95
612.953	17245.6
613.149	17474.98
613.344	17094.05
613.539	17399.2
613.735	16819.63
613.93	17120.68
614.126	16827.82
614.321	17094.05
614.517	16983.46
614.712	16887.21
614.907	16924.07
615.103	16889.26
615.298	16815.53
615.493	16743.85
615.688	16567.73
615.884	16709.04
616.079	16582.06
616.274	16893.35
616.47	16700.84
616.665	16582.06
616.86	16299.44
617.055	16680.36
617.25	16360.88
617.445	16899.5
617.641	16082.36
617.836	16385.46
618.031	15947.19
618.226	16381.36
618.421	16197.04
618.616	16342.45
618.811	15881.66
619.006	16180.66
619.201	15904.18
619.396	16221.62
619.591	15713.72
619.786	16025.01
619.981	15586.75
620.176	15834.55
620.371	15521.21
620.566	15480.25
620.761	15326.66
620.956	15365.57
621.151	15189.44
621.346	15441.34
621.541	15121.86
621.735	15271.36
621.93	15015.37
622.125	15113.67
622.32	14671.31
622.515	14888.39
622.709	14806.47
622.904	14702.03
623.099	14575.05
623.294	14542.28
623.488	14523.85
623.683	14450.13
623.878	14331.34
624.072	14185.94
624.267	14284.24
624.462	14124.5
624.656	13983.19
624.851	14357.97
625.046	13790.68
625.24	13880.79
625.435	13649.37
625.629	13706.71
625.824	13698.52
626.018	13594.08
626.213	13272.54
626.407	13467.1
626.602	13176.29
626.796	13413.85
626.991	13069.8
627.185	12821.99
627.38	13123.04
627.574	13059.56
627.768	12854.76
627.963	12973.54
628.157	12869.09
628.352	12758.5
628.546	12508.65
628.74	12746.22
628.935	12621.29
629.129	12570.09
629.323	12404.21
629.517	12209.65
629.712	12283.38
629.906	12226.03
630.1	12080.63
630.294	12080.63
630.489	12002.8
630.683	12021.24
630.877	11769.34
631.071	11654.65
631.265	11867.64
631.459	11585.02
631.653	11675.13
631.848	11392.51
632.042	11437.56
632.236	11402.75
632.43	11365.89
632.624	11423.23
632.818	11161.09
633.012	11083.27
633.206	11099.65
633.4	11216.38
633.594	11122.18
633.788	11095.55
633.982	11179.52
634.176	11091.46
634.369	10796.55
634.563	10796.55
634.757	10432.01
634.951	10708.49
635.145	10585.61
635.339	10653.19
635.533	10219.02
635.726	10438.16
635.92	10249.74
636.114	10288.65
636.308	10620.42
636.501	10270.22
636.695	10069.52
636.889	10143.25
637.083	10063.38
637.276	9969.17
637.47	10036.75
637.664	9956.88
637.857	10092.05
638.051	10008.08
638.244	9631.26
638.438	9643.54
638.632	9631.26
638.825	9547.29
639.019	9549.34
639.212	9405.98
639.406	9463.32
639.599	9391.64
639.793	9643.54
639.986	9154.08
640.18	9270.81
640.373	9479.71
640.567	8996.39
640.76	9143.84
640.954	9285.15
641.147	8928.8
641.34	8883.75
641.534	9127.46
641.727	8896.03
641.92	8799.78
642.114	8920.61
642.307	8619.56
642.5	8572.46
642.694	8789.54
642.887	8445.48
643.08	8730.15
643.273	8547.88
643.467	8551.98
643.66	8429.1
643.853	8304.17
644.046	8437.29
644.239	8384.04
644.432	8345.13
644.626	8453.67
644.819	8171.05
645.012	8191.53
645.205	8134.19
645.398	7984.69
645.591	8025.65
645.784	7943.73
645.977	7736.88
646.17	7937.59
646.363	7802.42
646.556	7673.4
646.749	7636.53
646.942	7743.03
647.135	7673.4
647.328	7773.75
647.521	7640.63
647.714	7454.26
647.907	7464.5
648.099	7573.05
648.292	7439.93
648.485	7462.46
648.678	7460.41
648.871	7284.28
649.064	7278.14
649.256	7337.53
649.449	7175.74
649.642	7175.74
649.835	7183.93
650.027	7102.01
650.22	7157.31
650.413	6966.85
650.605	6999.62
650.798	6846.02
650.991	6858.31
651.183	6821.44
651.376	6858.31
651.568	7050.82
651.761	6747.72
651.954	6837.83
652.146	6536.77
652.339	6807.11
652.531	6694.47
652.724	6637.13
652.916	6563.4
653.109	6506.06
653.301	6712.9
653.494	6499.91
653.686	6450.76
653.879	6518.34
654.071	6338.12
654.263	6508.1
654.456	6293.07
654.648	6477.38
654.84	6311.5
655.033	6174.28
655.225	6317.64
655.417	6176.33
655.61	6198.86
655.802	6112.85
655.994	5879.38
656.186	5979.73
656.379	5996.11
656.571	5949.01
656.763	5844.56
656.955	5895.76
657.148	5953.1
657.34	5879.38
657.532	5744.21
657.724	5776.98
657.916	5727.83
658.108	5848.66
658.3	5733.97
658.492	5750.35
658.684	5764.69
658.876	5768.79
659.068	5520.98
659.26	5733.97
659.452	5574.23
659.644	5473.88
659.836	5443.16
660.028	5520.98
660.22	5453.4
660.412	5361.24
660.604	5340.76
660.796	5146.2
660.988	5199.45
661.18	5215.84
661.372	5215.84
661.563	5267.03
661.755	5178.97
661.947	5178.97
662.139	5211.74
662.331	5082.72
662.522	5039.71
662.714	5062.24
662.906	4978.27
663.097	5224.03
663.289	5047.9
663.481	4949.6
663.673	5006.94
663.864	4863.58
664.056	4972.13
664.247	4775.52
664.439	4828.77
664.631	4933.22
664.822	4961.89
665.014	4759.14
665.205	4879.97
665.397	4771.43
665.588	4744.8
665.78	4656.74
665.971	4621.92
666.163	4646.5
666.354	4578.92
666.546	4517.48
666.737	4550.25
666.929	4531.81
667.12	4517.48
667.311	4607.59
667.503	4523.62
667.694	4441.7
667.885	4499.05
668.077	4521.57
668.268	4441.7
668.459	4421.22
668.651	4310.63
668.842	4353.64
669.033	4292.2
669.224	4349.54
669.416	4396.65
669.607	4341.35
669.798	4245.1
669.989	4236.91
670.18	4322.92
670.371	4251.24
670.563	4210.28
670.754	4157.04
670.945	4361.83
671.136	4308.58
671.327	4193.9
671.518	4177.51
671.709	4101.74
671.9	4091.5
672.091	4073.07
672.282	3956.33
672.473	4173.42
672.664	4040.3
672.855	3921.52
673.046	3927.66
673.237	4081.26
673.428	3987.05
673.619	4003.44
673.809	3882.61
674	3786.35
674.191	4052.59
674.382	3886.7
674.573	3880.56
674.764	3913.33
674.954	3874.42
675.145	3862.13
675.336	3810.93
675.527	3868.27
675.717	3913.33
675.908	3786.35
676.099	3724.91
676.289	3794.54
676.48	3632.76
676.671	3786.35
676.861	3731.06
677.052	3577.46
677.243	3706.48
677.433	3714.67
677.624	3628.66
677.814	3671.67
678.005	3653.23
678.195	3692.15
678.386	3702.39
678.576	3614.32
678.767	3759.73
678.957	3716.72
679.148	3692.15
679.338	3702.39
679.529	3526.26
679.719	3538.55
679.909	3565.17
680.1	3370.62
680.29	3563.12
680.481	3591.8
680.671	3591.8
680.861	3550.84
681.052	3599.99
681.242	3522.16
681.432	3733.11
681.622	3503.73
681.813	3419.77
682.003	3499.64
682.193	3389.05
682.383	3702.39
682.573	3481.21
682.764	3528.31
682.954	3448.44
683.144	3509.88
683.334	3524.21
683.524	3452.53
683.714	3389.05
683.904	3473.01
684.094	3597.94
684.284	3376.76
684.474	3378.81
684.664	3307.13
684.854	3360.38
685.044	3325.56
685.234	3296.89
685.424	3339.9
685.614	3278.46
685.804	3339.9
685.994	3444.34
686.184	3282.55
686.374	3266.17
686.564	3243.64
686.753	3319.42
686.943	3311.22
687.133	3352.18
687.323	3214.97
687.513	3266.17
687.702	3165.82
687.892	3270.26
688.082	3149.43
688.272	3126.91
688.461	3131
688.651	3061.37
688.841	3276.41
689.03	3210.87
689.22	3034.75
689.41	3012.22
689.599	3106.43
689.789	3006.08
689.979	3104.38
690.168	2999.93
690.358	2905.73
690.547	2981.5
690.737	2850.43
690.926	2909.82
691.116	2930.3
691.305	2969.21
691.495	2893.44
691.684	2864.77
691.874	2887.29
692.063	2840.19
692.252	2846.34
692.442	2944.64
692.631	2844.29
692.82	2725.51
693.01	2756.22
693.199	2821.76
693.388	2676.35
693.578	2733.7
693.767	2727.55
693.956	2805.38
694.146	2872.96
694.335	2678.4
694.524	2795.14
694.713	2737.79
694.902	2643.59
695.092	2690.69
695.281	2598.53
695.47	2655.87
695.659	2625.15
695.848	2608.77
696.037	2635.39
696.226	2662.02
696.415	2584.2
696.604	2643.59
696.793	2571.91
696.982	2596.48
697.171	2479.75
697.36	2483.84
697.549	2457.22
697.738	2530.95
697.927	2465.41
698.116	2590.34
698.305	2606.72
698.494	2555.52
698.683	2524.8
698.872	2453.13
699.061	2481.8
699.25	2526.85
699.438	2629.25
699.627	2533
699.816	2561.67
700.005	2469.51
700.193	2489.99
700.382	2471.56
700.571	2494.08
700.76	2377.35
700.948	2518.66
701.137	2344.58
701.326	2555.52
701.514	2449.03
701.703	2393.73
701.892	2457.22
702.08	2465.41
702.269	2373.25
702.457	2385.54
702.646	2440.84
702.834	2520.71
703.023	2455.17
703.212	2508.42
703.4	2463.37
703.589	2358.92
703.777	2426.5
703.965	2365.06
704.154	2397.83
704.342	2471.56
704.531	2449.03
704.719	2414.21
704.907	2401.93
705.096	2504.32
705.284	2430.6
705.472	2414.21
705.661	2350.73
705.849	2350.73
706.037	2363.01
706.226	2395.78
706.414	2418.31
706.602	2326.15
706.79	2358.92
706.979	2500.23
707.167	2252.42
707.355	2309.77
707.543	2381.45
707.731	2426.5
707.919	2475.65
708.107	2375.3
708.296	2272.9
708.484	2369.16
708.672	2369.16
708.86	2291.34
709.048	2403.97
709.236	2403.97
709.424	2428.55
709.612	2397.83
709.8	2365.06
709.988	2328.2
710.176	2496.13
710.364	2285.19
710.551	2365.06
710.739	2303.62
710.927	2479.75
711.115	2233.99
711.303	2346.63
711.491	2342.53
711.679	2446.98
711.866	2389.64
712.054	2363.01
712.242	2289.29
712.43	2348.68
712.617	2412.17
712.805	2348.68
712.993	2418.31
713.181	2356.87
713.368	2463.37
713.556	2375.3
713.744	2238.09
713.931	2414.21
714.119	2381.45
714.306	2301.58
714.494	2412.17
714.682	2430.6
714.869	2248.33
715.057	2354.82
715.244	2367.11
715.432	2473.6
715.619	2350.73
715.807	2440.84
715.994	2258.57
716.182	2451.08
716.369	2297.48
716.556	2463.37
716.744	2340.49
716.931	2358.92
717.119	2393.73
717.306	2432.65
717.493	2305.67
717.681	2268.81
717.868	2399.88
718.055	2449.03
718.242	2356.87
718.43	2342.53
718.617	2410.12
718.804	2463.37
718.991	2344.58
719.179	2432.65
719.366	2244.23
719.553	2365.06
719.74	2426.5
719.927	2420.36
720.114	2424.45
720.301	2473.6
720.488	2363.01
720.676	2352.77
720.863	2477.7
721.05	2350.73
721.237	2494.08
721.424	2420.36
721.611	2393.73
721.798	2246.28
721.985	2365.06
722.172	2389.64
722.358	2467.46
722.545	2399.88
722.732	2399.88
722.919	2375.3
723.106	2383.49
723.293	2449.03
723.48	2414.21
723.667	2418.31
723.853	2428.55
724.04	2483.84
724.227	2401.93
724.414	2418.31
724.6	2369.16
724.787	2363.01
724.974	2496.13
725.161	2467.46
725.347	2416.26
725.534	2455.17
725.72	2573.96
725.907	2412.17
726.094	2317.96
726.28	2506.37
726.467	2348.68
726.653	2457.22
726.84	2467.46
727.027	2487.94
727.213	2395.78
727.4	2485.89
727.586	2399.88
727.773	2512.52
727.959	2444.93
728.145	2350.73
728.332	2444.93
728.518	2375.3
728.705	2549.38
728.891	2487.94
729.077	2451.08
729.264	2539.14
729.45	2401.93
729.636	2418.31
729.823	2391.69
730.009	2623.11
730.195	2440.84
730.382	2395.78
730.568	2522.76
730.754	2500.23
730.94	2506.37
731.126	2526.85
731.313	2446.98
731.499	2533
731.685	2397.83
731.871	2567.81
732.057	2555.52
732.243	2518.66
732.429	2608.77
732.615	2477.7
732.801	2588.29
732.987	2373.25
733.173	2483.84
733.359	2537.09
733.545	2463.37
733.731	2559.62
733.917	2487.94
734.103	2520.71
734.289	2528.9
734.475	2442.89
734.661	2584.2
734.847	2479.75
735.033	2479.75
735.219	2547.33
735.404	2453.13
735.59	2588.29
735.776	2461.32
735.962	2565.76
736.148	2428.55
736.333	2444.93
736.519	2498.18
736.705	2469.51
736.89	2473.6
737.076	2422.41
737.262	2451.08
737.447	2530.95
737.633	2444.93
737.819	2430.6
738.004	2455.17
738.19	2451.08
738.375	2508.42
738.561	2481.8
738.747	2514.56
738.932	2424.45
739.118	2449.03
739.303	2498.18
739.489	2451.08
739.674	2395.78
739.859	2393.73
740.045	2479.75
740.23	2475.65
740.416	2291.34
740.601	2436.74
740.786	2463.37
740.972	2410.12
741.157	2440.84
741.342	2272.9
741.528	2336.39
741.713	2358.92
741.898	2391.69
742.084	2291.34
742.269	2467.46
742.454	2385.54
742.639	2375.3
742.824	2322.06
743.01	2430.6
743.195	2397.83
743.38	2418.31
743.565	2317.96
743.75	2303.62
743.935	2262.66
744.12	2328.2
744.305	2250.38
744.49	2346.63
744.675	2203.27
744.86	2246.28
745.045	2391.69
745.23	2336.39
745.415	2270.86
745.6	2221.7
745.785	2272.9
745.97	2266.76
746.155	2182.79
746.34	2174.6
746.525	2156.17
746.71	2188.94
746.895	2197.13
747.079	2205.32
747.264	2074.25
747.449	2039.44
747.634	2223.75
747.819	2184.84
748.003	2090.63
748.188	2049.68
748.373	1926.8
748.557	2049.68
748.742	2014.86
748.927	2064.01
749.111	1994.38
749.296	2010.76
749.481	1990.28
749.665	1975.95
749.85	1928.85
750.034	1973.9
750.219	1906.32
750.404	2014.86
750.588	1924.75
750.773	1914.51
750.957	2035.34
751.141	1900.17
751.326	1799.82
751.51	1947.28
751.695	1922.7
751.879	1957.52
752.064	1873.55
752.248	1773.2
752.432	1777.3
752.617	1853.07
752.801	1826.45
752.985	1795.73
753.17	1726.1
753.354	1773.2
753.538	1746.58
753.722	1705.62
753.907	1701.52
754.091	1621.65
754.275	1635.99
754.459	1803.92
754.643	1613.46
754.828	1726.1
755.012	1724.05
755.196	1601.17
755.38	1537.68
755.564	1666.71
755.748	1646.23
755.932	1664.66
756.116	1627.79
756.3	1584.79
756.484	1545.88
756.668	1621.65
756.852	1595.03
757.036	1490.58
757.22	1498.77
757.404	1545.88
757.588	1449.62
757.772	1488.53
757.956	1463.96
758.14	1427.09
758.323	1435.28
758.507	1371.8
758.691	1443.48
758.875	1396.37
759.059	1394.33
759.242	1435.28
759.426	1377.94
759.61	1470.1
759.794	1359.51
759.977	1472.15
760.161	1298.07
760.345	1392.28
760.528	1334.93
760.712	1308.31
760.895	1351.32
761.079	1343.13
761.263	1404.57
761.446	1281.69
761.63	1351.32
761.813	1341.08
761.997	1242.78
762.18	1287.83
762.364	1322.65
762.547	1255.06
762.731	1281.69
762.914	1244.82
763.098	1171.1
763.281	1242.78
763.464	1146.52
763.648	1240.73
763.831	1191.58
764.015	1246.87
764.198	1246.87
764.381	1212.06
764.564	1253.02
764.748	1234.58
764.931	1173.14
765.114	1115.8
765.297	1273.5
765.481	1093.27
765.664	1248.92
765.847	1261.21
766.03	1185.43
766.213	1205.91
766.397	1175.19
766.58	1146.52
766.763	1187.48
766.946	1087.13
767.129	1037.98
767.312	1091.23
767.495	1191.58
767.678	1025.69
767.861	1013.4
768.044	1025.69
768.227	1111.71
768.41	1091.23
768.593	1150.62
768.776	1056.41
768.959	1119.9
769.142	1144.47
769.324	1078.94
769.507	994.97
769.69	1052.31
769.873	1011.36
770.056	988.83
770.239	941.72
770.421	1066.65
770.604	964.25
770.787	999.07
770.97	1097.37
771.152	986.78
771.335	956.06
771.518	992.92
771.7	1062.55
771.883	970.4
772.066	1027.74
772.248	984.73
772.431	974.49
772.613	980.64
772.796	911
772.978	900.76
773.161	945.82
773.343	890.53
773.526	902.81
773.708	878.24
773.891	784.03
774.073	925.34
774.256	915.1
774.438	843.42
774.621	878.24
774.803	810.65
774.985	878.24
775.168	868
775.35	882.33
775.532	853.66
775.715	878.24
775.897	884.38
776.079	837.28
776.261	812.7
776.444	851.61
776.626	790.17
776.808	843.42
776.99	792.22
777.173	736.93
777.355	708.26
777.537	781.98
777.719	759.46
777.901	730.78
778.083	796.32
778.265	714.4
778.447	657.06
778.629	732.83
778.811	642.72
778.993	722.59
779.175	673.44
779.357	722.59
779.539	708.26
779.721	663.2
779.903	691.87
780.085	747.17
780.267	755.36
780.449	710.3
780.631	702.11
780.812	583.33
780.994	599.71
781.176	605.86
781.358	536.23
781.54	591.52
781.721	624.29
781.903	644.77
782.085	587.43
782.267	626.34
782.448	583.33
782.63	534.18
782.812	640.67
782.993	640.67
783.175	648.86
783.357	583.33
783.538	603.81
783.72	573.09
783.901	546.47
784.083	603.81
784.264	566.95
784.446	530.08
784.627	505.51
784.809	620.19
784.99	544.42
785.172	589.47
785.353	601.76
785.535	536.23
785.716	487.08
785.897	534.18
786.079	542.37
786.26	442.02
786.441	554.66
786.623	476.84
786.804	458.4
786.985	480.93
787.167	519.84
787.348	376.48
787.529	437.92
787.71	487.08
787.891	452.26
788.073	523.94
788.254	464.55
788.435	480.93
788.616	497.32
788.797	452.26
788.978	415.4
789.159	485.03
789.34	456.36
789.522	421.54
789.703	468.64
789.884	431.78
790.065	468.64
790.246	388.77
790.427	394.92
790.607	456.36
790.788	482.98
790.969	384.68
791.15	411.3
791.331	405.16
791.512	374.44
791.693	376.48
791.874	409.25
792.054	503.46
792.235	431.78
792.416	247.46
792.597	366.25
792.778	351.91
792.958	360.1
793.139	456.36
793.32	366.25
793.5	362.15
793.681	331.43
793.862	380.58
794.042	337.57
794.223	296.61
794.404	360.1
794.584	321.19
794.765	374.44
794.945	292.52
795.126	368.29
795.306	376.48
795.487	333.48
795.667	405.16
795.848	386.72
796.028	302.76
796.209	321.19
796.389	226.98
796.57	339.62
796.75	280.23
796.93	296.61
797.111	290.47
797.291	317.09
797.471	339.62
797.652	331.43
797.832	245.41
798.012	310.95
798.192	319.14
798.373	247.46
798.553	319.14
798.733	298.66
798.913	255.65
799.093	206.5
799.274	261.8
799.454	243.37
799.634	319.14
799.814	364.2
799.994	231.08
800.174	274.09
800.354	272.04
800.534	212.65
800.714	274.09
800.894	231.08
801.074	245.41
801.254	294.57
801.434	321.19
801.614	229.03
801.794	202.41
801.974	583.33
802.154	233.13
802.334	224.94
802.514	216.74
802.693	272.04
802.873	237.22
803.053	218.79
803.233	231.08
803.413	269.99
803.592	220.84
803.772	171.69
803.952	155.3
804.131	214.7
804.311	245.41
804.491	247.46
804.67	200.36
804.85	218.79
805.03	265.89
805.209	190.12
805.389	196.26
805.568	175.78
805.748	249.51
805.928	206.5
806.107	153.26
806.287	278.18
806.466	216.74
806.646	171.69
806.825	212.65
807.004	253.61
807.184	241.32
807.363	181.93
807.543	202.41
807.722	274.09
807.901	247.46
808.081	263.85
808.26	140.97
808.439	196.26
808.619	177.83
808.798	198.31
808.977	212.65
809.156	229.03
809.336	145.06
809.515	249.51
809.694	151.21
809.873	198.31
810.052	190.12
810.231	161.45
810.411	206.5
810.59	237.22
810.769	165.54
810.948	224.94
811.127	155.3
811.306	208.55
811.485	157.35
811.664	202.41
811.843	134.82
812.022	181.93
812.201	118.44
812.38	169.64
812.559	136.87
812.737	173.74
812.916	175.78
813.095	130.73
813.274	300.71
813.453	175.78
813.632	175.78
813.811	235.18
813.989	143.02
814.168	175.78
814.347	198.31
814.526	120.49
814.704	159.4
814.883	290.47
815.062	140.97
815.24	257.7
815.419	163.5
815.598	194.22
815.776	149.16
815.955	163.5
816.133	130.73
816.312	151.21
816.49	93.87
816.669	138.92
816.847	175.78
817.026	204.46
817.204	200.36
817.383	97.96
817.561	171.69
817.74	147.11
817.918	87.72
818.097	167.59
818.275	120.49
818.453	100.01
818.632	200.36
818.81	145.06
818.988	110.25
819.167	67.24
819.345	167.59
819.523	140.97
819.701	147.11
819.879	204.46
820.058	151.21
820.236	196.26
820.414	179.88
820.592	106.15
820.77	114.34
820.948	120.49
821.127	102.06
821.305	143.02
821.483	122.54
821.661	136.87
821.839	157.35
822.017	52.91
822.195	143.02
822.373	149.16
822.551	151.21
822.729	110.25
822.907	50.86
823.085	108.2
823.262	173.74
823.44	108.2
823.618	181.93
823.796	128.68
823.974	63.15
824.152	77.48
824.329	75.43
824.507	128.68
824.685	93.87
824.863	235.18
825.04	104.11
825.218	116.39
825.396	100.01
825.574	130.73
825.751	97.96
825.929	145.06
826.107	-14.68
826.284	173.74
826.462	71.34
826.639	50.86
826.817	140.97
826.994	122.54
827.172	48.81
827.349	63.15
827.527	202.41
827.704	89.77
827.882	186.02
828.059	114.34
828.237	112.3
828.414	126.63
828.591	65.19
828.769	59.05
828.946	63.15
829.124	120.49
829.301	106.15
829.478	93.87
829.655	122.54
829.833	116.39
830.01	136.87
830.187	163.5
830.364	95.91
830.542	69.29
830.719	97.96
830.896	44.71
831.073	77.48
831.25	65.19
831.427	106.15
831.604	97.96
831.782	106.15
831.959	108.2
832.136	9.9
832.313	69.29
832.49	97.96
832.667	104.11
832.844	83.63
833.021	89.77
833.198	83.63
833.374	93.87
833.551	126.63
833.728	91.82
833.905	71.34
834.082	-6.49
834.259	102.06
834.436	89.77
834.612	93.87
834.789	67.24
834.966	40.62
835.143	75.43
835.319	59.05
835.496	42.67
835.673	65.19
835.85	147.11
836.026	81.58
836.203	89.77
836.38	18.09
836.556	65.19
836.733	124.58
836.909	110.25
837.086	-2.39
837.262	71.34
837.439	1.71
837.616	73.39
837.792	44.71
837.968	100.01
838.145	132.78
838.321	34.47
838.498	81.58
838.674	59.05
838.851	112.3
839.027	26.28
839.203	16.04
839.38	95.91
839.556	52.91
839.732	54.95
839.909	-37.2
840.085	83.63
840.261	36.52
840.437	52.91
840.614	116.39
840.79	106.15
840.966	54.95
841.142	38.57
841.318	7.85
841.494	75.43
841.671	65.19
841.847	85.67
842.023	18.09
842.199	130.73
842.375	42.67
842.551	5.8
842.727	-12.63
842.903	46.76
843.079	73.39
843.255	18.09
843.431	106.15
843.607	42.67
843.783	-22.87
843.959	22.19
844.134	71.34
844.31	87.72
844.486	36.52
844.662	108.2
844.838	20.14
845.013	87.72
845.189	65.19
845.365	50.86
845.541	100.01
845.716	59.05
845.892	-4.44
846.068	85.67
846.244	22.19
846.419	44.71
846.595	87.72
846.77	18.09
846.946	-2.39
847.122	48.81
847.297	-4.44
847.473	26.28
847.648	-12.63
847.824	38.57
847.999	-53.59
848.175	63.15
848.35	30.38
848.526	44.71
848.701	22.19
848.876	40.62
849.052	24.23
849.227	11.95
849.403	-10.58
849.578	71.34
849.753	1.71
849.929	95.91
850.104	50.86
850.279	32.43
850.454	3.75
850.63	59.05
850.805	40.62
850.98	40.62
851.155	-0.34
851.33	-0.34
851.505	11.95
851.681	50.86
851.856	38.57
852.031	89.77
852.206	75.43
852.381	-39.25
852.556	69.29
852.731	69.29
852.906	36.52
853.081	102.06
853.256	67.24
853.431	11.95
853.606	11.95
853.781	38.57
853.956	-24.92
854.131	46.76
854.305	-26.96
854.48	-4.44
854.655	-4.44
854.83	22.19
855.005	77.48
855.18	-0.34
855.354	65.19
855.529	16.04
855.704	61.1
855.879	67.24
856.053	-18.77
856.228	79.53
856.403	1.71
856.577	-51.54
856.752	11.95
856.926	1.71
857.101	59.05
857.276	38.57
857.45	-2.39
857.625	71.34
857.799	9.9
857.974	71.34
858.148	-16.73
858.323	75.43
858.497	-14.68
858.672	50.86
858.846	46.76
859.02	-24.92
859.195	40.62
859.369	16.04
859.543	-6.49
859.718	24.23
859.892	-2.39
860.066	9.9
860.241	-10.58
860.415	22.19
860.589	30.38
860.763	22.19
860.938	-10.58
861.112	13.99
861.286	48.81
861.46	-6.49
861.634	95.91
861.808	13.99
861.982	9.9
862.157	5.8
862.331	-29.01
862.505	-10.58
862.679	-6.49
862.853	38.57
863.027	32.43
863.201	24.23
863.375	28.33
863.549	26.28
863.722	-4.44
863.896	26.28
864.07	5.8
864.244	36.52
864.418	34.47
864.592	-47.44
864.766	54.95
864.939	-20.82
865.113	24.23
865.287	65.19
865.461	-33.11
865.634	-2.39
865.808	42.67
865.982	67.24
866.156	-69.97
866.329	22.19
866.503	-18.77
866.676	9.9
866.85	7.85
867.024	-6.49
867.197	-33.11
867.371	73.39
867.544	-14.68
867.718	18.09
867.891	1.71
868.065	30.38
868.238	-45.4
868.412	30.38
868.585	-12.63
868.759	87.72
868.932	24.23
869.105	-92.5
869.279	-20.82
869.452	-86.36
869.625	-55.64
869.799	-0.34
869.972	71.34
870.145	20.14
870.319	11.95
870.492	13.99
870.665	40.62
870.838	-24.92
871.011	-31.06
871.185	26.28
871.358	48.81
871.531	-2.39
871.704	-49.49
871.877	54.95
872.05	-61.78
872.223	-10.58
872.396	7.85
872.569	9.9
872.742	26.28
872.915	73.39
873.088	-6.49
873.261	24.23
873.434	7.85
873.607	-10.58
873.78	13.99
873.953	26.28
874.126	71.34
874.299	7.85
874.471	-86.36
874.644	11.95
874.817	30.38
874.99	7.85
875.163	-16.73
875.335	61.1
875.508	-31.06
875.681	-16.73
875.853	24.23
876.026	42.67
876.199	26.28
876.371	-63.83
876.544	93.87
876.717	30.38
876.889	44.71
877.062	61.1
877.234	28.33
877.407	69.29
877.579	-78.16
877.752	-14.68
877.924	-59.73
878.097	9.9
878.269	36.52
878.442	11.95
878.614	-37.2
878.786	3.75
878.959	75.43
879.131	-31.06
879.303	-39.25
879.476	54.95
879.648	44.71
879.82	-41.3
879.993	48.81
880.165	18.09
880.337	65.19
880.509	-4.44
880.681	-2.39
880.854	-45.4
881.026	26.28
881.198	-2.39
881.37	11.95
881.542	65.19
881.714	-8.53
881.886	-6.49
882.058	22.19
882.23	-2.39
882.402	-2.39
882.574	-37.2
882.746	11.95
882.918	40.62
883.09	-2.39
883.262	1.71
883.434	-4.44
883.606	-10.58
883.778	46.76
883.95	63.15
884.122	-35.16
884.293	-0.34
884.465	-39.25
884.637	63.15
884.809	36.52
884.98	13.99
885.152	-14.68
885.324	-2.39
885.496	-49.49
885.667	-18.77
885.839	-47.44
886.011	102.06
886.182	26.28
886.354	1.71
886.525	-4.44
886.697	22.19
886.869	-20.82
887.04	5.8
887.212	67.24
887.383	38.57
887.555	-4.44
887.726	11.95
887.897	-26.96
888.069	-10.58
888.24	-0.34
888.412	-37.2
888.583	52.91
888.754	-37.2
888.926	-76.12
889.097	13.99
889.268	-24.92
889.44	-0.34
889.611	-43.35
889.782	11.95
889.953	26.28
890.125	-33.11
890.296	52.91
890.467	-20.82
890.638	-31.06
890.809	57
890.98	-12.63
891.151	-6.49
891.323	30.38
891.494	9.9
891.665	24.23
891.836	5.8
892.007	-31.06
892.178	-16.73
892.349	97.96
892.52	-74.07
892.691	5.8
892.862	9.9
893.032	-24.92
893.203	46.76
893.374	-35.16
893.545	-43.35
893.716	3.75
893.887	-24.92
894.057	13.99
894.228	-6.49
894.399	-12.63
894.57	-29.01
894.74	65.19
894.911	28.33
895.082	18.09
895.253	24.23
895.423	-6.49
895.594	-57.68
895.764	-14.68
895.935	16.04
896.106	7.85
896.276	-0.34
896.447	-4.44
896.617	26.28
896.788	18.09
896.958	-78.16
897.129	-20.82
897.299	11.95
897.47	-26.96
897.64	24.23
897.81	5.8
897.981	-0.34
898.151	-20.82
898.322	7.85
898.492	-94.55
898.662	-26.96
898.832	-8.53
899.003	-2.39
899.173	-65.88
899.343	20.14
899.513	-31.06
