Data from USB4F104151__50__11-45-11-310.txt Node

Date: Fri Mar 14 11:45:11 EDT 2025
User: louis
Spectrometer: USB4F10415
Trigger mode: 4
Integration Time (sec): 2.000000E-2
Scans to average: 1
Electric dark correction enabled: true
Nonlinearity correction enabled: false
Boxcar width: 0
XAxis mode: Wavelengths
Number of Pixels in Spectrum: 3648
>>>>>Begin Spectral Data<<<<<
178.204	-38.91
178.424	-38.91
178.644	-38.91
178.864	-26.62
179.084	16.38
179.304	-26.62
179.524	94.21
179.744	32.77
179.964	-20.48
180.184	26.62
180.404	-32.77
180.624	40.96
180.844	-8.19
181.064	-59.39
181.283	16.38
181.503	-55.3
181.723	-8.19
181.943	18.43
182.163	-45.06
182.383	30.72
182.602	116.73
182.822	34.82
183.042	8.19
183.262	-43.01
183.482	-36.86
183.701	43.01
183.921	14.34
184.141	-86.01
184.361	-40.96
184.58	-34.82
184.8	18.43
185.02	-24.58
185.239	51.2
185.459	18.43
185.679	47.1
185.898	-12.29
186.118	59.39
186.338	51.2
186.557	53.25
186.777	-26.62
186.997	92.16
187.216	-61.44
187.436	18.43
187.655	53.25
187.875	83.97
188.095	24.58
188.314	26.62
188.534	86.01
188.753	18.43
188.973	49.15
189.192	108.54
189.412	34.82
189.631	43.01
189.851	18.43
190.07	49.15
190.29	-14.34
190.509	-40.96
190.729	86.01
190.948	53.25
191.168	108.54
191.387	36.86
191.607	28.67
191.826	16.38
192.045	40.96
192.265	2.05
192.484	45.06
192.704	2.05
192.923	-55.3
193.142	20.48
193.362	40.96
193.581	81.92
193.8	-8.19
194.02	83.97
194.239	-32.77
194.458	10.24
194.678	-8.19
194.897	-57.34
195.116	34.82
195.335	69.63
195.555	73.73
195.774	-67.58
195.993	67.58
196.212	-32.77
196.432	-20.48
196.651	-6.14
196.87	-79.87
197.089	63.49
197.308	-4.1
197.528	-14.34
197.747	16.38
197.966	-51.2
198.185	75.77
198.404	-2.05
198.623	47.1
198.842	112.64
199.062	38.91
199.281	32.77
199.5	6.14
199.719	40.96
199.938	-24.58
200.157	18.43
200.376	34.82
200.595	-38.91
200.814	24.58
201.033	-16.38
201.252	90.11
201.471	8.19
201.69	77.82
201.909	45.06
202.128	12.29
202.347	-6.14
202.566	-24.58
202.785	-30.72
203.004	-49.15
203.223	55.3
203.442	53.25
203.661	16.38
203.879	38.91
204.098	63.49
204.317	49.15
204.536	-24.58
204.755	-6.14
204.974	8.19
205.193	-18.43
205.411	40.96
205.63	20.48
205.849	-2.05
206.068	83.97
206.287	0
206.505	28.67
206.724	30.72
206.943	-14.34
207.162	24.58
207.381	26.62
207.599	24.58
207.818	73.73
208.037	26.62
208.255	49.15
208.474	61.44
208.693	12.29
208.911	40.96
209.13	36.86
209.349	-57.34
209.567	-30.72
209.786	55.3
210.005	43.01
210.223	-55.3
210.442	47.1
210.661	-53.25
210.879	-18.43
211.098	10.24
211.316	43.01
211.535	10.24
211.753	26.62
211.972	34.82
212.191	79.87
212.409	-20.48
212.628	16.38
212.846	59.39
213.065	81.92
213.283	49.15
213.502	-26.62
213.72	-12.29
213.938	38.91
214.157	63.49
214.375	-28.67
214.594	22.53
214.812	34.82
215.031	57.34
215.249	-8.19
215.467	-18.43
215.686	38.91
215.904	94.21
216.122	-32.77
216.341	18.43
216.559	38.91
216.778	-14.34
216.996	-86.01
217.214	30.72
217.432	61.44
217.651	18.43
217.869	51.2
218.087	100.35
218.306	14.34
218.524	26.62
218.742	4.1
218.96	-4.1
219.179	2.05
219.397	16.38
219.615	2.05
219.833	34.82
220.051	-16.38
220.27	45.06
220.488	77.82
220.706	-14.34
220.924	10.24
221.142	49.15
221.36	59.39
221.578	-10.24
221.796	-10.24
222.015	16.38
222.233	30.72
222.451	86.01
222.669	-16.38
222.887	28.67
223.105	-45.06
223.323	-16.38
223.541	49.15
223.759	22.53
223.977	30.72
224.195	12.29
224.413	18.43
224.631	-32.77
224.849	-38.91
225.067	104.45
225.285	-18.43
225.503	24.58
225.721	18.43
225.939	-12.29
226.157	36.86
226.375	96.25
226.592	-14.34
226.81	36.86
227.028	-57.34
227.246	51.2
227.464	14.34
227.682	20.48
227.9	36.86
228.117	0
228.335	-32.77
228.553	-10.24
228.771	4.1
228.989	26.62
229.206	-28.67
229.424	53.25
229.642	73.73
229.86	6.14
230.077	86.01
230.295	-8.19
230.513	47.1
230.731	18.43
230.948	24.58
231.166	120.83
231.384	-18.43
231.601	53.25
231.819	40.96
232.037	-16.38
232.254	49.15
232.472	36.86
232.689	-63.49
232.907	55.3
233.125	30.72
233.342	79.87
233.56	38.91
233.777	-36.86
233.995	-8.19
234.213	83.97
234.43	67.58
234.648	71.68
234.865	24.58
235.083	0
235.3	20.48
235.518	-6.14
235.735	36.86
235.953	92.16
236.17	6.14
236.388	-63.49
236.605	-88.06
236.822	49.15
237.04	-28.67
237.257	88.06
237.475	75.77
237.692	-6.14
237.909	67.58
238.127	-26.62
238.344	32.77
238.562	63.49
238.779	0
238.996	55.3
239.214	-2.05
239.431	0
239.648	-57.34
239.865	22.53
240.083	47.1
240.3	32.77
240.517	49.15
240.735	-30.72
240.952	2.05
241.169	40.96
241.386	-4.1
241.603	30.72
241.821	-18.43
242.038	57.34
242.255	-47.1
242.472	43.01
242.689	24.58
242.907	12.29
243.124	26.62
243.341	6.14
243.558	47.1
243.775	16.38
243.992	12.29
244.209	22.53
244.426	90.11
244.643	38.91
244.86	16.38
245.078	51.2
245.295	12.29
245.512	34.82
245.729	6.14
245.946	34.82
246.163	14.34
246.38	20.48
246.597	-10.24
246.814	0
247.031	-26.62
247.248	6.14
247.464	65.54
247.681	-18.43
247.898	77.82
248.115	79.87
248.332	30.72
248.549	112.64
248.766	30.72
248.983	88.06
249.2	10.24
249.417	79.87
249.633	8.19
249.85	-26.62
250.067	10.24
250.284	43.01
250.501	73.73
250.717	28.67
250.934	6.14
251.151	28.67
251.368	-2.05
251.585	18.43
251.801	75.77
252.018	38.91
252.235	10.24
252.451	-45.06
252.668	18.43
252.885	86.01
253.102	14.34
253.318	63.49
253.535	-32.77
253.752	79.87
253.968	0
254.185	26.62
254.401	-10.24
254.618	0
254.835	-40.96
255.051	98.3
255.268	55.3
255.484	22.53
255.701	-6.14
255.917	43.01
256.134	18.43
256.351	-36.86
256.567	-10.24
256.784	75.77
257	-18.43
257.217	45.06
257.433	-8.19
257.65	63.49
257.866	-4.1
258.082	18.43
258.299	-4.1
258.515	36.86
258.732	30.72
258.948	-10.24
259.165	34.82
259.381	24.58
259.597	2.05
259.814	10.24
260.03	-8.19
260.246	22.53
260.463	-26.62
260.679	16.38
260.895	2.05
261.112	28.67
261.328	2.05
261.544	-45.06
261.761	18.43
261.977	24.58
262.193	38.91
262.409	-4.1
262.626	40.96
262.842	77.82
263.058	-28.67
263.274	59.39
263.49	67.58
263.707	-8.19
263.923	43.01
264.139	59.39
264.355	8.19
264.571	-8.19
264.787	32.77
265.004	69.63
265.22	-22.53
265.436	26.62
265.652	34.82
265.868	88.06
266.084	16.38
266.3	57.34
266.516	-20.48
266.732	65.54
266.948	22.53
267.164	4.1
267.38	16.38
267.596	26.62
267.812	47.1
268.028	-16.38
268.244	8.19
268.46	-22.53
268.676	65.54
268.892	32.77
269.108	-18.43
269.324	22.53
269.54	38.91
269.756	126.97
269.972	77.82
270.188	4.1
270.403	16.38
270.619	-38.91
270.835	12.29
271.051	-26.62
271.267	40.96
271.483	-43.01
271.698	45.06
271.914	75.77
272.13	40.96
272.346	22.53
272.562	-8.19
272.777	43.01
272.993	96.25
273.209	0
273.425	51.2
273.64	-32.77
273.856	159.74
274.072	24.58
274.287	-28.67
274.503	34.82
274.719	57.34
274.934	16.38
275.15	-10.24
275.366	-22.53
275.581	59.39
275.797	28.67
276.012	38.91
276.228	63.49
276.444	-22.53
276.659	59.39
276.875	-16.38
277.09	8.19
277.306	4.1
277.521	26.62
277.737	26.62
277.952	-32.77
278.168	-10.24
278.383	77.82
278.599	-47.1
278.814	22.53
279.03	-51.2
279.245	79.87
279.461	51.2
279.676	30.72
279.892	-22.53
280.107	20.48
280.322	-16.38
280.538	61.44
280.753	10.24
280.969	83.97
281.184	-8.19
281.399	28.67
281.615	34.82
281.83	8.19
282.045	-26.62
282.26	-34.82
282.476	28.67
282.691	20.48
282.906	-6.14
283.122	38.91
283.337	-6.14
283.552	110.59
283.767	-16.38
283.983	-24.58
284.198	18.43
284.413	12.29
284.628	12.29
284.843	6.14
285.058	2.05
285.274	12.29
285.489	26.62
285.704	43.01
285.919	45.06
286.134	96.25
286.349	65.54
286.564	34.82
286.779	34.82
286.995	67.58
287.21	-4.1
287.425	45.06
287.64	22.53
287.855	-10.24
288.07	-45.06
288.285	47.1
288.5	26.62
288.715	36.86
288.93	18.43
289.145	40.96
289.36	49.15
289.575	0
289.79	38.91
290.004	34.82
290.219	10.24
290.434	40.96
290.649	-26.62
290.864	-6.14
291.079	57.34
291.294	51.2
291.509	34.82
291.724	-47.1
291.938	45.06
292.153	53.25
292.368	20.48
292.583	100.35
292.798	94.21
293.012	0
293.227	73.73
293.442	20.48
293.657	34.82
293.871	-14.34
294.086	61.44
294.301	38.91
294.516	81.92
294.73	55.3
294.945	-24.58
295.16	75.77
295.374	47.1
295.589	59.39
295.804	73.73
296.018	6.14
296.233	61.44
296.447	38.91
296.662	49.15
296.877	-16.38
297.091	45.06
297.306	57.34
297.52	-8.19
297.735	49.15
297.949	45.06
298.164	0
298.378	-47.1
298.593	-28.67
298.807	26.62
299.022	49.15
299.236	8.19
299.451	-6.14
299.665	-12.29
299.88	-40.96
300.094	-22.53
300.309	32.77
300.523	65.54
300.737	69.63
300.952	51.2
301.166	24.58
301.381	8.19
301.595	-2.05
301.809	-2.05
302.024	57.34
302.238	47.1
302.452	43.01
302.667	-8.19
302.881	-14.34
303.095	47.1
303.309	69.63
303.524	75.77
303.738	-30.72
303.952	24.58
304.166	26.62
304.381	20.48
304.595	94.21
304.809	43.01
305.023	59.39
305.237	-14.34
305.452	-24.58
305.666	61.44
305.88	28.67
306.094	-4.1
306.308	90.11
306.522	14.34
306.736	36.86
306.95	49.15
307.164	38.91
307.379	12.29
307.593	14.34
307.807	-2.05
308.021	45.06
308.235	36.86
308.449	4.1
308.663	34.82
308.877	69.63
309.091	40.96
309.305	30.72
309.519	-36.86
309.733	20.48
309.947	-55.3
310.161	26.62
310.374	10.24
310.588	20.48
310.802	-12.29
311.016	47.1
311.23	24.58
311.444	26.62
311.658	32.77
311.872	59.39
312.085	32.77
312.299	88.06
312.513	12.29
312.727	57.34
312.941	53.25
313.154	16.38
313.368	-10.24
313.582	47.1
313.796	16.38
314.009	45.06
314.223	30.72
314.437	69.63
314.651	-22.53
314.864	38.91
315.078	32.77
315.292	-24.58
315.505	34.82
315.719	47.1
315.933	10.24
316.146	-22.53
316.36	-14.34
316.573	102.4
316.787	43.01
317.001	57.34
317.214	-24.58
317.428	38.91
317.641	51.2
317.855	10.24
318.068	-14.34
318.282	20.48
318.495	0
318.709	-28.67
318.922	38.91
319.136	40.96
319.349	-28.67
319.563	24.58
319.776	14.34
319.99	18.43
320.203	32.77
320.417	30.72
320.63	92.16
320.843	38.91
321.057	102.4
321.27	-16.38
321.483	67.58
321.697	18.43
321.91	49.15
322.124	45.06
322.337	26.62
322.55	-10.24
322.763	10.24
322.977	51.2
323.19	77.82
323.403	40.96
323.617	126.97
323.83	81.92
324.043	63.49
324.256	2.05
324.469	34.82
324.683	24.58
324.896	-8.19
325.109	51.2
325.322	20.48
325.535	-14.34
325.748	2.05
325.962	24.58
326.175	43.01
326.388	16.38
326.601	96.25
326.814	69.63
327.027	-8.19
327.24	116.73
327.453	24.58
327.666	-34.82
327.879	88.06
328.092	49.15
328.305	30.72
328.518	63.49
328.731	79.87
328.944	71.68
329.157	28.67
329.37	-8.19
329.583	65.54
329.796	28.67
330.009	-47.1
330.222	36.86
330.435	22.53
330.648	81.92
330.861	26.62
331.073	34.82
331.286	24.58
331.499	53.25
331.712	-22.53
331.925	26.62
332.138	40.96
332.35	69.63
332.563	6.14
332.776	67.58
332.989	-34.82
333.202	-18.43
333.414	73.73
333.627	57.34
333.84	2.05
334.053	67.58
334.265	6.14
334.478	-16.38
334.691	-4.1
334.903	20.48
335.116	-16.38
335.329	-20.48
335.541	6.14
335.754	83.97
335.966	36.86
336.179	10.24
336.392	-6.14
336.604	-38.91
336.817	4.1
337.029	20.48
337.242	57.34
337.454	100.35
337.667	22.53
337.88	75.77
338.092	-4.1
338.305	63.49
338.517	2.05
338.729	61.44
338.942	124.93
339.154	20.48
339.367	8.19
339.579	106.49
339.792	73.73
340.004	32.77
340.217	43.01
340.429	28.67
340.641	43.01
340.854	86.01
341.066	16.38
341.278	-12.29
341.491	34.82
341.703	49.15
341.915	-24.58
342.128	102.4
342.34	-6.14
342.552	-6.14
342.764	71.68
342.977	14.34
343.189	38.91
343.401	61.44
343.613	-10.24
343.826	20.48
344.038	-43.01
344.25	22.53
344.462	36.86
344.674	12.29
344.886	34.82
345.099	18.43
345.311	79.87
345.523	63.49
345.735	61.44
345.947	12.29
346.159	112.64
346.371	122.88
346.583	8.19
346.795	59.39
347.007	-20.48
347.219	18.43
347.431	24.58
347.643	55.3
347.855	24.58
348.067	147.45
348.279	40.96
348.491	94.21
348.703	45.06
348.915	12.29
349.127	0
349.339	-22.53
349.551	36.86
349.763	75.77
349.975	63.49
350.187	81.92
350.399	120.83
350.61	63.49
350.822	40.96
351.034	38.91
351.246	4.1
351.458	59.39
351.669	-8.19
351.881	55.3
352.093	24.58
352.305	36.86
352.517	81.92
352.728	45.06
352.94	79.87
353.152	26.62
353.363	-22.53
353.575	106.49
353.787	71.68
353.999	32.77
354.21	51.2
354.422	57.34
354.633	38.91
354.845	88.06
355.057	30.72
355.268	79.87
355.48	100.35
355.692	24.58
355.903	71.68
356.115	8.19
356.326	-110.59
356.538	38.91
356.749	79.87
356.961	34.82
357.172	53.25
357.384	10.24
357.595	131.07
357.807	22.53
358.018	12.29
358.23	75.77
358.441	79.87
358.653	51.2
358.864	-30.72
359.075	-65.53
359.287	51.2
359.498	45.06
359.709	26.62
359.921	38.91
360.132	102.4
360.344	32.77
360.555	36.86
360.766	-4.1
360.977	53.25
361.189	24.58
361.4	43.01
361.611	94.21
361.823	73.73
362.034	-47.1
362.245	-6.14
362.456	34.82
362.667	34.82
362.879	34.82
363.09	6.14
363.301	92.16
363.512	75.77
363.723	-14.34
363.935	65.54
364.146	129.02
364.357	28.67
364.568	129.02
364.779	-30.72
364.99	88.06
365.201	18.43
365.412	108.54
365.623	-20.48
365.834	0
366.045	-22.53
366.256	8.19
366.467	114.69
366.678	53.25
366.889	6.14
367.1	24.58
367.311	32.77
367.522	51.2
367.733	65.54
367.944	45.06
368.155	2.05
368.366	26.62
368.577	24.58
368.788	57.34
368.999	65.54
369.209	47.1
369.42	57.34
369.631	135.17
369.842	-10.24
370.053	2.05
370.264	65.54
370.474	57.34
370.685	106.49
370.896	59.39
371.107	26.62
371.317	65.54
371.528	6.14
371.739	83.97
371.95	-2.05
372.16	73.73
372.371	8.19
372.582	55.3
372.792	28.67
373.003	28.67
373.214	26.62
373.424	63.49
373.635	-4.1
373.846	63.49
374.056	4.1
374.267	126.97
374.477	98.3
374.688	47.1
374.898	26.62
375.109	135.17
375.319	49.15
375.53	8.19
375.74	-2.05
375.951	81.92
376.161	102.4
376.372	24.58
376.582	40.96
376.793	118.78
377.003	63.49
377.214	0
377.424	55.3
377.635	98.3
377.845	-16.38
378.055	79.87
378.266	22.53
378.476	26.62
378.686	-8.19
378.897	94.21
379.107	96.25
379.317	67.58
379.528	4.1
379.738	81.92
379.948	-10.24
380.158	16.38
380.369	45.06
380.579	53.25
380.789	92.16
380.999	47.1
381.21	22.53
381.42	75.77
381.63	53.25
381.84	65.54
382.05	36.86
382.261	8.19
382.471	6.14
382.681	98.3
382.891	0
383.101	40.96
383.311	2.05
383.521	81.92
383.731	2.05
383.941	45.06
384.151	77.82
384.361	-18.43
384.571	69.63
384.781	16.38
384.991	96.25
385.201	79.87
385.411	55.3
385.621	6.14
385.831	18.43
386.041	102.4
386.251	59.39
386.461	116.73
386.671	20.48
386.881	81.92
387.091	51.2
387.301	73.73
387.511	-24.58
387.72	100.35
387.93	47.1
388.14	40.96
388.35	63.49
388.56	69.63
388.769	26.62
388.979	6.14
389.189	98.3
389.399	86.01
389.609	43.01
389.818	61.44
390.028	49.15
390.238	83.97
390.447	0
390.657	96.25
390.867	10.24
391.076	65.54
391.286	22.53
391.496	59.39
391.705	16.38
391.915	100.35
392.125	57.34
392.334	55.3
392.544	32.77
392.753	34.82
392.963	57.34
393.172	139.26
393.382	86.01
393.591	116.73
393.801	92.16
394.01	104.45
394.22	81.92
394.429	53.25
394.639	90.11
394.848	92.16
395.058	51.2
395.267	96.25
395.477	61.44
395.686	71.68
395.895	4.1
396.105	63.49
396.314	169.98
396.524	63.49
396.733	51.2
396.942	100.35
397.152	-4.1
397.361	155.65
397.57	69.63
397.78	90.11
397.989	-6.14
398.198	94.21
398.407	96.25
398.617	149.5
398.826	81.92
399.035	77.82
399.244	124.93
399.453	69.63
399.663	69.63
399.872	180.22
400.081	92.16
400.29	116.73
400.499	90.11
400.708	65.54
400.917	124.93
401.127	65.54
401.336	79.87
401.545	159.74
401.754	159.74
401.963	96.25
402.172	57.34
402.381	126.97
402.59	124.93
402.799	96.25
403.008	96.25
403.217	110.59
403.426	126.97
403.635	143.36
403.844	86.01
404.053	118.78
404.262	116.73
404.471	206.84
404.68	157.69
404.888	159.74
405.097	153.6
405.306	118.78
405.515	151.55
405.724	98.3
405.933	186.37
406.142	198.65
406.35	163.84
406.559	221.18
406.768	188.41
406.977	174.08
407.185	221.18
407.394	124.93
407.603	200.7
407.812	169.98
408.02	196.61
408.229	292.86
408.438	253.95
408.646	196.61
408.855	210.94
409.064	180.22
409.272	253.95
409.481	249.85
409.69	270.33
409.898	282.62
410.107	305.15
410.315	305.15
410.524	296.96
410.733	352.25
410.941	251.9
411.15	425.98
411.358	364.54
411.567	397.31
411.775	436.22
411.984	411.64
412.192	368.63
412.401	436.22
412.609	456.7
412.818	430.07
413.026	532.47
413.234	446.46
413.443	479.22
413.651	552.95
413.86	575.48
414.068	595.96
414.276	686.07
414.485	591.86
414.693	632.82
414.901	724.98
415.11	702.45
415.318	708.6
415.526	751.6
415.734	763.89
415.943	751.6
416.151	817.14
416.359	864.24
416.567	849.91
416.776	925.68
416.984	954.35
417.192	1040.37
417.4	991.22
417.608	919.54
417.817	989.17
418.025	1126.38
418.233	1112.05
418.441	1198.06
418.649	1191.92
418.857	1265.64
419.065	1226.73
419.273	1222.64
419.481	1382.38
419.689	1363.95
419.897	1445.87
420.105	1492.97
420.313	1492.97
420.521	1529.83
420.729	1675.24
420.937	1642.47
421.145	1802.21
421.353	1894.37
421.561	2029.54
421.769	2000.87
421.977	2052.06
422.185	1902.56
422.393	2279.39
422.601	2271.2
422.809	2269.15
423.017	2222.05
423.224	2432.99
423.432	2416.6
423.64	2400.22
423.848	2756.57
424.056	2709.46
424.263	2813.91
424.471	2848.72
424.679	3004.37
424.887	3039.19
425.094	3180.5
425.302	3184.59
425.51	3254.22
425.718	3411.92
425.925	3434.44
426.133	3549.13
426.341	3694.54
426.548	3835.85
426.756	4042.69
426.964	3891.14
427.171	4128.7
427.379	4192.19
427.586	4327.36
427.794	4435.9
428.001	4638.65
428.209	4896.69
428.417	4693.94
428.624	5263.28
428.832	5248.94
429.039	5246.9
429.247	5339.05
429.454	5697.45
429.662	6213.54
429.869	5752.74
430.076	5939.11
430.284	5980.07
430.491	6029.22
430.699	6399.9
430.906	6438.81
431.114	6633.37
431.321	6610.84
431.528	6836.12
431.736	7253.91
431.943	7534.48
432.15	7323.54
432.358	7362.45
432.565	8146.82
432.772	8138.63
432.979	8439.68
433.187	8507.26
433.394	8431.49
433.601	9009.01
433.808	9144.18
434.016	9156.47
434.223	9604.97
434.43	9965.42
434.637	9750.38
434.844	10436.45
435.052	10850.14
435.259	10688.35
435.466	10714.97
435.673	10606.43
435.88	11296.6
436.087	11829.07
436.294	11898.7
436.501	11796.3
436.708	11792.2
436.915	12216.13
437.122	12764.99
437.329	12795.71
437.537	13158.2
437.743	13373.24
437.95	13211.45
438.157	13903.66
438.364	14522.15
438.571	14364.45
438.778	14630.69
438.985	16004.88
439.192	15200.02
439.399	15611.67
439.606	15345.43
439.813	16377.61
440.02	17458.93
440.227	16936.7
440.433	16822.02
440.64	17293.05
440.847	17438.45
441.054	17487.61
441.261	18851.55
441.467	18650.85
441.674	19042.01
441.881	19554.01
442.088	19683.03
442.294	19375.83
442.501	19967.7
442.708	20555.46
442.914	21352.12
443.121	22054.58
443.328	21624.5
443.534	23154.33
443.741	22343.34
443.948	21982.9
444.154	23467.67
444.361	23578.26
444.568	23629.46
444.774	23400.09
444.981	23735.96
445.187	24630.92
445.394	25742.97
445.6	25171.58
445.807	27721.3
446.013	26639.98
446.22	27248.22
446.426	28274.26
446.633	28216.91
446.839	29605.44
447.046	28145.23
447.252	29625.92
447.459	29498.94
447.665	29414.98
447.871	31067.69
448.078	31976.98
448.284	30553.65
448.491	31587.87
448.697	32937.48
448.903	33349.12
449.11	33412.61
449.316	32927.24
449.522	33406.47
449.728	34227.7
449.935	34813.42
450.141	34559.47
450.347	35325.41
450.553	34565.62
450.76	34825.71
450.966	35644.9
451.172	35124.71
451.378	36709.84
451.584	35479.01
451.791	36531.67
451.997	36466.13
452.203	37129.67
452.409	37164.49
452.615	36572.63
452.821	35712.48
453.027	35349.99
453.233	36820.43
453.44	35878.36
453.646	35661.28
453.852	36136.41
454.058	37084.62
454.264	35411.43
454.47	36474.32
454.676	35542.5
454.882	36410.84
455.088	33054.22
455.294	33975.8
455.5	34332.15
455.705	34844.14
455.911	33400.32
456.117	32931.34
456.323	32175.64
456.529	30733.87
456.735	32009.75
456.941	31321.63
457.147	30799.4
457.352	29951.54
457.558	29453.89
457.764	29871.67
457.97	28814.92
458.176	28266.06
458.381	28202.58
458.587	26764.9
458.793	26996.32
458.999	25351.81
459.204	27164.26
459.41	26375.79
459.616	24753.8
459.821	24979.07
460.027	24553.1
460.233	24424.08
460.438	22963.87
460.644	23434.91
460.85	22253.23
461.055	22030
461.261	21860.02
461.466	20233.93
461.672	19605.2
461.878	21028.54
462.083	19355.35
462.289	19160.8
462.494	18896.61
462.7	18280.17
462.905	17802.99
463.111	18181.87
463.316	18394.86
463.522	18153.19
463.727	18097.9
463.932	17929.97
464.138	17968.88
464.343	17768.18
464.549	17174.27
464.754	17860.34
464.959	17737.46
465.165	17409.78
465.37	16824.06
465.575	16447.24
465.781	17002.24
465.986	17043.2
466.191	16604.93
466.397	16099.08
466.602	15550.23
466.807	16123.66
467.012	16314.12
467.218	15652.63
467.423	15642.39
467.628	15879.95
467.833	16563.97
468.038	15834.89
468.244	15404.82
468.449	16103.18
468.654	15468.31
468.859	15552.27
469.064	15529.75
469.269	14595.87
469.474	14982.94
469.679	15161.11
469.885	14520.1
470.09	15025.95
470.295	14679.84
470.5	14352.16
470.705	14565.15
470.91	14075.69
471.115	14223.14
471.32	14147.37
471.525	14331.69
471.73	13784.88
471.935	13733.68
472.139	13469.49
472.344	13506.35
472.549	13541.17
472.754	13584.18
472.959	12873.53
473.164	12705.6
473.369	12498.75
473.574	13092.66
473.778	12822.33
473.983	12638.02
474.188	12582.72
474.393	12255.05
474.598	11966.28
474.802	12126.02
475.007	12066.63
475.212	11966.28
475.417	11466.58
475.621	11417.43
475.826	11591.5
476.031	11321.17
476.235	11046.74
476.44	11472.72
476.645	11171.67
476.849	11192.15
477.054	10823.51
477.259	11018.07
477.463	11075.41
477.668	10317.67
477.872	10790.75
478.077	10497.89
478.282	10391.39
478.486	10119.01
478.691	10159.97
478.895	10096.49
479.1	9822.06
479.304	10231.65
479.509	9617.26
479.713	9504.62
479.918	9490.29
480.122	9482.1
480.326	9598.83
480.531	9641.84
480.735	9527.15
480.94	9625.45
481.144	9682.8
481.348	9457.52
481.553	9494.38
481.757	9185.14
481.961	9430.9
482.166	9494.38
482.37	9316.21
482.574	9019.25
482.778	9326.45
482.983	9459.57
483.187	9426.8
483.391	9344.88
483.595	9019.25
483.8	9297.78
484.004	9140.08
484.208	9277.3
484.412	9254.77
484.616	9006.97
484.821	9234.29
485.025	8957.82
485.229	9279.35
485.433	9039.73
485.637	8970.1
485.841	9109.36
486.045	9193.33
486.249	8957.82
486.453	9017.21
486.657	9152.37
486.861	9179
487.065	9115.51
487.269	9154.42
487.473	9158.52
487.677	9109.36
487.881	9398.13
488.085	9224.05
488.289	9166.71
488.493	9045.88
488.697	9240.43
488.901	9281.39
489.105	9162.61
489.309	9377.65
489.512	9291.63
489.716	9457.52
489.92	9365.36
490.124	9434.99
490.328	9369.46
490.531	9377.65
490.735	9383.79
490.939	9588.59
491.143	9576.3
491.346	9512.81
491.55	9793.39
491.754	9533.29
491.958	9738.09
492.161	9695.08
492.365	9770.86
492.569	9615.21
492.772	9545.58
492.976	9742.19
493.18	9697.13
493.383	10049.38
493.587	10094.44
493.79	10172.26
493.994	10030.95
494.197	9924.46
494.401	10428.26
494.605	10133.35
494.808	10286.95
495.012	10233.7
495.215	10202.98
495.419	10557.28
495.622	10342.24
495.825	10467.17
496.029	10442.59
496.232	10766.17
496.436	10893.15
496.639	10999.64
496.843	10829.66
497.046	11224.92
497.249	11345.75
497.453	11243.35
497.656	11413.33
497.859	11560.78
498.063	11755.34
498.266	11951.95
498.469	11710.29
498.673	11833.16
498.876	12148.55
499.079	12216.13
499.282	12248.9
499.485	12660.54
499.689	12629.82
499.892	12857.15
500.095	12799.8
500.298	12900.16
500.501	12822.33
500.705	13205.3
500.908	13428.53
501.111	13555.51
501.314	13731.63
501.517	13838.12
501.72	13983.53
501.923	14135.08
502.126	14184.23
502.329	14624.54
502.532	14636.83
502.735	14645.02
502.938	14802.72
503.141	14839.58
503.344	15283.99
503.547	15183.64
503.75	15421.2
503.953	15769.36
504.156	15693.58
504.359	16068.36
504.562	15781.65
504.765	16260.87
504.968	16332.55
505.17	16717.57
505.373	16713.47
505.576	17055.48
505.779	17176.31
505.982	17227.51
506.185	17841.9
506.387	17583.86
506.59	17659.63
506.793	18343.66
506.996	18009.84
507.198	18720.48
507.401	18583.27
507.604	18527.97
507.807	18620.13
508.009	19281.63
508.212	19261.15
508.415	19601.11
508.617	19816.15
508.82	19586.77
509.022	19949.26
509.225	20256.46
509.428	20401.86
509.63	20455.11
509.833	20516.55
510.035	21178.04
510.238	21176
510.44	21352.12
510.643	21636.79
510.845	22066.86
511.048	21986.99
511.25	22085.29
511.453	22240.94
511.655	23082.66
511.858	22609.57
512.06	23250.59
512.262	23365.28
512.465	23185.05
512.667	23649.94
512.87	23459.48
513.072	23819.92
513.274	24159.89
513.477	24606.34
513.679	24766.09
513.881	25040.51
514.084	25378.43
514.286	25065.09
514.488	25333.37
514.69	25855.61
514.893	25611.9
515.095	26279.53
515.297	26400.37
515.499	26386.03
515.701	26584.68
515.904	27149.92
516.106	27346.53
516.308	27481.69
516.51	27672.15
516.712	27756.12
516.914	28098.13
517.116	28159.57
517.318	28477.01
517.52	28800.58
517.722	28993.09
517.925	29279.81
518.127	29810.23
518.329	29765.18
518.531	29595.2
518.733	30314.03
518.935	30490.16
519.136	30795.31
519.338	30895.66
519.54	31069.73
519.742	31039.01
519.944	31243.81
520.146	31788.57
520.348	31923.74
520.55	32542.22
520.752	32405.01
520.954	32880.14
521.155	32574.99
521.357	33115.65
521.559	33586.69
521.761	34039.29
521.963	33607.17
522.164	33732.09
522.366	34151.93
522.568	34500.08
522.77	34526.71
522.971	35493.35
523.173	34891.24
523.375	35155.43
523.576	35321.32
523.778	35388.9
523.98	35812.83
524.181	35798.49
524.383	35933.66
524.584	36070.87
524.786	36308.44
524.988	36525.52
525.189	36769.23
525.391	37047.75
525.592	36943.31
525.794	37322.18
525.995	37250.5
526.197	37412.29
526.398	37662.15
526.6	38145.47
526.801	37899.71
527.003	38235.58
527.204	37901.76
527.406	38200.76
527.607	38211
527.808	38794.67
528.01	38256.06
528.211	38843.82
528.412	39060.91
528.614	39251.37
528.815	39157.16
529.016	39417.25
529.218	38938.03
529.419	39554.47
529.62	39531.94
529.822	39468.45
530.023	39364.01
530.224	39366.06
530.425	39493.03
530.626	39388.58
530.828	39456.17
531.029	39828.9
531.23	39812.51
531.431	39964.06
531.632	39714.21
531.833	39855.52
532.035	39980.45
532.236	40209.82
532.437	40275.35
532.638	40121.76
532.839	40015.26
533.04	40234.39
533.241	39822.75
533.442	40719.76
533.643	40422.81
533.844	40074.65
534.045	40351.13
534.246	39935.39
534.447	40934.8
534.648	40584.6
534.849	40553.88
535.05	40445.33
535.251	40617.36
535.451	40398.23
535.652	40471.96
535.853	40519.06
536.054	40236.44
536.255	40707.47
536.456	40441.24
536.657	40883.6
536.857	40453.53
537.058	40310.17
537.259	40793.49
537.46	40650.13
537.66	40258.97
537.861	40617.36
538.062	40545.69
538.263	40590.74
538.463	40402.33
538.664	40582.55
538.865	40838.54
539.065	40920.46
539.266	40078.75
539.466	40572.31
539.667	40074.65
539.868	40684.95
540.068	40422.81
540.269	40557.97
540.469	40797.59
540.67	40107.42
540.87	40480.15
541.071	40496.53
541.271	40648.08
541.472	40179.1
541.672	39978.4
541.873	40076.7
542.073	39595.43
542.274	40138.14
542.474	40136.09
542.675	40125.85
542.875	40457.62
543.075	40179.1
543.276	39724.45
543.476	40525.21
543.676	40156.57
543.877	40519.06
544.077	40379.8
544.277	40332.7
544.478	39726.5
544.678	40674.71
544.878	40218.01
545.078	40295.83
545.279	39640.48
545.479	40037.79
545.679	40254.87
545.879	40263.07
546.079	39890.34
546.28	40129.95
546.48	40048.03
546.68	40113.56
546.88	40267.16
547.08	40351.13
547.28	39880.1
547.48	39626.15
547.68	40050.08
547.88	39644.58
548.081	40269.21
548.281	39925.15
548.481	39916.96
548.681	40463.77
548.881	39851.42
549.081	39624.1
549.28	39822.75
549.48	40160.67
549.68	39751.07
549.88	40486.29
550.08	39595.43
550.28	39718.31
550.48	39474.6
550.68	40050.08
550.88	39341.48
551.08	39785.89
551.279	39863.71
551.479	39443.88
551.679	39607.72
551.879	39611.81
552.079	39951.77
552.278	39488.93
552.478	39519.65
552.678	39767.46
552.878	39658.91
553.077	39609.76
553.277	39161.26
553.477	40420.76
553.676	39716.26
553.876	39433.64
554.076	39302.57
554.275	39185.83
554.475	38677.94
554.674	39468.45
554.874	39478.69
555.074	39161.26
555.273	39409.06
555.473	39620
555.672	39261.61
555.872	39181.74
556.071	39302.57
556.271	39079.34
556.47	39058.86
556.67	38749.62
556.869	38647.22
557.068	38782.38
557.268	39091.63
557.467	38946.22
557.667	39124.39
557.866	38755.76
558.065	38772.14
558.265	38512.05
558.464	38696.37
558.663	38911.41
558.863	38284.73
559.062	38993.32
559.261	38282.68
559.461	38806.96
559.66	38102.46
559.859	38313.4
560.058	38186.43
560.258	38432.18
560.457	38131.13
560.656	38452.66
560.855	37647.81
561.054	38059.45
561.253	37799.36
561.453	38100.41
561.652	37942.72
561.851	37932.48
562.05	37905.85
562.249	37782.98
562.448	38137.27
562.647	37842.37
562.846	37598.66
563.045	37424.58
563.244	37250.5
563.443	37678.53
563.642	36933.07
563.841	37490.12
564.04	36550.1
564.239	37578.18
564.438	37027.28
564.637	37107.15
564.836	37135.82
565.035	36718.03
565.234	37027.28
565.432	36779.47
565.631	36156.89
565.83	36947.4
566.029	36842.96
566.228	36320.73
566.427	36806.09
566.625	36376.02
566.824	36011.48
567.023	36560.34
567.222	35845.6
567.42	36265.43
567.619	36175.32
567.818	35882.46
568.016	36056.54
568.215	35675.62
568.414	35708.38
568.612	36154.84
568.811	35612.13
569.01	35304.93
569.208	35454.43
569.407	35378.66
569.605	34780.65
569.804	35470.82
570.002	35169.77
570.201	35280.36
570.4	35034.6
570.598	34754.03
570.797	34803.18
570.995	34586.1
571.193	34188.79
571.392	35075.56
571.59	34502.13
571.789	34432.5
571.987	34196.98
572.186	34424.31
572.384	34172.41
572.582	34438.64
572.781	34555.38
572.979	33670.65
573.177	33943.03
573.376	33873.4
573.574	33537.54
573.772	33781.24
573.971	33725.95
574.169	33373.7
574.367	33404.42
574.565	33601.02
574.763	33240.58
574.962	33193.48
575.16	32800.27
575.358	33742.33
575.556	32714.25
575.754	33086.98
575.952	32417.3
576.151	33349.12
576.349	32564.75
576.547	32474.64
576.745	32468.5
576.943	32790.03
577.141	32708.11
577.339	32562.7
577.537	32423.44
577.735	32163.35
577.933	32140.82
578.131	32314.9
578.329	32003.61
578.527	31866.39
578.725	31841.82
578.923	31868.44
579.121	31508
579.319	31551.01
579.516	31858.2
579.714	31317.54
579.912	31436.32
580.11	31264.29
580.308	31342.11
580.506	31247.91
580.704	30987.82
580.901	30838.31
581.099	31411.74
581.297	30889.51
581.495	31106.6
581.692	31110.69
581.89	30711.34
582.088	30973.48
582.285	30711.34
582.483	30791.21
582.681	30453.3
582.878	30230.07
583.076	30135.86
583.274	30271.03
583.471	30021.17
583.669	30113.33
583.866	29748.79
584.064	29974.07
584.262	29701.69
584.459	29736.51
584.657	29605.44
584.854	30029.37
585.052	29402.69
585.249	29535.81
585.447	29474.37
585.644	28862.02
585.841	29531.71
586.039	29144.64
586.236	28982.85
586.434	28814.92
586.631	28829.26
586.828	28778.06
587.026	28825.16
587.223	28825.16
587.42	28390.99
587.618	28651.08
587.815	28366.42
588.012	28278.35
588.21	28259.92
588.407	28343.89
588.604	28192.34
588.801	28079.7
588.999	28034.64
589.196	28104.28
589.393	27790.94
589.59	27719.26
589.787	27645.53
589.984	27582.04
590.182	27225.7
590.379	27479.64
590.576	27182.69
590.773	27567.71
590.97	27205.22
591.167	27223.65
591.364	26877.54
591.561	26857.06
591.758	26816.1
591.955	26584.68
592.152	27133.54
592.349	26656.36
592.546	26609.26
592.743	26386.03
592.94	26087.03
593.137	26576.49
593.334	26529.39
593.531	26097.27
593.727	26095.22
593.924	26142.32
594.121	25706.1
594.318	26136.18
594.515	25624.18
594.712	26009.2
594.908	25601.66
595.105	25878.13
595.302	25577.08
595.499	25615.99
595.696	25104
595.892	25325.18
596.089	25798.26
596.286	25632.38
596.482	25532.03
596.679	25077.38
596.876	25288.32
597.072	25099.9
597.269	25177.73
597.466	24923.78
597.662	24540.81
597.859	24780.42
598.055	24723.08
598.252	24653.45
598.448	24622.73
598.645	24469.13
598.841	24293.01
599.038	24299.15
599.234	24327.82
599.431	24080.02
599.627	24086.16
599.824	24067.73
600.02	24168.08
600.217	24075.92
600.413	23864.98
600.609	23930.51
600.806	23484.06
601.002	23715.48
601.198	23404.19
601.395	23475.87
601.591	23459.48
601.787	23250.59
601.984	23060.13
602.18	23111.33
602.376	23103.14
602.572	22767.27
602.769	23117.47
602.965	22718.12
603.161	23232.16
603.357	22720.17
603.553	22800.04
603.75	22816.42
603.946	22447.79
604.142	22791.84
604.338	22398.63
604.534	22644.39
604.73	22343.34
604.926	22382.25
605.122	22042.29
605.318	22101.68
605.514	22306.48
605.71	22003.38
605.906	21839.54
606.102	21833.39
606.298	21950.13
606.494	21638.84
606.69	21585.59
606.886	21802.68
607.082	21388.99
607.278	21788.34
607.474	21325.5
607.67	21513.91
607.866	21094.08
608.062	21743.28
608.257	21307.07
608.453	21053.12
608.649	21077.69
608.845	21298.87
609.041	21202.62
609.236	21014.21
609.432	21098.17
609.628	21223.1
609.824	20838.08
610.019	20647.62
610.215	20876.99
610.411	21032.64
610.606	20922.05
610.802	20981.44
610.998	20524.74
611.193	20721.35
611.389	20582.09
611.584	20575.94
611.78	20297.42
611.976	20657.86
612.171	20215.5
612.367	20518.6
612.562	20268.75
612.758	19953.36
612.953	20188.88
613.149	20444.87
613.344	20186.83
613.539	20664
613.735	20231.88
613.93	20537.03
614.126	20104.91
614.321	20438.73
614.517	20141.77
614.712	20059.85
614.907	19979.98
615.103	19984.08
615.298	20125.39
615.493	20295.37
615.688	19777.23
615.884	20006.61
616.079	19541.72
616.274	19924.69
616.47	19994.32
616.665	19910.35
616.86	19539.67
617.055	19797.71
617.25	19594.96
617.445	19607.25
617.641	19310.3
617.836	19418.84
618.031	19132.12
618.226	19318.49
618.421	19281.63
618.616	19259.1
618.811	18906.85
619.006	18992.86
619.201	18736.87
619.396	18996.96
619.591	18624.23
619.786	18691.81
619.981	18652.9
620.176	18679.52
620.371	18417.38
620.566	18636.52
620.761	18331.37
620.956	18560.74
621.151	18198.25
621.346	18517.73
621.541	17905.39
621.735	18173.67
621.93	17487.61
622.125	17710.83
622.32	17682.16
622.515	17659.63
622.709	17366.77
622.904	17487.61
623.099	17598.2
623.294	17434.36
623.488	17233.66
623.683	17219.32
623.878	16686.85
624.072	16813.82
624.267	17196.79
624.462	16840.45
624.656	16293.64
624.851	16856.83
625.046	16299.78
625.24	16535.3
625.435	16244.49
625.629	16418.57
625.824	16051.98
626.018	16379.65
626.213	15771.41
626.407	16000.78
626.602	15738.64
626.796	15738.64
626.991	15650.58
627.185	15726.35
627.38	15628.05
627.574	15370.01
627.768	15320.85
627.963	15372.05
628.157	14958.36
628.352	15161.11
628.546	14931.74
628.74	15224.6
628.935	14853.92
629.129	14700.32
629.323	14661.41
629.517	14540.58
629.712	14450.47
629.906	14647.07
630.1	14219.05
630.294	14409.51
630.489	14251.81
630.683	14219.05
630.877	14028.59
631.071	13924.14
631.265	13954.86
631.459	13715.25
631.653	13762.35
631.848	13899.56
632.042	13782.83
632.236	13688.62
632.43	13408.05
632.624	13788.97
632.818	13252.41
633.012	13408.05
633.206	13178.68
633.4	13410.1
633.594	12994.36
633.788	13029.18
633.982	12941.11
634.176	12980.03
634.369	12717.89
634.563	12812.09
634.757	12857.15
634.951	12691.26
635.145	12531.52
635.339	12654.4
635.533	12502.85
635.726	12363.59
635.92	12183.37
636.114	12203.85
636.308	12228.42
636.501	12353.35
636.695	12218.18
636.889	12095.3
637.083	11816.78
637.276	11972.43
637.47	11904.84
637.664	11679.57
637.857	11792.2
638.051	11657.04
638.244	11759.44
638.438	11372.37
638.632	11401.04
638.825	11339.6
639.019	11196.25
639.212	11360.08
639.406	11112.28
639.599	11241.3
639.793	11315.03
639.986	10866.52
640.18	10995.54
640.373	10876.76
640.567	10782.56
640.76	10766.17
640.954	10723.16
641.147	10688.35
641.34	10741.6
641.534	10887
641.727	10663.77
641.92	10518.37
642.114	10506.08
642.307	10422.11
642.5	10454.88
642.694	10270.56
642.887	10168.16
643.08	10305.38
643.273	10098.53
643.467	10237.8
643.66	10145.64
643.853	10135.4
644.046	9969.51
644.239	10135.4
644.432	9807.72
644.626	9789.29
644.819	9822.06
645.012	9637.74
645.205	9963.37
645.398	9623.41
645.591	9574.25
645.784	9578.35
645.977	9371.5
646.17	9312.11
646.363	9113.46
646.556	9146.23
646.749	9248.63
646.942	9430.9
647.135	9246.58
647.328	8961.91
647.521	8912.76
647.714	8908.66
647.907	8961.91
648.099	8937.34
648.292	8738.68
648.485	8966.01
648.678	8644.48
648.871	8615.8
649.064	8796.03
649.256	8771.45
649.449	8695.68
649.642	8474.49
649.835	8638.33
650.027	8404.86
650.22	8298.37
650.413	8277.89
650.605	8253.31
650.798	8257.41
650.991	8206.21
651.183	8236.93
651.376	8169.35
651.568	8091.52
651.761	8165.25
651.954	7962.5
652.146	7892.87
652.339	8028.04
652.531	7954.31
652.724	7993.22
652.916	7741.32
653.109	7839.62
653.301	7780.23
653.494	7708.55
653.686	7479.18
653.879	7823.24
654.071	7542.67
654.263	7597.96
654.456	7653.26
654.648	7583.63
654.84	7432.08
655.033	7155.6
655.225	7382.93
655.417	7309.2
655.61	7387.02
655.802	7131.03
655.994	7067.54
656.186	7249.81
656.379	7110.55
656.571	7167.89
656.763	7145.36
656.955	7063.44
657.148	6950.81
657.34	7096.21
657.532	6981.53
657.724	7092.12
657.916	6776.73
658.108	6881.17
658.3	6834.07
658.492	6877.08
658.684	6608.8
658.876	6705.05
659.068	6657.95
659.26	6457.25
659.452	6619.03
659.644	6662.04
659.836	6647.71
660.028	6512.54
660.22	6473.63
660.412	6526.88
660.604	6432.67
660.796	6543.26
660.988	6283.17
661.18	6199.2
661.372	6330.27
661.563	6203.3
661.755	6104.99
661.947	6094.76
662.139	6160.29
662.331	5939.11
662.522	6078.37
662.714	5963.69
662.906	5889.96
663.097	6014.88
663.289	5908.39
663.481	5941.16
663.673	5824.42
663.864	5740.46
664.056	5719.98
664.247	5771.18
664.439	5732.26
664.631	5738.41
664.822	5715.88
665.014	5699.5
665.205	5564.33
665.397	5699.5
665.588	5683.11
665.78	5433.26
665.971	5574.57
666.163	5609.39
666.354	5515.18
666.546	5482.41
666.737	5291.95
666.929	5451.69
667.12	5466.03
667.311	5320.62
667.503	5265.33
667.694	5400.49
667.885	5250.99
668.077	5181.36
668.268	5195.7
668.459	5339.05
668.651	5140.4
668.842	5029.81
669.033	5121.97
669.224	5115.83
669.416	5128.11
669.607	5130.16
669.798	5253.04
669.989	5167.03
670.18	5052.34
670.371	5015.48
670.563	5017.52
670.754	5066.67
670.945	4837.3
671.136	4962.23
671.327	4872.12
671.518	4825.01
671.709	4767.67
671.9	4970.42
672.091	4900.79
672.282	4906.93
672.473	4814.77
672.664	4964.28
672.855	4624.31
673.046	4802.49
673.237	4693.94
673.428	4728.76
673.619	4743.1
673.809	4679.61
674	4741.05
674.191	4677.56
674.382	4601.79
674.573	4788.15
674.764	4491.2
674.954	4577.21
675.145	4470.72
675.336	4452.28
675.527	4579.26
675.717	4356.03
675.908	4476.86
676.099	4415.42
676.289	4427.71
676.48	4480.96
676.671	4394.94
676.861	4458.43
677.052	4353.98
677.243	4239.3
677.433	4286.4
677.624	4294.59
677.814	4214.72
678.005	4157.38
678.195	4227.01
678.386	4267.97
678.576	4261.82
678.767	4104.13
678.957	4274.11
679.148	4202.43
679.338	4155.33
679.529	4233.15
679.719	4132.8
679.909	4188.1
680.1	4200.38
680.29	4114.37
680.481	4130.75
680.671	4040.64
680.861	4106.18
681.052	4118.47
681.242	4106.18
681.432	4177.86
681.622	3878.85
681.813	4175.81
682.003	3946.44
682.193	3954.63
682.383	3973.06
682.573	3919.81
682.764	3860.42
682.954	3907.52
683.144	3899.33
683.334	3850.18
683.524	3944.39
683.714	3811.27
683.904	3934.15
684.094	3850.18
684.284	3807.17
684.474	3880.9
684.664	3811.27
684.854	3745.73
685.044	3764.17
685.234	3735.49
685.424	3669.96
685.614	3782.6
685.804	3952.58
685.994	3792.84
686.184	3825.61
686.374	3676.1
686.564	3721.16
686.753	3727.3
686.943	3704.78
687.133	3669.96
687.323	3645.38
687.513	3622.86
687.702	3514.31
687.892	3571.66
688.082	3534.79
688.272	3467.21
688.461	3622.86
688.651	3573.71
688.841	3495.88
689.03	3518.41
689.22	3393.48
689.41	3459.02
689.599	3430.35
689.789	3475.4
689.979	3336.14
690.168	3483.59
690.358	3319.76
690.547	3233.74
690.737	3461.07
690.926	3370.96
691.116	3393.48
691.305	3248.08
691.495	3411.92
691.684	3182.54
691.874	3336.14
692.063	3172.3
692.252	3323.85
692.442	3166.16
692.631	3262.41
692.82	3151.82
693.01	3125.2
693.199	3106.77
693.388	3182.54
693.578	3078.1
693.767	3213.26
693.956	3010.51
694.146	3026.9
694.335	3110.86
694.524	2985.94
694.713	3010.51
694.902	3006.42
695.092	2938.84
695.281	2947.03
695.47	3030.99
695.659	2957.27
695.848	2897.88
696.037	2932.69
696.226	2910.16
696.415	2934.74
696.604	2975.7
696.793	2926.55
696.982	3028.95
697.171	2926.55
697.36	2916.31
697.549	2897.88
697.738	2688.98
697.927	2762.71
698.116	2818.01
698.305	2944.98
698.494	2775
698.683	2746.33
698.872	2832.34
699.061	2727.89
699.25	2787.29
699.438	2762.71
699.627	2811.86
699.816	2709.46
700.005	2832.34
700.193	2766.81
700.382	2801.62
700.571	2820.05
700.76	2791.38
700.948	2822.1
701.137	2721.75
701.326	2709.46
701.514	2779.09
701.703	2768.85
701.892	2703.32
702.08	2676.7
702.269	2682.84
702.457	2725.85
702.646	2611.16
702.834	2641.88
703.023	2670.55
703.212	2701.27
703.4	2639.83
703.589	2672.6
703.777	2695.13
703.965	2736.09
704.154	2787.29
704.342	2791.38
704.531	2662.36
704.719	2496.47
704.907	2664.41
705.096	2545.63
705.284	2580.44
705.472	2658.26
705.661	2709.46
705.849	2619.35
706.037	2621.4
706.226	2682.84
706.414	2727.89
706.602	2519
706.79	2703.32
706.979	2668.5
707.167	2553.82
707.355	2525.15
707.543	2580.44
707.731	2609.11
707.919	2562.01
708.107	2475.99
708.296	2576.34
708.484	2654.17
708.672	2594.78
708.86	2654.17
709.048	2648.02
709.236	2531.29
709.424	2582.49
709.612	2475.99
709.8	2629.59
709.988	2498.52
710.176	2568.15
710.364	2611.16
710.551	2557.91
710.739	2664.41
710.927	2584.54
711.115	2586.58
711.303	2596.82
711.491	2562.01
711.679	2498.52
711.866	2547.67
712.054	2592.73
712.242	2525.15
712.43	2602.97
712.617	2453.47
712.805	2508.76
712.993	2598.87
713.181	2514.91
713.368	2506.71
713.556	2676.7
713.744	2586.58
713.931	2555.86
714.119	2482.14
714.306	2559.96
714.494	2535.39
714.682	2451.42
714.869	2467.8
715.057	2508.76
715.244	2523.1
715.432	2512.86
715.619	2566.1
715.807	2615.26
715.994	2498.52
716.182	2537.43
716.369	2562.01
716.556	2537.43
716.744	2482.14
716.931	2672.6
717.119	2529.24
717.306	2508.76
717.493	2543.58
717.681	2482.14
717.868	2596.82
718.055	2545.63
718.242	2596.82
718.43	2465.75
718.617	2447.32
718.804	2590.68
718.991	2555.86
719.179	2562.01
719.366	2516.95
719.553	2596.82
719.74	2432.99
719.927	2525.15
720.114	2588.63
720.301	2566.1
720.488	2410.46
720.676	2535.39
720.863	2586.58
721.05	2525.15
721.237	2404.32
721.424	2488.28
721.611	2498.52
721.798	2508.76
721.985	2545.63
722.172	2457.56
722.358	2449.37
722.545	2494.43
722.732	2422.75
722.919	2496.47
723.106	2392.03
723.293	2461.66
723.48	2502.62
723.667	2445.27
723.853	2516.95
724.04	2516.95
724.227	2555.86
724.414	2484.19
724.6	2527.19
724.787	2600.92
724.974	2590.68
725.161	2482.14
725.347	2510.81
725.534	2432.99
725.72	2428.89
725.907	2455.51
726.094	2521.05
726.28	2432.99
726.467	2449.37
726.653	2529.24
726.84	2535.39
727.027	2478.04
727.213	2420.7
727.4	2578.39
727.586	2537.43
727.773	2482.14
727.959	2662.36
728.145	2586.58
728.332	2463.71
728.518	2514.91
728.705	2547.67
728.891	2551.77
729.077	2645.98
729.264	2420.7
729.45	2516.95
729.636	2656.22
729.823	2494.43
730.009	2598.87
730.195	2607.06
730.382	2512.86
730.568	2551.77
730.754	2582.49
730.94	2496.47
731.126	2648.02
731.313	2498.52
731.499	2557.91
731.685	2572.25
731.871	2557.91
732.057	2578.39
732.243	2621.4
732.429	2576.34
732.615	2570.2
732.801	2525.15
732.987	2496.47
733.173	2639.83
733.359	2537.43
733.545	2547.67
733.731	2500.57
733.917	2523.1
734.103	2555.86
734.289	2574.3
734.475	2504.67
734.661	2471.9
734.847	2570.2
735.033	2492.38
735.219	2500.57
735.404	2570.2
735.59	2574.3
735.776	2607.06
735.962	2674.65
736.148	2627.54
736.333	2523.1
736.519	2519
736.705	2441.18
736.89	2535.39
737.076	2555.86
737.262	2461.66
737.447	2510.81
737.633	2484.19
737.819	2514.91
738.004	2568.15
738.19	2559.96
738.375	2465.75
738.561	2490.33
738.747	2482.14
738.932	2471.9
739.118	2529.24
739.303	2492.38
739.489	2551.77
739.674	2418.65
739.859	2512.86
740.045	2475.99
740.23	2494.43
740.416	2473.95
740.601	2455.51
740.786	2430.94
740.972	2592.73
741.157	2353.12
741.342	2478.04
741.528	2453.47
741.713	2570.2
741.898	2375.64
742.084	2443.23
742.269	2404.32
742.454	2328.54
742.639	2463.71
742.824	2416.6
743.01	2502.62
743.195	2344.92
743.38	2322.4
743.565	2365.4
743.75	2314.2
743.935	2322.4
744.12	2285.53
744.305	2314.2
744.49	2361.31
744.675	2342.88
744.86	2318.3
745.045	2338.78
745.23	2404.32
745.415	2295.77
745.6	2353.12
745.785	2168.8
745.97	2129.89
746.155	2156.51
746.34	2363.36
746.525	2226.14
746.71	2222.05
746.895	2195.42
747.079	2207.71
747.264	2191.33
747.449	2205.66
747.634	2082.78
747.819	2164.7
748.003	2111.46
748.188	2093.02
748.373	2138.08
748.557	2146.27
748.742	2146.27
748.927	2025.44
749.111	2090.98
749.296	2004.96
749.481	2129.89
749.665	2058.21
749.85	1968.1
750.034	1992.67
750.219	2033.63
750.404	1894.37
750.588	2035.68
750.773	2054.11
750.957	2021.35
751.141	1910.75
751.326	1857.51
751.51	1873.89
751.695	1861.6
751.879	1996.77
752.064	1853.41
752.248	1765.35
752.432	1869.8
752.617	1865.7
752.801	1828.84
752.985	1818.6
753.17	1730.53
753.354	1771.49
753.538	1798.12
753.722	1703.91
753.907	1617.9
754.091	1714.15
754.275	1650.66
754.459	1748.97
754.643	1738.73
754.828	1636.33
755.012	1615.85
755.196	1624.04
755.38	1624.04
755.564	1505.26
755.748	1581.03
755.932	1671.14
756.116	1595.37
756.3	1572.84
756.484	1495.02
756.668	1576.94
756.852	1497.07
757.036	1542.12
757.22	1527.78
757.404	1484.78
757.588	1435.63
757.772	1548.26
757.956	1495.02
758.14	1570.79
758.323	1433.58
758.507	1445.87
758.691	1406.95
758.875	1511.4
759.059	1456.11
759.242	1392.62
759.426	1462.25
759.61	1351.66
759.794	1413.1
759.977	1492.97
760.161	1384.43
760.345	1400.81
760.528	1361.9
760.712	1378.28
760.895	1357.8
761.079	1314.8
761.263	1452.01
761.446	1384.43
761.63	1363.95
761.813	1335.28
761.997	1251.31
762.18	1294.32
762.364	1306.6
762.547	1263.6
762.731	1290.22
762.914	1275.88
763.098	1202.16
763.281	1224.69
763.464	1273.84
763.648	1239.02
763.831	1300.46
764.015	1181.68
764.198	1193.97
764.381	1234.93
764.564	1181.68
764.748	1212.4
764.931	1132.53
765.114	1265.64
765.297	1210.35
765.481	1230.83
765.664	1251.31
765.847	1230.83
766.03	1179.63
766.213	1161.2
766.397	1226.73
766.58	1150.96
766.763	1060.85
766.946	1069.04
767.129	1136.62
767.312	1097.71
767.495	1155.05
767.678	1091.57
767.861	1128.43
768.044	1230.83
768.227	1042.42
768.41	1028.08
768.593	1140.72
768.776	1140.72
768.959	1083.38
769.142	1116.14
769.324	1048.56
769.507	1011.7
769.69	1099.76
769.873	1165.29
770.056	1214.45
770.239	1066.99
770.421	958.45
770.604	1038.32
770.787	948.21
770.97	999.41
771.152	1001.46
771.335	903.15
771.518	1017.84
771.7	1042.42
771.883	991.22
772.066	956.4
772.248	1015.79
772.431	960.5
772.613	966.64
772.796	976.88
772.978	980.98
773.161	997.36
773.343	933.87
773.526	976.88
773.708	983.03
773.891	954.35
774.073	903.15
774.256	1042.42
774.438	888.82
774.621	985.07
774.803	862.19
774.985	837.62
775.168	856.05
775.35	862.19
775.532	903.15
775.715	858.1
775.897	931.83
776.079	868.34
776.261	806.9
776.444	847.86
776.626	854
776.808	839.67
776.99	819.19
777.173	817.14
777.355	913.39
777.537	772.08
777.719	729.08
777.901	751.6
778.083	763.89
778.265	813.04
778.447	847.86
778.629	751.6
778.811	712.69
778.993	780.28
779.175	731.12
779.357	700.41
779.539	712.69
779.721	737.27
779.903	765.94
780.085	696.31
780.267	772.08
780.449	675.83
780.631	724.98
780.812	712.69
780.994	643.06
781.176	745.46
781.358	690.17
781.54	704.5
781.721	571.38
781.903	677.88
782.085	745.46
782.267	612.34
782.448	651.25
782.63	598.01
782.812	649.21
782.993	659.45
783.175	608.25
783.357	583.67
783.538	593.91
783.72	567.29
783.901	649.21
784.083	606.2
784.264	548.86
784.446	493.56
784.627	509.94
784.809	593.91
784.99	591.86
785.172	511.99
785.353	585.72
785.535	495.61
785.716	509.94
785.897	466.94
786.079	473.08
786.26	557.05
786.441	505.85
786.623	448.51
786.804	485.37
786.985	538.62
787.167	524.28
787.348	530.42
787.529	450.55
787.71	563.19
787.891	507.9
788.073	499.7
788.254	559.1
788.435	507.9
788.616	491.51
788.797	391.16
788.978	534.52
789.159	464.89
789.34	481.27
789.522	440.31
789.703	444.41
789.884	450.55
790.065	387.07
790.246	423.93
790.427	430.07
790.607	456.7
790.788	454.65
790.969	452.6
791.15	452.6
791.331	475.13
791.512	391.16
791.693	413.69
791.874	407.55
792.054	395.26
792.235	401.4
792.416	464.89
792.597	401.4
792.778	389.11
792.958	358.39
793.139	393.21
793.32	428.03
793.5	483.32
793.681	411.64
793.862	331.77
794.042	389.11
794.223	362.49
794.404	331.77
794.584	352.25
794.765	331.77
794.945	385.02
795.126	356.35
795.306	362.49
795.487	356.35
795.667	284.67
795.848	321.53
796.028	350.2
796.209	296.96
796.389	378.87
796.57	311.29
796.75	413.69
796.93	317.44
797.111	296.96
797.291	329.72
797.471	350.2
797.652	337.91
797.832	280.57
798.012	325.63
798.192	299
798.373	329.72
798.553	264.19
798.733	288.76
798.913	264.19
799.093	333.82
799.274	256
799.454	389.11
799.634	274.43
799.814	290.81
799.994	243.71
800.174	399.35
800.354	262.14
800.534	243.71
800.714	215.04
800.894	235.52
801.074	256
801.254	313.34
801.434	339.96
801.614	247.8
801.794	223.23
801.974	638.97
802.154	280.57
802.334	266.24
802.514	225.28
802.693	323.58
802.873	264.19
803.053	294.91
803.233	239.61
803.413	266.24
803.592	231.42
803.772	186.37
803.952	172.03
804.131	241.66
804.311	253.95
804.491	309.24
804.67	239.61
804.85	274.43
805.03	276.48
805.209	231.42
805.389	270.33
805.568	194.56
805.748	208.89
805.928	225.28
806.107	167.93
806.287	290.81
806.466	188.41
806.646	208.89
806.825	186.37
807.004	241.66
807.184	276.48
807.363	272.38
807.543	182.27
807.722	237.56
807.901	208.89
808.081	229.37
808.26	174.08
808.439	163.84
808.619	227.32
808.798	190.46
808.977	194.56
809.156	262.14
809.336	200.7
809.515	188.41
809.694	155.65
809.873	233.47
810.052	147.45
810.231	225.28
810.411	165.89
810.59	266.24
810.769	202.75
810.948	268.28
811.127	178.17
811.306	212.99
811.485	88.06
811.664	210.94
811.843	149.5
812.022	178.17
812.201	212.99
812.38	141.31
812.559	151.55
812.737	167.93
812.916	204.8
813.095	169.98
813.274	251.9
813.453	190.46
813.632	221.18
813.811	174.08
813.989	206.84
814.168	122.88
814.347	143.36
814.526	204.8
814.704	200.7
814.883	178.17
815.062	137.21
815.24	169.98
815.419	174.08
815.598	200.7
815.776	104.45
815.955	145.41
816.133	112.64
816.312	204.8
816.49	208.89
816.669	239.61
816.847	184.32
817.026	153.6
817.204	172.03
817.383	108.54
817.561	135.17
817.74	180.22
817.918	88.06
818.097	176.13
818.275	77.82
818.453	208.89
818.632	157.69
818.81	149.5
818.988	229.37
819.167	212.99
819.345	149.5
819.523	202.75
819.701	161.79
819.879	79.87
820.058	174.08
820.236	137.21
820.414	120.83
820.592	135.17
820.77	159.74
820.948	122.88
821.127	137.21
821.305	104.45
821.483	114.69
821.661	126.97
821.839	176.13
822.017	114.69
822.195	47.1
822.373	104.45
822.551	188.41
822.729	174.08
822.907	141.31
823.085	153.6
823.262	180.22
823.44	98.3
823.618	118.78
823.796	118.78
823.974	34.82
824.152	112.64
824.329	202.75
824.507	100.35
824.685	200.7
824.863	182.27
825.04	133.12
825.218	79.87
825.396	118.78
825.574	176.13
825.751	165.89
825.929	147.45
826.107	116.73
826.284	163.84
826.462	186.37
826.639	92.16
826.817	86.01
826.994	153.6
827.172	102.4
827.349	163.84
827.527	92.16
827.704	106.49
827.882	147.45
828.059	120.83
828.237	0
828.414	208.89
828.591	73.73
828.769	88.06
828.946	18.43
829.124	75.77
829.301	184.32
829.478	92.16
829.655	45.06
829.833	159.74
830.01	53.25
830.187	69.63
830.364	88.06
830.542	24.58
830.719	149.5
830.896	67.58
831.073	133.12
831.25	61.44
831.427	131.07
831.604	131.07
831.782	26.62
831.959	124.93
832.136	83.97
832.313	92.16
832.49	77.82
832.667	100.35
832.844	108.54
833.021	53.25
833.198	61.44
833.374	59.39
833.551	92.16
833.728	43.01
833.905	36.86
834.082	133.12
834.259	47.1
834.436	126.97
834.612	55.3
834.789	178.17
834.966	40.96
835.143	116.73
835.319	51.2
835.496	155.65
835.673	131.07
835.85	92.16
836.026	137.21
836.203	118.78
836.38	14.34
836.556	110.59
836.733	38.91
836.909	45.06
837.086	83.97
837.262	83.97
837.439	71.68
837.616	45.06
837.792	92.16
837.968	18.43
838.145	45.06
838.321	96.25
838.498	77.82
838.674	36.86
838.851	94.21
839.027	94.21
839.203	57.34
839.38	26.62
839.556	71.68
839.732	102.4
839.909	92.16
840.085	55.3
840.261	20.48
840.437	120.83
840.614	94.21
840.79	57.34
840.966	43.01
841.142	2.05
841.318	49.15
841.494	47.1
841.671	75.77
841.847	36.86
842.023	43.01
842.199	108.54
842.375	63.49
842.551	69.63
842.727	71.68
842.903	30.72
843.079	22.53
843.255	61.44
843.431	47.1
843.607	24.58
843.783	18.43
843.959	73.73
844.134	4.1
844.31	108.54
844.486	94.21
844.662	-10.24
844.838	-16.38
845.013	51.2
845.189	16.38
845.365	28.67
845.541	-12.29
845.716	12.29
845.892	36.86
846.068	-2.05
846.244	34.82
846.419	55.3
846.595	45.06
846.77	69.63
846.946	61.44
847.122	67.58
847.297	20.48
847.473	75.77
847.648	0
847.824	10.24
847.999	-14.34
848.175	73.73
848.35	55.3
848.526	100.35
848.701	63.49
848.876	-2.05
849.052	104.45
849.227	-14.34
849.403	38.91
849.578	137.21
849.753	20.48
849.929	53.25
850.104	55.3
850.279	63.49
850.454	63.49
850.63	36.86
850.805	40.96
850.98	38.91
851.155	30.72
851.33	116.73
851.505	79.87
851.681	47.1
851.856	-38.91
852.031	-22.53
852.206	0
852.381	65.54
852.556	22.53
852.731	-8.19
852.906	92.16
853.081	104.45
853.256	69.63
853.431	59.39
853.606	34.82
853.781	24.58
853.956	69.63
854.131	-12.29
854.305	81.92
854.48	18.43
854.655	32.77
854.83	-8.19
855.005	65.54
855.18	34.82
855.354	-14.34
855.529	26.62
855.704	4.1
855.879	24.58
856.053	116.73
856.228	51.2
856.403	-4.1
856.577	18.43
856.752	24.58
856.926	12.29
857.101	59.39
857.276	20.48
857.45	8.19
857.625	71.68
857.799	-6.14
857.974	67.58
858.148	88.06
858.323	63.49
858.497	61.44
858.672	-63.49
858.846	-86.01
859.02	81.92
859.195	59.39
859.369	30.72
859.543	-18.43
859.718	59.39
859.892	24.58
860.066	57.34
860.241	-6.14
860.415	61.44
860.589	47.1
860.763	47.1
860.938	-12.29
861.112	12.29
861.286	12.29
861.46	18.43
861.634	6.14
861.808	18.43
861.982	6.14
862.157	69.63
862.331	-6.14
862.505	40.96
862.679	-59.39
862.853	-2.05
863.027	6.14
863.201	12.29
863.375	-45.06
863.549	-45.06
863.722	-8.19
863.896	90.11
864.07	-2.05
864.244	-10.24
864.418	0
864.592	-2.05
864.766	18.43
864.939	-55.3
865.113	59.39
865.287	4.1
865.461	81.92
865.634	86.01
865.808	57.34
865.982	18.43
866.156	10.24
866.329	-14.34
866.503	-22.53
866.676	43.01
866.85	22.53
867.024	-12.29
867.197	47.1
867.371	12.29
867.544	-12.29
867.718	26.62
867.891	16.38
868.065	8.19
868.238	67.58
868.412	49.15
868.585	43.01
868.759	34.82
868.932	30.72
869.105	26.62
869.279	18.43
869.452	34.82
869.625	63.49
869.799	-14.34
869.972	4.1
870.145	10.24
870.319	59.39
870.492	40.96
870.665	36.86
870.838	100.35
871.011	-53.25
871.185	47.1
871.358	-75.77
871.531	90.11
871.704	18.43
871.877	-2.05
872.05	57.34
872.223	-16.38
872.396	2.05
872.569	32.77
872.742	-108.54
872.915	55.3
873.088	-38.91
873.261	-22.53
873.434	20.48
873.607	24.58
873.78	10.24
873.953	-22.53
874.126	-32.77
874.299	36.86
874.471	-12.29
874.644	30.72
874.817	24.58
874.99	-14.34
875.163	81.92
875.335	38.91
875.508	-2.05
875.681	14.34
875.853	57.34
876.026	47.1
876.199	24.58
876.371	61.44
876.544	12.29
876.717	38.91
876.889	20.48
877.062	-4.1
877.234	-28.67
877.407	20.48
877.579	-45.06
877.752	-49.15
877.924	22.53
878.097	90.11
878.269	81.92
878.442	28.67
878.614	22.53
878.786	38.91
878.959	6.14
879.131	18.43
879.303	-12.29
879.476	14.34
879.648	49.15
879.82	10.24
879.993	2.05
880.165	65.54
880.337	20.48
880.509	20.48
880.681	30.72
880.854	14.34
881.026	71.68
881.198	94.21
881.37	40.96
881.542	-55.3
881.714	-36.86
881.886	53.25
882.058	-22.53
882.23	51.2
882.402	16.38
882.574	4.1
882.746	-2.05
882.918	38.91
883.09	59.39
883.262	-16.38
883.434	-47.1
883.606	-4.1
883.778	-63.49
883.95	22.53
884.122	-32.77
884.293	22.53
884.465	-28.67
884.637	-43.01
884.809	-98.3
884.98	-8.19
885.152	-4.1
885.324	28.67
885.496	59.39
885.667	14.34
885.839	18.43
886.011	49.15
886.182	59.39
886.354	8.19
886.525	10.24
886.697	-4.1
886.869	24.58
887.04	-6.14
887.212	34.82
887.383	83.97
887.555	-12.29
887.726	-79.87
887.897	-63.49
888.069	69.63
888.24	18.43
888.412	0
888.583	-40.96
888.754	8.19
888.926	-67.58
889.097	26.62
889.268	26.62
889.44	34.82
889.611	-22.53
889.782	57.34
889.953	16.38
890.125	83.97
890.296	45.06
890.467	8.19
890.638	14.34
890.809	38.91
890.98	-14.34
891.151	40.96
891.323	79.87
891.494	34.82
891.665	-4.1
891.836	28.67
892.007	0
892.178	-43.01
892.349	34.82
892.52	55.3
892.691	-38.91
892.862	34.82
893.032	20.48
893.203	12.29
893.374	-26.62
893.545	20.48
893.716	-43.01
893.887	22.53
894.057	30.72
894.228	12.29
894.399	36.86
894.57	59.39
894.74	-100.35
894.911	-34.82
895.082	2.05
895.253	-24.58
895.423	-20.48
895.594	-2.05
895.764	32.77
895.935	30.72
896.106	6.14
896.276	-34.82
896.447	24.58
896.617	8.19
896.788	-30.72
896.958	59.39
897.129	-18.43
897.299	-4.1
897.47	47.1
897.64	28.67
897.81	57.34
897.981	-10.24
898.151	100.35
898.322	20.48
898.492	34.82
898.662	-73.73
898.832	-67.58
899.003	12.29
899.173	28.67
899.343	-55.3
899.513	-38.91
