Data from USB4F104151__62__11-45-18-989.txt Node

Date: Fri Mar 14 11:45:18 EDT 2025
User: louis
Spectrometer: USB4F10415
Trigger mode: 4
Integration Time (sec): 2.000000E-2
Scans to average: 1
Electric dark correction enabled: true
Nonlinearity correction enabled: false
Boxcar width: 0
XAxis mode: Wavelengths
Number of Pixels in Spectrum: 3648
>>>>>Begin Spectral Data<<<<<
178.204	-105.47
178.424	-105.47
178.644	-105.47
178.864	-46.08
179.084	-123.9
179.304	-3.07
179.524	11.26
179.744	17.41
179.964	25.6
180.184	-54.27
180.404	-31.74
180.624	13.31
180.844	25.6
181.064	-60.42
181.283	78.85
181.503	-46.08
181.723	23.55
181.943	48.13
182.163	64.51
182.383	-33.79
182.602	41.98
182.822	-25.6
183.042	54.27
183.262	-35.84
183.482	-21.5
183.701	-31.74
183.921	-5.12
184.141	13.31
184.361	44.03
184.58	50.18
184.8	140.29
185.02	-39.94
185.239	119.81
185.459	39.94
185.679	23.55
185.898	-19.46
186.118	-56.32
186.338	-1.02
186.557	60.42
186.777	-33.79
186.997	9.22
187.216	19.46
187.436	123.9
187.655	-31.74
187.875	54.27
188.095	50.18
188.314	80.89
188.534	-13.31
188.753	19.46
188.973	56.32
189.192	-9.22
189.412	48.13
189.631	11.26
189.851	19.46
190.07	7.17
190.29	11.26
190.509	-13.31
190.729	9.22
190.948	27.65
191.168	54.27
191.387	84.99
191.607	-3.07
191.826	25.6
192.045	21.5
192.265	5.12
192.484	1.02
192.704	21.5
192.923	41.98
193.142	5.12
193.362	130.05
193.581	56.32
193.8	84.99
194.02	78.85
194.239	7.17
194.458	-7.17
194.678	27.65
194.897	66.56
195.116	15.36
195.335	101.37
195.555	62.46
195.774	7.17
195.993	-25.6
196.212	9.22
196.432	5.12
196.651	-33.79
196.87	-25.6
197.089	76.8
197.308	50.18
197.528	-3.07
197.747	56.32
197.966	13.31
198.185	48.13
198.404	78.85
198.623	33.79
198.842	21.5
199.062	68.61
199.281	-3.07
199.5	-11.26
199.719	-25.6
199.938	74.75
200.157	1.02
200.376	-19.46
200.595	44.03
200.814	-17.41
201.033	-13.31
201.252	70.65
201.471	-15.36
201.69	44.03
201.909	48.13
202.128	58.37
202.347	-7.17
202.566	58.37
202.785	-37.89
203.004	21.5
203.223	84.99
203.442	23.55
203.661	15.36
203.879	48.13
204.098	23.55
204.317	80.89
204.536	44.03
204.755	62.46
204.974	19.46
205.193	64.51
205.411	48.13
205.63	48.13
205.849	5.12
206.068	-50.18
206.287	3.07
206.505	-52.22
206.724	21.5
206.943	82.94
207.162	78.85
207.381	7.17
207.599	35.84
207.818	41.98
208.037	44.03
208.255	35.84
208.474	21.5
208.693	-54.27
208.911	15.36
209.13	-17.41
209.349	-13.31
209.567	3.07
209.786	60.42
210.005	-33.79
210.223	82.94
210.442	1.02
210.661	27.65
210.879	-23.55
211.098	68.61
211.316	-19.46
211.535	-39.94
211.753	19.46
211.972	35.84
212.191	37.89
212.409	60.42
212.628	78.85
212.846	74.75
213.065	101.37
213.283	27.65
213.502	-13.31
213.72	23.55
213.938	35.84
214.157	-1.02
214.375	25.6
214.594	-11.26
214.812	25.6
215.031	37.89
215.249	-1.02
215.467	13.31
215.686	-7.17
215.904	62.46
216.122	-13.31
216.341	21.5
216.559	74.75
216.778	87.04
216.996	11.26
217.214	-19.46
217.432	-58.37
217.651	62.46
217.869	21.5
218.087	93.18
218.306	62.46
218.524	-21.5
218.742	19.46
218.96	35.84
219.179	-9.22
219.397	37.89
219.615	17.41
219.833	99.33
220.051	1.02
220.27	44.03
220.488	-29.7
220.706	80.89
220.924	-1.02
221.142	54.27
221.36	-5.12
221.578	134.14
221.796	-29.7
222.015	70.65
222.233	15.36
222.451	13.31
222.669	-76.8
222.887	54.27
223.105	23.55
223.323	84.99
223.541	9.22
223.759	78.85
223.977	44.03
224.195	87.04
224.413	-17.41
224.631	15.36
224.849	-91.13
225.067	72.7
225.285	-82.94
225.503	50.18
225.721	-13.31
225.939	-19.46
226.157	76.8
226.375	50.18
226.592	-52.22
226.81	-7.17
227.028	1.02
227.246	72.7
227.464	29.7
227.682	35.84
227.9	44.03
228.117	58.37
228.335	7.17
228.553	44.03
228.771	-1.02
228.989	76.8
229.206	48.13
229.424	31.74
229.642	21.5
229.86	31.74
230.077	50.18
230.295	-1.02
230.513	39.94
230.731	-23.55
230.948	21.5
231.166	39.94
231.384	11.26
231.601	17.41
231.819	54.27
232.037	-48.13
232.254	-35.84
232.472	21.5
232.689	23.55
232.907	58.37
233.125	105.47
233.342	27.65
233.56	-17.41
233.777	17.41
233.995	7.17
234.213	52.22
234.43	68.61
234.648	-35.84
234.865	44.03
235.083	37.89
235.3	23.55
235.518	-13.31
235.735	66.56
235.953	60.42
236.17	-5.12
236.388	-41.98
236.605	21.5
236.822	87.04
237.04	52.22
237.257	27.65
237.475	89.09
237.692	37.89
237.909	3.07
238.127	-9.22
238.344	21.5
238.562	41.98
238.779	-9.22
238.996	9.22
239.214	3.07
239.431	93.18
239.648	5.12
239.865	35.84
240.083	19.46
240.3	60.42
240.517	15.36
240.735	19.46
240.952	25.6
241.169	-27.65
241.386	29.7
241.603	21.5
241.821	-9.22
242.038	80.89
242.255	97.28
242.472	21.5
242.689	74.75
242.907	-33.79
243.124	-33.79
243.341	35.84
243.558	-35.84
243.775	25.6
243.992	11.26
244.209	15.36
244.426	31.74
244.643	125.95
244.86	27.65
245.078	21.5
245.295	-1.02
245.512	29.7
245.729	-29.7
245.946	68.61
246.163	31.74
246.38	44.03
246.597	-35.84
246.814	11.26
247.031	70.65
247.248	-39.94
247.464	33.79
247.681	72.7
247.898	-3.07
248.115	-21.5
248.332	37.89
248.549	46.08
248.766	97.28
248.983	31.74
249.2	72.7
249.417	74.75
249.633	35.84
249.85	31.74
250.067	-9.22
250.284	-15.36
250.501	-13.31
250.717	89.09
250.934	58.37
251.151	15.36
251.368	-21.5
251.585	130.05
251.801	31.74
252.018	-56.32
252.235	19.46
252.451	48.13
252.668	41.98
252.885	66.56
253.102	46.08
253.318	27.65
253.535	9.22
253.752	7.17
253.968	23.55
254.185	70.65
254.401	52.22
254.618	48.13
254.835	3.07
255.051	82.94
255.268	48.13
255.484	-17.41
255.701	113.66
255.917	21.5
256.134	21.5
256.351	50.18
256.567	-35.84
256.784	-23.55
257	27.65
257.217	-17.41
257.433	74.75
257.65	54.27
257.866	-15.36
258.082	9.22
258.299	-1.02
258.515	25.6
258.732	-60.42
258.948	19.46
259.165	3.07
259.381	7.17
259.597	37.89
259.814	29.7
260.03	25.6
260.246	-7.17
260.463	27.65
260.679	99.33
260.895	1.02
261.112	66.56
261.328	-29.7
261.544	-5.12
261.761	84.99
261.977	13.31
262.193	5.12
262.409	-44.03
262.626	66.56
262.842	-29.7
263.058	-3.07
263.274	46.08
263.49	25.6
263.707	-9.22
263.923	21.5
264.139	23.55
264.355	48.13
264.571	48.13
264.787	93.18
265.004	72.7
265.22	50.18
265.436	7.17
265.652	-15.36
265.868	41.98
266.084	27.65
266.3	-7.17
266.516	11.26
266.732	60.42
266.948	50.18
267.164	41.98
267.38	50.18
267.596	13.31
267.812	17.41
268.028	44.03
268.244	-11.26
268.46	3.07
268.676	44.03
268.892	82.94
269.108	-37.89
269.324	46.08
269.54	62.46
269.756	35.84
269.972	23.55
270.188	-11.26
270.403	15.36
270.619	-17.41
270.835	9.22
271.051	52.22
271.267	-64.51
271.483	11.26
271.698	-7.17
271.914	52.22
272.13	58.37
272.346	41.98
272.562	-48.13
272.777	68.61
272.993	-3.07
273.209	70.65
273.425	48.13
273.64	-7.17
273.856	58.37
274.072	-7.17
274.287	-1.02
274.503	37.89
274.719	138.24
274.934	-29.7
275.15	25.6
275.366	-15.36
275.581	13.31
275.797	-15.36
276.012	21.5
276.228	54.27
276.444	-5.12
276.659	21.5
276.875	-56.32
277.09	33.79
277.306	-39.94
277.521	33.79
277.737	33.79
277.952	23.55
278.168	7.17
278.383	78.85
278.599	41.98
278.814	-5.12
279.03	93.18
279.245	115.71
279.461	35.84
279.676	-9.22
279.892	91.13
280.107	52.22
280.322	19.46
280.538	64.51
280.753	31.74
280.969	41.98
281.184	41.98
281.399	89.09
281.615	60.42
281.83	52.22
282.045	29.7
282.26	60.42
282.476	5.12
282.691	74.75
282.906	31.74
283.122	27.65
283.337	17.41
283.552	56.32
283.767	-33.79
283.983	-21.5
284.198	80.89
284.413	19.46
284.628	3.07
284.843	48.13
285.058	27.65
285.274	-5.12
285.489	62.46
285.704	56.32
285.919	7.17
286.134	60.42
286.349	58.37
286.564	-19.46
286.779	-33.79
286.995	66.56
287.21	9.22
287.425	93.18
287.64	11.26
287.855	31.74
288.07	-35.84
288.285	72.7
288.5	113.66
288.715	31.74
288.93	54.27
289.145	-25.6
289.36	17.41
289.575	39.94
289.79	27.65
290.004	21.5
290.219	37.89
290.434	31.74
290.649	-13.31
290.864	-11.26
291.079	-7.17
291.294	107.52
291.509	52.22
291.724	64.51
291.938	-15.36
292.153	113.66
292.368	-15.36
292.583	-19.46
292.798	66.56
293.012	-21.5
293.227	27.65
293.442	62.46
293.657	76.8
293.871	72.7
294.086	21.5
294.301	121.85
294.516	35.84
294.73	11.26
294.945	11.26
295.16	9.22
295.374	35.84
295.589	17.41
295.804	48.13
296.018	74.75
296.233	29.7
296.447	35.84
296.662	48.13
296.877	35.84
297.091	37.89
297.306	33.79
297.52	13.31
297.735	-29.7
297.949	44.03
298.164	-23.55
298.378	21.5
298.593	31.74
298.807	-15.36
299.022	39.94
299.236	44.03
299.451	37.89
299.665	23.55
299.88	78.85
300.094	35.84
300.309	41.98
300.523	41.98
300.737	25.6
300.952	13.31
301.166	29.7
301.381	21.5
301.595	13.31
301.809	-52.22
302.024	-15.36
302.238	1.02
302.452	50.18
302.667	17.41
302.881	13.31
303.095	89.09
303.309	-37.89
303.524	27.65
303.738	60.42
303.952	66.56
304.166	21.5
304.381	46.08
304.595	-5.12
304.809	72.7
305.023	-23.55
305.237	-58.37
305.452	39.94
305.666	58.37
305.88	41.98
306.094	-11.26
306.308	25.6
306.522	60.42
306.736	46.08
306.95	44.03
307.164	68.61
307.379	25.6
307.593	87.04
307.807	5.12
308.021	50.18
308.235	58.37
308.449	17.41
308.663	91.13
308.877	33.79
309.091	19.46
309.305	-7.17
309.519	84.99
309.733	74.75
309.947	44.03
310.161	-9.22
310.374	44.03
310.588	72.7
310.802	72.7
311.016	25.6
311.23	25.6
311.444	60.42
311.658	82.94
311.872	68.61
312.085	29.7
312.299	25.6
312.513	35.84
312.727	50.18
312.941	35.84
313.154	76.8
313.368	33.79
313.582	27.65
313.796	11.26
314.009	62.46
314.223	17.41
314.437	80.89
314.651	46.08
314.864	33.79
315.078	5.12
315.292	-17.41
315.505	-17.41
315.719	-9.22
315.933	5.12
316.146	48.13
316.36	-25.6
316.573	187.39
316.787	15.36
317.001	11.26
317.214	52.22
317.428	27.65
317.641	27.65
317.855	23.55
318.068	9.22
318.282	84.99
318.495	39.94
318.709	68.61
318.922	-11.26
319.136	-5.12
319.349	52.22
319.563	-13.31
319.776	50.18
319.99	9.22
320.203	33.79
320.417	-9.22
320.63	-3.07
320.843	35.84
321.057	58.37
321.27	95.23
321.483	3.07
321.697	97.28
321.91	-9.22
322.124	19.46
322.337	5.12
322.55	52.22
322.763	-1.02
322.977	15.36
323.19	-21.5
323.403	5.12
323.617	103.42
323.83	-19.46
324.043	72.7
324.256	66.56
324.469	-21.5
324.683	-11.26
324.896	-7.17
325.109	48.13
325.322	54.27
325.535	-13.31
325.748	72.7
325.962	21.5
326.175	33.79
326.388	60.42
326.601	-17.41
326.814	41.98
327.027	29.7
327.24	23.55
327.453	-29.7
327.666	23.55
327.879	93.18
328.092	68.61
328.305	23.55
328.518	-1.02
328.731	-5.12
328.944	68.61
329.157	132.09
329.37	48.13
329.583	19.46
329.796	125.95
330.009	54.27
330.222	-13.31
330.435	-3.07
330.648	84.99
330.861	58.37
331.073	97.28
331.286	109.57
331.499	-33.79
331.712	68.61
331.925	35.84
332.138	-7.17
332.35	50.18
332.563	-31.74
332.776	58.37
332.989	31.74
333.202	84.99
333.414	19.46
333.627	-25.6
333.84	17.41
334.053	-101.37
334.265	58.37
334.478	27.65
334.691	48.13
334.903	1.02
335.116	58.37
335.329	19.46
335.541	25.6
335.754	64.51
335.966	11.26
336.179	-3.07
336.392	-15.36
336.604	-5.12
336.817	117.76
337.029	17.41
337.242	1.02
337.454	72.7
337.667	1.02
337.88	66.56
338.092	58.37
338.305	1.02
338.517	13.31
338.729	107.52
338.942	44.03
339.154	64.51
339.367	23.55
339.579	70.65
339.792	-5.12
340.004	-1.02
340.217	44.03
340.429	31.74
340.641	39.94
340.854	56.32
341.066	5.12
341.278	-21.5
341.491	70.65
341.703	15.36
341.915	35.84
342.128	-11.26
342.34	46.08
342.552	56.32
342.764	-13.31
342.977	95.23
343.189	48.13
343.401	23.55
343.613	76.8
343.826	-5.12
344.038	-23.55
344.25	48.13
344.462	19.46
344.674	95.23
344.886	33.79
345.099	-13.31
345.311	41.98
345.523	5.12
345.735	-21.5
345.947	62.46
346.159	52.22
346.371	-1.02
346.583	97.28
346.795	93.18
347.007	25.6
347.219	52.22
347.431	41.98
347.643	-3.07
347.855	52.22
348.067	54.27
348.279	5.12
348.491	56.32
348.703	1.02
348.915	17.41
349.127	-15.36
349.339	-5.12
349.551	3.07
349.763	35.84
349.975	-27.65
350.187	17.41
350.399	-19.46
350.61	48.13
350.822	54.27
351.034	70.65
351.246	60.42
351.458	164.86
351.669	50.18
351.881	9.22
352.093	52.22
352.305	89.09
352.517	31.74
352.728	66.56
352.94	27.65
353.152	35.84
353.363	-25.6
353.575	27.65
353.787	9.22
353.999	60.42
354.21	-1.02
354.422	41.98
354.633	-7.17
354.845	58.37
355.057	33.79
355.268	23.55
355.48	70.65
355.692	31.74
355.903	74.75
356.115	35.84
356.326	-5.12
356.538	19.46
356.749	64.51
356.961	103.42
357.172	-29.7
357.384	23.55
357.595	95.23
357.807	52.22
358.018	64.51
358.23	25.6
358.441	66.56
358.653	29.7
358.864	-27.65
359.075	-1.02
359.287	-5.12
359.498	19.46
359.709	76.8
359.921	-17.41
360.132	113.66
360.344	35.84
360.555	-13.31
360.766	52.22
360.977	84.99
361.189	11.26
361.4	25.6
361.611	58.37
361.823	121.85
362.034	58.37
362.245	-11.26
362.456	21.5
362.667	31.74
362.879	35.84
363.09	41.98
363.301	1.02
363.512	44.03
363.723	-17.41
363.935	29.7
364.146	3.07
364.357	37.89
364.568	56.32
364.779	21.5
364.99	80.89
365.201	27.65
365.412	123.9
365.623	-11.26
365.834	62.46
366.045	46.08
366.256	3.07
366.467	21.5
366.678	19.46
366.889	-19.46
367.1	78.85
367.311	39.94
367.522	23.55
367.733	41.98
367.944	-17.41
368.155	52.22
368.366	68.61
368.577	29.7
368.788	109.57
368.999	-27.65
369.209	64.51
369.42	89.09
369.631	68.61
369.842	89.09
370.053	72.7
370.264	117.76
370.474	64.51
370.685	72.7
370.896	62.46
371.107	78.85
371.317	25.6
371.528	-7.17
371.739	99.33
371.95	11.26
372.16	48.13
372.371	-13.31
372.582	37.89
372.792	-31.74
373.003	-3.07
373.214	44.03
373.424	152.57
373.635	44.03
373.846	113.66
374.056	89.09
374.267	9.22
374.477	-1.02
374.688	-35.84
374.898	80.89
375.109	93.18
375.319	11.26
375.53	123.9
375.74	31.74
375.951	29.7
376.161	80.89
376.372	11.26
376.582	48.13
376.793	58.37
377.003	35.84
377.214	37.89
377.424	37.89
377.635	37.89
377.845	74.75
378.055	23.55
378.266	44.03
378.476	25.6
378.686	82.94
378.897	82.94
379.107	-3.07
379.317	84.99
379.528	111.61
379.738	68.61
379.948	68.61
380.158	35.84
380.369	58.37
380.579	84.99
380.789	5.12
380.999	7.17
381.21	70.65
381.42	50.18
381.63	29.7
381.84	15.36
382.05	68.61
382.261	89.09
382.471	27.65
382.681	21.5
382.891	74.75
383.101	130.05
383.311	33.79
383.521	35.84
383.731	39.94
383.941	78.85
384.151	48.13
384.361	15.36
384.571	80.89
384.781	132.09
384.991	97.28
385.201	54.27
385.411	115.71
385.621	33.79
385.831	35.84
386.041	70.65
386.251	33.79
386.461	29.7
386.671	13.31
386.881	93.18
387.091	74.75
387.301	91.13
387.511	27.65
387.72	31.74
387.93	99.33
388.14	13.31
388.35	41.98
388.56	160.77
388.769	87.04
388.979	68.61
389.189	50.18
389.399	78.85
389.609	35.84
389.818	121.85
390.028	68.61
390.238	41.98
390.447	25.6
390.657	97.28
390.867	41.98
391.076	31.74
391.286	74.75
391.496	54.27
391.705	134.14
391.915	109.57
392.125	41.98
392.334	64.51
392.544	11.26
392.753	46.08
392.963	91.13
393.172	41.98
393.382	44.03
393.591	93.18
393.801	25.6
394.01	113.66
394.22	123.9
394.429	136.19
394.639	74.75
394.848	33.79
395.058	123.9
395.267	41.98
395.477	105.47
395.686	54.27
395.895	72.7
396.105	113.66
396.314	99.33
396.524	93.18
396.733	60.42
396.942	97.28
397.152	101.37
397.361	23.55
397.57	80.89
397.78	111.61
397.989	50.18
398.198	103.42
398.407	115.71
398.617	89.09
398.826	72.7
399.035	109.57
399.244	62.46
399.453	39.94
399.663	115.71
399.872	128
400.081	48.13
400.29	142.33
400.499	105.47
400.708	87.04
400.917	148.48
401.127	56.32
401.336	66.56
401.545	138.24
401.754	119.81
401.963	138.24
402.172	140.29
402.381	132.09
402.59	109.57
402.799	58.37
403.008	175.1
403.217	166.91
403.426	109.57
403.635	33.79
403.844	136.19
404.053	132.09
404.262	189.44
404.471	168.96
404.68	132.09
404.888	111.61
405.097	156.67
405.306	173.05
405.515	109.57
405.724	175.1
405.933	201.72
406.142	166.91
406.35	207.87
406.559	164.86
406.768	187.39
406.977	257.02
407.185	234.49
407.394	138.24
407.603	187.39
407.812	242.68
408.02	252.92
408.229	334.84
408.438	273.4
408.646	234.49
408.855	324.6
409.064	259.07
409.272	236.54
409.481	361.47
409.69	287.74
409.898	308.22
410.107	318.46
410.315	273.4
410.524	304.12
410.733	351.23
410.941	345.08
411.15	357.37
411.358	478.2
411.567	388.09
411.775	375.8
411.984	443.39
412.192	383.99
412.401	515.06
412.609	529.4
412.818	527.35
413.026	558.07
413.234	517.11
413.443	531.45
413.651	517.11
413.86	670.71
414.068	572.41
414.276	650.23
414.485	678.9
414.693	633.85
414.901	697.33
415.11	740.34
415.318	779.25
415.526	762.87
415.734	719.86
415.943	824.31
416.151	850.93
416.359	871.41
416.567	838.64
416.776	887.79
416.984	992.24
417.192	1008.62
417.4	1037.3
417.608	1018.86
417.817	1063.92
418.025	1051.63
418.233	1283.05
418.441	1135.6
418.649	1274.86
418.857	1397.74
419.065	1324.01
419.273	1324.01
419.481	1477.61
419.689	1561.58
419.897	1641.45
420.105	1647.59
420.313	1623.02
420.521	1668.07
420.729	1704.93
420.937	1739.75
421.145	1887.2
421.353	1911.78
421.561	2098.14
421.769	2040.8
421.977	2208.73
422.185	2055.14
422.393	2300.89
422.601	2311.13
422.809	2241.5
423.017	2329.56
423.224	2567.13
423.432	2497.5
423.64	2761.69
423.848	2948.05
424.056	2704.34
424.263	2915.28
424.471	3001.3
424.679	3234.77
424.887	3302.35
425.094	3388.36
425.302	3357.64
425.51	3466.19
425.718	3501
425.925	3673.03
426.133	3742.66
426.341	4070.34
426.548	4180.93
426.756	4185.02
426.964	4330.43
427.171	4481.98
427.379	4600.76
427.586	4668.34
427.794	4897.72
428.001	4926.39
428.209	5270.45
428.417	5135.28
428.624	5524.4
428.832	5555.12
429.039	5348.27
429.247	5442.48
429.454	5845.93
429.662	6335.39
429.869	5776.3
430.076	6470.56
430.284	6316.96
430.491	6466.46
430.699	6810.52
430.906	6855.58
431.114	6990.74
431.321	7144.34
431.528	7383.95
431.736	7762.83
431.943	8100.74
432.15	7875.46
432.358	7891.85
432.565	8631.16
432.772	8332.16
432.979	8887.16
433.187	8944.5
433.394	9059.19
433.601	9784.17
433.808	9661.29
434.016	9671.53
434.223	10093.41
434.43	10615.65
434.637	10384.23
434.844	11156.31
435.052	11305.81
435.259	11260.76
435.466	11320.15
435.673	11377.49
435.88	11791.18
436.087	12546.88
436.294	12651.33
436.501	12381
436.708	12577.6
436.915	13120.31
437.122	13656.88
437.329	13579.06
437.537	14097.19
437.743	14283.56
437.95	14089
438.157	14615.33
438.364	15313.69
438.571	15176.47
438.778	15543.06
438.985	16814.85
439.192	15930.12
439.399	16753.41
439.606	16272.14
439.813	17320.7
440.02	18506.47
440.227	17822.45
440.433	17705.71
440.64	18227.95
440.847	18518.76
441.054	18612.96
441.261	20107.98
441.467	19616.47
441.674	20042.45
441.881	20984.51
442.088	20861.63
442.294	20667.08
442.501	21183.16
442.708	21555.9
442.914	22737.57
443.121	23128.74
443.328	22737.57
443.534	24228.49
443.741	23880.34
443.948	23349.92
444.154	25066.11
444.361	24836.74
444.568	25057.92
444.774	25096.83
444.981	25518.71
445.187	26102.39
445.394	27296.35
445.6	26872.42
445.807	29387.33
446.013	27888.21
446.22	28725.83
446.426	29919.8
446.633	29903.42
446.839	31091.24
447.046	29960.76
447.252	31648.29
447.459	31357.47
447.665	31490.59
447.871	32868.87
448.078	34597.36
448.284	32670.22
448.491	33196.55
448.697	35058.15
448.903	35346.92
449.11	35502.56
449.316	34654.7
449.522	35527.14
449.728	36587.99
449.935	36600.27
450.141	36803.02
450.347	37648.83
450.553	36555.22
450.76	36602.32
450.966	37941.69
451.172	37632.45
451.378	38480.31
451.584	38017.47
451.791	38812.08
451.997	38461.88
452.203	39326.12
452.409	39260.58
452.615	38920.62
452.821	37548.48
453.027	37132.75
453.233	39190.95
453.44	37771.71
453.646	37814.72
453.852	37884.35
454.058	38687.15
454.264	37333.45
454.47	38906.29
454.676	37255.62
454.882	38760.88
455.088	35150.31
455.294	35951.07
455.5	36368.85
455.705	36975.05
455.911	35336.68
456.117	34902.51
456.323	34116.09
456.529	32291.35
456.735	34054.65
456.941	33233.41
457.147	32336.4
457.352	31879.71
457.558	31001.13
457.764	31392.29
457.97	31005.22
458.176	29774.39
458.381	29932.09
458.587	28207.7
458.793	28555.85
458.999	27124.32
459.204	29049.41
459.41	28050
459.616	26286.7
459.821	26407.53
460.027	26313.33
460.233	25696.89
460.438	24498.83
460.644	24808.07
460.85	23710.36
461.055	23274.14
461.261	23423.64
461.466	21607.09
461.672	21000.9
461.878	22338.22
462.083	21109.44
462.289	20368.07
462.494	19894.99
462.7	19370.71
462.905	18672.36
463.111	19444.44
463.316	19647.19
463.522	19024.61
463.727	19129.05
463.932	19077.85
464.138	18703.07
464.343	18952.93
464.549	18416.36
464.754	18838.24
464.959	18717.41
465.165	18588.39
465.37	18324.2
465.575	17474.29
465.781	18227.95
465.986	18076.4
466.191	17822.45
466.397	17234.68
466.602	16433.93
466.807	17312.5
467.012	17201.91
467.218	16980.73
467.423	16657.15
467.628	16900.86
467.833	17609.46
468.038	16775.94
468.244	16296.71
468.449	17167.1
468.654	16616.19
468.859	16431.88
469.064	16333.57
469.269	15641.36
469.474	15536.91
469.679	16063.24
469.885	15422.23
470.09	16130.83
470.295	15926.03
470.5	15205.14
470.705	15715.09
470.91	15045.4
471.115	14957.34
471.32	15538.96
471.525	15276.82
471.73	14691.1
471.935	14789.41
472.139	14168.87
472.344	14574.37
472.549	14261.03
472.754	14162.73
472.959	13720.37
473.164	13613.87
473.369	13282.1
473.574	13837.1
473.778	13595.44
473.983	13574.96
474.188	13550.39
474.393	13103.93
474.598	12972.86
474.802	12628.8
475.007	12663.61
475.212	12958.52
475.417	12127.05
475.621	12247.88
475.826	12456.77
476.031	12110.66
476.235	11727.69
476.44	12165.96
476.645	11969.35
476.849	11922.25
477.054	11682.64
477.259	11533.14
477.463	11385.68
477.668	11258.71
477.872	11221.84
478.077	11211.6
478.282	10515.3
478.486	10822.49
478.691	10797.92
478.895	10765.15
479.1	10607.45
479.304	10840.92
479.509	10441.57
479.713	10462.05
479.918	10232.68
480.122	10054.5
480.326	10249.06
480.531	10281.83
480.735	10130.28
480.94	10023.78
481.144	10400.61
481.348	9954.15
481.553	10152.81
481.757	9861.99
481.961	9964.39
482.166	9886.57
482.37	10107.75
482.574	9968.49
482.778	9816.94
482.983	10005.35
483.187	9964.39
483.391	9993.06
483.595	9800.55
483.8	9878.38
484.004	9732.97
484.208	10079.08
484.412	9702.25
484.616	9941.86
484.821	9728.88
485.025	9679.72
485.229	9773.93
485.433	9806.7
485.637	9988.97
485.841	9640.81
486.045	9704.3
486.249	9898.86
486.453	9679.72
486.657	9845.61
486.861	9841.51
487.065	9446.26
487.269	9519.98
487.473	9632.62
487.677	9679.72
487.881	9810.79
488.085	9653.1
488.289	9902.95
488.493	9970.54
488.697	9794.41
488.901	9874.28
489.105	9857.9
489.309	9681.77
489.512	9993.06
489.716	9921.38
489.92	9892.71
490.124	10005.35
490.328	10056.55
490.531	10015.59
490.735	10058.6
490.939	10048.36
491.143	10005.35
491.346	10064.74
491.55	10058.6
491.754	10107.75
491.958	10285.92
492.161	10267.49
492.365	10287.97
492.569	10115.94
492.772	10400.61
492.976	10515.3
493.18	10290.02
493.383	10431.33
493.587	10515.3
493.79	10789.72
493.994	10550.11
494.197	10885.98
494.401	10750.81
494.605	10908.51
494.808	11113.3
495.012	11158.36
495.215	11141.97
495.419	11166.55
495.622	11039.58
495.825	11281.24
496.029	11297.62
496.232	11545.42
496.436	11526.99
496.639	11914.06
496.843	11680.59
497.046	11881.29
497.249	12245.83
497.453	12217.16
497.656	12081.99
497.859	12309.32
498.063	12319.56
498.266	12739.39
498.469	12770.11
498.673	12823.36
498.876	12905.28
499.079	13230.9
499.282	12993.34
499.485	13564.72
499.689	13620.02
499.892	13685.55
500.095	13521.71
500.298	13880.11
500.501	13869.87
500.705	14314.28
500.908	14379.81
501.111	14670.62
501.314	14615.33
501.517	14906.14
501.72	15010.59
501.923	14897.95
502.126	15401.75
502.329	15260.44
502.532	15266.58
502.735	15418.13
502.938	15991.56
503.141	16001.8
503.344	16296.71
503.547	16093.96
503.75	16642.82
503.953	16884.48
504.156	16937.73
504.359	17052.41
504.562	17226.49
504.765	17478.39
504.968	17408.76
505.17	17883.89
505.373	17804.02
505.576	18320.1
505.779	18440.93
505.982	18641.64
506.185	18719.46
506.387	18582.24
506.59	19018.46
506.793	19595.99
506.996	19354.33
507.198	19796.69
507.401	19804.88
507.604	19968.72
507.807	20409.03
508.009	20660.93
508.212	20814.53
508.415	20912.83
508.617	21123.77
508.82	21510.84
509.022	21420.73
509.225	21713.59
509.428	22026.93
509.63	21924.53
509.833	22280.88
510.035	22465.19
510.238	22831.78
510.44	23116.45
510.643	23095.97
510.845	23354.01
511.048	23407.26
511.25	23956.11
511.453	23909.01
511.655	25137.79
511.858	24556.17
512.06	24445.58
512.262	24867.46
512.465	24859.27
512.667	25289.34
512.87	25592.44
513.072	25502.33
513.274	26167.92
513.477	26501.74
513.679	26737.26
513.881	26833.51
514.084	27099.75
514.286	26841.7
514.488	27236.96
514.69	27992.66
514.893	27937.37
515.095	28015.19
515.297	28858.95
515.499	28435.02
515.701	28828.23
515.904	29250.11
516.106	29536.83
516.308	29637.18
516.51	29719.1
516.712	29954.61
516.914	30257.71
517.116	30798.38
517.318	30710.32
517.52	30888.49
517.722	31240.74
517.925	31494.69
518.127	32033.3
518.329	32172.57
518.531	32045.59
518.733	32567.82
518.935	32424.47
519.136	32674.32
519.338	33257.99
519.54	33235.46
519.742	33827.32
519.944	33884.67
520.146	34302.45
520.348	34552.3
520.55	34824.68
520.752	35017.19
520.954	34941.42
521.155	34836.97
521.357	35645.92
521.559	35893.72
521.761	36231.64
521.963	36192.73
522.164	36639.18
522.366	36772.3
522.568	37007.82
522.77	37417.41
522.971	37798.34
523.173	36997.58
523.375	37847.49
523.576	38058.43
523.778	37810.62
523.98	38492.6
524.181	38728.11
524.383	38603.19
524.584	38939.05
524.786	39203.24
524.988	38937.01
525.189	39698.85
525.391	39965.09
525.592	39899.55
525.794	40135.07
525.995	40182.17
526.197	39985.57
526.398	40368.54
526.6	40702.35
526.801	40888.72
527.003	41269.64
527.204	40954.26
527.406	41406.86
527.607	41357.7
527.808	41838.98
528.01	41322.89
528.211	41492.87
528.412	42166.65
528.614	42275.19
528.815	41591.17
529.016	42594.68
529.218	42479.99
529.419	42785.14
529.62	42164.6
529.822	42154.36
530.023	42189.18
530.224	42299.77
530.425	42627.45
530.626	42475.9
530.828	42439.03
531.029	43530.6
531.23	42422.65
531.431	42514.81
531.632	42856.82
531.833	43268.46
532.035	42867.06
532.236	43041.14
532.437	43389.29
532.638	43053.42
532.839	43442.54
533.04	43463.02
533.241	42957.17
533.442	43501.93
533.643	43731.3
533.844	43489.64
534.045	43657.57
534.246	43321.71
534.447	42987.89
534.648	43856.23
534.849	43815.27
535.05	43413.87
535.251	43217.26
535.451	43659.62
535.652	43651.43
535.853	43626.85
536.054	43923.81
536.255	43487.59
536.456	43233.64
536.657	44177.76
536.857	43168.11
537.058	43688.29
537.259	43995.49
537.46	43970.91
537.66	43780.45
537.861	43712.87
538.062	43374.95
538.263	43909.47
538.463	43770.21
538.664	43968.87
538.865	43692.39
539.065	43882.85
539.266	43094.38
539.466	43614.57
539.667	43141.49
539.868	44093.79
540.068	43751.78
540.269	43528.55
540.469	43962.72
540.67	43528.55
540.87	43571.56
541.071	43207.02
541.271	43823.46
541.472	43569.51
541.672	43250.03
541.873	43297.13
542.073	43110.77
542.274	43843.94
542.474	43546.98
542.675	43213.16
542.875	43970.91
543.075	43151.73
543.276	43213.16
543.476	43874.66
543.676	43016.56
543.877	43274.6
544.077	43643.24
544.277	43473.26
544.478	43401.58
544.678	43678.05
544.878	43637.09
545.078	43454.82
545.279	43010.42
545.479	43078
545.679	43424.11
545.879	43286.89
546.079	43233.64
546.28	43282.8
546.48	42830.19
546.68	43252.08
546.88	43014.51
547.08	43200.88
547.28	43178.35
547.48	42973.55
547.68	43090.29
547.88	42680.69
548.081	43325.8
548.281	42934.64
548.481	43063.66
548.681	43340.14
548.881	43016.56
549.081	43295.08
549.28	42682.74
549.48	43075.95
549.68	42871.15
549.88	43381.1
550.08	43049.33
550.28	43084.14
550.48	42840.43
550.68	43303.28
550.88	42559.86
551.08	42744.18
551.279	42889.59
551.479	42758.52
551.679	42766.71
551.879	42643.83
552.079	42924.4
552.278	42676.6
552.478	43032.94
552.678	42903.92
552.878	42854.77
553.077	42760.56
553.277	42246.52
553.477	43008.37
553.676	42561.91
553.876	42611.06
554.076	42107.26
554.275	42520.95
554.475	42316.15
554.674	42688.88
554.874	42641.78
555.074	42436.98
555.273	42396.03
555.473	42441.08
555.672	41888.13
555.872	42365.31
556.071	42187.13
556.271	42584.44
556.47	42131.84
556.67	41697.67
556.869	42248.57
557.068	42148.22
557.268	41492.87
557.467	42080.64
557.667	42176.89
557.866	42156.41
558.065	41767.3
558.265	41746.82
558.464	41554.31
558.663	42078.59
558.863	41572.74
559.062	41933.18
559.261	41154.96
559.461	41806.21
559.66	40927.63
559.859	41423.24
560.058	41013.65
560.258	41349.51
560.457	41130.38
560.656	41386.38
560.855	41185.68
561.054	40919.44
561.253	40616.34
561.453	40675.73
561.652	40950.16
561.851	41132.43
562.05	40720.79
562.249	40452.5
562.448	41216.4
562.647	40694.16
562.846	40610.2
563.045	40298.91
563.244	40583.57
563.443	40546.71
563.642	39989.66
563.841	40284.57
564.04	40016.29
564.239	40352.15
564.438	39946.65
564.637	40219.03
564.836	40391.06
565.035	39629.22
565.234	40292.76
565.432	39664.03
565.631	39524.77
565.83	39668.13
566.029	39287.21
566.228	39207.34
566.427	39401.89
566.625	39459.24
566.824	38719.92
567.023	39600.55
567.222	38506.93
567.42	39698.85
567.619	39119.28
567.818	38973.87
568.016	38937.01
568.215	38900.14
568.414	38355.38
568.612	39129.51
568.811	38707.63
569.01	38488.5
569.208	38074.81
569.407	38242.74
569.605	38197.69
569.804	38158.78
570.002	37966.27
570.201	38164.92
570.4	37722.56
570.598	37444.04
570.797	37337.54
570.995	37876.16
571.193	37210.57
571.392	37525.96
571.59	37229
571.789	37315.01
571.987	37409.22
572.186	36991.44
572.384	36837.84
572.582	37349.83
572.781	37165.51
572.979	36680.14
573.177	36741.58
573.376	36823.5
573.574	36391.38
573.772	36696.53
573.971	36485.59
574.169	36313.56
574.367	36276.69
574.565	36303.32
574.763	36217.3
574.962	35826.14
575.16	35428.84
575.358	35969.5
575.556	35623.39
575.754	35971.55
575.952	35480.03
576.151	35748.32
576.349	35623.39
576.547	35217.89
576.745	35529.19
576.943	35531.23
577.141	35471.84
577.339	35437.03
577.537	34693.61
577.735	35236.33
577.933	34347.51
578.131	35006.95
578.329	34640.37
578.527	34451.95
578.725	34550.26
578.923	34707.95
579.121	34460.15
579.319	34222.58
579.516	34626.03
579.714	34030.07
579.912	34097.66
580.11	33593.86
580.308	33669.63
580.506	34034.17
580.704	33671.68
580.901	33411.59
581.099	33669.63
581.297	33354.24
581.495	33337.86
581.692	33446.4
581.89	32895.5
582.088	33499.65
582.285	32975.37
582.483	33139.21
582.681	33174.02
582.878	32506.38
583.076	32563.73
583.274	32709.13
583.471	32203.28
583.669	32582.16
583.866	31912.47
584.064	32584.21
584.262	32172.57
584.459	32520.72
584.657	32033.3
584.854	32485.9
585.052	31638.05
585.249	32033.3
585.447	32051.73
585.644	31414.82
585.841	31554.08
586.039	31828.51
586.236	31126.05
586.434	31248.93
586.631	31363.62
586.828	31064.61
587.026	31078.95
587.223	31154.72
587.42	30861.87
587.618	31218.21
587.815	30470.7
588.012	30554.67
588.21	30644.78
588.407	30724.65
588.604	30448.18
588.801	30415.41
588.999	30595.63
589.196	29950.52
589.393	30417.46
589.59	30263.86
589.787	29979.19
589.984	30200.37
590.182	29639.23
590.379	29678.14
590.576	29542.97
590.773	29547.07
590.97	29387.33
591.167	29561.4
591.364	29241.92
591.561	29497.92
591.758	29168.19
591.955	28656.2
592.152	29219.39
592.349	28985.93
592.546	28918.34
592.743	29321.79
592.94	28488.27
593.137	28607.05
593.334	28875.34
593.531	28340.82
593.727	28535.37
593.924	28723.79
594.121	28068.44
594.318	28183.12
594.515	27931.22
594.712	28240.47
594.908	27996.76
595.105	27597.4
595.302	27808.34
595.499	27898.45
595.696	27470.43
595.892	27480.67
596.089	27730.52
596.286	27642.46
596.482	27210.34
596.679	27404.89
596.876	27347.55
597.072	27026.02
597.269	27318.88
597.466	27038.31
597.662	26747.5
597.859	26661.48
598.055	26919.53
598.252	26735.21
598.448	26655.34
598.645	26321.52
598.841	26284.65
599.038	26767.98
599.234	26518.12
599.431	26249.84
599.627	26104.43
599.824	26151.54
600.02	25846.39
600.217	26153.58
600.413	25817.72
600.609	25817.72
600.806	25234.05
601.002	25789.05
601.198	25459.32
601.395	25610.87
601.591	25418.36
601.787	25344.64
601.984	25127.55
602.18	25580.15
602.376	24986.24
602.572	25102.98
602.769	25236.09
602.965	24742.53
603.161	24992.39
603.357	24736.39
603.553	24683.14
603.75	24715.91
603.946	24255.12
604.142	24959.62
604.338	23925.39
604.534	24255.12
604.73	24015.51
604.926	23917.2
605.122	24429.2
605.318	24169.1
605.514	24001.17
605.71	23880.34
605.906	23632.54
606.102	23730.84
606.298	23698.07
606.494	23679.64
606.69	23452.31
606.886	23405.21
607.082	23394.97
607.278	23530.14
607.474	23190.17
607.67	23423.64
607.866	23108.26
608.062	23390.88
608.257	23261.85
608.453	23003.81
608.649	23249.57
608.845	23028.38
609.041	23079.58
609.236	22966.95
609.432	22903.46
609.628	22848.16
609.824	22579.88
610.019	22688.42
610.215	22819.49
610.411	22899.36
610.606	22579.88
610.802	22727.33
610.998	22575.78
611.193	22477.48
611.389	22270.64
611.584	22375.08
611.78	22086.32
611.976	22420.14
612.171	22416.04
612.367	22211.25
612.562	21959.34
612.758	21803.7
612.953	22035.12
613.149	22405.8
613.344	21750.45
613.539	22287.02
613.735	22057.65
613.93	21875.38
614.126	22223.53
614.321	21940.91
614.517	21877.43
614.712	21459.64
614.907	21983.92
615.103	21660.34
615.298	21828.27
615.493	21646.01
615.688	21222.08
615.884	21686.97
616.079	21359.29
616.274	21492.41
616.47	21293.76
616.665	21707.44
616.86	21310.14
617.055	21303.99
617.25	21375.67
617.445	21281.47
617.641	20710.08
617.836	20966.08
618.031	20720.32
618.226	21017.28
618.421	20783.81
618.616	21056.19
618.811	20841.15
619.006	20820.67
619.201	20486.86
619.396	20648.64
619.591	20335.31
619.786	20404.94
619.981	20095.69
620.176	20361.93
620.371	19794.64
620.566	20134.6
620.761	20097.74
620.956	20107.98
621.151	19927.76
621.346	20036.3
621.541	19534.55
621.735	19704.53
621.93	19059.42
622.125	19346.14
622.32	19184.35
622.515	19172.06
622.709	19081.95
622.904	19122.91
623.099	18977.5
623.294	18830.05
623.488	18739.94
623.683	18979.55
623.878	18655.97
624.072	18758.37
624.267	18639.59
624.462	18045.68
624.656	17894.13
624.851	18150.12
625.046	18125.55
625.24	18123.5
625.435	17758.96
625.629	17509.11
625.824	17738.48
626.018	17480.44
626.213	17142.52
626.407	17580.79
626.602	17056.51
626.796	17548.02
626.991	17257.21
627.185	17109.75
627.38	16687.87
627.574	16657.15
627.768	16675.59
627.963	16374.53
628.157	16540.42
628.352	16585.47
628.546	16208.65
628.74	16458.5
628.935	16294.66
629.129	16401.16
629.323	16020.24
629.517	15878.93
629.712	15930.12
629.906	15745.81
630.1	15639.31
630.294	15547.15
630.489	15471.38
630.683	15442.71
630.877	15606.55
631.071	15012.63
631.265	15313.69
631.459	15211.29
631.653	14947.1
631.848	14838.56
632.042	14676.77
632.236	14781.21
632.43	14697.25
632.624	14607.14
632.818	14603.04
633.012	14373.67
633.206	14390.05
633.4	14248.74
633.594	14236.45
633.788	14244.65
633.982	14193.45
634.176	14168.87
634.369	13955.88
634.563	13959.98
634.757	13892.4
634.951	13742.89
635.145	14041.9
635.339	13763.37
635.533	13564.72
635.726	13620.02
635.92	13435.7
636.114	13470.51
636.308	13343.54
636.501	13476.66
636.695	13239.09
636.889	13093.69
637.083	13132.6
637.276	12798.78
637.47	12960.57
637.664	12680
637.857	12690.24
638.051	12798.78
638.244	12727.1
638.438	12573.5
638.632	12653.37
638.825	12499.78
639.019	12309.32
639.212	12243.78
639.406	12440.39
639.599	12313.41
639.793	12235.59
639.986	12020.55
640.18	12102.47
640.373	11815.76
640.567	11909.96
640.76	11813.71
640.954	11666.25
641.147	11512.66
641.34	11590.48
641.534	11615.05
641.727	11492.18
641.92	11524.94
642.114	11287.38
642.307	11242.32
642.5	11414.35
642.694	11287.38
642.887	11217.75
643.08	11047.77
643.273	11320.15
643.467	10947.42
643.66	10941.27
643.853	10775.39
644.046	10810.2
644.239	10943.32
644.432	10759
644.626	10648.41
644.819	10736.48
645.012	10640.22
645.205	10580.83
645.398	10402.66
645.591	10421.09
645.784	10470.24
645.977	10101.61
646.17	10287.97
646.363	10371.94
646.556	10017.64
646.749	10173.28
646.942	10161
647.135	9759.6
647.328	10083.17
647.521	9749.36
647.714	9747.31
647.907	9732.97
648.099	9927.53
648.292	9814.89
648.485	9704.3
648.678	9603.95
648.871	9646.96
649.064	9433.97
649.256	9491.31
649.449	9251.7
649.642	9438.06
649.835	9194.36
650.027	9397.1
650.22	9298.8
650.413	9098.1
650.605	9175.92
650.798	8985.46
650.991	8942.46
651.183	8995.7
651.376	8850.3
651.568	9032.57
651.761	8747.9
651.954	8887.16
652.146	8821.63
652.339	8876.92
652.531	8676.22
652.724	8498.05
652.916	8350.59
653.109	8477.57
653.301	8383.36
653.494	8457.09
653.686	8362.88
653.879	8207.23
654.071	8258.43
654.263	8291.2
654.456	8301.44
654.648	8344.45
654.84	8119.17
655.033	8092.55
655.225	8000.39
655.417	7990.15
655.61	7859.08
655.802	7887.75
655.994	7713.67
656.186	7885.7
656.379	7861.13
656.571	7822.22
656.763	7568.27
656.955	7752.59
657.148	7678.86
657.34	7347.09
657.532	7570.32
657.724	7369.62
657.916	7502.73
658.108	7396.24
658.3	7445.39
658.492	7381.9
658.684	7476.11
658.876	7447.44
659.068	7222.16
659.26	7029.65
659.452	7150.48
659.644	7191.44
659.836	7025.56
660.028	7265.17
660.22	6947.73
660.412	7087
660.604	7134.1
660.796	6906.77
660.988	7070.61
661.18	6876.06
661.372	6859.67
661.563	6790.04
661.755	6722.46
661.947	6744.99
662.139	6665.11
662.331	6609.82
662.522	6673.31
662.714	6613.92
662.906	6601.63
663.097	6452.13
663.289	6474.65
663.481	6456.22
663.673	6405.02
663.864	6468.51
664.056	6228.9
664.247	6359.97
664.439	6347.68
664.631	6290.34
664.822	6288.29
665.014	6091.68
665.205	6292.38
665.397	6155.17
665.588	6296.48
665.78	6108.07
665.971	6009.76
666.163	5862.31
666.354	5933.99
666.546	5913.51
666.737	5884.84
666.929	5899.17
667.12	5987.24
667.311	5923.75
667.503	5774.25
667.694	5847.97
667.885	5612.46
668.077	6020
668.268	5706.66
668.459	5657.51
668.651	5522.35
668.842	5614.51
669.033	5591.98
669.224	5465
669.416	5417.9
669.607	5620.65
669.798	5495.72
669.989	5469.1
670.18	5538.73
670.371	5438.38
670.563	5487.53
670.754	5456.81
670.945	5166
671.136	5280.69
671.327	5374.89
671.518	5245.87
671.709	5188.53
671.9	5331.89
672.091	5284.78
672.282	5260.21
672.473	5241.78
672.664	5268.4
672.855	5135.28
673.046	5012.4
673.237	5176.24
673.428	5018.55
673.619	5135.28
673.809	5036.98
674	4946.87
674.191	5141.43
674.382	4936.63
674.573	5079.99
674.764	4813.75
674.954	5008.31
675.145	4864.95
675.336	4932.53
675.527	4768.7
675.717	4801.46
675.908	4842.42
676.099	4852.66
676.289	4750.26
676.48	4768.7
676.671	4875.19
676.861	4875.19
677.052	4627.39
677.243	4711.35
677.433	4809.65
677.624	4735.93
677.814	4750.26
678.005	4801.46
678.195	4375.49
678.386	4672.44
678.576	4527.03
678.767	4545.47
678.957	4516.8
679.148	4709.3
679.338	4590.52
679.529	4725.69
679.719	4660.15
679.909	4522.94
680.1	4570.04
680.29	4473.79
680.481	4596.67
680.671	4418.49
680.861	4537.27
681.052	4377.53
681.242	4332.48
681.432	4471.74
681.622	4438.97
681.813	4410.3
682.003	4324.29
682.193	4383.68
682.383	4307.9
682.573	4383.68
682.764	4314.05
682.954	4348.86
683.144	4307.9
683.334	4271.04
683.524	4320.19
683.714	4283.33
683.904	4176.83
684.094	4182.98
684.284	4201.41
684.474	4193.22
684.664	4244.42
684.854	4156.35
685.044	4101.06
685.234	4103.11
685.424	4256.7
685.614	4078.53
685.804	4015.04
685.994	3879.88
686.184	4086.72
686.374	4142.02
686.564	3951.56
686.753	4033.47
686.943	3972.04
687.133	4021.19
687.323	4047.81
687.513	3931.08
687.702	3924.93
687.892	3808.2
688.082	4029.38
688.272	3906.5
688.461	3886.02
688.651	3724.23
688.841	3744.71
689.03	3804.1
689.22	3859.4
689.41	3830.73
689.599	3738.57
689.789	3703.75
689.979	3754.95
690.168	3539.91
690.358	3666.89
690.547	3683.27
690.737	3800.01
690.926	3656.65
691.116	3677.13
691.305	3560.39
691.495	3621.83
691.684	3488.71
691.874	3458
692.063	3443.66
692.252	3345.36
692.442	3511.24
692.631	3478.47
692.82	3435.47
693.01	3439.56
693.199	3394.51
693.388	3365.84
693.578	3417.04
693.767	3333.07
693.956	3261.39
694.146	3408.84
694.335	3283.92
694.524	3341.26
694.713	3324.88
694.902	3220.43
695.092	3310.54
695.281	3113.94
695.47	3214.29
695.659	3181.52
695.848	3187.66
696.037	3036.11
696.226	3189.71
696.415	3089.36
696.604	3050.45
696.793	3226.57
696.982	3093.46
697.171	3132.37
697.36	3103.7
697.549	3154.9
697.738	3058.64
697.927	3079.12
698.116	3156.94
698.305	3001.3
698.494	3101.65
698.683	3070.93
698.872	3052.5
699.061	3081.17
699.25	3056.59
699.438	2968.53
699.627	3027.92
699.816	2968.53
700.005	3023.83
700.193	2958.29
700.382	3107.79
700.571	3091.41
700.76	2997.2
700.948	2907.09
701.137	2962.39
701.326	2870.23
701.514	2903
701.703	2958.29
701.892	3077.07
702.08	3015.63
702.269	2954.19
702.457	2915.28
702.646	2728.92
702.834	2753.49
703.023	2960.34
703.212	2862.04
703.4	2962.39
703.589	2751.45
703.777	3015.63
703.965	2819.03
704.154	2933.72
704.342	2759.64
704.531	2857.94
704.719	2905.04
704.907	2943.96
705.096	2892.76
705.284	2966.48
705.472	2833.36
705.661	2827.22
705.849	2853.84
706.037	2909.14
706.226	2886.61
706.414	2855.89
706.602	2796.5
706.79	2894.8
706.979	2925.52
707.167	2720.73
707.355	2874.32
707.543	2849.75
707.731	2784.21
707.919	2786.26
708.107	2761.69
708.296	2847.7
708.484	2759.64
708.672	2655.19
708.86	2827.22
709.048	2765.78
709.236	2792.41
709.424	2767.83
709.612	2816.98
709.8	2786.26
709.988	2757.59
710.176	2714.58
710.364	2632.66
710.551	2716.63
710.739	2624.47
710.927	2835.41
711.115	2733.01
711.303	2741.21
711.491	2751.45
711.679	2812.89
711.866	2778.07
712.054	2806.74
712.242	2757.59
712.43	2714.58
712.617	2728.92
712.805	2878.42
712.993	2692.05
713.181	2696.15
713.368	2710.49
713.556	2677.72
713.744	2636.76
713.931	2751.45
714.119	2733.01
714.306	2669.53
714.494	2716.63
714.682	2663.38
714.869	2608.09
715.057	2722.77
715.244	2806.74
715.432	2751.45
715.619	2782.17
715.807	2657.24
715.994	2741.21
716.182	2698.2
716.369	2773.97
716.556	2784.21
716.744	2642.9
716.931	2667.48
717.119	2788.31
717.306	2651.1
717.493	2585.56
717.681	2696.15
717.868	2669.53
718.055	2681.82
718.242	2644.95
718.43	2786.26
718.617	2634.71
718.804	2589.66
718.991	2671.58
719.179	2796.5
719.366	2728.92
719.553	2675.67
719.74	2700.25
719.927	2593.75
720.114	2769.88
720.301	2696.15
720.488	2663.38
720.676	2671.58
720.863	2651.1
721.05	2665.43
721.237	2577.37
721.424	2640.86
721.611	2720.73
721.798	2661.34
721.985	2589.66
722.172	2526.17
722.358	2683.86
722.545	2624.47
722.732	2767.83
722.919	2591.7
723.106	2663.38
723.293	2671.58
723.48	2634.71
723.667	2632.66
723.853	2544.6
724.04	2632.66
724.227	2644.95
724.414	2730.97
724.6	2659.29
724.787	2685.91
724.974	2706.39
725.161	2573.27
725.347	2597.85
725.534	2653.14
725.72	2706.39
725.907	2685.91
726.094	2679.77
726.28	2606.04
726.467	2757.59
726.653	2690.01
726.84	2685.91
727.027	2608.09
727.213	2554.84
727.4	2624.47
727.586	2634.71
727.773	2751.45
727.959	2773.97
728.145	2581.46
728.332	2642.9
728.518	2659.29
728.705	2636.76
728.891	2649.05
729.077	2653.14
729.264	2640.86
729.45	2628.57
729.636	2577.37
729.823	2601.94
730.009	2671.58
730.195	2747.35
730.382	2655.19
730.568	2696.15
730.754	2743.25
730.94	2673.62
731.126	2833.36
731.313	2675.67
731.499	2616.28
731.685	2739.16
731.871	2679.77
732.057	2677.72
732.243	2735.06
732.429	2599.9
732.615	2755.54
732.801	2724.82
732.987	2624.47
733.173	2489.31
733.359	2612.18
733.545	2571.22
733.731	2706.39
733.917	2620.38
734.103	2763.73
734.289	2788.31
734.475	2669.53
734.661	2665.43
734.847	2735.06
735.033	2712.53
735.219	2622.42
735.404	2626.52
735.59	2636.76
735.776	2649.05
735.962	2673.62
736.148	2612.18
736.333	2800.6
736.519	2642.9
736.705	2649.05
736.89	2704.34
737.076	2683.86
737.262	2610.14
737.447	2483.16
737.633	2608.09
737.819	2466.78
738.004	2593.75
738.19	2599.9
738.375	2593.75
738.561	2507.74
738.747	2569.18
738.932	2548.7
739.118	2636.76
739.303	2528.22
739.489	2733.01
739.674	2515.93
739.859	2522.07
740.045	2642.9
740.23	2505.69
740.416	2522.07
740.601	2573.27
740.786	2626.52
740.972	2446.3
741.157	2495.45
741.342	2434.01
741.528	2530.27
741.713	2556.89
741.898	2427.87
742.084	2462.68
742.269	2431.96
742.454	2647
742.639	2450.39
742.824	2436.06
743.01	2485.21
743.195	2565.08
743.38	2405.34
743.565	2372.57
743.75	2466.78
743.935	2401.24
744.12	2393.05
744.305	2380.76
744.49	2350.04
744.675	2462.68
744.86	2329.56
745.045	2231.26
745.23	2345.95
745.415	2280.41
745.6	2294.75
745.785	2348
745.97	2407.39
746.155	2454.49
746.34	2329.56
746.525	2259.93
746.71	2335.71
746.895	2210.78
747.079	2282.46
747.264	2276.32
747.449	2272.22
747.634	2255.84
747.819	2239.45
748.003	2255.84
748.188	2116.58
748.373	2223.07
748.557	2257.89
748.742	2061.28
748.927	2245.6
749.111	2143.2
749.296	2051.04
749.481	2046.94
749.665	2118.62
749.85	2061.28
750.034	2147.3
750.219	2034.66
750.404	1917.92
750.588	1956.83
750.773	2075.62
750.957	1922.02
751.141	2055.14
751.326	1993.7
751.51	1944.55
751.695	1942.5
751.879	1876.96
752.064	2030.56
752.248	1930.21
752.432	1960.93
752.617	1901.54
752.801	1907.68
752.985	1866.72
753.17	1870.82
753.354	1788.9
753.538	1809.38
753.722	1842.15
753.907	1809.38
754.091	1893.35
754.275	1657.83
754.459	1694.69
754.643	1729.51
754.828	1682.41
755.012	1854.44
755.196	1631.21
755.38	1711.08
755.564	1620.97
755.748	1821.67
755.932	1602.54
756.116	1569.77
756.3	1655.78
756.484	1623.02
756.668	1762.28
756.852	1465.32
757.036	1618.92
757.22	1590.25
757.404	1522.66
757.588	1571.82
757.772	1481.71
757.956	1473.51
758.14	1588.2
758.323	1563.62
758.507	1620.97
758.691	1530.86
758.875	1549.29
759.059	1465.32
759.242	1459.18
759.426	1444.84
759.61	1358.83
759.794	1440.75
759.977	1489.9
760.161	1498.09
760.345	1369.07
760.528	1428.46
760.712	1338.35
760.895	1393.64
761.079	1360.88
761.263	1276.91
761.446	1324.01
761.63	1379.31
761.813	1477.61
761.997	1424.36
762.18	1272.81
762.364	1418.22
762.547	1278.96
762.731	1299.44
762.914	1313.77
763.098	1270.76
763.281	1332.2
763.464	1268.72
763.648	1285.1
763.831	1330.16
764.015	1266.67
764.198	1291.24
764.381	1283.05
764.564	1364.97
764.748	1334.25
764.931	1270.76
765.114	1213.42
765.297	1295.34
765.481	1231.85
765.664	1119.21
765.847	1209.33
766.03	1264.62
766.213	1176.56
766.397	1213.42
766.58	1194.99
766.763	1133.55
766.946	1178.61
767.129	1250.28
767.312	1141.74
767.495	1149.93
767.678	1207.28
767.861	1108.98
768.044	1213.42
768.227	1108.98
768.41	1139.69
768.593	1072.11
768.776	1039.34
768.959	1141.74
769.142	979.95
769.324	1111.02
769.507	1143.79
769.69	1018.86
769.873	1158.13
770.056	1070.06
770.239	1119.21
770.421	1104.88
770.604	1139.69
770.787	975.86
770.97	1133.55
771.152	1068.02
771.335	988.14
771.518	1022.96
771.7	1072.11
771.883	1059.82
772.066	977.91
772.248	1000.43
772.431	1102.83
772.613	1074.16
772.796	922.61
772.978	1059.82
773.161	1002.48
773.343	1027.06
773.526	965.62
773.708	969.71
773.891	867.31
774.073	975.86
774.256	922.61
774.438	924.66
774.621	1027.06
774.803	887.79
774.985	955.38
775.168	998.38
775.35	973.81
775.532	992.24
775.715	900.08
775.897	865.27
776.079	877.55
776.261	871.41
776.444	959.47
776.626	887.79
776.808	756.72
776.99	744.44
777.173	842.74
777.355	861.17
777.537	828.4
777.719	818.16
777.901	762.87
778.083	762.87
778.265	814.07
778.447	793.59
778.629	764.92
778.811	717.81
778.993	838.64
779.175	771.06
779.357	717.81
779.539	738.29
779.721	775.16
779.903	769.01
780.085	805.88
780.267	818.16
780.449	719.86
780.631	670.71
780.812	678.9
780.994	621.56
781.176	723.96
781.358	676.85
781.54	646.13
781.721	648.18
781.903	687.09
782.085	666.61
782.267	709.62
782.448	754.68
782.63	660.47
782.812	580.6
782.993	617.46
783.175	601.08
783.357	648.18
783.538	658.42
783.72	678.9
783.901	594.93
784.083	584.7
784.264	592.89
784.446	572.41
784.627	586.74
784.809	543.74
784.99	543.74
785.172	662.52
785.353	519.16
785.535	519.16
785.716	580.6
785.897	549.88
786.079	521.21
786.26	586.74
786.441	564.22
786.623	572.41
786.804	570.36
786.985	527.35
787.167	558.07
787.348	510.97
787.529	490.49
787.71	517.11
787.891	467.96
788.073	484.34
788.254	363.51
788.435	494.58
788.616	551.93
788.797	437.24
788.978	488.44
789.159	488.44
789.34	533.5
789.522	470.01
789.703	513.02
789.884	463.86
790.065	451.58
790.246	422.91
790.427	474.1
790.607	498.68
790.788	515.06
790.969	457.72
791.15	369.66
791.331	392.19
791.512	465.91
791.693	488.44
791.874	445.43
792.054	451.58
792.235	480.25
792.416	390.14
792.597	353.27
792.778	383.99
792.958	427
793.139	375.8
793.32	404.47
793.5	357.37
793.681	420.86
793.862	441.34
794.042	371.71
794.223	408.57
794.404	343.03
794.584	330.75
794.765	300.03
794.945	373.75
795.126	359.42
795.306	289.79
795.487	355.32
795.667	373.75
795.848	392.19
796.028	383.99
796.209	308.22
796.389	439.29
796.57	340.99
796.75	304.12
796.93	383.99
797.111	355.32
797.291	287.74
797.471	408.57
797.652	289.79
797.832	302.08
798.012	338.94
798.192	322.56
798.373	351.23
798.553	281.6
798.733	363.51
798.913	359.42
799.093	254.97
799.274	322.56
799.454	291.84
799.634	320.51
799.814	287.74
799.994	277.5
800.174	308.22
800.354	289.79
800.534	287.74
800.714	261.12
800.894	289.79
801.074	324.6
801.254	283.64
801.434	338.94
801.614	363.51
801.794	285.69
801.974	711.67
802.154	263.16
802.334	226.3
802.514	285.69
802.693	259.07
802.873	271.36
803.053	254.97
803.233	261.12
803.413	283.64
803.592	283.64
803.772	300.03
803.952	308.22
804.131	222.2
804.311	332.79
804.491	261.12
804.67	199.68
804.85	171.01
805.03	254.97
805.209	248.83
805.389	269.31
805.568	195.58
805.748	218.11
805.928	177.15
806.107	338.94
806.287	234.49
806.466	220.16
806.646	211.96
806.825	189.44
807.004	205.82
807.184	287.74
807.363	267.26
807.543	267.26
807.722	220.16
807.901	244.73
808.081	230.4
808.26	228.35
808.439	240.64
808.619	259.07
808.798	228.35
808.977	297.98
809.156	263.16
809.336	269.31
809.515	302.08
809.694	201.72
809.873	203.77
810.052	177.15
810.231	248.83
810.411	226.3
810.59	248.83
810.769	242.68
810.948	205.82
811.127	166.91
811.306	203.77
811.485	199.68
811.664	273.4
811.843	199.68
812.022	160.77
812.201	203.77
812.38	297.98
812.559	154.62
812.737	199.68
812.916	222.2
813.095	156.67
813.274	113.66
813.453	117.76
813.632	136.19
813.811	207.87
813.989	189.44
814.168	166.91
814.347	84.99
814.526	148.48
814.704	156.67
814.883	226.3
815.062	191.49
815.24	252.92
815.419	230.4
815.598	261.12
815.776	168.96
815.955	152.57
816.133	173.05
816.312	156.67
816.49	113.66
816.669	185.34
816.847	218.11
817.026	195.58
817.204	113.66
817.383	181.25
817.561	193.53
817.74	261.12
817.918	173.05
818.097	179.2
818.275	201.72
818.453	173.05
818.632	140.29
818.81	125.95
818.988	107.52
819.167	152.57
819.345	150.53
819.523	130.05
819.701	105.47
819.879	179.2
820.058	189.44
820.236	111.61
820.414	60.42
820.592	142.33
820.77	154.62
820.948	146.43
821.127	195.58
821.305	150.53
821.483	152.57
821.661	144.38
821.839	199.68
822.017	134.14
822.195	179.2
822.373	209.92
822.551	134.14
822.729	97.28
822.907	140.29
823.085	123.9
823.262	171.01
823.44	138.24
823.618	142.33
823.796	123.9
823.974	123.9
824.152	121.85
824.329	103.42
824.507	189.44
824.685	134.14
824.863	117.76
825.04	125.95
825.218	185.34
825.396	150.53
825.574	111.61
825.751	76.8
825.929	173.05
826.107	125.95
826.284	74.75
826.462	150.53
826.639	82.94
826.817	158.72
826.994	60.42
827.172	74.75
827.349	160.77
827.527	134.14
827.704	136.19
827.882	95.23
828.059	95.23
828.237	111.61
828.414	64.51
828.591	119.81
828.769	113.66
828.946	113.66
829.124	142.33
829.301	160.77
829.478	80.89
829.655	111.61
829.833	107.52
830.01	35.84
830.187	87.04
830.364	-15.36
830.542	62.46
830.719	146.43
830.896	109.57
831.073	91.13
831.25	70.65
831.427	115.71
831.604	115.71
831.782	162.81
831.959	146.43
832.136	21.5
832.313	25.6
832.49	19.46
832.667	119.81
832.844	68.61
833.021	66.56
833.198	89.09
833.374	115.71
833.551	132.09
833.728	80.89
833.905	123.9
834.082	60.42
834.259	72.7
834.436	27.65
834.612	138.24
834.789	158.72
834.966	62.46
835.143	29.7
835.319	97.28
835.496	58.37
835.673	64.51
835.85	150.53
836.026	123.9
836.203	84.99
836.38	109.57
836.556	111.61
836.733	27.65
836.909	97.28
837.086	109.57
837.262	62.46
837.439	41.98
837.616	117.76
837.792	64.51
837.968	93.18
838.145	19.46
838.321	78.85
838.498	82.94
838.674	132.09
838.851	82.94
839.027	154.62
839.203	46.08
839.38	15.36
839.556	105.47
839.732	56.32
839.909	74.75
840.085	115.71
840.261	111.61
840.437	93.18
840.614	37.89
840.79	21.5
840.966	58.37
841.142	66.56
841.318	82.94
841.494	74.75
841.671	128
841.847	68.61
842.023	54.27
842.199	93.18
842.375	197.63
842.551	52.22
842.727	27.65
842.903	89.09
843.079	66.56
843.255	52.22
843.431	82.94
843.607	113.66
843.783	15.36
843.959	121.85
844.134	13.31
844.31	52.22
844.486	80.89
844.662	13.31
844.838	105.47
845.013	29.7
845.189	66.56
845.365	66.56
845.541	23.55
845.716	89.09
845.892	44.03
846.068	21.5
846.244	25.6
846.419	46.08
846.595	72.7
846.77	74.75
846.946	76.8
847.122	70.65
847.297	125.95
847.473	33.79
847.648	80.89
847.824	46.08
847.999	74.75
848.175	27.65
848.35	23.55
848.526	56.32
848.701	27.65
848.876	103.42
849.052	74.75
849.227	13.31
849.403	76.8
849.578	74.75
849.753	-31.74
849.929	39.94
850.104	29.7
850.279	29.7
850.454	56.32
850.63	109.57
850.805	3.07
850.98	31.74
851.155	82.94
851.33	11.26
851.505	-23.55
851.681	93.18
851.856	5.12
852.031	46.08
852.206	-39.94
852.381	46.08
852.556	48.13
852.731	62.46
852.906	91.13
853.081	123.9
853.256	97.28
853.431	78.85
853.606	46.08
853.781	44.03
853.956	-15.36
854.131	-48.13
854.305	58.37
854.48	-5.12
854.655	25.6
854.83	128
855.005	48.13
855.18	-15.36
855.354	-7.17
855.529	-5.12
855.704	76.8
855.879	15.36
856.053	7.17
856.228	50.18
856.403	-37.89
856.577	80.89
856.752	-7.17
856.926	72.7
857.101	56.32
857.276	80.89
857.45	-31.74
857.625	76.8
857.799	15.36
857.974	48.13
858.148	15.36
858.323	50.18
858.497	72.7
858.672	82.94
858.846	60.42
859.02	27.65
859.195	-39.94
859.369	91.13
859.543	27.65
859.718	41.98
859.892	-48.13
860.066	99.33
860.241	-23.55
860.415	-17.41
860.589	105.47
860.763	70.65
860.938	70.65
861.112	35.84
861.286	9.22
861.46	13.31
861.634	48.13
861.808	48.13
861.982	52.22
862.157	-5.12
862.331	44.03
862.505	25.6
862.679	-29.7
862.853	-52.22
863.027	-11.26
863.201	103.42
863.375	9.22
863.549	68.61
863.722	119.81
863.896	-1.02
864.07	84.99
864.244	-1.02
864.418	19.46
864.592	52.22
864.766	7.17
864.939	-9.22
865.113	11.26
865.287	-17.41
865.461	-3.07
865.634	31.74
865.808	-3.07
865.982	-13.31
866.156	-48.13
866.329	3.07
866.503	44.03
866.676	76.8
866.85	25.6
867.024	23.55
867.197	-31.74
867.371	48.13
867.544	-11.26
867.718	41.98
867.891	3.07
868.065	-9.22
868.238	-5.12
868.412	25.6
868.585	101.37
868.759	1.02
868.932	-29.7
869.105	-9.22
869.279	-1.02
869.452	7.17
869.625	3.07
869.799	-15.36
869.972	-3.07
870.145	46.08
870.319	29.7
870.492	3.07
870.665	27.65
870.838	50.18
871.011	15.36
871.185	19.46
871.358	-3.07
871.531	21.5
871.704	-9.22
871.877	-23.55
872.05	-11.26
872.223	13.31
872.396	1.02
872.569	-15.36
872.742	-1.02
872.915	25.6
873.088	-31.74
873.261	-31.74
873.434	-13.31
873.607	-21.5
873.78	23.55
873.953	5.12
874.126	13.31
874.299	33.79
874.471	93.18
874.644	15.36
874.817	35.84
874.99	29.7
875.163	-17.41
875.335	99.33
875.508	11.26
875.681	-21.5
875.853	17.41
876.026	-5.12
876.199	-95.23
876.371	17.41
876.544	33.79
876.717	56.32
876.889	7.17
877.062	25.6
877.234	-9.22
877.407	9.22
877.579	-1.02
877.752	-5.12
877.924	11.26
878.097	27.65
878.269	-21.5
878.442	25.6
878.614	13.31
878.786	39.94
878.959	29.7
879.131	-39.94
879.303	-35.84
879.476	91.13
879.648	-3.07
879.82	19.46
879.993	-13.31
880.165	15.36
880.337	-7.17
880.509	-29.7
880.681	-54.27
880.854	9.22
881.026	-25.6
881.198	72.7
881.37	-74.75
881.542	13.31
881.714	37.89
881.886	-44.03
882.058	19.46
882.23	-21.5
882.402	50.18
882.574	48.13
882.746	-19.46
882.918	48.13
883.09	-78.85
883.262	87.04
883.434	44.03
883.606	-52.22
883.778	15.36
883.95	54.27
884.122	-54.27
884.293	25.6
884.465	50.18
884.637	95.23
884.809	1.02
884.98	-27.65
885.152	33.79
885.324	37.89
885.496	-46.08
885.667	54.27
885.839	33.79
886.011	37.89
886.182	25.6
886.354	68.61
886.525	-33.79
886.697	25.6
886.869	-9.22
887.04	27.65
887.212	35.84
887.383	-3.07
887.555	-44.03
887.726	33.79
887.897	21.5
888.069	31.74
888.24	78.85
888.412	44.03
888.583	-66.56
888.754	-39.94
888.926	-5.12
889.097	15.36
889.268	27.65
889.44	13.31
889.611	13.31
889.782	58.37
889.953	3.07
890.125	56.32
890.296	-52.22
890.467	31.74
890.638	-23.55
890.809	-1.02
890.98	-62.46
891.151	-37.89
891.323	29.7
891.494	33.79
891.665	62.46
891.836	66.56
892.007	-62.46
892.178	64.51
892.349	60.42
892.52	-56.32
892.691	52.22
892.862	23.55
893.032	9.22
893.203	-41.98
893.374	46.08
893.545	66.56
893.716	58.37
893.887	82.94
894.057	46.08
894.228	11.26
894.399	1.02
894.57	105.47
894.74	-33.79
894.911	-7.17
895.082	7.17
895.253	-21.5
895.423	76.8
895.594	11.26
895.764	29.7
895.935	-33.79
896.106	19.46
896.276	-76.8
896.447	80.89
896.617	35.84
896.788	72.7
896.958	-5.12
897.129	-50.18
897.299	-13.31
897.47	-41.98
897.64	7.17
897.81	-25.6
897.981	35.84
898.151	23.55
898.322	64.51
898.492	-5.12
898.662	-21.5
898.832	44.03
899.003	66.56
899.173	-54.27
899.343	25.6
899.513	-37.89
