Data from USB4F104151__76__11-45-30-567.txt Node

Date: Fri Mar 14 11:45:30 EDT 2025
User: louis
Spectrometer: USB4F10415
Trigger mode: 4
Integration Time (sec): 2.000000E-2
Scans to average: 1
Electric dark correction enabled: true
Nonlinearity correction enabled: false
Boxcar width: 0
XAxis mode: Wavelengths
Number of Pixels in Spectrum: 3648
>>>>>Begin Spectral Data<<<<<
178.204	-109.4
178.424	-109.4
178.644	-109.4
178.864	-70.48
179.084	-11.09
179.304	23.72
179.524	-45.91
179.744	36.01
179.964	27.82
180.184	13.48
180.404	56.49
180.624	-60.24
180.844	11.43
181.064	-15.19
181.283	56.49
181.503	-70.48
181.723	-33.62
181.943	25.77
182.163	64.68
182.383	-64.34
182.602	23.72
182.822	1.19
183.042	36.01
183.262	50.35
183.482	23.72
183.701	44.2
183.921	-43.86
184.141	-31.57
184.361	1.19
184.58	25.77
184.8	11.43
185.02	66.73
185.239	109.74
185.459	17.58
185.679	89.26
185.898	11.43
186.118	-7
186.338	9.39
186.557	7.34
186.777	-35.67
186.997	54.44
187.216	27.82
187.436	50.35
187.655	54.44
187.875	70.83
188.095	-31.57
188.314	5.29
188.534	38.06
188.753	40.11
188.973	58.54
189.192	13.48
189.412	23.72
189.631	25.77
189.851	36.01
190.07	-35.67
190.29	-25.43
190.509	44.2
190.729	38.06
190.948	17.58
191.168	156.84
191.387	-4.95
191.607	-9.05
191.826	-9.05
192.045	56.49
192.265	52.39
192.484	44.2
192.704	42.15
192.923	15.53
193.142	44.2
193.362	-25.43
193.581	101.55
193.8	-21.33
194.02	-21.33
194.239	72.87
194.458	29.87
194.678	62.63
194.897	56.49
195.116	93.35
195.335	36.01
195.555	33.96
195.774	7.34
195.993	74.92
196.212	66.73
196.432	31.91
196.651	36.01
196.87	-9.05
197.089	38.06
197.308	9.39
197.528	31.91
197.747	23.72
197.966	58.54
198.185	76.97
198.404	74.92
198.623	3.24
198.842	27.82
199.062	21.67
199.281	50.35
199.5	85.16
199.719	23.72
199.938	36.01
200.157	97.45
200.376	74.92
200.595	68.78
200.814	91.31
201.033	9.39
201.252	54.44
201.471	-25.43
201.69	113.83
201.909	-25.43
202.128	-9.05
202.347	74.92
202.566	91.31
202.785	46.25
203.004	19.63
203.223	42.15
203.442	136.36
203.661	11.43
203.879	-4.95
204.098	76.97
204.317	66.73
204.536	25.77
204.755	-2.9
204.974	36.01
205.193	40.11
205.411	58.54
205.63	97.45
205.849	15.53
206.068	36.01
206.287	23.72
206.505	19.63
206.724	105.64
206.943	11.43
207.162	23.72
207.381	19.63
207.599	68.78
207.818	36.01
208.037	76.97
208.255	-9.05
208.474	40.11
208.693	66.73
208.911	-0.85
209.13	56.49
209.349	60.59
209.567	60.59
209.786	109.74
210.005	52.39
210.223	-0.85
210.442	91.31
210.661	68.78
210.879	40.11
211.098	44.2
211.316	25.77
211.535	-43.86
211.753	70.83
211.972	27.82
212.191	9.39
212.409	66.73
212.628	79.02
212.846	31.91
213.065	87.21
213.283	60.59
213.502	29.87
213.72	38.06
213.938	-64.34
214.157	33.96
214.375	42.15
214.594	66.73
214.812	11.43
215.031	85.16
215.249	19.63
215.467	3.24
215.686	-0.85
215.904	19.63
216.122	-54.1
216.341	23.72
216.559	21.67
216.778	17.58
216.996	-4.95
217.214	-4.95
217.432	58.54
217.651	21.67
217.869	-15.19
218.087	44.2
218.306	31.91
218.524	79.02
218.742	66.73
218.96	17.58
219.179	-66.39
219.397	89.26
219.615	103.59
219.833	36.01
220.051	-13.14
220.27	54.44
220.488	-13.14
220.706	99.5
220.924	19.63
221.142	60.59
221.36	3.24
221.578	13.48
221.796	36.01
222.015	3.24
222.233	-13.14
222.451	42.15
222.669	66.73
222.887	142.5
223.105	19.63
223.323	5.29
223.541	64.68
223.759	132.26
223.977	91.31
224.195	89.26
224.413	54.44
224.631	46.25
224.849	40.11
225.067	107.69
225.285	-35.67
225.503	62.63
225.721	25.77
225.939	33.96
226.157	36.01
226.375	130.22
226.592	23.72
226.81	56.49
227.028	3.24
227.246	89.26
227.464	56.49
227.682	29.87
227.9	46.25
228.117	36.01
228.335	27.82
228.553	81.07
228.771	66.73
228.989	81.07
229.206	136.36
229.424	50.35
229.642	27.82
229.86	-0.85
230.077	74.92
230.295	52.39
230.513	1.19
230.731	42.15
230.948	3.24
231.166	19.63
231.384	44.2
231.601	91.31
231.819	44.2
232.037	72.87
232.254	60.59
232.472	68.78
232.689	13.48
232.907	27.82
233.125	107.69
233.342	52.39
233.56	-17.24
233.777	79.02
233.995	7.34
234.213	68.78
234.43	66.73
234.648	60.59
234.865	-17.24
235.083	103.59
235.3	11.43
235.518	13.48
235.735	56.49
235.953	36.01
236.17	-4.95
236.388	62.63
236.605	64.68
236.822	87.21
237.04	1.19
237.257	46.25
237.475	44.2
237.692	89.26
237.909	19.63
238.127	19.63
238.344	52.39
238.562	56.49
238.779	72.87
238.996	17.58
239.214	-11.09
239.431	83.11
239.648	27.82
239.865	126.12
240.083	3.24
240.3	11.43
240.517	42.15
240.735	23.72
240.952	91.31
241.169	83.11
241.386	-29.52
241.603	60.59
241.821	130.22
242.038	31.91
242.255	115.88
242.472	-2.9
242.689	25.77
242.907	52.39
243.124	66.73
243.341	23.72
243.558	54.44
243.775	95.4
243.992	31.91
244.209	17.58
244.426	109.74
244.643	3.24
244.86	-9.05
245.078	66.73
245.295	42.15
245.512	81.07
245.729	29.87
245.946	-13.14
246.163	42.15
246.38	29.87
246.597	115.88
246.814	42.15
247.031	-0.85
247.248	81.07
247.464	25.77
247.681	-15.19
247.898	44.2
248.115	15.53
248.332	52.39
248.549	58.54
248.766	48.3
248.983	3.24
249.2	-33.62
249.417	21.67
249.633	115.88
249.85	29.87
250.067	11.43
250.284	66.73
250.501	-4.95
250.717	124.07
250.934	95.4
251.151	-2.9
251.368	33.96
251.585	132.26
251.801	42.15
252.018	3.24
252.235	72.87
252.451	-27.48
252.668	31.91
252.885	126.12
253.102	-25.43
253.318	87.21
253.535	-2.9
253.752	-4.95
253.968	-54.1
254.185	25.77
254.401	15.53
254.618	52.39
254.835	-0.85
255.051	97.45
255.268	97.45
255.484	-29.52
255.701	99.5
255.917	66.73
256.134	15.53
256.351	-56.15
256.567	56.49
256.784	11.43
257	-45.91
257.217	36.01
257.433	76.97
257.65	99.5
257.866	-54.1
258.082	17.58
258.299	-29.52
258.515	9.39
258.732	1.19
258.948	-23.38
259.165	36.01
259.381	115.88
259.597	-25.43
259.814	-19.29
260.03	11.43
260.246	-39.76
260.463	52.39
260.679	74.92
260.895	42.15
261.112	44.2
261.328	68.78
261.544	3.24
261.761	56.49
261.977	7.34
262.193	25.77
262.409	5.29
262.626	40.11
262.842	-9.05
263.058	42.15
263.274	48.3
263.49	-13.14
263.707	60.59
263.923	19.63
264.139	97.45
264.355	31.91
264.571	89.26
264.787	36.01
265.004	62.63
265.22	68.78
265.436	23.72
265.652	-9.05
265.868	62.63
266.084	11.43
266.3	5.29
266.516	9.39
266.732	27.82
266.948	1.19
267.164	83.11
267.38	-0.85
267.596	29.87
267.812	36.01
268.028	33.96
268.244	-4.95
268.46	60.59
268.676	46.25
268.892	27.82
269.108	40.11
269.324	11.43
269.54	-9.05
269.756	113.83
269.972	21.67
270.188	97.45
270.403	107.69
270.619	111.78
270.835	56.49
271.051	81.07
271.267	-27.48
271.483	29.87
271.698	83.11
271.914	-19.29
272.13	58.54
272.346	42.15
272.562	72.87
272.777	29.87
272.993	25.77
273.209	-43.86
273.425	62.63
273.64	52.39
273.856	-11.09
274.072	13.48
274.287	36.01
274.503	-11.09
274.719	48.3
274.934	3.24
275.15	9.39
275.366	-13.14
275.581	3.24
275.797	5.29
276.012	-56.15
276.228	52.39
276.444	9.39
276.659	79.02
276.875	-13.14
277.09	7.34
277.306	70.83
277.521	40.11
277.737	58.54
277.952	85.16
278.168	136.36
278.383	3.24
278.599	-9.05
278.814	85.16
279.03	27.82
279.245	95.4
279.461	23.72
279.676	33.96
279.892	-19.29
280.107	15.53
280.322	52.39
280.538	38.06
280.753	58.54
280.969	44.2
281.184	27.82
281.399	27.82
281.615	70.83
281.83	1.19
282.045	40.11
282.26	44.2
282.476	-0.85
282.691	70.83
282.906	66.73
283.122	19.63
283.337	50.35
283.552	52.39
283.767	-7
283.983	85.16
284.198	50.35
284.413	72.87
284.628	-2.9
284.843	99.5
285.058	27.82
285.274	99.5
285.489	33.96
285.704	66.73
285.919	44.2
286.134	1.19
286.349	-13.14
286.564	56.49
286.779	89.26
286.995	40.11
287.21	29.87
287.425	54.44
287.64	31.91
287.855	56.49
288.07	-41.81
288.285	-2.9
288.5	64.68
288.715	50.35
288.93	19.63
289.145	44.2
289.36	50.35
289.575	-11.09
289.79	119.98
290.004	27.82
290.219	58.54
290.434	21.67
290.649	29.87
290.864	-35.67
291.079	42.15
291.294	27.82
291.509	74.92
291.724	-4.95
291.938	107.69
292.153	36.01
292.368	-4.95
292.583	52.39
292.798	13.48
293.012	56.49
293.227	44.2
293.442	29.87
293.657	9.39
293.871	17.58
294.086	3.24
294.301	31.91
294.516	36.01
294.73	36.01
294.945	52.39
295.16	40.11
295.374	13.48
295.589	42.15
295.804	-19.29
296.018	79.02
296.233	107.69
296.447	5.29
296.662	23.72
296.877	50.35
297.091	48.3
297.306	62.63
297.52	31.91
297.735	58.54
297.949	109.74
298.164	15.53
298.378	97.45
298.593	21.67
298.807	9.39
299.022	122.02
299.236	50.35
299.451	36.01
299.665	64.68
299.88	38.06
300.094	17.58
300.309	36.01
300.523	-23.38
300.737	17.58
300.952	83.11
301.166	-0.85
301.381	-15.19
301.595	70.83
301.809	-0.85
302.024	5.29
302.238	44.2
302.452	64.68
302.667	54.44
302.881	25.77
303.095	62.63
303.309	50.35
303.524	40.11
303.738	58.54
303.952	-9.05
304.166	27.82
304.381	-9.05
304.595	60.59
304.809	60.59
305.023	74.92
305.237	95.4
305.452	46.25
305.666	44.2
305.88	70.83
306.094	74.92
306.308	46.25
306.522	66.73
306.736	-13.14
306.95	38.06
307.164	-25.43
307.379	-2.9
307.593	105.64
307.807	11.43
308.021	74.92
308.235	25.77
308.449	33.96
308.663	-13.14
308.877	36.01
309.091	-25.43
309.305	1.19
309.519	-39.76
309.733	68.78
309.947	-25.43
310.161	36.01
310.374	64.68
310.588	89.26
310.802	-29.52
311.016	23.72
311.23	-15.19
311.444	3.24
311.658	7.34
311.872	11.43
312.085	79.02
312.299	56.49
312.513	40.11
312.727	7.34
312.941	7.34
313.154	46.25
313.368	-4.95
313.582	56.49
313.796	19.63
314.009	-23.38
314.223	107.69
314.437	33.96
314.651	48.3
314.864	44.2
315.078	76.97
315.292	-39.76
315.505	58.54
315.719	38.06
315.933	7.34
316.146	31.91
316.36	17.58
316.573	27.82
316.787	68.78
317.001	95.4
317.214	1.19
317.428	-9.05
317.641	68.78
317.855	11.43
318.068	5.29
318.282	64.68
318.495	70.83
318.709	68.78
318.922	17.58
319.136	87.21
319.349	33.96
319.563	62.63
319.776	25.77
319.99	42.15
320.203	3.24
320.417	62.63
320.63	7.34
320.843	56.49
321.057	38.06
321.27	-9.05
321.483	38.06
321.697	-7
321.91	40.11
322.124	119.98
322.337	70.83
322.55	93.35
322.763	-11.09
322.977	1.19
323.19	54.44
323.403	21.67
323.617	40.11
323.83	62.63
324.043	-4.95
324.256	97.45
324.469	-13.14
324.683	66.73
324.896	7.34
325.109	-15.19
325.322	58.54
325.535	124.07
325.748	27.82
325.962	31.91
326.175	74.92
326.388	64.68
326.601	54.44
326.814	66.73
327.027	48.3
327.24	29.87
327.453	79.02
327.666	56.49
327.879	66.73
328.092	72.87
328.305	23.72
328.518	76.97
328.731	81.07
328.944	42.15
329.157	101.55
329.37	64.68
329.583	36.01
329.796	50.35
330.009	52.39
330.222	64.68
330.435	79.02
330.648	29.87
330.861	13.48
331.073	-4.95
331.286	79.02
331.499	-33.62
331.712	74.92
331.925	74.92
332.138	56.49
332.35	48.3
332.563	-13.14
332.776	64.68
332.989	60.59
333.202	81.07
333.414	1.19
333.627	54.44
333.84	89.26
334.053	54.44
334.265	-25.43
334.478	76.97
334.691	48.3
334.903	81.07
335.116	76.97
335.329	46.25
335.541	3.24
335.754	40.11
335.966	13.48
336.179	54.44
336.392	70.83
336.604	31.91
336.817	27.82
337.029	97.45
337.242	27.82
337.454	93.35
337.667	56.49
337.88	93.35
338.092	99.5
338.305	31.91
338.517	17.58
338.729	7.34
338.942	105.64
339.154	83.11
339.367	-19.29
339.579	21.67
339.792	89.26
340.004	66.73
340.217	40.11
340.429	60.59
340.641	1.19
340.854	-2.9
341.066	17.58
341.278	42.15
341.491	33.96
341.703	44.2
341.915	27.82
342.128	68.78
342.34	9.39
342.552	-0.85
342.764	48.3
342.977	19.63
343.189	117.93
343.401	17.58
343.613	23.72
343.826	31.91
344.038	3.24
344.25	50.35
344.462	-13.14
344.674	42.15
344.886	64.68
345.099	11.43
345.311	38.06
345.523	27.82
345.735	9.39
345.947	40.11
346.159	81.07
346.371	29.87
346.583	29.87
346.795	23.72
347.007	54.44
347.219	76.97
347.431	70.83
347.643	122.02
347.855	72.87
348.067	74.92
348.279	21.67
348.491	27.82
348.703	64.68
348.915	81.07
349.127	38.06
349.339	36.01
349.551	50.35
349.763	89.26
349.975	-4.95
350.187	99.5
350.399	36.01
350.61	31.91
350.822	56.49
351.034	76.97
351.246	113.83
351.458	97.45
351.669	25.77
351.881	79.02
352.093	52.39
352.305	105.64
352.517	52.39
352.728	15.53
352.94	56.49
353.152	76.97
353.363	42.15
353.575	56.49
353.787	52.39
353.999	21.67
354.21	91.31
354.422	-2.9
354.633	74.92
354.845	105.64
355.057	-47.96
355.268	81.07
355.48	17.58
355.692	33.96
355.903	74.92
356.115	40.11
356.326	-19.29
356.538	91.31
356.749	46.25
356.961	23.72
357.172	3.24
357.384	70.83
357.595	103.59
357.807	107.69
358.018	19.63
358.23	58.54
358.441	11.43
358.653	-2.9
358.864	-0.85
359.075	29.87
359.287	11.43
359.498	81.07
359.709	-0.85
359.921	29.87
360.132	33.96
360.344	113.83
360.555	1.19
360.766	117.93
360.977	23.72
361.189	38.06
361.4	40.11
361.611	68.78
361.823	87.21
362.034	25.77
362.245	19.63
362.456	44.2
362.667	79.02
362.879	9.39
363.09	68.78
363.301	95.4
363.512	115.88
363.723	3.24
363.935	13.48
364.146	11.43
364.357	79.02
364.568	44.2
364.779	7.34
364.99	81.07
365.201	44.2
365.412	68.78
365.623	1.19
365.834	64.68
366.045	25.77
366.256	97.45
366.467	48.3
366.678	-29.52
366.889	-4.95
367.1	-15.19
367.311	76.97
367.522	46.25
367.733	122.02
367.944	-23.38
368.155	27.82
368.366	105.64
368.577	23.72
368.788	97.45
368.999	-11.09
369.209	48.3
369.42	105.64
369.631	144.55
369.842	50.35
370.053	74.92
370.264	33.96
370.474	79.02
370.685	44.2
370.896	68.78
371.107	85.16
371.317	83.11
371.528	68.78
371.739	38.06
371.95	93.35
372.16	74.92
372.371	21.67
372.582	87.21
372.792	60.59
373.003	38.06
373.214	36.01
373.424	87.21
373.635	56.49
373.846	87.21
374.056	11.43
374.267	27.82
374.477	36.01
374.688	31.91
374.898	-7
375.109	-0.85
375.319	93.35
375.53	66.73
375.74	23.72
375.951	40.11
376.161	-0.85
376.372	50.35
376.582	21.67
376.793	105.64
377.003	40.11
377.214	42.15
377.424	31.91
377.635	85.16
377.845	62.63
378.055	46.25
378.266	115.88
378.476	-35.67
378.686	79.02
378.897	33.96
379.107	58.54
379.317	23.72
379.528	50.35
379.738	68.78
379.948	9.39
380.158	115.88
380.369	9.39
380.579	60.59
380.789	119.98
380.999	101.55
381.21	85.16
381.42	87.21
381.63	-27.48
381.84	85.16
382.05	76.97
382.261	-4.95
382.471	134.31
382.681	91.31
382.891	52.39
383.101	103.59
383.311	-43.86
383.521	38.06
383.731	15.53
383.941	56.49
384.151	83.11
384.361	83.11
384.571	74.92
384.781	33.96
384.991	-0.85
385.201	140.46
385.411	27.82
385.621	38.06
385.831	50.35
386.041	-13.14
386.251	72.87
386.461	44.2
386.671	38.06
386.881	64.68
387.091	29.87
387.301	46.25
387.511	64.68
387.72	91.31
387.93	76.97
388.14	56.49
388.35	64.68
388.56	44.2
388.769	44.2
388.979	54.44
389.189	58.54
389.399	36.01
389.609	29.87
389.818	97.45
390.028	68.78
390.238	64.68
390.447	56.49
390.657	64.68
390.867	68.78
391.076	85.16
391.286	29.87
391.496	-25.43
391.705	64.68
391.915	85.16
392.125	54.44
392.334	58.54
392.544	97.45
392.753	44.2
392.963	54.44
393.172	68.78
393.382	81.07
393.591	117.93
393.801	50.35
394.01	154.79
394.22	187.56
394.429	74.92
394.639	91.31
394.848	58.54
395.058	101.55
395.267	1.19
395.477	58.54
395.686	146.6
395.895	58.54
396.105	134.31
396.314	33.96
396.524	60.59
396.733	27.82
396.942	101.55
397.152	99.5
397.361	58.54
397.57	101.55
397.78	72.87
397.989	142.5
398.198	171.18
398.407	50.35
398.617	89.26
398.826	60.59
399.035	89.26
399.244	93.35
399.453	46.25
399.663	132.26
399.872	83.11
400.081	128.17
400.29	99.5
400.499	91.31
400.708	81.07
400.917	115.88
401.127	148.65
401.336	136.36
401.545	138.41
401.754	210.09
401.963	152.74
402.172	50.35
402.381	68.78
402.59	72.87
402.799	60.59
403.008	97.45
403.217	19.63
403.426	109.74
403.635	111.78
403.844	119.98
404.053	187.56
404.262	95.4
404.471	140.46
404.68	128.17
404.888	31.91
405.097	171.18
405.306	160.94
405.515	165.03
405.724	140.46
405.933	99.5
406.142	142.5
406.35	199.85
406.559	162.98
406.768	183.46
406.977	189.61
407.185	205.99
407.394	173.22
407.603	146.6
407.812	251.05
408.02	195.75
408.229	87.21
408.438	228.52
408.646	257.19
408.855	193.7
409.064	244.9
409.272	267.43
409.481	267.43
409.69	197.8
409.898	292.01
410.107	296.1
410.315	289.96
410.524	320.68
410.733	277.67
410.941	339.11
411.15	310.44
411.358	418.98
411.567	392.36
411.775	363.69
411.984	384.16
412.192	386.21
412.401	433.32
412.609	418.98
412.818	400.55
413.026	392.36
413.234	492.71
413.443	509.09
413.651	437.41
413.86	539.81
414.068	521.38
414.276	533.67
414.485	566.43
414.693	566.43
414.901	652.45
415.11	599.2
415.318	640.16
415.526	701.6
415.734	808.09
415.943	773.28
416.151	783.52
416.359	724.13
416.567	750.75
416.776	754.85
416.984	836.77
417.192	885.92
417.4	883.87
417.608	912.54
417.817	949.4
418.025	1010.84
418.233	1068.19
418.441	1055.9
418.649	1002.65
418.857	1117.34
419.065	1150.11
419.273	1229.98
419.481	1277.08
419.689	1322.13
419.897	1393.81
420.105	1379.48
420.313	1422.48
420.521	1504.4
420.729	1420.44
420.937	1434.77
421.145	1569.94
421.353	1569.94
421.561	1754.26
421.769	1674.39
421.977	1787.02
422.185	1813.65
422.393	1983.63
422.601	2161.8
422.809	2065.55
423.017	2049.16
423.224	2038.92
423.432	2258.06
423.64	2350.21
423.848	2440.33
424.056	2391.17
424.263	2630.79
424.471	2626.69
424.679	2657.41
424.887	2860.16
425.094	2815.1
425.302	2942.08
425.51	2907.26
425.718	2987.13
425.925	3116.16
426.133	3259.51
426.341	3304.57
426.548	3538.04
426.756	3435.64
426.964	3583.09
427.171	3814.51
427.379	3859.57
427.586	3996.78
427.794	4052.08
428.001	4279.4
428.209	4480.1
428.417	4396.14
428.624	4723.81
428.832	4564.07
429.039	4596.84
429.247	4670.56
429.454	5114.97
429.662	5491.8
429.869	5061.73
430.076	5403.74
430.284	5274.71
430.491	5598.29
430.699	5833.81
430.906	5911.63
431.114	6071.37
431.321	6136.91
431.528	6200.4
431.736	6747.2
431.943	6986.82
432.15	6726.72
432.358	7027.78
432.565	7343.16
432.772	7326.78
432.979	7597.11
433.187	7679.03
433.394	7468.09
433.601	8186.93
433.808	8246.32
434.016	8258.6
434.223	8524.84
434.43	8997.92
434.637	8946.72
434.844	9425.95
435.052	9645.08
435.259	9483.29
435.466	9602.07
435.673	9634.84
435.88	10290.19
436.087	10687.5
436.294	10718.22
436.501	10451.98
436.708	10730.5
436.915	11156.48
437.122	11547.64
437.329	11463.68
437.537	11903.99
437.743	12010.48
437.95	11914.23
438.157	12338.16
438.364	13085.67
438.571	13067.24
438.778	13288.42
438.985	14373.84
439.192	13657.05
439.399	14300.11
439.606	14031.83
439.813	14554.06
440.02	15602.62
440.227	15193.03
440.433	15172.55
440.64	15594.43
440.847	15729.59
441.054	15979.45
441.261	17087.4
441.467	16622.51
441.674	17394.59
441.881	17955.74
442.088	17767.32
442.294	17521.57
442.501	17912.73
442.708	18379.67
442.914	18963.34
443.121	19854.2
443.328	19395.46
443.534	20675.44
443.741	20423.54
443.948	19848.06
444.154	21674.85
444.361	21255.01
444.568	21171.05
444.774	21015.4
444.981	21556.07
445.187	22145.88
445.394	23075.66
445.6	22868.81
445.807	25076.52
446.013	23872.32
446.22	24468.28
446.426	25467.69
446.633	25568.04
446.839	26137.37
447.046	25402.15
447.252	26903.31
447.459	26770.19
447.665	26858.26
447.871	27931.39
448.078	29145.84
448.284	27771.65
448.491	28459.77
448.697	29545.19
448.903	30069.47
449.11	29899.49
449.316	29702.89
449.522	30210.78
449.728	31341.26
449.935	31204.05
450.141	31046.35
450.347	32248.51
450.553	30929.62
450.76	31138.51
450.966	32461.5
451.172	32393.92
451.378	32993.97
451.584	32195.26
451.791	33194.67
451.997	32649.91
452.203	33231.54
452.409	33524.4
452.615	33157.81
452.821	32377.53
453.027	31808.2
453.233	33501.87
453.44	32029.38
453.646	32654.01
453.852	32711.35
454.058	33372.85
454.264	32527.03
454.47	32993.97
454.676	32060.1
454.882	33147.57
455.088	29893.35
455.294	31036.11
455.5	31277.77
455.705	31572.68
455.911	30079.71
456.117	29645.54
456.323	29313.77
456.529	27876.1
456.735	29209.32
456.941	28549.88
457.147	27964.16
457.352	27087.63
457.558	26843.92
457.764	26718.99
457.97	26362.65
458.176	26045.21
458.381	25353
458.587	24369.97
458.793	24662.83
458.999	23137.1
459.204	24912.69
459.41	24179.51
459.616	22520.66
459.821	22436.69
460.027	22545.23
460.233	22051.67
460.438	20898.67
460.644	20896.62
460.85	20007.8
461.055	19704.7
461.261	19764.09
461.466	18430.87
461.672	17781.66
461.878	18908.04
462.083	17845.15
462.289	17370.02
462.494	17109.93
462.7	16372.66
462.905	16073.65
463.111	16761.77
463.316	16716.72
463.522	16194.48
463.727	16335.79
463.932	16364.46
464.138	16063.41
464.343	16206.77
464.549	15580.09
464.754	16217.01
464.959	16096.18
465.165	16036.79
465.37	15244.23
465.575	14980.04
465.781	15496.13
465.986	15637.44
466.191	15055.81
466.397	14988.23
466.602	13925.33
466.807	14588.88
467.012	14578.64
467.218	14613.45
467.423	14009.3
467.628	14472.14
467.833	14898.12
468.038	14494.67
468.244	14105.56
468.449	14582.73
468.654	14164.95
468.859	13870.04
469.064	13906.9
469.269	13464.54
469.474	13388.77
469.679	13777.88
469.885	13444.06
470.09	13476.83
470.295	13462.49
470.5	13157.35
470.705	13073.38
470.91	12907.49
471.115	12839.91
471.32	12934.12
471.525	12911.59
471.73	12805.1
471.935	12327.92
472.139	12223.47
472.344	12149.75
472.549	11994.1
472.754	12112.88
472.959	11852.79
473.164	11435
473.369	11369.47
473.574	11701.24
473.778	11639.8
473.983	11731.96
474.188	11506.68
474.393	11027.46
474.598	11045.89
474.802	11031.55
475.007	10832.9
475.212	11129.86
475.417	10564.62
475.621	10517.51
475.826	10462.22
476.031	10363.92
476.235	10316.81
476.44	10411.02
476.645	10259.47
476.849	10144.78
477.054	10030.1
477.259	9909.27
477.463	9886.74
477.668	9606.17
477.872	9727
478.077	9495.58
478.282	9298.97
478.486	9309.21
478.691	9178.14
478.895	9077.79
479.1	9202.72
479.304	9045.02
479.509	8700.97
479.713	9057.31
479.918	8981.54
480.122	8643.62
480.326	8870.95
480.531	8698.92
480.735	8705.06
480.94	8494.12
481.144	8711.21
481.348	8397.87
481.553	8682.53
481.757	8608.81
481.961	8461.35
482.166	8684.58
482.37	8434.73
482.574	8371.24
482.778	8428.59
482.983	8653.86
483.187	8649.77
483.391	8604.71
483.595	8518.7
483.8	8301.61
484.004	8506.41
484.208	8348.72
484.412	8358.96
484.616	8584.23
484.821	8422.44
485.025	8262.7
485.229	8498.22
485.433	8375.34
485.637	8322.09
485.841	8426.54
486.045	8217.65
486.249	8549.42
486.453	8399.91
486.657	8291.37
486.861	8332.33
487.065	8166.45
487.269	8250.41
487.473	8305.71
487.677	8649.77
487.881	8469.55
488.085	8447.02
488.289	8322.09
488.493	8430.63
488.697	8381.48
488.901	8457.26
489.105	8461.35
489.309	8365.1
489.512	8559.66
489.716	8330.28
489.92	8518.7
490.124	8602.66
490.328	8821.8
490.531	8709.16
490.735	8535.08
490.939	8592.42
491.143	8651.81
491.346	8733.73
491.55	8834.08
491.754	8829.99
491.958	8977.44
492.161	8795.17
492.365	8973.35
492.569	8825.89
492.772	8811.56
492.976	9028.64
493.18	8842.28
493.383	9081.89
493.587	9051.17
493.79	9028.64
493.994	9212.96
494.197	9282.59
494.401	9260.06
494.605	9266.21
494.808	9112.61
495.012	9444.38
495.215	9262.11
495.419	9600.02
495.622	9448.47
495.825	9679.89
496.029	9675.8
496.232	10050.58
496.436	9847.83
496.639	10085.39
496.843	9944.08
497.046	10259.47
497.249	10286.09
497.453	10476.55
497.656	10484.75
497.859	10552.33
498.063	10611.72
498.266	10777.61
498.469	10750.98
498.673	10935.3
498.876	11000.83
499.079	11146.24
499.282	11140.1
499.485	11344.89
499.689	11322.37
499.892	11725.82
500.095	11641.85
500.298	11840.5
500.501	11691
500.705	12016.63
500.908	12358.64
501.111	12522.48
501.314	12667.88
501.517	12674.03
501.72	12735.46
501.923	13011.94
502.126	13165.54
502.329	13300.7
502.532	13421.53
502.735	13554.65
502.938	13939.67
503.141	13538.27
503.344	14154.71
503.547	13890.52
503.75	14187.47
503.953	14590.92
504.156	14552.01
504.359	14877.64
504.562	14715.85
504.765	15107.01
504.968	15045.57
505.17	15424.45
505.373	15506.37
505.576	15786.94
505.779	15612.86
505.982	15918.01
506.185	16368.56
506.387	16229.3
506.59	16485.3
506.793	16745.39
506.996	16556.97
507.198	17212.32
507.401	16991.14
507.604	17351.59
507.807	17462.18
508.009	17570.72
508.212	17845.15
508.415	17970.07
508.617	18467.73
508.82	18412.43
509.022	18312.08
509.225	18881.42
509.428	18912.14
509.63	19245.96
509.833	19323.78
510.035	19678.08
510.238	19516.29
510.44	19766.14
510.643	20149.11
510.845	20296.56
511.048	20511.6
511.25	20507.51
511.453	20595.57
511.655	21054.31
511.858	21009.26
512.06	21203.82
512.262	21648.22
512.465	21287.78
512.667	21805.92
512.87	22033.24
513.072	22092.63
513.274	22459.22
513.477	22694.74
513.679	22936.4
513.881	23270.22
514.084	23249.74
514.286	23499.59
514.488	23724.86
514.69	24138.55
514.893	24261.43
515.095	24419.13
515.297	24767.28
515.499	24630.07
515.701	24963.89
515.904	25350.95
516.106	25402.15
516.308	25715.49
516.51	26145.56
516.712	25924.38
516.914	26434.33
517.116	26477.33
517.318	26905.36
517.52	27142.92
517.722	27269.9
517.925	27446.02
518.127	27759.36
518.329	27912.96
518.531	27972.35
518.733	28689.14
518.935	28650.23
519.136	28500.73
519.338	29268.72
519.54	29059.82
519.742	29584.1
519.944	29786.85
520.146	30243.55
520.348	30294.75
520.55	30218.97
520.752	30446.3
520.954	30745.3
521.155	30855.89
521.357	31398.6
521.559	31640.26
521.761	32053.95
521.963	31658.7
522.164	32381.63
522.366	32199.36
522.568	32672.44
522.77	32715.45
522.971	33043.12
523.173	33184.43
523.375	33385.13
523.576	33149.62
523.778	33553.07
523.98	33950.37
524.181	34187.94
524.383	33886.89
524.584	34259.62
524.786	34726.55
524.988	34654.87
525.189	34957.97
525.391	35324.56
525.592	35148.43
525.794	35508.88
525.995	35617.42
526.197	35637.9
526.398	35943.05
526.6	36391.55
526.801	36264.58
527.003	36422.27
527.204	36278.91
527.406	36567.68
527.607	36565.63
527.808	36973.17
528.01	36668.03
528.211	36979.32
528.412	37448.3
528.614	37714.54
528.815	37276.27
529.016	37728.87
529.218	37454.45
529.419	37737.07
529.62	37843.56
529.822	38005.35
530.023	37747.31
530.224	38003.3
530.425	37917.29
530.626	37700.2
530.828	37657.2
531.029	38464.1
531.23	38187.62
531.431	38048.36
531.632	38253.15
531.833	38609.5
532.035	38402.66
532.236	38773.34
532.437	38640.22
532.638	38339.17
532.839	38744.67
533.04	38914.65
533.241	38593.12
533.442	39119.45
533.643	38591.07
533.844	38877.79
534.045	38804.06
534.246	38806.11
534.447	38754.91
534.648	39158.36
534.849	38978.14
535.05	38728.28
535.251	38922.84
535.451	38879.83
535.652	39139.93
535.853	38939.22
536.054	39172.69
536.255	39131.73
536.456	38550.11
536.657	39277.14
536.857	39213.65
537.058	38675.04
537.259	39242.32
537.46	39354.96
537.66	39148.12
537.861	39055.96
538.062	38810.2
538.263	39066.2
538.463	38937.18
538.664	38892.12
538.865	38883.93
539.065	39471.7
539.266	39090.77
539.466	39416.4
539.667	38802.01
539.868	39696.97
540.068	39152.21
540.269	38740.57
540.469	39109.21
540.67	39115.35
540.87	38896.22
541.071	39010.9
541.271	39154.26
541.472	38974.04
541.672	38476.38
541.873	38761.05
542.073	38593.12
542.274	39383.63
542.474	39105.11
542.675	38728.28
542.875	39346.77
543.075	39029.34
543.276	38470.24
543.476	39522.9
543.676	38853.21
543.877	39055.96
544.077	38851.16
544.277	38675.04
544.478	38873.69
544.678	38953.56
544.878	39088.73
545.078	39017.05
545.279	38591.07
545.479	38435.42
545.679	39105.11
545.879	39076.44
546.079	38740.57
546.28	38607.45
546.48	38433.38
546.68	39076.44
546.88	38965.85
547.08	39119.45
547.28	38613.6
547.48	38353.51
547.68	38722.14
547.88	38419.04
548.081	38949.46
548.281	38429.28
548.481	38433.38
548.681	38781.53
548.881	38699.61
549.081	38783.58
549.28	38568.54
549.48	38619.74
549.68	38412.9
549.88	39137.88
550.08	38574.69
550.28	38617.69
550.48	38654.56
550.68	38638.17
550.88	38515.29
551.08	38705.76
551.279	38804.06
551.479	38226.53
551.679	38474.34
551.879	38611.55
552.079	38947.42
552.278	38531.68
552.478	38672.99
552.678	38330.98
552.878	38783.58
553.077	38277.73
553.277	38347.36
553.477	38716
553.676	38324.83
553.876	38431.33
554.076	38369.89
554.275	38040.17
554.475	37849.71
554.674	38183.52
554.874	37880.42
555.074	38304.35
555.273	38072.93
555.473	37913.19
555.672	38232.68
555.872	37753.45
556.071	38013.54
556.271	38013.54
556.47	38011.49
556.67	37751.4
556.869	37679.72
557.068	37640.81
557.268	37335.66
557.467	37913.19
557.667	37749.35
557.866	37673.58
558.065	37569.13
558.265	37515.89
558.464	37339.76
558.663	37755.5
558.863	37257.84
559.062	37624.43
559.261	37083.76
559.461	37528.17
559.66	37134.96
559.859	37175.92
560.058	36829.82
560.258	36975.22
560.457	36788.86
560.656	36825.72
560.855	36776.57
561.054	37188.21
561.253	36426.37
561.453	36835.96
561.652	37032.57
561.851	36690.55
562.05	36229.76
562.249	36141.7
562.448	36188.8
562.647	36317.82
562.846	36579.96
563.045	36639.36
563.244	36000.39
563.443	36461.18
563.642	35766.92
563.841	35803.78
564.04	35668.62
564.239	36240
564.438	35576.46
564.637	35781.26
564.836	35482.25
565.035	34986.64
565.234	35615.37
565.432	35504.78
565.631	35203.73
565.83	35216.02
566.029	34837.14
566.228	35148.43
566.427	35031.7
566.625	35111.57
566.824	34458.27
567.023	34927.25
567.222	34005.67
567.42	34818.71
567.619	34468.51
567.818	34638.49
568.016	34415.26
568.215	34613.91
568.414	34196.13
568.612	34443.93
568.811	34210.46
569.01	34187.94
569.208	33526.44
569.407	33911.46
569.605	33882.79
569.804	33567.4
570.002	33610.41
570.201	33860.26
570.4	33479.34
570.598	33594.03
570.797	33321.65
570.995	33137.33
571.193	33026.74
571.392	33417.9
571.59	32961.2
571.789	32871.09
571.987	33030.83
572.186	32838.33
572.384	32789.17
572.582	32903.86
572.781	33008.31
572.979	32109.25
573.177	32787.13
573.376	32285.37
573.574	32162.5
573.772	32373.44
573.971	32109.25
574.169	32139.97
574.367	31679.18
574.565	32074.43
574.763	31695.56
574.962	31634.12
575.16	31318.73
575.358	31857.35
575.556	31140.56
575.754	31873.73
575.952	31251.15
576.151	31447.75
576.349	31208.14
576.547	31169.23
576.745	31228.62
576.943	31025.87
577.141	31109.84
577.339	30870.23
577.537	30857.94
577.735	30859.99
577.933	30765.78
578.131	30647
578.329	30554.84
578.527	30315.23
578.725	30391
578.923	30161.63
579.121	30012.13
579.319	30055.14
579.516	30239.45
579.714	30190.3
579.912	30202.59
580.11	29663.97
580.308	29815.52
580.506	29803.24
580.704	29557.48
580.901	29743.84
581.099	29782.76
581.297	29364.97
581.495	29166.32
581.692	29780.71
581.89	28963.57
582.088	29141.74
582.285	29041.39
582.483	29141.74
582.681	29018.86
582.878	28977.9
583.076	28437.24
583.274	28594.93
583.471	28097.28
583.669	28564.21
583.866	28545.78
584.064	28721.91
584.262	28408.57
584.459	28590.84
584.657	28021.5
584.854	28373.75
585.052	27917.06
585.249	27984.64
585.447	28076.8
585.644	27595.53
585.841	27652.87
586.039	28084.99
586.236	27767.55
586.434	27730.69
586.631	27443.98
586.828	27726.6
587.026	27396.87
587.223	27276.04
587.42	27321.1
587.618	27022.09
587.815	26811.15
588.012	26878.74
588.21	26737.43
588.407	26667.8
588.604	26362.65
588.801	26643.22
588.999	26764.05
589.196	26463
589.393	26286.87
589.59	26196.76
589.787	26055.45
589.984	26114.84
590.182	26049.31
590.379	26295.07
590.576	26280.73
590.773	25922.34
590.97	25955.1
591.167	26057.5
591.364	25488.17
591.561	25488.17
591.758	25324.33
591.955	25336.62
592.152	25602.85
592.349	25348.9
592.546	25154.35
592.743	25277.22
592.94	24847.15
593.137	24783.66
593.334	25330.47
593.531	24570.68
593.727	24771.38
593.924	24695.6
594.121	24585.01
594.318	24707.89
594.515	24345.4
594.712	24740.66
594.908	24120.12
595.105	24306.49
595.302	24329.02
595.499	24304.44
595.696	24245.05
595.892	23829.31
596.089	24095.55
596.286	23866.17
596.482	23814.98
596.679	23806.78
596.876	23653.19
597.072	23409.48
597.269	23223.11
597.466	23477.06
597.662	23237.45
597.859	23425.86
598.055	23376.71
598.252	22942.54
598.448	23061.32
598.645	22924.11
598.841	22760.27
599.038	22846.29
599.234	22903.63
599.431	22684.5
599.627	22580.05
599.824	22704.98
600.02	22590.29
600.217	22733.65
600.413	22526.8
600.609	22522.71
600.806	22113.11
601.002	22543.19
601.198	22188.89
601.395	22084.44
601.591	21863.26
601.787	22117.21
601.984	22027.1
602.18	22371.16
602.376	21764.96
602.572	21805.92
602.769	21695.33
602.965	21617.5
603.161	21492.58
603.357	21529.44
603.553	21261.16
603.75	21463.91
603.946	21506.91
604.142	21435.24
604.338	20943.72
604.534	21117.8
604.73	21042.03
604.926	21029.74
605.122	21068.65
605.318	21044.07
605.514	20794.22
605.71	20798.32
605.906	20628.34
606.102	20450.16
606.298	20562.8
606.494	20542.32
606.69	20456.31
606.886	20786.03
607.082	20046.71
607.278	20552.56
607.474	20165.49
607.67	20265.85
607.866	20153.21
608.062	20323.19
608.257	20239.22
608.453	20052.86
608.649	20124.54
608.845	19925.88
609.041	19956.6
609.236	19966.84
609.432	19956.6
609.628	19626.88
609.824	19635.07
610.019	19684.22
610.215	19702.65
610.411	19594.11
610.606	19598.21
610.802	19731.33
610.998	19504
611.193	19288.96
611.389	19370.88
611.584	19522.43
611.78	19565.44
611.976	19346.31
612.171	19354.5
612.367	19428.23
612.562	19282.82
612.758	19170.18
612.953	18897.8
613.149	19458.95
613.344	19106.7
613.539	19125.13
613.735	19227.53
613.93	19374.98
614.126	18922.38
614.321	19084.17
614.517	18969.48
614.712	18779.02
614.907	18518.93
615.103	18912.14
615.298	18463.63
615.493	18736.01
615.688	18498.45
615.884	18824.08
616.079	18422.67
616.274	18824.08
616.47	18404.24
616.665	18633.61
616.86	18693.01
617.055	18324.37
617.25	18283.41
617.445	18387.86
617.641	18428.82
617.836	18559.89
618.031	17906.59
618.226	17736.6
618.421	18117.53
618.616	18203.54
618.811	17736.6
619.006	18205.59
619.201	17599.39
619.396	17709.98
619.591	17310.63
619.786	17658.78
619.981	17650.59
620.176	17374.11
620.371	17478.56
620.566	17529.76
620.761	17226.66
620.956	17400.74
621.151	17083.3
621.346	17314.72
621.541	16505.77
621.735	17023.91
621.93	16800.68
622.125	16776.11
622.32	16513.97
622.515	16591.79
622.709	16477.1
622.904	16751.53
623.099	16614.32
623.294	16475.06
623.488	15995.83
623.683	16208.82
623.878	15887.29
624.072	15741.88
624.267	15907.77
624.462	15995.83
624.656	15707.07
624.851	15578.04
625.046	15612.86
625.24	15475.65
625.435	15352.77
625.629	15553.47
625.824	15242.18
626.018	15195.07
626.213	14910.41
626.407	15010.76
626.602	14848.97
626.796	15031.24
626.991	14728.14
627.185	14705.61
627.38	14713.8
627.574	14646.22
627.768	14439.37
627.963	14234.58
628.157	14199.76
628.352	14296.02
628.546	13880.28
628.74	14162.9
628.935	14109.65
629.129	13908.95
629.323	13611.99
629.517	13685.72
629.712	13591.52
629.906	13700.06
630.1	13296.61
630.294	13675.48
630.489	13312.99
630.683	13552.6
630.877	13153.25
631.071	13071.33
631.265	13020.13
631.459	13061.09
631.653	12909.54
631.848	13028.32
632.042	12878.82
632.236	12796.9
632.43	12745.7
632.624	12901.35
632.818	12561.39
633.012	12497.9
633.206	12198.9
633.4	12557.29
633.594	12368.88
633.788	12266.48
633.982	12409.84
634.176	12088.31
634.369	12116.98
634.563	11891.7
634.757	12227.57
634.951	12026.87
635.145	11969.52
635.339	11852.79
635.533	11596.79
635.726	11822.07
635.92	11609.08
636.114	11537.4
636.308	11461.63
636.501	11342.85
636.695	11170.82
636.889	11045.89
637.083	11230.21
637.276	11133.95
637.47	10968.07
637.664	10845.19
637.857	11181.06
638.051	10951.68
638.244	11062.27
638.438	11021.31
638.632	10769.41
638.825	10769.41
639.019	10673.16
639.212	10486.79
639.406	10531.85
639.599	10497.03
639.793	10325.01
639.986	10372.11
640.18	10441.74
640.373	10310.67
640.567	10195.98
640.76	10028.05
640.954	10038.29
641.147	10148.88
641.34	10138.64
641.534	10046.48
641.727	9913.36
641.92	9995.28
642.114	9944.08
642.307	9630.74
642.5	9681.94
642.694	9636.89
642.887	9716.76
643.08	9665.56
643.273	9561.11
643.467	9370.65
643.66	9438.23
643.853	9489.43
644.046	9274.4
644.239	9329.69
644.432	9337.88
644.626	8952.87
644.819	9155.61
645.012	9100.32
645.205	9051.17
645.398	9147.42
645.591	8995.87
645.784	8817.7
645.977	8819.75
646.17	8952.87
646.363	8741.93
646.556	8690.73
646.749	8537.13
646.942	8576.04
647.135	8668.2
647.328	8653.86
647.521	8363.05
647.714	8393.77
647.907	8248.36
648.099	8277.04
648.292	8199.21
648.485	8389.67
648.678	8293.42
648.871	8201.26
649.064	8094.77
649.256	8231.98
649.449	8000.56
649.642	8166.45
649.835	8066.1
650.027	8025.14
650.22	7793.72
650.413	7791.67
650.605	8027.18
650.798	7654.45
650.991	7681.08
651.183	7756.85
651.376	7611.45
651.568	7576.63
651.761	7566.39
651.954	7457.85
652.146	7457.85
652.339	7570.49
652.531	7543.86
652.724	7435.32
652.916	7300.16
653.109	7283.77
653.301	7238.72
653.494	7339.07
653.686	7152.7
653.879	7126.08
654.071	7115.84
654.263	6970.43
654.456	7175.23
654.648	7015.49
654.84	7035.97
655.033	6876.23
655.225	6904.9
655.417	6952
655.61	6880.32
655.802	6802.5
655.994	6792.26
656.186	6902.85
656.379	6675.52
656.571	6792.26
656.763	6509.64
656.955	6673.48
657.148	6485.06
657.34	6679.62
657.532	6411.34
657.724	6554.69
657.916	6333.51
658.108	6382.67
658.3	6431.82
658.492	6216.78
658.684	6224.97
658.876	6196.3
659.068	6108.24
659.26	6222.92
659.452	6210.64
659.644	6009.93
659.836	5993.55
660.028	6204.49
660.22	5925.97
660.412	6050.89
660.604	5960.78
660.796	5991.5
660.988	6034.51
661.18	5938.26
661.372	5727.32
661.563	5923.92
661.755	5979.22
661.947	5790.8
662.139	5764.18
662.331	5588.05
662.522	5745.75
662.714	5704.79
662.906	5680.21
663.097	5440.6
663.289	5631.06
663.481	5614.68
663.673	5465.18
663.864	5428.31
664.056	5385.3
664.247	5579.86
664.439	5303.39
664.631	5358.68
664.822	5487.7
665.014	5395.54
665.205	5192.8
665.397	5135.45
665.588	5397.59
665.78	5194.84
665.971	5074.01
666.163	5135.45
666.354	5172.32
666.546	4985.95
666.737	5059.68
666.929	5090.4
667.12	5110.88
667.311	5086.3
667.503	4906.08
667.694	5018.72
667.885	4904.03
668.077	4799.59
668.268	4990.05
668.459	4910.18
668.651	4934.75
668.842	4799.59
669.033	4715.62
669.224	4858.98
669.416	4717.67
669.607	4754.53
669.798	4760.67
669.989	4707.43
670.18	4658.28
670.371	4732
670.563	4590.69
670.754	4629.6
670.945	4555.88
671.136	4553.83
671.327	4443.24
671.518	4562.02
671.709	4506.73
671.9	4600.93
672.091	4496.49
672.282	4439.14
672.473	4461.67
672.664	4537.45
672.855	4559.97
673.046	4555.88
673.237	4463.72
673.428	4392.04
673.619	4516.97
673.809	4447.33
674	4326.5
674.191	4381.8
674.382	4256.87
674.573	4379.75
674.764	4201.58
674.954	4336.74
675.145	4164.72
675.336	4332.65
675.527	4203.63
675.717	4246.63
675.908	4158.57
676.099	4168.81
676.289	4074.6
676.48	4119.66
676.671	4281.45
676.861	4201.58
677.052	4136.04
677.243	4086.89
677.433	4105.32
677.624	4037.74
677.814	4039.79
678.005	4090.99
678.195	4117.61
678.386	4144.24
678.576	4174.95
678.767	3988.59
678.957	3953.77
679.148	4109.42
679.338	3953.77
679.529	4011.12
679.719	4072.56
679.909	4162.67
680.1	4125.8
680.29	4099.18
680.481	3916.91
680.671	4052.08
680.861	3884.14
681.052	3918.96
681.242	4103.28
681.432	3933.29
681.622	3888.24
681.813	3886.19
682.003	3906.67
682.193	3806.32
682.383	3916.91
682.573	3908.72
682.764	3814.51
682.954	3820.66
683.144	3998.83
683.334	3810.42
683.524	3863.66
683.714	3787.89
683.904	3853.42
684.094	3634.29
684.284	3753.07
684.474	3769.46
684.664	3806.32
684.854	3728.5
685.044	3730.55
685.234	3564.66
685.424	3710.07
685.614	3746.93
685.804	3746.93
685.994	3654.77
686.184	3660.91
686.374	3648.63
686.564	3572.85
686.753	3589.24
686.943	3495.03
687.133	3685.49
687.323	3607.67
687.513	3658.87
687.702	3624.05
687.892	3535.99
688.082	3445.88
688.272	3478.65
688.461	3542.13
688.651	3492.98
688.841	3275.9
689.03	3398.77
689.22	3337.34
689.41	3308.66
689.599	3435.64
689.789	3421.3
689.979	3343.48
690.168	3337.34
690.358	3341.43
690.547	3263.61
690.737	3409.01
690.926	3361.91
691.116	3271.8
691.305	3255.42
691.495	3155.07
691.684	3257.46
691.874	3226.75
692.063	3255.42
692.252	3153.02
692.442	3269.75
692.631	3157.11
692.82	3255.42
693.01	3193.98
693.199	3077.24
693.388	2966.65
693.578	3105.92
693.767	2966.65
693.956	3062.91
694.146	2993.28
694.335	2976.89
694.524	2886.78
694.713	2964.61
694.902	3015.8
695.092	2976.89
695.281	2927.74
695.47	2952.32
695.659	2935.93
695.848	2866.3
696.037	2927.74
696.226	2983.04
696.415	2905.21
696.604	2940.03
696.793	2872.45
696.982	2907.26
697.171	2905.21
697.36	2954.37
697.549	2821.25
697.738	2792.58
697.927	2784.38
698.116	2927.74
698.305	2876.54
698.494	2761.86
698.683	2737.28
698.872	2856.06
699.061	2839.68
699.25	2768
699.438	2866.3
699.627	2788.48
699.816	2876.54
700.005	2897.02
700.193	2714.75
700.382	2856.06
700.571	2784.38
700.76	2856.06
700.948	2724.99
701.137	2868.35
701.326	2770.05
701.514	2862.21
701.703	2751.62
701.892	2765.95
702.08	2917.5
702.269	2751.62
702.457	2858.11
702.646	2722.95
702.834	2931.84
703.023	2698.37
703.212	2671.75
703.4	2661.51
703.589	2708.61
703.777	2749.57
703.965	2776.19
704.154	2735.23
704.342	2667.65
704.531	2864.25
704.719	2677.89
704.907	2704.51
705.096	2638.98
705.284	2690.18
705.472	2684.03
705.661	2649.22
705.849	2718.85
706.037	2698.37
706.226	2686.08
706.414	2694.27
706.602	2616.45
706.79	2608.26
706.979	2593.92
707.167	2618.5
707.355	2690.18
707.543	2712.71
707.731	2624.64
707.919	2696.32
708.107	2653.31
708.296	2653.31
708.484	2552.96
708.672	2571.4
708.86	2595.97
709.048	2688.13
709.236	2589.83
709.424	2778.24
709.612	2677.89
709.8	2724.99
709.988	2600.07
710.176	2624.64
710.364	2591.88
710.551	2661.51
710.739	2684.03
710.927	2714.75
711.115	2749.57
711.303	2802.82
711.491	2606.21
711.679	2684.03
711.866	2700.42
712.054	2681.99
712.242	2595.97
712.43	2612.35
712.617	2632.83
712.805	2563.2
712.993	2585.73
713.181	2632.83
713.368	2671.75
713.556	2624.64
713.744	2577.54
713.931	2720.9
714.119	2622.59
714.306	2630.79
714.494	2573.44
714.682	2624.64
714.869	2628.74
715.057	2632.83
715.244	2714.75
715.432	2673.79
715.619	2612.35
715.807	2606.21
715.994	2628.74
716.182	2780.29
716.369	2679.94
716.556	2720.9
716.744	2649.22
716.931	2483.33
717.119	2724.99
717.306	2589.83
717.493	2509.96
717.681	2706.56
717.868	2661.51
718.055	2649.22
718.242	2624.64
718.43	2661.51
718.617	2497.67
718.804	2690.18
718.991	2501.76
719.179	2628.74
719.366	2528.39
719.553	2618.5
719.74	2735.23
719.927	2755.71
720.114	2641.03
720.301	2530.44
720.488	2602.11
720.676	2575.49
720.863	2593.92
721.05	2575.49
721.237	2540.68
721.424	2677.89
721.611	2534.53
721.798	2501.76
721.985	2630.79
722.172	2532.48
722.358	2589.83
722.545	2524.29
722.732	2618.5
722.919	2526.34
723.106	2575.49
723.293	2481.28
723.48	2567.3
723.667	2530.44
723.853	2591.88
724.04	2534.53
724.227	2614.4
724.414	2688.13
724.6	2442.37
724.787	2565.25
724.974	2671.75
725.161	2518.15
725.347	2514.05
725.534	2632.83
725.72	2651.27
725.907	2706.56
726.094	2643.07
726.28	2663.55
726.467	2610.31
726.653	2647.17
726.84	2710.66
727.027	2681.99
727.213	2561.16
727.4	2540.68
727.586	2636.93
727.773	2485.38
727.959	2649.22
728.145	2634.88
728.332	2534.53
728.518	2653.31
728.705	2571.4
728.891	2649.22
729.077	2671.75
729.264	2708.61
729.45	2585.73
729.636	2473.09
729.823	2645.12
730.009	2526.34
730.195	2577.54
730.382	2735.23
730.568	2686.08
730.754	2657.41
730.94	2600.07
731.126	2681.99
731.313	2784.38
731.499	2530.44
731.685	2585.73
731.871	2655.36
732.057	2794.62
732.243	2700.42
732.429	2686.08
732.615	2645.12
732.801	2555.01
732.987	2661.51
733.173	2608.26
733.359	2542.72
733.545	2626.69
733.731	2581.64
733.917	2784.38
734.103	2694.27
734.289	2663.55
734.475	2548.87
734.661	2602.11
734.847	2579.59
735.033	2708.61
735.219	2608.26
735.404	2704.51
735.59	2698.37
735.776	2651.27
735.962	2540.68
736.148	2643.07
736.333	2722.95
736.519	2602.11
736.705	2657.41
736.89	2636.93
737.076	2524.29
737.262	2571.4
737.447	2722.95
737.633	2710.66
737.819	2612.35
738.004	2561.16
738.19	2595.97
738.375	2653.31
738.561	2542.72
738.747	2540.68
738.932	2493.57
739.118	2645.12
739.303	2591.88
739.489	2487.43
739.674	2503.81
739.859	2550.92
740.045	2659.46
740.23	2544.77
740.416	2577.54
740.601	2520.2
740.786	2368.65
740.972	2440.33
741.157	2489.48
741.342	2417.8
741.528	2425.99
741.713	2448.52
741.898	2577.54
742.084	2456.71
742.269	2448.52
742.454	2542.72
742.639	2591.88
742.824	2440.33
743.01	2471.04
743.195	2434.18
743.38	2448.52
743.565	2415.75
743.75	2411.65
743.935	2436.23
744.12	2546.82
744.305	2403.46
744.49	2313.35
744.675	2348.17
744.86	2448.52
745.045	2299.02
745.23	2319.5
745.415	2378.89
745.6	2323.59
745.785	2202.76
745.97	2352.26
746.155	2296.97
746.34	2352.26
746.525	2278.54
746.71	2352.26
746.895	2253.96
747.079	2182.28
747.264	2227.34
747.449	2251.91
747.634	2249.86
747.819	2229.38
748.003	2161.8
748.188	2057.36
748.373	2137.23
748.557	2049.16
748.742	2090.12
748.927	2051.21
749.111	2028.68
749.296	2000.01
749.481	2032.78
749.665	2079.88
749.85	2063.5
750.034	2141.32
750.219	2040.97
750.404	2008.2
750.588	2049.16
750.773	2012.3
750.957	1977.48
751.141	2073.74
751.326	1934.48
751.51	1885.33
751.695	1985.68
751.879	1830.03
752.064	1950.86
752.248	1864.85
752.432	1809.55
752.617	1950.86
752.801	1932.43
752.985	1721.49
753.17	1948.81
753.354	1764.5
753.538	1787.02
753.722	1889.42
753.907	1842.32
754.091	1823.89
754.275	1801.36
754.459	1690.77
754.643	1680.53
754.828	1678.48
755.012	1686.67
755.196	1637.52
755.38	1672.34
755.564	1643.67
755.748	1692.82
755.932	1680.53
756.116	1604.75
756.3	1561.75
756.484	1565.84
756.668	1596.56
756.852	1494.16
757.036	1588.37
757.22	1612.95
757.404	1600.66
757.588	1629.33
757.772	1543.32
757.956	1561.75
758.14	1531.03
758.323	1477.78
758.507	1526.93
758.691	1483.92
758.875	1541.27
759.059	1543.32
759.242	1477.78
759.426	1469.59
759.61	1404.05
759.794	1363.09
759.977	1440.92
760.161	1506.45
760.345	1420.44
760.528	1459.35
760.712	1414.29
760.895	1324.18
761.079	1369.24
761.263	1229.98
761.446	1264.79
761.63	1356.95
761.813	1326.23
761.997	1311.89
762.18	1256.6
762.364	1318.04
762.547	1275.03
762.731	1303.7
762.914	1264.79
763.098	1315.99
763.281	1221.78
763.464	1299.61
763.648	1242.26
763.831	1313.94
764.015	1248.41
764.198	1303.7
764.381	1240.22
764.564	1168.54
764.748	1111.19
764.931	1229.98
765.114	1223.83
765.297	1248.41
765.481	1238.17
765.664	1191.06
765.847	1211.54
766.03	1252.5
766.213	1205.4
766.397	1234.07
766.58	1166.49
766.763	1209.5
766.946	1184.92
767.129	1150.11
767.312	1111.19
767.495	1158.3
767.678	1119.39
767.861	1229.98
768.044	1131.67
768.227	1162.39
768.41	1100.95
768.593	1176.73
768.776	1125.53
768.959	1154.2
769.142	1086.62
769.324	1076.38
769.507	1166.49
769.69	1098.91
769.873	1080.47
770.056	1154.2
770.239	1139.87
770.421	1119.39
770.604	1119.39
770.787	1066.14
770.97	1074.33
771.152	1154.2
771.335	1072.28
771.518	1008.8
771.7	1025.18
771.883	1088.67
772.066	998.56
772.248	965.79
772.431	1002.65
772.613	988.32
772.796	1027.23
772.978	971.93
773.161	1025.18
773.343	947.36
773.526	1016.99
773.708	953.5
773.891	941.21
774.073	967.84
774.256	1012.89
774.438	963.74
774.621	906.4
774.803	879.77
774.985	847.01
775.168	949.4
775.35	885.92
775.532	857.25
775.715	967.84
775.897	904.35
776.079	865.44
776.261	875.68
776.444	933.02
776.626	863.39
776.808	820.38
776.99	910.49
777.173	820.38
777.355	836.77
777.537	859.29
777.719	773.28
777.901	832.67
778.083	851.1
778.265	713.89
778.447	808.09
778.629	715.94
778.811	740.51
778.993	765.09
779.175	847.01
779.357	838.81
779.539	625.83
779.721	711.84
779.903	734.37
780.085	634.02
780.267	687.26
780.449	720.03
780.631	697.5
780.812	717.98
780.994	715.94
781.176	640.16
781.358	771.23
781.54	650.4
781.721	634.02
781.903	662.69
782.085	597.15
782.267	617.63
782.448	636.06
782.63	662.69
782.812	642.21
782.993	621.73
783.175	664.74
783.357	599.2
783.538	662.69
783.72	619.68
783.901	650.4
784.083	607.39
784.264	574.63
784.446	511.14
784.627	593.06
784.809	535.71
784.99	533.67
785.172	566.43
785.353	548
785.535	552.1
785.716	511.14
785.897	566.43
786.079	521.38
786.26	545.95
786.441	556.19
786.623	519.33
786.804	539.81
786.985	548
787.167	515.23
787.348	447.65
787.529	494.76
787.71	558.24
787.891	578.72
788.073	439.46
788.254	537.76
788.435	476.32
788.616	361.64
788.797	464.04
788.978	486.56
789.159	519.33
789.34	533.67
789.522	455.84
789.703	402.6
789.884	472.23
790.065	416.93
790.246	461.99
790.427	441.51
790.607	507.04
790.788	470.18
790.969	529.57
791.15	474.28
791.331	400.55
791.512	480.42
791.693	343.21
791.874	443.56
792.054	384.16
792.235	445.6
792.416	347.3
792.597	349.35
792.778	296.1
792.958	441.51
793.139	392.36
793.32	396.45
793.5	375.97
793.681	466.08
793.862	443.56
794.042	398.5
794.223	271.53
794.404	339.11
794.584	318.63
794.765	402.6
794.945	343.21
795.126	461.99
795.306	378.02
795.487	302.25
795.667	361.64
795.848	357.54
796.028	400.55
796.209	367.78
796.389	355.49
796.57	400.55
796.75	318.63
796.93	359.59
797.111	306.34
797.291	361.64
797.471	353.45
797.652	304.29
797.832	353.45
798.012	425.12
798.192	281.77
798.373	308.39
798.553	296.1
798.733	285.86
798.913	289.96
799.093	326.82
799.274	289.96
799.454	378.02
799.634	289.96
799.814	394.4
799.994	273.57
800.174	304.29
800.354	203.94
800.534	261.29
800.714	316.58
800.894	324.77
801.074	326.82
801.254	253.09
801.434	318.63
801.614	306.34
801.794	230.57
801.974	623.78
802.154	281.77
802.334	226.47
802.514	232.62
802.693	267.43
802.873	337.06
803.053	345.25
803.233	271.53
803.413	300.2
803.592	320.68
803.772	255.14
803.952	273.57
804.131	203.94
804.311	312.49
804.491	261.29
804.67	261.29
804.85	279.72
805.03	203.94
805.209	306.34
805.389	271.53
805.568	275.62
805.748	304.29
805.928	308.39
806.107	244.9
806.287	242.85
806.466	236.71
806.646	214.18
806.825	257.19
807.004	220.33
807.184	267.43
807.363	265.38
807.543	244.9
807.722	193.7
807.901	230.57
808.081	246.95
808.26	212.14
808.439	232.62
808.619	302.25
808.798	246.95
808.977	228.52
809.156	236.71
809.336	144.55
809.515	222.38
809.694	216.23
809.873	193.7
810.052	212.14
810.231	294.05
810.411	216.23
810.59	216.23
810.769	281.77
810.948	242.85
811.127	103.59
811.306	167.08
811.485	216.23
811.664	242.85
811.843	199.85
812.022	236.71
812.201	144.55
812.38	165.03
812.559	234.66
812.737	199.85
812.916	93.35
813.095	160.94
813.274	236.71
813.453	181.42
813.632	183.46
813.811	203.94
813.989	142.5
814.168	273.57
814.347	228.52
814.526	103.59
814.704	240.81
814.883	169.13
815.062	134.31
815.24	214.18
815.419	160.94
815.598	175.27
815.776	124.07
815.955	146.6
816.133	142.5
816.312	173.22
816.49	203.94
816.669	173.22
816.847	173.22
817.026	181.42
817.204	146.6
817.383	130.22
817.561	167.08
817.74	117.93
817.918	111.78
818.097	230.57
818.275	142.5
818.453	134.31
818.632	185.51
818.81	179.37
818.988	148.65
819.167	122.02
819.345	138.41
819.523	95.4
819.701	158.89
819.879	146.6
820.058	179.37
820.236	191.66
820.414	132.26
820.592	177.32
820.77	138.41
820.948	183.46
821.127	175.27
821.305	158.89
821.483	89.26
821.661	156.84
821.839	208.04
822.017	150.7
822.195	113.83
822.373	199.85
822.551	158.89
822.729	124.07
822.907	109.74
823.085	154.79
823.262	154.79
823.44	113.83
823.618	119.98
823.796	95.4
823.974	105.64
824.152	70.83
824.329	93.35
824.507	185.51
824.685	144.55
824.863	115.88
825.04	175.27
825.218	117.93
825.396	76.97
825.574	185.51
825.751	74.92
825.929	66.73
826.107	154.79
826.284	117.93
826.462	175.27
826.639	89.26
826.817	99.5
826.994	158.89
827.172	113.83
827.349	115.88
827.527	105.64
827.704	136.36
827.882	93.35
828.059	99.5
828.237	115.88
828.414	83.11
828.591	115.88
828.769	60.59
828.946	113.83
829.124	113.83
829.301	146.6
829.478	117.93
829.655	81.07
829.833	148.65
830.01	103.59
830.187	162.98
830.364	79.02
830.542	119.98
830.719	103.59
830.896	79.02
831.073	36.01
831.25	113.83
831.427	85.16
831.604	103.59
831.782	72.87
831.959	113.83
832.136	113.83
832.313	76.97
832.49	85.16
832.667	122.02
832.844	122.02
833.021	85.16
833.198	113.83
833.374	56.49
833.551	46.25
833.728	111.78
833.905	115.88
834.082	70.83
834.259	107.69
834.436	103.59
834.612	64.68
834.789	103.59
834.966	126.12
835.143	101.55
835.319	109.74
835.496	132.26
835.673	76.97
835.85	70.83
836.026	5.29
836.203	140.46
836.38	138.41
836.556	89.26
836.733	42.15
836.909	97.45
837.086	146.6
837.262	21.67
837.439	68.78
837.616	89.26
837.792	140.46
837.968	103.59
838.145	46.25
838.321	72.87
838.498	66.73
838.674	62.63
838.851	70.83
839.027	115.88
839.203	62.63
839.38	136.36
839.556	70.83
839.732	58.54
839.909	17.58
840.085	60.59
840.261	52.39
840.437	40.11
840.614	50.35
840.79	128.17
840.966	48.3
841.142	13.48
841.318	50.35
841.494	124.07
841.671	33.96
841.847	68.78
842.023	46.25
842.199	89.26
842.375	33.96
842.551	13.48
842.727	46.25
842.903	42.15
843.079	56.49
843.255	72.87
843.431	99.5
843.607	64.68
843.783	56.49
843.959	76.97
844.134	89.26
844.31	62.63
844.486	50.35
844.662	62.63
844.838	107.69
845.013	40.11
845.189	70.83
845.365	79.02
845.541	9.39
845.716	-11.09
845.892	50.35
846.068	13.48
846.244	52.39
846.419	56.49
846.595	85.16
846.77	21.67
846.946	81.07
847.122	62.63
847.297	-2.9
847.473	85.16
847.648	3.24
847.824	25.77
847.999	60.59
848.175	122.02
848.35	132.26
848.526	70.83
848.701	107.69
848.876	44.2
849.052	40.11
849.227	36.01
849.403	46.25
849.578	3.24
849.753	44.2
849.929	99.5
850.104	-54.1
850.279	-7
850.454	85.16
850.63	38.06
850.805	101.55
850.98	40.11
851.155	-13.14
851.33	101.55
851.505	-27.48
851.681	48.3
851.856	97.45
852.031	31.91
852.206	105.64
852.381	76.97
852.556	25.77
852.731	48.3
852.906	89.26
853.081	-21.33
853.256	177.32
853.431	107.69
853.606	15.53
853.781	11.43
853.956	-33.62
854.131	1.19
854.305	-0.85
854.48	-37.72
854.655	-7
854.83	31.91
855.005	50.35
855.18	74.92
855.354	29.87
855.529	107.69
855.704	-23.38
855.879	-7
856.053	17.58
856.228	74.92
856.403	-0.85
856.577	54.44
856.752	-23.38
856.926	56.49
857.101	-33.62
857.276	27.82
857.45	36.01
857.625	21.67
857.799	46.25
857.974	36.01
858.148	23.72
858.323	13.48
858.497	44.2
858.672	56.49
858.846	66.73
859.02	101.55
859.195	50.35
859.369	11.43
859.543	103.59
859.718	70.83
859.892	48.3
860.066	56.49
860.241	31.91
860.415	62.63
860.589	27.82
860.763	13.48
860.938	42.15
861.112	-19.29
861.286	54.44
861.46	74.92
861.634	-2.9
861.808	40.11
861.982	-15.19
862.157	-7
862.331	27.82
862.505	-37.72
862.679	46.25
862.853	87.21
863.027	25.77
863.201	111.78
863.375	95.4
863.549	83.11
863.722	27.82
863.896	134.31
864.07	-23.38
864.244	72.87
864.418	107.69
864.592	1.19
864.766	15.53
864.939	70.83
865.113	52.39
865.287	76.97
865.461	50.35
865.634	38.06
865.808	9.39
865.982	52.39
866.156	36.01
866.329	5.29
866.503	68.78
866.676	113.83
866.85	23.72
867.024	89.26
867.197	9.39
867.371	29.87
867.544	115.88
867.718	-2.9
867.891	87.21
868.065	60.59
868.238	44.2
868.412	44.2
868.585	44.2
868.759	42.15
868.932	44.2
869.105	38.06
869.279	27.82
869.452	-0.85
869.625	5.29
869.799	138.41
869.972	-21.33
870.145	66.73
870.319	38.06
870.492	46.25
870.665	-7
870.838	-4.95
871.011	48.3
871.185	89.26
871.358	23.72
871.531	-35.67
871.704	29.87
871.877	38.06
872.05	3.24
872.223	7.34
872.396	54.44
872.569	52.39
872.742	9.39
872.915	79.02
873.088	58.54
873.261	3.24
873.434	52.39
873.607	13.48
873.78	150.7
873.953	-29.52
874.126	-2.9
874.299	-11.09
874.471	-21.33
874.644	46.25
874.817	29.87
874.99	66.73
875.163	40.11
875.335	19.63
875.508	-13.14
875.681	66.73
875.853	-15.19
876.026	91.31
876.199	-23.38
876.371	91.31
876.544	1.19
876.717	64.68
876.889	7.34
877.062	-11.09
877.234	-47.96
877.407	-13.14
877.579	19.63
877.752	-17.24
877.924	-7
878.097	128.17
878.269	1.19
878.442	-25.43
878.614	64.68
878.786	29.87
878.959	29.87
879.131	-7
879.303	50.35
879.476	36.01
879.648	-52.05
879.82	-25.43
879.993	15.53
880.165	-27.48
880.337	3.24
880.509	99.5
880.681	-19.29
880.854	68.78
881.026	27.82
881.198	93.35
881.37	48.3
881.542	54.44
881.714	-31.57
881.886	33.96
882.058	36.01
882.23	40.11
882.402	-7
882.574	21.67
882.746	36.01
882.918	119.98
883.09	40.11
883.262	-0.85
883.434	17.58
883.606	56.49
883.778	-50
883.95	54.44
884.122	1.19
884.293	17.58
884.465	44.2
884.637	21.67
884.809	15.53
884.98	-33.62
885.152	1.19
885.324	25.77
885.496	-68.44
885.667	-43.86
885.839	44.2
886.011	89.26
886.182	11.43
886.354	27.82
886.525	-23.38
886.697	58.54
886.869	44.2
887.04	-43.86
887.212	60.59
887.383	7.34
887.555	29.87
887.726	-9.05
887.897	56.49
888.069	29.87
888.24	5.29
888.412	79.02
888.583	38.06
888.754	7.34
888.926	52.39
889.097	50.35
889.268	-9.05
889.44	74.92
889.611	13.48
889.782	64.68
889.953	15.53
890.125	29.87
890.296	-54.1
890.467	11.43
890.638	1.19
890.809	33.96
890.98	40.11
891.151	5.29
891.323	-4.95
891.494	-7
891.665	29.87
891.836	23.72
892.007	99.5
892.178	54.44
892.349	74.92
892.52	33.96
892.691	15.53
892.862	-41.81
893.032	7.34
893.203	-4.95
893.374	-9.05
893.545	27.82
893.716	11.43
893.887	29.87
894.057	3.24
894.228	1.19
894.399	-15.19
894.57	56.49
894.74	56.49
894.911	-31.57
895.082	3.24
895.253	60.59
895.423	-0.85
895.594	50.35
895.764	93.35
895.935	31.91
896.106	3.24
896.276	-25.43
896.447	-27.48
896.617	-25.43
896.788	44.2
896.958	46.25
897.129	-2.9
897.299	-7
897.47	-23.38
897.64	-15.19
897.81	29.87
897.981	-2.9
898.151	-29.52
898.322	-41.81
898.492	27.82
898.662	-2.9
898.832	15.53
899.003	64.68
899.173	-52.05
899.343	-23.38
899.513	1.19
