Data from USB4F104151__79__11-45-31-367.txt Node

Date: Fri Mar 14 11:45:31 EDT 2025
User: louis
Spectrometer: USB4F10415
Trigger mode: 4
Integration Time (sec): 2.000000E-2
Scans to average: 1
Electric dark correction enabled: true
Nonlinearity correction enabled: false
Boxcar width: 0
XAxis mode: Wavelengths
Number of Pixels in Spectrum: 3648
>>>>>Begin Spectral Data<<<<<
178.204	-91.31
178.424	-91.31
178.644	-91.31
178.864	-91.31
179.084	-74.92
179.304	-74.92
179.524	-9.39
179.744	-9.39
179.964	60.24
180.184	-66.73
180.404	33.62
180.624	-31.91
180.844	9.05
181.064	-15.53
181.283	54.1
181.503	31.57
181.723	19.29
181.943	-46.25
182.163	13.14
182.383	-3.24
182.602	-23.72
182.822	72.53
183.042	31.57
183.262	15.19
183.482	35.67
183.701	52.05
183.921	45.91
184.141	-3.24
184.361	68.44
184.58	37.72
184.8	15.19
185.02	52.05
185.239	47.96
185.459	-54.44
185.679	9.05
185.898	7
186.118	19.29
186.338	21.33
186.557	37.72
186.777	23.38
186.997	99.16
187.216	29.52
187.436	45.91
187.655	45.91
187.875	60.24
188.095	39.76
188.314	47.96
188.534	11.09
188.753	62.29
188.973	27.48
189.192	52.05
189.412	-23.72
189.631	80.72
189.851	21.33
190.07	50
190.29	21.33
190.509	-17.58
190.729	-50.35
190.948	27.48
191.168	97.11
191.387	105.3
191.607	-42.15
191.826	41.81
192.045	11.09
192.265	-9.39
192.484	82.77
192.704	-9.39
192.923	-38.06
193.142	105.3
193.362	70.48
193.581	66.39
193.8	19.29
194.02	-54.44
194.239	-15.53
194.458	76.63
194.678	93.01
194.897	33.62
195.116	-27.82
195.335	35.67
195.555	29.52
195.774	33.62
195.993	84.82
196.212	64.34
196.432	64.34
196.651	37.72
196.87	72.53
197.089	111.44
197.308	4.95
197.528	68.44
197.747	-7.34
197.966	58.2
198.185	7
198.404	64.34
198.623	35.67
198.842	54.1
199.062	21.33
199.281	39.76
199.5	37.72
199.719	4.95
199.938	70.48
200.157	76.63
200.376	-13.48
200.595	-9.39
200.814	33.62
201.033	2.9
201.252	47.96
201.471	39.76
201.69	64.34
201.909	33.62
202.128	-70.83
202.347	103.25
202.566	76.63
202.785	21.33
203.004	58.2
203.223	58.2
203.442	-21.67
203.661	33.62
203.879	45.91
204.098	76.63
204.317	11.09
204.536	47.96
204.755	103.25
204.974	11.09
205.193	50
205.411	37.72
205.63	37.72
205.849	-13.48
206.068	43.86
206.287	27.48
206.505	33.62
206.724	0.85
206.943	15.19
207.162	-38.06
207.381	148.31
207.599	76.63
207.818	60.24
208.037	27.48
208.255	52.05
208.474	41.81
208.693	25.43
208.911	23.38
209.13	56.15
209.349	41.81
209.567	82.77
209.786	52.05
210.005	-11.43
210.223	13.14
210.442	76.63
210.661	-21.67
210.879	60.24
211.098	25.43
211.316	54.1
211.535	47.96
211.753	-33.96
211.972	21.33
212.191	27.48
212.409	41.81
212.628	52.05
212.846	27.48
213.065	-21.67
213.283	123.73
213.502	37.72
213.72	33.62
213.938	45.91
214.157	84.82
214.375	33.62
214.594	7
214.812	31.57
215.031	54.1
215.249	-19.63
215.467	41.81
215.686	-52.39
215.904	17.24
216.122	9.05
216.341	74.58
216.559	50
216.778	113.49
216.996	21.33
217.214	-38.06
217.432	-13.48
217.651	4.95
217.869	50
218.087	115.54
218.306	13.14
218.524	56.15
218.742	-83.11
218.96	76.63
219.179	17.24
219.397	82.77
219.615	-7.34
219.833	72.53
220.051	64.34
220.27	17.24
220.488	9.05
220.706	-19.63
220.924	-13.48
221.142	11.09
221.36	-1.19
221.578	-5.29
221.796	7
222.015	7
222.233	37.72
222.451	-17.58
222.669	-21.67
222.887	37.72
223.105	64.34
223.323	-17.58
223.541	27.48
223.759	82.77
223.977	56.15
224.195	0.85
224.413	-17.58
224.631	66.39
224.849	101.2
225.067	23.38
225.285	95.06
225.503	58.2
225.721	2.9
225.939	66.39
226.157	82.77
226.375	119.64
226.592	-81.07
226.81	52.05
227.028	95.06
227.246	111.44
227.464	97.11
227.682	7
227.9	93.01
228.117	103.25
228.335	70.48
228.553	95.06
228.771	35.67
228.989	84.82
229.206	97.11
229.424	2.9
229.642	-3.24
229.86	37.72
230.077	78.68
230.295	60.24
230.513	97.11
230.731	101.2
230.948	60.24
231.166	66.39
231.384	60.24
231.601	11.09
231.819	-1.19
232.037	4.95
232.254	-9.39
232.472	25.43
232.689	37.72
232.907	-81.07
233.125	35.67
233.342	-11.43
233.56	-3.24
233.777	52.05
233.995	78.68
234.213	21.33
234.43	64.34
234.648	119.64
234.865	93.01
235.083	25.43
235.3	-50.35
235.518	0.85
235.735	54.1
235.953	68.44
236.17	-40.11
236.388	37.72
236.605	50
236.822	82.77
237.04	84.82
237.257	41.81
237.475	107.35
237.692	78.68
237.909	50
238.127	39.76
238.344	11.09
238.562	-13.48
238.779	-17.58
238.996	62.29
239.214	-3.24
239.431	74.58
239.648	72.53
239.865	68.44
240.083	35.67
240.3	56.15
240.517	43.86
240.735	7
240.952	19.29
241.169	-31.91
241.386	29.52
241.603	29.52
241.821	0.85
242.038	4.95
242.255	52.05
242.472	2.9
242.689	9.05
242.907	-7.34
243.124	82.77
243.341	23.38
243.558	-9.39
243.775	121.68
243.992	2.9
244.209	64.34
244.426	41.81
244.643	4.95
244.86	-7.34
245.078	2.9
245.295	82.77
245.512	82.77
245.729	-15.53
245.946	62.29
246.163	4.95
246.38	13.14
246.597	19.29
246.814	62.29
247.031	88.92
247.248	-7.34
247.464	17.24
247.681	52.05
247.898	90.96
248.115	35.67
248.332	-21.67
248.549	70.48
248.766	43.86
248.983	2.9
249.2	-13.48
249.417	50
249.633	43.86
249.85	60.24
250.067	23.38
250.284	54.1
250.501	27.48
250.717	93.01
250.934	-44.2
251.151	27.48
251.368	41.81
251.585	17.24
251.801	109.4
252.018	-15.53
252.235	70.48
252.451	37.72
252.668	19.29
252.885	138.07
253.102	41.81
253.318	35.67
253.535	90.96
253.752	35.67
253.968	23.38
254.185	2.9
254.401	27.48
254.618	60.24
254.835	-19.63
255.051	82.77
255.268	86.87
255.484	56.15
255.701	47.96
255.917	86.87
256.134	-17.58
256.351	-17.58
256.567	62.29
256.784	45.91
257	-25.77
257.217	41.81
257.433	95.06
257.65	119.64
257.866	86.87
258.082	-44.2
258.299	35.67
258.515	23.38
258.732	70.48
258.948	9.05
259.165	-1.19
259.381	33.62
259.597	23.38
259.814	58.2
260.03	84.82
260.246	35.67
260.463	7
260.679	35.67
260.895	60.24
261.112	33.62
261.328	4.95
261.544	9.05
261.761	115.54
261.977	43.86
262.193	19.29
262.409	13.14
262.626	103.25
262.842	66.39
263.058	47.96
263.274	62.29
263.49	76.63
263.707	74.58
263.923	97.11
264.139	43.86
264.355	15.19
264.571	54.1
264.787	17.24
265.004	105.3
265.22	-9.39
265.436	74.58
265.652	37.72
265.868	31.57
266.084	47.96
266.3	52.05
266.516	37.72
266.732	0.85
266.948	66.39
267.164	33.62
267.38	47.96
267.596	4.95
267.812	4.95
268.028	72.53
268.244	13.14
268.46	64.34
268.676	58.2
268.892	52.05
269.108	-3.24
269.324	2.9
269.54	29.52
269.756	60.24
269.972	-42.15
270.188	52.05
270.403	45.91
270.619	31.57
270.835	-48.3
271.051	25.43
271.267	7
271.483	86.87
271.698	60.24
271.914	64.34
272.13	2.9
272.346	82.77
272.562	19.29
272.777	107.35
272.993	58.2
273.209	41.81
273.425	95.06
273.64	-44.2
273.856	11.09
274.072	33.62
274.287	-11.43
274.503	54.1
274.719	64.34
274.934	97.11
275.15	25.43
275.366	29.52
275.581	-1.19
275.797	105.3
276.012	19.29
276.228	76.63
276.444	-23.72
276.659	66.39
276.875	15.19
277.09	21.33
277.306	54.1
277.521	68.44
277.737	17.24
277.952	68.44
278.168	37.72
278.383	72.53
278.599	68.44
278.814	74.58
279.03	-21.67
279.245	23.38
279.461	64.34
279.676	80.72
279.892	-15.53
280.107	13.14
280.322	-17.58
280.538	90.96
280.753	74.58
280.969	35.67
281.184	52.05
281.399	15.19
281.615	62.29
281.83	33.62
282.045	9.05
282.26	19.29
282.476	27.48
282.691	39.76
282.906	62.29
283.122	7
283.337	-23.72
283.552	105.3
283.767	9.05
283.983	62.29
284.198	50
284.413	76.63
284.628	2.9
284.843	58.2
285.058	7
285.274	60.24
285.489	13.14
285.704	111.44
285.919	-58.54
286.134	60.24
286.349	62.29
286.564	54.1
286.779	9.05
286.995	90.96
287.21	-31.91
287.425	76.63
287.64	13.14
287.855	45.91
288.07	35.67
288.285	11.09
288.5	21.33
288.715	56.15
288.93	56.15
289.145	21.33
289.36	43.86
289.575	29.52
289.79	-29.87
290.004	21.33
290.219	62.29
290.434	33.62
290.649	74.58
290.864	33.62
291.079	47.96
291.294	-5.29
291.509	99.16
291.724	13.14
291.938	21.33
292.153	29.52
292.368	58.2
292.583	68.44
292.798	43.86
293.012	27.48
293.227	7
293.442	64.34
293.657	52.05
293.871	58.2
294.086	66.39
294.301	68.44
294.516	50
294.73	68.44
294.945	-7.34
295.16	62.29
295.374	68.44
295.589	68.44
295.804	37.72
296.018	-3.24
296.233	78.68
296.447	37.72
296.662	117.59
296.877	54.1
297.091	39.76
297.306	23.38
297.52	82.77
297.735	113.49
297.949	70.48
298.164	56.15
298.378	43.86
298.593	21.33
298.807	107.35
299.022	82.77
299.236	35.67
299.451	31.57
299.665	31.57
299.88	2.9
300.094	37.72
300.309	47.96
300.523	82.77
300.737	-44.2
300.952	72.53
301.166	90.96
301.381	29.52
301.595	66.39
301.809	66.39
302.024	60.24
302.238	-9.39
302.452	60.24
302.667	64.34
302.881	72.53
303.095	25.43
303.309	95.06
303.524	-5.29
303.738	11.09
303.952	-46.25
304.166	88.92
304.381	70.48
304.595	19.29
304.809	-62.63
305.023	60.24
305.237	-5.29
305.452	74.58
305.666	17.24
305.88	88.92
306.094	62.29
306.308	54.1
306.522	60.24
306.736	82.77
306.95	25.43
307.164	9.05
307.379	4.95
307.593	37.72
307.807	105.3
308.021	72.53
308.235	35.67
308.449	-9.39
308.663	-60.59
308.877	58.2
309.091	62.29
309.305	113.49
309.519	31.57
309.733	31.57
309.947	56.15
310.161	29.52
310.374	7
310.588	99.16
310.802	-25.77
311.016	27.48
311.23	39.76
311.444	25.43
311.658	-54.44
311.872	107.35
312.085	50
312.299	101.2
312.513	84.82
312.727	35.67
312.941	68.44
313.154	-3.24
313.368	66.39
313.582	9.05
313.796	103.25
314.009	-7.34
314.223	41.81
314.437	148.31
314.651	15.19
314.864	50
315.078	0.85
315.292	11.09
315.505	74.58
315.719	17.24
315.933	70.48
316.146	37.72
316.36	105.3
316.573	56.15
316.787	76.63
317.001	33.62
317.214	-1.19
317.428	117.59
317.641	17.24
317.855	-11.43
318.068	-17.58
318.282	68.44
318.495	62.29
318.709	-23.72
318.922	25.43
319.136	74.58
319.349	43.86
319.563	0.85
319.776	17.24
319.99	47.96
320.203	68.44
320.417	74.58
320.63	21.33
320.843	23.38
321.057	13.14
321.27	45.91
321.483	37.72
321.697	86.87
321.91	37.72
322.124	-15.53
322.337	41.81
322.55	-48.3
322.763	52.05
322.977	-15.53
323.19	11.09
323.403	-11.43
323.617	90.96
323.83	25.43
324.043	111.44
324.256	45.91
324.469	-79.02
324.683	25.43
324.896	11.09
325.109	66.39
325.322	-40.11
325.535	33.62
325.748	25.43
325.962	47.96
326.175	70.48
326.388	111.44
326.601	54.1
326.814	35.67
327.027	4.95
327.24	29.52
327.453	-48.3
327.666	29.52
327.879	23.38
328.092	60.24
328.305	23.38
328.518	66.39
328.731	11.09
328.944	-21.67
329.157	27.48
329.37	23.38
329.583	2.9
329.796	109.4
330.009	68.44
330.222	56.15
330.435	4.95
330.648	35.67
330.861	17.24
331.073	-7.34
331.286	103.25
331.499	80.72
331.712	41.81
331.925	-11.43
332.138	19.29
332.35	64.34
332.563	41.81
332.776	90.96
332.989	-3.24
333.202	7
333.414	39.76
333.627	113.49
333.84	0.85
334.053	23.38
334.265	4.95
334.478	52.05
334.691	66.39
334.903	72.53
335.116	7
335.329	43.86
335.541	72.53
335.754	72.53
335.966	82.77
336.179	45.91
336.392	17.24
336.604	72.53
336.817	52.05
337.029	74.58
337.242	45.91
337.454	84.82
337.667	95.06
337.88	45.91
338.092	56.15
338.305	66.39
338.517	-13.48
338.729	90.96
338.942	54.1
339.154	54.1
339.367	25.43
339.579	11.09
339.792	17.24
340.004	-27.82
340.217	-25.77
340.429	35.67
340.641	50
340.854	13.14
341.066	4.95
341.278	74.58
341.491	88.92
341.703	21.33
341.915	-9.39
342.128	-33.96
342.34	64.34
342.552	21.33
342.764	17.24
342.977	21.33
343.189	13.14
343.401	70.48
343.613	56.15
343.826	45.91
344.038	52.05
344.25	27.48
344.462	52.05
344.674	109.4
344.886	45.91
345.099	31.57
345.311	58.2
345.523	15.19
345.735	25.43
345.947	90.96
346.159	56.15
346.371	101.2
346.583	70.48
346.795	90.96
347.007	62.29
347.219	19.29
347.431	103.25
347.643	0.85
347.855	29.52
348.067	60.24
348.279	17.24
348.491	-62.63
348.703	-19.63
348.915	84.82
349.127	33.62
349.339	103.25
349.551	25.43
349.763	39.76
349.975	11.09
350.187	93.01
350.399	25.43
350.61	64.34
350.822	90.96
351.034	62.29
351.246	62.29
351.458	90.96
351.669	35.67
351.881	105.3
352.093	60.24
352.305	129.88
352.517	90.96
352.728	19.29
352.94	107.35
353.152	-3.24
353.363	-5.29
353.575	113.49
353.787	105.3
353.999	39.76
354.21	140.12
354.422	21.33
354.633	56.15
354.845	39.76
355.057	111.44
355.268	21.33
355.48	95.06
355.692	70.48
355.903	11.09
356.115	90.96
356.326	-25.77
356.538	64.34
356.749	93.01
356.961	146.26
357.172	33.62
357.384	60.24
357.595	117.59
357.807	74.58
358.018	82.77
358.23	60.24
358.441	97.11
358.653	72.53
358.864	39.76
359.075	52.05
359.287	4.95
359.498	23.38
359.709	13.14
359.921	19.29
360.132	21.33
360.344	111.44
360.555	47.96
360.766	-9.39
360.977	11.09
361.189	-13.48
361.4	45.91
361.611	64.34
361.823	99.16
362.034	66.39
362.245	41.81
362.456	80.72
362.667	35.67
362.879	58.2
363.09	68.44
363.301	37.72
363.512	-13.48
363.723	33.62
363.935	50
364.146	86.87
364.357	80.72
364.568	80.72
364.779	35.67
364.99	60.24
365.201	-25.77
365.412	101.2
365.623	33.62
365.834	66.39
366.045	39.76
366.256	47.96
366.467	41.81
366.678	33.62
366.889	97.11
367.1	62.29
367.311	41.81
367.522	15.19
367.733	129.88
367.944	66.39
368.155	29.52
368.366	113.49
368.577	95.06
368.788	119.64
368.999	56.15
369.209	21.33
369.42	111.44
369.631	-19.63
369.842	47.96
370.053	56.15
370.264	45.91
370.474	-19.63
370.685	-17.58
370.896	27.48
371.107	60.24
371.317	72.53
371.528	113.49
371.739	82.77
371.95	84.82
372.16	17.24
372.371	45.91
372.582	41.81
372.792	43.86
373.003	41.81
373.214	-11.43
373.424	43.86
373.635	23.38
373.846	70.48
374.056	103.25
374.267	52.05
374.477	76.63
374.688	84.82
374.898	140.12
375.109	74.58
375.319	50
375.53	52.05
375.74	9.05
375.951	35.67
376.161	15.19
376.372	52.05
376.582	80.72
376.793	90.96
377.003	41.81
377.214	97.11
377.424	35.67
377.635	78.68
377.845	62.29
378.055	129.88
378.266	-31.91
378.476	2.9
378.686	43.86
378.897	50
379.107	15.19
379.317	54.1
379.528	33.62
379.738	39.76
379.948	45.91
380.158	54.1
380.369	95.06
380.579	7
380.789	113.49
380.999	54.1
381.21	93.01
381.42	54.1
381.63	-33.96
381.84	39.76
382.05	90.96
382.261	72.53
382.471	74.58
382.681	58.2
382.891	78.68
383.101	109.4
383.311	19.29
383.521	125.78
383.731	76.63
383.941	52.05
384.151	88.92
384.361	95.06
384.571	7
384.781	101.2
384.991	93.01
385.201	64.34
385.411	84.82
385.621	15.19
385.831	43.86
386.041	52.05
386.251	45.91
386.461	117.59
386.671	35.67
386.881	80.72
387.091	60.24
387.301	136.02
387.511	9.05
387.72	56.15
387.93	95.06
388.14	52.05
388.35	82.77
388.56	64.34
388.769	95.06
388.979	84.82
389.189	58.2
389.399	90.96
389.609	60.24
389.818	56.15
390.028	103.25
390.238	95.06
390.447	80.72
390.657	146.26
390.867	37.72
391.076	15.19
391.286	99.16
391.496	43.86
391.705	7
391.915	88.92
392.125	64.34
392.334	-15.53
392.544	117.59
392.753	88.92
392.963	78.68
393.172	23.38
393.382	15.19
393.591	25.43
393.801	54.1
394.01	84.82
394.22	47.96
394.429	43.86
394.639	54.1
394.848	107.35
395.058	62.29
395.267	17.24
395.477	27.48
395.686	64.34
395.895	86.87
396.105	138.07
396.314	150.36
396.524	125.78
396.733	56.15
396.942	103.25
397.152	60.24
397.361	74.58
397.57	64.34
397.78	113.49
397.989	31.57
398.198	150.36
398.407	56.15
398.617	54.1
398.826	50
399.035	93.01
399.244	64.34
399.453	52.05
399.663	129.88
399.872	72.53
400.081	88.92
400.29	111.44
400.499	72.53
400.708	119.64
400.917	58.2
401.127	54.1
401.336	78.68
401.545	133.97
401.754	95.06
401.963	140.12
402.172	152.4
402.381	62.29
402.59	121.68
402.799	97.11
403.008	205.65
403.217	138.07
403.426	113.49
403.635	181.07
403.844	105.3
404.053	207.7
404.262	107.35
404.471	174.93
404.68	142.16
404.888	185.17
405.097	195.41
405.306	170.83
405.515	136.02
405.724	174.93
405.933	201.55
406.142	121.68
406.35	226.13
406.559	156.5
406.768	224.08
406.977	246.61
407.185	181.07
407.394	232.27
407.603	138.07
407.812	254.8
408.02	193.36
408.229	187.22
408.438	199.51
408.646	217.94
408.855	234.32
409.064	230.23
409.272	246.61
409.481	328.53
409.69	244.56
409.898	267.09
410.107	205.65
410.315	371.54
410.524	226.13
410.733	369.49
410.941	236.37
411.15	332.62
411.358	256.85
411.567	310.1
411.775	398.16
411.984	463.69
412.192	465.74
412.401	408.4
412.609	420.69
412.818	445.26
413.026	445.26
413.234	447.31
413.443	508.75
413.651	473.93
413.86	484.17
414.068	543.57
414.276	535.37
414.485	518.99
414.693	600.91
414.901	674.64
415.11	635.72
415.318	670.54
415.526	652.11
415.734	731.98
415.943	699.21
416.151	832.33
416.359	734.03
416.567	797.51
416.776	809.8
416.984	885.58
417.192	883.53
417.4	846.66
417.608	817.99
417.817	1020.74
418.025	979.78
418.233	1030.98
418.441	981.83
418.649	1112.9
418.857	1129.28
419.065	1149.76
419.273	1180.48
419.481	1254.21
419.689	1319.75
419.897	1194.82
420.105	1327.94
420.313	1426.24
420.521	1452.86
420.729	1395.52
420.937	1514.3
421.145	1612.6
421.353	1628.99
421.561	1721.15
421.769	1846.07
421.977	1930.04
422.185	1815.35
422.393	2022.2
422.601	2067.25
422.809	2112.31
423.017	2140.98
423.224	2188.08
423.432	2190.13
423.64	2360.11
423.848	2413.36
424.056	2466.61
424.263	2532.14
424.471	2620.21
424.679	2648.88
424.887	2822.95
425.094	2837.29
425.302	3021.61
425.51	2898.73
425.718	2994.98
425.925	3076.9
426.133	3234.6
426.341	3365.67
426.548	3533.6
426.756	3642.14
426.964	3566.37
427.171	3713.82
427.379	3912.47
427.586	4037.4
427.794	3990.3
428.001	4139.8
428.209	4449.04
428.417	4367.12
428.624	4592.4
428.832	4717.33
429.039	4659.98
429.247	4643.6
429.454	5110.54
429.662	5468.93
429.869	5110.54
430.076	5634.82
430.284	5196.55
430.491	5606.14
430.699	5829.37
430.906	5808.89
431.114	6144.76
431.321	6220.53
431.528	6128.38
431.736	6601.46
431.943	7097.07
432.15	6798.06
432.358	6705.9
432.565	7133.93
432.772	7101.16
432.979	7604.96
433.187	7668.45
433.394	7676.64
433.601	8182.49
433.808	8098.52
434.016	8162.01
434.223	8407.77
434.43	9075.4
434.637	8876.75
434.844	9511.62
435.052	9597.63
435.259	9464.52
435.466	9722.56
435.673	9620.16
435.88	10027.71
436.087	10754.74
436.294	10691.25
436.501	10564.28
436.708	10836.66
436.915	11068.08
437.122	11596.45
437.329	11614.88
437.537	11784.87
437.743	12130.97
437.95	11909.79
438.157	12597.91
438.364	12888.72
438.571	12962.45
438.778	13103.76
438.985	14330.49
439.192	13767.3
439.399	14320.25
439.606	14109.31
439.813	14545.53
440.02	15569.51
440.227	15178.35
440.433	15155.82
440.64	15561.32
440.847	15391.34
441.054	15837.8
441.261	16931.41
441.467	16998.99
441.674	17310.29
441.881	17545.8
442.088	17683.02
442.294	17642.06
442.501	18000.45
442.708	18227.78
442.914	19049.01
443.121	19638.83
443.328	19436.08
443.534	20650.52
443.741	20232.74
443.948	19880.49
444.154	21395.98
444.361	21174.8
444.568	21432.85
444.774	21430.8
444.981	21805.58
445.187	22139.4
445.394	23069.17
445.6	22938.1
445.807	25137.62
446.013	24324.58
446.22	24410.59
446.426	25280.98
446.633	25512.4
446.839	26376.64
447.046	25422.29
447.252	26710.46
447.459	26911.16
447.665	26612.16
447.871	27734.45
448.078	29059.48
448.284	27869.61
448.491	28531.11
448.697	29139.35
448.903	30622.08
449.11	30267.78
449.316	29626.77
449.522	30613.89
449.728	31306.1
449.935	31224.18
450.141	31209.85
450.347	32194.92
450.553	30755.2
450.76	31498.61
450.966	32395.62
451.172	31752.56
451.378	32647.52
451.584	32100.72
451.791	33268.06
451.997	32715.11
452.203	33624.4
452.409	33274.2
452.615	33327.45
452.821	32055.66
453.027	31854.96
453.233	33429.85
453.44	31967.6
453.646	32498.02
453.852	32846.18
454.058	33435.99
454.264	32366.95
454.47	32874.85
454.676	32047.47
454.882	33134.94
455.088	30411.14
455.294	31015.29
455.5	31404.41
455.705	31314.3
455.911	30280.07
456.117	29725.07
456.323	29206.94
456.529	27564.46
456.735	29407.64
456.941	28324.26
457.147	27576.75
457.352	27105.72
457.558	26304.96
457.764	26913.21
457.97	26454.47
458.176	25661.9
458.381	25625.04
458.587	24211.94
458.793	24390.11
458.999	23306.74
459.204	24973.78
459.41	23849.45
459.616	22323.71
459.821	22723.07
460.027	22680.06
460.233	21950.98
460.438	20857.37
460.644	21047.83
460.85	20283.94
461.055	19716.65
461.261	19716.65
461.466	18293.31
461.672	17812.04
461.878	18858.55
462.083	17723.97
462.289	17736.26
462.494	17453.64
462.7	16396.89
462.905	16188
463.111	16757.33
463.316	16595.54
463.522	16376.41
463.727	16245.34
463.932	16403.04
464.138	16233.05
464.343	16245.34
464.549	15653.48
464.754	16030.3
464.959	16179.81
465.165	15864.42
465.37	15321.71
465.575	14895.73
465.781	15676.01
465.986	15667.81
466.191	15155.82
466.397	14672.5
466.602	14291.58
466.807	14631.54
467.012	14527.1
467.218	14432.89
467.423	14486.14
467.628	14508.66
467.833	14985.84
468.038	14312.06
468.244	14062.21
468.449	14611.06
468.654	13937.28
468.859	14043.78
469.064	13861.51
469.269	13320.84
469.474	13320.84
469.679	13892.23
469.885	13251.21
470.09	13662.85
470.295	13402.76
470.5	13146.76
470.705	13417.1
470.91	12866.19
471.115	12567.19
471.32	12956.3
471.525	12987.02
471.73	12704.4
471.935	12591.77
472.139	12102.3
472.344	12135.07
472.549	12309.15
472.754	12182.17
472.959	11793.06
473.164	11539.11
473.369	11465.38
473.574	11862.69
473.778	11815.59
473.983	11721.38
474.188	11399.85
474.393	11109.04
474.598	11102.89
474.802	10812.08
475.007	10787.5
475.212	10793.65
475.417	10597.04
475.621	10609.33
475.826	10613.43
476.031	10314.42
476.235	10236.6
476.44	10322.62
476.645	9953.98
476.849	10091.2
477.054	9851.58
477.259	9878.21
477.463	9855.68
477.668	9530.05
477.872	9659.07
478.077	9470.66
478.282	9351.88
478.486	9349.83
478.691	9036.49
478.895	9124.55
479.1	8960.72
479.304	9132.75
479.509	8792.78
479.713	8923.85
479.918	8743.63
480.122	8661.71
480.326	8714.96
480.531	8674
480.735	8643.28
480.94	8528.6
481.144	9016.01
481.348	8448.72
481.553	8569.55
481.757	8219.35
481.961	8587.99
482.166	8491.73
482.37	8481.49
482.574	8372.95
482.778	8252.12
482.983	8540.88
483.187	8415.96
483.391	8409.81
483.595	8454.87
483.8	8385.24
484.004	8260.31
484.208	8573.65
484.412	8377.05
484.616	8368.85
484.821	8370.9
485.025	8266.46
485.229	8524.5
485.433	8250.07
485.637	8434.39
485.841	8354.52
486.045	8409.81
486.249	8483.54
486.453	8346.33
486.657	8579.79
486.861	8538.84
487.065	8090.33
487.269	8256.22
487.473	8297.17
487.677	8448.72
487.881	8633.04
488.085	8375
488.289	8319.7
488.493	8207.06
488.697	8454.87
488.901	8340.18
489.105	8540.88
489.309	8518.36
489.512	8282.84
489.716	8452.82
489.92	8370.9
490.124	8575.7
490.328	8807.12
490.531	8512.21
490.735	8811.21
490.939	8620.75
491.143	8616.66
491.346	8477.4
491.55	8766.16
491.754	8719.06
491.958	8786.64
492.161	8655.57
492.365	8780.5
492.569	8821.45
492.772	8755.92
492.976	8899.28
493.18	8919.76
493.383	9056.97
493.587	9016.01
493.79	9245.38
493.994	9204.42
494.197	8944.33
494.401	9196.23
494.605	9317.06
494.808	9583.3
495.012	9333.45
495.215	9278.15
495.419	9599.68
495.622	9622.21
495.825	9620.16
496.029	9872.06
496.232	9810.62
496.436	9730.75
496.639	10148.54
496.843	10033.85
497.046	10197.69
497.249	10326.71
497.453	10390.2
497.656	10283.7
497.859	10275.51
498.063	10566.32
498.266	10975.92
498.469	10967.73
498.673	10865.33
498.876	11242.15
499.079	11113.13
499.282	10973.87
499.485	11426.47
499.689	11465.38
499.892	11702.95
500.095	11739.81
500.298	12030.62
500.501	11997.85
500.705	12159.64
500.908	12364.44
501.111	12460.7
501.314	12769.94
501.517	12751.51
501.72	12974.74
501.923	12952.21
502.126	13087.37
502.329	13154.96
502.532	13451.91
502.735	13273.74
502.938	13599.37
503.141	13798.02
503.344	14074.49
503.547	13924.99
503.75	14211.71
503.953	14471.8
504.156	14436.99
504.359	14666.36
504.562	14639.73
504.765	14944.88
504.968	15106.67
505.17	15370.86
505.373	15522.41
505.576	15602.28
505.779	15927.91
505.982	15833.7
506.185	15966.82
506.387	16329.31
506.59	16355.93
506.793	16699.99
506.996	16626.26
507.198	17304.14
507.401	16984.66
507.604	17343.05
507.807	17640.01
508.009	17568.33
508.212	17734.21
508.415	17730.12
508.617	18156.1
508.82	18385.47
509.022	18235.97
509.225	18932.28
509.428	19036.72
509.63	19114.55
509.833	19190.32
510.035	19577.39
510.238	19466.8
510.44	19802.66
510.643	20073
510.845	20298.27
511.048	20249.12
511.25	20584.99
511.453	20603.42
511.655	21330.45
511.858	21162.51
512.06	21295.63
512.262	21621.26
512.465	21516.81
512.667	21647.88
512.87	22112.77
513.072	22028.81
513.274	22532.61
513.477	22647.29
513.679	22903.29
513.881	22977.01
514.084	23376.37
514.286	23312.88
514.488	23433.71
514.69	24125.93
514.893	24377.83
515.095	24519.14
515.297	24332.77
515.499	24830.43
515.701	25082.33
515.904	25186.77
516.106	25483.73
516.308	25749.96
516.51	25991.62
516.712	26126.79
516.914	26382.79
517.116	26778.04
517.318	26661.31
517.52	27017.66
517.722	27367.86
517.925	27333.04
518.127	27687.34
518.329	28000.68
518.531	27904.43
518.733	28506.53
518.935	28737.95
519.136	28651.94
519.338	29526.42
519.54	29421.97
519.742	29270.42
519.944	29823.37
520.146	30136.71
520.348	30194.06
520.55	30329.22
520.752	30638.47
520.954	31056.25
521.155	30755.2
521.357	31469.94
521.559	31445.37
521.761	32211.31
521.963	32137.58
522.164	32264.55
522.366	32276.84
522.568	32555.36
522.77	32688.48
522.971	33042.78
523.173	33184.09
523.375	33474.9
523.576	33378.65
523.778	33589.59
523.98	33976.65
524.181	34191.69
524.383	33696.08
524.584	34423.11
524.786	34363.72
524.988	34734.4
525.189	34969.92
525.391	35471.67
525.592	35539.26
525.794	35301.69
525.995	35637.56
526.197	35791.16
526.398	36053.3
526.6	35770.68
526.801	36333.87
527.003	36383.02
527.204	36348.2
527.406	36958.5
527.607	36622.63
527.808	36929.83
528.01	36622.63
528.211	36462.89
528.412	37654.81
528.614	37204.25
528.815	37462.3
529.016	37925.14
529.218	37732.63
529.419	37841.17
529.62	37894.42
529.822	37765.4
530.023	37771.54
530.224	37703.96
530.425	37663
530.626	37529.88
530.828	37587.22
531.029	38527.24
531.23	38183.18
531.431	38172.94
531.632	38297.87
531.833	38859.01
532.035	38461.71
532.236	38557.96
532.437	38478.09
532.638	38289.68
532.839	38691.08
533.04	38951.17
533.241	38353.16
533.442	39055.62
533.643	38707.46
533.844	38678.79
534.045	38848.77
534.246	38494.47
534.447	39137.54
534.648	38873.35
534.849	39137.54
535.05	38867.2
535.251	38852.87
535.451	39018.75
535.652	39112.96
535.853	39207.17
536.054	38918.4
536.255	39244.03
536.456	38717.7
536.657	39465.21
536.857	38809.86
537.058	38820.1
537.259	39143.68
537.46	39016.71
537.66	38844.68
537.861	38949.12
538.062	38891.78
538.263	39305.47
538.463	39176.45
538.664	38959.36
538.865	39151.87
539.065	39362.81
539.266	38740.23
539.466	39172.35
539.667	38734.09
539.868	39227.65
540.068	39129.34
540.269	39221.5
540.469	39405.82
540.67	38910.21
540.87	38877.44
541.071	39086.34
541.271	38873.35
541.472	38875.4
541.672	38793.48
541.873	38721.8
542.073	38832.39
542.274	39012.61
542.474	38725.89
542.675	38510.86
542.875	39147.78
543.075	38936.84
543.276	38027.54
543.476	38949.12
543.676	38736.13
543.877	39403.77
544.077	38816.01
544.277	38750.47
544.478	38781.19
544.678	39203.07
544.878	38738.18
545.078	38641.93
545.279	38756.61
545.479	38793.48
545.679	38922.5
545.879	38820.1
546.079	38949.12
546.28	38779.14
546.48	38793.48
546.68	38881.54
546.88	38842.63
547.08	38744.33
547.28	38508.81
547.48	38390.03
547.68	38605.06
547.88	38342.92
548.081	38840.58
548.281	38643.98
548.481	38979.84
548.681	39035.14
548.881	38668.55
549.081	38711.56
549.28	38543.63
549.48	38678.79
549.68	38471.95
549.88	38973.7
550.08	38517
550.28	38666.5
550.48	38533.39
550.68	38783.24
550.88	38433.03
551.08	38600.97
551.279	38498.57
551.479	38359.31
551.679	38773
551.879	38396.17
552.079	38621.45
552.278	38377.74
552.478	38375.69
552.678	38447.37
552.878	38420.75
553.077	38156.56
553.277	37990.67
553.477	38805.77
553.676	38179.09
553.876	38330.64
554.076	38476.04
554.275	38256.91
554.475	37699.86
554.674	38291.73
554.874	37970.19
555.074	38002.96
555.273	38158.61
555.473	38406.41
555.672	38101.26
555.872	38072.59
556.071	37744.92
556.271	37939.47
556.47	37849.36
556.67	37329.18
556.869	37601.56
557.068	37886.23
557.268	37880.08
557.467	37372.19
557.667	37744.92
557.866	37769.49
558.065	37757.21
558.265	37062.94
558.464	37183.77
558.663	37386.52
558.863	37253.4
559.062	37327.13
559.261	36944.16
559.461	37538.07
559.66	36729.12
559.859	36880.67
560.058	36817.19
560.258	37189.92
560.457	36765.99
560.656	36931.87
560.855	36888.87
561.054	36845.86
561.253	36587.82
561.453	36632.87
561.652	37056.8
561.851	36938.02
562.05	36335.91
562.249	36178.22
562.448	36747.56
562.647	36311.34
562.846	36622.63
563.045	36272.43
563.244	35969.33
563.443	36524.33
563.642	35678.52
563.841	35885.36
564.04	35746.1
564.239	36090.16
564.438	35504.44
564.637	35608.89
564.836	35744.05
565.035	35227.96
565.234	35825.97
565.432	35563.83
565.631	35191.1
565.83	35246.4
566.029	34982.21
566.228	35123.52
566.427	34918.72
566.625	34924.86
566.824	34795.84
567.023	35285.31
567.222	34251.08
567.42	35115.33
567.619	34982.21
567.818	34480.46
568.016	34347.34
568.215	34603.33
568.414	34566.47
568.612	34787.65
568.811	34074.96
569.01	34531.65
569.208	33599.83
569.407	34246.99
569.605	33679.7
569.804	34058.57
570.002	33495.38
570.201	33591.64
570.4	33524.05
570.598	33409.37
570.797	32893.28
570.995	33208.67
571.193	33022.3
571.392	33601.88
571.59	32876.9
571.789	33227.1
571.987	32788.83
572.186	32891.23
572.384	32538.98
572.582	32854.37
572.781	32815.46
572.979	32432.49
573.177	32547.17
573.376	32285.03
573.574	32227.69
573.772	32442.73
573.971	32070
574.169	32037.23
574.367	31736.18
574.565	31836.53
574.763	31736.18
574.962	31828.34
575.16	31252.86
575.358	32031.08
575.556	31418.74
575.754	31850.86
575.952	31222.14
576.151	31525.24
576.349	31048.06
576.547	30984.57
576.745	30974.33
576.943	30990.72
577.141	31007.1
577.339	30884.22
577.537	30865.79
577.735	30802.3
577.933	30361.99
578.131	30574.98
578.329	30529.92
578.527	30331.27
578.725	30280.07
578.923	30206.34
579.121	30153.1
579.319	30028.17
579.516	30083.47
579.714	29895.05
579.912	30101.9
580.11	29637.01
580.308	29731.22
580.506	29952.4
580.704	29305.24
580.901	29421.97
581.099	29800.85
581.297	29278.61
581.495	29192.6
581.692	29403.54
581.89	28938.65
582.088	29118.87
582.285	28529.06
582.483	28989.85
582.681	29157.78
582.878	28987.8
583.076	28588.45
583.274	28770.72
583.471	28397.99
583.669	28352.93
583.866	28248.49
584.064	28594.59
584.262	28381.6
584.459	27969.96
584.657	28361.12
584.854	28221.86
585.052	27605.42
585.249	27861.42
585.447	28062.12
585.644	27785.65
585.841	27886
586.039	27570.61
586.236	27380.15
586.434	27541.94
586.631	27132.34
586.828	27187.64
587.026	27525.55
587.223	27314.61
587.42	27253.17
587.618	27287.99
587.815	26673.6
588.012	26925.5
588.21	26741.18
588.407	27007.42
588.604	26855.87
588.801	26401.22
588.999	26606.02
589.196	26493.38
589.393	26569.15
589.59	26423.75
589.787	26241.48
589.984	26057.16
590.182	25737.68
590.379	26106.31
590.576	25846.22
590.773	25762.25
590.97	25891.27
591.167	25952.71
591.364	25534.93
591.561	25584.08
591.758	25280.98
591.955	25393.62
592.152	25766.35
592.349	25237.97
592.546	25313.75
592.743	25213.4
592.94	24865.24
593.137	24799.71
593.334	25356.75
593.531	24932.82
593.727	24844.76
593.924	25018.84
594.121	24467.94
594.318	24793.56
594.515	24197.6
594.712	24801.75
594.908	24412.64
595.105	24732.12
595.302	24138.21
595.499	24230.37
595.696	24213.99
595.892	24058.34
596.089	24238.56
596.286	24091.11
596.482	24011.24
596.679	23902.7
596.876	23644.65
597.072	23462.38
597.269	23261.68
597.466	23181.81
597.662	23484.91
597.859	23304.69
598.055	23155.19
598.252	23450.1
598.448	23136.76
598.645	22917.62
598.841	22981.11
599.038	23134.71
599.234	22772.22
599.431	22610.43
599.627	22575.61
599.824	22835.7
600.02	22446.59
600.217	22800.89
600.413	22473.21
600.609	22721.02
600.806	22055.43
601.002	22483.45
601.198	22252.03
601.395	22452.73
601.591	22338.05
601.787	21862.92
601.984	21697.03
602.18	22161.92
602.376	21625.36
602.572	21711.37
602.769	21631.5
602.965	21516.81
603.161	21469.71
603.357	21127.7
603.553	21326.35
603.75	21484.05
603.946	21006.87
604.142	21377.55
604.338	20877.85
604.534	21404.17
604.73	21031.44
604.926	20853.27
605.122	20883.99
605.318	20785.69
605.514	20822.55
605.71	20685.34
605.906	20683.29
606.102	20638.23
606.298	20505.12
606.494	20386.33
606.69	20572.7
606.886	20531.74
607.082	20333.09
607.278	20394.53
607.474	20183.59
607.67	20408.86
607.866	20097.57
608.062	20277.79
608.257	20109.86
608.453	20245.02
608.649	20095.52
608.845	19864.1
609.041	19880.49
609.236	20070.95
609.432	19952.16
609.628	19655.21
609.824	19722.79
610.019	19696.17
610.215	19808.81
610.411	19622.44
610.606	19468.84
610.802	19518
610.998	19417.65
611.193	19702.31
611.389	19321.39
611.584	19423.79
611.78	19235.38
611.976	19444.27
612.171	19329.58
612.367	19259.95
612.562	19077.68
612.758	18913.84
612.953	19155.51
613.149	19409.45
613.344	19038.77
613.539	19341.87
613.735	19018.29
613.93	19104.31
614.126	18657.85
614.321	19075.63
614.517	18774.58
614.712	18707
614.907	18842.17
615.103	18815.54
615.298	18573.88
615.493	18725.43
615.688	18580.03
615.884	18948.66
616.079	18606.65
616.274	18571.83
616.47	18573.88
616.665	18444.86
616.86	18393.66
617.055	18305.6
617.25	18276.93
617.445	18663.99
617.641	18203.2
617.836	18598.46
618.031	18115.14
618.226	18123.33
618.421	17842.76
618.616	18176.58
618.811	17687.11
619.006	17945.16
619.201	17603.14
619.396	18006.59
619.591	17705.54
619.786	17633.86
619.981	17361.48
620.176	17666.63
620.371	17400.4
620.566	17590.86
620.761	17453.64
620.956	17461.83
621.151	17033.81
621.346	17078.86
621.541	16693.85
621.735	16869.97
621.93	16761.43
622.125	16751.19
622.32	16583.26
622.515	16708.18
622.709	16403.04
622.904	16329.31
623.099	16140.9
623.294	16394.84
623.488	16194.14
623.683	16009.83
623.878	15878.76
624.072	16095.84
624.267	16038.5
624.462	15895.14
624.656	15626.85
624.851	15569.51
625.046	15364.71
625.24	15444.59
625.435	15346.28
625.629	15612.52
625.824	15258.22
626.018	15233.64
626.213	14822
626.407	15043.18
626.602	14770.8
626.796	14762.61
626.991	14830.2
627.185	14735.99
627.38	14428.79
627.574	14535.29
627.768	14443.13
627.963	14322.3
628.157	14107.26
628.352	14566.01
628.546	13845.12
628.74	14031.49
628.935	13773.44
629.129	13757.06
629.323	13830.79
629.517	13644.42
629.712	13730.44
629.906	13562.5
630.1	13243.02
630.294	13302.41
630.489	13490.82
630.683	13413
630.877	13226.64
631.071	13109.9
631.265	13148.81
631.459	12925.58
631.653	12952.21
631.848	12984.98
632.042	12804.75
632.236	12767.89
632.43	12649.11
632.624	12651.16
632.818	12550.81
633.012	12409.5
633.206	12343.96
633.4	12618.39
633.594	12280.47
633.788	12259.99
633.982	12186.27
634.176	12001.95
634.369	12063.39
634.563	11995.81
634.757	12085.92
634.951	12055.2
635.145	11780.77
635.339	11858.59
635.533	11647.65
635.726	11623.08
635.92	11375.27
636.114	11287.21
636.308	11516.58
636.501	11414.18
636.695	11328.17
636.889	11375.27
637.083	11252.39
637.276	11207.34
637.47	11045.55
637.664	11082.41
637.857	10967.73
638.051	10783.41
638.244	10850.99
638.438	10730.16
638.632	10846.9
638.825	10670.77
639.019	10588.85
639.212	10777.26
639.406	10717.87
639.599	10525.36
639.793	10597.04
639.986	10306.23
640.18	10242.75
640.373	10453.69
640.567	10140.35
640.76	10316.47
640.954	10050.24
641.147	10117.82
641.34	10007.23
641.534	10019.52
641.727	9976.51
641.92	9669.31
642.114	9716.42
642.307	9892.54
642.5	9857.73
642.694	9779.9
642.887	9581.25
643.08	9870.01
643.273	9460.42
643.467	9530.05
643.66	9261.77
643.853	9331.4
644.046	9272.01
644.239	9362.12
644.432	9149.13
644.626	9241.29
644.819	8956.62
645.012	9054.92
645.205	9018.06
645.398	8975.05
645.591	8841.93
645.784	8858.32
645.977	8909.52
646.17	8981.2
646.363	8714.96
646.556	8741.58
646.749	8682.19
646.942	8667.86
647.135	8444.63
647.328	8559.31
647.521	8311.51
647.714	8260.31
647.907	8405.72
648.099	8127.19
648.292	8440.53
648.485	8362.71
648.678	8284.89
648.871	8121.05
649.064	8133.34
649.256	8100.57
649.449	8022.75
649.642	8059.61
649.835	7955.16
650.027	7994.08
650.22	7844.57
650.413	7729.89
650.605	7881.44
650.798	7791.33
650.991	7520.99
651.183	7588.58
651.376	7635.68
651.568	7619.3
651.761	7506.66
651.954	7480.04
652.146	7551.71
652.339	7404.26
652.531	7498.47
652.724	7404.26
652.916	7125.74
653.109	7299.81
653.301	7351.01
653.494	7217.9
653.686	7047.91
653.879	7344.87
654.071	7172.84
654.263	6912.75
654.456	7172.84
654.648	7009
654.84	7006.95
655.033	6933.23
655.225	6757.1
655.417	6839.02
655.61	6716.14
655.802	6697.71
655.994	6769.39
656.186	6836.97
656.379	6793.97
656.571	6759.15
656.763	6687.47
656.955	6679.28
657.148	6720.24
657.34	6679.28
657.532	6476.53
657.724	6339.32
657.916	6494.96
658.108	6286.07
658.3	6372.08
658.492	6286.07
658.684	6236.92
658.876	6138.62
659.068	5991.16
659.26	6155
659.452	6060.79
659.644	6128.38
659.836	6144.76
660.028	6081.27
660.22	6116.09
660.412	5999.35
660.604	5954.3
660.796	6019.83
660.988	5876.48
661.18	5860.09
661.372	5845.76
661.563	5966.59
661.755	5817.08
661.947	5720.83
662.139	5720.83
662.331	5696.25
662.522	5694.21
662.714	5554.94
662.906	5565.18
663.097	5597.95
663.289	5634.82
663.481	5636.86
663.673	5561.09
663.864	5442.31
664.056	5362.44
664.247	5452.55
664.439	5270.28
664.631	5294.85
664.822	5296.9
665.014	5270.28
665.205	5239.56
665.397	5280.52
665.588	5094.15
665.78	5257.99
665.971	5219.08
666.163	5120.78
666.354	5317.38
666.546	5067.53
666.737	5128.97
666.929	4946.7
667.12	5163.78
667.311	4856.59
667.503	5030.66
667.694	5061.38
667.885	4971.27
668.077	5012.23
668.268	4881.16
668.459	4866.83
668.651	5110.54
668.842	4858.64
669.033	4901.64
669.224	4832.01
669.416	4791.05
669.607	4854.54
669.798	4653.84
669.989	4645.65
670.18	4705.04
670.371	4608.78
670.563	4631.31
670.754	4791.05
670.945	4502.29
671.136	4639.5
671.327	4664.08
671.518	4426.51
671.709	4563.73
671.9	4676.37
672.091	4569.87
672.282	4459.28
672.473	4399.89
672.664	4473.62
672.855	4401.94
673.046	4463.38
673.237	4403.99
673.428	4377.36
673.619	4469.52
673.809	4217.62
674	4332.31
674.191	4455.19
674.382	4242.2
674.573	4320.02
674.764	4295.44
674.954	4264.72
675.145	4199.19
675.336	4365.07
675.527	4240.15
675.717	4303.64
675.908	4205.33
676.099	4201.24
676.289	4285.2
676.48	4213.53
676.671	4012.82
676.861	4256.53
677.052	4193.05
677.243	4111.13
677.433	4096.79
677.624	4150.04
677.814	4121.37
678.005	4238.1
678.195	3957.53
678.386	4131.61
678.576	4000.54
678.767	4014.87
678.957	3971.86
679.148	4031.26
679.338	4008.73
679.529	3975.96
679.719	3949.34
679.909	4174.61
680.1	4006.68
680.29	4090.65
680.481	3920.67
680.671	3961.62
680.861	4041.5
681.052	3949.34
681.242	3865.37
681.432	3887.9
681.622	3818.27
681.813	3945.24
682.003	3836.7
682.193	3894.04
682.383	3867.42
682.573	3799.84
682.764	3801.88
682.954	3875.61
683.144	3910.43
683.334	3820.32
683.524	3758.88
683.714	3836.7
683.904	3746.59
684.094	3834.65
684.284	3697.44
684.474	3767.07
684.664	3717.92
684.854	3777.31
685.044	3722.01
685.234	3595.04
685.424	3752.73
685.614	3705.63
685.804	3597.09
685.994	3578.65
686.184	3627.81
686.374	3683.1
686.564	3576.61
686.753	3642.14
686.943	3705.63
687.133	3482.4
687.323	3640.09
687.513	3644.19
687.702	3427.11
687.892	3603.23
688.082	3423.01
688.272	3439.39
688.461	3541.79
688.651	3496.74
688.841	3390.24
689.03	3377.95
689.22	3443.49
689.41	3416.87
689.599	3416.87
689.789	3425.06
689.979	3392.29
690.168	3380
690.358	3328.8
690.547	3250.98
690.737	3336.99
690.926	3296.04
691.116	3404.58
691.305	3322.66
691.495	3269.41
691.684	3179.3
691.874	3234.6
692.063	3275.56
692.252	3201.83
692.442	3287.84
692.631	3171.11
692.82	3126.05
693.01	3052.33
693.199	3162.92
693.388	3093.29
693.578	3003.18
693.767	3167.01
693.956	2997.03
694.146	3027.75
694.335	3105.57
694.524	2974.5
694.713	2958.12
694.902	2941.74
695.092	2974.5
695.281	2966.31
695.47	3011.37
695.659	2945.83
695.848	3015.46
696.037	2863.91
696.226	3017.51
696.415	2917.16
696.604	2943.78
696.793	2956.07
696.982	2972.46
697.171	2794.28
697.36	2896.68
697.549	2849.58
697.738	2820.91
697.927	2890.54
698.116	2849.58
698.305	2806.57
698.494	2886.44
698.683	2755.37
698.872	2911.02
699.061	2898.73
699.25	2767.66
699.438	2698.03
699.627	2861.87
699.816	2937.64
700.005	2763.56
700.193	2681.64
700.382	2898.73
700.571	2790.19
700.76	2964.26
700.948	2777.9
701.137	2755.37
701.326	2802.47
701.514	2816.81
701.703	2837.29
701.892	2683.69
702.08	2792.23
702.269	2790.19
702.457	2704.17
702.646	2798.38
702.834	2763.56
703.023	2700.08
703.212	2798.38
703.4	2808.62
703.589	2738.99
703.777	2859.82
703.965	2749.23
704.154	2726.7
704.342	2794.28
704.531	2755.37
704.719	2726.7
704.907	2761.52
705.096	2808.62
705.284	2702.12
705.472	2747.18
705.661	2718.51
705.849	2634.54
706.037	2706.22
706.226	2638.64
706.414	2695.98
706.602	2585.39
706.79	2644.78
706.979	2773.8
707.167	2700.08
707.355	2767.66
707.543	2724.65
707.731	2693.93
707.919	2724.65
708.107	2622.25
708.296	2712.36
708.484	2702.12
708.672	2820.91
708.86	2689.84
709.048	2579.25
709.236	2812.71
709.424	2712.36
709.612	2706.22
709.8	2685.74
709.988	2628.4
710.176	2757.42
710.364	2691.88
710.551	2722.6
710.739	2587.44
710.927	2532.14
711.115	2622.25
711.303	2704.17
711.491	2724.65
711.679	2673.45
711.866	2673.45
712.054	2607.92
712.242	2779.95
712.43	2612.01
712.617	2564.91
712.805	2526
712.993	2607.92
713.181	2634.54
713.368	2728.75
713.556	2679.6
713.744	2710.32
713.931	2677.55
714.119	2663.21
714.306	2646.83
714.494	2622.25
714.682	2687.79
714.869	2599.73
715.057	2648.88
715.244	2657.07
715.432	2755.37
715.619	2562.86
715.807	2804.52
715.994	2677.55
716.182	2526
716.369	2573.1
716.556	2677.55
716.744	2569.01
716.931	2698.03
717.119	2808.62
717.306	2675.5
717.493	2577.2
717.681	2638.64
717.868	2630.45
718.055	2710.32
718.242	2640.69
718.43	2618.16
718.617	2573.1
718.804	2616.11
718.991	2677.55
719.179	2622.25
719.366	2671.4
719.553	2585.39
719.74	2695.98
719.927	2603.82
720.114	2560.81
720.301	2691.88
720.488	2564.91
720.676	2616.11
720.863	2605.87
721.05	2616.11
721.237	2573.1
721.424	2673.45
721.611	2554.67
721.798	2628.4
721.985	2657.07
722.172	2597.68
722.358	2618.16
722.545	2673.45
722.732	2603.82
722.919	2646.83
723.106	2597.68
723.293	2644.78
723.48	2650.92
723.667	2595.63
723.853	2558.77
724.04	2749.23
724.227	2630.45
724.414	2614.06
724.6	2618.16
724.787	2618.16
724.974	2554.67
725.161	2624.3
725.347	2558.77
725.534	2552.62
725.72	2636.59
725.907	2769.71
726.094	2634.54
726.28	2646.83
726.467	2673.45
726.653	2628.4
726.84	2773.8
727.027	2685.74
727.213	2591.53
727.4	2677.55
727.586	2689.84
727.773	2706.22
727.959	2478.9
728.145	2646.83
728.332	2538.29
728.518	2642.73
728.705	2788.14
728.891	2652.97
729.077	2556.72
729.264	2698.03
729.45	2526
729.636	2620.21
729.823	2693.93
730.009	2624.3
730.195	2616.11
730.382	2695.98
730.568	2495.28
730.754	2669.36
730.94	2671.4
731.126	2716.46
731.313	2704.17
731.499	2738.99
731.685	2575.15
731.871	2655.02
732.057	2691.88
732.243	2599.73
732.429	2734.89
732.615	2601.77
732.801	2614.06
732.987	2624.3
733.173	2712.36
733.359	2648.88
733.545	2747.18
733.731	2722.6
733.917	2806.57
734.103	2632.49
734.289	2663.21
734.475	2583.34
734.661	2566.96
734.847	2759.47
735.033	2798.38
735.219	2579.25
735.404	2677.55
735.59	2593.58
735.776	2595.63
735.962	2638.64
736.148	2659.12
736.333	2667.31
736.519	2511.66
736.705	2724.65
736.89	2671.4
737.076	2579.25
737.262	2552.62
737.447	2591.53
737.633	2532.14
737.819	2718.51
738.004	2573.1
738.19	2663.21
738.375	2573.1
738.561	2628.4
738.747	2634.54
738.932	2583.34
739.118	2640.69
739.303	2720.56
739.489	2493.23
739.674	2695.98
739.859	2511.66
740.045	2562.86
740.23	2663.21
740.416	2493.23
740.601	2517.81
740.786	2523.95
740.972	2505.52
741.157	2517.81
741.342	2505.52
741.528	2462.51
741.713	2558.77
741.898	2446.13
742.084	2507.57
742.269	2405.17
742.454	2507.57
742.639	2458.42
742.824	2429.74
743.01	2456.37
743.195	2480.94
743.38	2530.09
743.565	2343.73
743.75	2409.26
743.935	2480.94
744.12	2521.9
744.305	2437.94
744.49	2380.59
744.675	2401.07
744.86	2290.48
745.045	2409.26
745.23	2335.54
745.415	2382.64
745.6	2399.02
745.785	2206.52
745.97	2325.3
746.155	2261.81
746.34	2198.32
746.525	2310.96
746.71	2386.74
746.895	2222.9
747.079	2358.07
747.264	2147.12
747.449	2327.35
747.634	2204.47
747.819	2284.34
748.003	2181.94
748.188	2210.61
748.373	2157.36
748.557	2196.28
748.742	2190.13
748.927	2120.5
749.111	2186.04
749.296	2169.65
749.481	2106.17
749.665	1977.14
749.85	2046.77
750.034	2200.37
750.219	1993.53
750.404	1960.76
750.588	2001.72
750.773	1971
750.957	2024.25
751.141	1905.46
751.326	2040.63
751.51	1942.33
751.695	2030.39
751.879	1958.71
752.064	1977.14
752.248	1872.7
752.432	2009.91
752.617	1874.74
752.801	1944.38
752.985	1932.09
753.17	1819.45
753.354	1813.31
753.538	1899.32
753.722	1788.73
753.907	1811.26
754.091	1776.44
754.275	1733.43
754.459	1725.24
754.643	1733.43
754.828	1653.56
755.012	1747.77
755.196	1694.52
755.38	1723.2
755.564	1643.32
755.748	1633.08
755.932	1659.71
756.116	1637.18
756.3	1696.57
756.484	1649.47
756.668	1559.36
756.852	1573.69
757.036	1602.36
757.22	1708.86
757.404	1590.08
757.588	1651.52
757.772	1645.37
757.956	1565.5
758.14	1452.86
758.323	1563.45
758.507	1538.88
758.691	1506.11
758.875	1565.5
759.059	1594.17
759.242	1456.96
759.426	1432.38
759.61	1473.34
759.794	1393.47
759.977	1504.06
760.161	1542.97
760.345	1375.04
760.528	1467.2
760.712	1491.77
760.895	1311.55
761.079	1329.99
761.263	1461.06
761.446	1276.74
761.63	1360.7
761.813	1395.52
761.997	1340.22
762.18	1356.61
762.364	1295.17
762.547	1362.75
762.731	1379.14
762.914	1379.14
763.098	1444.67
763.281	1358.66
763.464	1332.03
763.648	1282.88
763.831	1246.02
764.015	1178.44
764.198	1293.12
764.381	1227.59
764.564	1289.03
764.748	1225.54
764.931	1317.7
765.114	1237.83
765.297	1268.55
765.481	1209.15
765.664	1276.74
765.847	1133.38
766.03	1243.97
766.213	1155.91
766.397	1182.53
766.58	1188.68
766.763	1114.95
766.946	1100.61
767.129	1252.16
767.312	1125.19
767.495	1176.39
767.678	1200.96
767.861	1121.09
768.044	1164.1
768.227	1203.01
768.41	1186.63
768.593	1106.76
768.776	1057.61
768.959	1102.66
769.142	1119.04
769.324	1094.47
769.507	1162.05
769.69	1145.67
769.873	1084.23
770.056	1080.13
770.239	1020.74
770.421	1094.47
770.604	1098.56
770.787	998.21
770.97	1078.08
771.152	1061.7
771.335	1088.32
771.518	996.17
771.7	992.07
771.883	1024.84
772.066	1002.31
772.248	967.49
772.431	1022.79
772.613	990.02
772.796	1010.5
772.978	1018.69
773.161	951.11
773.343	1004.36
773.526	990.02
773.708	961.35
773.891	957.25
774.073	971.59
774.256	955.21
774.438	895.82
774.621	879.43
774.803	885.58
774.985	887.62
775.168	961.35
775.35	850.76
775.532	881.48
775.715	861
775.897	830.28
776.079	846.66
776.261	887.62
776.444	897.86
776.626	922.44
776.808	803.66
776.99	879.43
777.173	875.34
777.355	797.51
777.537	815.94
777.719	785.23
777.901	850.76
778.083	797.51
778.265	736.07
778.447	799.56
778.629	774.99
778.811	813.9
778.993	781.13
779.175	772.94
779.357	744.27
779.539	719.69
779.721	746.31
779.903	746.31
780.085	723.79
780.267	748.36
780.449	686.92
780.631	809.8
780.812	725.83
780.994	650.06
781.176	656.2
781.358	678.73
781.54	731.98
781.721	760.65
781.903	711.5
782.085	590.67
782.267	662.35
782.448	596.81
782.63	615.24
782.812	654.16
782.993	607.05
783.175	701.26
783.357	605
783.538	680.78
783.72	639.82
783.901	578.38
784.083	660.3
784.264	578.38
784.446	619.34
784.627	529.23
784.809	660.3
784.99	549.71
785.172	574.28
785.353	592.72
785.535	586.57
785.716	518.99
785.897	453.45
786.079	553.8
786.26	559.95
786.441	592.72
786.623	537.42
786.804	478.03
786.985	607.05
787.167	553.8
787.348	525.13
787.529	518.99
787.71	467.79
787.891	551.76
788.073	457.55
788.254	502.61
788.435	439.12
788.616	439.12
788.797	525.13
788.978	502.61
789.159	486.22
789.34	432.97
789.522	475.98
789.703	445.26
789.884	504.65
790.065	392.02
790.246	496.46
790.427	449.36
790.607	500.56
790.788	471.89
790.969	351.06
791.15	443.21
791.331	484.17
791.512	426.83
791.693	402.26
791.874	512.85
792.054	451.41
792.235	424.78
792.416	457.55
792.597	385.87
792.778	465.74
792.958	416.59
793.139	457.55
793.32	437.07
793.5	381.78
793.681	435.02
793.862	412.5
794.042	385.87
794.223	398.16
794.404	363.34
794.584	379.73
794.765	453.45
794.945	387.92
795.126	422.73
795.306	328.53
795.487	385.87
795.667	363.34
795.848	322.38
796.028	387.92
796.209	353.1
796.389	285.52
796.57	338.77
796.75	277.33
796.93	265.04
797.111	351.06
797.291	353.1
797.471	373.58
797.652	396.11
797.832	353.1
798.012	400.21
798.192	285.52
798.373	273.23
798.553	404.3
798.733	326.48
798.913	291.66
799.093	338.77
799.274	299.86
799.454	404.3
799.634	355.15
799.814	230.23
799.994	279.38
800.174	281.43
800.354	369.49
800.534	219.99
800.714	291.66
800.894	285.52
801.074	289.62
801.254	277.33
801.434	340.82
801.614	297.81
801.794	240.47
801.974	686.92
802.154	344.91
802.334	349.01
802.514	289.62
802.693	236.37
802.873	207.7
803.053	289.62
803.233	260.95
803.413	271.19
803.592	199.51
803.772	193.36
803.952	306
804.131	293.71
804.311	219.99
804.491	254.8
804.67	244.56
804.85	324.43
805.03	226.13
805.209	289.62
805.389	277.33
805.568	189.27
805.748	308.05
805.928	328.53
806.107	273.23
806.287	213.84
806.466	262.99
806.646	306
806.825	209.75
807.004	267.09
807.184	205.65
807.363	275.28
807.543	228.18
807.722	166.74
807.901	338.77
808.081	236.37
808.26	197.46
808.439	256.85
808.619	277.33
808.798	269.14
808.977	170.83
809.156	240.47
809.336	217.94
809.515	246.61
809.694	164.69
809.873	232.27
810.052	254.8
810.231	271.19
810.411	140.12
810.59	187.22
810.769	293.71
810.948	187.22
811.127	185.17
811.306	232.27
811.485	181.07
811.664	179.03
811.843	222.03
812.022	246.61
812.201	179.03
812.38	164.69
812.559	154.45
812.737	181.07
812.916	197.46
813.095	193.36
813.274	232.27
813.453	224.08
813.632	187.22
813.811	232.27
813.989	174.93
814.168	185.17
814.347	164.69
814.526	207.7
814.704	248.66
814.883	197.46
815.062	127.83
815.24	189.27
815.419	174.93
815.598	232.27
815.776	179.03
815.955	168.79
816.133	140.12
816.312	232.27
816.49	197.46
816.669	201.55
816.847	146.26
817.026	158.55
817.204	244.56
817.383	213.84
817.561	105.3
817.74	119.64
817.918	146.26
818.097	133.97
818.275	166.74
818.453	187.22
818.632	95.06
818.81	156.5
818.988	193.36
819.167	119.64
819.345	170.83
819.523	176.98
819.701	168.79
819.879	125.78
820.058	203.6
820.236	158.55
820.414	138.07
820.592	189.27
820.77	150.36
820.948	179.03
821.127	103.25
821.305	211.79
821.483	64.34
821.661	234.32
821.839	93.01
822.017	154.45
822.195	168.79
822.373	166.74
822.551	201.55
822.729	205.65
822.907	158.55
823.085	142.16
823.262	213.84
823.44	158.55
823.618	136.02
823.796	127.83
823.974	174.93
824.152	115.54
824.329	56.15
824.507	150.36
824.685	152.4
824.863	105.3
825.04	133.97
825.218	179.03
825.396	123.73
825.574	152.4
825.751	125.78
825.929	201.55
826.107	111.44
826.284	199.51
826.462	117.59
826.639	158.55
826.817	125.78
826.994	68.44
827.172	203.6
827.349	140.12
827.527	142.16
827.704	82.77
827.882	93.01
828.059	146.26
828.237	138.07
828.414	144.21
828.591	82.77
828.769	197.46
828.946	150.36
829.124	146.26
829.301	176.98
829.478	176.98
829.655	142.16
829.833	76.63
830.01	119.64
830.187	103.25
830.364	76.63
830.542	78.68
830.719	99.16
830.896	78.68
831.073	113.49
831.25	84.82
831.427	97.11
831.604	115.54
831.782	93.01
831.959	125.78
832.136	105.3
832.313	93.01
832.49	101.2
832.667	15.19
832.844	162.64
833.021	179.03
833.198	90.96
833.374	93.01
833.551	117.59
833.728	72.53
833.905	76.63
834.082	70.48
834.259	68.44
834.436	109.4
834.612	129.88
834.789	86.87
834.966	47.96
835.143	88.92
835.319	127.83
835.496	142.16
835.673	125.78
835.85	80.72
836.026	129.88
836.203	47.96
836.38	99.16
836.556	33.62
836.733	82.77
836.909	47.96
837.086	150.36
837.262	70.48
837.439	99.16
837.616	101.2
837.792	136.02
837.968	115.54
838.145	99.16
838.321	19.29
838.498	105.3
838.674	152.4
838.851	125.78
839.027	74.58
839.203	78.68
839.38	35.67
839.556	64.34
839.732	93.01
839.909	21.33
840.085	150.36
840.261	-21.67
840.437	80.72
840.614	88.92
840.79	131.92
840.966	66.39
841.142	78.68
841.318	86.87
841.494	80.72
841.671	45.91
841.847	50
842.023	7
842.199	54.1
842.375	52.05
842.551	127.83
842.727	80.72
842.903	93.01
843.079	56.15
843.255	82.77
843.431	125.78
843.607	107.35
843.783	47.96
843.959	109.4
844.134	-19.63
844.31	37.72
844.486	107.35
844.662	37.72
844.838	35.67
845.013	93.01
845.189	125.78
845.365	52.05
845.541	66.39
845.716	17.24
845.892	17.24
846.068	70.48
846.244	62.29
846.419	103.25
846.595	35.67
846.77	84.82
846.946	62.29
847.122	56.15
847.297	23.38
847.473	181.07
847.648	19.29
847.824	78.68
847.999	-27.82
848.175	80.72
848.35	56.15
848.526	101.2
848.701	109.4
848.876	82.77
849.052	70.48
849.227	11.09
849.403	39.76
849.578	111.44
849.753	56.15
849.929	23.38
850.104	80.72
850.279	101.2
850.454	187.22
850.63	103.25
850.805	23.38
850.98	-1.19
851.155	58.2
851.33	72.53
851.505	27.48
851.681	47.96
851.856	74.58
852.031	47.96
852.206	88.92
852.381	60.24
852.556	27.48
852.731	-38.06
852.906	31.57
853.081	93.01
853.256	80.72
853.431	13.14
853.606	35.67
853.781	13.14
853.956	-52.39
854.131	119.64
854.305	21.33
854.48	58.2
854.655	31.57
854.83	-13.48
855.005	62.29
855.18	117.59
855.354	58.2
855.529	78.68
855.704	37.72
855.879	54.1
856.053	-1.19
856.228	52.05
856.403	-21.67
856.577	-7.34
856.752	52.05
856.926	90.96
857.101	93.01
857.276	25.43
857.45	107.35
857.625	43.86
857.799	19.29
857.974	27.48
858.148	95.06
858.323	52.05
858.497	45.91
858.672	23.38
858.846	-50.35
859.02	52.05
859.195	37.72
859.369	117.59
859.543	64.34
859.718	-40.11
859.892	90.96
860.066	78.68
860.241	103.25
860.415	-9.39
860.589	-1.19
860.763	-7.34
860.938	-15.53
861.112	150.36
861.286	50
861.46	68.44
861.634	-25.77
861.808	74.58
861.982	-1.19
862.157	54.1
862.331	39.76
862.505	33.62
862.679	-50.35
862.853	4.95
863.027	31.57
863.201	88.92
863.375	93.01
863.549	-1.19
863.722	19.29
863.896	0.85
864.07	19.29
864.244	82.77
864.418	52.05
864.592	9.05
864.766	13.14
864.939	21.33
865.113	25.43
865.287	43.86
865.461	-11.43
865.634	99.16
865.808	86.87
865.982	11.09
866.156	2.9
866.329	58.2
866.503	54.1
866.676	50
866.85	-17.58
867.024	35.67
867.197	15.19
867.371	-9.39
867.544	4.95
867.718	27.48
867.891	54.1
868.065	-1.19
868.238	72.53
868.412	-3.24
868.585	-23.72
868.759	9.05
868.932	70.48
869.105	60.24
869.279	13.14
869.452	39.76
869.625	31.57
869.799	37.72
869.972	41.81
870.145	21.33
870.319	37.72
870.492	-7.34
870.665	-21.67
870.838	45.91
871.011	29.52
871.185	13.14
871.358	15.19
871.531	76.63
871.704	-17.58
871.877	29.52
872.05	70.48
872.223	62.29
872.396	84.82
872.569	97.11
872.742	23.38
872.915	72.53
873.088	11.09
873.261	21.33
873.434	43.86
873.607	-9.39
873.78	7
873.953	-9.39
874.126	80.72
874.299	64.34
874.471	50
874.644	54.1
874.817	35.67
874.99	-40.11
875.163	58.2
875.335	31.57
875.508	31.57
875.681	70.48
875.853	56.15
876.026	52.05
876.199	29.52
876.371	60.24
876.544	-13.48
876.717	60.24
876.889	-40.11
877.062	-3.24
877.234	-54.44
877.407	60.24
877.579	4.95
877.752	74.58
877.924	29.52
878.097	21.33
878.269	33.62
878.442	17.24
878.614	47.96
878.786	11.09
878.959	9.05
879.131	-13.48
879.303	50
879.476	86.87
879.648	56.15
879.82	29.52
879.993	-21.67
880.165	33.62
880.337	11.09
880.509	47.96
880.681	-113.83
880.854	-11.43
881.026	50
881.198	29.52
881.37	13.14
881.542	-11.43
881.714	27.48
881.886	54.1
882.058	101.2
882.23	109.4
882.402	58.2
882.574	-21.67
882.746	13.14
882.918	109.4
883.09	-19.63
883.262	-1.19
883.434	4.95
883.606	-42.15
883.778	-15.53
883.95	27.48
884.122	33.62
884.293	66.39
884.465	-19.63
884.637	9.05
884.809	37.72
884.98	27.48
885.152	9.05
885.324	-27.82
885.496	21.33
885.667	-27.82
885.839	76.63
886.011	56.15
886.182	21.33
886.354	23.38
886.525	39.76
886.697	-5.29
886.869	93.01
887.04	29.52
887.212	-68.78
887.383	47.96
887.555	58.2
887.726	-27.82
887.897	60.24
888.069	27.48
888.24	9.05
888.412	123.73
888.583	15.19
888.754	-15.53
888.926	-38.06
889.097	23.38
889.268	37.72
889.44	60.24
889.611	-50.35
889.782	31.57
889.953	21.33
890.125	-13.48
890.296	60.24
890.467	-11.43
890.638	21.33
890.809	33.62
890.98	21.33
891.151	-1.19
891.323	13.14
891.494	68.44
891.665	23.38
891.836	-25.77
892.007	97.11
892.178	4.95
892.349	-36.01
892.52	-50.35
892.691	68.44
892.862	17.24
893.032	29.52
893.203	9.05
893.374	27.48
893.545	74.58
893.716	54.1
893.887	-15.53
894.057	-11.43
894.228	109.4
894.399	52.05
894.57	68.44
894.74	-29.87
894.911	64.34
895.082	-46.25
895.253	29.52
895.423	4.95
895.594	0.85
895.764	37.72
895.935	23.38
896.106	90.96
896.276	50
896.447	-13.48
896.617	39.76
896.788	2.9
896.958	72.53
897.129	11.09
897.299	-38.06
897.47	25.43
897.64	-46.25
897.81	62.29
897.981	-13.48
898.151	-60.59
898.322	15.19
898.492	17.24
898.662	58.2
898.832	-7.34
899.003	31.57
899.173	23.38
899.343	-3.24
899.513	-79.02
