Data from USB4F104151__42__11-45-04-391.txt Node

Date: Fri Mar 14 11:45:04 EDT 2025
User: louis
Spectrometer: USB4F10415
Trigger mode: 4
Integration Time (sec): 2.000000E-2
Scans to average: 1
Electric dark correction enabled: true
Nonlinearity correction enabled: false
Boxcar width: 0
XAxis mode: Wavelengths
Number of Pixels in Spectrum: 3648
>>>>>Begin Spectral Data<<<<<
178.204	-120.15
178.424	-120.15
178.644	-120.15
178.864	-128.34
179.084	-171.35
179.304	15.02
179.524	27.31
179.744	-21.84
179.964	23.21
180.184	58.03
180.404	-5.46
180.624	-7.51
180.844	-44.37
181.064	-52.56
181.283	-7.51
181.503	-15.7
181.723	31.4
181.943	-27.99
182.163	31.4
182.383	90.79
182.602	21.16
182.822	45.74
183.042	43.69
183.262	55.98
183.482	60.07
183.701	-32.08
183.921	-17.75
184.141	-19.8
184.361	68.27
184.58	-21.84
184.8	4.78
185.02	-21.84
185.239	55.98
185.459	-19.8
185.679	6.83
185.898	-17.75
186.118	86.7
186.338	41.64
186.557	-64.85
186.777	-36.18
186.997	-13.65
187.216	66.22
187.436	23.21
187.655	66.22
187.875	27.31
188.095	94.89
188.314	-40.28
188.534	29.35
188.753	51.88
188.973	-11.61
189.192	64.17
189.412	-15.7
189.631	12.97
189.851	25.26
190.07	121.51
190.29	-89.43
190.509	74.41
190.729	21.16
190.948	31.4
191.168	141.99
191.387	49.83
191.607	111.27
191.826	37.55
192.045	-17.75
192.265	51.88
192.484	17.07
192.704	96.94
192.923	58.03
193.142	90.79
193.362	-17.75
193.581	60.07
193.8	121.51
194.02	-40.28
194.239	31.4
194.458	74.41
194.678	19.11
194.897	-9.56
195.116	-46.42
195.335	-60.76
195.555	-23.89
195.774	-32.08
195.993	19.11
196.212	0.68
196.432	72.36
196.651	-32.08
196.87	39.59
197.089	92.84
197.308	21.16
197.528	-11.61
197.747	23.21
197.966	-5.46
198.185	6.83
198.404	6.83
198.623	-5.46
198.842	41.64
199.062	37.55
199.281	88.75
199.5	27.31
199.719	37.55
199.938	6.83
200.157	29.35
200.376	-40.28
200.595	15.02
200.814	29.35
201.033	-9.56
201.252	51.88
201.471	68.27
201.69	37.55
201.909	0.68
202.128	27.31
202.347	72.36
202.566	80.55
202.785	43.69
203.004	-30.04
203.223	111.27
203.442	43.69
203.661	-19.8
203.879	-7.51
204.098	94.89
204.317	37.55
204.536	-3.41
204.755	-46.42
204.974	82.6
205.193	37.55
205.411	78.51
205.63	37.55
205.849	-1.37
206.068	58.03
206.287	47.79
206.505	23.21
206.724	-5.46
206.943	-3.41
207.162	80.55
207.381	98.99
207.599	53.93
207.818	25.26
208.037	45.74
208.255	-73.04
208.474	62.12
208.693	88.75
208.911	76.46
209.13	-50.52
209.349	55.98
209.567	41.64
209.786	31.4
210.005	37.55
210.223	90.79
210.442	-32.08
210.661	6.83
210.879	98.99
211.098	4.78
211.316	-40.28
211.535	49.83
211.753	23.21
211.972	53.93
212.191	2.73
212.409	72.36
212.628	-52.56
212.846	121.51
213.065	21.16
213.283	0.68
213.502	62.12
213.72	101.03
213.938	47.79
214.157	35.5
214.375	0.68
214.594	37.55
214.812	47.79
215.031	29.35
215.249	-5.46
215.467	23.21
215.686	88.75
215.904	60.07
216.122	-48.47
216.341	47.79
216.559	-44.37
216.778	98.99
216.996	-7.51
217.214	-3.41
217.432	15.02
217.651	21.16
217.869	21.16
218.087	66.22
218.306	-1.37
218.524	12.97
218.742	31.4
218.96	29.35
219.179	-7.51
219.397	35.5
219.615	135.85
219.833	12.97
220.051	0.68
220.27	-34.13
220.488	33.45
220.706	-30.04
220.924	68.27
221.142	-13.65
221.36	19.11
221.578	66.22
221.796	68.27
222.015	-21.84
222.233	64.17
222.451	-15.7
222.669	-15.7
222.887	10.92
223.105	41.64
223.323	4.78
223.541	29.35
223.759	82.6
223.977	29.35
224.195	31.4
224.413	70.31
224.631	19.11
224.849	111.27
225.067	62.12
225.285	17.07
225.503	51.88
225.721	6.83
225.939	35.5
226.157	-19.8
226.375	121.51
226.592	-56.66
226.81	53.93
227.028	17.07
227.246	72.36
227.464	60.07
227.682	53.93
227.9	2.73
228.117	64.17
228.335	-21.84
228.553	66.22
228.771	29.35
228.989	41.64
229.206	-17.75
229.424	66.22
229.642	-46.42
229.86	58.03
230.077	8.87
230.295	27.31
230.513	-1.37
230.731	27.31
230.948	35.5
231.166	17.07
231.384	19.11
231.601	8.87
231.819	17.07
232.037	17.07
232.254	49.83
232.472	39.59
232.689	2.73
232.907	119.46
233.125	-34.13
233.342	15.02
233.56	31.4
233.777	66.22
233.995	2.73
234.213	53.93
234.43	58.03
234.648	51.88
234.865	37.55
235.083	53.93
235.3	2.73
235.518	43.69
235.735	19.11
235.953	62.12
236.17	8.87
236.388	-13.65
236.605	29.35
236.822	66.22
237.04	17.07
237.257	35.5
237.475	-36.18
237.692	66.22
237.909	-1.37
238.127	17.07
238.344	31.4
238.562	82.6
238.779	6.83
238.996	27.31
239.214	37.55
239.431	98.99
239.648	-9.56
239.865	82.6
240.083	62.12
240.3	-13.65
240.517	55.98
240.735	43.69
240.952	27.31
241.169	33.45
241.386	84.65
241.603	-21.84
241.821	17.07
242.038	23.21
242.255	29.35
242.472	25.26
242.689	58.03
242.907	72.36
243.124	25.26
243.341	-27.99
243.558	60.07
243.775	2.73
243.992	-19.8
244.209	29.35
244.426	58.03
244.643	25.26
244.86	17.07
245.078	68.27
245.295	15.02
245.512	60.07
245.729	49.83
245.946	92.84
246.163	47.79
246.38	58.03
246.597	-32.08
246.814	74.41
247.031	144.04
247.248	37.55
247.464	-42.32
247.681	17.07
247.898	62.12
248.115	58.03
248.332	-40.28
248.549	31.4
248.766	72.36
248.983	29.35
249.2	-30.04
249.417	31.4
249.633	-15.7
249.85	92.84
250.067	-1.37
250.284	-36.18
250.501	19.11
250.717	47.79
250.934	101.03
251.151	6.83
251.368	-89.43
251.585	12.97
251.801	37.55
252.018	0.68
252.235	-60.76
252.451	0.68
252.668	-9.56
252.885	21.16
253.102	45.74
253.318	2.73
253.535	-48.47
253.752	-7.51
253.968	25.26
254.185	12.97
254.401	-7.51
254.618	-64.85
254.835	98.99
255.051	17.07
255.268	86.7
255.484	6.83
255.701	80.55
255.917	12.97
256.134	55.98
256.351	66.22
256.567	43.69
256.784	-9.56
257	27.31
257.217	23.21
257.433	-23.89
257.65	49.83
257.866	17.07
258.082	-62.8
258.299	29.35
258.515	0.68
258.732	15.02
258.948	45.74
259.165	41.64
259.381	29.35
259.597	72.36
259.814	8.87
260.03	29.35
260.246	-19.8
260.463	23.21
260.679	37.55
260.895	17.07
261.112	21.16
261.328	-44.37
261.544	31.4
261.761	125.61
261.977	60.07
262.193	15.02
262.409	35.5
262.626	15.02
262.842	49.83
263.058	6.83
263.274	62.12
263.49	58.03
263.707	82.6
263.923	-15.7
264.139	-13.65
264.355	86.7
264.571	60.07
264.787	70.31
265.004	55.98
265.22	25.26
265.436	0.68
265.652	4.78
265.868	66.22
266.084	80.55
266.3	29.35
266.516	-48.47
266.732	39.59
266.948	90.79
267.164	49.83
267.38	23.21
267.596	55.98
267.812	78.51
268.028	45.74
268.244	-30.04
268.46	-1.37
268.676	-9.56
268.892	17.07
269.108	0.68
269.324	86.7
269.54	-34.13
269.756	64.17
269.972	45.74
270.188	-1.37
270.403	21.16
270.619	-13.65
270.835	49.83
271.051	17.07
271.267	17.07
271.483	-7.51
271.698	8.87
271.914	-56.66
272.13	62.12
272.346	37.55
272.562	-15.7
272.777	51.88
272.993	109.23
273.209	-42.32
273.425	17.07
273.64	39.59
273.856	78.51
274.072	-15.7
274.287	68.27
274.503	111.27
274.719	88.75
274.934	35.5
275.15	-21.84
275.366	12.97
275.581	2.73
275.797	92.84
276.012	19.11
276.228	33.45
276.444	41.64
276.659	23.21
276.875	41.64
277.09	74.41
277.306	39.59
277.521	-9.56
277.737	27.31
277.952	60.07
278.168	33.45
278.383	2.73
278.599	10.92
278.814	-34.13
279.03	111.27
279.245	78.51
279.461	21.16
279.676	62.12
279.892	-3.41
280.107	53.93
280.322	43.69
280.538	92.84
280.753	-11.61
280.969	60.07
281.184	4.78
281.399	60.07
281.615	41.64
281.83	58.03
282.045	-1.37
282.26	-17.75
282.476	45.74
282.691	39.59
282.906	-19.8
283.122	29.35
283.337	-25.94
283.552	-1.37
283.767	0.68
283.983	37.55
284.198	51.88
284.413	8.87
284.628	-3.41
284.843	78.51
285.058	90.79
285.274	84.65
285.489	0.68
285.704	60.07
285.919	33.45
286.134	35.5
286.349	47.79
286.564	88.75
286.779	-15.7
286.995	41.64
287.21	23.21
287.425	74.41
287.64	-21.84
287.855	-17.75
288.07	33.45
288.285	41.64
288.5	41.64
288.715	47.79
288.93	-7.51
289.145	-21.84
289.36	51.88
289.575	35.5
289.79	23.21
290.004	64.17
290.219	19.11
290.434	53.93
290.649	15.02
290.864	-1.37
291.079	0.68
291.294	45.74
291.509	-1.37
291.724	47.79
291.938	-5.46
292.153	15.02
292.368	25.26
292.583	15.02
292.798	47.79
293.012	88.75
293.227	-17.75
293.442	47.79
293.657	23.21
293.871	111.27
294.086	35.5
294.301	47.79
294.516	0.68
294.73	49.83
294.945	27.31
295.16	-1.37
295.374	10.92
295.589	43.69
295.804	-3.41
296.018	94.89
296.233	31.4
296.447	90.79
296.662	12.97
296.877	-1.37
297.091	-79.19
297.306	43.69
297.52	58.03
297.735	17.07
297.949	27.31
298.164	45.74
298.378	39.59
298.593	-11.61
298.807	-27.99
299.022	19.11
299.236	121.51
299.451	53.93
299.665	-48.47
299.88	37.55
300.094	37.55
300.309	31.4
300.523	-27.99
300.737	37.55
300.952	6.83
301.166	55.98
301.381	-17.75
301.595	62.12
301.809	39.59
302.024	74.41
302.238	-34.13
302.452	103.08
302.667	53.93
302.881	84.65
303.095	131.75
303.309	119.46
303.524	-40.28
303.738	66.22
303.952	127.66
304.166	66.22
304.381	31.4
304.595	58.03
304.809	-7.51
305.023	49.83
305.237	47.79
305.452	53.93
305.666	47.79
305.88	23.21
306.094	72.36
306.308	31.4
306.522	-5.46
306.736	58.03
306.95	-15.7
307.164	-11.61
307.379	33.45
307.593	72.36
307.807	62.12
308.021	72.36
308.235	94.89
308.449	-19.8
308.663	21.16
308.877	101.03
309.091	37.55
309.305	10.92
309.519	98.99
309.733	103.08
309.947	-13.65
310.161	113.32
310.374	49.83
310.588	31.4
310.802	8.87
311.016	12.97
311.23	31.4
311.444	43.69
311.658	-5.46
311.872	12.97
312.085	86.7
312.299	103.08
312.513	51.88
312.727	-1.37
312.941	-1.37
313.154	58.03
313.368	68.27
313.582	47.79
313.796	78.51
314.009	21.16
314.223	64.17
314.437	109.23
314.651	4.78
314.864	43.69
315.078	23.21
315.292	8.87
315.505	45.74
315.719	12.97
315.933	96.94
316.146	37.55
316.36	51.88
316.573	96.94
316.787	133.8
317.001	19.11
317.214	6.83
317.428	141.99
317.641	6.83
317.855	-9.56
318.068	-1.37
318.282	39.59
318.495	84.65
318.709	25.26
318.922	10.92
319.136	94.89
319.349	84.65
319.563	37.55
319.776	62.12
319.99	15.02
320.203	41.64
320.417	-7.51
320.63	86.7
320.843	117.42
321.057	6.83
321.27	-5.46
321.483	98.99
321.697	131.75
321.91	-3.41
322.124	49.83
322.337	33.45
322.55	41.64
322.763	45.74
322.977	17.07
323.19	0.68
323.403	29.35
323.617	2.73
323.83	-7.51
324.043	70.31
324.256	12.97
324.469	33.45
324.683	86.7
324.896	33.45
325.109	113.32
325.322	8.87
325.535	-11.61
325.748	47.79
325.962	37.55
326.175	8.87
326.388	94.89
326.601	94.89
326.814	43.69
327.027	117.42
327.24	58.03
327.453	39.59
327.666	45.74
327.879	49.83
328.092	27.31
328.305	-30.04
328.518	8.87
328.731	25.26
328.944	107.18
329.157	53.93
329.37	82.6
329.583	66.22
329.796	62.12
330.009	21.16
330.222	43.69
330.435	49.83
330.648	41.64
330.861	2.73
331.073	21.16
331.286	-3.41
331.499	70.31
331.712	39.59
331.925	86.7
332.138	8.87
332.35	53.93
332.563	6.83
332.776	111.27
332.989	27.31
333.202	60.07
333.414	27.31
333.627	78.51
333.84	4.78
334.053	51.88
334.265	-7.51
334.478	58.03
334.691	-30.04
334.903	137.9
335.116	-5.46
335.329	12.97
335.541	10.92
335.754	55.98
335.966	31.4
336.179	101.03
336.392	64.17
336.604	-21.84
336.817	49.83
337.029	15.02
337.242	2.73
337.454	74.41
337.667	8.87
337.88	58.03
338.092	144.04
338.305	139.94
338.517	101.03
338.729	-3.41
338.942	53.93
339.154	4.78
339.367	21.16
339.579	101.03
339.792	72.36
340.004	39.59
340.217	0.68
340.429	45.74
340.641	96.94
340.854	10.92
341.066	-30.04
341.278	21.16
341.491	92.84
341.703	17.07
341.915	74.41
342.128	49.83
342.34	58.03
342.552	82.6
342.764	60.07
342.977	88.75
343.189	82.6
343.401	49.83
343.613	33.45
343.826	-5.46
344.038	64.17
344.25	53.93
344.462	21.16
344.674	74.41
344.886	19.11
345.099	127.66
345.311	-5.46
345.523	39.59
345.735	0.68
345.947	98.99
346.159	64.17
346.371	25.26
346.583	78.51
346.795	51.88
347.007	35.5
347.219	131.75
347.431	90.79
347.643	115.37
347.855	92.84
348.067	80.55
348.279	43.69
348.491	55.98
348.703	29.35
348.915	125.61
349.127	21.16
349.339	27.31
349.551	29.35
349.763	125.61
349.975	29.35
350.187	88.75
350.399	49.83
350.61	53.93
350.822	15.02
351.034	41.64
351.246	31.4
351.458	64.17
351.669	29.35
351.881	84.65
352.093	45.74
352.305	82.6
352.517	55.98
352.728	64.17
352.94	70.31
353.152	-11.61
353.363	29.35
353.575	62.12
353.787	64.17
353.999	70.31
354.21	72.36
354.422	23.21
354.633	6.83
354.845	29.35
355.057	-15.7
355.268	72.36
355.48	51.88
355.692	35.5
355.903	103.08
356.115	31.4
356.326	0.68
356.538	94.89
356.749	39.59
356.961	10.92
357.172	2.73
357.384	21.16
357.595	113.32
357.807	27.31
358.018	-27.99
358.23	15.02
358.441	74.41
358.653	47.79
358.864	-38.23
359.075	76.46
359.287	135.85
359.498	19.11
359.709	33.45
359.921	51.88
360.132	10.92
360.344	88.75
360.555	15.02
360.766	39.59
360.977	111.27
361.189	51.88
361.4	-9.56
361.611	84.65
361.823	31.4
362.034	133.8
362.245	27.31
362.456	-1.37
362.667	31.4
362.879	53.93
363.09	33.45
363.301	103.08
363.512	47.79
363.723	-3.41
363.935	47.79
364.146	33.45
364.357	-25.94
364.568	80.55
364.779	39.59
364.99	101.03
365.201	43.69
365.412	55.98
365.623	23.21
365.834	111.27
366.045	64.17
366.256	29.35
366.467	39.59
366.678	25.26
366.889	131.75
367.1	37.55
367.311	103.08
367.522	117.42
367.733	66.22
367.944	27.31
368.155	19.11
368.366	53.93
368.577	15.02
368.788	101.03
368.999	60.07
369.209	23.21
369.42	94.89
369.631	174.76
369.842	47.79
370.053	107.18
370.264	53.93
370.474	72.36
370.685	94.89
370.896	60.07
371.107	182.95
371.317	60.07
371.528	27.31
371.739	29.35
371.95	66.22
372.16	64.17
372.371	-46.42
372.582	123.56
372.792	35.5
373.003	60.07
373.214	121.51
373.424	-9.56
373.635	-1.37
373.846	107.18
374.056	96.94
374.267	25.26
374.477	76.46
374.688	82.6
374.898	53.93
375.109	74.41
375.319	96.94
375.53	127.66
375.74	74.41
375.951	64.17
376.161	141.99
376.372	33.45
376.582	70.31
376.793	123.56
377.003	35.5
377.214	23.21
377.424	82.6
377.635	101.03
377.845	37.55
378.055	103.08
378.266	47.79
378.476	6.83
378.686	125.61
378.897	113.32
379.107	76.46
379.317	66.22
379.528	141.99
379.738	-15.7
379.948	66.22
380.158	60.07
380.369	10.92
380.579	78.51
380.789	2.73
380.999	70.31
381.21	39.59
381.42	127.66
381.63	82.6
381.84	31.4
382.05	39.59
382.261	64.17
382.471	109.23
382.681	86.7
382.891	31.4
383.101	76.46
383.311	66.22
383.521	49.83
383.731	76.46
383.941	51.88
384.151	121.51
384.361	51.88
384.571	45.74
384.781	25.26
384.991	80.55
385.201	4.78
385.411	74.41
385.621	64.17
385.831	23.21
386.041	-30.04
386.251	62.12
386.461	82.6
386.671	55.98
386.881	62.12
387.091	53.93
387.301	70.31
387.511	51.88
387.72	76.46
387.93	55.98
388.14	-5.46
388.35	78.51
388.56	84.65
388.769	43.69
388.979	55.98
389.189	131.75
389.399	41.64
389.609	66.22
389.818	62.12
390.028	62.12
390.238	64.17
390.447	21.16
390.657	17.07
390.867	25.26
391.076	66.22
391.286	25.26
391.496	45.74
391.705	41.64
391.915	146.09
392.125	96.94
392.334	168.62
392.544	125.61
392.753	-11.61
392.963	53.93
393.172	109.23
393.382	37.55
393.591	33.45
393.801	111.27
394.01	39.59
394.22	103.08
394.429	105.13
394.639	88.75
394.848	47.79
395.058	33.45
395.267	150.18
395.477	88.75
395.686	53.93
395.895	119.46
396.105	189.1
396.314	160.42
396.524	103.08
396.733	47.79
396.942	178.86
397.152	90.79
397.361	176.81
397.57	64.17
397.78	117.42
397.989	150.18
398.198	101.03
398.407	131.75
398.617	123.56
398.826	137.9
399.035	160.42
399.244	135.85
399.453	103.08
399.663	170.66
399.872	45.74
400.081	189.1
400.29	154.28
400.499	129.7
400.708	39.59
400.917	127.66
401.127	123.56
401.336	86.7
401.545	191.14
401.754	113.32
401.963	207.53
402.172	125.61
402.381	119.46
402.59	66.22
402.799	86.7
403.008	154.28
403.217	176.81
403.426	135.85
403.635	123.56
403.844	178.86
404.053	148.14
404.262	131.75
404.471	176.81
404.68	156.33
404.888	209.58
405.097	230.06
405.306	172.71
405.515	180.9
405.724	146.09
405.933	205.48
406.142	213.67
406.35	187.05
406.559	168.62
406.768	209.58
406.977	238.25
407.185	203.43
407.394	234.15
407.603	207.53
407.812	264.87
408.02	248.49
408.229	291.49
408.438	262.82
408.646	246.44
408.855	236.2
409.064	219.82
409.272	322.21
409.481	326.31
409.69	385.7
409.898	311.97
410.107	367.27
410.315	340.65
410.524	344.74
410.733	352.93
410.941	402.08
411.15	412.32
411.358	438.95
411.567	408.23
411.775	404.13
411.984	408.23
412.192	508.58
412.401	498.34
412.609	490.15
412.818	535.2
413.026	563.87
413.234	565.92
413.443	572.07
413.651	553.63
413.86	590.5
414.068	690.85
414.276	637.6
414.485	656.03
414.693	686.75
414.901	791.2
415.11	725.66
415.318	821.92
415.526	813.73
415.734	838.3
415.943	801.44
416.151	848.54
416.359	924.32
416.567	955.04
416.776	1088.15
416.984	1057.43
417.192	1094.3
417.4	1082.01
417.608	1127.07
417.817	1122.97
418.025	1227.42
418.233	1290.9
418.441	1198.74
418.649	1317.53
418.857	1440.4
419.065	1446.55
419.273	1376.92
419.481	1417.88
419.689	1561.23
419.897	1614.48
420.105	1643.15
420.313	1561.23
420.521	1817.23
420.729	1860.24
420.937	1907.34
421.145	1995.4
421.353	2077.32
421.561	2101.9
421.769	2099.85
421.977	2206.35
422.185	2165.39
422.393	2388.61
422.601	2613.89
422.809	2511.49
423.017	2437.77
423.224	2712.19
423.432	2796.16
423.64	2724.48
423.848	2929.28
424.056	2927.23
424.263	3109.5
424.471	3142.27
424.679	3312.25
424.887	3490.42
425.094	3635.83
425.302	3471.99
425.51	3658.35
425.718	3668.59
425.925	3840.62
426.133	3910.26
426.341	4192.87
426.548	4330.09
426.756	4295.27
426.964	4418.15
427.171	4637.28
427.379	4733.54
427.586	4731.49
427.794	5055.07
428.001	5278.3
428.209	5341.79
428.417	5270.11
428.624	5732.95
428.832	5888.59
429.039	5726.8
429.247	5782.1
429.454	6261.32
429.662	6548.04
429.869	6322.76
430.076	6642.25
430.284	6355.53
430.491	6847.04
430.699	7103.04
430.906	7062.08
431.114	7342.65
431.321	7543.35
431.528	7598.65
431.736	8163.89
431.943	8303.15
432.15	8225.33
432.358	8282.67
432.565	8763.94
432.772	8784.42
432.979	9101.86
433.187	9179.68
433.394	9507.35
433.601	10226.19
433.808	10058.26
434.016	10039.83
434.223	10568.2
434.43	11188.74
434.637	10715.66
434.844	11540.99
435.052	11827.7
435.259	11848.18
435.466	11874.81
435.673	11780.6
435.88	12452.33
436.087	13277.66
436.294	13289.95
436.501	12970.47
436.708	13146.59
436.915	13517.28
437.122	14211.54
437.329	14021.08
437.537	14510.54
437.743	14770.63
437.95	14703.05
438.157	15399.36
438.364	16099.76
438.571	15927.74
438.778	16075.19
438.985	17789.34
439.192	17027.49
439.399	17514.91
439.606	17156.52
439.813	17920.41
440.02	19157.38
440.227	18719.12
440.433	18823.56
440.64	19128.71
440.847	18991.5
441.054	19446.15
441.261	20615.54
441.467	20279.67
441.674	21170.54
441.881	22038.87
442.088	21838.17
442.294	21401.96
442.501	22196.57
442.708	22454.61
442.914	23507.27
443.121	24353.08
443.328	23855.42
443.534	25370.92
443.741	24707.38
443.948	24361.27
444.154	26325.27
444.361	26134.81
444.568	26059.04
444.774	26358.04
444.981	26589.46
445.187	27433.22
445.394	28463.35
445.6	27973.89
445.807	30922.96
446.013	29194.48
446.22	30173.41
446.426	30972.11
446.633	31432.91
446.839	32598.2
447.046	31414.48
447.252	33085.62
447.459	32532.67
447.665	32862.39
447.871	34152.61
448.078	35582.09
448.284	34070.69
448.491	34789.53
448.697	36096.13
448.903	36948.09
449.11	36552.83
449.316	36442.24
449.522	37052.53
449.728	37951.59
449.935	38355.04
450.141	38283.36
450.347	38738.01
450.553	37673.07
450.76	38367.33
450.966	39331.92
451.172	39305.3
451.378	39845.96
451.584	39399.51
451.791	40382.53
451.997	40075.34
452.203	40937.53
452.409	40478.78
452.615	40853.56
452.821	39415.89
453.027	38893.66
453.233	40792.12
453.44	39188.56
453.646	39819.34
453.852	40210.5
454.058	40519.74
454.264	39270.48
454.47	40089.67
454.676	39077.97
454.882	40646.72
455.088	36989.05
455.294	37453.94
455.5	38103.14
455.705	38828.12
455.911	37048.44
456.117	36540.54
456.323	35788.94
456.529	34140.32
456.735	35678.35
456.941	34482.33
457.147	34095.27
457.352	33093.81
457.558	32536.76
457.764	32780.47
457.97	31975.62
458.176	31303.88
458.381	31328.46
458.587	29976.8
458.793	29659.37
458.999	28322.04
459.204	30314.72
459.41	29585.64
459.616	27193.61
459.821	27414.79
460.027	27369.74
460.233	26951.95
460.438	25479.46
460.644	25891.1
460.85	24619.31
461.055	24484.15
461.261	24004.92
461.466	22612.31
461.672	22055.26
461.878	23300.42
462.083	21864.8
462.289	21418.34
462.494	21053.8
462.7	19941.75
462.905	19636.61
463.111	20373.88
463.316	20384.12
463.522	20203.89
463.727	20175.22
463.932	19939.71
464.138	19714.43
464.343	19839.36
464.549	19138.95
464.754	19935.61
464.959	19593.6
465.165	19638.65
465.37	18774.41
465.575	18344.34
465.781	19075.46
465.986	19003.78
466.191	18518.42
466.397	18250.13
466.602	17172.9
466.807	17744.28
467.012	17813.91
467.218	17748.38
467.423	17797.53
467.628	17754.52
467.833	18321.81
468.038	17656.22
468.244	17195.43
468.449	17893.79
468.654	17375.65
468.859	17060.26
469.064	16970.15
469.269	16632.24
469.474	16476.59
469.679	16912.81
469.885	16193.97
470.09	16681.39
470.295	16368.05
470.5	15997.37
470.705	16279.99
470.91	15620.54
471.115	15778.23
471.32	15888.82
471.525	15622.59
471.73	15423.94
471.935	15272.39
472.139	14913.99
472.344	15096.26
472.549	14903.75
472.754	14793.16
472.959	14539.21
473.164	14135.76
473.369	14053.84
473.574	14399.95
473.778	14485.97
473.983	14260.69
474.188	13935.06
474.393	13517.28
474.598	13474.27
474.802	13517.28
475.007	13380.06
475.212	13236.7
475.417	12769.77
475.621	12831.21
475.826	12964.32
476.031	12628.46
476.235	12399.09
476.44	12648.94
476.645	12167.67
476.849	12403.18
477.054	12306.93
477.259	12200.43
477.463	12116.47
477.668	11528.7
477.872	11891.19
478.077	11520.51
478.282	11371.01
478.486	11330.05
478.691	11311.61
478.895	11201.02
479.1	11217.41
479.304	11033.09
479.509	10869.25
479.713	10965.51
479.918	10684.94
480.122	10648.07
480.326	11055.62
480.531	10840.58
480.735	10697.22
480.94	10486.28
481.144	10674.7
481.348	10218
481.553	10369.55
481.757	10304.01
481.961	10492.43
482.166	10609.16
482.37	10494.47
482.574	10291.73
482.778	10324.49
482.983	10316.3
483.187	10381.84
483.391	10467.85
483.595	10232.33
483.8	10218
484.004	10398.22
484.208	10600.97
484.412	10295.82
484.616	10215.95
484.821	10189.33
485.025	10007.06
485.229	10224.14
485.433	10261.01
485.637	10103.31
485.841	10164.75
486.045	9970.19
486.249	10240.53
486.453	10109.46
486.657	10308.11
486.861	10306.06
487.065	9908.76
487.269	10422.8
487.473	10240.53
487.677	10310.16
487.881	10379.79
488.085	10283.53
488.289	10383.88
488.493	10236.43
488.697	10310.16
488.901	10195.47
489.105	10381.84
489.309	10476.04
489.512	10314.25
489.716	10426.89
489.92	10435.08
490.124	10361.36
490.328	10576.39
490.531	10277.39
490.735	10539.53
490.939	10566.15
491.143	10637.83
491.346	10564.11
491.55	10467.85
491.754	10697.22
491.958	10627.59
492.161	10777.09
492.365	10691.08
492.569	10764.81
492.772	11014.66
492.976	10729.99
493.18	10969.6
493.383	10961.41
493.587	11121.15
493.79	11168.26
493.994	11086.34
494.197	11198.98
494.401	11303.42
494.605	11500.03
494.808	11649.53
495.012	11526.65
495.215	11567.61
495.419	11758.07
495.622	11577.85
495.825	11837.94
496.029	11788.79
496.232	11995.64
496.436	11895.29
496.639	12448.24
496.843	12306.93
497.046	12452.33
497.249	12388.85
497.453	12767.72
497.656	12513.77
497.859	12708.33
498.063	13054.44
498.266	13105.63
498.469	13265.38
498.673	13363.68
498.876	13525.47
499.079	13613.53
499.282	13513.18
499.485	14115.28
499.689	13951.45
499.892	14209.49
500.095	14248.4
500.298	14561.74
500.501	14559.69
500.705	14963.14
500.908	14991.81
501.111	15114.69
501.314	15165.89
501.517	15454.65
501.72	15909.3
501.923	15495.61
502.126	15790.52
502.329	16175.54
502.532	16157.11
502.735	16507.31
502.938	16589.23
503.141	16624.04
503.344	17076.65
503.547	16769.45
503.75	17265.06
503.953	17543.58
504.156	17686.94
504.359	17846.68
504.562	17787.29
504.765	18383.25
504.968	18493.84
505.17	18602.38
505.373	18811.28
505.576	19165.57
505.779	19257.73
505.982	19403.14
506.185	19702.14
506.387	19515.78
506.59	19634.56
506.793	20371.83
506.996	20011.39
507.198	20765.04
507.401	20748.65
507.604	20812.14
507.807	21182.82
508.009	21211.49
508.212	21784.93
508.415	22016.35
508.617	22135.13
508.82	22204.76
509.022	22120.79
509.225	22712.66
509.428	22858.06
509.63	22794.57
509.833	23103.82
510.035	23599.43
510.238	23540.04
510.44	23939.39
510.643	23984.44
510.845	24437.05
511.048	24447.29
511.25	24467.77
511.453	24955.18
511.655	25800.99
511.858	25344.3
512.06	25501.99
512.262	25829.66
512.465	25923.87
512.667	26409.24
512.87	26724.63
513.072	26495.25
513.274	27005.2
513.477	27379.98
513.679	27457.8
513.881	27726.08
514.084	27982.08
514.286	28211.45
514.488	28279.04
514.69	28915.95
514.893	28985.58
515.095	28881.14
515.297	29477.1
515.499	29354.22
515.701	29903.07
515.904	30376.16
516.106	30337.24
516.308	31029.46
516.51	30810.32
516.712	31113.42
516.914	31486.15
517.116	32071.87
517.318	31871.17
517.52	32188.61
517.722	32100.54
517.925	32745.65
518.127	33095.86
518.329	33425.58
518.531	33265.84
518.733	33822.89
518.935	34064.55
519.136	33863.85
519.338	34640.03
519.54	34545.82
519.742	34887.83
519.944	35256.46
520.146	35412.11
520.348	35850.38
520.55	35899.53
520.752	36286.59
520.954	36726.91
521.155	36636.8
521.357	37156.98
521.559	36976.76
521.761	37261.43
521.963	37703.79
522.164	37771.37
522.366	37863.53
522.568	38135.91
522.77	38434.91
522.971	38860.89
523.173	38549.6
523.375	39168.08
523.576	39284.82
523.778	39501.9
523.98	40028.23
524.181	40179.78
524.383	39897.16
524.584	40865.85
524.786	40527.94
524.988	40716.35
525.189	40919.1
525.391	41265.21
525.592	41183.29
525.794	41734.19
525.995	41734.19
526.197	41719.85
526.398	41578.54
526.6	42561.57
526.801	42702.88
527.003	42350.63
527.204	42350.63
527.406	42676.26
527.607	42833.95
527.808	42979.35
528.01	42612.77
528.211	42991.64
528.412	43640.85
528.614	43554.83
528.815	43589.65
529.016	43997.2
529.218	43700.24
529.419	43624.46
529.62	43597.84
529.822	43606.03
530.023	43939.85
530.224	44128.27
530.425	44345.35
530.626	43585.55
530.828	43517.97
531.029	44501
531.23	43868.17
531.431	44396.55
531.632	44308.49
531.833	44756.99
532.035	44517.38
532.236	44607.49
532.437	45025.28
532.638	44834.81
532.839	45002.75
533.04	45062.14
533.241	44322.82
533.442	45471.73
533.643	45004.8
533.844	45051.9
534.045	45070.33
534.246	44986.36
534.447	45199.35
534.648	44414.98
534.849	45072.38
535.05	44550.15
535.251	44834.81
535.451	44746.75
535.652	45262.84
535.853	45185.02
536.054	45398.01
536.255	45484.02
536.456	44414.98
536.657	45869.04
536.857	45180.92
537.058	44756.99
537.259	45361.14
537.46	44961.79
537.66	44761.09
537.861	45082.62
538.062	44673.03
538.263	45213.69
538.463	44818.43
538.664	45225.98
538.865	45242.36
539.065	45307.9
539.266	44623.87
539.466	45651.95
539.667	44482.56
539.868	45271.03
540.068	45000.7
540.269	45070.33
540.469	45101.05
540.67	44763.14
540.87	44775.42
541.071	44552.19
541.271	44988.41
541.472	44810.24
541.672	44642.31
541.873	44830.72
542.073	44572.67
542.274	45385.72
542.474	44537.86
542.675	44785.66
542.875	44773.38
543.075	44544
543.276	44099.59
543.476	44689.41
543.676	44691.46
543.877	44728.32
544.077	44926.97
544.277	44789.76
544.478	44773.38
544.678	45248.5
544.878	44904.45
545.078	44716.03
545.279	44183.56
545.479	44791.81
545.679	44560.39
545.879	44570.63
546.079	44728.32
546.28	44673.03
546.48	43950.09
546.68	44683.26
546.88	44759.04
547.08	44636.16
547.28	44707.84
547.48	43890.7
547.68	44271.62
547.88	44142.6
548.081	44396.55
548.281	44644.35
548.481	44513.28
548.681	44603.39
548.881	44263.43
549.081	44496.9
549.28	43929.61
549.48	44664.83
549.68	44316.68
549.88	44873.73
550.08	43993.1
550.28	44603.39
550.48	43952.14
550.68	44621.83
550.88	44003.34
551.08	44453.89
551.279	44687.36
551.479	44158.98
551.679	44281.86
551.879	44052.49
552.079	44281.86
552.278	43939.85
552.478	44554.24
552.678	43792.4
552.878	44433.41
553.077	43798.54
553.277	43380.76
553.477	44498.95
553.676	44128.27
553.876	43954.19
554.076	43941.9
554.275	43995.15
554.475	43319.32
554.674	44136.46
554.874	44183.56
555.074	43624.46
555.273	43902.99
555.473	43925.52
555.672	43382.8
555.872	43708.43
556.071	43720.72
556.271	43902.99
556.47	43237.4
556.67	43239.45
556.869	43534.35
557.068	43706.38
557.268	43145.24
557.467	43487.25
557.667	43565.07
557.866	43159.58
558.065	43470.87
558.265	42858.52
558.464	42838.04
558.663	43083.8
558.863	42733.6
559.062	43550.74
559.261	42616.86
559.461	43341.85
559.66	42332.2
559.859	42756.13
560.058	42446.88
560.258	42846.24
560.457	42342.44
560.656	43003.93
560.855	42278.95
561.054	42895.39
561.253	42094.63
561.453	42403.88
561.652	42539.04
561.851	42164.26
562.05	42377.25
562.249	41955.37
562.448	42332.2
562.647	42082.34
562.846	42031.15
563.045	42057.77
563.244	41599.02
563.443	42076.2
563.642	41285.68
563.841	41668.65
564.04	41373.75
564.239	41951.27
564.438	40714.3
564.637	41506.87
564.836	41570.35
565.035	40757.31
565.234	41353.27
565.432	41191.48
565.631	40831.04
565.83	41056.31
566.029	40814.65
566.228	40566.85
566.427	40609.85
566.625	40581.18
566.824	40112.2
567.023	40654.91
567.222	39651.41
567.42	40419.39
567.619	40314.95
567.818	40222.79
568.016	39968.84
568.215	40319.04
568.414	39915.59
568.612	40245.32
568.811	39911.5
569.01	39913.55
569.208	39598.16
569.407	39651.41
569.605	39430.22
569.804	39637.07
570.002	38981.72
570.201	39512.14
570.4	38953.05
570.598	39133.27
570.797	38785.11
570.995	38910.04
571.193	38662.24
571.392	39202.9
571.59	38445.15
571.789	38756.44
571.987	38649.95
572.186	38357.09
572.384	38500.45
572.582	38561.89
572.781	38520.93
572.979	37951.59
573.177	37982.31
573.376	37906.54
573.574	37738.6
573.772	38221.92
573.971	37789.8
574.169	37531.76
574.367	37259.38
574.565	37789.8
574.763	37492.85
574.962	37290.1
575.16	36841.59
575.358	37511.28
575.556	36862.07
575.754	37322.87
575.952	36487.29
576.151	37099.64
576.349	36503.68
576.547	36771.96
576.745	36464.77
576.943	36931.7
577.141	36485.25
577.339	36548.73
577.537	35965.06
577.735	36253.83
577.933	35747.98
578.131	35891.33
578.329	35809.42
578.527	35584.14
578.725	35666.06
578.923	35965.06
579.121	35399.82
579.319	35268.75
579.516	35743.88
579.714	35362.96
579.912	35119.25
580.11	34951.32
580.308	35403.92
580.506	35166.35
580.704	34902.17
580.901	34947.22
581.099	35309.71
581.297	34482.33
581.495	34828.44
581.692	34928.79
581.89	34189.47
582.088	34807.96
582.285	34007.2
582.483	34953.37
582.681	34166.95
582.878	33990.82
583.076	33618.09
583.274	34312.35
583.471	33749.16
583.669	33845.41
583.866	33849.51
584.064	33706.15
584.262	33351.85
584.459	33411.24
584.657	33339.57
584.854	33552.55
585.052	33110.19
585.249	33433.77
585.447	33106.1
585.644	32639.16
585.841	33134.77
586.039	33329.33
586.236	32305.34
586.434	32467.13
586.631	32409.79
586.828	32401.6
587.026	32358.59
587.223	32673.98
587.42	32270.53
587.618	32037.06
587.815	32006.34
588.012	31928.52
588.21	31711.43
588.407	32229.57
588.604	31621.32
588.801	31414.48
588.999	31748.29
589.196	31541.45
589.393	31426.76
589.59	31074.51
589.787	31242.45
589.984	30908.63
590.182	31027.41
590.379	31103.18
590.576	30709.97
590.773	31064.27
590.97	30841.04
591.167	30623.96
591.364	30290.14
591.561	30826.71
591.758	30007.52
591.955	30179.55
592.152	30544.09
592.349	29788.39
592.546	30114.02
592.743	30025.95
592.94	29495.53
593.137	29944.03
593.334	30120.16
593.531	29501.67
593.727	29864.16
593.924	29788.39
594.121	29561.06
594.318	29456.62
594.515	29522.15
594.712	29497.58
594.908	29186.29
595.105	29133.04
595.302	28676.34
595.499	29004.02
595.696	28666.1
595.892	28375.29
596.089	28623.09
596.286	28520.7
596.482	28387.58
596.679	28309.75
596.876	28399.87
597.072	28446.97
597.269	28342.52
597.466	28086.53
597.662	28207.36
597.859	27912.45
598.055	27834.63
598.252	27773.19
598.448	27808
598.645	27429.13
598.841	27648.26
599.038	27519.24
599.234	27429.13
599.431	27232.52
599.627	27095.31
599.824	27246.86
600.02	26937.62
600.217	26863.89
600.413	26618.13
600.609	27197.71
600.806	26657.04
601.002	26573.08
601.198	26624.28
601.395	26220.83
601.591	26319.13
601.787	26251.55
601.984	26505.49
602.18	26753.3
602.376	25995.55
602.572	25596.2
602.769	26030.37
602.965	25880.86
603.161	25876.77
603.357	25835.81
603.553	25760.03
603.75	25696.55
603.946	25278.76
604.142	25637.16
604.338	25325.86
604.534	25319.72
604.73	25164.07
604.926	25014.57
605.122	25270.57
605.318	25014.57
605.514	24990
605.71	24875.31
605.906	24740.15
606.102	24926.51
606.298	24637.75
606.494	24430.9
606.69	24484.15
606.886	24666.42
607.082	24207.67
607.278	24715.57
607.474	24265.02
607.67	24289.59
607.866	24215.87
608.062	24297.78
608.257	24224.06
608.453	24158.52
608.649	24043.84
608.845	23640.39
609.041	23980.35
609.236	24054.08
609.432	23949.63
609.628	23677.25
609.824	23806.27
610.019	23673.15
610.215	23525.7
610.411	23544.13
610.606	23615.81
610.802	23556.42
610.998	23318.85
611.193	23259.46
611.389	23251.27
611.584	23218.5
611.78	23189.83
611.976	23316.81
612.171	23267.66
612.367	23396.68
612.562	23238.98
612.758	22876.49
612.953	22604.11
613.149	23146.83
613.344	22782.29
613.539	23124.3
613.735	22698.32
613.93	23013.71
614.126	22626.64
614.321	23077.19
614.517	22735.18
614.712	22714.7
614.907	22587.73
615.103	23026
615.298	22483.28
615.493	22618.45
615.688	22280.53
615.884	22751.57
616.079	22233.43
616.274	22495.57
616.47	22206.81
616.665	22180.18
616.86	21944.67
617.055	21942.62
617.25	22204.76
617.445	22006.11
617.641	21772.64
617.836	22255.96
618.031	21502.31
618.226	21887.32
618.421	21801.31
618.616	21860.7
618.811	21623.14
619.006	21674.34
619.201	21297.51
619.396	21506.4
619.591	21115.24
619.786	21356.9
619.981	21076.33
620.176	21451.11
620.371	20875.63
620.566	21016.94
620.761	20930.92
620.956	20930.92
621.151	20496.75
621.346	20783.47
621.541	20140.41
621.735	20746.61
621.93	20361.59
622.125	20246.9
622.32	19804.54
622.515	19970.43
622.709	20134.26
622.904	19943.8
623.099	19908.99
623.294	20056.44
623.488	19308.93
623.683	19724.67
623.878	19003.78
624.072	19214.73
624.267	19198.34
624.462	19085.7
624.656	18852.24
624.851	18842
625.046	18657.68
625.24	18971.02
625.435	18559.38
625.629	18559.38
625.824	18391.44
626.018	18364.82
626.213	17887.64
626.407	18233.75
626.602	17811.87
626.796	17985.94
626.991	18057.62
627.185	17537.44
627.38	17695.13
627.574	17514.91
627.768	17344.93
627.963	17037.73
628.157	17211.81
628.352	17375.65
628.546	16986.54
628.74	17007.02
628.935	16816.55
629.129	16898.47
629.323	16521.65
629.517	16626.09
629.712	16538.03
629.906	16136.63
630.1	16265.65
630.294	16415.15
630.489	16040.37
630.683	16333.23
630.877	15776.19
631.071	15892.92
631.265	15985.08
631.459	15753.66
631.653	15636.92
631.848	15856.06
632.042	15407.55
632.236	15329.73
632.43	15049.16
632.624	15419.84
632.818	15237.57
633.012	15086.02
633.206	14899.66
633.4	15135.17
633.594	15008.2
633.788	14809.54
633.982	14866.89
634.176	14748.11
634.369	14545.36
634.563	14576.08
634.757	14346.7
634.951	14455.25
635.145	14451.15
635.339	14416.33
635.533	14379.47
635.726	14162.39
635.92	13859.29
636.114	14035.41
636.308	13969.88
636.501	13838.81
636.695	13652.44
636.889	13877.72
637.083	13660.63
637.276	13423.07
637.47	13500.89
637.664	13486.56
637.857	13392.35
638.051	13156.83
638.244	13240.8
638.438	13099.49
638.632	13040.1
638.825	13175.27
639.019	12921.32
639.212	12993
639.406	12919.27
639.599	12724.71
639.793	12775.91
639.986	12481
640.18	12478.96
640.373	12493.29
640.567	12343.79
640.76	12202.48
640.954	12347.89
641.147	12198.38
641.34	12165.62
641.534	12161.52
641.727	12032.5
641.92	11817.46
642.114	12087.79
642.307	11923.96
642.5	11766.26
642.694	11788.79
642.887	11457.02
643.08	11665.91
643.273	11637.24
643.467	11502.08
643.66	11461.12
643.853	11403.77
644.046	11473.4
644.239	11256.32
644.432	11299.33
644.626	11153.92
644.819	11153.92
645.012	11207.17
645.205	10994.18
645.398	10795.53
645.591	10861.06
645.784	10709.51
645.977	10717.7
646.17	10738.18
646.363	10525.19
646.556	10543.63
646.749	10584.59
646.942	10506.76
647.135	10469.9
647.328	10336.78
647.521	10400.27
647.714	10263.05
647.907	10295.82
648.099	10201.61
648.292	10127.89
648.485	10066.45
648.678	10019.35
648.871	10002.96
649.064	9873.94
649.256	9935.38
649.449	9863.7
649.642	9951.76
649.835	9710.1
650.027	9746.97
650.22	9429.53
650.413	9415.19
650.605	9486.87
650.798	9597.46
650.991	9480.73
651.183	9269.79
651.376	9277.98
651.568	9296.41
651.761	9120.29
651.954	9013.79
652.146	9273.89
652.339	9200.16
652.531	9280.03
652.724	9101.86
652.916	9024.03
653.109	8911.39
653.301	8849.96
653.494	8919.59
653.686	8686.12
653.879	8712.74
654.071	8571.43
654.263	8495.66
654.456	8604.2
654.648	8737.32
654.84	8286.76
655.033	8311.34
655.225	8290.86
655.417	8340.01
655.61	8297
655.802	8270.38
655.994	8198.7
656.186	8270.38
656.379	8346.16
656.571	8245.8
656.763	8127.02
656.955	7924.27
657.148	7909.94
657.34	8204.85
657.532	7926.32
657.724	7838.26
657.916	7678.52
658.108	7864.88
658.3	7711.28
658.492	7754.29
658.684	7496.25
658.876	7557.69
659.068	7664.18
659.26	7664.18
659.452	7684.66
659.644	7514.68
659.836	7516.73
660.028	7529.02
660.22	7443
660.412	7389.75
660.604	7330.36
660.796	7125.57
660.988	7260.73
661.18	7105.09
661.372	7004.74
661.563	7184.96
661.755	7025.22
661.947	6992.45
662.139	7088.7
662.331	6994.5
662.522	6709.83
662.714	7215.68
662.906	6775.36
663.097	6898.24
663.289	6812.23
663.481	6771.27
663.673	6746.69
663.864	6632.01
664.056	6738.5
664.247	6672.96
664.439	6517.32
664.631	6537.8
664.822	6486.6
665.014	6539.85
665.205	6410.82
665.397	6605.38
665.588	6345.29
665.78	6392.39
665.971	6398.54
666.163	6431.3
666.354	6347.34
666.546	6361.67
666.737	6165.07
666.929	6298.19
667.12	6158.92
667.311	6228.56
667.503	6062.67
667.694	6199.88
667.885	6005.33
668.077	6101.58
668.268	5995.09
668.459	6101.58
668.651	5829.2
668.842	5972.56
669.033	5927.5
669.224	5894.74
669.416	5870.16
669.607	5780.05
669.798	5603.93
669.989	5728.85
670.18	5763.67
670.371	5642.84
670.563	5618.26
670.754	5716.56
670.945	5630.55
671.136	5675.6
671.327	5513.81
671.518	5499.48
671.709	5579.35
671.9	5419.61
672.091	5444.18
672.282	5403.22
672.473	5472.86
672.664	5528.15
672.855	5425.75
673.046	5495.38
673.237	5497.43
673.428	5380.7
673.619	5323.35
673.809	5276.25
674	5427.8
674.191	5298.78
674.382	5239.39
674.573	5048.93
674.764	5055.07
674.954	5202.52
675.145	4985.44
675.336	5010.01
675.527	5053.02
675.717	5081.69
675.908	5212.76
676.099	5030.49
676.289	5020.25
676.48	4913.76
676.671	4821.6
676.861	4977.25
677.052	4860.51
677.243	4917.86
677.433	4962.91
677.624	4926.05
677.814	4829.79
678.005	4909.66
678.195	4743.78
678.386	4864.61
678.576	4733.54
678.767	4784.74
678.957	4725.35
679.148	4872.8
679.338	4692.58
679.529	4715.11
679.719	4717.15
679.909	4651.62
680.1	4737.63
680.29	4788.83
680.481	4567.65
680.671	4551.27
680.861	4614.76
681.052	4692.58
681.242	4524.65
681.432	4659.81
681.622	4477.54
681.813	4645.48
682.003	4731.49
682.193	4653.67
682.383	4508.26
682.573	4485.73
682.764	4393.58
682.954	4495.97
683.144	4696.67
683.334	4465.25
683.524	4459.11
683.714	4354.66
683.904	4375.14
684.094	4428.39
684.284	4516.45
684.474	4334.18
684.664	4317.8
684.854	4328.04
685.044	4344.42
685.234	4211.31
685.424	4225.64
685.614	4346.47
685.804	4108.91
685.994	4371.05
686.184	4334.18
686.374	4211.31
686.564	4151.92
686.753	4153.96
686.943	4166.25
687.133	4278.89
687.323	4225.64
687.513	4172.39
687.702	4094.57
687.892	4047.47
688.082	4145.77
688.272	3945.07
688.461	4006.51
688.651	4086.38
688.841	4096.62
689.03	3926.64
689.22	3963.5
689.41	3842.67
689.599	3885.68
689.789	3951.21
689.979	3834.48
690.168	3799.66
690.358	3803.76
690.547	3916.4
690.737	3744.37
690.926	3867.25
691.116	3672.69
691.305	3818.1
691.495	3656.31
691.684	3605.11
691.874	3779.18
692.063	3689.07
692.252	3658.35
692.442	3664.5
692.631	3603.06
692.82	3711.6
693.01	3689.07
693.199	3607.16
693.388	3508.85
693.578	3512.95
693.767	3449.46
693.956	3515
694.146	3598.96
694.335	3428.98
694.524	3447.41
694.713	3465.85
694.902	3373.69
695.092	3400.31
695.281	3340.92
695.47	3539.57
695.659	3388.02
695.848	3324.54
696.037	3355.26
696.226	3254.9
696.415	3263.1
696.604	3396.21
696.793	3478.13
696.982	3242.62
697.171	3142.27
697.36	3338.87
697.549	3228.28
697.738	3302.01
697.927	3269.24
698.116	3287.67
698.305	3218.04
698.494	3211.9
698.683	3187.32
698.872	3177.08
699.061	3230.33
699.25	3158.65
699.438	3232.38
699.627	3144.31
699.816	3226.23
700.005	3187.32
700.193	3158.65
700.382	3158.65
700.571	3089.02
700.76	3164.79
700.948	3140.22
701.137	3166.84
701.326	3146.36
701.514	3054.2
701.703	3078.78
701.892	3156.6
702.08	3099.26
702.269	3000.96
702.457	3078.78
702.646	3205.75
702.834	2984.57
703.023	2994.81
703.212	3185.27
703.4	2955.9
703.589	2976.38
703.777	3052.16
703.965	2980.48
704.154	3015.29
704.342	3033.72
704.531	2937.47
704.719	2910.85
704.907	3029.63
705.096	3023.48
705.284	3013.24
705.472	2861.69
705.661	2847.36
705.849	2945.66
706.037	3035.77
706.226	2982.53
706.414	2890.37
706.602	2896.51
706.79	2998.91
706.979	2962.05
707.167	2962.05
707.355	2871.93
707.543	2953.85
707.731	3003
707.919	2994.81
708.107	2898.56
708.296	2849.41
708.484	3027.58
708.672	2849.41
708.86	2972.29
709.048	3058.3
709.236	2837.12
709.424	2955.9
709.612	2992.76
709.8	2867.84
709.988	2835.07
710.176	2916.99
710.364	2886.27
710.551	2904.7
710.739	2878.08
710.927	2806.4
711.115	2857.6
711.303	2835.07
711.491	2990.72
711.679	2824.83
711.866	2855.55
712.054	2892.41
712.242	2820.74
712.43	2898.56
712.617	2675.33
712.805	2744.96
712.993	2910.85
713.181	2804.35
713.368	2888.32
713.556	2820.74
713.744	2742.91
713.931	2867.84
714.119	2798.21
714.306	2744.96
714.494	2695.81
714.682	2716.29
714.869	2873.98
715.057	2802.3
715.244	2747.01
715.432	2681.47
715.619	2816.64
715.807	2837.12
715.994	2837.12
716.182	2853.5
716.369	2837.12
716.556	2755.2
716.744	2763.39
716.931	2757.25
717.119	2861.69
717.306	2710.15
717.493	2806.4
717.681	2759.3
717.868	2814.59
718.055	2873.98
718.242	2808.45
718.43	2962.05
718.617	2744.96
718.804	2769.54
718.991	2716.29
719.179	2646.66
719.366	2800.26
719.553	2736.77
719.74	2857.6
719.927	2830.98
720.114	2708.1
720.301	2790.02
720.488	2800.26
720.676	2681.47
720.863	2765.44
721.05	2757.25
721.237	2830.98
721.424	2632.32
721.611	2771.58
721.798	2691.71
721.985	2794.11
722.172	2689.67
722.358	2724.48
722.545	2845.31
722.732	2765.44
722.919	2704
723.106	2638.47
723.293	2665.09
723.48	2814.59
723.667	2767.49
723.853	2751.1
724.04	2769.54
724.227	2833.02
724.414	2747.01
724.6	2804.35
724.787	2781.82
724.974	2785.92
725.161	2753.15
725.347	2757.25
725.534	2699.91
725.72	2833.02
725.907	2677.38
726.094	2808.45
726.28	2753.15
726.467	2763.39
726.653	2773.63
726.84	2790.02
727.027	2873.98
727.213	2792.06
727.4	2720.39
727.586	2681.47
727.773	2830.98
727.959	2718.34
728.145	2773.63
728.332	2802.3
728.518	2806.4
728.705	2869.89
728.891	2747.01
729.077	2845.31
729.264	2779.78
729.45	2724.48
729.636	2812.54
729.823	2589.32
730.009	2826.88
730.195	2777.73
730.382	2701.95
730.568	2851.46
730.754	2804.35
730.94	2697.86
731.126	2777.73
731.313	2873.98
731.499	2765.44
731.685	2792.06
731.871	2693.76
732.057	2816.64
732.243	2769.54
732.429	2810.5
732.615	2810.5
732.801	2972.29
732.987	2671.23
733.173	2800.26
733.359	2794.11
733.545	2765.44
733.731	2747.01
733.917	2794.11
734.103	2802.3
734.289	2794.11
734.475	2730.62
734.661	2916.99
734.847	2824.83
735.033	2710.15
735.219	2859.65
735.404	2839.17
735.59	2783.87
735.776	2861.69
735.962	2851.46
736.148	2876.03
736.333	2828.93
736.519	2704
736.705	2777.73
736.89	2783.87
737.076	2734.72
737.262	2716.29
737.447	2859.65
737.633	2667.14
737.819	2747.01
738.004	2726.53
738.19	2732.67
738.375	2671.23
738.561	2816.64
738.747	2742.91
738.932	2648.71
739.118	2642.56
739.303	2699.91
739.489	2683.52
739.674	2695.81
739.859	2675.33
740.045	2650.75
740.23	2605.7
740.416	2626.18
740.601	2742.91
740.786	2689.67
740.972	2650.75
741.157	2630.27
741.342	2628.23
741.528	2730.62
741.713	2521.73
741.898	2636.42
742.084	2601.6
742.269	2644.61
742.454	2607.75
742.639	2495.11
742.824	2603.65
743.01	2589.32
743.195	2493.06
743.38	2556.55
743.565	2663.04
743.75	2574.98
743.935	2505.35
744.12	2470.53
744.305	2458.25
744.49	2388.61
744.675	2458.25
744.86	2570.88
745.045	2536.07
745.23	2476.68
745.415	2417.29
745.6	2437.77
745.785	2435.72
745.97	2488.96
746.155	2495.11
746.34	2468.48
746.525	2368.13
746.71	2484.87
746.895	2392.71
747.079	2361.99
747.264	2413.19
747.449	2419.33
747.634	2286.22
747.819	2415.24
748.003	2298.5
748.188	2310.79
748.373	2267.78
748.557	2325.13
748.742	2327.18
748.927	2138.76
749.111	2105.99
749.296	2198.15
749.481	2321.03
749.665	2204.3
749.85	2079.37
750.034	2241.16
750.219	2050.7
750.404	2077.32
750.588	2069.13
750.773	1995.4
750.957	2022.03
751.141	2083.47
751.326	2079.37
751.51	2044.56
751.695	2056.84
751.879	2065.04
752.064	1999.5
752.248	2050.7
752.432	2011.79
752.617	1972.88
752.801	1976.97
752.985	2050.7
753.17	1942.16
753.354	2024.08
753.538	1927.82
753.722	1847.95
753.907	1880.72
754.091	1870.48
754.275	1868.43
754.459	1923.73
754.643	1860.24
754.828	1850
755.012	1886.86
755.196	1798.8
755.38	1770.13
755.564	1759.89
755.748	1766.03
755.932	1749.65
756.116	1788.56
756.3	1688.21
756.484	1737.36
756.668	1655.44
756.852	1688.21
757.036	1680.02
757.22	1649.3
757.404	1557.14
757.588	1641.11
757.772	1651.35
757.956	1591.95
758.14	1651.35
758.323	1632.91
758.507	1667.73
758.691	1583.76
758.875	1583.76
759.059	1612.43
759.242	1581.71
759.426	1421.97
759.61	1591.95
759.794	1524.37
759.977	1440.4
760.161	1467.03
760.345	1483.41
760.528	1497.75
760.712	1596.05
760.895	1436.31
761.079	1495.7
761.263	1471.12
761.446	1381.01
761.63	1479.32
761.813	1450.64
761.997	1391.25
762.18	1409.69
762.364	1352.34
762.547	1362.58
762.731	1389.21
762.914	1315.48
763.098	1323.67
763.281	1333.91
763.464	1352.34
763.648	1356.44
763.831	1329.81
764.015	1329.81
764.198	1358.49
764.381	1391.25
764.564	1403.54
764.748	1338.01
764.931	1243.8
765.114	1247.9
765.297	1327.77
765.481	1260.18
765.664	1256.09
765.847	1211.03
766.03	1323.67
766.213	1307.29
766.397	1372.82
766.58	1172.12
766.763	1266.33
766.946	1211.03
767.129	1251.99
767.312	1229.46
767.495	1196.7
767.678	1149.59
767.861	1157.79
768.044	1139.35
768.227	1131.16
768.41	1116.83
768.593	1200.79
768.776	1270.42
768.959	1161.88
769.142	1239.7
769.324	1256.09
769.507	1198.74
769.69	1159.83
769.873	1170.07
770.056	1262.23
770.239	1211.03
770.421	1131.16
770.604	1137.31
770.787	1129.11
770.97	1202.84
771.152	1051.29
771.335	1112.73
771.518	1180.31
771.7	1067.67
771.883	1043.1
772.066	1028.76
772.248	1008.28
772.431	1079.96
772.613	1049.24
772.796	1008.28
772.978	1096.35
773.161	1061.53
773.343	1094.3
773.526	975.52
773.708	957.08
773.891	938.65
774.073	1071.77
774.256	975.52
774.438	1014.43
774.621	1059.48
774.803	961.18
774.985	1039
775.168	946.84
775.35	942.75
775.532	996
775.715	905.88
775.897	942.75
776.079	940.7
776.261	973.47
776.444	840.35
776.626	936.6
776.808	932.51
776.99	819.87
777.173	803.49
777.355	836.25
777.537	830.11
777.719	817.82
777.901	864.93
778.083	891.55
778.265	879.26
778.447	897.69
778.629	897.69
778.811	856.73
778.993	815.77
779.175	834.21
779.357	879.26
779.539	703.14
779.721	854.69
779.903	791.2
780.085	725.66
780.267	776.86
780.449	705.18
780.631	819.87
780.812	809.63
780.994	760.48
781.176	776.86
781.358	713.38
781.54	737.95
781.721	701.09
781.903	729.76
782.085	647.84
782.267	596.64
782.448	666.27
782.63	656.03
782.812	633.5
782.993	680.61
783.175	627.36
783.357	660.13
783.538	664.22
783.72	670.37
783.901	672.42
784.083	570.02
784.264	582.31
784.446	613.03
784.627	617.12
784.809	662.18
784.99	588.45
785.172	647.84
785.353	547.49
785.535	629.41
785.716	555.68
785.897	549.54
786.079	586.4
786.26	584.35
786.441	621.22
786.623	506.53
786.804	535.2
786.985	533.15
787.167	533.15
787.348	596.64
787.529	543.39
787.71	555.68
787.891	559.78
788.073	535.2
788.254	529.06
788.435	549.54
788.616	563.87
788.797	500.39
788.978	520.87
789.159	451.24
789.34	512.67
789.522	455.33
789.703	426.66
789.884	524.96
790.065	498.34
790.246	518.82
790.427	512.67
790.607	426.66
790.788	477.86
790.969	516.77
791.15	445.09
791.331	418.47
791.512	408.23
791.693	438.95
791.874	473.76
792.054	406.18
792.235	402.08
792.416	402.08
792.597	477.86
792.778	412.32
792.958	361.13
793.139	459.43
793.32	377.51
793.5	361.13
793.681	418.47
793.862	426.66
794.042	488.1
794.223	475.81
794.404	369.32
794.584	365.22
794.765	381.6
794.945	352.93
795.126	432.8
795.306	367.27
795.487	375.46
795.667	369.32
795.848	400.04
796.028	365.22
796.209	387.75
796.389	324.26
796.57	412.32
796.75	416.42
796.93	416.42
797.111	363.17
797.291	389.8
797.471	346.79
797.652	389.8
797.832	350.89
798.012	408.23
798.192	268.97
798.373	354.98
798.553	377.51
798.733	375.46
798.913	238.25
799.093	301.73
799.274	330.41
799.454	340.65
799.634	330.41
799.814	326.31
799.994	318.12
800.174	291.49
800.354	434.85
800.534	217.77
800.714	346.79
800.894	178.86
801.074	297.64
801.254	279.21
801.434	299.69
801.614	328.36
801.794	299.69
801.974	664.22
802.154	303.78
802.334	258.73
802.514	293.54
802.693	281.25
802.873	307.88
803.053	314.02
803.233	250.53
803.413	346.79
803.592	357.03
803.772	332.45
803.952	262.82
804.131	254.63
804.311	277.16
804.491	240.3
804.67	219.82
804.85	264.87
805.03	273.06
805.209	238.25
805.389	242.34
805.568	271.01
805.748	240.3
805.928	225.96
806.107	279.21
806.287	250.53
806.466	225.96
806.646	242.34
806.825	221.86
807.004	258.73
807.184	238.25
807.363	246.44
807.543	209.58
807.722	221.86
807.901	213.67
808.081	268.97
808.26	189.1
808.439	225.96
808.619	230.06
808.798	201.38
808.977	240.3
809.156	225.96
809.336	230.06
809.515	221.86
809.694	211.62
809.873	250.53
810.052	201.38
810.231	309.93
810.411	256.68
810.59	281.25
810.769	201.38
810.948	217.77
811.127	256.68
811.306	252.58
811.485	189.1
811.664	271.01
811.843	262.82
812.022	252.58
812.201	211.62
812.38	182.95
812.559	201.38
812.737	170.66
812.916	236.2
813.095	164.52
813.274	260.77
813.453	191.14
813.632	172.71
813.811	238.25
813.989	139.94
814.168	203.43
814.347	154.28
814.526	125.61
814.704	154.28
814.883	217.77
815.062	199.34
815.24	119.46
815.419	158.38
815.598	170.66
815.776	174.76
815.955	168.62
816.133	164.52
816.312	232.1
816.49	166.57
816.669	103.08
816.847	158.38
817.026	160.42
817.204	189.1
817.383	137.9
817.561	135.85
817.74	236.2
817.918	207.53
818.097	156.33
818.275	135.85
818.453	219.82
818.632	164.52
818.81	182.95
818.988	221.86
819.167	154.28
819.345	90.79
819.523	127.66
819.701	189.1
819.879	191.14
820.058	223.91
820.236	264.87
820.414	172.71
820.592	123.56
820.77	180.9
820.948	162.47
821.127	125.61
821.305	174.76
821.483	199.34
821.661	191.14
821.839	174.76
822.017	58.03
822.195	152.23
822.373	164.52
822.551	150.18
822.729	162.47
822.907	105.13
823.085	78.51
823.262	125.61
823.44	62.12
823.618	199.34
823.796	193.19
823.974	60.07
824.152	115.37
824.329	168.62
824.507	217.77
824.685	207.53
824.863	51.88
825.04	117.42
825.218	125.61
825.396	185
825.574	117.42
825.751	154.28
825.929	185
826.107	197.29
826.284	209.58
826.462	119.46
826.639	113.32
826.817	125.61
826.994	185
827.172	141.99
827.349	201.38
827.527	103.08
827.704	146.09
827.882	119.46
828.059	84.65
828.237	105.13
828.414	115.37
828.591	55.98
828.769	135.85
828.946	113.32
829.124	119.46
829.301	144.04
829.478	111.27
829.655	170.66
829.833	94.89
830.01	76.46
830.187	82.6
830.364	101.03
830.542	125.61
830.719	207.53
830.896	119.46
831.073	53.93
831.25	94.89
831.427	146.09
831.604	135.85
831.782	84.65
831.959	125.61
832.136	94.89
832.313	119.46
832.49	10.92
832.667	113.32
832.844	101.03
833.021	203.43
833.198	121.51
833.374	129.7
833.551	144.04
833.728	137.9
833.905	49.83
834.082	23.21
834.259	117.42
834.436	207.53
834.612	58.03
834.789	146.09
834.966	98.99
835.143	101.03
835.319	-17.75
835.496	109.23
835.673	88.75
835.85	121.51
836.026	66.22
836.203	133.8
836.38	90.79
836.556	117.42
836.733	58.03
836.909	80.55
837.086	72.36
837.262	105.13
837.439	53.93
837.616	96.94
837.792	107.18
837.968	119.46
838.145	72.36
838.321	70.31
838.498	74.41
838.674	25.26
838.851	29.35
839.027	101.03
839.203	10.92
839.38	135.85
839.556	78.51
839.732	117.42
839.909	66.22
840.085	31.4
840.261	105.13
840.437	41.64
840.614	101.03
840.79	129.7
840.966	35.5
841.142	109.23
841.318	90.79
841.494	62.12
841.671	8.87
841.847	125.61
842.023	31.4
842.199	78.51
842.375	125.61
842.551	47.79
842.727	10.92
842.903	21.16
843.079	43.69
843.255	58.03
843.431	64.17
843.607	90.79
843.783	74.41
843.959	68.27
844.134	35.5
844.31	137.9
844.486	2.73
844.662	98.99
844.838	64.17
845.013	113.32
845.189	37.55
845.365	109.23
845.541	82.6
845.716	51.88
845.892	135.85
846.068	47.79
846.244	41.64
846.419	88.75
846.595	76.46
846.77	4.78
846.946	92.84
847.122	70.31
847.297	-25.94
847.473	105.13
847.648	25.26
847.824	72.36
847.999	43.69
848.175	51.88
848.35	23.21
848.526	131.75
848.701	35.5
848.876	82.6
849.052	31.4
849.227	101.03
849.403	15.02
849.578	88.75
849.753	51.88
849.929	90.79
850.104	-1.37
850.279	39.59
850.454	68.27
850.63	64.17
850.805	135.85
850.98	76.46
851.155	49.83
851.33	53.93
851.505	39.59
851.681	123.56
851.856	55.98
852.031	33.45
852.206	98.99
852.381	19.11
852.556	53.93
852.731	39.59
852.906	55.98
853.081	45.74
853.256	29.35
853.431	80.55
853.606	21.16
853.781	-9.56
853.956	45.74
854.131	66.22
854.305	74.41
854.48	39.59
854.655	58.03
854.83	66.22
855.005	-17.75
855.18	53.93
855.354	55.98
855.529	115.37
855.704	45.74
855.879	90.79
856.053	31.4
856.228	49.83
856.403	62.12
856.577	64.17
856.752	17.07
856.926	76.46
857.101	41.64
857.276	80.55
857.45	90.79
857.625	37.55
857.799	60.07
857.974	76.46
858.148	45.74
858.323	19.11
858.497	96.94
858.672	-11.61
858.846	49.83
859.02	88.75
859.195	86.7
859.369	51.88
859.543	92.84
859.718	66.22
859.892	49.83
860.066	94.89
860.241	-15.7
860.415	25.26
860.589	21.16
860.763	49.83
860.938	-11.61
861.112	58.03
861.286	-1.37
861.46	-25.94
861.634	31.4
861.808	55.98
861.982	-7.51
862.157	0.68
862.331	43.69
862.505	60.07
862.679	-17.75
862.853	-3.41
863.027	33.45
863.201	123.56
863.375	47.79
863.549	82.6
863.722	72.36
863.896	103.08
864.07	37.55
864.244	-38.23
864.418	58.03
864.592	35.5
864.766	72.36
864.939	66.22
865.113	-3.41
865.287	21.16
865.461	41.64
865.634	82.6
865.808	25.26
865.982	-5.46
866.156	55.98
866.329	-9.56
866.503	84.65
866.676	82.6
866.85	-32.08
867.024	55.98
867.197	-1.37
867.371	33.45
867.544	17.07
867.718	6.83
867.891	8.87
868.065	70.31
868.238	58.03
868.412	76.46
868.585	17.07
868.759	45.74
868.932	-21.84
869.105	90.79
869.279	23.21
869.452	4.78
869.625	15.02
869.799	31.4
869.972	17.07
870.145	-1.37
870.319	33.45
870.492	10.92
870.665	-38.23
870.838	62.12
871.011	-25.94
871.185	4.78
871.358	78.51
871.531	12.97
871.704	58.03
871.877	-13.65
872.05	31.4
872.223	12.97
872.396	-7.51
872.569	74.41
872.742	-11.61
872.915	-17.75
873.088	-1.37
873.261	-36.18
873.434	90.79
873.607	25.26
873.78	35.5
873.953	-1.37
874.126	33.45
874.299	74.41
874.471	27.31
874.644	88.75
874.817	-11.61
874.99	21.16
875.163	12.97
875.335	12.97
875.508	29.35
875.681	55.98
875.853	49.83
876.026	-23.89
876.199	17.07
876.371	62.12
876.544	-23.89
876.717	17.07
876.889	51.88
877.062	-11.61
877.234	-30.04
877.407	35.5
877.579	82.6
877.752	17.07
877.924	66.22
878.097	109.23
878.269	60.07
878.442	-1.37
878.614	51.88
878.786	19.11
878.959	82.6
879.131	-15.7
879.303	4.78
879.476	21.16
879.648	76.46
879.82	60.07
879.993	0.68
880.165	66.22
880.337	27.31
880.509	0.68
880.681	-1.37
880.854	80.55
881.026	12.97
881.198	15.02
881.37	41.64
881.542	0.68
881.714	21.16
881.886	-19.8
882.058	27.31
882.23	-40.28
882.402	17.07
882.574	27.31
882.746	23.21
882.918	45.74
883.09	4.78
883.262	-38.23
883.434	53.93
883.606	-30.04
883.778	-1.37
883.95	39.59
884.122	58.03
884.293	23.21
884.465	-23.89
884.637	-1.37
884.809	-66.9
884.98	12.97
885.152	-1.37
885.324	64.17
885.496	-25.94
885.667	-66.9
885.839	8.87
886.011	25.26
886.182	29.35
886.354	8.87
886.525	-32.08
886.697	-3.41
886.869	4.78
887.04	25.26
887.212	31.4
887.383	98.99
887.555	27.31
887.726	2.73
887.897	-38.23
888.069	8.87
888.24	-7.51
888.412	6.83
888.583	-11.61
888.754	15.02
888.926	-23.89
889.097	86.7
889.268	-40.28
889.44	49.83
889.611	-9.56
889.782	-40.28
889.953	-71
890.125	64.17
890.296	23.21
890.467	-34.13
890.638	8.87
890.809	-3.41
890.98	-3.41
891.151	-11.61
891.323	-19.8
891.494	49.83
891.665	39.59
891.836	29.35
892.007	-17.75
892.178	-7.51
892.349	82.6
892.52	-17.75
892.691	37.55
892.862	4.78
893.032	-15.7
893.203	105.13
893.374	8.87
893.545	68.27
893.716	-27.99
893.887	86.7
894.057	43.69
894.228	41.64
894.399	62.12
894.57	58.03
894.74	15.02
894.911	-3.41
895.082	-32.08
895.253	-1.37
895.423	-19.8
895.594	8.87
895.764	19.11
895.935	-32.08
896.106	53.93
896.276	2.73
896.447	27.31
896.617	53.93
896.788	45.74
896.958	-19.8
897.129	29.35
897.299	-19.8
897.47	74.41
897.64	37.55
897.81	25.26
897.981	27.31
898.151	-5.46
898.322	94.89
898.492	10.92
898.662	-5.46
898.832	10.92
899.003	-17.75
899.173	49.83
899.343	-3.41
899.513	62.12
