Data from USB4F104151__8__11-44-26-674.txt Node

Date: Fri Mar 14 11:44:26 EDT 2025
User: louis
Spectrometer: USB4F10415
Trigger mode: 4
Integration Time (sec): 2.000000E-2
Scans to average: 1
Electric dark correction enabled: true
Nonlinearity correction enabled: false
Boxcar width: 0
XAxis mode: Wavelengths
Number of Pixels in Spectrum: 3648
>>>>>Begin Spectral Data<<<<<
178.204	-68.27
178.424	-68.27
178.644	-68.27
178.864	-168.62
179.084	-72.36
179.304	34.13
179.524	66.9
179.744	15.7
179.964	-74.41
180.184	-51.88
180.404	-10.92
180.624	-29.35
180.844	36.18
181.064	-27.31
181.283	13.65
181.503	-17.07
181.723	44.37
181.943	-58.03
182.163	130.39
182.383	40.28
182.602	-6.83
182.822	71
183.042	32.08
183.262	19.8
183.482	111.96
183.701	25.94
183.921	48.47
184.141	-55.98
184.361	79.19
184.58	23.89
184.8	17.75
185.02	-2.73
185.239	93.52
185.459	36.18
185.679	91.48
185.898	-70.31
186.118	54.61
186.338	-17.07
186.557	46.42
186.777	17.75
186.997	30.04
187.216	-21.16
187.436	-45.74
187.655	15.7
187.875	58.71
188.095	-41.64
188.314	48.47
188.534	5.46
188.753	-58.03
188.973	64.85
189.192	-51.88
189.412	56.66
189.631	48.47
189.851	48.47
190.07	68.95
190.29	-4.78
190.509	48.47
190.729	-6.83
190.948	7.51
191.168	101.72
191.387	71
191.607	13.65
191.826	54.61
192.045	-6.83
192.265	15.7
192.484	17.75
192.704	-27.31
192.923	38.23
193.142	89.43
193.362	13.65
193.581	73.04
193.8	42.32
194.02	79.19
194.239	38.23
194.458	95.57
194.678	-6.83
194.897	46.42
195.116	23.89
195.335	50.52
195.555	17.75
195.774	83.28
195.993	17.75
196.212	5.46
196.432	30.04
196.651	48.47
196.87	64.85
197.089	62.8
197.308	40.28
197.528	5.46
197.747	-12.97
197.966	-49.83
198.185	17.75
198.404	5.46
198.623	71
198.842	66.9
199.062	9.56
199.281	85.33
199.5	62.8
199.719	-6.83
199.938	21.85
200.157	27.99
200.376	58.71
200.595	42.32
200.814	71
201.033	7.51
201.252	-43.69
201.471	32.08
201.69	83.28
201.909	68.95
202.128	1.37
202.347	-0.68
202.566	30.04
202.785	7.51
203.004	-60.07
203.223	15.7
203.442	-43.69
203.661	11.61
203.879	62.8
204.098	36.18
204.317	97.62
204.536	54.61
204.755	83.28
204.974	-39.59
205.193	21.85
205.411	73.04
205.63	-8.87
205.849	-2.73
206.068	21.85
206.287	27.99
206.505	36.18
206.724	-19.11
206.943	-12.97
207.162	27.99
207.381	23.89
207.599	1.37
207.818	25.94
208.037	3.41
208.255	30.04
208.474	50.52
208.693	36.18
208.911	81.24
209.13	-2.73
209.349	73.04
209.567	19.8
209.786	111.96
210.005	25.94
210.223	93.52
210.442	73.04
210.661	7.51
210.879	19.8
211.098	17.75
211.316	-51.88
211.535	7.51
211.753	-4.78
211.972	17.75
212.191	5.46
212.409	56.66
212.628	52.56
212.846	40.28
213.065	-17.07
213.283	64.85
213.502	21.85
213.72	13.65
213.938	3.41
214.157	23.89
214.375	19.8
214.594	17.75
214.812	7.51
215.031	48.47
215.249	-10.92
215.467	17.75
215.686	-43.69
215.904	-0.68
216.122	1.37
216.341	52.56
216.559	62.8
216.778	-15.02
216.996	56.66
217.214	9.56
217.432	-53.93
217.651	48.47
217.869	56.66
218.087	27.99
218.306	5.46
218.524	46.42
218.742	48.47
218.96	60.76
219.179	27.99
219.397	27.99
219.615	17.75
219.833	128.34
220.051	68.95
220.27	9.56
220.488	73.04
220.706	-17.07
220.924	114
221.142	25.94
221.36	54.61
221.578	48.47
221.796	30.04
222.015	75.09
222.233	-17.07
222.451	60.76
222.669	-29.35
222.887	107.86
223.105	15.7
223.323	34.13
223.541	9.56
223.759	50.52
223.977	27.99
224.195	38.23
224.413	60.76
224.631	34.13
224.849	11.61
225.067	3.41
225.285	25.94
225.503	-21.16
225.721	-8.87
225.939	38.23
226.157	34.13
226.375	91.48
226.592	21.85
226.81	42.32
227.028	25.94
227.246	91.48
227.464	-15.02
227.682	-29.35
227.9	32.08
228.117	56.66
228.335	73.04
228.553	-4.78
228.771	-2.73
228.989	-0.68
229.206	-43.69
229.424	34.13
229.642	-31.4
229.86	-33.45
230.077	19.8
230.295	48.47
230.513	13.65
230.731	83.28
230.948	126.29
231.166	9.56
231.384	30.04
231.601	-17.07
231.819	60.76
232.037	64.85
232.254	9.56
232.472	-8.87
232.689	-12.97
232.907	3.41
233.125	42.32
233.342	3.41
233.56	40.28
233.777	-15.02
233.995	-21.16
234.213	-8.87
234.43	58.71
234.648	30.04
234.865	-23.21
235.083	23.89
235.3	126.29
235.518	34.13
235.735	77.14
235.953	42.32
236.17	-10.92
236.388	-2.73
236.605	48.47
236.822	34.13
237.04	81.24
237.257	27.99
237.475	21.85
237.692	60.76
237.909	-6.83
238.127	38.23
238.344	-2.73
238.562	42.32
238.779	-68.27
238.996	23.89
239.214	7.51
239.431	89.43
239.648	-33.45
239.865	-8.87
240.083	99.67
240.3	21.85
240.517	21.85
240.735	38.23
240.952	-17.07
241.169	44.37
241.386	42.32
241.603	38.23
241.821	30.04
242.038	66.9
242.255	-49.83
242.472	99.67
242.689	19.8
242.907	30.04
243.124	17.75
243.341	81.24
243.558	5.46
243.775	19.8
243.992	-47.79
244.209	89.43
244.426	34.13
244.643	77.14
244.86	9.56
245.078	27.99
245.295	36.18
245.512	95.57
245.729	52.56
245.946	52.56
246.163	15.7
246.38	71
246.597	19.8
246.814	68.95
247.031	44.37
247.248	30.04
247.464	93.52
247.681	56.66
247.898	-33.45
248.115	50.52
248.332	40.28
248.549	46.42
248.766	58.71
248.983	42.32
249.2	25.94
249.417	134.48
249.633	3.41
249.85	79.19
250.067	77.14
250.284	32.08
250.501	62.8
250.717	91.48
250.934	-6.83
251.151	38.23
251.368	-12.97
251.585	89.43
251.801	105.81
252.018	-12.97
252.235	9.56
252.451	-33.45
252.668	-4.78
252.885	58.71
253.102	83.28
253.318	40.28
253.535	-21.16
253.752	58.71
253.968	89.43
254.185	60.76
254.401	89.43
254.618	1.37
254.835	44.37
255.051	66.9
255.268	27.99
255.484	36.18
255.701	52.56
255.917	71
256.134	-35.5
256.351	99.67
256.567	-17.07
256.784	23.89
257	15.7
257.217	68.95
257.433	-0.68
257.65	66.9
257.866	50.52
258.082	64.85
258.299	-39.59
258.515	60.76
258.732	30.04
258.948	44.37
259.165	38.23
259.381	54.61
259.597	25.94
259.814	-35.5
260.03	21.85
260.246	-0.68
260.463	62.8
260.679	118.1
260.895	-12.97
261.112	-17.07
261.328	25.94
261.544	-39.59
261.761	142.68
261.977	40.28
262.193	54.61
262.409	66.9
262.626	56.66
262.842	15.7
263.058	-33.45
263.274	81.24
263.49	17.75
263.707	81.24
263.923	7.51
264.139	48.47
264.355	56.66
264.571	40.28
264.787	62.8
265.004	81.24
265.22	25.94
265.436	54.61
265.652	-58.03
265.868	42.32
266.084	-45.74
266.3	66.9
266.516	-2.73
266.732	44.37
266.948	1.37
267.164	25.94
267.38	109.91
267.596	73.04
267.812	-15.02
268.028	3.41
268.244	52.56
268.46	48.47
268.676	54.61
268.892	38.23
269.108	38.23
269.324	1.37
269.54	23.89
269.756	-10.92
269.972	-8.87
270.188	19.8
270.403	48.47
270.619	21.85
270.835	15.7
271.051	32.08
271.267	124.24
271.483	15.7
271.698	36.18
271.914	11.61
272.13	52.56
272.346	54.61
272.562	64.85
272.777	40.28
272.993	58.71
273.209	-6.83
273.425	48.47
273.64	48.47
273.856	27.99
274.072	68.95
274.287	5.46
274.503	54.61
274.719	99.67
274.934	21.85
275.15	56.66
275.366	-21.16
275.581	-10.92
275.797	23.89
276.012	83.28
276.228	60.76
276.444	21.85
276.659	-25.26
276.875	19.8
277.09	68.95
277.306	-2.73
277.521	60.76
277.737	58.71
277.952	87.38
278.168	60.76
278.383	52.56
278.599	77.14
278.814	60.76
279.03	56.66
279.245	30.04
279.461	48.47
279.676	30.04
279.892	-53.93
280.107	34.13
280.322	38.23
280.538	36.18
280.753	42.32
280.969	36.18
281.184	52.56
281.399	81.24
281.615	-8.87
281.83	1.37
282.045	-6.83
282.26	40.28
282.476	48.47
282.691	40.28
282.906	21.85
283.122	54.61
283.337	-6.83
283.552	30.04
283.767	-33.45
283.983	50.52
284.198	32.08
284.413	27.99
284.628	66.9
284.843	120.15
285.058	148.82
285.274	73.04
285.489	56.66
285.704	62.8
285.919	-8.87
286.134	13.65
286.349	1.37
286.564	58.71
286.779	68.95
286.995	21.85
287.21	27.99
287.425	79.19
287.64	-4.78
287.855	27.99
288.07	19.8
288.285	159.06
288.5	40.28
288.715	73.04
288.93	68.95
289.145	34.13
289.36	40.28
289.575	48.47
289.79	79.19
290.004	85.33
290.219	58.71
290.434	27.99
290.649	3.41
290.864	34.13
291.079	46.42
291.294	13.65
291.509	56.66
291.724	75.09
291.938	23.89
292.153	-2.73
292.368	-47.79
292.583	11.61
292.798	118.1
293.012	60.76
293.227	-82.6
293.442	-12.97
293.657	107.86
293.871	54.61
294.086	25.94
294.301	111.96
294.516	-53.93
294.73	-17.07
294.945	5.46
295.16	19.8
295.374	56.66
295.589	21.85
295.804	79.19
296.018	27.99
296.233	89.43
296.447	89.43
296.662	-41.64
296.877	71
297.091	1.37
297.306	64.85
297.52	60.76
297.735	34.13
297.949	68.95
298.164	32.08
298.378	40.28
298.593	-37.55
298.807	46.42
299.022	-29.35
299.236	71
299.451	32.08
299.665	34.13
299.88	44.37
300.094	52.56
300.309	79.19
300.523	5.46
300.737	71
300.952	3.41
301.166	52.56
301.381	-23.21
301.595	93.52
301.809	1.37
302.024	56.66
302.238	-41.64
302.452	64.85
302.667	32.08
302.881	58.71
303.095	19.8
303.309	27.99
303.524	62.8
303.738	79.19
303.952	-10.92
304.166	87.38
304.381	56.66
304.595	103.76
304.809	77.14
305.023	89.43
305.237	30.04
305.452	-12.97
305.666	83.28
305.88	30.04
306.094	101.72
306.308	-15.02
306.522	75.09
306.736	48.47
306.95	13.65
307.164	71
307.379	-8.87
307.593	40.28
307.807	50.52
308.021	91.48
308.235	27.99
308.449	25.94
308.663	34.13
308.877	58.71
309.091	64.85
309.305	52.56
309.519	40.28
309.733	52.56
309.947	46.42
310.161	54.61
310.374	-29.35
310.588	38.23
310.802	23.89
311.016	5.46
311.23	77.14
311.444	1.37
311.658	17.75
311.872	87.38
312.085	44.37
312.299	126.29
312.513	15.7
312.727	95.57
312.941	44.37
313.154	116.05
313.368	27.99
313.582	-15.02
313.796	52.56
314.009	30.04
314.223	46.42
314.437	111.96
314.651	62.8
314.864	7.51
315.078	46.42
315.292	56.66
315.505	19.8
315.719	-51.88
315.933	13.65
316.146	71
316.36	-17.07
316.573	81.24
316.787	-0.68
317.001	38.23
317.214	64.85
317.428	83.28
317.641	66.9
317.855	5.46
318.068	25.94
318.282	79.19
318.495	142.68
318.709	36.18
318.922	46.42
319.136	52.56
319.349	13.65
319.563	23.89
319.776	36.18
319.99	48.47
320.203	81.24
320.417	21.85
320.63	120.15
320.843	95.57
321.057	56.66
321.27	56.66
321.483	95.57
321.697	48.47
321.91	-8.87
322.124	68.95
322.337	42.32
322.55	21.85
322.763	89.43
322.977	95.57
323.19	3.41
323.403	13.65
323.617	30.04
323.83	52.56
324.043	103.76
324.256	15.7
324.469	-12.97
324.683	77.14
324.896	21.85
325.109	30.04
325.322	1.37
325.535	30.04
325.748	73.04
325.962	-10.92
326.175	64.85
326.388	48.47
326.601	-6.83
326.814	42.32
327.027	64.85
327.24	54.61
327.453	58.71
327.666	21.85
327.879	62.8
328.092	-35.5
328.305	15.7
328.518	93.52
328.731	-0.68
328.944	38.23
329.157	9.56
329.37	32.08
329.583	50.52
329.796	103.76
330.009	30.04
330.222	9.56
330.435	-37.55
330.648	64.85
330.861	11.61
331.073	85.33
331.286	11.61
331.499	91.48
331.712	36.18
331.925	27.99
332.138	30.04
332.35	111.96
332.563	1.37
332.776	71
332.989	36.18
333.202	32.08
333.414	105.81
333.627	87.38
333.84	42.32
334.053	79.19
334.265	36.18
334.478	32.08
334.691	36.18
334.903	-2.73
335.116	25.94
335.329	21.85
335.541	103.76
335.754	48.47
335.966	85.33
336.179	-10.92
336.392	30.04
336.604	77.14
336.817	122.2
337.029	21.85
337.242	91.48
337.454	-6.83
337.667	48.47
337.88	85.33
338.092	7.51
338.305	64.85
338.517	1.37
338.729	15.7
338.942	23.89
339.154	7.51
339.367	-21.16
339.579	77.14
339.792	30.04
340.004	27.99
340.217	105.81
340.429	62.8
340.641	111.96
340.854	11.61
341.066	34.13
341.278	66.9
341.491	40.28
341.703	68.95
341.915	-58.03
342.128	15.7
342.34	64.85
342.552	-17.07
342.764	48.47
342.977	36.18
343.189	54.61
343.401	27.99
343.613	46.42
343.826	93.52
344.038	85.33
344.25	87.38
344.462	-17.07
344.674	44.37
344.886	52.56
345.099	68.95
345.311	13.65
345.523	-6.83
345.735	54.61
345.947	34.13
346.159	79.19
346.371	54.61
346.583	62.8
346.795	93.52
347.007	-2.73
347.219	23.89
347.431	-25.26
347.643	73.04
347.855	36.18
348.067	17.75
348.279	54.61
348.491	21.85
348.703	97.62
348.915	93.52
349.127	66.9
349.339	93.52
349.551	30.04
349.763	81.24
349.975	44.37
350.187	17.75
350.399	79.19
350.61	95.57
350.822	73.04
351.034	73.04
351.246	64.85
351.458	32.08
351.669	161.11
351.881	81.24
352.093	97.62
352.305	40.28
352.517	-60.07
352.728	52.56
352.94	52.56
353.152	71
353.363	83.28
353.575	60.76
353.787	-10.92
353.999	21.85
354.21	66.9
354.422	56.66
354.633	60.76
354.845	73.04
355.057	44.37
355.268	91.48
355.48	87.38
355.692	34.13
355.903	77.14
356.115	38.23
356.326	32.08
356.538	107.86
356.749	50.52
356.961	9.56
357.172	73.04
357.384	7.51
357.595	68.95
357.807	21.85
358.018	7.51
358.23	114
358.441	93.52
358.653	5.46
358.864	15.7
359.075	25.94
359.287	42.32
359.498	46.42
359.709	32.08
359.921	46.42
360.132	58.71
360.344	77.14
360.555	40.28
360.766	85.33
360.977	87.38
361.189	19.8
361.4	50.52
361.611	27.99
361.823	15.7
362.034	75.09
362.245	-17.07
362.456	54.61
362.667	73.04
362.879	99.67
363.09	36.18
363.301	73.04
363.512	105.81
363.723	5.46
363.935	17.75
364.146	50.52
364.357	38.23
364.568	42.32
364.779	42.32
364.99	85.33
365.201	38.23
365.412	89.43
365.623	50.52
365.834	81.24
366.045	89.43
366.256	48.47
366.467	-23.21
366.678	109.91
366.889	-23.21
367.1	27.99
367.311	122.2
367.522	36.18
367.733	44.37
367.944	66.9
368.155	1.37
368.366	52.56
368.577	40.28
368.788	42.32
368.999	-51.88
369.209	101.72
369.42	71
369.631	48.47
369.842	103.76
370.053	34.13
370.264	118.1
370.474	66.9
370.685	66.9
370.896	27.99
371.107	46.42
371.317	54.61
371.528	11.61
371.739	71
371.95	75.09
372.16	48.47
372.371	5.46
372.582	66.9
372.792	40.28
373.003	99.67
373.214	99.67
373.424	17.75
373.635	-23.21
373.846	23.89
374.056	27.99
374.267	56.66
374.477	44.37
374.688	97.62
374.898	50.52
375.109	52.56
375.319	19.8
375.53	71
375.74	97.62
375.951	87.38
376.161	93.52
376.372	79.19
376.582	95.57
376.793	93.52
377.003	64.85
377.214	50.52
377.424	40.28
377.635	36.18
377.845	-12.97
378.055	34.13
378.266	44.37
378.476	85.33
378.686	64.85
378.897	3.41
379.107	103.76
379.317	60.76
379.528	89.43
379.738	71
379.948	36.18
380.158	46.42
380.369	103.76
380.579	54.61
380.789	79.19
380.999	105.81
381.21	114
381.42	48.47
381.63	111.96
381.84	116.05
382.05	64.85
382.261	38.23
382.471	71
382.681	107.86
382.891	126.29
383.101	23.89
383.311	50.52
383.521	52.56
383.731	107.86
383.941	30.04
384.151	42.32
384.361	122.2
384.571	81.24
384.781	109.91
384.991	109.91
385.201	54.61
385.411	36.18
385.621	107.86
385.831	85.33
386.041	-4.78
386.251	101.72
386.461	91.48
386.671	126.29
386.881	134.48
387.091	17.75
387.301	32.08
387.511	34.13
387.72	103.76
387.93	36.18
388.14	77.14
388.35	71
388.56	109.91
388.769	89.43
388.979	83.28
389.189	97.62
389.399	105.81
389.609	103.76
389.818	91.48
390.028	34.13
390.238	42.32
390.447	77.14
390.657	99.67
390.867	144.72
391.076	93.52
391.286	148.82
391.496	114
391.705	77.14
391.915	77.14
392.125	101.72
392.334	66.9
392.544	144.72
392.753	54.61
392.963	46.42
393.172	85.33
393.382	62.8
393.591	118.1
393.801	64.85
394.01	105.81
394.22	111.96
394.429	130.39
394.639	64.85
394.848	116.05
395.058	124.24
395.267	128.34
395.477	122.2
395.686	134.48
395.895	171.35
396.105	169.3
396.314	56.66
396.524	83.28
396.733	58.71
396.942	93.52
397.152	163.15
397.361	79.19
397.57	109.91
397.78	48.47
397.989	56.66
398.198	167.25
398.407	87.38
398.617	101.72
398.826	118.1
399.035	157.01
399.244	138.58
399.453	167.25
399.663	62.8
399.872	132.44
400.081	187.73
400.29	126.29
400.499	81.24
400.708	130.39
400.917	128.34
401.127	157.01
401.336	161.11
401.545	152.91
401.754	193.87
401.963	179.54
402.172	114
402.381	173.39
402.59	128.34
402.799	152.91
403.008	175.44
403.217	202.07
403.426	140.63
403.635	58.71
403.844	101.72
404.053	189.78
404.262	124.24
404.471	224.59
404.68	136.53
404.888	173.39
405.097	171.35
405.306	175.44
405.515	159.06
405.724	154.96
405.933	251.22
406.142	210.26
406.35	283.99
406.559	208.21
406.768	214.35
406.977	249.17
407.185	318.8
407.394	302.42
407.603	216.4
407.812	243.03
408.02	316.75
408.229	257.36
408.438	320.85
408.646	314.7
408.855	322.9
409.064	347.47
409.272	404.82
409.481	421.2
409.69	292.18
409.898	376.14
410.107	435.53
410.315	509.26
410.524	382.29
410.733	458.06
410.941	507.21
411.15	507.21
411.358	537.93
411.567	517.45
411.775	519.5
411.984	484.69
412.192	515.41
412.401	613.71
412.609	632.14
412.818	601.42
413.026	701.77
413.234	707.91
413.443	601.42
413.651	654.67
413.86	732.49
414.068	845.13
414.276	777.55
414.485	855.37
414.693	875.85
414.901	877.9
415.11	910.66
415.318	922.95
415.526	998.73
415.734	1049.93
415.943	1090.88
416.151	1082.69
416.359	1111.36
416.567	1111.36
416.776	1252.67
416.984	1205.57
417.192	1260.87
417.4	1310.02
417.608	1269.06
417.817	1383.74
418.025	1314.11
418.233	1627.45
418.441	1561.92
418.649	1547.58
418.857	1742.14
419.065	1719.61
419.273	1811.77
419.481	1846.59
419.689	1930.55
419.897	2026.81
420.105	2069.81
420.313	2114.87
420.521	2178.36
420.729	2159.92
420.937	2274.61
421.145	2428.21
421.353	2475.31
421.561	2559.28
421.769	2571.57
421.977	2802.99
422.185	2733.36
422.393	2923.82
422.601	3151.14
422.809	2989.35
423.017	3114.28
423.224	3163.43
423.432	3226.92
423.64	3386.66
423.848	3685.66
424.056	3712.28
424.263	3904.79
424.471	3765.53
424.679	3714.33
424.887	4279.57
425.094	4295.96
425.302	4349.2
425.51	4320.53
425.718	4525.33
425.925	4492.56
426.133	4658.45
426.341	4998.41
426.548	5143.81
426.756	5387.52
426.964	5352.71
427.171	5694.72
427.379	5946.62
427.586	5858.56
427.794	6251.77
428.001	6352.12
428.209	6687.98
428.417	6540.53
428.624	6855.92
428.832	7042.28
429.039	6974.7
429.247	6888.68
429.454	7498.98
429.662	8213.72
429.869	7703.78
430.076	8256.73
430.284	7937.24
430.491	8262.87
430.699	8895.69
430.906	8654.03
431.114	8834.25
431.321	9143.5
431.528	9225.42
431.736	9876.67
431.943	10478.77
432.15	10210.49
432.358	10357.94
432.565	10775.73
432.772	10669.23
432.979	11353.26
433.187	11486.37
433.394	11844.77
433.601	12362.9
433.808	12528.79
434.016	12371.1
434.223	12676.24
434.43	13515.91
434.637	13563.01
434.844	14288
435.052	14496.89
435.259	14361.72
435.466	14367.87
435.673	14255.23
435.88	15393.9
436.087	16188.51
436.294	16168.03
436.501	16075.87
436.708	16086.11
436.915	16706.65
437.122	17544.27
437.329	17362
437.537	18013.25
437.743	18168.9
437.95	18009.15
438.157	18943.03
438.364	19790.89
438.571	19674.15
438.778	19741.74
438.985	21576.72
439.192	20319.26
439.399	21214.23
439.606	20923.41
439.813	21984.26
440.02	23497.71
440.227	23223.28
440.433	22934.52
440.64	23462.9
440.847	23419.89
441.054	24015.85
441.261	25414.61
441.467	25478.1
441.674	25725.9
441.881	26618.82
442.088	26471.36
442.294	26235.84
442.501	27089.85
442.708	27597.74
442.914	28654.5
443.121	29768.59
443.328	28916.64
443.534	31202.17
443.741	30086.03
443.948	29770.64
444.154	32174.95
444.361	32037.74
444.568	32070.51
444.774	32244.59
444.981	32328.55
445.187	33186.65
445.394	34986.82
445.6	34239.31
445.807	37389.08
446.013	36078.38
446.22	36612.9
446.426	38048.53
446.633	38073.1
446.839	40010.48
447.046	38253.33
447.252	40385.26
447.459	40170.22
447.665	39932.66
447.871	41552.6
448.078	43528.89
448.284	41515.74
448.491	42863.3
448.697	44266.16
448.903	44735.15
449.11	45333.15
449.316	44352.18
449.522	45062.82
449.728	46531.22
449.935	46901.9
450.141	46394
450.347	47792.76
450.553	46432.91
450.76	47207.04
450.966	48296.56
451.172	47866.49
451.378	48927.34
451.584	47800.96
451.791	49128.04
451.997	49420.9
452.203	49828.44
452.409	49699.42
452.615	49521.25
452.821	47659.65
453.027	47235.72
453.233	49545.83
453.44	47665.79
453.646	48036.47
453.852	48462.45
454.058	49121.9
454.264	47745.66
454.47	48630.38
454.676	47477.38
454.882	49261.16
455.088	45048.49
455.294	46006.94
455.5	46332.56
455.705	46498.45
455.911	45034.15
456.117	44071.6
456.323	43782.84
456.529	41192.16
456.735	42889.93
456.941	41906.9
457.147	41290.46
457.352	40366.83
457.558	39545.59
457.764	39994.1
457.97	38986.5
458.176	38365.96
458.381	38222.61
458.587	36440.87
458.793	36094.77
458.999	34454.34
459.204	36772.64
459.41	36111.15
459.616	33368.92
459.821	33262.43
460.027	33313.62
460.233	32600.93
460.438	30882.69
460.644	31572.85
460.85	30028.68
461.055	29756.3
461.261	29582.23
461.466	27491.25
461.672	26555.33
461.878	28449.7
462.083	26612.67
462.289	26442.69
462.494	25787.34
462.7	24761.31
462.905	24048.61
463.111	24800.22
463.316	24927.19
463.522	24187.88
463.727	24247.27
463.932	24390.63
464.138	24134.63
464.343	24488.93
464.549	23340.02
464.754	24095.72
464.959	23905.26
465.165	23804.91
465.37	22987.77
465.575	22187.01
465.781	23108.6
465.986	23491.57
466.191	22684.67
466.397	22320.13
466.602	20911.13
466.807	21847.05
467.012	21824.52
467.218	21433.36
467.423	21312.53
467.628	21183.51
467.833	22307.84
468.038	21500.94
468.244	20898.84
468.449	21785.61
468.654	20806.68
468.859	20796.44
469.064	20786.2
469.269	19643.43
469.474	19975.2
469.679	20556.83
469.885	19782.7
470.09	20272.16
470.295	19754.02
470.5	19577.9
470.705	19629.1
470.91	19229.74
471.115	19010.61
471.32	19475.5
471.525	19481.64
471.73	18771
471.935	18742.33
472.139	18009.15
472.344	18318.4
472.549	18146.37
472.754	18111.55
472.959	17515.59
473.164	17396.81
473.369	16856.15
473.574	17468.49
473.778	17312.85
473.983	17138.77
474.188	17171.54
474.393	16518.23
474.598	16731.22
474.802	16219.23
475.007	16321.63
475.212	16049.25
475.417	15746.15
475.621	15422.57
475.826	15711.33
476.031	15441
476.235	15162.48
476.44	15465.58
476.645	15035.5
476.849	15002.74
477.054	15062.13
477.259	14761.08
477.463	14773.36
477.668	14247.04
477.872	14658.68
478.077	14173.31
478.282	13821.06
478.486	13794.43
478.691	13548.68
478.895	13720.71
479.1	13466.76
479.304	13565.06
479.509	13229.2
479.713	13558.92
479.918	13364.36
480.122	13048.97
480.326	13034.64
480.531	13083.79
480.735	12840.08
480.94	12795.03
481.144	13149.32
481.348	12541.08
481.553	12881.04
481.757	12557.46
481.961	12582.04
482.166	12917.9
482.37	12676.24
482.574	12471.45
482.778	12381.34
482.983	12663.96
483.187	12653.72
483.391	12674.2
483.595	12381.34
483.8	12569.75
484.004	12575.89
484.208	12833.94
484.412	12385.43
484.616	12192.92
484.821	12641.43
485.025	12342.42
485.229	12706.96
485.433	12389.53
485.637	12410.01
485.841	12305.56
486.045	12434.58
486.249	12430.49
486.453	12393.62
486.657	12475.54
486.861	12612.76
487.065	12029.09
487.269	12489.88
487.473	12260.51
487.677	12352.66
487.881	12594.33
488.085	12485.78
488.289	12258.46
488.493	12410.01
488.697	12606.61
488.901	12364.95
489.105	12457.11
489.309	12561.56
489.512	12500.12
489.716	12418.2
489.92	12661.91
490.124	12582.04
490.328	12778.64
490.531	12735.64
490.735	12922
490.939	12821.65
491.143	12682.39
491.346	12635.28
491.55	13091.98
491.754	13061.26
491.958	12868.75
492.161	13018.25
492.365	13089.93
492.569	13071.5
492.772	12903.57
492.976	13184.14
493.18	13198.48
493.383	13317.26
493.587	13704.32
493.79	13603.97
493.994	13431.94
494.197	13573.25
494.401	13735.04
494.605	13712.52
494.808	13851.78
495.012	13862.02
495.215	14177.41
495.419	14437.5
495.622	14083.2
495.825	14269.56
496.029	14369.91
496.232	14611.57
496.436	14486.65
496.639	15119.47
496.843	14904.43
497.046	15160.43
497.249	15307.88
497.453	15365.23
497.656	15486.06
497.859	15488.11
498.063	15760.48
498.266	16221.28
498.469	15819.88
498.673	16231.52
498.876	16370.78
499.079	16561.24
499.282	16573.53
499.485	16919.64
499.689	17151.06
499.892	17206.35
500.095	17155.15
500.298	17753.16
500.501	17405
500.705	18033.73
500.908	17984.58
501.111	18379.84
501.314	18445.37
501.517	18420.8
501.72	19018.8
501.923	18865.21
502.126	19153.97
502.329	19688.49
502.532	19989.54
502.735	19733.54
502.938	20321.31
503.141	20143.14
503.344	20460.57
503.547	20464.67
503.75	20988.95
503.953	21324.82
504.156	21269.52
504.359	21554.19
504.562	21464.08
504.765	22119.43
504.968	22424.58
505.17	22543.36
505.373	22553.6
505.576	22789.11
505.779	23208.95
505.982	23307.25
506.185	23892.97
506.387	23614.44
506.59	24218.6
506.793	24550.37
506.996	24210.4
507.198	24998.87
507.401	24824.79
507.604	25367.51
507.807	25500.62
508.009	25838.54
508.212	25975.75
508.415	26461.12
508.617	26375.11
508.82	26549.18
509.022	26831.8
509.225	27143.1
509.428	27182.01
509.63	27716.53
509.833	27765.68
510.035	28435.36
510.238	28224.42
510.44	28812.19
510.643	28844.96
510.845	29170.58
511.048	29238.17
511.25	29551.51
511.453	29748.11
511.655	31005.56
511.858	30362.5
512.06	30749.57
512.262	30948.22
512.465	30897.02
512.667	31361.91
512.87	31925.1
513.072	31941.49
513.274	32635.75
513.477	32371.56
513.679	32901.98
513.881	33330.01
514.084	33360.73
514.286	33481.56
514.488	33940.3
514.69	34956.1
514.893	34792.26
515.095	34759.49
515.297	35011.39
515.499	34949.95
515.701	35703.6
515.904	35722.04
516.106	36236.08
516.308	36518.7
516.51	37221.15
516.712	36819.75
516.914	37159.71
517.116	37765.91
517.318	37892.88
517.52	38437.64
517.722	38026
517.925	38533.9
518.127	38613.77
518.329	39037.7
518.531	39234.3
518.733	39938.8
518.935	40254.19
519.136	39965.43
519.338	40858.34
519.54	40870.63
519.742	41274.08
519.944	41206.5
520.146	42287.82
520.348	41960.15
520.55	42074.84
520.752	42070.74
520.954	42910.41
521.155	42509
521.357	42988.23
521.559	43080.39
521.761	43973.3
521.963	44049.08
522.164	44706.48
522.366	44094.13
522.568	44464.81
522.77	44624.56
522.971	45204.13
523.173	45118.12
523.375	45683.36
523.576	45707.93
523.778	45863.58
523.98	46088.85
524.181	45986.46
524.383	45857.43
524.584	46897.8
524.786	46617.23
524.988	46680.72
525.189	47102.6
525.391	47532.67
525.592	47489.66
525.794	47919.74
525.995	47680.13
526.197	47825.53
526.398	47901.31
526.6	48667.25
526.801	47796.86
527.003	48886.38
527.204	48806.51
527.406	49123.94
527.607	48820.84
527.808	49554.02
528.01	48337.52
528.211	49007.21
528.412	49664.61
528.614	49377.89
528.815	49767.01
529.016	49939.04
529.218	49476.19
529.419	49793.63
529.62	50004.57
529.822	49742.43
530.023	49680.99
530.224	49932.89
530.425	49625.7
530.626	49754.72
530.828	49455.71
531.029	50881.1
531.23	49668.7
531.431	50279
531.632	50317.91
531.833	50520.66
532.035	50197.08
532.236	50530.9
532.437	50668.11
532.638	50211.42
532.839	50561.62
533.04	50516.56
533.241	50350.68
533.442	51161.67
533.643	50770.51
533.844	50455.12
534.045	50809.42
534.246	50426.45
534.447	50924.11
534.648	50561.62
534.849	50690.64
535.05	50668.11
535.251	50643.54
535.451	50455.12
535.652	50569.81
535.853	50381.4
536.054	50618.96
536.255	50602.58
536.456	49908.32
536.657	51417.67
536.857	50383.44
537.058	50721.36
537.259	50723.41
537.46	50549.33
537.66	50661.97
537.861	50467.41
538.062	49988.19
538.263	51044.94
538.463	50479.7
538.664	50369.11
538.865	50831.95
539.065	51098.19
539.266	50139.74
539.466	51096.14
539.667	49951.32
539.868	50864.72
540.068	50649.68
540.269	50430.55
540.469	50637.39
540.67	49560.16
540.87	50408.02
541.071	49939.04
541.271	50733.65
541.472	50496.08
541.672	49881.69
541.873	50479.7
542.073	49642.08
542.274	50604.63
542.474	50170.46
542.675	49308.26
542.875	50442.84
543.075	49887.84
543.276	49861.21
543.476	50553.43
543.676	49551.97
543.877	50369.11
544.077	49853.02
544.277	49615.46
544.478	50109.02
544.678	49791.58
544.878	49916.51
545.078	50010.71
545.279	50053.72
545.479	49928.8
545.679	49728.09
545.879	49881.69
546.079	49848.92
546.28	50358.87
546.48	49701.47
546.68	49730.14
546.88	50233.94
547.08	49824.35
547.28	49316.45
547.48	49730.14
547.68	49435.24
547.88	49138.28
548.081	49545.83
548.281	49635.94
548.481	49144.42
548.681	49461.86
548.881	49734.24
549.081	49541.73
549.28	49226.34
549.48	49865.31
549.68	49494.63
549.88	50000.47
550.08	49295.97
550.28	49719.9
550.48	49517.15
550.68	49584.74
550.88	49609.31
551.08	49142.38
551.279	49644.13
551.479	49113.7
551.679	49500.77
551.879	49408.61
552.079	49519.2
552.278	48966.25
552.478	49519.2
552.678	49103.46
552.878	49044.07
553.077	49089.13
553.277	49111.66
553.477	49449.57
553.676	48747.12
553.876	48603.76
554.076	48525.94
554.275	48951.91
554.475	48208.5
554.674	49412.71
554.874	48652.91
555.074	48568.94
555.273	48822.89
555.473	48867.95
555.672	48425.59
555.872	48530.03
556.071	48583.28
556.271	48892.52
556.47	48431.73
556.67	48124.54
556.869	48456.31
557.068	48398.96
557.268	47911.55
557.467	48384.63
557.667	48067.19
557.866	48304.76
558.065	48341.62
558.265	48149.11
558.464	47991.42
558.663	48648.82
558.863	47796.86
559.062	48497.27
559.261	47866.49
559.461	48310.9
559.66	47649.41
559.859	47657.6
560.058	47696.51
560.258	47780.48
560.457	47078.02
560.656	48128.63
560.855	47524.48
561.054	47819.39
561.253	47600.25
561.453	47620.73
561.652	48034.42
561.851	47649.41
562.05	47213.19
562.249	46901.9
562.448	47352.45
562.647	47321.73
562.846	47506.05
563.045	47153.8
563.244	46860.94
563.443	47405.7
563.642	46979.72
563.841	46758.54
564.04	46756.49
564.239	47223.43
564.438	46609.04
564.637	47030.92
564.836	46813.83
565.035	46402.19
565.234	46805.64
565.432	46203.54
565.631	46072.47
565.83	46514.83
566.029	46477.97
566.228	46095
566.427	46279.32
566.625	45519.52
566.824	45623.97
567.023	45972.12
567.222	45451.94
567.42	46252.69
567.619	45746.84
567.818	45634.21
568.016	45224.61
568.215	45724.32
568.414	45451.94
568.612	46078.61
568.811	45193.89
569.01	45382.3
569.208	44741.29
569.407	45181.6
569.605	44632.75
569.804	45533.85
570.002	44683.95
570.201	45165.22
570.4	44481.2
570.598	44602.03
570.797	44444.34
570.995	44647.08
571.193	44395.18
571.392	44878.5
571.59	44278.45
571.789	43852.47
571.987	44245.68
572.186	44300.98
572.384	43848.38
572.582	43705.02
572.781	44454.57
572.979	43426.49
573.177	43784.89
573.376	43516.61
573.574	43645.63
573.772	43635.39
573.971	43276.99
574.169	43188.93
574.367	42943.17
574.565	43258.56
574.763	43143.88
574.962	43238.08
575.16	42621.64
575.358	43172.55
575.556	42533.58
575.754	43098.82
575.952	42367.69
576.151	42873.54
576.349	42050.26
576.547	42179.28
576.745	42103.51
576.943	42099.41
577.141	41923.29
577.339	42085.08
577.537	41808.6
577.735	41788.12
577.933	41437.92
578.131	42117.84
578.329	41657.05
578.527	41741.02
578.725	41222.88
578.923	41732.82
579.121	41339.61
579.319	41138.91
579.516	41880.28
579.714	41147.11
579.912	40862.44
580.11	40870.63
580.308	40891.11
580.506	40884.97
580.704	40504.04
580.901	40649.45
581.099	40970.98
581.297	40379.12
581.495	40190.7
581.692	40477.42
581.89	39996.15
582.088	40422.12
582.285	39734.01
582.483	40016.63
582.681	39801.59
582.878	39711.48
583.076	39320.32
583.274	39834.36
583.471	39404.28
583.669	39467.77
583.866	39013.12
584.064	39021.31
584.262	39052.03
584.459	38929.16
584.657	39049.99
584.854	39117.57
585.052	38515.47
585.249	38576.9
585.447	38578.95
585.644	37946.13
585.841	38265.61
586.039	38720.26
586.236	37876.5
586.434	37913.36
586.631	37786.39
586.828	37913.36
587.026	37880.6
587.223	37440.28
587.42	37796.63
587.618	37763.86
587.815	37245.72
588.012	36827.94
588.21	36956.96
588.407	37282.59
588.604	37280.54
588.801	36737.83
588.999	36707.11
589.196	36696.87
589.393	36528.94
589.59	36698.92
589.787	36369.19
589.984	36414.25
590.182	35844.91
590.379	36164.4
590.576	35701.56
590.773	36008.75
590.97	35672.89
591.167	36010.8
591.364	35527.48
591.561	35621.69
591.758	35400.51
591.955	35365.69
592.152	35576.63
592.349	35103.55
592.546	34853.7
592.743	34954.05
592.94	34503.49
593.137	35097.41
593.334	34677.57
593.531	34513.73
593.727	34536.26
593.924	34775.87
594.121	34267.98
594.318	34216.78
594.515	33868.62
594.712	34493.25
594.908	33993.55
595.105	34028.37
595.302	33588.05
595.499	33758.03
595.696	33981.26
595.892	33383.26
596.089	33604.44
596.286	33456.98
596.482	32973.66
596.679	33067.87
596.876	33332.06
597.072	32934.75
597.269	32729.95
597.466	32996.19
597.662	32695.14
597.859	32654.18
598.055	32381.8
598.252	32402.28
598.448	32166.76
598.645	32183.15
598.841	31832.94
599.038	31959.92
599.234	32123.76
599.431	31640.43
599.627	31566.71
599.824	31886.19
600.02	31822.7
600.217	31605.62
600.413	31589.24
600.609	31077.24
600.806	31007.61
601.002	31429.49
601.198	30993.28
601.395	31128.44
601.591	30706.56
601.787	30690.18
601.984	30890.88
602.18	30919.55
602.376	30720.9
602.572	30659.46
602.769	30499.72
602.965	30100.36
603.161	30272.39
603.357	30040.97
603.553	29868.94
603.75	30092.17
603.946	29748.11
604.142	29809.55
604.338	29373.33
604.534	29809.55
604.73	29418.39
604.926	29539.22
605.122	29363.09
605.318	29221.78
605.514	28787.61
605.71	29139.86
605.906	29168.54
606.102	29152.15
606.298	28853.15
606.494	29131.67
606.69	28924.83
606.886	28687.26
607.082	28545.95
607.278	28935.07
607.474	28263.33
607.67	28752.8
607.866	28328.87
608.062	28844.96
608.257	28421.03
608.453	28214.18
608.649	28044.2
608.845	28189.61
609.041	28068.78
609.236	27997.1
609.432	28119.98
609.628	27866.03
609.824	27487.15
610.019	27388.85
610.215	27722.67
610.411	27855.79
610.606	27466.67
610.802	27843.5
610.998	27831.21
611.193	27524.02
611.389	27573.17
611.584	27354.04
611.78	26991.55
611.976	27233.21
612.171	27018.17
612.367	27243.45
612.562	27249.59
612.758	26969.02
612.953	26602.43
613.149	27128.76
613.344	26809.28
613.539	27069.37
613.735	26938.3
613.93	27016.12
614.126	26596.29
614.321	26758.08
614.517	26817.47
614.712	26678.21
614.907	26383.3
615.103	26770.36
615.298	26584
615.493	26635.2
615.688	26162.12
615.884	26991.55
616.079	25963.47
616.274	26704.83
616.47	26317.76
616.665	26178.5
616.86	26166.21
617.055	26074.06
617.25	25971.66
617.445	26045.38
617.641	25848.78
617.836	26010.57
618.031	25437.14
618.226	25629.65
618.421	25852.87
618.616	25775.05
618.811	25406.42
619.006	26004.42
619.201	25015.26
619.396	25332.69
619.591	24738.78
619.786	24980.44
619.981	24308.71
620.176	25127.89
620.371	24409.06
620.566	24886.23
620.761	24476.64
620.956	24458.21
621.151	24275.94
621.346	24445.92
621.541	23673.84
621.735	24161.25
621.93	23874.54
622.125	23753.71
622.32	23542.77
622.515	23725.04
622.709	23270.39
622.904	23583.73
623.099	23198.71
623.294	23305.2
623.488	22807.55
623.683	22973.43
623.878	22666.24
624.072	22623.23
624.267	22535.17
624.462	22367.23
624.656	22238.21
624.851	22473.73
625.046	22119.43
625.24	21918.73
625.435	21986.31
625.629	21765.13
625.824	21562.38
626.018	21425.17
626.213	21146.64
626.407	21249.04
626.602	20884.5
626.796	21210.13
626.991	21146.64
627.185	20855.83
627.38	20775.96
627.574	20624.41
627.768	20352.03
627.963	20386.85
628.157	20149.28
628.352	20304.93
628.546	19817.51
628.74	20132.9
628.935	19823.65
629.129	19811.37
629.323	19477.55
629.517	19559.47
629.712	19647.53
629.906	19416.11
630.1	19186.74
630.294	19414.06
630.489	19213.36
630.683	19289.13
630.877	18768.95
631.071	18660.41
631.265	18746.42
631.459	18533.43
631.653	18486.33
631.848	18283.58
632.042	18185.28
632.236	18365.5
632.43	17865.8
632.624	18377.79
632.818	17773.64
633.012	17548.36
633.206	17671.24
633.4	17785.93
633.594	17376.33
633.788	17517.64
633.982	17316.94
634.176	17329.23
634.369	17181.78
634.563	17003.6
634.757	17058.9
634.951	17089.62
635.145	16954.45
635.339	16698.45
635.533	16669.78
635.726	16821.33
635.92	16194.65
636.114	16622.68
636.308	16358.49
636.501	16084.06
636.695	16221.28
636.889	15950.95
637.083	15942.75
637.276	15844.45
637.47	16024.67
637.664	15625.32
637.857	15488.11
638.051	15543.4
638.244	15549.54
638.438	15449.19
638.632	15379.56
638.825	15119.47
639.019	15125.61
639.212	15297.64
639.406	15049.84
639.599	14951.54
639.793	14816.37
639.986	14607.48
640.18	14902.39
640.373	14527.61
640.567	14515.32
640.76	14611.57
640.954	14304.38
641.147	14093.44
641.34	14255.23
641.534	14253.18
641.727	14201.98
641.92	14187.64
642.114	14128.25
642.307	13839.49
642.5	13988.99
642.694	13689.99
642.887	13710.47
643.08	13870.21
643.273	13718.66
643.467	13642.89
643.66	13491.34
643.853	13304.97
644.046	13231.24
644.239	13376.65
644.432	13309.07
644.626	12979.34
644.819	13071.5
645.012	13198.48
645.205	12958.86
645.398	12623
645.591	12596.37
645.784	12676.24
645.977	12616.85
646.17	12610.71
646.363	12377.24
646.556	12385.43
646.749	12190.88
646.942	12360.86
647.135	12364.95
647.328	12190.88
647.521	12336.28
647.714	11910.3
647.907	12080.28
648.099	12207.26
648.292	11932.83
648.485	11803.81
648.678	11695.27
648.871	11625.64
649.064	11558.05
649.256	12051.61
649.449	11463.85
649.642	11621.54
649.835	11365.54
650.027	11107.5
650.22	11119.79
650.413	11314.34
650.605	11084.97
650.798	11050.16
650.991	10761.39
651.183	11052.2
651.376	10849.46
651.568	11168.94
651.761	10839.22
651.954	10958
652.146	10785.97
652.339	10505.4
652.531	10532.02
652.724	10359.99
652.916	10321.08
653.109	10316.98
653.301	10368.18
653.494	10542.26
653.686	10226.87
653.879	10101.95
654.071	10063.04
654.263	10108.09
654.456	10181.82
654.648	9907.39
654.84	9936.06
655.033	9770.18
655.225	9727.17
655.417	9833.66
655.61	9639.11
655.802	9661.63
655.994	9694.4
656.186	9635.01
656.379	9606.34
656.571	9569.48
656.763	9438.41
656.955	9516.23
657.148	9381.06
657.34	9268.42
657.532	9235.66
657.724	9034.96
657.916	9161.93
658.108	9180.36
658.3	8912.08
658.492	8957.13
658.684	9114.83
658.876	8883.41
659.068	8842.45
659.26	8758.48
659.452	8938.7
659.644	8738
659.836	8842.45
660.028	8608.98
660.22	8518.87
660.412	8586.45
660.604	8467.67
660.796	8418.52
660.988	8465.62
661.18	8594.64
661.372	8400.09
661.563	8254.68
661.755	8180.95
661.947	8264.92
662.139	8264.92
662.331	7984.35
662.522	7998.68
662.714	8041.69
662.906	8010.97
663.097	7906.52
663.289	7789.79
663.481	7763.17
663.673	8002.78
663.864	7871.71
664.056	7779.55
664.247	7552.23
664.439	7582.95
664.631	7697.63
664.822	7611.62
665.014	7544.03
665.205	7521.51
665.397	7519.46
665.588	7339.24
665.78	7398.63
665.971	7251.17
666.163	7355.62
666.354	7249.13
666.546	7279.85
666.737	7273.7
666.929	7175.4
667.12	7175.4
667.311	7179.5
667.503	6870.25
667.694	6997.23
667.885	6919.4
668.077	6825.2
668.268	6876.4
668.459	6800.62
668.651	6845.68
668.842	6661.36
669.033	6931.69
669.224	6802.67
669.416	6706.41
669.607	6659.31
669.798	6741.23
669.989	6784.24
670.18	6835.44
670.371	6450.42
670.563	6470.9
670.754	6552.82
670.945	6530.29
671.136	6454.51
671.327	6401.27
671.518	6343.92
671.709	6311.16
671.9	6556.91
672.091	6503.67
672.282	6438.13
672.473	6196.47
672.664	6311.16
672.855	6376.69
673.046	6294.77
673.237	6188.28
673.428	6151.42
673.619	6204.66
673.809	6096.12
674	6081.78
674.191	6028.54
674.382	5842.17
674.573	6098.17
674.764	5971.19
674.954	6059.26
675.145	5854.46
675.336	5930.23
675.527	5940.47
675.717	5924.09
675.908	5917.95
676.099	5872.89
676.289	5825.79
676.48	5704.96
676.671	5727.49
676.861	5803.26
677.052	5702.91
677.243	5678.33
677.433	5524.74
677.624	5596.42
677.814	5481.73
678.005	5670.14
678.195	5608.7
678.386	5481.73
678.576	5422.34
678.767	5424.39
678.957	5541.12
679.148	5375.24
679.338	5465.35
679.529	5420.29
679.719	5399.81
679.909	5545.22
680.1	5442.82
680.29	5403.91
680.481	5446.91
680.671	5311.75
680.861	5321.99
681.052	5321.99
681.242	5356.8
681.432	5201.16
681.622	5090.57
681.813	5156.1
682.003	5061.9
682.193	5160.2
682.383	5274.88
682.573	5182.73
682.764	5049.61
682.954	5029.13
683.144	5076.23
683.334	5094.66
683.524	5033.22
683.714	4961.55
683.904	5033.22
684.094	5119.24
684.284	4961.55
684.474	5053.7
684.664	4967.69
684.854	4853
685.044	4975.88
685.234	4853
685.424	4877.58
685.614	4810
685.804	4912.39
685.994	4875.53
686.184	4885.77
686.374	4848.91
686.564	4633.87
686.753	4701.45
686.943	4726.03
687.133	4709.65
687.323	4650.25
687.513	4601.1
687.702	4586.77
687.892	4693.26
688.082	4707.6
688.272	4674.83
688.461	4414.74
688.651	4510.99
688.841	4379.92
689.03	4513.04
689.22	4547.86
689.41	4390.16
689.599	4381.97
689.789	4453.65
689.979	4371.73
690.168	4467.99
690.358	4324.63
690.547	4361.49
690.737	4365.59
690.926	4334.87
691.116	4123.93
691.305	4207.89
691.495	4060.44
691.684	4177.17
691.874	4295.96
692.063	4158.74
692.252	4117.78
692.442	4175.13
692.631	3904.79
692.82	3867.93
693.01	4050.2
693.199	4068.63
693.388	3904.79
693.578	3960.09
693.767	3900.7
693.956	3890.46
694.146	3923.23
694.335	3755.29
694.524	3874.07
694.713	3833.11
694.902	3773.72
695.092	3865.88
695.281	3648.8
695.47	3843.35
695.659	3609.89
695.848	3548.45
696.037	3609.89
696.226	3706.14
696.415	3562.78
696.604	3632.41
696.793	3644.7
696.982	3654.94
697.171	3585.31
697.36	3671.33
697.549	3718.43
697.738	3509.54
697.927	3460.38
698.116	3427.62
698.305	3515.68
698.494	3558.69
698.683	3411.23
698.872	3566.88
699.061	3585.31
699.25	3448.1
699.438	3460.38
699.627	3386.66
699.816	3400.99
700.005	3378.47
700.193	3284.26
700.382	3450.14
700.571	3329.31
700.76	3323.17
700.948	3314.98
701.137	3317.03
701.326	3335.46
701.514	3194.15
701.703	3247.4
701.892	3351.84
702.08	3323.17
702.269	3245.35
702.457	3243.3
702.646	3345.7
702.834	3188
703.023	3192.1
703.212	3071.27
703.4	3390.75
703.589	3116.33
703.777	3206.44
703.965	3128.61
704.154	3101.99
704.342	3173.67
704.531	3165.48
704.719	3112.23
704.907	3138.85
705.096	3085.61
705.284	3153.19
705.472	2983.21
705.661	3112.23
705.849	3118.37
706.037	3112.23
706.226	3061.03
706.414	3003.69
706.602	3015.98
706.79	3120.42
706.979	2932.01
707.167	2987.3
707.355	3050.79
707.543	2997.54
707.731	3022.12
707.919	3056.93
708.107	2950.44
708.296	3015.98
708.484	3030.31
708.672	2979.11
708.86	2970.92
709.048	2897.19
709.236	2909.48
709.424	3032.36
709.612	2925.86
709.8	2989.35
709.988	2925.86
710.176	2942.25
710.364	2938.15
710.551	2903.34
710.739	2913.58
710.927	2954.54
711.115	2932.01
711.303	2866.47
711.491	2743.6
711.679	2905.38
711.866	2862.38
712.054	2997.54
712.242	2934.06
712.43	2862.38
712.617	2899.24
712.805	2907.43
712.993	2882.86
713.181	2788.65
713.368	2938.15
713.556	2833.71
713.744	2778.41
713.931	2749.74
714.119	2792.75
714.306	2903.34
714.494	2759.98
714.682	2899.24
714.869	2714.92
715.057	2815.27
715.244	2741.55
715.432	2839.85
715.619	2792.75
715.807	2757.93
715.994	2778.41
716.182	2839.85
716.369	2868.52
716.556	2780.46
716.744	2624.81
716.931	2725.16
717.119	2940.2
717.306	2788.65
717.493	2911.53
717.681	2776.36
717.868	2858.28
718.055	2794.79
718.242	2688.3
718.43	2778.41
718.617	2661.68
718.804	2749.74
718.991	2649.39
719.179	2778.41
719.366	2735.4
719.553	2759.98
719.74	2805.03
719.927	2649.39
720.114	2741.55
720.301	2645.29
720.488	2645.29
720.676	2858.28
720.863	2878.76
721.05	2624.81
721.237	2866.47
721.424	2762.03
721.611	2788.65
721.798	2737.45
721.985	2739.5
722.172	2630.96
722.358	2731.31
722.545	2735.4
722.732	2776.36
722.919	2759.98
723.106	2659.63
723.293	2678.06
723.48	2653.48
723.667	2622.77
723.853	2743.6
724.04	2745.64
724.227	2669.87
724.414	2612.53
724.6	2673.96
724.787	2676.01
724.974	2700.59
725.161	2667.82
725.347	2657.58
725.534	2751.79
725.72	2747.69
725.907	2739.5
726.094	2676.01
726.28	2604.33
726.467	2561.33
726.653	2731.31
726.84	2698.54
727.027	2727.21
727.213	2641.2
727.4	2833.71
727.586	2725.16
727.773	2628.91
727.959	2657.58
728.145	2665.77
728.332	2678.06
728.518	2620.72
728.705	2762.03
728.891	2633.01
729.077	2776.36
729.264	2862.38
729.45	2590
729.636	2702.64
729.823	2682.16
730.009	2874.67
730.195	2651.44
730.382	2727.21
730.568	2833.71
730.754	2817.32
730.94	2639.15
731.126	2673.96
731.313	2753.84
731.499	2757.93
731.685	2811.18
731.871	2581.81
732.057	2792.75
732.243	2680.11
732.429	2684.2
732.615	2821.42
732.801	2719.02
732.987	2694.44
733.173	2669.87
733.359	2678.06
733.545	2735.4
733.731	2778.41
733.917	2731.31
734.103	2772.27
734.289	2622.77
734.475	2655.53
734.661	2592.05
734.847	2721.07
735.033	2764.08
735.219	2643.24
735.404	2751.79
735.59	2692.4
735.776	2698.54
735.962	2686.25
736.148	2684.2
736.333	2762.03
736.519	2661.68
736.705	2602.29
736.89	2622.77
737.076	2716.97
737.262	2653.48
737.447	2624.81
737.633	2653.48
737.819	2702.64
738.004	2635.05
738.19	2598.19
738.375	2825.51
738.561	2800.94
738.747	2714.92
738.932	2651.44
739.118	2725.16
739.303	2626.86
739.489	2704.68
739.674	2600.24
739.859	2633.01
740.045	2536.75
740.23	2612.53
740.416	2618.67
740.601	2616.62
740.786	2563.37
740.972	2436.4
741.157	2659.63
741.342	2596.14
741.528	2614.57
741.713	2510.13
741.898	2520.37
742.084	2514.22
742.269	2719.02
742.454	2487.6
742.639	2651.44
742.824	2538.8
743.01	2512.18
743.195	2536.75
743.38	2458.93
743.565	2534.7
743.75	2542.89
743.935	2452.78
744.12	2522.41
744.305	2635.05
744.49	2436.4
744.675	2501.94
744.86	2276.66
745.045	2508.08
745.23	2483.5
745.415	2452.78
745.6	2286.9
745.785	2303.28
745.97	2422.06
746.155	2338.1
746.34	2301.23
746.525	2452.78
746.71	2430.26
746.895	2223.41
747.079	2303.28
747.264	2385.2
747.449	2368.82
747.634	2254.13
747.819	2229.56
748.003	2151.73
748.188	2237.75
748.373	2344.24
748.557	2129.2
748.742	2145.59
748.927	2196.79
749.111	2215.22
749.296	2241.84
749.481	2067.77
749.665	2092.34
749.85	2053.43
750.034	2151.73
750.219	2049.33
750.404	2039.09
750.588	2127.16
750.773	2155.83
750.957	1967.42
751.141	2026.81
751.326	2030.9
751.51	2090.29
751.695	1981.75
751.879	2041.14
752.064	2030.9
752.248	2020.66
752.432	2057.53
752.617	1987.89
752.801	1959.22
752.985	1856.83
753.17	1961.27
753.354	1903.93
753.538	1885.5
753.722	1881.4
753.907	1779
754.091	1789.24
754.275	1801.53
754.459	1811.77
754.643	1822.01
754.828	1776.95
755.012	1883.45
755.196	1865.02
755.38	1815.87
755.564	1723.71
755.748	1662.27
755.932	1744.19
756.116	1746.23
756.3	1735.99
756.484	1740.09
756.668	1633.6
756.852	1639.74
757.036	1637.69
757.22	1711.42
757.404	1674.56
757.588	1611.07
757.772	1662.27
757.956	1604.92
758.14	1627.45
758.323	1543.49
758.507	1582.4
758.691	1506.62
758.875	1686.84
759.059	1502.53
759.242	1531.2
759.426	1537.34
759.61	1471.81
759.794	1547.58
759.977	1449.28
760.161	1467.71
760.345	1518.91
760.528	1492.29
760.712	1574.21
760.895	1543.49
761.079	1518.91
761.263	1428.8
761.446	1441.09
761.63	1455.42
761.813	1422.66
761.997	1373.5
762.18	1379.65
762.364	1285.44
762.547	1363.26
762.731	1404.22
762.914	1287.49
763.098	1285.44
763.281	1369.41
763.464	1406.27
763.648	1297.73
763.831	1289.54
764.015	1312.07
764.198	1336.64
764.381	1459.52
764.564	1359.17
764.748	1324.35
764.931	1267.01
765.114	1262.91
765.297	1305.92
765.481	1307.97
765.664	1267.01
765.847	1287.49
766.03	1320.26
766.213	1160.52
766.397	1273.15
766.58	1232.19
766.763	1224
766.946	1267.01
767.129	1303.87
767.312	1221.95
767.495	1189.19
767.678	1199.43
767.861	1246.53
768.044	1197.38
768.227	1260.87
768.41	1178.95
768.593	1234.24
768.776	1074.5
768.959	1176.9
769.142	1269.06
769.324	1092.93
769.507	1185.09
769.69	1162.56
769.873	1094.98
770.056	1193.28
770.239	1115.46
770.421	1031.49
770.604	1168.71
770.787	1080.64
770.97	1105.22
771.152	1031.49
771.335	1224
771.518	1049.93
771.7	1043.78
771.883	1105.22
772.066	1000.77
772.248	1082.69
772.431	1074.5
772.613	1082.69
772.796	1004.87
772.978	1064.26
773.161	1035.59
773.343	978.25
773.526	1064.26
773.708	1027.4
773.891	994.63
774.073	1051.97
774.256	1062.21
774.438	957.77
774.621	865.61
774.803	970.05
774.985	968.01
775.168	959.81
775.35	1035.59
775.532	980.29
775.715	931.14
775.897	918.86
776.079	904.52
776.261	945.48
776.444	871.75
776.626	871.75
776.808	898.38
776.99	879.94
777.173	929.1
777.355	793.93
777.537	894.28
777.719	853.32
777.901	843.08
778.083	881.99
778.265	771.4
778.447	902.47
778.629	820.55
778.811	873.8
778.993	789.83
779.175	808.27
779.357	855.37
779.539	789.83
779.721	828.74
779.903	808.27
780.085	812.36
780.267	742.73
780.449	773.45
780.631	724.3
780.812	826.7
780.994	757.07
781.176	712.01
781.358	730.44
781.54	785.74
781.721	798.03
781.903	767.31
782.085	816.46
782.267	718.15
782.448	687.43
782.63	652.62
782.812	724.3
782.993	669
783.175	671.05
783.357	646.48
783.538	642.38
783.72	662.86
783.901	650.57
784.083	646.48
784.264	576.84
784.446	617.8
784.627	632.14
784.809	707.91
784.99	572.75
785.172	615.76
785.353	562.51
785.535	603.47
785.716	554.32
785.897	642.38
786.079	533.84
786.26	605.52
786.441	554.32
786.623	527.69
786.804	496.97
786.985	556.36
787.167	572.75
787.348	529.74
787.529	558.41
787.71	515.41
787.891	609.61
788.073	609.61
788.254	568.65
788.435	562.51
788.616	548.17
788.797	546.12
788.978	507.21
789.159	533.84
789.34	480.59
789.522	472.4
789.703	509.26
789.884	519.5
790.065	533.84
790.246	417.1
790.427	599.37
790.607	505.17
790.788	546.12
790.969	431.44
791.15	413.01
791.331	447.82
791.512	429.39
791.693	347.47
791.874	429.39
792.054	535.89
792.235	460.11
792.416	462.16
792.597	443.73
792.778	433.49
792.958	378.19
793.139	400.72
793.32	488.78
793.5	384.34
793.681	408.91
793.862	429.39
794.042	394.58
794.223	439.63
794.404	290.13
794.584	425.29
794.765	439.63
794.945	363.86
795.126	441.68
795.306	286.03
795.487	341.33
795.667	326.99
795.848	388.43
796.028	357.71
796.209	429.39
796.389	335.18
796.57	382.29
796.75	365.9
796.93	370
797.111	353.62
797.291	322.9
797.471	318.8
797.652	318.8
797.832	296.27
798.012	302.42
798.192	335.18
798.373	359.76
798.553	279.89
798.733	353.62
798.913	322.9
799.093	353.62
799.274	283.99
799.454	398.67
799.634	359.76
799.814	365.9
799.994	400.72
800.174	382.29
800.354	355.66
800.534	271.7
800.714	277.84
800.894	400.72
801.074	236.88
801.254	302.42
801.434	267.6
801.614	326.99
801.794	333.14
801.974	673.1
802.154	243.03
802.334	316.75
802.514	230.74
802.693	298.32
802.873	290.13
803.053	333.14
803.233	251.22
803.413	251.22
803.592	320.85
803.772	314.7
803.952	249.17
804.131	230.74
804.311	312.66
804.491	329.04
804.67	314.7
804.85	290.13
805.03	288.08
805.209	333.14
805.389	247.12
805.568	296.27
805.748	275.79
805.928	314.7
806.107	271.7
806.287	257.36
806.466	267.6
806.646	208.21
806.825	277.84
807.004	275.79
807.184	292.18
807.363	240.98
807.543	243.03
807.722	218.45
807.901	257.36
808.081	286.03
808.26	226.64
808.439	226.64
808.619	193.87
808.798	169.3
808.977	255.31
809.156	251.22
809.336	206.16
809.515	292.18
809.694	103.76
809.873	245.07
810.052	185.68
810.231	261.46
810.411	202.07
810.59	220.5
810.769	200.02
810.948	212.31
811.127	259.41
811.306	261.46
811.485	191.83
811.664	150.87
811.843	175.44
812.022	236.88
812.201	175.44
812.38	159.06
812.559	204.11
812.737	271.7
812.916	142.68
813.095	148.82
813.274	249.17
813.453	187.73
813.632	136.53
813.811	197.97
813.989	183.63
814.168	197.97
814.347	216.4
814.526	214.35
814.704	236.88
814.883	240.98
815.062	114
815.24	126.29
815.419	126.29
815.598	197.97
815.776	146.77
815.955	171.35
816.133	148.82
816.312	197.97
816.49	202.07
816.669	167.25
816.847	124.24
817.026	181.59
817.204	114
817.383	150.87
817.561	187.73
817.74	206.16
817.918	208.21
818.097	191.83
818.275	146.77
818.453	228.69
818.632	144.72
818.81	222.55
818.988	124.24
819.167	150.87
819.345	159.06
819.523	208.21
819.701	197.97
819.879	195.92
820.058	173.39
820.236	144.72
820.414	200.02
820.592	218.45
820.77	146.77
820.948	85.33
821.127	128.34
821.305	128.34
821.483	87.38
821.661	124.24
821.839	128.34
822.017	142.68
822.195	177.49
822.373	52.56
822.551	226.64
822.729	97.62
822.907	132.44
823.085	183.63
823.262	120.15
823.44	99.67
823.618	142.68
823.796	130.39
823.974	173.39
824.152	169.3
824.329	68.95
824.507	175.44
824.685	126.29
824.863	132.44
825.04	95.57
825.218	75.09
825.396	91.48
825.574	81.24
825.751	71
825.929	118.1
826.107	73.04
826.284	140.63
826.462	191.83
826.639	142.68
826.817	138.58
826.994	169.3
827.172	140.63
827.349	140.63
827.527	148.82
827.704	179.54
827.882	126.29
828.059	179.54
828.237	58.71
828.414	114
828.591	15.7
828.769	138.58
828.946	142.68
829.124	52.56
829.301	79.19
829.478	163.15
829.655	136.53
829.833	154.96
830.01	105.81
830.187	114
830.364	114
830.542	87.38
830.719	140.63
830.896	126.29
831.073	111.96
831.25	68.95
831.427	101.72
831.604	97.62
831.782	79.19
831.959	150.87
832.136	44.37
832.313	122.2
832.49	73.04
832.667	142.68
832.844	23.89
833.021	114
833.198	130.39
833.374	124.24
833.551	95.57
833.728	81.24
833.905	148.82
834.082	122.2
834.259	77.14
834.436	83.28
834.612	56.66
834.789	105.81
834.966	103.76
835.143	111.96
835.319	68.95
835.496	101.72
835.673	99.67
835.85	142.68
836.026	140.63
836.203	122.2
836.38	122.2
836.556	144.72
836.733	111.96
836.909	161.11
837.086	91.48
837.262	81.24
837.439	103.76
837.616	58.71
837.792	42.32
837.968	25.94
838.145	58.71
838.321	73.04
838.498	114
838.674	120.15
838.851	56.66
839.027	42.32
839.203	19.8
839.38	34.13
839.556	85.33
839.732	109.91
839.909	34.13
840.085	134.48
840.261	52.56
840.437	128.34
840.614	77.14
840.79	64.85
840.966	71
841.142	75.09
841.318	40.28
841.494	97.62
841.671	101.72
841.847	46.42
842.023	77.14
842.199	128.34
842.375	163.15
842.551	56.66
842.727	17.75
842.903	95.57
843.079	-35.5
843.255	44.37
843.431	101.72
843.607	52.56
843.783	99.67
843.959	114
844.134	81.24
844.31	64.85
844.486	64.85
844.662	81.24
844.838	32.08
845.013	77.14
845.189	85.33
845.365	87.38
845.541	87.38
845.716	97.62
845.892	34.13
846.068	75.09
846.244	23.89
846.419	40.28
846.595	50.52
846.77	40.28
846.946	-6.83
847.122	77.14
847.297	81.24
847.473	89.43
847.648	-53.93
847.824	-23.21
847.999	42.32
848.175	50.52
848.35	77.14
848.526	-31.4
848.701	30.04
848.876	111.96
849.052	128.34
849.227	27.99
849.403	44.37
849.578	71
849.753	134.48
849.929	87.38
850.104	34.13
850.279	19.8
850.454	68.95
850.63	73.04
850.805	-25.26
850.98	25.94
851.155	3.41
851.33	107.86
851.505	101.72
851.681	32.08
851.856	-10.92
852.031	60.76
852.206	99.67
852.381	48.47
852.556	62.8
852.731	36.18
852.906	17.75
853.081	32.08
853.256	54.61
853.431	58.71
853.606	71
853.781	-4.78
853.956	9.56
854.131	13.65
854.305	64.85
854.48	19.8
854.655	46.42
854.83	40.28
855.005	68.95
855.18	36.18
855.354	5.46
855.529	64.85
855.704	21.85
855.879	42.32
856.053	-53.93
856.228	13.65
856.403	23.89
856.577	48.47
856.752	11.61
856.926	-4.78
857.101	19.8
857.276	9.56
857.45	-27.31
857.625	116.05
857.799	-2.73
857.974	101.72
858.148	34.13
858.323	122.2
858.497	-41.64
858.672	44.37
858.846	-45.74
859.02	52.56
859.195	9.56
859.369	77.14
859.543	93.52
859.718	7.51
859.892	54.61
860.066	97.62
860.241	-6.83
860.415	-39.59
860.589	23.89
860.763	75.09
860.938	-19.11
861.112	85.33
861.286	-17.07
861.46	36.18
861.634	46.42
861.808	46.42
861.982	50.52
862.157	81.24
862.331	48.47
862.505	85.33
862.679	-72.36
862.853	-23.21
863.027	60.76
863.201	120.15
863.375	-49.83
863.549	95.57
863.722	38.23
863.896	138.58
864.07	1.37
864.244	99.67
864.418	64.85
864.592	40.28
864.766	36.18
864.939	75.09
865.113	-51.88
865.287	11.61
865.461	-25.26
865.634	52.56
865.808	11.61
865.982	-17.07
866.156	-41.64
866.329	30.04
866.503	3.41
866.676	105.81
866.85	56.66
867.024	48.47
867.197	30.04
867.371	-27.31
867.544	-49.83
867.718	81.24
867.891	71
868.065	13.65
868.238	-2.73
868.412	91.48
868.585	44.37
868.759	3.41
868.932	-33.45
869.105	-6.83
869.279	60.76
869.452	-31.4
869.625	77.14
869.799	44.37
869.972	21.85
870.145	-49.83
870.319	7.51
870.492	11.61
870.665	-4.78
870.838	25.94
871.011	32.08
871.185	17.75
871.358	11.61
871.531	-33.45
871.704	-12.97
871.877	32.08
872.05	-8.87
872.223	1.37
872.396	23.89
872.569	68.95
872.742	-19.11
872.915	-8.87
873.088	44.37
873.261	5.46
873.434	13.65
873.607	66.9
873.78	13.65
873.953	17.75
874.126	42.32
874.299	73.04
874.471	68.95
874.644	111.96
874.817	7.51
874.99	89.43
875.163	-47.79
875.335	11.61
875.508	32.08
875.681	40.28
875.853	3.41
876.026	-6.83
876.199	27.99
876.371	97.62
876.544	-33.45
876.717	9.56
876.889	27.99
877.062	46.42
877.234	7.51
877.407	93.52
877.579	34.13
877.752	109.91
877.924	15.7
878.097	7.51
878.269	-31.4
878.442	17.75
878.614	52.56
878.786	-15.02
878.959	-19.11
879.131	-39.59
879.303	-6.83
879.476	25.94
879.648	30.04
879.82	21.85
879.993	-49.83
880.165	40.28
880.337	71
880.509	3.41
880.681	-37.55
880.854	-4.78
881.026	97.62
881.198	48.47
881.37	40.28
881.542	21.85
881.714	-6.83
881.886	23.89
882.058	-27.31
882.23	77.14
882.402	-39.59
882.574	25.94
882.746	34.13
882.918	126.29
883.09	15.7
883.262	38.23
883.434	-10.92
883.606	1.37
883.778	68.95
883.95	46.42
884.122	9.56
884.293	52.56
884.465	-72.36
884.637	27.99
884.809	25.94
884.98	-15.02
885.152	-31.4
885.324	81.24
885.496	-39.59
885.667	46.42
885.839	50.52
886.011	32.08
886.182	25.94
886.354	-15.02
886.525	-41.64
886.697	73.04
886.869	-6.83
887.04	-4.78
887.212	50.52
887.383	-25.26
887.555	56.66
887.726	-12.97
887.897	-17.07
888.069	23.89
888.24	5.46
888.412	34.13
888.583	27.99
888.754	1.37
888.926	-6.83
889.097	64.85
889.268	36.18
889.44	73.04
889.611	30.04
889.782	30.04
889.953	-6.83
890.125	27.99
890.296	-64.17
890.467	-10.92
890.638	-55.98
890.809	71
890.98	30.04
891.151	-33.45
891.323	23.89
891.494	42.32
891.665	68.95
891.836	-43.69
892.007	120.15
892.178	5.46
892.349	-33.45
892.52	9.56
892.691	-8.87
892.862	30.04
893.032	-68.27
893.203	11.61
893.374	-25.26
893.545	-0.68
893.716	-10.92
893.887	-0.68
894.057	-2.73
894.228	32.08
894.399	-25.26
894.57	46.42
894.74	32.08
894.911	34.13
895.082	-43.69
895.253	3.41
895.423	-17.07
895.594	79.19
895.764	44.37
895.935	25.94
896.106	81.24
896.276	13.65
896.447	-103.08
896.617	5.46
896.788	95.57
896.958	13.65
897.129	-39.59
897.299	-25.26
897.47	-17.07
897.64	58.71
897.81	25.94
897.981	40.28
898.151	-55.98
898.322	-2.73
898.492	-8.87
898.662	25.94
898.832	60.76
899.003	25.94
899.173	19.8
899.343	40.28
899.513	-17.07
