Data from USB4F104151__61__11-45-18-669.txt Node

Date: Fri Mar 14 11:45:18 EDT 2025
User: louis
Spectrometer: USB4F10415
Trigger mode: 4
Integration Time (sec): 2.000000E-2
Scans to average: 1
Electric dark correction enabled: true
Nonlinearity correction enabled: false
Boxcar width: 0
XAxis mode: Wavelengths
Number of Pixels in Spectrum: 3648
>>>>>Begin Spectral Data<<<<<
178.204	-102.06
178.424	-102.06
178.644	-102.06
178.864	-85.67
179.084	-79.53
179.304	-48.81
179.524	6.49
179.744	-36.52
179.964	14.68
180.184	-16.04
180.404	8.53
180.624	-5.8
180.844	35.16
181.064	-32.43
181.283	41.3
181.503	10.58
181.723	22.87
181.943	-83.63
182.163	41.3
182.383	55.64
182.602	69.97
182.822	-11.95
183.042	61.78
183.262	2.39
183.482	-1.71
183.701	29.01
183.921	8.53
184.141	-13.99
184.361	-1.71
184.58	39.25
184.8	35.16
185.02	16.73
185.239	84.31
185.459	-11.95
185.679	65.88
185.898	41.3
186.118	22.87
186.338	-40.62
186.557	67.92
186.777	-3.75
186.997	22.87
187.216	22.87
187.436	39.25
187.655	69.97
187.875	104.79
188.095	33.11
188.314	29.01
188.534	18.77
188.753	26.96
188.973	20.82
189.192	67.92
189.412	10.58
189.631	26.96
189.851	53.59
190.07	69.97
190.29	41.3
190.509	-28.33
190.729	-20.14
190.948	59.73
191.168	80.21
191.387	14.68
191.607	-7.85
191.826	61.78
192.045	-20.14
192.265	39.25
192.484	6.49
192.704	43.35
192.923	31.06
193.142	14.68
193.362	20.82
193.581	119.12
193.8	-7.85
194.02	53.59
194.239	43.35
194.458	133.46
194.678	-65.19
194.897	16.73
195.116	-24.23
195.335	74.07
195.555	24.92
195.774	8.53
195.993	57.68
196.212	0.34
196.432	67.92
196.651	49.49
196.87	74.07
197.089	82.26
197.308	26.96
197.528	57.68
197.747	12.63
197.966	-5.8
198.185	55.64
198.404	22.87
198.623	72.02
198.842	55.64
199.062	-32.43
199.281	-24.23
199.5	0.34
199.719	117.08
199.938	74.07
200.157	31.06
200.376	61.78
200.595	49.49
200.814	35.16
201.033	10.58
201.252	137.56
201.471	35.16
201.69	65.88
201.909	24.92
202.128	63.83
202.347	12.63
202.566	125.27
202.785	47.44
203.004	82.26
203.223	139.6
203.442	24.92
203.661	76.12
203.879	18.77
204.098	26.96
204.317	37.2
204.536	76.12
204.755	10.58
204.974	8.53
205.193	-1.71
205.411	65.88
205.63	39.25
205.849	2.39
206.068	33.11
206.287	10.58
206.505	53.59
206.724	-16.04
206.943	-22.19
207.162	43.35
207.381	65.88
207.599	65.88
207.818	53.59
208.037	29.01
208.255	-1.71
208.474	102.74
208.693	18.77
208.911	-5.8
209.13	74.07
209.349	18.77
209.567	43.35
209.786	63.83
210.005	96.6
210.223	43.35
210.442	47.44
210.661	-20.14
210.879	110.93
211.098	-7.85
211.316	104.79
211.535	31.06
211.753	37.2
211.972	61.78
212.191	106.84
212.409	98.64
212.628	41.3
212.846	104.79
213.065	51.54
213.283	78.16
213.502	65.88
213.72	74.07
213.938	41.3
214.157	43.35
214.375	4.44
214.594	2.39
214.812	20.82
215.031	29.01
215.249	-20.14
215.467	82.26
215.686	-42.67
215.904	92.5
216.122	33.11
216.341	20.82
216.559	112.98
216.778	88.4
216.996	33.11
217.214	16.73
217.432	65.88
217.651	53.59
217.869	53.59
218.087	18.77
218.306	-5.8
218.524	10.58
218.742	16.73
218.96	12.63
219.179	10.58
219.397	57.68
219.615	31.06
219.833	65.88
220.051	-65.19
220.27	51.54
220.488	24.92
220.706	33.11
220.924	0.34
221.142	26.96
221.36	37.2
221.578	51.54
221.796	-42.67
222.015	0.34
222.233	0.34
222.451	18.77
222.669	-13.99
222.887	49.49
223.105	72.02
223.323	-7.85
223.541	31.06
223.759	31.06
223.977	24.92
224.195	57.68
224.413	86.36
224.631	8.53
224.849	-3.75
225.067	-7.85
225.285	39.25
225.503	80.21
225.721	0.34
225.939	31.06
226.157	-5.8
226.375	139.6
226.592	-5.8
226.81	45.4
227.028	80.21
227.246	57.68
227.464	-3.75
227.682	80.21
227.9	-3.75
228.117	-5.8
228.335	61.78
228.553	65.88
228.771	10.58
228.989	67.92
229.206	59.73
229.424	-9.9
229.642	41.3
229.86	33.11
230.077	63.83
230.295	-28.33
230.513	20.82
230.731	53.59
230.948	82.26
231.166	24.92
231.384	6.49
231.601	29.01
231.819	104.79
232.037	49.49
232.254	61.78
232.472	-9.9
232.689	18.77
232.907	78.16
233.125	24.92
233.342	6.49
233.56	2.39
233.777	82.26
233.995	76.12
234.213	43.35
234.43	57.68
234.648	-7.85
234.865	-7.85
235.083	65.88
235.3	12.63
235.518	29.01
235.735	37.2
235.953	69.97
236.17	-57
236.388	39.25
236.605	33.11
236.822	61.78
237.04	35.16
237.257	22.87
237.475	16.73
237.692	31.06
237.909	82.26
238.127	74.07
238.344	-42.67
238.562	88.4
238.779	33.11
238.996	51.54
239.214	33.11
239.431	135.51
239.648	-11.95
239.865	45.4
240.083	37.2
240.3	69.97
240.517	59.73
240.735	20.82
240.952	80.21
241.169	39.25
241.386	84.31
241.603	12.63
241.821	-11.95
242.038	29.01
242.255	67.92
242.472	72.02
242.689	31.06
242.907	86.36
243.124	22.87
243.341	72.02
243.558	-28.33
243.775	49.49
243.992	-9.9
244.209	61.78
244.426	88.4
244.643	45.4
244.86	-9.9
245.078	63.83
245.295	96.6
245.512	72.02
245.729	20.82
245.946	61.78
246.163	90.45
246.38	76.12
246.597	35.16
246.814	-7.85
247.031	20.82
247.248	127.32
247.464	61.78
247.681	-16.04
247.898	49.49
248.115	123.22
248.332	2.39
248.549	43.35
248.766	100.69
248.983	92.5
249.2	29.01
249.417	76.12
249.633	-1.71
249.85	-9.9
250.067	8.53
250.284	76.12
250.501	37.2
250.717	69.97
250.934	43.35
251.151	-16.04
251.368	31.06
251.585	29.01
251.801	39.25
252.018	29.01
252.235	-26.28
252.451	-7.85
252.668	24.92
252.885	63.83
253.102	63.83
253.318	102.74
253.535	35.16
253.752	49.49
253.968	29.01
254.185	51.54
254.401	82.26
254.618	-5.8
254.835	-73.39
255.051	82.26
255.268	82.26
255.484	29.01
255.701	-16.04
255.917	39.25
256.134	57.68
256.351	-40.62
256.567	-1.71
256.784	45.4
257	-67.24
257.217	6.49
257.433	29.01
257.65	92.5
257.866	78.16
258.082	4.44
258.299	-26.28
258.515	76.12
258.732	-1.71
258.948	69.97
259.165	55.64
259.381	94.55
259.597	37.2
259.814	39.25
260.03	2.39
260.246	-16.04
260.463	61.78
260.679	-13.99
260.895	53.59
261.112	76.12
261.328	0.34
261.544	12.63
261.761	72.02
261.977	94.55
262.193	33.11
262.409	31.06
262.626	69.97
262.842	92.5
263.058	45.4
263.274	-3.75
263.49	39.25
263.707	57.68
263.923	33.11
264.139	18.77
264.355	26.96
264.571	41.3
264.787	76.12
265.004	110.93
265.22	43.35
265.436	4.44
265.652	41.3
265.868	31.06
266.084	63.83
266.3	104.79
266.516	10.58
266.732	33.11
266.948	49.49
267.164	-18.09
267.38	49.49
267.596	61.78
267.812	139.6
268.028	98.64
268.244	47.44
268.46	12.63
268.676	8.53
268.892	14.68
269.108	0.34
269.324	41.3
269.54	47.44
269.756	65.88
269.972	104.79
270.188	10.58
270.403	-7.85
270.619	59.73
270.835	43.35
271.051	18.77
271.267	55.64
271.483	51.54
271.698	33.11
271.914	69.97
272.13	112.98
272.346	59.73
272.562	26.96
272.777	102.74
272.993	18.77
273.209	-3.75
273.425	49.49
273.64	12.63
273.856	139.6
274.072	31.06
274.287	-20.14
274.503	94.55
274.719	37.2
274.934	6.49
275.15	24.92
275.366	26.96
275.581	12.63
275.797	51.54
276.012	26.96
276.228	41.3
276.444	49.49
276.659	65.88
276.875	8.53
277.09	47.44
277.306	29.01
277.521	123.22
277.737	76.12
277.952	2.39
278.168	115.03
278.383	35.16
278.599	16.73
278.814	43.35
279.03	39.25
279.245	49.49
279.461	26.96
279.676	80.21
279.892	37.2
280.107	6.49
280.322	20.82
280.538	24.92
280.753	-1.71
280.969	43.35
281.184	86.36
281.399	14.68
281.615	86.36
281.83	131.41
282.045	61.78
282.26	33.11
282.476	76.12
282.691	24.92
282.906	24.92
283.122	119.12
283.337	-18.09
283.552	16.73
283.767	-26.28
283.983	-7.85
284.198	80.21
284.413	35.16
284.628	31.06
284.843	10.58
285.058	104.79
285.274	31.06
285.489	51.54
285.704	-34.47
285.919	67.92
286.134	-30.38
286.349	57.68
286.564	63.83
286.779	96.6
286.995	92.5
287.21	10.58
287.425	41.3
287.64	10.58
287.855	6.49
288.07	33.11
288.285	76.12
288.5	102.74
288.715	106.84
288.93	57.68
289.145	76.12
289.36	96.6
289.575	-5.8
289.79	8.53
290.004	61.78
290.219	78.16
290.434	33.11
290.649	24.92
290.864	106.84
291.079	41.3
291.294	49.49
291.509	-1.71
291.724	63.83
291.938	8.53
292.153	135.51
292.368	-3.75
292.583	94.55
292.798	35.16
293.012	82.26
293.227	63.83
293.442	98.64
293.657	-1.71
293.871	63.83
294.086	37.2
294.301	100.69
294.516	39.25
294.73	6.49
294.945	43.35
295.16	6.49
295.374	74.07
295.589	61.78
295.804	-7.85
296.018	29.01
296.233	127.32
296.447	125.27
296.662	49.49
296.877	22.87
297.091	-9.9
297.306	-7.85
297.52	-46.76
297.735	43.35
297.949	67.92
298.164	43.35
298.378	43.35
298.593	61.78
298.807	65.88
299.022	117.08
299.236	86.36
299.451	14.68
299.665	-9.9
299.88	24.92
300.094	51.54
300.309	76.12
300.523	4.44
300.737	39.25
300.952	55.64
301.166	45.4
301.381	90.45
301.595	12.63
301.809	-1.71
302.024	78.16
302.238	2.39
302.452	37.2
302.667	16.73
302.881	-16.04
303.095	18.77
303.309	-26.28
303.524	-11.95
303.738	22.87
303.952	29.01
304.166	80.21
304.381	67.92
304.595	57.68
304.809	37.2
305.023	133.46
305.237	31.06
305.452	106.84
305.666	-18.09
305.88	84.31
306.094	39.25
306.308	100.69
306.522	31.06
306.736	78.16
306.95	51.54
307.164	22.87
307.379	74.07
307.593	29.01
307.807	29.01
308.021	31.06
308.235	31.06
308.449	16.73
308.663	127.32
308.877	80.21
309.091	-22.19
309.305	39.25
309.519	35.16
309.733	82.26
309.947	16.73
310.161	69.97
310.374	74.07
310.588	110.93
310.802	10.58
311.016	45.4
311.23	67.92
311.444	76.12
311.658	12.63
311.872	24.92
312.085	102.74
312.299	65.88
312.513	35.16
312.727	78.16
312.941	35.16
313.154	84.31
313.368	37.2
313.582	26.96
313.796	8.53
314.009	112.98
314.223	24.92
314.437	33.11
314.651	80.21
314.864	78.16
315.078	102.74
315.292	-40.62
315.505	18.77
315.719	-1.71
315.933	55.64
316.146	47.44
316.36	65.88
316.573	78.16
316.787	-3.75
317.001	37.2
317.214	43.35
317.428	-34.47
317.641	41.3
317.855	8.53
318.068	90.45
318.282	76.12
318.495	84.31
318.709	59.73
318.922	10.58
319.136	100.69
319.349	82.26
319.563	47.44
319.776	29.01
319.99	41.3
320.203	88.4
320.417	14.68
320.63	39.25
320.843	96.6
321.057	51.54
321.27	63.83
321.483	24.92
321.697	43.35
321.91	90.45
322.124	92.5
322.337	76.12
322.55	72.02
322.763	80.21
322.977	74.07
323.19	57.68
323.403	39.25
323.617	82.26
323.83	98.64
324.043	-13.99
324.256	33.11
324.469	55.64
324.683	84.31
324.896	149.84
325.109	61.78
325.322	20.82
325.535	86.36
325.748	35.16
325.962	65.88
326.175	22.87
326.388	82.26
326.601	10.58
326.814	69.97
327.027	-38.57
327.24	61.78
327.453	55.64
327.666	106.84
327.879	39.25
328.092	57.68
328.305	67.92
328.518	29.01
328.731	10.58
328.944	55.64
329.157	59.73
329.37	39.25
329.583	86.36
329.796	67.92
330.009	49.49
330.222	92.5
330.435	63.83
330.648	29.01
330.861	49.49
331.073	16.73
331.286	84.31
331.499	88.4
331.712	69.97
331.925	90.45
332.138	59.73
332.35	41.3
332.563	69.97
332.776	94.55
332.989	59.73
333.202	39.25
333.414	29.01
333.627	82.26
333.84	-7.85
334.053	119.12
334.265	14.68
334.478	29.01
334.691	63.83
334.903	65.88
335.116	45.4
335.329	67.92
335.541	55.64
335.754	49.49
335.966	-28.33
336.179	90.45
336.392	102.74
336.604	-1.71
336.817	72.02
337.029	47.44
337.242	31.06
337.454	172.37
337.667	22.87
337.88	106.84
338.092	61.78
338.305	35.16
338.517	45.4
338.729	43.35
338.942	117.08
339.154	-20.14
339.367	110.93
339.579	67.92
339.792	104.79
340.004	164.18
340.217	39.25
340.429	133.46
340.641	84.31
340.854	-9.9
341.066	59.73
341.278	29.01
341.491	29.01
341.703	82.26
341.915	26.96
342.128	37.2
342.34	33.11
342.552	26.96
342.764	10.58
342.977	88.4
343.189	8.53
343.401	80.21
343.613	49.49
343.826	53.59
344.038	24.92
344.25	92.5
344.462	61.78
344.674	35.16
344.886	84.31
345.099	76.12
345.311	49.49
345.523	-36.52
345.735	-46.76
345.947	31.06
346.159	20.82
346.371	74.07
346.583	-20.14
346.795	127.32
347.007	88.4
347.219	94.55
347.431	10.58
347.643	106.84
347.855	-48.81
348.067	29.01
348.279	55.64
348.491	49.49
348.703	94.55
348.915	41.3
349.127	94.55
349.339	18.77
349.551	43.35
349.763	65.88
349.975	74.07
350.187	133.46
350.399	24.92
350.61	24.92
350.822	51.54
351.034	119.12
351.246	26.96
351.458	8.53
351.669	76.12
351.881	61.78
352.093	100.69
352.305	51.54
352.517	53.59
352.728	110.93
352.94	39.25
353.152	110.93
353.363	18.77
353.575	47.44
353.787	67.92
353.999	80.21
354.21	145.75
354.422	26.96
354.633	92.5
354.845	53.59
355.057	67.92
355.268	168.27
355.48	72.02
355.692	47.44
355.903	94.55
356.115	41.3
356.326	8.53
356.538	115.03
356.749	59.73
356.961	35.16
357.172	76.12
357.384	67.92
357.595	135.51
357.807	92.5
358.018	-9.9
358.23	98.64
358.441	41.3
358.653	10.58
358.864	90.45
359.075	45.4
359.287	2.39
359.498	78.16
359.709	2.39
359.921	127.32
360.132	82.26
360.344	-26.28
360.555	127.32
360.766	29.01
360.977	108.88
361.189	0.34
361.4	2.39
361.611	10.58
361.823	65.88
362.034	31.06
362.245	92.5
362.456	37.2
362.667	67.92
362.879	43.35
363.09	51.54
363.301	139.6
363.512	65.88
363.723	20.82
363.935	20.82
364.146	76.12
364.357	90.45
364.568	98.64
364.779	65.88
364.99	67.92
365.201	100.69
365.412	106.84
365.623	82.26
365.834	119.12
366.045	26.96
366.256	69.97
366.467	139.6
366.678	55.64
366.889	24.92
367.1	-36.52
367.311	80.21
367.522	-16.04
367.733	33.11
367.944	104.79
368.155	53.59
368.366	29.01
368.577	35.16
368.788	90.45
368.999	57.68
369.209	37.2
369.42	57.68
369.631	82.26
369.842	78.16
370.053	110.93
370.264	47.44
370.474	61.78
370.685	69.97
370.896	76.12
371.107	121.17
371.317	26.96
371.528	76.12
371.739	61.78
371.95	67.92
372.16	174.42
372.371	22.87
372.582	61.78
372.792	55.64
373.003	102.74
373.214	84.31
373.424	74.07
373.635	31.06
373.846	88.4
374.056	115.03
374.267	129.36
374.477	69.97
374.688	69.97
374.898	24.92
375.109	112.98
375.319	102.74
375.53	20.82
375.74	45.4
375.951	182.61
376.161	37.2
376.372	84.31
376.582	-22.19
376.793	37.2
377.003	-1.71
377.214	92.5
377.424	-1.71
377.635	90.45
377.845	65.88
378.055	29.01
378.266	-5.8
378.476	106.84
378.686	94.55
378.897	104.79
379.107	78.16
379.317	76.12
379.528	76.12
379.738	72.02
379.948	80.21
380.158	72.02
380.369	37.2
380.579	84.31
380.789	123.22
380.999	78.16
381.21	45.4
381.42	88.4
381.63	147.8
381.84	137.56
382.05	72.02
382.261	164.18
382.471	12.63
382.681	51.54
382.891	143.7
383.101	41.3
383.311	31.06
383.521	153.94
383.731	106.84
383.941	92.5
384.151	0.34
384.361	57.68
384.571	72.02
384.781	104.79
384.991	100.69
385.201	31.06
385.411	125.27
385.621	57.68
385.831	67.92
386.041	100.69
386.251	84.31
386.461	110.93
386.671	65.88
386.881	80.21
387.091	90.45
387.301	115.03
387.511	100.69
387.72	86.36
387.93	63.83
388.14	33.11
388.35	59.73
388.56	74.07
388.769	92.5
388.979	198.99
389.189	61.78
389.399	119.12
389.609	119.12
389.818	80.21
390.028	39.25
390.238	69.97
390.447	88.4
390.657	178.51
390.867	92.5
391.076	41.3
391.286	94.55
391.496	74.07
391.705	37.2
391.915	35.16
392.125	110.93
392.334	94.55
392.544	90.45
392.753	108.88
392.963	74.07
393.172	147.8
393.382	47.44
393.591	125.27
393.801	45.4
394.01	104.79
394.22	147.8
394.429	131.41
394.639	63.83
394.848	164.18
395.058	121.17
395.267	72.02
395.477	162.13
395.686	131.41
395.895	80.21
396.105	121.17
396.314	86.36
396.524	117.08
396.733	117.08
396.942	207.19
397.152	45.4
397.361	94.55
397.57	72.02
397.78	49.49
397.989	151.89
398.198	110.93
398.407	151.89
398.617	59.73
398.826	137.56
399.035	96.6
399.244	149.84
399.453	57.68
399.663	115.03
399.872	94.55
400.081	223.57
400.29	86.36
400.499	72.02
400.708	149.84
400.917	121.17
401.127	178.51
401.336	145.75
401.545	223.57
401.754	65.88
401.963	168.27
402.172	102.74
402.381	143.7
402.59	104.79
402.799	88.4
403.008	137.56
403.217	94.55
403.426	209.23
403.635	129.36
403.844	155.99
404.053	121.17
404.262	186.71
404.471	205.14
404.68	184.66
404.888	141.65
405.097	176.47
405.306	153.94
405.515	160.08
405.724	205.14
405.933	145.75
406.142	190.8
406.35	174.42
406.559	213.33
406.768	186.71
406.977	192.85
407.185	201.04
407.394	149.84
407.603	235.86
407.812	301.39
408.02	301.39
408.229	194.9
408.438	244.05
408.646	201.04
408.855	282.96
409.064	291.15
409.272	309.58
409.481	366.93
409.69	256.34
409.898	297.3
410.107	319.82
410.315	293.2
410.524	362.83
410.733	385.36
410.941	340.3
411.15	411.98
411.358	364.88
411.567	446.8
411.775	405.84
411.984	483.66
412.192	416.08
412.401	487.76
412.609	553.29
412.818	567.63
413.026	506.19
413.234	602.44
413.443	420.17
413.651	563.53
413.86	655.69
414.068	655.69
414.276	604.49
414.485	672.08
414.693	670.03
414.901	776.52
415.11	706.89
415.318	819.53
415.526	829.77
415.734	803.15
415.943	907.59
416.151	911.69
416.359	823.62
416.567	938.31
416.776	989.51
416.984	1020.23
417.192	1087.81
417.4	1036.61
417.608	1065.29
417.817	1100.1
418.025	1184.07
418.233	1286.47
418.441	1233.22
418.649	1278.27
418.857	1345.86
419.065	1360.19
419.273	1435.97
419.481	1431.87
419.689	1521.98
419.897	1532.22
420.105	1710.4
420.313	1618.24
420.521	1622.33
420.729	1737.02
420.937	1802.55
421.145	1861.94
421.353	1997.11
421.561	2119.99
421.769	2122.04
421.977	2220.34
422.185	2158.9
422.393	2306.35
422.601	2322.74
422.809	2369.84
423.017	2429.23
423.224	2527.53
423.432	2656.56
423.64	2681.13
423.848	2971.94
424.056	2791.72
424.263	3047.72
424.471	3019.05
424.679	3092.77
424.887	3199.27
425.094	3471.65
425.302	3399.97
425.51	3467.55
425.718	3488.03
425.925	3612.96
426.133	3709.21
426.341	3971.35
426.548	4221.2
426.756	4196.63
426.964	4266.26
427.171	4612.37
427.379	4546.83
427.586	4606.22
427.794	4733.2
428.001	5015.82
428.209	5179.65
428.417	5132.55
428.624	5380.36
428.832	5525.76
429.039	5443.84
429.247	5443.84
429.454	6115.58
429.662	6332.66
429.869	6002.94
430.076	6447.35
430.284	6230.26
430.491	6570.23
430.699	6799.6
430.906	6936.81
431.114	7031.02
431.321	7211.24
431.528	7272.68
431.736	7725.28
431.943	8362.2
432.15	7874.78
432.358	7995.61
432.565	8483.03
432.772	8562.9
432.979	8972.49
433.187	9158.86
433.394	9144.52
433.601	9545.92
433.808	9605.31
434.016	9431.24
434.223	10279.1
434.43	10651.83
434.637	10549.43
434.844	11098.28
435.052	11145.39
435.259	11042.99
435.466	11389.1
435.673	11258.03
435.88	11837.6
436.087	12802.19
436.294	12691.6
436.501	12341.4
436.708	12683.41
436.915	13017.23
437.122	13541.51
437.329	13645.96
437.537	13936.77
437.743	14252.16
437.95	13977.73
438.157	14925.94
438.364	15394.92
438.571	15304.81
438.778	15265.9
438.985	16891.99
439.192	15976.55
439.399	16699.48
439.606	16519.26
439.813	17436.75
440.02	18507.83
440.227	17893.44
440.433	17877.06
440.64	18567.23
440.847	18516.03
441.054	19111.99
441.261	19763.24
441.467	19669.03
441.674	20086.82
441.881	20975.64
442.088	21008.4
442.294	20586.52
442.501	21254.16
442.708	21483.53
442.914	22579.2
443.121	23398.38
443.328	22618.11
443.534	24514.53
443.741	23951.34
443.948	23408.62
444.154	25311.19
444.361	24907.74
444.568	24934.36
444.774	25161.69
444.981	25456.59
445.187	25919.43
445.394	27213.75
445.6	26800.06
445.807	29552.53
446.013	28266.41
446.22	28630.94
446.426	29573.01
446.633	30154.63
446.839	30828.41
447.046	29720.46
447.252	31354.74
447.459	31364.98
447.665	31430.52
447.871	32624.48
448.078	34248.52
448.284	32581.48
448.491	33322.84
448.697	34903.87
448.903	35237.69
449.11	35258.17
449.316	34867.01
449.522	35620.66
449.728	36357.93
449.935	36665.13
450.141	36820.77
450.347	37402.39
450.553	36265.77
450.76	37134.11
450.966	37793.56
451.172	37875.48
451.378	38840.07
451.584	37566.23
451.791	38340.36
451.997	38440.71
452.203	39290.62
452.409	39345.92
452.615	39022.34
452.821	37709.59
453.027	37373.72
453.233	39171.84
453.44	37756.69
453.646	37840.66
453.852	38172.43
454.058	39231.23
454.264	37629.72
454.47	38276.88
454.676	37433.11
454.882	39200.51
455.088	35587.89
455.294	35962.67
455.5	36630.31
455.705	36839.2
455.911	35542.84
456.117	35016.51
456.323	34336.59
456.529	32755.55
456.735	33873.74
456.941	33251.16
457.147	32446.31
457.352	31831.92
457.558	30883.71
457.764	31561.59
457.97	30603.14
458.176	29921.16
458.381	30039.95
458.587	28356.52
458.793	28514.21
458.999	27000.76
459.204	29196.18
459.41	28002.22
459.616	25968.59
459.821	26755.01
460.027	26337.22
460.233	25749.45
460.438	24696.8
460.644	24877.02
460.85	23828.46
461.055	23150.58
461.261	23277.55
461.466	21446.67
461.672	20738.07
461.878	22169.6
462.083	21088.28
462.289	20346.91
462.494	19908.65
462.7	19195.95
462.905	18907.19
463.111	19470.38
463.316	19644.46
463.522	19130.42
463.727	19042.35
463.932	19185.71
464.138	18776.12
464.343	19124.27
464.549	18438.2
464.754	18896.95
464.959	18950.2
465.165	18864.18
465.37	17954.88
465.575	17748.04
465.781	18356.29
465.986	18206.78
466.191	17598.54
466.397	17252.43
466.602	16318.56
466.807	17231.95
467.012	17082.45
467.218	16900.18
467.423	16773.21
467.628	16943.19
467.833	17571.91
468.038	16898.13
468.244	16326.75
468.449	17174.61
468.654	16500.83
468.859	16474.2
469.064	16373.85
469.269	15665.25
469.474	15863.91
469.679	16269.41
469.885	15634.53
470.09	16097.38
470.295	15781.99
470.5	15376.49
470.705	15476.84
470.91	15003.76
471.115	14956.66
471.32	15069.3
471.525	15097.97
471.73	14786.68
471.935	14803.06
472.139	14030.98
472.344	14358.65
472.549	14407.8
472.754	14209.15
472.959	13942.91
473.164	13420.68
473.369	13404.3
473.574	13959.3
473.778	13979.78
473.983	13424.78
474.188	13363.34
474.393	12888.21
474.598	12894.35
474.802	12765.33
475.007	12576.92
475.212	12718.23
475.417	12454.04
475.621	12339.35
475.826	12365.98
476.031	11866.27
476.235	12062.88
476.44	12077.21
476.645	11882.66
476.849	11909.28
477.054	11704.48
477.259	11380.9
477.463	11546.79
477.668	11143.34
477.872	11501.73
478.077	11059.37
478.282	10961.07
478.486	10889.39
478.691	10819.76
478.895	10707.12
479.1	10576.05
479.304	10698.93
479.509	10412.21
479.713	10430.65
479.918	10395.83
480.122	10211.51
480.326	10332.34
480.531	10305.72
480.735	10215.61
480.94	10041.53
481.144	10610.87
481.348	9926.85
481.553	10109.12
481.757	9814.21
481.961	10025.15
482.166	9996.48
482.37	9877.69
482.574	9797.82
482.778	9937.09
482.983	10129.59
483.187	9887.93
483.391	9951.42
483.595	9984.19
483.8	9691.33
484.004	9791.68
484.208	9955.52
484.412	9885.89
484.616	9978.05
484.821	10164.41
485.025	9756.86
485.229	9836.74
485.433	9763.01
485.637	9920.7
485.841	9681.09
486.045	9832.64
486.249	9865.41
486.453	9609.41
486.657	9717.95
486.861	9988.28
487.065	9676.99
487.269	9783.49
487.473	9656.51
487.677	9980.09
487.881	9824.45
488.085	9795.78
488.289	9849.02
488.493	9840.83
488.697	10102.97
488.901	9947.33
489.105	9842.88
489.309	9736.38
489.512	9859.26
489.716	10062.01
489.92	10084.54
490.124	9953.47
490.328	10010.81
490.531	9978.05
490.735	10016.96
490.939	9961.66
491.143	10107.07
491.346	9998.52
491.55	10537.14
491.754	10201.27
491.958	10223.8
492.161	10361.02
492.365	10430.65
492.569	10115.26
492.772	10371.26
492.976	10483.89
493.18	10690.74
493.383	10512.56
493.587	10483.89
493.79	10848.43
493.994	10700.98
494.197	10703.03
494.401	10918.06
494.605	10819.76
494.808	11008.17
495.012	10948.78
495.215	10942.64
495.419	11303.08
495.622	11210.92
495.825	11452.58
496.029	11270.31
496.232	11843.74
496.436	11526.31
496.639	11659.43
496.843	11788.45
497.046	11983.01
497.249	12214.43
497.453	12005.53
497.656	12157.08
497.859	12152.99
498.063	12411.03
498.266	12689.56
498.469	12488.85
498.673	12791.95
498.876	13244.56
499.079	13254.8
499.282	13256.84
499.485	13561.99
499.689	13359.24
499.892	13785.22
500.095	13789.31
500.298	13926.53
500.501	13734.02
500.705	14297.21
500.908	14446.71
501.111	14368.89
501.314	14667.89
501.517	14864.5
501.72	15011.95
501.923	15194.22
502.126	15401.07
502.329	15343.72
502.532	15589.48
502.735	15718.5
502.938	16029.79
503.141	16152.67
503.344	16441.43
503.547	16390.24
503.75	16597.08
503.953	16973.91
504.156	17066.06
504.359	17041.49
504.562	17272.91
504.765	17627.21
504.968	17502.28
505.17	17969.22
505.373	17801.29
505.576	18333.76
505.779	18303.04
505.982	18716.73
506.185	18765.88
506.387	19046.45
506.59	19120.18
506.793	19294.25
506.996	19578.92
507.198	19748.9
507.401	19785.77
507.604	20027.43
507.807	20453.41
508.009	20578.33
508.212	20656.15
508.415	21014.55
508.617	21209.11
508.82	21096.47
509.022	21235.73
509.225	22007.81
509.428	21813.26
509.63	22048.77
509.833	22106.12
510.035	22743.03
510.238	22478.85
510.44	22851.58
510.643	23187.44
510.845	23269.36
511.048	23459.82
511.25	23760.87
511.453	23846.89
511.655	24670.17
511.858	24332.26
512.06	24563.68
512.262	24948.7
512.465	24944.6
512.667	25278.42
512.87	25905.1
513.072	25409.49
513.274	25982.92
513.477	25944.01
513.679	26456
513.881	26558.4
514.084	27215.8
514.286	27260.85
514.488	27150.26
514.69	28153.77
514.893	28010.41
515.095	27975.59
515.297	28422.05
515.499	28551.07
515.701	28934.04
515.904	29030.3
516.106	29589.39
516.308	29456.28
516.51	29699.98
516.712	30250.89
516.914	30369.67
517.116	30584.71
517.318	30689.15
517.52	30631.81
517.722	31160.19
517.925	31483.76
518.127	31647.6
518.329	31987.57
518.531	31944.56
518.733	32640.87
518.935	32786.27
519.136	32853.86
519.338	33464.15
519.54	33224.54
519.742	33912.66
519.944	33810.26
520.146	34271.05
520.348	34565.96
520.55	34766.66
520.752	34727.75
520.954	35419.96
521.155	35014.46
521.357	35532.6
521.559	36157.23
521.761	36345.64
521.963	36413.23
522.164	36460.33
522.366	36687.65
522.568	37054.24
522.77	37365.53
522.971	38129.42
523.173	37529.37
523.375	37922.58
523.576	38020.88
523.778	38225.68
523.98	38579.98
524.181	38477.58
524.383	38631.18
524.584	39323.39
524.786	39433.98
524.988	39126.78
525.189	39622.39
525.391	39702.26
525.592	39708.41
525.794	40093.43
525.995	39880.44
526.197	40318.7
526.398	40677.1
526.6	40765.16
526.801	40929
527.003	41301.73
527.204	41184.99
527.406	41275.1
527.607	41365.21
527.808	41504.48
528.01	41488.09
528.211	41826.01
528.412	42215.12
528.614	41813.72
528.815	42079.96
529.016	42272.46
529.218	42282.7
529.419	42540.75
529.62	42473.17
529.822	42370.77
530.023	42464.97
530.224	42505.93
530.425	42505.93
530.626	42415.82
530.828	42550.99
531.029	43525.82
531.23	42806.98
531.431	42813.13
531.632	42878.66
531.833	43386.56
532.035	43007.69
532.236	43003.59
532.437	42979.01
532.638	43095.75
532.839	43468.48
533.04	43568.83
533.241	42538.7
533.442	43970.23
533.643	43607.74
533.844	43491.01
534.045	43443.9
534.246	43370.18
534.447	43699.9
534.648	43558.59
534.849	43216.58
535.05	43609.79
535.251	43773.63
535.451	43325.12
535.652	43722.43
535.853	43755.19
536.054	43828.92
536.255	43763.39
536.456	43290.3
536.657	44080.82
536.857	43404.99
537.058	43878.07
537.259	43824.82
537.46	43615.93
537.66	43880.12
537.861	43654.84
538.062	42974.92
538.263	43577.02
538.463	43785.91
538.664	43251.39
538.865	43691.71
539.065	43761.34
539.266	43349.7
539.466	44228.27
539.667	43181.76
539.868	43966.13
540.068	43574.97
540.269	43769.53
540.469	43861.69
540.67	43677.37
540.87	43812.54
541.071	43753.15
541.271	43218.63
541.472	43464.38
541.672	43755.19
541.873	43394.75
542.073	43019.97
542.274	43503.29
542.474	43550.4
542.675	43175.62
542.875	43312.83
543.075	43497.15
543.276	43216.58
543.476	43669.18
543.676	43194.05
543.877	43200.19
544.077	43505.34
544.277	43294.4
544.478	43335.36
544.678	43697.85
544.878	43044.55
545.078	43124.42
545.279	42950.34
545.479	42802.89
545.679	43402.94
545.879	43093.7
546.079	43208.39
546.28	43146.95
546.48	43224.77
546.68	43644.6
546.88	43298.5
547.08	43163.33
547.28	43312.83
547.48	42962.63
547.68	43433.66
547.88	42563.28
548.081	43159.23
548.281	43105.99
548.481	42600.14
548.681	43361.98
548.881	43169.47
549.081	43433.66
549.28	42710.73
549.48	43556.54
549.68	42784.46
549.88	43609.79
550.08	42911.43
550.28	43159.23
550.48	42979.01
550.68	43368.13
550.88	43214.53
551.08	43022.02
551.279	42913.48
551.479	42780.36
551.679	43030.21
551.879	42835.66
552.079	42727.11
552.278	42952.39
552.478	42817.22
552.678	42643.15
552.878	42786.5
553.077	42997.45
553.277	42620.62
553.477	42989.25
553.676	42620.62
553.876	42573.52
554.076	42610.38
554.275	42718.92
554.475	42225.36
554.674	42229.46
554.874	42385.1
555.074	42163.92
555.273	42417.87
555.473	42475.21
555.672	42092.24
555.872	41887.45
556.071	42313.42
556.271	42690.25
556.47	42190.55
556.67	41705.18
556.869	41844.44
557.068	42464.97
557.268	41842.39
557.467	42258.13
557.667	41961.17
557.866	41977.56
558.065	41793.24
558.265	41862.87
558.464	41696.99
558.663	41883.35
558.863	41381.6
559.062	42299.09
559.261	41029.35
559.461	41840.34
559.66	41342.69
559.859	41369.31
560.058	41158.37
560.258	41400.03
560.457	41146.08
560.656	41625.31
560.855	41015.01
561.054	41015.01
561.253	41154.27
561.453	40857.32
561.652	41438.94
561.851	41070.31
562.05	40701.67
562.249	40797.93
562.448	41141.99
562.647	40986.34
562.846	40623.85
563.045	40972
563.244	40097.52
563.443	40851.17
563.642	40015.6
563.841	40077.04
564.04	39855.86
564.239	40199.92
564.438	39741.17
564.637	40527.59
564.836	40122.1
565.035	39939.83
565.234	39573.24
565.432	39902.96
565.631	39663.35
565.83	39685.88
566.029	39462.65
566.228	39151.36
566.427	39020.29
566.625	39141.12
566.824	38944.52
567.023	39446.27
567.222	38496.01
567.42	39247.61
567.619	38897.41
567.818	38874.88
568.016	38651.66
568.215	39145.22
568.414	38655.75
568.612	38969.09
568.811	38645.51
569.01	38721.29
569.208	37918.48
569.407	38340.36
569.605	37928.72
569.804	38221.58
570.002	37809.94
570.201	38143.76
570.4	37537.56
570.598	37685.01
570.797	37451.55
570.995	37736.21
571.193	37107.49
571.392	37545.75
571.59	37293.85
571.789	37152.54
571.987	37181.21
572.186	37254.94
572.384	37273.37
572.582	36935.46
572.781	36986.66
572.979	36646.69
573.177	36878.11
573.376	36562.73
573.574	36222.76
573.772	36546.34
573.971	36384.55
574.169	36425.51
574.367	35716.92
574.565	36263.72
574.763	36015.92
574.962	36046.64
575.16	35415.86
575.358	35788.6
575.556	35612.47
575.754	35829.55
575.952	35530.55
576.151	35940.14
576.349	35299.13
576.547	35518.26
576.745	35348.28
576.943	34719.56
577.141	35245.88
577.339	34955.07
577.537	35137.34
577.735	34903.87
577.933	34686.79
578.131	35059.52
578.329	34674.5
578.527	34391.88
578.725	34529.09
578.923	34492.23
579.121	34672.45
579.319	34283.34
579.516	34381.64
579.714	34285.39
579.912	34090.83
580.11	33828.69
580.308	33685.33
580.506	33939.28
580.704	33361.75
580.901	33591.12
581.099	33738.58
581.297	33165.15
581.495	33212.25
581.692	33726.29
581.89	32890.72
582.088	33359.7
582.285	33275.74
582.483	33269.59
582.681	33320.79
582.878	33048.41
583.076	32704.35
583.274	32593.76
583.471	32190.31
583.669	32393.06
583.866	32315.24
584.064	33005.41
584.262	32104.3
584.459	32405.35
584.657	32315.24
584.854	32649.06
585.052	31600.5
585.249	31811.44
585.447	31995.76
585.644	31588.21
585.841	31385.46
586.039	31967.09
586.236	31188.86
586.434	31432.57
586.631	31360.89
586.828	31061.88
587.026	30871.42
587.223	31139.71
587.42	30924.67
587.618	30994.3
587.815	30607.23
588.012	30318.47
588.21	30766.98
588.407	30572.42
588.604	30498.69
588.801	30134.15
588.999	30381.96
589.196	30447.49
589.393	30250.89
589.59	29663.12
589.787	29929.36
589.984	29806.48
590.182	29573.01
590.379	29951.88
590.576	29814.67
590.773	29683.6
590.97	29474.71
591.167	29687.7
591.364	29185.94
591.561	29425.56
591.758	29030.3
591.955	29523.86
592.152	29052.83
592.349	28923.8
592.546	28915.61
592.743	28749.73
592.94	28266.41
593.137	28848.03
593.334	28985.24
593.531	28034.99
593.727	28770.21
593.924	28467.11
594.121	28307.37
594.318	28463.01
594.515	27934.64
594.712	28250.02
594.908	28155.82
595.105	27719.6
595.302	27613.1
595.499	27811.76
595.696	27520.95
595.892	27619.25
596.089	27496.37
596.286	27649.97
596.482	27326.39
596.679	27195.32
596.876	27275.19
597.072	27205.56
597.269	27658.16
597.466	26677.18
597.662	26822.59
597.859	26949.56
598.055	27166.65
598.252	26720.19
598.448	26648.51
598.645	26558.4
598.841	26335.17
599.038	26533.82
599.234	26099.66
599.431	25991.11
599.627	26163.14
599.824	26167.24
600.02	26050.5
600.217	26046.41
600.413	25913.29
600.609	25624.53
600.806	25532.37
601.002	25829.32
601.198	25358.29
601.395	25405.39
601.591	25282.52
601.787	25503.7
601.984	25282.52
602.18	25411.54
602.376	25268.18
602.572	25047
602.769	24866.78
602.965	24678.36
603.161	24860.63
603.357	24791
603.553	24670.17
603.75	24514.53
603.946	24385.51
604.142	24338.4
604.338	24176.61
604.534	24405.98
604.73	23900.14
604.926	24281.06
605.122	24322.02
605.318	23924.71
605.514	23818.22
605.71	23795.69
605.906	23769.07
606.102	23842.79
606.298	23734.25
606.494	23666.67
606.69	23666.67
606.886	23873.51
607.082	23306.23
607.278	23394.29
607.474	23169.01
607.67	23629.8
607.866	23134.2
608.062	23465.97
608.257	23197.68
608.453	23261.17
608.649	23246.83
608.845	23060.47
609.041	22847.48
609.236	23177.2
609.432	23191.54
609.628	22980.6
609.824	22972.41
610.019	22927.35
610.215	22740.99
610.411	22753.27
610.606	22538.24
610.802	22708.22
610.998	22505.47
611.193	22511.61
611.389	22255.62
611.584	22358.02
611.78	22491.13
611.976	22415.36
612.171	22235.14
612.367	22210.56
612.562	22083.59
612.758	21831.69
612.953	21846.02
613.149	22286.34
613.344	21692.43
613.539	22360.06
613.735	21944.33
613.93	22093.83
614.126	22003.72
614.321	21973
614.517	21878.79
614.712	22052.87
614.907	21991.43
615.103	21798.92
615.298	21637.13
615.493	21684.23
615.688	21391.37
615.884	21717
616.079	20994.07
616.274	21508.11
616.47	21506.06
616.665	21731.34
616.86	21248.02
617.055	21215.25
617.25	20983.83
617.445	21135.38
617.641	21010.45
617.836	21198.87
618.031	20889.62
618.226	20965.4
618.421	20912.15
618.616	21037.08
618.811	20576.28
619.006	20926.49
619.201	20328.48
619.396	20650.01
619.591	20140.07
619.786	20295.71
619.981	20244.51
620.176	20346.91
620.371	20359.2
620.566	20174.88
620.761	20076.58
620.956	20367.39
621.151	19853.35
621.346	20043.81
621.541	19646.51
621.735	19861.54
621.93	19109.94
622.125	19261.49
622.32	19273.78
622.515	19363.89
622.709	19097.65
622.904	19167.28
623.099	18774.07
623.294	18868.28
623.488	18731.06
623.683	19165.23
623.878	18516.03
624.072	18397.24
624.267	18470.97
624.462	18315.33
624.656	18260.03
624.851	18354.24
625.046	17737.8
625.24	17948.74
625.435	17805.38
625.629	17821.77
625.824	17750.09
626.018	17725.51
626.213	17250.38
626.407	17338.44
626.602	17070.16
626.796	17473.61
626.991	17147.98
627.185	17098.83
627.38	16877.65
627.574	16951.38
627.768	16785.49
627.963	16609.37
628.157	16531.55
628.352	16654.42
628.546	16429.15
628.74	16316.51
628.935	15929.44
629.129	16154.72
629.323	15861.86
629.517	15884.39
629.712	15896.67
629.906	15992.93
630.1	15446.12
630.294	15958.11
630.489	15513.7
630.683	15501.42
630.877	15298.67
631.071	15280.24
631.265	15505.51
631.459	15104.11
631.653	14930.03
631.848	14995.57
632.042	14809.2
632.236	15100.01
632.43	14688.37
632.624	14846.07
632.818	14538.87
633.012	14266.49
633.206	14401.66
633.4	14518.39
633.594	14203
633.788	14315.64
633.982	14170.24
634.176	13983.87
634.369	13846.66
634.563	13770.88
634.757	13834.37
634.951	13918.34
635.145	13959.3
635.339	13740.16
635.533	13592.71
635.726	13613.19
635.92	13357.19
636.114	13326.47
636.308	13283.47
636.501	13254.8
636.695	13320.33
636.889	13207.69
637.083	13047.95
637.276	13000.85
637.47	12947.6
637.664	12865.68
637.857	12892.3
638.051	12837.01
638.244	12724.37
638.438	12654.74
638.632	12646.55
638.825	12476.57
639.019	12523.67
639.212	12271.77
639.406	12572.82
639.599	12359.83
639.793	12216.47
639.986	11991.2
640.18	11903.14
640.373	12017.82
640.567	11882.66
640.76	11925.66
640.954	11827.36
641.147	11786.4
641.34	11692.19
641.534	11833.5
641.727	11636.9
641.92	11389.1
642.114	11192.49
642.307	11522.21
642.5	11380.9
642.694	11083.95
642.887	11385
643.08	11169.96
643.273	11034.8
643.467	11147.44
643.66	11006.13
643.853	10629.3
644.046	10692.79
644.239	10965.17
644.432	10549.43
644.626	10696.88
644.819	10580.15
645.012	10746.03
645.205	10608.82
645.398	10555.57
645.591	10367.16
645.784	10440.89
645.977	10199.23
646.17	10346.68
646.363	10023.1
646.556	10252.47
646.749	10082.49
646.942	10141.88
647.135	10154.17
647.328	9955.52
647.521	10031.29
647.714	9593.03
647.907	9744.58
648.099	9728.19
648.292	9945.28
648.485	9593.03
648.678	9507.01
648.871	9629.89
649.064	9371.85
649.256	9584.84
649.449	9302.22
649.642	9451.72
649.835	9156.81
650.027	9255.11
650.22	9339.08
650.413	9298.12
650.605	9386.18
650.798	9177.29
650.991	8888.53
651.183	9056.46
651.376	8992.97
651.568	9038.03
651.761	8962.25
651.954	8818.89
652.146	8847.57
652.339	8786.13
652.531	8751.31
652.724	8706.26
652.916	8505.56
653.109	8409.3
653.301	8577.23
653.494	8476.88
653.686	8321.24
653.879	8442.07
654.071	8165.59
654.263	8317.14
654.456	8308.95
654.648	8478.93
654.84	8089.82
655.033	8167.64
655.225	8169.69
655.417	8114.39
655.61	8085.72
655.802	7870.69
655.994	7950.56
656.186	7968.99
656.379	7977.18
656.571	7882.97
656.763	7780.57
656.955	7698.66
657.148	7768.29
657.34	7510.24
657.532	7514.34
657.724	7657.7
657.916	7479.52
658.108	7442.66
658.3	7389.41
658.492	7450.85
658.684	7426.28
658.876	7065.83
659.068	7354.6
659.26	7409.89
659.452	7201
659.644	7282.92
659.836	7059.69
660.028	7145.7
660.22	6889.71
660.412	7059.69
660.604	6899.95
660.796	6902
660.988	6953.2
661.18	6703.34
661.372	6842.6
661.563	6822.13
661.755	6746.35
661.947	6852.84
662.139	6660.34
662.331	6674.67
662.522	6758.64
662.714	6648.05
662.906	6430.96
663.097	6648.05
663.289	6533.36
663.481	6365.43
663.673	6408.44
663.864	6373.62
664.056	6361.33
664.247	6390
664.439	6177.02
664.631	6402.29
664.822	6078.71
665.014	6181.11
665.205	6152.44
665.397	6148.34
665.588	6164.73
665.78	6213.88
665.971	6027.51
666.163	6070.52
666.354	6029.56
666.546	5869.82
666.737	5951.74
666.929	5875.96
667.12	6035.71
667.311	5822.72
667.503	5804.28
667.694	5757.18
667.885	5662.97
668.077	5759.23
668.268	5695.74
668.459	5820.67
668.651	5716.22
668.842	5685.5
669.033	5574.91
669.224	5484.8
669.416	5570.82
669.607	5568.77
669.798	5470.47
669.989	5585.15
670.18	5398.79
670.371	5499.14
670.563	5466.37
670.754	5533.95
670.945	5269.76
671.136	5443.84
671.327	5339.4
671.518	5267.72
671.709	5380.36
671.9	5380.36
672.091	5253.38
672.282	5189.89
672.473	5054.73
672.664	5259.53
672.855	5077.26
673.046	5226.76
673.237	5206.28
673.428	5140.74
673.619	5124.36
673.809	5030.15
674	5009.67
674.191	4909.32
674.382	4915.47
674.573	4907.27
674.764	4966.67
674.954	4919.56
675.145	4962.57
675.336	4931.85
675.527	4923.66
675.717	4993.29
675.908	4790.54
676.099	4819.21
676.289	4872.46
676.48	4641.04
676.671	4776.2
676.861	4782.35
677.052	4645.13
677.243	4684.05
677.433	4538.64
677.624	4747.53
677.814	4702.48
678.005	4821.26
678.195	4716.81
678.386	4514.06
678.576	4542.74
678.767	4534.54
678.957	4647.18
679.148	4563.22
679.338	4602.13
679.529	4575.5
679.719	4567.31
679.909	4624.65
680.1	4469.01
680.29	4604.18
680.481	4436.24
680.671	4544.78
680.861	4382.99
681.052	4516.11
681.242	4387.09
681.432	4579.6
681.622	4284.69
681.813	4366.61
682.003	4405.52
682.193	4305.17
682.383	4288.79
682.573	4512.02
682.764	4387.09
682.954	4198.68
683.144	4299.03
683.334	4292.88
683.524	4380.95
683.714	4247.83
683.904	4239.64
684.094	4309.27
684.284	4202.77
684.474	4186.39
684.664	4040.98
684.854	4192.53
685.044	4344.08
685.234	4120.85
685.424	4088.09
685.614	4067.61
685.804	4088.09
685.994	4047.13
686.184	4018.46
686.374	4127
686.564	4120.85
686.753	3981.59
686.943	3924.25
687.133	3860.76
687.323	3934.49
687.513	3922.2
687.702	3889.43
687.892	3897.63
688.082	3871
688.272	3950.87
688.461	3903.77
688.651	3883.29
688.841	3850.52
689.03	3836.19
689.22	3741.98
689.41	3703.07
689.599	3772.7
689.789	3780.89
689.979	3715.36
690.168	3619.1
690.358	3666.21
690.547	3776.8
690.737	3731.74
690.926	3774.75
691.116	3623.2
691.305	3655.97
691.495	3561.76
691.684	3524.9
691.874	3518.75
692.063	3541.28
692.252	3477.79
692.442	3365.15
692.631	3359.01
692.82	3490.08
693.01	3461.41
693.199	3481.89
693.388	3318.05
693.578	3352.87
693.767	3338.53
693.956	3182.88
694.146	3361.06
694.335	3184.93
694.524	3289.38
694.713	3322.15
694.902	3215.65
695.092	3170.6
695.281	3191.08
695.47	3307.81
695.659	3205.41
695.848	3199.27
696.037	3182.88
696.226	3250.47
696.415	3266.85
696.604	3076.39
696.793	3033.38
696.982	3133.73
697.171	3158.31
697.36	3172.64
697.549	3244.32
697.738	3156.26
697.927	3064.1
698.116	3154.21
698.305	3129.64
698.494	3090.73
698.683	3197.22
698.872	3031.34
699.061	3166.5
699.25	2947.37
699.438	2883.88
699.627	3025.19
699.816	2963.75
700.005	2890.03
700.193	2992.42
700.382	2978.09
700.571	2849.07
700.76	2988.33
700.948	2898.22
701.137	3008.81
701.326	3012.9
701.514	2961.7
701.703	2988.33
701.892	2959.66
702.08	3008.81
702.269	3019.05
702.457	2937.13
702.646	2908.46
702.834	2998.57
703.023	2746.67
703.212	2984.23
703.4	2881.83
703.589	2965.8
703.777	2955.56
703.965	2834.73
704.154	2951.46
704.342	2924.84
704.531	2908.46
704.719	2773.29
704.907	2926.89
705.096	2857.26
705.284	2930.98
705.472	2836.78
705.661	2908.46
705.849	2808.11
706.037	2791.72
706.226	2793.77
706.414	2785.58
706.602	2765.1
706.79	2844.97
706.979	2808.11
707.167	2799.91
707.355	2804.01
707.543	2781.48
707.731	2828.59
707.919	2744.62
708.107	2797.87
708.296	2847.02
708.484	2672.94
708.672	2828.59
708.86	2806.06
709.048	2801.96
709.236	2765.1
709.424	2828.59
709.612	2871.59
709.8	2736.43
709.988	2808.11
710.176	2789.67
710.364	2765.1
710.551	2781.48
710.739	2763.05
710.927	2834.73
711.115	2664.75
711.303	2838.83
711.491	2750.76
711.679	2859.31
711.866	2683.18
712.054	2867.5
712.242	2718
712.43	2769.2
712.617	2750.76
712.805	2687.28
712.993	2658.6
713.181	2683.18
713.368	2797.87
713.556	2679.08
713.744	2646.32
713.931	2875.69
714.119	2748.72
714.306	2765.1
714.494	2705.71
714.682	2703.66
714.869	2672.94
715.057	2715.95
715.244	2564.4
715.432	2842.92
715.619	2599.21
715.807	2732.33
715.994	2689.32
716.182	2752.81
716.369	2691.37
716.556	2787.63
716.744	2593.07
716.931	2701.61
717.119	2793.77
717.306	2849.07
717.493	2654.51
717.681	2695.47
717.868	2789.67
718.055	2640.17
718.242	2566.45
718.43	2718
718.617	2664.75
718.804	2666.8
718.991	2779.43
719.179	2722.09
719.366	2681.13
719.553	2722.09
719.74	2697.52
719.927	2707.76
720.114	2734.38
720.301	2562.35
720.488	2703.66
720.676	2726.19
720.863	2761
721.05	2705.71
721.237	2650.41
721.424	2588.97
721.611	2853.16
721.798	2615.6
721.985	2623.79
722.172	2775.34
722.358	2691.37
722.545	2615.6
722.732	2625.84
722.919	2695.47
723.106	2605.36
723.293	2621.74
723.48	2736.43
723.667	2650.41
723.853	2619.69
724.04	2670.89
724.227	2613.55
724.414	2550.06
724.6	2715.95
724.787	2738.48
724.974	2625.84
725.161	2595.12
725.347	2562.35
725.534	2748.72
725.72	2623.79
725.907	2715.95
726.094	2593.07
726.28	2652.46
726.467	2574.64
726.653	2591.02
726.84	2726.19
727.027	2674.99
727.213	2568.49
727.4	2625.84
727.586	2771.24
727.773	2603.31
727.959	2746.67
728.145	2605.36
728.332	2519.34
728.518	2703.66
728.705	2631.98
728.891	2634.03
729.077	2599.21
729.264	2687.28
729.45	2605.36
729.636	2720.04
729.823	2588.97
730.009	2621.74
730.195	2652.46
730.382	2679.08
730.568	2672.94
730.754	2728.24
730.94	2699.56
731.126	2672.94
731.313	2627.89
731.499	2586.93
731.685	2758.96
731.871	2605.36
732.057	2793.77
732.243	2767.15
732.429	2650.41
732.615	2806.06
732.801	2640.17
732.987	2674.99
733.173	2674.99
733.359	2629.93
733.545	2617.65
733.731	2564.4
733.917	2625.84
734.103	2603.31
734.289	2701.61
734.475	2701.61
734.661	2640.17
734.847	2838.83
735.033	2597.17
735.219	2539.82
735.404	2609.45
735.59	2666.8
735.776	2572.59
735.962	2679.08
736.148	2621.74
736.333	2638.13
736.519	2509.1
736.705	2605.36
736.89	2554.16
737.076	2545.97
737.262	2724.14
737.447	2535.73
737.633	2697.52
737.819	2617.65
738.004	2451.76
738.19	2562.35
738.375	2652.46
738.561	2636.08
738.747	2490.67
738.932	2431.28
739.118	2674.99
739.303	2595.12
739.489	2695.47
739.674	2519.34
739.859	2531.63
740.045	2580.78
740.23	2691.37
740.416	2554.16
740.601	2539.82
740.786	2535.73
740.972	2576.69
741.157	2539.82
741.342	2396.46
741.528	2431.28
741.713	2462
741.898	2562.35
742.084	2580.78
742.269	2537.77
742.454	2535.73
742.639	2470.19
742.824	2431.28
743.01	2466.1
743.195	2505.01
743.38	2537.77
743.565	2466.1
743.75	2294.07
743.935	2347.31
744.12	2414.9
744.305	2232.63
744.49	2386.22
744.675	2431.28
744.86	2310.45
745.045	2335.03
745.23	2390.32
745.415	2357.55
745.6	2298.16
745.785	2240.82
745.97	2296.11
746.155	2191.67
746.34	2298.16
746.525	2183.48
746.71	2296.11
746.895	2306.35
747.079	2279.73
747.264	2218.29
747.449	2277.68
747.634	2220.34
747.819	2232.63
748.003	2154.8
748.188	2318.64
748.373	2105.65
748.557	2165.04
748.742	2228.53
748.927	2212.15
749.111	2130.23
749.296	2138.42
749.481	2099.51
749.665	2154.8
749.85	2011.45
750.034	1993.01
750.219	2132.28
750.404	1988.92
750.588	1978.68
750.773	1952.06
750.957	2027.83
751.141	1958.2
751.326	1945.91
751.51	1972.54
751.695	1984.82
751.879	1929.53
752.064	1976.63
752.248	1999.16
752.432	1904.95
752.617	1978.68
752.801	1921.34
752.985	2001.21
753.17	1935.67
753.354	1919.29
753.538	1831.23
753.722	1827.13
753.907	1841.47
754.091	1765.69
754.275	1683.77
754.459	1775.93
754.643	1708.35
754.828	1704.25
755.012	1694.01
755.196	1646.91
755.38	1712.44
755.564	1651
755.748	1636.67
755.932	1720.64
756.116	1698.11
756.3	1634.62
756.484	1724.73
756.668	1640.76
756.852	1630.52
757.036	1675.58
757.22	1519.93
757.404	1507.65
757.588	1526.08
757.772	1648.96
757.956	1593.66
758.14	1663.29
758.323	1476.93
758.507	1597.76
758.691	1425.73
758.875	1569.09
759.059	1474.88
759.242	1429.82
759.426	1321.28
759.61	1448.26
759.794	1448.26
759.977	1407.3
760.161	1562.94
760.345	1462.59
760.528	1384.77
760.712	1425.73
760.895	1356.1
761.079	1372.48
761.263	1356.1
761.446	1392.96
761.63	1302.85
761.813	1401.15
761.997	1349.95
762.18	1308.99
762.364	1313.09
762.547	1382.72
762.731	1308.99
762.914	1405.25
763.098	1179.97
763.281	1216.83
763.464	1321.28
763.648	1157.44
763.831	1241.41
764.015	1292.61
764.198	1296.71
764.381	1249.6
764.564	1284.42
764.748	1231.17
764.931	1356.1
765.114	1257.79
765.297	1253.7
765.481	1184.07
765.664	1263.94
765.847	1177.92
766.03	1241.41
766.213	1167.68
766.397	1204.55
766.58	1247.55
766.763	1253.7
766.946	1229.12
767.129	1210.69
767.312	1239.36
767.495	1233.22
767.678	1136.96
767.861	1104.2
768.044	1118.53
768.227	1126.72
768.41	1118.53
768.593	1081.67
768.776	1116.48
768.959	1091.91
769.142	1120.58
769.324	1034.57
769.507	1065.29
769.69	1157.44
769.873	1067.33
770.056	1083.72
770.239	1077.57
770.421	1147.2
770.604	1063.24
770.787	1050.95
770.97	1022.28
771.152	1108.29
771.335	1065.29
771.518	1028.42
771.7	1091.91
771.883	1022.28
772.066	1036.61
772.248	1018.18
772.431	1009.99
772.613	1067.33
772.796	1022.28
772.978	1020.23
773.161	1093.96
773.343	969.03
773.526	1032.52
773.708	973.13
773.891	1007.94
774.073	911.69
774.256	995.65
774.438	1014.09
774.621	895.3
774.803	923.98
774.985	872.78
775.168	899.4
775.35	958.79
775.532	909.64
775.715	921.93
775.897	887.11
776.079	852.3
776.261	928.07
776.444	803.15
776.626	893.26
776.808	813.38
776.99	848.2
777.173	876.87
777.355	844.1
777.537	846.15
777.719	751.95
777.901	768.33
778.083	817.48
778.265	782.67
778.447	807.24
778.629	657.74
778.811	801.1
778.993	799.05
779.175	799.05
779.357	751.95
779.539	747.85
779.721	762.19
779.903	676.17
780.085	672.08
780.267	749.9
780.449	729.42
780.631	823.62
780.812	766.28
780.994	719.18
781.176	692.55
781.358	723.27
781.54	680.27
781.721	657.74
781.903	799.05
782.085	631.12
782.267	737.61
782.448	633.16
782.63	696.65
782.812	610.64
782.993	647.5
783.175	635.21
783.357	600.4
783.538	616.78
783.72	606.54
783.901	588.11
784.083	622.92
784.264	629.07
784.446	627.02
784.627	614.73
784.809	627.02
784.99	573.77
785.172	516.43
785.353	637.26
785.535	565.58
785.716	532.81
785.897	561.48
786.079	522.57
786.26	508.24
786.441	557.39
786.623	536.91
786.804	565.58
786.985	543.05
787.167	528.72
787.348	493.9
787.529	549.2
787.71	541.01
787.891	602.44
788.073	487.76
788.254	495.95
788.435	479.57
788.616	553.29
788.797	483.66
788.978	475.47
789.159	522.57
789.34	553.29
789.522	434.51
789.703	454.99
789.884	436.56
790.065	475.47
790.246	528.72
790.427	491.85
790.607	471.37
790.788	407.89
790.969	471.37
791.15	506.19
791.331	424.27
791.512	442.7
791.693	452.94
791.874	385.36
792.054	418.13
792.235	385.36
792.416	342.35
792.597	438.61
792.778	436.56
792.958	440.65
793.139	405.84
793.32	485.71
793.5	366.93
793.681	420.17
793.862	291.15
794.042	362.83
794.223	371.02
794.404	334.16
794.584	385.36
794.765	342.35
794.945	399.7
795.126	338.26
795.306	391.5
795.487	416.08
795.667	409.94
795.848	368.98
796.028	321.87
796.209	407.89
796.389	358.74
796.57	358.74
796.75	340.3
796.93	311.63
797.111	299.34
797.291	330.06
797.471	352.59
797.652	315.73
797.832	381.26
798.012	356.69
798.192	274.77
798.373	323.92
798.553	399.7
798.733	346.45
798.913	301.39
799.093	301.39
799.274	381.26
799.454	332.11
799.634	346.45
799.814	266.58
799.994	311.63
800.174	348.5
800.354	303.44
800.534	319.82
800.714	270.67
800.894	291.15
801.074	303.44
801.254	323.92
801.434	317.78
801.614	260.43
801.794	280.91
801.974	616.78
802.154	311.63
802.334	366.93
802.514	272.72
802.693	213.33
802.873	270.67
803.053	258.39
803.233	360.78
803.413	307.54
803.592	323.92
803.772	289.1
803.952	258.39
804.131	246.1
804.311	295.25
804.491	260.43
804.67	252.24
804.85	315.73
805.03	346.45
805.209	278.87
805.389	276.82
805.568	256.34
805.748	209.23
805.928	194.9
806.107	254.29
806.287	311.63
806.466	262.48
806.646	250.19
806.825	293.2
807.004	246.1
807.184	131.41
807.363	258.39
807.543	307.54
807.722	301.39
807.901	242
808.081	395.6
808.26	221.52
808.439	254.29
808.619	201.04
808.798	198.99
808.977	219.47
809.156	305.49
809.336	260.43
809.515	307.54
809.694	287.06
809.873	233.81
810.052	209.23
810.231	264.53
810.411	225.62
810.59	198.99
810.769	203.09
810.948	203.09
811.127	160.08
811.306	207.19
811.485	151.89
811.664	252.24
811.843	242
812.022	178.51
812.201	160.08
812.38	287.06
812.559	184.66
812.737	260.43
812.916	233.81
813.095	196.95
813.274	237.91
813.453	196.95
813.632	229.71
813.811	223.57
813.989	151.89
814.168	258.39
814.347	178.51
814.526	186.71
814.704	127.32
814.883	272.72
815.062	104.79
815.24	184.66
815.419	162.13
815.598	143.7
815.776	164.18
815.955	147.8
816.133	115.03
816.312	164.18
816.49	166.23
816.669	100.69
816.847	33.11
817.026	213.33
817.204	190.8
817.383	213.33
817.561	80.21
817.74	188.75
817.918	145.75
818.097	180.56
818.275	143.7
818.453	155.99
818.632	198.99
818.81	192.85
818.988	180.56
819.167	178.51
819.345	127.32
819.523	106.84
819.701	141.65
819.879	180.56
820.058	141.65
820.236	94.55
820.414	155.99
820.592	90.45
820.77	172.37
820.948	141.65
821.127	125.27
821.305	98.64
821.483	133.46
821.661	172.37
821.839	184.66
822.017	102.74
822.195	104.79
822.373	164.18
822.551	117.08
822.729	129.36
822.907	162.13
823.085	115.03
823.262	170.32
823.44	115.03
823.618	117.08
823.796	170.32
823.974	172.37
824.152	143.7
824.329	164.18
824.507	176.47
824.685	117.08
824.863	229.71
825.04	63.83
825.218	172.37
825.396	139.6
825.574	211.28
825.751	141.65
825.929	158.03
826.107	112.98
826.284	78.16
826.462	162.13
826.639	78.16
826.817	149.84
826.994	24.92
827.172	78.16
827.349	115.03
827.527	88.4
827.704	63.83
827.882	172.37
828.059	104.79
828.237	106.84
828.414	74.07
828.591	133.46
828.769	98.64
828.946	127.32
829.124	37.2
829.301	117.08
829.478	147.8
829.655	106.84
829.833	102.74
830.01	133.46
830.187	143.7
830.364	121.17
830.542	88.4
830.719	162.13
830.896	141.65
831.073	78.16
831.25	158.03
831.427	137.56
831.604	139.6
831.782	133.46
831.959	135.51
832.136	119.12
832.313	65.88
832.49	108.88
832.667	65.88
832.844	115.03
833.021	143.7
833.198	170.32
833.374	72.02
833.551	125.27
833.728	186.71
833.905	98.64
834.082	78.16
834.259	72.02
834.436	184.66
834.612	10.58
834.789	72.02
834.966	78.16
835.143	45.4
835.319	110.93
835.496	67.92
835.673	98.64
835.85	43.35
836.026	119.12
836.203	74.07
836.38	59.73
836.556	61.78
836.733	26.96
836.909	135.51
837.086	96.6
837.262	133.46
837.439	90.45
837.616	76.12
837.792	112.98
837.968	55.64
838.145	100.69
838.321	98.64
838.498	43.35
838.674	10.58
838.851	172.37
839.027	135.51
839.203	76.12
839.38	108.88
839.556	63.83
839.732	92.5
839.909	123.22
840.085	104.79
840.261	90.45
840.437	96.6
840.614	78.16
840.79	155.99
840.966	78.16
841.142	22.87
841.318	143.7
841.494	92.5
841.671	129.36
841.847	59.73
842.023	115.03
842.199	51.54
842.375	80.21
842.551	80.21
842.727	115.03
842.903	108.88
843.079	61.78
843.255	69.97
843.431	168.27
843.607	125.27
843.783	55.64
843.959	123.22
844.134	72.02
844.31	45.4
844.486	47.44
844.662	119.12
844.838	78.16
845.013	80.21
845.189	39.25
845.365	123.22
845.541	2.39
845.716	88.4
845.892	106.84
846.068	39.25
846.244	-7.85
846.419	63.83
846.595	45.4
846.77	84.31
846.946	125.27
847.122	106.84
847.297	76.12
847.473	96.6
847.648	14.68
847.824	96.6
847.999	67.92
848.175	43.35
848.35	88.4
848.526	94.55
848.701	80.21
848.876	94.55
849.052	49.49
849.227	-3.75
849.403	88.4
849.578	96.6
849.753	41.3
849.929	84.31
850.104	-22.19
850.279	67.92
850.454	24.92
850.63	63.83
850.805	10.58
850.98	47.44
851.155	67.92
851.33	8.53
851.505	51.54
851.681	131.41
851.856	-24.23
852.031	18.77
852.206	61.78
852.381	41.3
852.556	10.58
852.731	133.46
852.906	20.82
853.081	53.59
853.256	96.6
853.431	18.77
853.606	86.36
853.781	98.64
853.956	96.6
854.131	55.64
854.305	-42.67
854.48	33.11
854.655	6.49
854.83	6.49
855.005	-28.33
855.18	57.68
855.354	29.01
855.529	112.98
855.704	80.21
855.879	102.74
856.053	47.44
856.228	53.59
856.403	78.16
856.577	55.64
856.752	14.68
856.926	102.74
857.101	39.25
857.276	108.88
857.45	72.02
857.625	106.84
857.799	35.16
857.974	4.44
858.148	18.77
858.323	176.47
858.497	45.4
858.672	78.16
858.846	88.4
859.02	76.12
859.195	45.4
859.369	-18.09
859.543	55.64
859.718	33.11
859.892	22.87
860.066	102.74
860.241	74.07
860.415	78.16
860.589	51.54
860.763	76.12
860.938	-16.04
861.112	37.2
861.286	72.02
861.46	47.44
861.634	16.73
861.808	8.53
861.982	20.82
862.157	29.01
862.331	-73.39
862.505	-26.28
862.679	14.68
862.853	-38.57
863.027	35.16
863.201	61.78
863.375	12.63
863.549	53.59
863.722	65.88
863.896	100.69
864.07	-44.71
864.244	-5.8
864.418	4.44
864.592	-7.85
864.766	49.49
864.939	24.92
865.113	-18.09
865.287	-3.75
865.461	57.68
865.634	76.12
865.808	53.59
865.982	0.34
866.156	24.92
866.329	43.35
866.503	-36.52
866.676	86.36
866.85	-7.85
867.024	47.44
867.197	29.01
867.371	65.88
867.544	43.35
867.718	69.97
867.891	22.87
868.065	29.01
868.238	43.35
868.412	16.73
868.585	53.59
868.759	14.68
868.932	-7.85
869.105	20.82
869.279	-71.34
869.452	33.11
869.625	80.21
869.799	33.11
869.972	-22.19
870.145	90.45
870.319	82.26
870.492	65.88
870.665	12.63
870.838	35.16
871.011	-48.81
871.185	2.39
871.358	65.88
871.531	14.68
871.704	-48.81
871.877	-1.71
872.05	47.44
872.223	-46.76
872.396	63.83
872.569	-3.75
872.742	37.2
872.915	53.59
873.088	53.59
873.261	-26.28
873.434	63.83
873.607	26.96
873.78	153.94
873.953	43.35
874.126	24.92
874.299	-7.85
874.471	33.11
874.644	29.01
874.817	86.36
874.99	4.44
875.163	16.73
875.335	33.11
875.508	39.25
875.681	104.79
875.853	4.44
876.026	57.68
876.199	35.16
876.371	-65.19
876.544	16.73
876.717	22.87
876.889	-3.75
877.062	6.49
877.234	14.68
877.407	20.82
877.579	-16.04
877.752	43.35
877.924	20.82
878.097	-7.85
878.269	69.97
878.442	2.39
878.614	61.78
878.786	8.53
878.959	139.6
879.131	14.68
879.303	-65.19
879.476	-26.28
879.648	74.07
879.82	76.12
879.993	-13.99
880.165	35.16
880.337	65.88
880.509	26.96
880.681	2.39
880.854	16.73
881.026	-13.99
881.198	29.01
881.37	102.74
881.542	16.73
881.714	78.16
881.886	82.26
882.058	26.96
882.23	65.88
882.402	69.97
882.574	45.4
882.746	24.92
882.918	-24.23
883.09	-46.76
883.262	29.01
883.434	-13.99
883.606	20.82
883.778	41.3
883.95	41.3
884.122	12.63
884.293	96.6
884.465	22.87
884.637	0.34
884.809	-22.19
884.98	-13.99
885.152	31.06
885.324	24.92
885.496	6.49
885.667	-11.95
885.839	53.59
886.011	31.06
886.182	57.68
886.354	55.64
886.525	12.63
886.697	16.73
886.869	-61.1
887.04	20.82
887.212	55.64
887.383	49.49
887.555	-24.23
887.726	35.16
887.897	-1.71
888.069	14.68
888.24	49.49
888.412	-13.99
888.583	43.35
888.754	55.64
888.926	45.4
889.097	45.4
889.268	57.68
889.44	-3.75
889.611	16.73
889.782	41.3
889.953	4.44
890.125	-13.99
890.296	10.58
890.467	-40.62
890.638	10.58
890.809	33.11
890.98	-20.14
891.151	2.39
891.323	31.06
891.494	67.92
891.665	0.34
891.836	4.44
892.007	6.49
892.178	67.92
892.349	-5.8
892.52	-32.43
892.691	-22.19
892.862	12.63
893.032	-48.81
893.203	61.78
893.374	84.31
893.545	49.49
893.716	65.88
893.887	84.31
894.057	-16.04
894.228	55.64
894.399	24.92
894.57	33.11
894.74	-40.62
894.911	33.11
895.082	37.2
895.253	-9.9
895.423	-11.95
895.594	74.07
895.764	2.39
895.935	-11.95
896.106	78.16
896.276	53.59
896.447	20.82
896.617	37.2
896.788	-30.38
896.958	51.54
897.129	-28.33
897.299	-38.57
897.47	6.49
897.64	-26.28
897.81	49.49
897.981	88.4
898.151	37.2
898.322	12.63
898.492	14.68
898.662	-13.99
898.832	4.44
899.003	49.49
899.173	-20.14
899.343	-9.9
899.513	26.96
