Data from USB4F104151__32__11-44-53-172.txt Node

Date: Fri Mar 14 11:44:53 EDT 2025
User: louis
Spectrometer: USB4F10415
Trigger mode: 4
Integration Time (sec): 2.000000E-2
Scans to average: 1
Electric dark correction enabled: true
Nonlinearity correction enabled: false
Boxcar width: 0
XAxis mode: Wavelengths
Number of Pixels in Spectrum: 3648
>>>>>Begin Spectral Data<<<<<
178.204	-109.05
178.424	-109.05
178.644	-109.05
178.864	-53.76
179.084	-49.66
179.304	-25.09
179.524	-61.95
179.744	-66.05
179.964	-10.75
180.184	13.82
180.404	120.32
180.624	22.02
180.844	-20.99
181.064	17.92
181.283	3.58
181.503	-18.94
181.723	26.11
181.943	-61.95
182.163	42.5
182.383	-23.04
182.602	32.26
182.822	56.83
183.042	40.45
183.262	7.68
183.482	-10.75
183.701	1.54
183.921	-86.53
184.141	-37.38
184.361	30.21
184.58	32.26
184.8	26.11
185.02	7.68
185.239	-39.42
185.459	19.97
185.679	62.98
185.898	17.92
186.118	-8.7
186.338	36.35
186.557	-49.66
186.777	22.02
186.997	9.73
187.216	36.35
187.436	146.94
187.655	-14.85
187.875	110.08
188.095	-76.29
188.314	19.97
188.534	22.02
188.753	13.82
188.973	17.92
189.192	32.26
189.412	42.5
189.631	48.64
189.851	65.02
190.07	13.82
190.29	-25.09
190.509	-18.94
190.729	52.74
190.948	15.87
191.168	40.45
191.387	83.45
191.607	17.92
191.826	-6.66
192.045	32.26
192.265	-20.99
192.484	67.07
192.704	60.93
192.923	-16.9
193.142	40.45
193.362	79.36
193.581	56.83
193.8	-47.62
194.02	42.5
194.239	67.07
194.458	44.54
194.678	56.83
194.897	17.92
195.116	40.45
195.335	-14.85
195.555	52.74
195.774	-0.51
195.993	46.59
196.212	28.16
196.432	24.06
196.651	9.73
196.87	9.73
197.089	75.26
197.308	56.83
197.528	48.64
197.747	56.83
197.966	22.02
198.185	95.74
198.404	67.07
198.623	13.82
198.842	46.59
199.062	97.79
199.281	30.21
199.5	-4.61
199.719	60.93
199.938	9.73
200.157	105.98
200.376	65.02
200.595	-12.8
200.814	-76.29
201.033	19.97
201.252	62.98
201.471	34.3
201.69	52.74
201.909	-49.66
202.128	-31.23
202.347	3.58
202.566	-18.94
202.785	11.78
203.004	-35.33
203.223	122.37
203.442	52.74
203.661	-35.33
203.879	5.63
204.098	36.35
204.317	62.98
204.536	73.21
204.755	-0.51
204.974	48.64
205.193	54.78
205.411	56.83
205.63	1.54
205.849	46.59
206.068	17.92
206.287	-23.04
206.505	60.93
206.724	15.87
206.943	3.58
207.162	1.54
207.381	36.35
207.599	85.5
207.818	-55.81
208.037	7.68
208.255	17.92
208.474	-23.04
208.693	9.73
208.911	11.78
209.13	73.21
209.349	85.5
209.567	52.74
209.786	60.93
210.005	48.64
210.223	42.5
210.442	5.63
210.661	99.84
210.879	9.73
211.098	44.54
211.316	-16.9
211.535	67.07
211.753	1.54
211.972	50.69
212.191	-37.38
212.409	5.63
212.628	56.83
212.846	-33.28
213.065	7.68
213.283	60.93
213.502	17.92
213.72	50.69
213.938	28.16
214.157	-53.76
214.375	11.78
214.594	15.87
214.812	34.3
215.031	34.3
215.249	19.97
215.467	22.02
215.686	24.06
215.904	7.68
216.122	-6.66
216.341	5.63
216.559	9.73
216.778	22.02
216.996	15.87
217.214	-14.85
217.432	19.97
217.651	26.11
217.869	22.02
218.087	60.93
218.306	69.12
218.524	-8.7
218.742	-4.61
218.96	44.54
219.179	-20.99
219.397	28.16
219.615	54.78
219.833	15.87
220.051	-20.99
220.27	54.78
220.488	40.45
220.706	-10.75
220.924	26.11
221.142	17.92
221.36	34.3
221.578	-31.23
221.796	26.11
222.015	69.12
222.233	-23.04
222.451	58.88
222.669	-0.51
222.887	50.69
223.105	69.12
223.323	105.98
223.541	11.78
223.759	32.26
223.977	-2.56
224.195	81.41
224.413	71.17
224.631	1.54
224.849	17.92
225.067	50.69
225.285	-49.66
225.503	36.35
225.721	-51.71
225.939	32.26
226.157	36.35
226.375	146.94
226.592	13.82
226.81	28.16
227.028	77.31
227.246	71.17
227.464	19.97
227.682	79.36
227.9	-66.05
228.117	-23.04
228.335	69.12
228.553	-4.61
228.771	81.41
228.989	30.21
229.206	52.74
229.424	15.87
229.642	1.54
229.86	-10.75
230.077	19.97
230.295	30.21
230.513	58.88
230.731	120.32
230.948	65.02
231.166	15.87
231.384	50.69
231.601	69.12
231.819	46.59
232.037	58.88
232.254	73.21
232.472	13.82
232.689	-0.51
232.907	40.45
233.125	15.87
233.342	48.64
233.56	-8.7
233.777	-55.81
233.995	42.5
234.213	65.02
234.43	34.3
234.648	26.11
234.865	-94.72
235.083	36.35
235.3	26.11
235.518	34.3
235.735	112.13
235.953	65.02
236.17	-4.61
236.388	-20.99
236.605	26.11
236.822	-35.33
237.04	15.87
237.257	-4.61
237.475	32.26
237.692	46.59
237.909	-16.9
238.127	-16.9
238.344	77.31
238.562	36.35
238.779	46.59
238.996	38.4
239.214	36.35
239.431	22.02
239.648	69.12
239.865	71.17
240.083	58.88
240.3	30.21
240.517	-23.04
240.735	44.54
240.952	42.5
241.169	101.89
241.386	71.17
241.603	24.06
241.821	-47.62
242.038	87.55
242.255	-33.28
242.472	-23.04
242.689	50.69
242.907	1.54
243.124	58.88
243.341	19.97
243.558	24.06
243.775	1.54
243.992	62.98
244.209	-8.7
244.426	87.55
244.643	26.11
244.86	40.45
245.078	89.6
245.295	15.87
245.512	73.21
245.729	-35.33
245.946	38.4
246.163	-0.51
246.38	54.78
246.597	15.87
246.814	56.83
247.031	38.4
247.248	50.69
247.464	36.35
247.681	34.3
247.898	17.92
248.115	11.78
248.332	-18.94
248.549	67.07
248.766	30.21
248.983	126.46
249.2	28.16
249.417	13.82
249.633	38.4
249.85	62.98
250.067	28.16
250.284	42.5
250.501	-6.66
250.717	32.26
250.934	60.93
251.151	77.31
251.368	-39.42
251.585	85.5
251.801	-2.56
252.018	-2.56
252.235	36.35
252.451	32.26
252.668	7.68
252.885	-16.9
253.102	1.54
253.318	13.82
253.535	-25.09
253.752	28.16
253.968	30.21
254.185	9.73
254.401	11.78
254.618	50.69
254.835	-31.23
255.051	87.55
255.268	-12.8
255.484	17.92
255.701	58.88
255.917	9.73
256.134	22.02
256.351	-6.66
256.567	15.87
256.784	-2.56
257	-33.28
257.217	56.83
257.433	46.59
257.65	42.5
257.866	116.22
258.082	-10.75
258.299	-27.14
258.515	44.54
258.732	-18.94
258.948	26.11
259.165	44.54
259.381	-4.61
259.597	-29.18
259.814	58.88
260.03	65.02
260.246	28.16
260.463	87.55
260.679	22.02
260.895	9.73
261.112	79.36
261.328	40.45
261.544	22.02
261.761	17.92
261.977	22.02
262.193	-0.51
262.409	38.4
262.626	58.88
262.842	7.68
263.058	-6.66
263.274	58.88
263.49	32.26
263.707	112.13
263.923	54.78
264.139	54.78
264.355	34.3
264.571	65.02
264.787	13.82
265.004	122.37
265.22	17.92
265.436	-35.33
265.652	24.06
265.868	52.74
266.084	-41.47
266.3	28.16
266.516	-84.48
266.732	65.02
266.948	48.64
267.164	13.82
267.38	36.35
267.596	60.93
267.812	26.11
268.028	65.02
268.244	1.54
268.46	19.97
268.676	93.69
268.892	46.59
269.108	19.97
269.324	34.3
269.54	-0.51
269.756	54.78
269.972	-0.51
270.188	44.54
270.403	65.02
270.619	15.87
270.835	83.45
271.051	36.35
271.267	-6.66
271.483	38.4
271.698	71.17
271.914	28.16
272.13	-31.23
272.346	15.87
272.562	42.5
272.777	-33.28
272.993	52.74
273.209	30.21
273.425	15.87
273.64	15.87
273.856	71.17
274.072	17.92
274.287	19.97
274.503	73.21
274.719	24.06
274.934	42.5
275.15	67.07
275.366	-27.14
275.581	34.3
275.797	54.78
276.012	-35.33
276.228	-0.51
276.444	19.97
276.659	132.61
276.875	5.63
277.09	44.54
277.306	19.97
277.521	56.83
277.737	87.55
277.952	9.73
278.168	62.98
278.383	1.54
278.599	1.54
278.814	67.07
279.03	-16.9
279.245	95.74
279.461	-18.94
279.676	46.59
279.892	22.02
280.107	26.11
280.322	30.21
280.538	85.5
280.753	-10.75
280.969	36.35
281.184	42.5
281.399	46.59
281.615	38.4
281.83	38.4
282.045	60.93
282.26	1.54
282.476	38.4
282.691	85.5
282.906	26.11
283.122	-0.51
283.337	34.3
283.552	1.54
283.767	44.54
283.983	71.17
284.198	-10.75
284.413	114.17
284.628	-31.23
284.843	24.06
285.058	-2.56
285.274	34.3
285.489	-45.57
285.704	81.41
285.919	9.73
286.134	5.63
286.349	5.63
286.564	22.02
286.779	79.36
286.995	11.78
287.21	-98.81
287.425	28.16
287.64	-16.9
287.855	110.08
288.07	54.78
288.285	42.5
288.5	38.4
288.715	50.69
288.93	89.6
289.145	-20.99
289.36	81.41
289.575	44.54
289.79	40.45
290.004	54.78
290.219	71.17
290.434	85.5
290.649	28.16
290.864	85.5
291.079	28.16
291.294	13.82
291.509	34.3
291.724	60.93
291.938	40.45
292.153	-16.9
292.368	30.21
292.583	50.69
292.798	42.5
293.012	-29.18
293.227	89.6
293.442	28.16
293.657	-16.9
293.871	3.58
294.086	30.21
294.301	22.02
294.516	22.02
294.73	56.83
294.945	11.78
295.16	105.98
295.374	17.92
295.589	93.69
295.804	22.02
296.018	103.93
296.233	71.17
296.447	7.68
296.662	-4.61
296.877	95.74
297.091	-8.7
297.306	44.54
297.52	52.74
297.735	56.83
297.949	32.26
298.164	36.35
298.378	-41.47
298.593	91.65
298.807	13.82
299.022	-8.7
299.236	46.59
299.451	32.26
299.665	-47.62
299.88	-2.56
300.094	15.87
300.309	77.31
300.523	95.74
300.737	50.69
300.952	44.54
301.166	36.35
301.381	-39.42
301.595	65.02
301.809	42.5
302.024	54.78
302.238	32.26
302.452	3.58
302.667	-10.75
302.881	15.87
303.095	34.3
303.309	60.93
303.524	69.12
303.738	44.54
303.952	97.79
304.166	71.17
304.381	42.5
304.595	112.13
304.809	3.58
305.023	15.87
305.237	-10.75
305.452	-59.9
305.666	87.55
305.88	1.54
306.094	62.98
306.308	58.88
306.522	58.88
306.736	58.88
306.95	9.73
307.164	9.73
307.379	-8.7
307.593	75.26
307.807	77.31
308.021	50.69
308.235	-37.38
308.449	65.02
308.663	9.73
308.877	140.8
309.091	42.5
309.305	1.54
309.519	-27.14
309.733	103.93
309.947	-39.42
310.161	-8.7
310.374	-27.14
310.588	69.12
310.802	34.3
311.016	52.74
311.23	42.5
311.444	30.21
311.658	81.41
311.872	97.79
312.085	85.5
312.299	30.21
312.513	79.36
312.727	-2.56
312.941	132.61
313.154	-4.61
313.368	11.78
313.582	101.89
313.796	17.92
314.009	-29.18
314.223	69.12
314.437	24.06
314.651	13.82
314.864	-0.51
315.078	71.17
315.292	36.35
315.505	32.26
315.719	60.93
315.933	75.26
316.146	40.45
316.36	15.87
316.573	69.12
316.787	44.54
317.001	15.87
317.214	-0.51
317.428	22.02
317.641	38.4
317.855	46.59
318.068	89.6
318.282	103.93
318.495	87.55
318.709	5.63
318.922	-4.61
319.136	128.51
319.349	97.79
319.563	54.78
319.776	65.02
319.99	-2.56
320.203	-20.99
320.417	40.45
320.63	62.98
320.843	56.83
321.057	5.63
321.27	71.17
321.483	-0.51
321.697	97.79
321.91	71.17
322.124	89.6
322.337	83.45
322.55	-2.56
322.763	60.93
322.977	26.11
323.19	-47.62
323.403	48.64
323.617	93.69
323.83	101.89
324.043	26.11
324.256	38.4
324.469	-27.14
324.683	9.73
324.896	81.41
325.109	24.06
325.322	15.87
325.535	-35.33
325.748	13.82
325.962	13.82
326.175	-20.99
326.388	73.21
326.601	83.45
326.814	3.58
327.027	-16.9
327.24	146.94
327.453	1.54
327.666	56.83
327.879	-6.66
328.092	75.26
328.305	56.83
328.518	75.26
328.731	58.88
328.944	24.06
329.157	65.02
329.37	34.3
329.583	144.89
329.796	-16.9
330.009	28.16
330.222	44.54
330.435	15.87
330.648	101.89
330.861	108.03
331.073	40.45
331.286	-41.47
331.499	71.17
331.712	9.73
331.925	75.26
332.138	17.92
332.35	36.35
332.563	26.11
332.776	42.5
332.989	-0.51
333.202	54.78
333.414	17.92
333.627	44.54
333.84	-20.99
334.053	95.74
334.265	-12.8
334.478	17.92
334.691	89.6
334.903	44.54
335.116	19.97
335.329	-41.47
335.541	34.3
335.754	116.22
335.966	62.98
336.179	30.21
336.392	-51.71
336.604	15.87
336.817	11.78
337.029	5.63
337.242	26.11
337.454	15.87
337.667	-47.62
337.88	95.74
338.092	103.93
338.305	85.5
338.517	73.21
338.729	62.98
338.942	56.83
339.154	44.54
339.367	50.69
339.579	58.88
339.792	26.11
340.004	89.6
340.217	79.36
340.429	81.41
340.641	42.5
340.854	9.73
341.066	38.4
341.278	71.17
341.491	81.41
341.703	1.54
341.915	-20.99
342.128	50.69
342.34	-16.9
342.552	99.84
342.764	38.4
342.977	67.07
343.189	-20.99
343.401	-27.14
343.613	19.97
343.826	69.12
344.038	-16.9
344.25	97.79
344.462	-2.56
344.674	-0.51
344.886	-0.51
345.099	79.36
345.311	81.41
345.523	67.07
345.735	19.97
345.947	-6.66
346.159	71.17
346.371	75.26
346.583	67.07
346.795	95.74
347.007	34.3
347.219	126.46
347.431	62.98
347.643	83.45
347.855	62.98
348.067	44.54
348.279	-6.66
348.491	95.74
348.703	24.06
348.915	101.89
349.127	58.88
349.339	71.17
349.551	-4.61
349.763	17.92
349.975	22.02
350.187	101.89
350.399	50.69
350.61	26.11
350.822	38.4
351.034	30.21
351.246	-23.04
351.458	40.45
351.669	54.78
351.881	65.02
352.093	56.83
352.305	87.55
352.517	26.11
352.728	69.12
352.94	-10.75
353.152	-31.23
353.363	87.55
353.575	5.63
353.787	-33.28
353.999	32.26
354.21	62.98
354.422	1.54
354.633	34.3
354.845	93.69
355.057	79.36
355.268	91.65
355.48	7.68
355.692	13.82
355.903	62.98
356.115	-12.8
356.326	-2.56
356.538	34.3
356.749	56.83
356.961	105.98
357.172	26.11
357.384	1.54
357.595	-0.51
357.807	56.83
358.018	11.78
358.23	5.63
358.441	34.3
358.653	24.06
358.864	13.82
359.075	30.21
359.287	26.11
359.498	42.5
359.709	81.41
359.921	48.64
360.132	-6.66
360.344	22.02
360.555	77.31
360.766	-4.61
360.977	42.5
361.189	95.74
361.4	54.78
361.611	60.93
361.823	28.16
362.034	67.07
362.245	-20.99
362.456	26.11
362.667	65.02
362.879	56.83
363.09	58.88
363.301	65.02
363.512	85.5
363.723	58.88
363.935	81.41
364.146	5.63
364.357	54.78
364.568	50.69
364.779	13.82
364.99	71.17
365.201	81.41
365.412	7.68
365.623	3.58
365.834	42.5
366.045	101.89
366.256	54.78
366.467	11.78
366.678	110.08
366.889	26.11
367.1	54.78
367.311	58.88
367.522	101.89
367.733	24.06
367.944	101.89
368.155	-0.51
368.366	36.35
368.577	-31.23
368.788	26.11
368.999	62.98
369.209	83.45
369.42	50.69
369.631	77.31
369.842	-33.28
370.053	30.21
370.264	97.79
370.474	75.26
370.685	56.83
370.896	48.64
371.107	85.5
371.317	87.55
371.528	7.68
371.739	60.93
371.95	60.93
372.16	36.35
372.371	44.54
372.582	77.31
372.792	87.55
373.003	46.59
373.214	24.06
373.424	46.59
373.635	1.54
373.846	15.87
374.056	62.98
374.267	22.02
374.477	40.45
374.688	67.07
374.898	24.06
375.109	60.93
375.319	130.56
375.53	46.59
375.74	83.45
375.951	73.21
376.161	24.06
376.372	79.36
376.582	19.97
376.793	17.92
377.003	7.68
377.214	11.78
377.424	52.74
377.635	75.26
377.845	83.45
378.055	-8.7
378.266	67.07
378.476	48.64
378.686	69.12
378.897	73.21
379.107	26.11
379.317	85.5
379.528	5.63
379.738	136.7
379.948	15.87
380.158	91.65
380.369	56.83
380.579	54.78
380.789	56.83
380.999	79.36
381.21	44.54
381.42	69.12
381.63	52.74
381.84	77.31
382.05	13.82
382.261	69.12
382.471	120.32
382.681	40.45
382.891	-23.04
383.101	36.35
383.311	73.21
383.521	36.35
383.731	56.83
383.941	130.56
384.151	46.59
384.361	17.92
384.571	114.17
384.781	22.02
384.991	97.79
385.201	62.98
385.411	75.26
385.621	46.59
385.831	54.78
386.041	34.3
386.251	108.03
386.461	116.22
386.671	50.69
386.881	28.16
387.091	44.54
387.301	65.02
387.511	79.36
387.72	140.8
387.93	97.79
388.14	58.88
388.35	58.88
388.56	79.36
388.769	71.17
388.979	116.22
389.189	30.21
389.399	120.32
389.609	71.17
389.818	60.93
390.028	105.98
390.238	157.18
390.447	103.93
390.657	99.84
390.867	42.5
391.076	1.54
391.286	42.5
391.496	103.93
391.705	83.45
391.915	22.02
392.125	81.41
392.334	38.4
392.544	75.26
392.753	3.58
392.963	50.69
393.172	60.93
393.382	89.6
393.591	212.48
393.801	15.87
394.01	124.41
394.22	138.75
394.429	44.54
394.639	77.31
394.848	157.18
395.058	44.54
395.267	36.35
395.477	58.88
395.686	58.88
395.895	134.65
396.105	146.94
396.314	126.46
396.524	93.69
396.733	116.22
396.942	67.07
397.152	181.76
397.361	89.6
397.57	185.85
397.78	105.98
397.989	130.56
398.198	105.98
398.407	148.99
398.617	132.61
398.826	30.21
399.035	114.17
399.244	144.89
399.453	116.22
399.663	126.46
399.872	75.26
400.081	58.88
400.29	91.65
400.499	50.69
400.708	210.43
400.917	73.21
401.127	103.93
401.336	146.94
401.545	87.55
401.754	81.41
401.963	187.9
402.172	124.41
402.381	120.32
402.59	124.41
402.799	120.32
403.008	126.46
403.217	67.07
403.426	181.76
403.635	159.23
403.844	79.36
404.053	146.94
404.262	179.71
404.471	161.28
404.68	165.37
404.888	79.36
405.097	124.41
405.306	198.14
405.515	165.37
405.724	108.03
405.933	208.38
406.142	122.37
406.35	214.52
406.559	241.15
406.768	235
406.977	296.44
407.185	202.24
407.394	228.86
407.603	138.75
407.812	198.14
408.02	280.06
408.229	243.2
408.438	206.33
408.646	179.71
408.855	288.25
409.064	241.15
409.272	232.96
409.481	402.94
409.69	267.77
409.898	345.59
410.107	294.4
410.315	386.55
410.524	284.16
410.733	318.97
410.941	284.16
411.15	327.16
411.358	378.36
411.567	390.65
411.775	386.55
411.984	361.98
412.192	421.37
412.401	398.84
412.609	450.04
412.818	460.28
413.026	431.61
413.234	474.62
413.443	542.2
413.651	511.48
413.86	531.96
414.068	671.22
414.276	581.11
414.485	675.32
414.693	654.84
414.901	742.9
415.11	759.28
415.318	740.85
415.526	728.56
415.734	804.34
415.943	855.54
416.151	878.07
416.359	849.4
416.567	894.45
416.776	953.84
416.984	925.17
417.192	1062.38
417.4	1023.47
417.608	984.56
417.817	1046
418.025	1082.86
418.233	1228.27
418.441	1091.06
418.649	1218.03
418.857	1263.08
419.065	1273.32
419.273	1326.57
419.481	1326.57
419.689	1537.51
419.897	1529.32
420.105	1471.98
420.313	1500.65
420.521	1639.91
420.729	1680.87
420.937	1791.46
421.145	1756.65
421.353	1940.96
421.561	1996.26
421.769	1947.11
421.977	2000.35
422.185	2026.98
422.393	2131.42
422.601	2205.15
422.809	2348.51
423.017	2543.07
423.224	2471.39
423.432	2524.63
423.64	2532.83
423.848	2704.85
424.056	2649.56
424.263	2899.41
424.471	2944.47
424.679	2993.62
424.887	3286.48
425.094	3151.31
425.302	3147.22
425.51	3294.67
425.718	3450.32
425.925	3521.99
426.133	3571.15
426.341	3792.33
426.548	3984.84
426.756	3980.74
426.964	3999.17
427.171	4199.87
427.379	4433.34
427.586	4302.27
427.794	4574.65
428.001	4877.75
428.209	4955.57
428.417	5025.2
428.624	5465.52
428.832	5293.49
429.039	5324.21
429.247	5262.77
429.454	5741.99
429.662	6079.91
429.869	5752.23
430.076	6346.14
430.284	6100.39
430.491	6309.28
430.699	6522.27
430.906	6542.75
431.114	6675.87
431.321	6909.33
431.528	7267.73
431.736	7609.74
431.943	7779.72
432.15	7722.38
432.358	7646.6
432.565	8236.42
432.772	8232.32
432.979	8568.19
433.187	8742.27
433.394	8764.79
433.601	9274.74
433.808	9211.25
434.016	9309.55
434.223	9717.1
434.43	10345.83
434.637	10102.12
434.844	10616.16
435.052	11015.51
435.259	10894.68
435.466	10962.26
435.673	11044.18
435.88	11421.01
436.087	12135.75
436.294	12420.42
436.501	11689.29
436.708	12205.38
436.915	12760.38
437.122	12961.08
437.329	13059.38
437.537	13534.51
437.743	13751.6
437.95	13389.11
438.157	14236.97
438.364	14726.43
438.571	14767.39
438.778	14931.23
438.985	16192.78
439.192	15742.22
439.399	15922.45
439.606	15527.19
439.813	16530.69
440.02	17616.12
440.227	17372.41
440.433	17083.64
440.64	17478.9
440.847	17661.17
441.054	17929.45
441.261	19412.18
441.467	18937.06
441.674	19340.5
441.881	19950.8
442.088	20214.99
442.294	19705.04
442.501	20409.54
442.708	20974.78
442.914	21693.62
443.121	22316.2
443.328	22078.64
443.534	23467.16
443.741	22965.41
443.948	22680.74
444.154	24030.35
444.361	23911.57
444.568	24534.15
444.774	24095.89
444.981	24433.8
445.187	25089.15
445.394	26424.43
445.6	25842.81
445.807	28425.29
446.013	27020.39
446.22	27903.06
446.426	28841.03
446.633	28914.76
446.839	30014.52
447.046	28986.44
447.252	30256.18
447.459	30551.09
447.665	30176.31
447.871	31562.78
448.078	32773.13
448.284	31380.51
448.491	32336.91
448.697	33608.7
448.903	33993.72
449.11	34509.81
449.316	33561.6
449.522	33811.45
449.728	34958.31
449.935	35453.92
450.141	35029.99
450.347	35998.68
450.553	34849.77
450.76	35521.51
450.966	36760.53
451.172	35845.09
451.378	36883.41
451.584	36240.34
451.791	37245.9
451.997	36903.88
452.203	37563.33
452.409	37587.91
452.615	37716.93
452.821	36484.05
453.027	35797.98
453.233	37417.93
453.44	36348.89
453.646	36568.02
453.852	36496.34
454.058	37327.81
454.264	36023.26
454.47	36914.12
454.676	36060.12
454.882	37372.87
455.088	33905.66
455.294	34337.78
455.5	34948.07
455.705	35318.76
455.911	34331.64
456.117	33205.25
456.323	32889.87
456.529	31042.6
456.735	32427.03
456.941	31568.93
457.147	31263.78
457.352	30438.45
457.558	29811.77
457.764	30209.08
457.97	29385.79
458.176	28777.54
458.381	28873.8
458.587	27298.91
458.793	27153.51
458.999	26047.6
459.204	28075.09
459.41	26840.17
459.616	25291.9
459.821	25490.56
460.027	25070.72
460.233	24777.86
460.438	23313.56
460.644	23733.4
460.85	22523.05
461.055	22172.85
461.261	22295.72
461.466	20671.68
461.672	19813.59
461.878	21466.3
462.083	19948.75
462.289	19647.7
462.494	19563.73
462.7	18750.69
462.905	18001.13
463.111	18652.39
463.316	18666.72
463.522	18283.75
463.727	18134.25
463.932	18308.33
464.138	17994.99
464.343	18142.44
464.549	17448.18
464.754	18013.42
464.959	17937.65
465.165	18060.52
465.37	17183.99
465.575	16698.63
465.781	17347.83
465.986	17628.4
466.191	16946.43
466.397	16252.17
466.602	15602.96
466.807	16473.35
467.012	16239.88
467.218	16147.72
467.423	16151.82
467.628	16008.46
467.833	16747.78
468.038	15858.96
468.244	16020.75
468.449	16504.07
468.654	15619.35
468.859	15342.87
469.064	15861.01
469.269	15045.91
469.474	15041.82
469.679	15320.34
469.885	14912.8
470.09	15088.92
470.295	15248.66
470.5	14619.94
470.705	14632.22
470.91	14482.72
471.115	14202.15
471.32	14513.44
471.525	14650.66
471.73	14077.23
471.935	14040.36
472.139	13362.48
472.344	13786.41
472.549	13712.69
472.754	13149.5
472.959	13376.82
473.164	12830.01
473.369	12971.32
473.574	13200.69
473.778	12934.46
473.983	12995.9
474.188	12926.27
474.393	12391.75
474.598	12414.27
474.802	12092.74
475.007	12051.78
475.212	12111.18
475.417	11588.94
475.621	11664.72
475.826	11711.82
476.031	11603.28
476.235	11490.64
476.44	11541.84
476.645	11128.15
476.849	11072.86
477.054	10970.46
477.259	11081.05
477.463	10906.97
477.668	10589.53
477.872	10820.95
478.077	10769.76
478.282	10349.92
478.486	10345.83
478.691	10341.73
478.895	9977.19
479.1	10055.01
479.304	10200.42
479.509	9813.35
479.713	9989.48
479.918	9704.81
480.122	9409.9
480.326	9964.9
480.531	9731.44
480.735	9526.64
480.94	9620.85
481.144	9891.18
481.348	9180.53
481.553	9450.86
481.757	9385.33
481.961	9426.29
482.166	9524.59
482.37	9428.34
482.574	9370.99
482.778	9459.06
482.983	9598.32
483.187	9459.06
483.391	9571.69
483.595	9502.06
483.8	9319.79
484.004	9291.12
484.208	9473.39
484.412	9461.1
484.616	9534.83
484.821	9246.07
485.025	9098.61
485.229	9354.61
485.433	9164.15
485.637	9393.52
485.841	9504.11
486.045	9383.28
486.249	9211.25
486.453	9217.4
486.657	9563.5
486.861	9416.05
487.065	9176.44
487.269	9244.02
487.473	9186.68
487.677	9567.6
487.881	9383.28
488.085	9180.53
488.289	9356.66
488.493	9364.85
488.697	9352.56
488.901	9438.58
489.105	9563.5
489.309	9471.34
489.512	9229.68
489.716	9504.11
489.92	9295.22
490.124	9469.3
490.328	9792.87
490.531	9457.01
490.735	9612.65
490.939	9586.03
491.143	9745.77
491.346	9561.45
491.55	9731.44
491.754	9651.56
491.958	9692.52
492.161	9825.64
492.365	9790.83
492.569	9971.05
492.772	9702.76
492.976	9790.83
493.18	9971.05
493.383	9925.99
493.587	10374.5
493.79	10100.07
493.994	9887.08
494.197	10046.82
494.401	10276.2
494.605	10452.32
494.808	10339.68
495.012	10478.94
495.215	10470.75
495.419	10904.92
495.622	10419.55
495.825	10831.19
496.029	10976.6
496.232	11044.18
496.436	11058.52
496.639	11191.64
496.843	11122.01
497.046	11191.64
497.249	11519.31
497.453	11570.51
497.656	11674.96
497.859	11703.63
498.063	11754.83
498.266	12121.42
498.469	11842.89
498.673	12170.57
498.876	12449.09
499.079	12373.32
499.282	12430.66
499.485	12707.13
499.689	12864.83
499.892	13116.73
500.095	13094.2
500.298	13231.41
500.501	13186.36
500.705	13460.79
500.908	13796.65
501.111	13788.46
501.314	13983.02
501.517	14071.08
501.72	14351.65
501.923	14230.82
502.126	14488.87
502.329	14865.69
502.532	14865.69
502.735	14812.45
502.938	15011.1
503.141	15342.87
503.344	15621.39
503.547	15424.79
503.75	15795.47
503.953	15990.03
504.156	15973.64
504.359	16243.98
504.562	16280.84
504.765	16469.25
504.968	16733.44
505.17	16864.51
505.373	16860.41
505.576	17143.03
505.779	17624.31
505.982	17753.33
506.185	17884.4
506.387	18105.58
506.59	18033.9
506.793	18656.48
506.996	18398.44
507.198	18779.36
507.401	18785.51
507.604	19113.18
507.807	19365.08
508.009	19711.19
508.212	19561.69
508.415	19836.11
508.617	20018.38
508.82	20253.9
509.022	20223.18
509.225	20624.58
509.428	20618.44
509.63	20925.63
509.833	20876.48
510.035	21466.3
510.238	21478.58
510.44	21630.13
510.643	21980.34
510.845	22107.31
511.048	21900.47
511.25	22439.08
511.453	22377.64
511.655	23121.06
511.858	22877.35
512.06	23227.55
512.262	23706.77
512.465	23288.99
512.667	23667.86
512.87	23975.06
513.072	24186
513.274	24747.14
513.477	24829.06
513.679	24927.36
513.881	25359.49
514.084	25300.09
514.286	25672.82
514.488	25595
514.69	26446.96
514.893	26674.28
515.095	26340.46
515.297	26879.08
515.499	26705
515.701	27079.78
515.904	27649.11
516.106	27649.11
516.308	27792.47
516.51	28085.33
516.712	28077.14
516.914	28511.31
517.116	28922.95
517.318	28988.49
517.52	29295.68
517.722	28922.95
517.925	29936.7
518.127	30012.47
518.329	29873.21
518.531	30078.01
518.733	30712.88
518.935	30829.61
519.136	30729.26
519.338	31304.74
519.54	31648.8
519.742	31958.04
519.944	31626.27
520.146	32515.09
520.348	32545.81
520.55	32736.27
520.752	32654.35
520.954	33070.09
521.155	32816.14
521.357	33553.41
521.559	33674.24
521.761	34118.65
521.963	33942.52
522.164	34311.16
522.366	34452.47
522.568	35068.9
522.77	34814.96
522.971	35132.39
523.173	34862.06
523.375	35701.73
523.576	35548.13
523.778	35746.78
523.98	36111.32
524.181	36109.27
524.383	36764.62
524.584	36756.43
524.786	36531.15
524.988	36742.1
525.189	37086.15
525.391	37600.19
525.592	37249.99
525.794	37602.24
525.995	37639.11
526.197	37972.92
526.398	37942.21
526.6	37907.39
526.801	38177.72
527.003	38673.33
527.204	38560.69
527.406	39144.36
527.607	38417.33
527.808	39101.36
528.01	38384.57
528.211	39054.25
528.412	39662.5
528.614	39213.99
528.815	38964.14
529.016	40092.57
529.218	39013.29
529.419	39865.25
529.62	39629.73
529.822	39267.24
530.023	39814.05
530.224	39574.44
530.425	40037.28
530.626	39482.28
530.828	39627.68
531.029	40362.9
531.23	39791.52
531.431	40375.19
531.632	40082.33
531.833	40405.91
532.035	40262.55
532.236	40471.45
532.437	40561.56
532.638	40301.47
532.839	40477.59
533.04	40766.35
533.241	40106.91
533.442	40817.55
533.643	40756.11
533.844	40692.63
534.045	40817.55
534.246	40461.21
534.447	41139.08
534.648	40436.63
534.849	40876.94
535.05	40774.55
535.251	40807.31
535.451	40205.21
535.652	40858.51
535.853	40840.08
536.054	41012.11
536.255	41073.55
536.456	40711.06
536.657	41431.94
536.857	40491.93
537.058	40330.14
537.259	40790.93
537.46	40760.21
537.66	40618.9
537.861	40788.88
538.062	40610.71
538.263	40475.54
538.463	40811.41
538.664	41040.78
538.865	41069.45
539.065	40891.28
539.266	40278.94
539.466	41110.41
539.667	40432.54
539.868	41218.96
540.068	40436.63
540.269	40682.39
540.469	40700.82
540.67	40307.61
540.87	40504.21
541.071	40418.2
541.271	40500.12
541.472	40833.94
541.672	40500.12
541.873	40618.9
542.073	39924.64
542.274	40457.11
542.474	40276.89
542.675	40154.01
542.875	40731.54
543.075	40627.09
543.276	40463.25
543.476	40579.99
543.676	40528.79
543.877	40524.69
544.077	40387.48
544.277	40588.18
544.478	40545.17
544.678	40358.81
544.878	40328.09
545.078	40172.44
545.279	40332.18
545.479	40362.9
545.679	40223.64
545.879	40649.62
546.079	40506.26
546.28	40012.7
546.48	40125.34
546.68	40346.52
546.88	40733.59
547.08	40375.19
547.28	40164.25
547.48	40014.75
547.68	40139.68
547.88	40164.25
548.081	40053.66
548.281	40360.86
548.481	40160.16
548.681	40332.18
548.881	40297.37
549.081	40381.34
549.28	39918.49
549.48	40401.82
549.68	40029.09
549.88	41020.3
550.08	39746.47
550.28	40215.45
550.48	40080.28
550.68	40084.38
550.88	39701.41
551.08	39994.27
551.279	40573.84
551.479	39568.29
551.679	40072.09
551.879	39709.6
552.079	40246.17
552.278	39467.94
552.478	40231.83
552.678	40061.85
552.878	39885.73
553.077	39793.57
553.277	39416.74
553.477	40143.77
553.676	39594.92
553.876	39981.98
554.076	39535.52
554.275	39361.45
554.475	39424.93
554.674	39556
554.874	39771.04
555.074	39570.34
555.273	39713.7
555.473	39179.18
555.672	39269.29
555.872	39728.03
556.071	39287.72
556.271	39328.68
556.47	39404.45
556.67	38857.65
556.869	39185.32
557.068	39238.57
557.268	39109.55
557.467	39136.17
557.667	39093.16
557.866	39117.74
558.065	39099.31
558.265	38681.52
558.464	38499.25
558.663	39209.9
558.863	38433.72
559.062	38871.98
559.261	38693.81
559.461	38726.58
559.66	38112.19
559.859	38329.27
560.058	38110.14
560.258	38366.13
560.457	37784.51
560.656	38513.59
560.855	38091.71
561.054	38298.55
561.253	37968.83
561.453	38087.61
561.652	37800.9
561.851	38507.44
562.05	37995.45
562.249	37749.7
562.448	38099.9
562.647	37833.66
562.846	37430.21
563.045	37772.22
563.244	37450.69
563.443	37559.23
563.642	37147.59
563.841	37727.17
564.04	37307.33
564.239	37858.24
564.438	37082.06
564.637	37215.18
564.836	37440.45
565.035	36645.84
565.234	36746.19
565.432	36398.04
565.631	36834.25
565.83	37233.61
566.029	36764.62
566.228	36117.46
566.427	36879.31
566.625	36568.02
566.824	36365.27
567.023	36297.69
567.222	35914.72
567.42	36576.21
567.619	36293.59
567.818	35843.04
568.016	36271.06
568.215	36490.2
568.414	36180.95
568.612	36350.93
568.811	35767.26
569.01	35980.25
569.208	35298.28
569.407	35789.79
569.605	35152.87
569.804	35965.92
570.002	35136.49
570.201	35132.39
570.4	35199.97
570.598	35263.46
570.797	34970.6
570.995	35046.38
571.193	34358.26
571.392	35003.37
571.59	34755.57
571.789	34888.68
571.987	34425.84
572.186	34149.37
572.384	34268.15
572.582	34831.34
572.781	34386.93
572.979	33915.9
573.177	34118.65
573.376	34196.47
573.574	33637.37
573.772	34266.1
573.971	33739.77
574.169	33719.29
574.367	33045.51
574.565	33709.05
574.763	33385.47
574.962	33379.33
575.16	33051.66
575.358	33281.03
575.556	32941.07
575.754	33035.27
575.952	32959.5
576.151	33213.45
576.349	32672.78
576.547	32310.29
576.745	32869.39
576.943	32873.48
577.141	33029.13
577.339	32777.23
577.537	32517.14
577.735	32543.76
577.933	32214.04
578.131	32640.01
578.329	32263.19
578.527	32091.16
578.725	32101.4
578.923	31888.41
579.121	31583.26
579.319	31546.4
579.516	31847.45
579.714	31661.08
579.912	31656.99
580.11	31540.25
580.308	31552.54
580.506	31304.74
580.704	30960.68
580.901	31501.34
581.099	31671.32
581.297	30549.04
581.495	30848.04
581.692	30860.33
581.89	30530.61
582.088	31153.19
582.285	30620.72
582.483	30852.14
582.681	30694.44
582.878	30553.13
583.076	30372.91
583.274	30377.01
583.471	30035
583.669	30188.6
583.866	30200.88
584.064	30377.01
584.262	29684.8
584.459	30256.18
584.657	29848.63
584.854	29920.31
585.052	28972.1
585.249	29455.42
585.447	29322.3
585.644	29287.49
585.841	29580.35
586.039	29545.53
586.236	29142.08
586.434	29224
586.631	29011.01
586.828	29224
587.026	29164.61
587.223	29068.36
587.42	28513.36
587.618	28927.05
587.815	28701.77
588.012	28228.69
588.21	28392.53
588.407	28798.02
588.604	28103.76
588.801	27882.58
588.999	28300.37
589.196	27845.72
589.393	28111.96
589.59	28013.65
589.787	27698.27
589.984	27978.84
590.182	27599.96
590.379	27835.48
590.576	27663.45
590.773	27542.62
590.97	27079.78
591.167	27661.4
591.364	27085.92
591.561	27128.93
591.758	26965.09
591.955	26999.91
592.152	27389.02
592.349	27034.72
592.546	26780.78
592.743	27001.96
592.94	26549.35
593.137	26852.45
593.334	26610.79
593.531	26276.98
593.727	26475.63
593.924	26690.66
594.121	26076.27
594.318	26768.49
594.515	26012.79
594.712	26473.58
594.908	25756.79
595.105	26049.65
595.302	25705.59
595.499	25775.22
595.696	25701.5
595.892	25379.96
596.089	25803.89
596.286	25273.47
596.482	25457.79
596.679	25572.47
596.876	25359.49
597.072	25427.07
597.269	25148.54
597.466	24913.03
597.662	24607.88
597.859	24935.56
598.055	24835.21
598.252	24831.11
598.448	24624.26
598.645	24525.96
598.841	24286.35
599.038	24632.46
599.234	24585.35
599.431	23919.76
599.627	24026.26
599.824	24392.84
600.02	24329.36
600.217	23979.15
600.413	24122.51
600.609	23850.13
600.806	23467.16
601.002	23880.85
601.198	23676.05
601.395	23727.25
601.591	23508.12
601.787	23434.39
601.984	23297.18
602.18	23645.34
602.376	23172.25
602.572	23375
602.769	23059.62
602.965	23014.56
603.161	23014.56
603.357	22985.89
603.553	22721.7
603.75	22817.96
603.946	22680.74
604.142	22764.71
604.338	22629.54
604.534	22512.81
604.73	22408.36
604.926	22320.3
605.122	22265
605.318	22058.16
605.514	22320.3
605.71	22068.4
605.906	22056.11
606.102	22234.28
606.298	21935.28
606.494	22209.71
606.69	21953.71
606.886	21839.03
607.082	21576.89
607.278	21830.83
607.474	21204.16
607.67	21523.64
607.866	21443.77
608.062	21648.57
608.257	21376.19
608.453	21437.62
608.649	21564.6
608.845	21222.59
609.041	21112
609.236	21136.57
609.432	20962.5
609.628	21112
609.824	20890.82
610.019	20794.56
610.215	20837.57
610.411	21286.08
610.606	20696.26
610.802	21040.32
610.998	20999.36
611.193	20892.87
611.389	20536.52
611.584	20792.51
611.78	20722.88
611.976	20593.86
612.171	20612.29
612.367	20438.22
612.562	20700.36
612.758	20245.71
612.953	20272.33
613.149	20346.06
613.344	20114.64
613.539	20698.31
613.735	20206.8
613.93	20298.95
614.126	20022.48
614.321	20415.69
614.517	20098.25
614.712	20122.83
614.907	19987.66
615.103	20036.81
615.298	19684.56
615.493	19983.57
615.688	19719.38
615.884	20057.29
616.079	19703
616.274	19555.54
616.47	19807.44
616.665	19752.15
616.86	19731.67
617.055	19459.29
617.25	19827.92
617.445	19688.66
617.641	19383.51
617.836	19438.81
618.031	19195.1
618.226	19293.4
618.421	19131.61
618.616	19367.13
618.811	18869.47
619.006	19350.74
619.201	18922.72
619.396	19057.89
619.591	18609.38
619.786	18846.94
619.981	18554.08
620.176	18814.18
620.371	18351.34
620.566	18601.19
620.761	18113.77
620.956	18388.2
621.151	18017.52
621.346	18470.12
621.541	17908.97
621.735	18263.27
621.93	17497.33
622.125	17917.17
622.32	17552.63
622.515	17804.53
622.709	17439.99
622.904	17415.41
623.099	17366.26
623.294	17423.61
623.488	17347.83
623.683	17245.43
623.878	16893.18
624.072	17048.83
624.267	16913.66
624.462	16823.55
624.656	16637.19
624.851	16835.84
625.046	16540.93
625.24	16403.72
625.435	16246.02
625.629	16129.29
625.824	16067.85
626.018	16147.72
626.213	15654.16
626.407	15766.8
626.602	15533.33
626.796	15514.9
626.991	15785.23
627.185	15500.56
627.38	15545.62
627.574	15475.99
627.768	15271.19
627.963	15154.46
628.157	15027.48
628.352	15334.68
628.546	14992.67
628.74	15082.78
628.935	14851.36
629.129	14900.51
629.323	14611.75
629.517	14804.25
629.712	14585.12
629.906	14540.07
630.1	14388.52
630.294	14458.15
630.489	14572.83
630.683	14290.21
630.877	14155.05
631.071	14058.79
631.265	14150.95
631.459	13825.33
631.653	13745.45
631.848	13921.58
632.042	13675.82
632.236	13737.26
632.43	13509.94
632.624	13595.95
632.818	13425.97
633.012	13251.89
633.206	13413.68
633.4	13299
633.594	12981.56
633.788	13227.32
633.982	13169.98
634.176	13028.67
634.369	12647.74
634.563	12674.37
634.757	12770.62
634.951	12686.65
635.145	12598.59
635.339	12703.04
635.533	12549.44
635.726	12442.95
635.92	12375.36
636.114	12207.43
636.308	12332.36
636.501	12399.94
636.695	11998.54
636.889	12062.02
637.083	12131.65
637.276	11842.89
637.47	11920.71
637.664	11838.8
637.857	11732.3
638.051	11748.68
638.244	11595.09
638.438	11617.61
638.632	11484.5
638.825	11504.98
639.019	11545.94
639.212	11263.32
639.406	11414.87
639.599	11300.18
639.793	11300.18
639.986	10992.98
640.18	10949.98
640.373	10894.68
640.567	11042.14
640.76	11122.01
640.954	10890.59
641.147	10870.11
641.34	10749.28
641.534	10886.49
641.727	10818.91
641.92	10626.4
642.114	10517.86
642.307	10544.48
642.5	10306.91
642.694	10437.98
642.887	10225
643.08	10200.42
643.273	10380.64
643.467	10100.07
643.66	10249.57
643.853	10130.79
644.046	10104.17
644.239	9991.53
644.432	9876.84
644.626	9983.34
644.819	9799.02
645.012	9704.81
645.205	9667.95
645.398	9569.65
645.591	9338.23
645.784	9547.12
645.977	9612.65
646.17	9461.1
646.363	9457.01
646.556	9227.64
646.749	9295.22
646.942	9577.84
647.135	9479.54
647.328	9135.48
647.521	9246.07
647.714	9084.28
647.907	9104.76
648.099	9037.17
648.292	8920.44
648.485	8963.45
648.678	8848.76
648.871	8961.4
649.064	8815.99
649.256	8830.33
649.449	8713.6
649.642	8707.45
649.835	8619.39
650.027	8519.04
650.22	8508.8
650.413	8508.8
650.605	8426.88
650.798	8260.99
650.991	8240.51
651.183	8396.16
651.376	8179.08
651.568	8287.62
651.761	8134.02
651.954	8048.01
652.146	8148.36
652.339	8037.77
652.531	7959.94
652.724	7886.22
652.916	7679.37
653.109	7935.37
653.301	8023.43
653.494	7800.2
653.686	7595.4
653.879	7705.99
654.071	7548.3
654.263	7570.83
654.456	7503.25
654.648	7576.97
654.84	7413.13
655.033	7351.7
655.225	7447.95
655.417	7415.18
655.61	7155.09
655.802	7325.07
655.994	7226.77
656.186	7222.67
656.379	7288.21
656.571	7292.3
656.763	7011.73
656.955	7153.04
657.148	7048.6
657.34	7159.19
657.532	6827.42
657.724	6974.87
657.916	6806.94
658.108	6786.46
658.3	6733.21
658.492	6849.94
658.684	6757.78
658.876	6804.89
659.068	6626.71
659.26	6544.8
659.452	6583.71
659.644	6571.42
659.836	6622.62
660.028	6362.53
660.22	6428.06
660.412	6309.28
660.604	6389.15
660.796	6346.14
660.988	6342.05
661.18	6403.49
661.372	6315.42
661.563	6219.17
661.755	6237.6
661.947	6262.18
662.139	6192.55
662.331	6120.87
662.522	6024.61
662.714	6145.44
662.906	6104.48
663.097	5950.89
663.289	6036.9
663.481	5860.77
663.673	5995.94
663.864	6000.04
664.056	5907.88
664.247	5791.14
664.439	5805.48
664.631	5807.53
664.822	5752.23
665.014	5813.67
665.205	5766.57
665.397	5653.93
665.588	5668.27
665.78	5645.74
665.971	5623.21
666.163	5543.34
666.354	5492.14
666.546	5553.58
666.737	5379.5
666.929	5424.56
667.12	5553.58
667.311	5356.97
667.503	5377.45
667.694	5402.03
667.885	5328.3
668.077	5459.37
668.268	5309.87
668.459	5283.25
668.651	5207.47
668.842	5234.1
669.033	5160.37
669.224	5039.54
669.416	5174.71
669.607	5148.08
669.798	5133.75
669.989	5168.56
670.18	5031.35
670.371	4941.24
670.563	4986.29
670.754	4965.81
670.945	4926.9
671.136	4959.67
671.327	4926.9
671.518	4883.89
671.709	4820.41
671.9	4871.61
672.091	4847.03
672.282	4812.21
672.473	4830.65
672.664	4732.34
672.855	4699.58
673.046	4728.25
673.237	4871.61
673.428	4670.9
673.619	4691.38
673.809	4703.67
674	4683.19
674.191	4545.98
674.382	4597.18
674.573	4672.95
674.764	4541.88
674.954	4627.9
675.145	4568.51
675.336	4445.63
675.527	4531.64
675.717	4341.18
675.908	4574.65
676.099	4584.89
676.289	4523.45
676.48	4480.44
676.671	4453.82
676.861	4271.55
677.052	4365.76
677.243	4310.46
677.433	4230.59
677.624	4287.93
677.814	4339.13
678.005	4281.79
678.195	4240.83
678.386	4412.86
678.576	4236.74
678.767	4218.3
678.957	4287.93
679.148	4251.07
679.338	4224.45
679.529	4152.77
679.719	4208.06
679.909	4281.79
680.1	4238.78
680.29	4261.31
680.481	4050.37
680.671	4074.95
680.861	3925.44
681.052	4163.01
681.242	4009.41
681.432	4115.91
681.622	3956.16
681.813	3990.98
682.003	4122.05
682.193	4115.91
682.383	4040.13
682.573	3941.83
682.764	3956.16
682.954	4019.65
683.144	3929.54
683.334	4017.6
683.524	4011.46
683.714	3960.26
683.904	3886.53
684.094	3984.84
684.284	3980.74
684.474	3980.74
684.664	3790.28
684.854	3911.11
685.044	3902.92
685.234	3720.65
685.424	3843.53
685.614	3861.96
685.804	3788.23
685.994	3782.09
686.184	3786.18
686.374	3769.8
686.564	3644.87
686.753	3814.85
686.943	3792.33
687.133	3755.46
687.323	3538.38
687.513	3704.26
687.702	3679.69
687.892	3614.15
688.082	3685.83
688.272	3622.34
688.461	3616.2
688.651	3642.82
688.841	3579.34
689.03	3620.3
689.22	3478.99
689.41	3485.13
689.599	3499.47
689.789	3532.23
689.979	3485.13
690.168	3421.64
690.358	3507.66
690.547	3329.49
690.737	3304.91
690.926	3284.43
691.116	3411.4
691.305	3294.67
691.495	3327.44
691.684	3253.71
691.874	3161.55
692.063	3227.09
692.252	3206.61
692.442	3200.46
692.631	3278.29
692.82	3296.72
693.01	3110.35
693.199	3218.89
693.388	3134.93
693.578	3175.89
693.767	3100.11
693.956	2964.95
694.146	2936.28
694.335	3030.48
694.524	2936.28
694.713	2975.19
694.902	2985.43
695.092	3085.78
695.281	3038.67
695.47	3059.15
695.659	2969.04
695.848	2913.75
696.037	2942.42
696.226	2897.36
696.415	2932.18
696.604	2792.92
696.793	2911.7
696.982	2876.88
697.171	2958.8
697.36	2915.8
697.549	2911.7
697.738	2870.74
697.927	2895.32
698.116	2909.65
698.305	2803.16
698.494	2846.16
698.683	2731.48
698.872	2887.12
699.061	2747.86
699.25	2868.69
699.438	2749.91
699.627	2719.19
699.816	2923.99
700.005	2817.49
700.193	2723.29
700.382	2807.25
700.571	2747.86
700.76	2743.77
700.948	2745.81
701.137	2758.1
701.326	2766.29
701.514	2645.46
701.703	2661.85
701.892	2643.42
702.08	2762.2
702.269	2766.29
702.457	2854.36
702.646	2727.38
702.834	2606.55
703.023	2741.72
703.212	2813.4
703.4	2657.75
703.589	2762.2
703.777	2813.4
703.965	2665.94
704.154	2598.36
704.342	2653.66
704.531	2596.31
704.719	2534.87
704.907	2584.02
705.096	2631.13
705.284	2594.26
705.472	2635.22
705.661	2704.85
705.849	2655.7
706.037	2641.37
706.226	2629.08
706.414	2641.37
706.602	2555.35
706.79	2594.26
706.979	2602.46
707.167	2559.45
707.355	2479.58
707.543	2633.18
707.731	2686.42
707.919	2483.67
708.107	2614.74
708.296	2659.8
708.484	2624.98
708.672	2405.85
708.86	2604.5
709.048	2686.42
709.236	2510.3
709.424	2502.11
709.612	2471.39
709.8	2555.35
709.988	2405.85
710.176	2512.35
710.364	2549.21
710.551	2518.49
710.739	2551.26
710.927	2479.58
711.115	2553.31
711.303	2545.11
711.491	2575.83
711.679	2448.86
711.866	2534.87
712.054	2579.93
712.242	2606.55
712.43	2528.73
712.617	2477.53
712.805	2465.24
712.993	2469.34
713.181	2577.88
713.368	2526.68
713.556	2596.31
713.744	2584.02
713.931	2618.84
714.119	2493.91
714.306	2563.54
714.494	2463.19
714.682	2571.74
714.869	2524.63
715.057	2483.67
715.244	2452.95
715.432	2674.14
715.619	2563.54
715.807	2500.06
715.994	2469.34
716.182	2479.58
716.369	2473.43
716.556	2602.46
716.744	2551.26
716.931	2508.25
717.119	2549.21
717.306	2688.47
717.493	2405.85
717.681	2557.4
717.868	2520.54
718.055	2543.07
718.242	2532.83
718.43	2536.92
718.617	2516.44
718.804	2434.52
718.991	2473.43
719.179	2549.21
719.366	2536.92
719.553	2489.82
719.74	2545.11
719.927	2465.24
720.114	2455
720.301	2424.28
720.488	2622.94
720.676	2520.54
720.863	2389.47
721.05	2588.12
721.237	2481.63
721.424	2500.06
721.611	2651.61
721.798	2428.38
721.985	2483.67
722.172	2409.95
722.358	2383.32
722.545	2469.34
722.732	2282.97
722.919	2559.45
723.106	2559.45
723.293	2471.39
723.48	2381.28
723.667	2565.59
723.853	2526.68
724.04	2655.7
724.227	2444.76
724.414	2543.07
724.6	2534.87
724.787	2559.45
724.974	2647.51
725.161	2459.1
725.347	2502.11
725.534	2549.21
725.72	2657.75
725.907	2473.43
726.094	2448.86
726.28	2289.12
726.467	2512.35
726.653	2553.31
726.84	2604.5
727.027	2477.53
727.213	2520.54
727.4	2500.06
727.586	2567.64
727.773	2700.76
727.959	2524.63
728.145	2561.5
728.332	2524.63
728.518	2530.78
728.705	2526.68
728.891	2586.07
729.077	2581.98
729.264	2397.66
729.45	2565.59
729.636	2483.67
729.823	2481.63
730.009	2575.83
730.195	2522.59
730.382	2538.97
730.568	2571.74
730.754	2579.93
730.94	2565.59
731.126	2571.74
731.313	2594.26
731.499	2567.64
731.685	2547.16
731.871	2565.59
732.057	2678.23
732.243	2534.87
732.429	2586.07
732.615	2495.96
732.801	2534.87
732.987	2538.97
733.173	2577.88
733.359	2586.07
733.545	2541.02
733.731	2446.81
733.917	2594.26
734.103	2633.18
734.289	2498.01
734.475	2547.16
734.661	2553.31
734.847	2526.68
735.033	2493.91
735.219	2522.59
735.404	2711
735.59	2495.96
735.776	2514.39
735.962	2524.63
736.148	2450.91
736.333	2588.12
736.519	2483.67
736.705	2612.7
736.89	2569.69
737.076	2598.36
737.262	2383.32
737.447	2612.7
737.633	2606.55
737.819	2516.44
738.004	2491.87
738.19	2481.63
738.375	2575.83
738.561	2520.54
738.747	2401.76
738.932	2590.17
739.118	2526.68
739.303	2479.58
739.489	2577.88
739.674	2442.71
739.859	2475.48
740.045	2467.29
740.23	2592.22
740.416	2493.91
740.601	2455
740.786	2563.54
740.972	2448.86
741.157	2334.17
741.342	2440.67
741.528	2424.28
741.713	2481.63
741.898	2493.91
742.084	2483.67
742.269	2358.75
742.454	2375.13
742.639	2440.67
742.824	2381.28
743.01	2543.07
743.195	2469.34
743.38	2420.19
743.565	2315.74
743.75	2409.95
743.935	2434.52
744.12	2418.14
744.305	2379.23
744.49	2264.54
744.675	2332.12
744.86	2293.21
745.045	2231.77
745.23	2246.11
745.415	2217.44
745.6	2299.36
745.785	2282.97
745.97	2272.73
746.155	2178.53
746.34	2280.93
746.525	2203.1
746.71	2334.17
746.895	2184.67
747.079	2123.23
747.264	2137.57
747.449	2178.53
747.634	2147.81
747.819	2201.05
748.003	2309.6
748.188	2129.38
748.373	2098.66
748.557	2143.71
748.742	2112.99
748.927	2153.95
749.111	1975.78
749.296	2104.8
749.481	1969.63
749.665	2082.27
749.85	2074.08
750.034	1996.26
750.219	2000.35
750.404	2041.31
750.588	1988.07
750.773	2047.46
750.957	1992.16
751.141	1932.77
751.326	1949.15
751.51	1949.15
751.695	1906.15
751.879	1940.96
752.064	1916.39
752.248	1820.13
752.432	1990.11
752.617	1828.32
752.801	1850.85
752.985	1908.19
753.17	1789.41
753.354	1859.04
753.538	1750.5
753.722	1820.13
753.907	1676.77
754.091	1674.73
754.275	1846.76
754.459	1680.87
754.643	1699.3
754.828	1754.6
755.012	1609.19
755.196	1611.24
755.38	1656.29
755.564	1650.15
755.748	1557.99
755.932	1666.53
756.116	1654.25
756.3	1652.2
756.484	1537.51
756.668	1598.95
756.852	1617.38
757.036	1504.75
757.22	1523.18
757.404	1549.8
757.588	1564.14
757.772	1494.51
757.956	1445.35
758.14	1627.62
758.323	1488.36
758.507	1492.46
758.691	1297.9
758.875	1590.76
759.059	1607.14
759.242	1508.84
759.426	1347.05
759.61	1322.48
759.794	1482.22
759.977	1506.79
760.161	1488.36
760.345	1388.01
760.528	1388.01
760.712	1445.35
760.895	1244.65
761.079	1388.01
761.263	1289.71
761.446	1238.51
761.63	1359.34
761.813	1345
761.997	1379.82
762.18	1316.33
762.364	1359.34
762.547	1340.91
762.731	1261.04
762.914	1336.81
763.098	1263.08
763.281	1277.42
763.464	1226.22
763.648	1246.7
763.831	1250.8
764.015	1203.69
764.198	1236.46
764.381	1181.17
764.564	1191.41
764.748	1248.75
764.931	1224.17
765.114	1213.93
765.297	1242.61
765.481	1105.39
765.664	1166.83
765.847	1136.11
766.03	1123.82
766.213	1076.72
766.397	1179.12
766.58	1136.11
766.763	1218.03
766.946	1129.97
767.129	1236.46
767.312	1125.87
767.495	1172.97
767.678	1195.5
767.861	1113.58
768.044	1050.1
768.227	1119.73
768.41	1127.92
768.593	1095.15
768.776	1144.3
768.959	1134.06
769.142	1029.62
769.324	1138.16
769.507	1168.88
769.69	1089.01
769.873	1046
770.056	1132.01
770.239	1101.3
770.421	1046
770.604	1043.95
770.787	1041.9
770.97	955.89
771.152	982.51
771.335	1039.86
771.518	1041.9
771.7	957.94
771.883	1101.3
772.066	1007.09
772.248	1054.19
772.431	1000.94
772.613	906.74
772.796	931.31
772.978	957.94
773.161	957.94
773.343	990.7
773.526	968.18
773.708	919.03
773.891	910.83
774.073	1050.1
774.256	978.42
774.438	890.35
774.621	884.21
774.803	927.22
774.985	976.37
775.168	900.59
775.35	849.4
775.532	880.11
775.715	869.87
775.897	929.27
776.079	896.5
776.261	783.86
776.444	835.06
776.626	792.05
776.808	845.3
776.99	871.92
777.173	835.06
777.355	808.44
777.537	763.38
777.719	767.48
777.901	878.07
778.083	798.2
778.265	738.8
778.447	716.28
778.629	689.65
778.811	722.42
778.993	769.52
779.175	736.76
779.357	736.76
779.539	726.52
779.721	724.47
779.903	675.32
780.085	673.27
780.267	722.42
780.449	708.09
780.631	677.37
780.812	638.45
780.994	716.28
781.176	585.21
781.358	675.32
781.54	572.92
781.721	628.21
781.903	658.93
782.085	679.41
782.267	587.26
782.448	699.89
782.63	622.07
782.812	593.4
782.993	634.36
783.175	562.68
783.357	638.45
783.538	642.55
783.72	552.44
783.901	607.73
784.083	577.02
784.264	503.29
784.446	581.11
784.627	517.62
784.809	615.93
784.99	574.97
785.172	550.39
785.353	540.15
785.535	529.91
785.716	472.57
785.897	581.11
786.079	579.06
786.26	603.64
786.441	536.06
786.623	503.29
786.804	534.01
786.985	507.38
787.167	511.48
787.348	515.58
787.529	583.16
787.71	579.06
787.891	511.48
788.073	552.44
788.254	409.08
788.435	460.28
788.616	452.09
788.797	480.76
788.978	433.66
789.159	357.88
789.34	441.85
789.522	486.9
789.703	433.66
789.884	497.14
790.065	421.37
790.246	441.85
790.427	474.62
790.607	486.9
790.788	425.47
790.969	427.51
791.15	378.36
791.331	376.31
791.512	417.27
791.693	456.19
791.874	366.07
792.054	454.14
792.235	435.71
792.416	380.41
792.597	392.7
792.778	388.6
792.958	433.66
793.139	351.74
793.32	398.84
793.5	308.73
793.681	392.7
793.862	450.04
794.042	458.23
794.223	331.26
794.404	380.41
794.584	355.83
794.765	302.59
794.945	370.17
795.126	288.25
795.306	437.75
795.487	333.31
795.667	345.59
795.848	372.22
796.028	400.89
796.209	333.31
796.389	343.55
796.57	294.4
796.75	310.78
796.93	386.55
797.111	341.5
797.291	390.65
797.471	374.27
797.652	331.26
797.832	288.25
798.012	321.02
798.192	310.78
798.373	243.2
798.553	269.82
798.733	284.16
798.913	345.59
799.093	273.92
799.274	357.88
799.454	361.98
799.634	333.31
799.814	310.78
799.994	251.39
800.174	273.92
800.354	298.49
800.534	284.16
800.714	323.07
800.894	345.59
801.074	304.64
801.254	235
801.434	247.29
801.614	249.34
801.794	267.77
801.974	624.12
802.154	327.16
802.334	249.34
802.514	314.88
802.693	269.82
802.873	214.52
803.053	355.83
803.233	265.72
803.413	269.82
803.592	257.53
803.772	237.05
803.952	269.82
804.131	192
804.311	235
804.491	261.63
804.67	267.77
804.85	255.48
805.03	294.4
805.209	194.05
805.389	183.81
805.568	230.91
805.748	136.7
805.928	214.52
806.107	292.35
806.287	204.28
806.466	257.53
806.646	245.24
806.825	259.58
807.004	267.77
807.184	255.48
807.363	206.33
807.543	247.29
807.722	239.1
807.901	228.86
808.081	169.47
808.26	183.81
808.439	196.09
808.619	230.91
808.798	255.48
808.977	220.67
809.156	232.96
809.336	210.43
809.515	235
809.694	181.76
809.873	226.81
810.052	265.72
810.231	196.09
810.411	175.61
810.59	269.82
810.769	142.85
810.948	148.99
811.127	230.91
811.306	118.27
811.485	189.95
811.664	200.19
811.843	140.8
812.022	165.37
812.201	196.09
812.38	206.33
812.559	165.37
812.737	153.09
812.916	140.8
813.095	194.05
813.274	187.9
813.453	163.33
813.632	181.76
813.811	183.81
813.989	173.57
814.168	224.76
814.347	183.81
814.526	204.28
814.704	185.85
814.883	153.09
815.062	134.65
815.24	216.57
815.419	165.37
815.598	146.94
815.776	173.57
815.955	122.37
816.133	110.08
816.312	132.61
816.49	105.98
816.669	163.33
816.847	142.85
817.026	165.37
817.204	155.13
817.383	202.24
817.561	222.72
817.74	159.23
817.918	140.8
818.097	177.66
818.275	58.88
818.453	196.09
818.632	120.32
818.81	144.89
818.988	177.66
819.167	151.04
819.345	198.14
819.523	179.71
819.701	136.7
819.879	189.95
820.058	136.7
820.236	165.37
820.414	235
820.592	128.51
820.77	116.22
820.948	110.08
821.127	153.09
821.305	157.18
821.483	85.5
821.661	208.38
821.839	75.26
822.017	67.07
822.195	148.99
822.373	105.98
822.551	167.42
822.729	214.52
822.907	173.57
823.085	151.04
823.262	116.22
823.44	65.02
823.618	171.52
823.796	118.27
823.974	73.21
824.152	126.46
824.329	169.47
824.507	153.09
824.685	112.13
824.863	30.21
825.04	122.37
825.218	48.64
825.396	140.8
825.574	134.65
825.751	118.27
825.929	126.46
826.107	89.6
826.284	85.5
826.462	122.37
826.639	126.46
826.817	132.61
826.994	175.61
827.172	112.13
827.349	146.94
827.527	73.21
827.704	142.85
827.882	228.86
828.059	142.85
828.237	95.74
828.414	142.85
828.591	54.78
828.769	144.89
828.946	52.74
829.124	114.17
829.301	187.9
829.478	159.23
829.655	144.89
829.833	108.03
830.01	65.02
830.187	101.89
830.364	54.78
830.542	40.45
830.719	116.22
830.896	95.74
831.073	34.3
831.25	148.99
831.427	103.93
831.604	83.45
831.782	77.31
831.959	26.11
832.136	85.5
832.313	97.79
832.49	91.65
832.667	159.23
832.844	124.41
833.021	124.41
833.198	134.65
833.374	50.69
833.551	46.59
833.728	75.26
833.905	179.71
834.082	34.3
834.259	54.78
834.436	108.03
834.612	48.64
834.789	36.35
834.966	79.36
835.143	60.93
835.319	26.11
835.496	58.88
835.673	120.32
835.85	132.61
836.026	97.79
836.203	120.32
836.38	52.74
836.556	62.98
836.733	13.82
836.909	77.31
837.086	130.56
837.262	77.31
837.439	112.13
837.616	126.46
837.792	99.84
837.968	95.74
838.145	44.54
838.321	132.61
838.498	30.21
838.674	99.84
838.851	67.07
839.027	99.84
839.203	99.84
839.38	89.6
839.556	71.17
839.732	105.98
839.909	136.7
840.085	46.59
840.261	-18.94
840.437	93.69
840.614	118.27
840.79	81.41
840.966	50.69
841.142	32.26
841.318	26.11
841.494	44.54
841.671	138.75
841.847	118.27
842.023	77.31
842.199	77.31
842.375	97.79
842.551	-0.51
842.727	40.45
842.903	73.21
843.079	24.06
843.255	126.46
843.431	44.54
843.607	124.41
843.783	22.02
843.959	95.74
844.134	5.63
844.31	81.41
844.486	71.17
844.662	42.5
844.838	58.88
845.013	87.55
845.189	28.16
845.365	11.78
845.541	65.02
845.716	56.83
845.892	116.22
846.068	91.65
846.244	116.22
846.419	-10.75
846.595	105.98
846.77	48.64
846.946	7.68
847.122	99.84
847.297	95.74
847.473	105.98
847.648	-4.61
847.824	103.93
847.999	44.54
848.175	58.88
848.35	7.68
848.526	142.85
848.701	89.6
848.876	50.69
849.052	95.74
849.227	38.4
849.403	-18.94
849.578	-37.38
849.753	60.93
849.929	58.88
850.104	99.84
850.279	42.5
850.454	65.02
850.63	38.4
850.805	13.82
850.98	71.17
851.155	11.78
851.33	5.63
851.505	48.64
851.681	93.69
851.856	65.02
852.031	38.4
852.206	54.78
852.381	50.69
852.556	87.55
852.731	140.8
852.906	24.06
853.081	22.02
853.256	87.55
853.431	85.5
853.606	24.06
853.781	28.16
853.956	71.17
854.131	110.08
854.305	101.89
854.48	9.73
854.655	50.69
854.83	42.5
855.005	17.92
855.18	32.26
855.354	54.78
855.529	15.87
855.704	-41.47
855.879	5.63
856.053	54.78
856.228	99.84
856.403	15.87
856.577	3.58
856.752	9.73
856.926	38.4
857.101	91.65
857.276	50.69
857.45	44.54
857.625	42.5
857.799	40.45
857.974	69.12
858.148	34.3
858.323	-8.7
858.497	-8.7
858.672	-0.51
858.846	50.69
859.02	1.54
859.195	85.5
859.369	-18.94
859.543	114.17
859.718	15.87
859.892	-12.8
860.066	73.21
860.241	24.06
860.415	9.73
860.589	32.26
860.763	-45.57
860.938	-86.53
861.112	22.02
861.286	58.88
861.46	30.21
861.634	32.26
861.808	97.79
861.982	-8.7
862.157	77.31
862.331	-31.23
862.505	-59.9
862.679	7.68
862.853	46.59
863.027	-29.18
863.201	50.69
863.375	65.02
863.549	50.69
863.722	3.58
863.896	91.65
864.07	1.54
864.244	38.4
864.418	40.45
864.592	71.17
864.766	52.74
864.939	58.88
865.113	1.54
865.287	42.5
865.461	-47.62
865.634	24.06
865.808	11.78
865.982	26.11
866.156	32.26
866.329	-2.56
866.503	-0.51
866.676	-0.51
866.85	32.26
867.024	48.64
867.197	-61.95
867.371	56.83
867.544	-23.04
867.718	42.5
867.891	58.88
868.065	50.69
868.238	34.3
868.412	36.35
868.585	28.16
868.759	75.26
868.932	-10.75
869.105	-49.66
869.279	-37.38
869.452	17.92
869.625	24.06
869.799	38.4
869.972	56.83
870.145	-6.66
870.319	17.92
870.492	50.69
870.665	9.73
870.838	-6.66
871.011	3.58
871.185	30.21
871.358	-14.85
871.531	97.79
871.704	-6.66
871.877	65.02
872.05	1.54
872.223	19.97
872.396	13.82
872.569	26.11
872.742	13.82
872.915	-49.66
873.088	-10.75
873.261	13.82
873.434	42.5
873.607	5.63
873.78	-12.8
873.953	-29.18
874.126	-14.85
874.299	62.98
874.471	71.17
874.644	24.06
874.817	-6.66
874.99	69.12
875.163	24.06
875.335	-37.38
875.508	30.21
875.681	60.93
875.853	40.45
876.026	46.59
876.199	34.3
876.371	87.55
876.544	58.88
876.717	22.02
876.889	-2.56
877.062	48.64
877.234	50.69
877.407	-8.7
877.579	-20.99
877.752	58.88
877.924	1.54
878.097	3.58
878.269	-27.14
878.442	110.08
878.614	67.07
878.786	19.97
878.959	32.26
879.131	144.89
879.303	-14.85
879.476	-33.28
879.648	42.5
879.82	22.02
879.993	15.87
880.165	142.85
880.337	-18.94
880.509	-35.33
880.681	-23.04
880.854	26.11
881.026	-20.99
881.198	62.98
881.37	81.41
881.542	-0.51
881.714	-68.09
881.886	26.11
882.058	87.55
882.23	77.31
882.402	-12.8
882.574	34.3
882.746	22.02
882.918	69.12
883.09	-61.95
883.262	-8.7
883.434	-45.57
883.606	3.58
883.778	34.3
883.95	-10.75
884.122	38.4
884.293	87.55
884.465	17.92
884.637	69.12
884.809	-33.28
884.98	95.74
885.152	71.17
885.324	1.54
885.496	-18.94
885.667	34.3
885.839	-55.81
886.011	50.69
886.182	30.21
886.354	5.63
886.525	-4.61
886.697	-35.33
886.869	-8.7
887.04	15.87
887.212	52.74
887.383	44.54
887.555	62.98
887.726	62.98
887.897	-14.85
888.069	-0.51
888.24	-23.04
888.412	71.17
888.583	5.63
888.754	-33.28
888.926	5.63
889.097	36.35
889.268	-6.66
889.44	30.21
889.611	-23.04
889.782	26.11
889.953	-33.28
890.125	46.59
890.296	-14.85
890.467	38.4
890.638	-37.38
890.809	40.45
890.98	-6.66
891.151	5.63
891.323	-12.8
891.494	-31.23
891.665	30.21
891.836	24.06
892.007	-6.66
892.178	24.06
892.349	-20.99
892.52	-12.8
892.691	7.68
892.862	-16.9
893.032	-23.04
893.203	32.26
893.374	24.06
893.545	32.26
893.716	11.78
893.887	32.26
894.057	17.92
894.228	-8.7
894.399	40.45
894.57	7.68
894.74	54.78
894.911	-0.51
895.082	36.35
895.253	-31.23
895.423	1.54
895.594	-6.66
895.764	-2.56
895.935	-0.51
896.106	17.92
896.276	52.74
896.447	54.78
896.617	-18.94
896.788	-10.75
896.958	-12.8
897.129	-84.48
897.299	19.97
897.47	73.21
897.64	1.54
897.81	-0.51
897.981	30.21
898.151	-20.99
898.322	17.92
898.492	17.92
898.662	81.41
898.832	46.59
899.003	-33.28
899.173	54.78
899.343	-68.09
899.513	-55.81
