Data from USB4F104151__4__11-44-23-283.txt Node

Date: Fri Mar 14 11:44:23 EDT 2025
User: louis
Spectrometer: USB4F10415
Trigger mode: 4
Integration Time (sec): 2.000000E-2
Scans to average: 1
Electric dark correction enabled: true
Nonlinearity correction enabled: false
Boxcar width: 0
XAxis mode: Wavelengths
Number of Pixels in Spectrum: 3648
>>>>>Begin Spectral Data<<<<<
178.204	-93.18
178.424	-93.18
178.644	-93.18
178.864	-109.57
179.084	-58.37
179.304	-70.65
179.524	19.46
179.744	-56.32
179.964	-1.02
180.184	7.17
180.404	46.08
180.624	7.17
180.844	-21.5
181.064	9.22
181.283	19.46
181.503	5.12
181.723	35.84
181.943	-31.74
182.163	50.18
182.383	35.84
182.602	27.65
182.822	54.27
183.042	50.18
183.262	3.07
183.482	74.75
183.701	13.31
183.921	46.08
184.141	-37.89
184.361	46.08
184.58	84.99
184.8	3.07
185.02	-21.5
185.239	-54.27
185.459	-27.65
185.679	33.79
185.898	15.36
186.118	15.36
186.338	-21.5
186.557	64.51
186.777	54.27
186.997	-44.03
187.216	-15.36
187.436	48.13
187.655	74.75
187.875	-17.41
188.095	-33.79
188.314	35.84
188.534	27.65
188.753	-5.12
188.973	3.07
189.192	68.61
189.412	-21.5
189.631	-15.36
189.851	-1.02
190.07	91.13
190.29	-3.07
190.509	-27.65
190.729	48.13
190.948	52.22
191.168	84.99
191.387	39.94
191.607	-7.17
191.826	5.12
192.045	17.41
192.265	31.74
192.484	46.08
192.704	25.6
192.923	9.22
193.142	58.37
193.362	5.12
193.581	25.6
193.8	-41.98
194.02	-44.03
194.239	-15.36
194.458	17.41
194.678	-7.17
194.897	17.41
195.116	-60.42
195.335	19.46
195.555	56.32
195.774	37.89
195.993	9.22
196.212	17.41
196.432	-7.17
196.651	37.89
196.87	15.36
197.089	66.56
197.308	37.89
197.528	82.94
197.747	1.02
197.966	46.08
198.185	25.6
198.404	25.6
198.623	62.46
198.842	27.65
199.062	44.03
199.281	80.89
199.5	60.42
199.719	60.42
199.938	3.07
200.157	72.7
200.376	33.79
200.595	70.65
200.814	13.31
201.033	-11.26
201.252	7.17
201.471	54.27
201.69	95.23
201.909	101.37
202.128	25.6
202.347	13.31
202.566	76.8
202.785	25.6
203.004	-31.74
203.223	37.89
203.442	1.02
203.661	-21.5
203.879	9.22
204.098	29.7
204.317	-23.55
204.536	54.27
204.755	-17.41
204.974	99.33
205.193	-1.02
205.411	62.46
205.63	19.46
205.849	109.57
206.068	41.98
206.287	-21.5
206.505	25.6
206.724	-1.02
206.943	9.22
207.162	3.07
207.381	-9.22
207.599	44.03
207.818	41.98
208.037	3.07
208.255	-25.6
208.474	-21.5
208.693	80.89
208.911	25.6
209.13	46.08
209.349	60.42
209.567	9.22
209.786	21.5
210.005	-23.55
210.223	-5.12
210.442	-23.55
210.661	3.07
210.879	-9.22
211.098	-13.31
211.316	-19.46
211.535	62.46
211.753	25.6
211.972	29.7
212.191	15.36
212.409	21.5
212.628	-19.46
212.846	-13.31
213.065	13.31
213.283	58.37
213.502	64.51
213.72	-9.22
213.938	74.75
214.157	70.65
214.375	39.94
214.594	33.79
214.812	76.8
215.031	-27.65
215.249	50.18
215.467	58.37
215.686	-54.27
215.904	-13.31
216.122	3.07
216.341	68.61
216.559	41.98
216.778	48.13
216.996	-19.46
217.214	54.27
217.432	-31.74
217.651	15.36
217.869	15.36
218.087	117.76
218.306	-35.84
218.524	3.07
218.742	-21.5
218.96	-5.12
219.179	-44.03
219.397	27.65
219.615	66.56
219.833	27.65
220.051	-1.02
220.27	23.55
220.488	-25.6
220.706	-1.02
220.924	17.41
221.142	35.84
221.36	-23.55
221.578	-23.55
221.796	15.36
222.015	74.75
222.233	-70.65
222.451	-1.02
222.669	33.79
222.887	91.13
223.105	93.18
223.323	-7.17
223.541	29.7
223.759	-3.07
223.977	25.6
224.195	1.02
224.413	1.02
224.631	21.5
224.849	70.65
225.067	17.41
225.285	7.17
225.503	25.6
225.721	-74.75
225.939	17.41
226.157	27.65
226.375	72.7
226.592	33.79
226.81	11.26
227.028	9.22
227.246	84.99
227.464	66.56
227.682	23.55
227.9	5.12
228.117	-13.31
228.335	15.36
228.553	41.98
228.771	-27.65
228.989	54.27
229.206	-31.74
229.424	-50.18
229.642	89.09
229.86	54.27
230.077	19.46
230.295	25.6
230.513	11.26
230.731	119.81
230.948	7.17
231.166	37.89
231.384	7.17
231.601	13.31
231.819	48.13
232.037	54.27
232.254	-25.6
232.472	-5.12
232.689	13.31
232.907	87.04
233.125	-29.7
233.342	64.51
233.56	-58.37
233.777	60.42
233.995	109.57
234.213	62.46
234.43	58.37
234.648	15.36
234.865	1.02
235.083	87.04
235.3	89.09
235.518	46.08
235.735	95.23
235.953	82.94
236.17	-3.07
236.388	-54.27
236.605	64.51
236.822	17.41
237.04	82.94
237.257	41.98
237.475	-29.7
237.692	66.56
237.909	-19.46
238.127	27.65
238.344	66.56
238.562	-15.36
238.779	-25.6
238.996	25.6
239.214	7.17
239.431	-76.8
239.648	31.74
239.865	11.26
240.083	-25.6
240.3	23.55
240.517	23.55
240.735	9.22
240.952	15.36
241.169	58.37
241.386	89.09
241.603	25.6
241.821	-3.07
242.038	13.31
242.255	70.65
242.472	21.5
242.689	-7.17
242.907	29.7
243.124	-15.36
243.341	7.17
243.558	48.13
243.775	35.84
243.992	33.79
244.209	68.61
244.426	54.27
244.643	125.95
244.86	19.46
245.078	52.22
245.295	33.79
245.512	70.65
245.729	44.03
245.946	29.7
246.163	44.03
246.38	13.31
246.597	17.41
246.814	44.03
247.031	41.98
247.248	19.46
247.464	64.51
247.681	29.7
247.898	11.26
248.115	11.26
248.332	-9.22
248.549	87.04
248.766	21.5
248.983	64.51
249.2	-13.31
249.417	87.04
249.633	-44.03
249.85	19.46
250.067	-13.31
250.284	41.98
250.501	-19.46
250.717	-31.74
250.934	37.89
251.151	31.74
251.368	5.12
251.585	1.02
251.801	-15.36
252.018	72.7
252.235	41.98
252.451	-48.13
252.668	15.36
252.885	37.89
253.102	64.51
253.318	70.65
253.535	23.55
253.752	60.42
253.968	60.42
254.185	-13.31
254.401	-11.26
254.618	41.98
254.835	105.47
255.051	68.61
255.268	46.08
255.484	17.41
255.701	-1.02
255.917	31.74
256.134	-11.26
256.351	101.37
256.567	-25.6
256.784	56.32
257	23.55
257.217	46.08
257.433	1.02
257.65	64.51
257.866	48.13
258.082	9.22
258.299	33.79
258.515	66.56
258.732	50.18
258.948	23.55
259.165	5.12
259.381	72.7
259.597	-52.22
259.814	17.41
260.03	-17.41
260.246	15.36
260.463	54.27
260.679	46.08
260.895	70.65
261.112	91.13
261.328	37.89
261.544	62.46
261.761	87.04
261.977	-25.6
262.193	39.94
262.409	21.5
262.626	-54.27
262.842	25.6
263.058	-52.22
263.274	54.27
263.49	54.27
263.707	76.8
263.923	-15.36
264.139	9.22
264.355	-13.31
264.571	82.94
264.787	39.94
265.004	-23.55
265.22	64.51
265.436	-46.08
265.652	21.5
265.868	70.65
266.084	56.32
266.3	70.65
266.516	17.41
266.732	95.23
266.948	-19.46
267.164	-5.12
267.38	-1.02
267.596	13.31
267.812	46.08
268.028	-3.07
268.244	3.07
268.46	7.17
268.676	64.51
268.892	5.12
269.108	27.65
269.324	52.22
269.54	9.22
269.756	70.65
269.972	29.7
270.188	-21.5
270.403	-25.6
270.619	54.27
270.835	23.55
271.051	13.31
271.267	23.55
271.483	-1.02
271.698	-11.26
271.914	19.46
272.13	11.26
272.346	146.43
272.562	66.56
272.777	41.98
272.993	11.26
273.209	13.31
273.425	48.13
273.64	-7.17
273.856	50.18
274.072	60.42
274.287	3.07
274.503	46.08
274.719	17.41
274.934	-17.41
275.15	15.36
275.366	-17.41
275.581	-11.26
275.797	5.12
276.012	9.22
276.228	35.84
276.444	3.07
276.659	91.13
276.875	64.51
277.09	82.94
277.306	-7.17
277.521	48.13
277.737	-7.17
277.952	17.41
278.168	15.36
278.383	95.23
278.599	-21.5
278.814	-19.46
279.03	66.56
279.245	-52.22
279.461	78.85
279.676	25.6
279.892	35.84
280.107	-25.6
280.322	1.02
280.538	-44.03
280.753	-17.41
280.969	25.6
281.184	3.07
281.399	89.09
281.615	58.37
281.83	103.42
282.045	5.12
282.26	35.84
282.476	58.37
282.691	27.65
282.906	5.12
283.122	101.37
283.337	9.22
283.552	25.6
283.767	-7.17
283.983	-15.36
284.198	80.89
284.413	52.22
284.628	11.26
284.843	52.22
285.058	33.79
285.274	11.26
285.489	48.13
285.704	19.46
285.919	5.12
286.134	-3.07
286.349	1.02
286.564	-13.31
286.779	3.07
286.995	-52.22
287.21	33.79
287.425	50.18
287.64	19.46
287.855	-25.6
288.07	-33.79
288.285	-33.79
288.5	-13.31
288.715	7.17
288.93	-54.27
289.145	13.31
289.36	66.56
289.575	66.56
289.79	31.74
290.004	-39.94
290.219	52.22
290.434	5.12
290.649	70.65
290.864	111.61
291.079	58.37
291.294	23.55
291.509	29.7
291.724	-11.26
291.938	-39.94
292.153	87.04
292.368	76.8
292.583	35.84
292.798	17.41
293.012	50.18
293.227	-7.17
293.442	74.75
293.657	91.13
293.871	72.7
294.086	48.13
294.301	48.13
294.516	60.42
294.73	66.56
294.945	-5.12
295.16	-17.41
295.374	52.22
295.589	25.6
295.804	70.65
296.018	84.99
296.233	11.26
296.447	-1.02
296.662	44.03
296.877	125.95
297.091	33.79
297.306	68.61
297.52	5.12
297.735	-11.26
297.949	-17.41
298.164	84.99
298.378	-1.02
298.593	76.8
298.807	95.23
299.022	64.51
299.236	91.13
299.451	41.98
299.665	-1.02
299.88	-19.46
300.094	-15.36
300.309	21.5
300.523	41.98
300.737	66.56
300.952	78.85
301.166	115.71
301.381	41.98
301.595	74.75
301.809	5.12
302.024	80.89
302.238	46.08
302.452	74.75
302.667	27.65
302.881	52.22
303.095	27.65
303.309	64.51
303.524	64.51
303.738	-52.22
303.952	-68.61
304.166	35.84
304.381	60.42
304.595	-9.22
304.809	66.56
305.023	74.75
305.237	39.94
305.452	15.36
305.666	66.56
305.88	17.41
306.094	62.46
306.308	64.51
306.522	56.32
306.736	37.89
306.95	-17.41
307.164	58.37
307.379	48.13
307.593	9.22
307.807	7.17
308.021	93.18
308.235	64.51
308.449	-31.74
308.663	-7.17
308.877	46.08
309.091	89.09
309.305	109.57
309.519	-19.46
309.733	78.85
309.947	-66.56
310.161	41.98
310.374	-11.26
310.588	13.31
310.802	-17.41
311.016	-31.74
311.23	50.18
311.444	60.42
311.658	60.42
311.872	33.79
312.085	9.22
312.299	-15.36
312.513	72.7
312.727	66.56
312.941	-21.5
313.154	-17.41
313.368	15.36
313.582	-7.17
313.796	-13.31
314.009	-25.6
314.223	60.42
314.437	58.37
314.651	-15.36
314.864	56.32
315.078	23.55
315.292	11.26
315.505	-11.26
315.719	31.74
315.933	70.65
316.146	15.36
316.36	37.89
316.573	62.46
316.787	11.26
317.001	72.7
317.214	54.27
317.428	84.99
317.641	-3.07
317.855	23.55
318.068	64.51
318.282	68.61
318.495	44.03
318.709	13.31
318.922	-5.12
319.136	70.65
319.349	68.61
319.563	56.32
319.776	41.98
319.99	5.12
320.203	-27.65
320.417	15.36
320.63	74.75
320.843	1.02
321.057	-17.41
321.27	50.18
321.483	44.03
321.697	52.22
321.91	-25.6
322.124	74.75
322.337	62.46
322.55	21.5
322.763	-37.89
322.977	52.22
323.19	-37.89
323.403	-1.02
323.617	115.71
323.83	74.75
324.043	-11.26
324.256	82.94
324.469	3.07
324.683	37.89
324.896	62.46
325.109	-37.89
325.322	-33.79
325.535	97.28
325.748	19.46
325.962	1.02
326.175	148.48
326.388	78.85
326.601	37.89
326.814	21.5
327.027	58.37
327.24	109.57
327.453	23.55
327.666	44.03
327.879	54.27
328.092	31.74
328.305	41.98
328.518	-9.22
328.731	19.46
328.944	89.09
329.157	62.46
329.37	48.13
329.583	-1.02
329.796	39.94
330.009	25.6
330.222	76.8
330.435	103.42
330.648	-17.41
330.861	52.22
331.073	72.7
331.286	99.33
331.499	25.6
331.712	-35.84
331.925	1.02
332.138	41.98
332.35	7.17
332.563	23.55
332.776	25.6
332.989	17.41
333.202	-9.22
333.414	-3.07
333.627	82.94
333.84	111.61
334.053	-11.26
334.265	-25.6
334.478	15.36
334.691	39.94
334.903	-23.55
335.116	21.5
335.329	-11.26
335.541	62.46
335.754	107.52
335.966	-7.17
336.179	123.9
336.392	74.75
336.604	-15.36
336.817	50.18
337.029	66.56
337.242	-37.89
337.454	48.13
337.667	54.27
337.88	31.74
338.092	25.6
338.305	-9.22
338.517	17.41
338.729	37.89
338.942	46.08
339.154	84.99
339.367	29.7
339.579	21.5
339.792	27.65
340.004	3.07
340.217	46.08
340.429	68.61
340.641	7.17
340.854	39.94
341.066	1.02
341.278	66.56
341.491	140.29
341.703	27.65
341.915	58.37
342.128	25.6
342.34	74.75
342.552	1.02
342.764	1.02
342.977	-7.17
343.189	62.46
343.401	46.08
343.613	33.79
343.826	-29.7
344.038	-46.08
344.25	25.6
344.462	13.31
344.674	58.37
344.886	17.41
345.099	50.18
345.311	111.61
345.523	64.51
345.735	-5.12
345.947	15.36
346.159	-11.26
346.371	9.22
346.583	84.99
346.795	62.46
347.007	23.55
347.219	19.46
347.431	41.98
347.643	-13.31
347.855	84.99
348.067	76.8
348.279	-3.07
348.491	39.94
348.703	-91.13
348.915	54.27
349.127	27.65
349.339	70.65
349.551	-13.31
349.763	113.66
349.975	82.94
350.187	48.13
350.399	27.65
350.61	41.98
350.822	44.03
351.034	54.27
351.246	87.04
351.458	72.7
351.669	25.6
351.881	31.74
352.093	3.07
352.305	66.56
352.517	17.41
352.728	60.42
352.94	60.42
353.152	54.27
353.363	27.65
353.575	74.75
353.787	89.09
353.999	117.76
354.21	72.7
354.422	72.7
354.633	23.55
354.845	72.7
355.057	-33.79
355.268	72.7
355.48	91.13
355.692	3.07
355.903	-35.84
356.115	103.42
356.326	-72.7
356.538	74.75
356.749	74.75
356.961	66.56
357.172	-9.22
357.384	52.22
357.595	80.89
357.807	25.6
358.018	9.22
358.23	152.57
358.441	58.37
358.653	99.33
358.864	-11.26
359.075	50.18
359.287	66.56
359.498	134.14
359.709	25.6
359.921	15.36
360.132	103.42
360.344	11.26
360.555	-11.26
360.766	78.85
360.977	-29.7
361.189	17.41
361.4	9.22
361.611	54.27
361.823	31.74
362.034	3.07
362.245	68.61
362.456	17.41
362.667	46.08
362.879	-15.36
363.09	50.18
363.301	23.55
363.512	31.74
363.723	62.46
363.935	62.46
364.146	58.37
364.357	17.41
364.568	58.37
364.779	-33.79
364.99	58.37
365.201	-5.12
365.412	37.89
365.623	-27.65
365.834	13.31
366.045	19.46
366.256	48.13
366.467	136.19
366.678	-23.55
366.889	1.02
367.1	54.27
367.311	62.46
367.522	56.32
367.733	60.42
367.944	80.89
368.155	-7.17
368.366	64.51
368.577	46.08
368.788	68.61
368.999	7.17
369.209	101.37
369.42	107.52
369.631	11.26
369.842	-50.18
370.053	115.71
370.264	70.65
370.474	7.17
370.685	80.89
370.896	68.61
371.107	39.94
371.317	58.37
371.528	44.03
371.739	74.75
371.95	103.42
372.16	29.7
372.371	-33.79
372.582	72.7
372.792	80.89
373.003	68.61
373.214	35.84
373.424	64.51
373.635	41.98
373.846	64.51
374.056	121.85
374.267	29.7
374.477	17.41
374.688	78.85
374.898	109.57
375.109	44.03
375.319	91.13
375.53	60.42
375.74	-13.31
375.951	82.94
376.161	5.12
376.372	58.37
376.582	-25.6
376.793	37.89
377.003	50.18
377.214	76.8
377.424	52.22
377.635	39.94
377.845	15.36
378.055	50.18
378.266	54.27
378.476	62.46
378.686	9.22
378.897	87.04
379.107	48.13
379.317	107.52
379.528	27.65
379.738	60.42
379.948	9.22
380.158	44.03
380.369	107.52
380.579	50.18
380.789	-44.03
380.999	27.65
381.21	41.98
381.42	54.27
381.63	-39.94
381.84	93.18
382.05	-15.36
382.261	82.94
382.471	74.75
382.681	89.09
382.891	33.79
383.101	89.09
383.311	-27.65
383.521	11.26
383.731	84.99
383.941	31.74
384.151	44.03
384.361	48.13
384.571	54.27
384.781	101.37
384.991	50.18
385.201	56.32
385.411	29.7
385.621	66.56
385.831	1.02
386.041	-17.41
386.251	54.27
386.461	3.07
386.671	-50.18
386.881	60.42
387.091	13.31
387.301	37.89
387.511	29.7
387.72	136.19
387.93	56.32
388.14	11.26
388.35	87.04
388.56	140.29
388.769	31.74
388.979	99.33
389.189	15.36
389.399	111.61
389.609	130.05
389.818	99.33
390.028	82.94
390.238	-39.94
390.447	33.79
390.657	107.52
390.867	31.74
391.076	-15.36
391.286	113.66
391.496	48.13
391.705	113.66
391.915	101.37
392.125	37.89
392.334	134.14
392.544	41.98
392.753	56.32
392.963	44.03
393.172	70.65
393.382	25.6
393.591	140.29
393.801	46.08
394.01	64.51
394.22	46.08
394.429	33.79
394.639	56.32
394.848	84.99
395.058	60.42
395.267	95.23
395.477	37.89
395.686	97.28
395.895	123.9
396.105	154.62
396.314	113.66
396.524	15.36
396.733	132.09
396.942	123.9
397.152	97.28
397.361	91.13
397.57	62.46
397.78	33.79
397.989	121.85
398.198	140.29
398.407	62.46
398.617	115.71
398.826	82.94
399.035	95.23
399.244	93.18
399.453	89.09
399.663	56.32
399.872	89.09
400.081	119.81
400.29	70.65
400.499	64.51
400.708	142.33
400.917	109.57
401.127	91.13
401.336	125.95
401.545	115.71
401.754	91.13
401.963	181.25
402.172	93.18
402.381	99.33
402.59	109.57
402.799	70.65
403.008	95.23
403.217	140.29
403.426	138.24
403.635	171.01
403.844	46.08
404.053	93.18
404.262	97.28
404.471	205.82
404.68	74.75
404.888	203.77
405.097	68.61
405.306	240.64
405.515	138.24
405.724	238.59
405.933	181.25
406.142	250.88
406.35	150.53
406.559	209.92
406.768	162.81
406.977	211.96
407.185	162.81
407.394	183.29
407.603	160.77
407.812	209.92
408.02	211.96
408.229	287.74
408.438	171.01
408.646	148.48
408.855	261.12
409.064	177.15
409.272	250.88
409.481	252.92
409.69	197.63
409.898	230.4
410.107	214.01
410.315	310.27
410.524	369.66
410.733	367.61
410.941	281.6
411.15	355.32
411.358	328.7
411.567	369.66
411.775	361.47
411.984	371.71
412.192	435.19
412.401	404.47
412.609	447.48
412.818	486.39
413.026	474.1
413.234	500.73
413.443	433.15
413.651	476.15
413.86	527.35
414.068	607.22
414.276	613.37
414.485	533.5
414.693	603.13
414.901	676.85
415.11	719.86
415.318	732.15
415.526	703.48
415.734	758.77
415.943	828.4
416.151	777.2
416.359	773.11
416.567	785.4
416.776	861.17
416.984	908.27
417.192	902.13
417.4	943.09
417.608	902.13
417.817	1088.5
418.025	1055.73
418.233	1166.32
418.441	1098.74
418.649	1061.87
418.857	1188.85
419.065	1309.68
419.273	1186.8
419.481	1266.67
419.689	1336.3
419.897	1418.22
420.105	1342.44
420.313	1481.71
420.521	1491.95
420.729	1580.01
420.937	1663.97
421.145	1655.78
421.353	1684.45
421.561	1844.2
421.769	1934.31
421.977	1995.75
422.185	1967.07
422.393	2036.7
422.601	2227.17
422.809	2145.25
423.017	2141.15
423.224	2341.85
423.432	2427.87
423.64	2395.1
423.848	2606.04
424.056	2528.22
424.263	2757.59
424.471	2733.01
424.679	2839.51
424.887	2954.19
425.094	3001.3
425.302	3056.59
425.51	3245.01
425.718	3183.57
425.925	3210.19
426.133	3376.08
426.341	3597.26
426.548	3630.02
426.756	3765.19
426.964	3781.57
427.171	3974.08
427.379	4195.26
427.586	4146.11
427.794	4277.18
428.001	4418.49
428.209	4631.48
428.417	4578.23
428.624	4754.36
428.832	4932.53
429.039	4920.24
429.247	4871.09
429.454	5352.37
429.662	5653.42
429.869	5374.89
430.076	5807.02
430.284	5479.34
430.491	5888.93
430.699	6083.49
430.906	6226.85
431.114	6534.04
431.321	6390.69
431.528	6622.11
431.736	7035.8
431.943	7490.45
432.15	7175.06
432.358	7328.66
432.565	7768.97
432.772	7623.56
432.979	7904.14
433.187	8096.64
433.394	8293.25
433.601	8655.74
433.808	8651.64
434.016	8471.42
434.223	8864.63
434.43	9667.44
434.637	9411.44
434.844	9915.24
435.052	10359.65
435.259	10138.47
435.466	10279.78
435.673	10107.75
435.88	11010.9
436.087	11309.91
436.294	11154.26
436.501	11058.01
436.708	11420.5
436.915	12000.07
437.122	12274.5
437.329	12217.16
437.537	12741.44
437.743	12829.5
437.95	12714.81
438.157	13398.84
438.364	13693.74
438.571	13925.16
438.778	13804.33
438.985	15002.4
439.192	14730.02
439.399	15203.1
439.606	14766.88
439.813	15758.1
440.02	16544.52
440.227	16403.21
440.433	16046.86
440.64	16605.95
440.847	16534.28
441.054	17023.74
441.261	18258.67
441.467	18043.63
441.674	18264.81
441.881	18668.26
442.088	18694.88
442.294	18633.44
442.501	19253.98
442.708	19438.3
442.914	20280.01
443.121	21013.18
443.328	20380.36
443.534	22131.37
443.741	21523.13
443.948	20998.85
444.154	22579.88
444.361	22422.19
444.568	22669.99
444.774	22694.57
444.981	23128.74
445.187	23446.17
445.394	24611.46
445.6	24265.36
445.807	26704.49
446.013	25651.83
446.22	25846.39
446.426	26989.16
446.633	27314.78
446.839	28007
447.046	26845.8
447.252	28269.14
447.459	28480.08
447.665	28166.74
447.871	29631.04
448.078	30894.63
448.284	29389.38
448.491	30294.58
448.697	31797.79
448.903	31904.28
449.11	31908.38
449.316	31568.41
449.522	32008.73
449.728	33311.24
449.935	33176.07
450.141	33188.36
450.347	34079.22
450.553	32805.39
450.76	33585.66
450.966	34605.55
451.172	33927.67
451.378	34542.06
451.584	34314.74
451.791	35123.69
451.997	34734.57
452.203	35490.27
452.409	35604.96
452.615	35361.25
452.821	33817.08
453.027	33575.42
453.233	35252.71
453.44	33923.58
453.646	34558.45
453.852	34648.56
454.058	35203.56
454.264	33919.48
454.47	34748.91
454.676	33976.83
454.882	35125.74
455.088	31869.47
455.294	32559.63
455.5	33176.07
455.705	33376.77
455.911	32250.39
456.117	31355.43
456.323	31091.24
456.529	29246.02
456.735	30337.59
456.941	29620.8
457.147	29289.03
457.352	28367.44
457.558	28430.93
457.764	28340.82
457.97	27761.24
458.176	27159.14
458.381	27173.47
458.587	25807.48
458.793	25225.86
458.999	24324.75
459.204	25848.44
459.41	25467.52
459.616	23614.1
459.821	23736.98
460.027	23536.28
460.233	23216.8
460.438	21879.47
460.644	22223.53
460.85	21299.9
461.055	21027.52
461.261	20540.1
461.466	19477.21
461.672	18631.4
461.878	19972.82
462.083	18858.72
462.289	18533.09
462.494	18107.12
462.7	17349.37
462.905	16927.49
463.111	17652.47
463.316	17769.2
463.522	17224.44
463.727	17337.08
463.932	16993.02
464.138	17046.27
464.343	17060.6
464.549	16550.66
464.754	17132.28
464.959	17089.28
465.165	16673.54
465.37	16128.78
465.575	15819.53
465.781	16460.55
465.986	16532.23
466.191	15764.24
466.397	15444.76
466.602	14951.2
466.807	15311.64
467.012	15391.51
467.218	15080.22
467.423	15008.54
467.628	15110.94
467.833	15997.71
468.038	15362.84
468.244	14963.48
468.449	15575.83
468.654	14850.85
468.859	14768.93
469.064	14924.57
469.269	14166.82
469.474	14136.1
469.679	14603.04
469.885	14232.36
470.09	14287.65
470.295	14263.08
470.5	13919.02
470.705	14011.18
470.91	13716.27
471.115	13624.11
471.32	13697.84
471.525	13470.51
471.73	13253.43
471.935	13355.83
472.139	12585.79
472.344	13087.54
472.549	12847.93
472.754	12737.34
472.959	12372.8
473.164	12278.6
473.369	11926.35
473.574	12682.05
473.778	12495.68
473.983	12249.93
474.188	12120.9
474.393	11572.05
474.598	11748.17
474.802	11676.49
475.007	11516.75
475.212	11551.57
475.417	11137.88
475.621	11170.65
475.826	11180.89
476.031	10781.53
476.235	10763.1
476.44	10990.42
476.645	10722.14
476.849	10695.52
477.054	10451.81
477.259	10193.76
477.463	10396.51
477.668	10060.65
477.872	10210.15
478.077	9925.48
478.282	9724.78
478.486	9829.23
478.691	9565.04
478.895	9581.42
479.1	9667.44
479.304	9665.39
479.509	9315.19
479.713	9384.82
479.918	9532.27
480.122	9081.72
480.326	9296.75
480.531	9390.96
480.735	9159.54
480.94	8989.56
481.144	9270.13
481.348	8866.68
481.553	9110.39
481.757	8821.63
481.961	9169.78
482.166	9010.04
482.37	8903.54
482.574	8862.58
482.778	8809.34
482.983	9091.96
483.187	8946.55
483.391	8956.79
483.595	8881.02
483.8	8792.95
484.004	8926.07
484.208	9120.63
484.412	8889.21
484.616	8897.4
484.821	8928.12
485.025	8616.83
485.229	9032.57
485.433	8788.86
485.637	8962.94
485.841	8639.36
486.045	8803.19
486.249	8788.86
486.453	8672.12
486.657	8950.65
486.861	8868.73
487.065	8465.28
487.269	8969.08
487.473	8792.95
487.677	8889.21
487.881	9005.94
488.085	8770.43
488.289	8799.1
488.493	8827.77
488.697	9069.43
488.901	8829.82
489.105	8874.87
489.309	8934.26
489.512	8901.5
489.716	9137.01
489.92	8993.65
490.124	8823.67
490.328	9118.58
490.531	9190.26
490.735	9118.58
490.939	9124.72
491.143	9110.39
491.346	9104.25
491.55	9272.18
491.754	9098.1
491.958	9218.93
492.161	9417.58
492.365	9300.85
492.569	9188.21
492.772	9296.75
492.976	9595.76
493.18	9526.13
493.383	9653.1
493.587	9720.68
493.79	9745.26
493.994	9814.89
494.197	9857.9
494.401	9898.86
494.605	9900.9
494.808	9921.38
495.012	10036.07
495.215	9982.82
495.419	10027.88
495.622	10062.69
495.825	10404.71
496.029	10220.39
496.232	10285.92
496.436	10224.48
496.639	10763.1
496.843	10550.11
497.046	10650.46
497.249	10806.11
497.453	10984.28
497.656	11062.1
497.859	11178.84
498.063	11209.56
498.266	11541.33
498.469	11459.41
498.673	11338.58
498.876	11615.05
499.079	11803.47
499.282	12108.62
499.485	12143.43
499.689	12004.17
499.892	12307.27
500.095	12495.68
500.298	12553.02
500.501	12438.34
500.705	12880.7
500.908	12847.93
501.111	13083.45
501.314	13294.39
501.517	13460.27
501.72	13562.67
501.923	13544.24
502.126	13714.22
502.329	13935.4
502.532	13978.41
502.735	14166.82
502.938	14273.32
503.141	14467.88
503.344	14711.58
503.547	14658.34
503.75	15037.21
503.953	15166.23
504.156	15274.77
504.359	15385.37
504.562	15571.73
504.765	15704.85
504.968	15880.97
505.17	16071.43
505.373	16153.35
505.576	16356.1
505.779	16642.82
505.982	16810.75
506.185	17187.58
506.387	17044.22
506.59	17058.56
506.793	17644.27
506.996	17451.77
507.198	18133.74
507.401	17828.59
507.604	18094.83
507.807	18356.97
508.009	18688.74
508.212	18531.05
508.415	18860.77
508.617	19264.22
508.82	19147.48
509.022	19141.34
509.225	19485.4
509.428	19626.71
509.63	19833.55
509.833	19653.33
510.035	20411.08
510.238	20447.94
510.44	20685.51
510.643	20794.05
510.845	21154.49
511.048	21189.31
511.25	21220.03
511.453	21371.58
511.655	22145.71
511.858	22026.93
512.06	22125.23
512.262	21992.11
512.465	22610.6
512.667	22405.8
512.87	22665.89
513.072	22915.75
513.274	23286.43
513.477	23452.31
513.679	23833.24
513.881	23841.43
514.084	24257.17
514.286	24081.04
514.488	24607.37
514.69	24980.1
514.893	25172.61
515.095	25193.09
515.297	25367.16
515.499	25498.23
515.701	25731.7
515.904	26143.35
516.106	26159.73
516.308	26329.71
516.51	26612.33
516.712	26657.39
516.914	27107.94
517.116	27390.56
517.318	27308.64
517.52	27611.74
517.722	27877.97
517.925	28129.87
518.127	28381.77
518.329	28471.89
518.531	28691.02
518.733	29182.53
518.935	29026.89
519.136	29133.38
519.338	29172.29
519.54	29815.35
519.742	30057.01
519.944	30378.54
520.146	30528.05
520.348	30853.67
520.55	30788.14
520.752	30698.03
520.954	31570.46
521.155	30863.91
521.357	31857.18
521.559	31644.19
521.761	32143.89
521.963	32367.12
522.164	32094.74
522.366	32485.9
522.568	32729.61
522.77	33114.63
522.971	33448.45
523.173	33208.84
523.375	33038.86
523.576	33190.41
523.778	33313.28
523.98	34093.56
524.181	34077.18
524.383	33962.49
524.584	34251.25
524.786	34316.79
524.988	34265.59
525.189	34937.32
525.391	34771.44
525.592	35191.27
525.794	35078.63
525.995	35164.65
526.197	35576.29
526.398	35527.14
526.6	35537.38
526.801	35813.85
527.003	35981.79
527.204	36012.51
527.406	36297.17
527.607	36217.3
527.808	36288.98
528.01	36018.65
528.211	36288.98
528.412	36833.74
528.614	36522.45
528.815	36784.59
529.016	37284.3
529.218	36293.08
529.419	36729.3
529.62	37042.63
529.822	36671.95
530.023	36993.48
530.224	36930
530.425	36899.28
530.626	37016.01
530.828	36817.36
531.029	37659.07
531.23	37229
531.431	37427.65
531.632	37523.91
531.833	37796.29
532.035	37493.19
532.236	37421.51
532.437	37476.8
532.638	37437.89
532.839	37751.23
533.04	38156.73
533.241	37177.8
533.442	38240.7
533.643	37710.27
533.844	37757.38
534.045	37804.48
534.246	37489.09
534.447	37784
534.648	37165.51
534.849	38181.31
535.05	37394.89
535.251	37708.22
535.451	37532.1
535.652	38216.12
535.853	37681.6
536.054	37702.08
536.255	37861.82
536.456	37525.96
536.657	38373.81
536.857	37669.31
537.058	37777.86
537.259	37992.89
537.46	37736.9
537.66	37982.65
537.861	37646.79
538.062	37630.4
538.263	37874.11
538.463	37896.64
538.664	37913.02
538.865	37654.98
539.065	38066.62
539.266	37568.96
539.466	37689.79
539.667	37355.97
539.868	37804.48
540.068	37554.63
540.269	37456.32
540.469	37626.31
540.67	37827.01
540.87	37865.92
541.071	37568.96
541.271	37552.58
541.472	37272.01
541.672	37396.93
541.873	37329.35
542.073	37300.68
542.274	37779.9
542.474	37665.22
542.675	37263.82
542.875	37595.59
543.075	37243.34
543.276	37120.46
543.476	37775.81
543.676	37489.09
543.877	37829.05
544.077	37716.42
544.277	37425.6
544.478	37544.39
544.678	37532.1
544.878	37407.17
545.078	37581.25
545.279	37247.43
545.479	36970.96
545.679	37460.42
545.879	37374.41
546.079	37294.53
546.28	36923.85
546.48	36934.09
546.68	37435.84
546.88	37298.63
547.08	37466.56
547.28	37116.36
547.48	37091.79
547.68	37038.54
547.88	36778.45
548.081	37306.82
548.281	37265.86
548.481	37151.18
548.681	37112.27
548.881	37325.25
549.081	37091.79
549.28	37028.3
549.48	37257.67
549.68	37239.24
549.88	37726.66
550.08	37034.44
550.28	37351.88
550.48	36788.69
550.68	37456.32
550.88	37485
551.08	36911.56
551.279	37226.95
551.479	36628.95
551.679	36819.41
551.879	37048.78
552.079	37241.29
552.278	37128.65
552.478	37044.68
552.678	36717.01
552.878	37409.22
553.077	36940.24
553.277	36641.23
553.477	37396.93
553.676	36760.02
553.876	36837.84
554.076	36786.64
554.275	36514.26
554.475	36053.47
554.674	36698.58
554.874	36757.97
555.074	36450.77
555.273	36661.71
555.473	36649.42
555.672	36338.13
555.872	36399.57
556.071	36542.93
556.271	36757.97
556.47	36307.41
556.67	36143.58
556.869	36379.09
557.068	36112.86
557.268	35942.88
557.467	36219.35
557.667	36086.23
557.866	36075.99
558.065	36063.71
558.265	36207.06
558.464	35740.13
558.663	36391.38
558.863	35936.73
559.062	36331.99
559.261	35959.26
559.461	36172.25
559.66	35367.4
559.859	35682.78
560.058	35662.3
560.258	35949.02
560.457	35582.43
560.656	35744.22
560.855	35637.73
561.054	35746.27
561.253	35244.52
561.453	35258.85
561.652	35355.11
561.851	35523.04
562.05	35531.23
562.249	35097.06
562.448	35416.55
562.647	35246.57
562.846	35326.44
563.045	35459.55
563.244	34664.94
563.443	35148.26
563.642	34662.9
563.841	34916.84
564.04	34673.13
564.239	35410.4
564.438	34433.52
564.637	34771.44
564.836	35000.81
565.035	34394.61
565.234	34701.81
565.432	34419.19
565.631	34378.23
565.83	34783.73
566.029	34349.56
566.228	34427.38
566.427	34099.7
566.625	34415.09
566.824	33608.19
567.023	34392.56
567.222	33608.19
567.42	34275.83
567.619	33964.54
567.818	33802.75
568.016	33659.39
568.215	34001.4
568.414	33812.99
568.612	34236.92
568.811	33479.17
569.01	33853.95
569.208	33004.04
569.407	34062.84
569.605	33196.55
569.804	33552.9
570.002	33133.06
570.201	33458.69
570.4	32793.1
570.598	33210.89
570.797	32682.51
570.995	32973.32
571.193	32596.49
571.392	33051.14
571.59	32438.8
571.789	32840.2
571.987	32506.38
572.186	32338.45
572.384	32432.66
572.582	32735.76
572.781	32508.43
572.979	31914.52
573.177	32043.54
573.376	32477.71
573.574	31891.99
573.772	31939.1
573.971	32061.97
574.169	31906.33
574.367	31408.67
574.565	31996.44
574.763	31566.37
574.962	31648.29
575.16	31599.13
575.358	31719.96
575.556	31181.35
575.754	31941.14
575.952	31037.99
576.151	31425.06
576.349	30675.5
576.547	31263.27
576.745	31443.49
576.943	30798.38
577.141	30988.84
577.339	30784.04
577.537	30962.22
577.735	30661.16
577.933	30763.56
578.131	30614.06
578.329	30386.74
578.527	30243.38
578.725	30319.15
578.923	30661.16
579.121	30317.11
579.319	30149.17
579.516	30114.36
579.714	30458.42
579.912	30198.32
580.11	29889.08
580.308	29889.08
580.506	29692.47
580.704	29196.87
580.901	29700.67
581.099	29942.33
581.297	29395.52
581.495	29319.74
581.692	29628.99
581.89	29235.78
582.088	29598.27
582.285	29039.17
582.483	29475.39
582.681	29254.21
582.878	29270.59
583.076	29205.06
583.274	28908.1
583.471	28406.35
583.669	28867.14
583.866	28308.05
584.064	28764.75
584.262	28127.83
584.459	28605
584.657	28244.56
584.854	28475.98
585.052	27959.89
585.249	28455.5
585.447	28267.09
585.644	28148.31
585.841	28068.44
586.039	28533.32
586.236	27466.33
586.434	27877.97
586.631	27564.64
586.828	27896.41
587.026	27290.21
587.223	27429.47
587.42	27464.28
587.618	27447.9
587.815	27320.93
588.012	27251.3
588.21	27331.17
588.407	27425.37
588.604	26917.48
588.801	26937.96
588.999	26888.81
589.196	26751.59
589.393	26761.83
589.59	26782.31
589.787	26659.43
589.984	26501.74
590.182	26286.7
590.379	26667.63
590.576	26313.33
590.773	26122.87
590.97	26151.54
591.167	26327.66
591.364	25789.05
591.561	26004.08
591.758	25813.62
591.955	25811.57
592.152	26008.18
592.349	25481.85
592.546	25905.78
592.743	25436.8
592.94	25270.91
593.137	25076.35
593.334	25678.46
593.531	24885.89
593.727	25139.84
593.924	25268.86
594.121	25156.22
594.318	25111.17
594.515	24916.61
594.712	25098.88
594.908	24820.36
595.105	24691.34
595.302	24617.61
595.499	24707.72
595.696	24412.81
595.892	24378
596.089	24631.94
596.286	24431.24
596.482	24230.54
596.679	24312.46
596.876	24576.65
597.072	23986.83
597.269	24396.43
597.466	23585.43
597.662	23589.53
597.859	23849.62
598.055	24040.08
598.252	23550.62
598.448	23468.7
598.645	23655.06
598.841	23399.07
599.038	23501.47
599.234	23245.47
599.431	23280.28
599.627	23364.25
599.824	23323.29
600.02	23057.06
600.217	22835.88
600.413	22985.38
600.609	22774.44
600.806	22725.29
601.002	23061.15
601.198	22471.34
601.395	22274.73
601.591	22622.89
601.787	22475.43
601.984	22530.73
602.18	22526.63
602.376	22194.86
602.572	22409.9
602.769	21809.84
602.965	22014.64
603.161	22190.77
603.357	22035.12
603.553	21766.84
603.75	22041.26
603.946	21562.04
604.142	22172.33
604.338	21906.1
604.534	21494.46
604.73	21363.39
604.926	21422.78
605.122	21256.89
605.318	21314.23
605.514	21088.96
605.71	21119.68
605.906	20798.15
606.102	21119.68
606.298	20972.22
606.494	20892.35
606.69	20869.83
606.886	21177.02
607.082	20933.31
607.278	21029.57
607.474	20361.93
607.67	20820.67
607.866	20607.69
608.062	20746.95
608.257	20501.19
608.453	20654.79
608.649	20665.03
608.845	20181.71
609.041	20306.63
609.236	20490.95
609.432	20290.25
609.628	20275.91
609.824	20370.12
610.019	20298.44
610.215	20105.93
610.411	20077.26
610.606	20089.55
610.802	19981.01
610.998	19905.23
611.193	20075.21
611.389	19825.36
611.584	19817.17
611.78	19630.8
611.976	19962.58
612.171	19739.35
612.367	19823.31
612.562	19911.38
612.758	19718.87
612.953	19296.99
613.149	19768.02
613.344	19518.17
613.539	19954.38
613.735	19411.67
613.93	19571.41
614.126	19479.25
614.321	19620.56
614.517	19497.69
614.712	19407.58
614.907	19245.79
615.103	19518.17
615.298	19337.94
615.493	19538.65
615.688	19155.68
615.884	19602.13
616.079	19266.27
616.274	19319.51
616.47	19000.03
616.665	19221.21
616.86	19053.28
617.055	18954.97
617.25	18946.78
617.445	19073.76
617.641	18922.21
617.836	19006.17
618.031	18461.41
618.226	18784.99
618.421	18426.6
618.616	18604.77
618.811	18633.44
619.006	18997.98
619.201	18154.22
619.396	18426.6
619.591	18037.48
619.786	18381.54
619.981	17877.74
620.176	18041.58
620.371	17810.16
620.566	17699.57
620.761	17896.17
620.956	17816.3
621.151	17535.73
621.346	17892.08
621.541	17326.84
621.735	17765.1
621.93	17238.78
622.125	17197.82
622.32	16972.54
622.515	17206.01
622.709	16798.46
622.904	17007.36
623.099	17150.71
623.294	17003.26
623.488	16773.89
623.683	16560.9
623.878	16362.25
624.072	16640.77
624.267	16726.78
624.462	16468.74
624.656	16114.44
624.851	16259.85
625.046	16003.85
625.24	16198.41
625.435	15754
625.629	15846.16
625.824	15629.07
626.018	15727.38
626.213	15416.08
626.407	15561.49
626.602	15364.89
626.796	15291.16
626.991	15112.99
627.185	15201.05
627.38	15119.13
627.574	14928.67
627.768	14895.9
627.963	14727.97
628.157	14803.74
628.352	14813.98
628.546	14390.05
628.74	14471.97
628.935	14287.65
629.129	14478.12
629.323	14322.47
629.517	14119.72
629.712	14168.87
629.906	14136.1
630.1	13636.4
630.294	13978.41
630.489	13816.62
630.683	13953.84
630.877	13546.29
631.071	13597.49
631.265	13538.1
631.459	13278.01
631.653	13278.01
631.848	13187.89
632.042	13165.37
632.236	13478.71
632.43	12952.38
632.624	13146.94
632.818	12979
633.012	12712.77
633.206	12950.33
633.4	12669.76
633.594	12682.05
633.788	12665.66
633.982	12892.99
634.176	12636.99
634.369	12579.65
634.563	12376.9
634.757	12432.19
634.951	12292.93
635.145	12092.23
635.339	12204.87
635.533	12139.33
635.726	12196.68
635.92	12051.27
636.114	11862.86
636.308	12075.85
636.501	12069.7
636.695	11772.75
636.889	11563.86
637.083	11672.4
637.276	11619.15
637.47	11551.57
637.664	11430.74
637.857	11418.45
638.051	11424.59
638.244	11195.22
638.438	11199.32
638.632	11201.37
638.825	11121.49
639.019	11021.14
639.212	11051.86
639.406	10853.21
639.599	10992.47
639.793	10851.16
639.986	10890.07
640.18	10699.61
640.373	10660.7
640.567	10556.25
640.76	10429.28
640.954	10560.35
641.147	10552.16
641.34	10251.11
641.534	10427.23
641.727	10169.19
641.92	10206.05
642.114	10185.57
642.307	10132.33
642.5	9929.58
642.694	9913.19
642.887	9950.06
643.08	9962.34
643.273	9931.62
643.467	9730.92
643.66	9704.3
643.853	9722.73
644.046	9673.58
644.239	9569.13
644.432	9565.04
644.626	9483.12
644.819	9464.69
645.012	9515.89
645.205	9450.35
645.398	9229.17
645.591	9278.32
645.784	9151.35
645.977	8954.74
646.17	9194.36
646.363	9059.19
646.556	8977.27
646.749	9196.4
646.942	8999.8
647.135	8934.26
647.328	8856.44
647.521	8727.42
647.714	8688.51
647.907	8674.17
648.099	8567.68
648.292	8758.14
648.485	8504.19
648.678	8502.14
648.871	8620.92
649.064	8590.2
649.256	8514.43
649.449	8412.03
649.642	8250.24
649.835	8477.57
650.027	8190.85
650.22	8344.45
650.413	8240
650.605	8067.97
650.798	8082.31
650.991	8010.63
651.183	8178.56
651.376	8090.5
651.568	7924.62
651.761	7789.45
651.954	7650.19
652.146	7658.38
652.339	7750.54
652.531	7736.2
652.724	7558.03
652.916	7580.56
653.109	7633.8
653.301	7707.53
653.494	7619.47
653.686	7500.69
653.879	7623.56
654.071	7474.06
654.263	7230.35
654.456	7398.29
654.648	7377.81
654.84	7355.28
655.033	7156.63
655.225	7230.35
655.417	7144.34
655.61	7152.53
655.802	7064.47
655.994	6914.97
656.186	7048.08
656.379	6986.65
656.571	7107.48
656.763	6777.75
656.955	6939.54
657.148	6966.17
657.34	6732.7
657.532	6800.28
657.724	6667.16
657.916	6837.14
658.108	6697.88
658.3	6503.32
658.492	6507.42
658.684	6407.07
658.876	6536.09
659.068	6456.22
659.26	6628.25
659.452	6419.36
659.644	6439.84
659.836	6278.05
660.028	6380.45
660.22	6200.23
660.412	6230.94
660.604	6134.69
660.796	6077.35
660.988	6230.94
661.18	6243.23
661.372	6319.01
661.563	6130.59
661.755	5923.75
661.947	5923.75
662.139	5747.62
662.331	5936.04
662.522	5698.47
662.714	5845.93
662.906	5852.07
663.097	5829.54
663.289	5708.71
663.481	5784.49
663.673	5723.05
663.864	5551.02
664.056	5735.34
664.247	5655.47
664.439	5462.96
664.631	5641.13
664.822	5589.93
665.014	5512.11
665.205	5518.25
665.397	5358.51
665.588	5594.03
665.78	5268.4
665.971	5352.37
666.163	5436.33
666.354	5413.81
666.546	5301.17
666.737	5211.06
666.929	5342.13
667.12	5280.69
667.311	5153.71
667.503	5170.1
667.694	5278.64
667.885	5047.22
668.077	5274.54
668.268	5139.38
668.459	5143.47
668.651	4938.68
668.842	5016.5
669.033	4903.86
669.224	4971.44
669.416	5020.6
669.607	4879.29
669.798	4910.01
669.989	5141.43
670.18	4848.57
670.371	4916.15
670.563	4690.87
670.754	4684.73
670.945	4717.5
671.136	4737.98
671.327	4623.29
671.518	4654.01
671.709	4754.36
671.9	4783.03
672.091	4664.25
672.282	4563.9
672.473	4705.21
672.664	4733.88
672.855	4600.76
673.046	4631.48
673.237	4742.07
673.428	4535.23
673.619	4406.2
673.809	4375.49
674	4475.84
674.191	4414.4
674.382	4367.29
674.573	4588.47
674.764	4330.43
674.954	4404.16
675.145	4301.76
675.336	4260.8
675.527	4393.92
675.717	4291.52
675.908	4350.91
676.099	4338.62
676.289	4281.28
676.48	4211.65
676.671	4406.2
676.861	4320.19
677.052	4248.51
677.243	4146.11
677.433	4209.6
677.624	4125.63
677.814	4191.17
678.005	4152.26
678.195	4152.26
678.386	4088.77
678.576	4023.23
678.767	4027.33
678.957	4115.39
679.148	4080.58
679.338	4113.35
679.529	4023.23
679.719	4031.43
679.909	4094.91
680.1	3857.35
680.29	3929.03
680.481	4000.71
680.671	3972.04
680.861	3988.42
681.052	3931.08
681.242	3865.54
681.432	3949.51
681.622	3910.6
681.813	3789.77
682.003	3908.55
682.193	3804.1
682.383	3910.6
682.573	3851.21
682.764	3814.34
682.954	3828.68
683.144	3933.12
683.334	3816.39
683.524	3818.44
683.714	3861.45
683.904	3861.45
684.094	3726.28
684.284	3736.52
684.474	3861.45
684.664	3789.77
684.854	3838.92
685.044	3763.14
685.234	3560.39
685.424	3777.48
685.614	3625.93
685.804	3603.4
685.994	3687.37
686.184	3660.74
686.374	3638.22
686.564	3636.17
686.753	3464.14
686.943	3560.39
687.133	3513.29
687.323	3369.93
687.513	3607.5
687.702	3437.52
687.892	3353.55
688.082	3386.32
688.272	3529.67
688.461	3371.98
688.651	3423.18
688.841	3404.75
689.03	3206.1
689.22	3390.41
689.41	3441.61
689.599	3390.41
689.789	3339.21
689.979	3224.53
690.168	3228.62
690.358	3290.06
690.547	3302.35
690.737	3371.98
690.926	3146.7
691.116	3070.93
691.305	3109.84
691.495	3191.76
691.684	3212.24
691.874	3128.27
692.063	3077.07
692.252	3199.95
692.442	3165.14
692.631	3060.69
692.82	3052.5
693.01	3066.83
693.199	2890.71
693.388	2976.72
693.578	2995.15
693.767	2978.77
693.956	2966.48
694.146	2849.75
694.335	2890.71
694.524	2831.32
694.713	3036.11
694.902	2855.89
695.092	2935.76
695.281	2913.24
695.47	2837.46
695.659	2673.62
695.848	2841.56
696.037	2913.24
696.226	2855.89
696.415	2728.92
696.604	2757.59
696.793	2712.53
696.982	2796.5
697.171	2718.68
697.36	2655.19
697.549	2614.23
697.738	2728.92
697.927	2737.11
698.116	2792.41
698.305	2651.1
698.494	2659.29
698.683	2642.9
698.872	2591.7
699.061	2585.56
699.25	2577.37
699.438	2460.63
699.627	2651.1
699.816	2640.86
700.005	2620.38
700.193	2651.1
700.382	2687.96
700.571	2601.94
700.76	2560.98
700.948	2501.59
701.137	2587.61
701.326	2610.14
701.514	2438.11
701.703	2548.7
701.892	2515.93
702.08	2583.51
702.269	2421.72
702.457	2503.64
702.646	2540.51
702.834	2409.44
703.023	2552.79
703.212	2517.98
703.4	2558.94
703.589	2487.26
703.777	2542.55
703.965	2499.55
704.154	2485.21
704.342	2440.15
704.531	2515.93
704.719	2393.05
704.907	2487.26
705.096	2401.24
705.284	2464.73
705.472	2483.16
705.661	2436.06
705.849	2540.51
706.037	2462.68
706.226	2542.55
706.414	2391
706.602	2485.21
706.79	2489.31
706.979	2190.3
707.167	2497.5
707.355	2397.15
707.543	2376.67
707.731	2401.24
707.919	2413.53
708.107	2331.61
708.296	2370.52
708.484	2321.37
708.672	2331.61
708.86	2350.04
709.048	2434.01
709.236	2472.92
709.424	2362.33
709.612	2352.09
709.8	2393.05
709.988	2372.57
710.176	2493.4
710.364	2380.76
710.551	2405.34
710.739	2309.08
710.927	2321.37
711.115	2384.86
711.303	2442.2
711.491	2339.8
711.679	2442.2
711.866	2417.63
712.054	2427.87
712.242	2354.14
712.43	2446.3
712.617	2335.71
712.805	2257.89
712.993	2345.95
713.181	2286.56
713.368	2438.11
713.556	2315.23
713.744	2327.52
713.931	2341.85
714.119	2325.47
714.306	2311.13
714.494	2337.76
714.682	2348
714.869	2292.7
715.057	2315.23
715.244	2266.08
715.432	2345.95
715.619	2405.34
715.807	2331.61
715.994	2227.17
716.182	2380.76
716.369	2329.56
716.556	2335.71
716.744	2395.1
716.931	2264.03
717.119	2350.04
717.306	2356.19
717.493	2362.33
717.681	2309.08
717.868	2421.72
718.055	2321.37
718.242	2239.45
718.43	2339.8
718.617	2446.3
718.804	2378.72
718.991	2333.66
719.179	2341.85
719.366	2352.09
719.553	2335.71
719.74	2239.45
719.927	2345.95
720.114	2380.76
720.301	2292.7
720.488	2348
720.676	2425.82
720.863	2335.71
721.05	2284.51
721.237	2366.43
721.424	2397.15
721.611	2417.63
721.798	2345.95
721.985	2376.67
722.172	2356.19
722.358	2307.04
722.545	2335.71
722.732	2323.42
722.919	2352.09
723.106	2380.76
723.293	2257.89
723.48	2411.48
723.667	2360.28
723.853	2409.44
724.04	2298.84
724.227	2423.77
724.414	2335.71
724.6	2464.73
724.787	2309.08
724.974	2429.91
725.161	2319.32
725.347	2448.35
725.534	2513.88
725.72	2374.62
725.907	2407.39
726.094	2405.34
726.28	2401.24
726.467	2386.91
726.653	2337.76
726.84	2431.96
727.027	2401.24
727.213	2434.01
727.4	2374.62
727.586	2333.66
727.773	2261.98
727.959	2288.61
728.145	2413.53
728.332	2395.1
728.518	2321.37
728.705	2446.3
728.891	2378.72
729.077	2442.2
729.264	2372.57
729.45	2464.73
729.636	2397.15
729.823	2378.72
730.009	2497.5
730.195	2343.9
730.382	2460.63
730.568	2485.21
730.754	2472.92
730.94	2548.7
731.126	2348
731.313	2362.33
731.499	2429.91
731.685	2499.55
731.871	2446.3
732.057	2423.77
732.243	2403.29
732.429	2419.68
732.615	2364.38
732.801	2444.25
732.987	2491.35
733.173	2413.53
733.359	2393.05
733.545	2386.91
733.731	2517.98
733.917	2421.72
734.103	2354.14
734.289	2575.32
734.475	2382.81
734.661	2380.76
734.847	2399.2
735.033	2513.88
735.219	2472.92
735.404	2472.92
735.59	2415.58
735.776	2446.3
735.962	2505.69
736.148	2499.55
736.333	2470.87
736.519	2448.35
736.705	2450.39
736.89	2466.78
737.076	2391
737.262	2376.67
737.447	2444.25
737.633	2380.76
737.819	2505.69
738.004	2520.03
738.19	2450.39
738.375	2384.86
738.561	2395.1
738.747	2401.24
738.932	2427.87
739.118	2526.17
739.303	2489.31
739.489	2554.84
739.674	2309.08
739.859	2452.44
740.045	2382.81
740.23	2515.93
740.416	2366.43
740.601	2358.24
740.786	2374.62
740.972	2304.99
741.157	2374.62
741.342	2456.54
741.528	2364.38
741.713	2356.19
741.898	2253.79
742.084	2403.29
742.269	2264.03
742.454	2354.14
742.639	2391
742.824	2311.13
743.01	2323.42
743.195	2388.96
743.38	2327.52
743.565	2280.41
743.75	2311.13
743.935	2216.93
744.12	2141.15
744.305	2225.12
744.49	2247.65
744.675	2298.84
744.86	2249.69
745.045	2251.74
745.23	2257.89
745.415	2415.58
745.6	2233.31
745.785	2147.3
745.97	2237.41
746.155	2110.43
746.34	2098.14
746.525	2241.5
746.71	2161.63
746.895	2198.49
747.079	2114.53
747.264	2135.01
747.449	2153.44
747.634	2198.49
747.819	2171.87
748.003	2075.62
748.188	2092
748.373	2171.87
748.557	2065.38
748.742	2040.8
748.927	2132.96
749.111	1954.79
749.296	2081.76
749.481	2079.71
749.665	2008.03
749.85	2022.37
750.034	1836
750.219	1940.45
750.404	1991.65
750.588	1952.74
750.773	1876.96
750.957	1864.68
751.141	1954.79
751.326	1954.79
751.51	1862.63
751.695	1846.24
751.879	1797.09
752.064	1905.63
752.248	1815.52
752.432	1862.63
752.617	1795.04
752.801	1774.56
752.985	1749.99
753.17	1799.14
753.354	1723.37
753.538	1790.95
753.722	1696.74
753.907	1741.8
754.091	1706.98
754.275	1721.32
754.459	1754.09
754.643	1668.07
754.828	1565.67
755.012	1778.66
755.196	1575.91
755.38	1616.87
755.564	1592.3
755.748	1666.02
755.932	1635.3
756.116	1663.97
756.3	1512.42
756.484	1543.14
756.668	1551.34
756.852	1539.05
757.036	1463.27
757.22	1504.23
757.404	1524.71
757.588	1473.51
757.772	1467.37
757.956	1606.63
758.14	1493.99
758.323	1485.8
758.507	1463.27
758.691	1442.79
758.875	1469.42
759.059	1467.37
759.242	1428.46
759.426	1502.19
759.61	1395.69
759.794	1313.77
759.977	1305.58
760.161	1375.21
760.345	1424.36
760.528	1430.51
760.712	1473.51
760.895	1440.75
761.079	1344.49
761.263	1307.63
761.446	1348.59
761.63	1367.02
761.813	1326.06
761.997	1285.1
762.18	1348.59
762.364	1238
762.547	1238
762.731	1293.29
762.914	1317.87
763.098	1274.86
763.281	1268.72
763.464	1225.71
763.648	1268.72
763.831	1145.84
764.015	1199.09
764.198	1227.76
764.381	1221.61
764.564	1170.41
764.748	1160.17
764.931	1278.96
765.114	1174.51
765.297	1182.7
765.481	1080.3
765.664	1207.28
765.847	1121.26
766.03	1238
766.213	1113.07
766.397	1182.7
766.58	1129.45
766.763	1164.27
766.946	1147.89
767.129	1127.41
767.312	1188.85
767.495	1137.65
767.678	1180.65
767.861	1121.26
768.044	1141.74
768.227	1119.21
768.41	1096.69
768.593	1098.74
768.776	1084.4
768.959	1143.79
769.142	996.34
769.324	1055.73
769.507	1012.72
769.69	994.29
769.873	1076.21
770.056	1127.41
770.239	1082.35
770.421	1096.69
770.604	1078.26
770.787	1172.46
770.97	1012.72
771.152	1084.4
771.335	1014.77
771.518	1070.06
771.7	1012.72
771.883	1080.3
772.066	998.38
772.248	1045.49
772.431	1000.43
772.613	1029.1
772.796	936.95
772.978	1018.86
773.161	1025.01
773.343	1000.43
773.526	967.67
773.708	953.33
773.891	885.75
774.073	869.36
774.256	949.23
774.438	955.38
774.621	867.31
774.803	836.6
774.985	924.66
775.168	910.32
775.35	906.23
775.532	918.51
775.715	912.37
775.897	822.26
776.079	807.92
776.261	852.98
776.444	859.12
776.626	760.82
776.808	861.17
776.99	766.96
777.173	865.27
777.355	785.4
777.537	799.73
777.719	861.17
777.901	836.6
778.083	801.78
778.265	730.1
778.447	797.68
778.629	691.19
778.811	814.07
778.993	793.59
779.175	758.77
779.357	795.64
779.539	717.81
779.721	674.81
779.903	760.82
780.085	785.4
780.267	687.09
780.449	726
780.631	771.06
780.812	680.95
780.994	689.14
781.176	693.24
781.358	707.57
781.54	680.95
781.721	658.42
781.903	732.15
782.085	685.05
782.267	607.22
782.448	535.54
782.63	547.83
782.812	609.27
782.993	734.2
783.175	617.46
783.357	596.98
783.538	658.42
783.72	625.65
783.901	621.56
784.083	529.4
784.264	615.41
784.446	541.69
784.627	611.32
784.809	543.74
784.99	562.17
785.172	535.54
785.353	596.98
785.535	551.93
785.716	570.36
785.897	482.3
786.079	543.74
786.26	529.4
786.441	525.3
786.623	523.26
786.804	558.07
786.985	513.02
787.167	572.41
787.348	513.02
787.529	517.11
787.71	578.55
787.891	463.86
788.073	445.43
788.254	441.34
788.435	496.63
788.616	551.93
788.797	431.1
788.978	492.54
789.159	463.86
789.34	467.96
789.522	431.1
789.703	433.15
789.884	490.49
790.065	463.86
790.246	467.96
790.427	447.48
790.607	492.54
790.788	490.49
790.969	459.77
791.15	502.78
791.331	340.99
791.512	353.27
791.693	392.19
791.874	404.47
792.054	547.83
792.235	427
792.416	359.42
792.597	424.95
792.778	437.24
792.958	359.42
793.139	357.37
793.32	427
793.5	394.23
793.681	445.43
793.862	361.47
794.042	377.85
794.223	336.89
794.404	410.62
794.584	336.89
794.765	357.37
794.945	424.95
795.126	441.34
795.306	361.47
795.487	363.51
795.667	334.84
795.848	349.18
796.028	320.51
796.209	306.17
796.389	433.15
796.57	304.12
796.75	318.46
796.93	369.66
797.111	355.32
797.291	330.75
797.471	424.95
797.652	338.94
797.832	328.7
798.012	314.36
798.192	279.55
798.373	277.5
798.553	318.46
798.733	377.85
798.913	340.99
799.093	322.56
799.274	338.94
799.454	254.97
799.634	304.12
799.814	244.73
799.994	306.17
800.174	281.6
800.354	343.03
800.534	306.17
800.714	388.09
800.894	218.11
801.074	287.74
801.254	238.59
801.434	267.26
801.614	257.02
801.794	197.63
801.974	637.94
802.154	347.13
802.334	267.26
802.514	250.88
802.693	265.21
802.873	277.5
803.053	285.69
803.233	312.32
803.413	234.49
803.592	306.17
803.772	240.64
803.952	181.25
804.131	162.81
804.311	269.31
804.491	285.69
804.67	168.96
804.85	285.69
805.03	304.12
805.209	252.92
805.389	238.59
805.568	226.3
805.748	242.68
805.928	275.45
806.107	261.12
806.287	193.53
806.466	254.97
806.646	220.16
806.825	152.57
807.004	269.31
807.184	259.07
807.363	173.05
807.543	314.36
807.722	193.53
807.901	314.36
808.081	267.26
808.26	171.01
808.439	257.02
808.619	160.77
808.798	211.96
808.977	238.59
809.156	271.36
809.336	199.68
809.515	236.54
809.694	179.2
809.873	250.88
810.052	318.46
810.231	295.93
810.411	310.27
810.59	228.35
810.769	191.49
810.948	181.25
811.127	228.35
811.306	211.96
811.485	99.33
811.664	238.59
811.843	115.71
812.022	164.86
812.201	166.91
812.38	199.68
812.559	160.77
812.737	199.68
812.916	179.2
813.095	177.15
813.274	140.29
813.453	121.85
813.632	148.48
813.811	152.57
813.989	197.63
814.168	216.06
814.347	121.85
814.526	220.16
814.704	177.15
814.883	199.68
815.062	173.05
815.24	220.16
815.419	177.15
815.598	199.68
815.776	138.24
815.955	201.72
816.133	119.81
816.312	171.01
816.49	123.9
816.669	195.58
816.847	152.57
817.026	189.44
817.204	101.37
817.383	148.48
817.561	154.62
817.74	193.53
817.918	119.81
818.097	254.97
818.275	113.66
818.453	201.72
818.632	224.25
818.81	119.81
818.988	179.2
819.167	125.95
819.345	111.61
819.523	220.16
819.701	160.77
819.879	138.24
820.058	183.29
820.236	173.05
820.414	148.48
820.592	269.31
820.77	93.18
820.948	117.76
821.127	117.76
821.305	130.05
821.483	119.81
821.661	150.53
821.839	175.1
822.017	105.47
822.195	136.19
822.373	162.81
822.551	166.91
822.729	115.71
822.907	136.19
823.085	152.57
823.262	168.96
823.44	179.2
823.618	164.86
823.796	99.33
823.974	103.42
824.152	76.8
824.329	54.27
824.507	201.72
824.685	54.27
824.863	134.14
825.04	80.89
825.218	117.76
825.396	142.33
825.574	185.34
825.751	146.43
825.929	166.91
826.107	76.8
826.284	136.19
826.462	107.52
826.639	74.75
826.817	109.57
826.994	78.85
827.172	66.56
827.349	89.09
827.527	52.22
827.704	56.32
827.882	76.8
828.059	164.86
828.237	105.47
828.414	115.71
828.591	58.37
828.769	82.94
828.946	33.79
829.124	130.05
829.301	27.65
829.478	121.85
829.655	97.28
829.833	39.94
830.01	66.56
830.187	76.8
830.364	97.28
830.542	115.71
830.719	119.81
830.896	119.81
831.073	144.38
831.25	113.66
831.427	78.85
831.604	70.65
831.782	44.03
831.959	103.42
832.136	99.33
832.313	142.33
832.49	89.09
832.667	136.19
832.844	107.52
833.021	82.94
833.198	70.65
833.374	128
833.551	119.81
833.728	109.57
833.905	82.94
834.082	7.17
834.259	64.51
834.436	72.7
834.612	29.7
834.789	74.75
834.966	160.77
835.143	37.89
835.319	89.09
835.496	60.42
835.673	113.66
835.85	117.76
836.026	152.57
836.203	173.05
836.38	39.94
836.556	66.56
836.733	70.65
836.909	62.46
837.086	97.28
837.262	19.46
837.439	-13.31
837.616	82.94
837.792	25.6
837.968	58.37
838.145	68.61
838.321	66.56
838.498	58.37
838.674	78.85
838.851	97.28
839.027	46.08
839.203	132.09
839.38	134.14
839.556	33.79
839.732	140.29
839.909	13.31
840.085	41.98
840.261	62.46
840.437	44.03
840.614	64.51
840.79	35.84
840.966	41.98
841.142	144.38
841.318	21.5
841.494	78.85
841.671	78.85
841.847	84.99
842.023	54.27
842.199	70.65
842.375	54.27
842.551	31.74
842.727	76.8
842.903	89.09
843.079	93.18
843.255	21.5
843.431	41.98
843.607	107.52
843.783	46.08
843.959	31.74
844.134	70.65
844.31	50.18
844.486	52.22
844.662	-33.79
844.838	23.55
845.013	80.89
845.189	9.22
845.365	56.32
845.541	50.18
845.716	54.27
845.892	9.22
846.068	15.36
846.244	5.12
846.419	64.51
846.595	50.18
846.77	52.22
846.946	56.32
847.122	48.13
847.297	17.41
847.473	101.37
847.648	23.55
847.824	68.61
847.999	25.6
848.175	78.85
848.35	103.42
848.526	72.7
848.701	54.27
848.876	78.85
849.052	111.61
849.227	39.94
849.403	-76.8
849.578	93.18
849.753	5.12
849.929	74.75
850.104	13.31
850.279	-13.31
850.454	54.27
850.63	58.37
850.805	35.84
850.98	93.18
851.155	74.75
851.33	9.22
851.505	70.65
851.681	58.37
851.856	-1.02
852.031	41.98
852.206	60.42
852.381	29.7
852.556	23.55
852.731	136.19
852.906	9.22
853.081	27.65
853.256	91.13
853.431	78.85
853.606	60.42
853.781	-13.31
853.956	-23.55
854.131	78.85
854.305	7.17
854.48	13.31
854.655	41.98
854.83	95.23
855.005	44.03
855.18	25.6
855.354	-93.18
855.529	84.99
855.704	13.31
855.879	-21.5
856.053	46.08
856.228	74.75
856.403	-3.07
856.577	44.03
856.752	11.26
856.926	121.85
857.101	7.17
857.276	27.65
857.45	-17.41
857.625	70.65
857.799	-19.46
857.974	-5.12
858.148	87.04
858.323	64.51
858.497	25.6
858.672	-27.65
858.846	78.85
859.02	82.94
859.195	7.17
859.369	68.61
859.543	5.12
859.718	-7.17
859.892	1.02
860.066	89.09
860.241	5.12
860.415	-39.94
860.589	11.26
860.763	103.42
860.938	31.74
861.112	29.7
861.286	-17.41
861.46	66.56
861.634	23.55
861.808	89.09
861.982	27.65
862.157	-48.13
862.331	52.22
862.505	29.7
862.679	31.74
862.853	68.61
863.027	7.17
863.201	78.85
863.375	35.84
863.549	41.98
863.722	3.07
863.896	62.46
864.07	21.5
864.244	52.22
864.418	50.18
864.592	27.65
864.766	70.65
864.939	-5.12
865.113	1.02
865.287	60.42
865.461	25.6
865.634	62.46
865.808	15.36
865.982	11.26
866.156	-13.31
866.329	-35.84
866.503	25.6
866.676	50.18
866.85	-33.79
867.024	-5.12
867.197	56.32
867.371	3.07
867.544	-58.37
867.718	21.5
867.891	1.02
868.065	11.26
868.238	21.5
868.412	35.84
868.585	23.55
868.759	19.46
868.932	9.22
869.105	41.98
869.279	-1.02
869.452	-60.42
869.625	9.22
869.799	19.46
869.972	5.12
870.145	93.18
870.319	-9.22
870.492	-5.12
870.665	27.65
870.838	15.36
871.011	56.32
871.185	78.85
871.358	89.09
871.531	41.98
871.704	-15.36
871.877	-13.31
872.05	27.65
872.223	62.46
872.396	33.79
872.569	25.6
872.742	-37.89
872.915	84.99
873.088	9.22
873.261	27.65
873.434	5.12
873.607	-23.55
873.78	19.46
873.953	93.18
874.126	-23.55
874.299	39.94
874.471	46.08
874.644	7.17
874.817	37.89
874.99	19.46
875.163	5.12
875.335	25.6
875.508	50.18
875.681	64.51
875.853	-17.41
876.026	37.89
876.199	-9.22
876.371	23.55
876.544	25.6
876.717	56.32
876.889	5.12
877.062	132.09
877.234	11.26
877.407	37.89
877.579	15.36
877.752	33.79
877.924	76.8
878.097	-23.55
878.269	31.74
878.442	93.18
878.614	-7.17
878.786	29.7
878.959	17.41
879.131	25.6
879.303	-25.6
879.476	37.89
879.648	64.51
879.82	-7.17
879.993	-15.36
880.165	11.26
880.337	1.02
880.509	15.36
880.681	-37.89
880.854	23.55
881.026	-31.74
881.198	82.94
881.37	17.41
881.542	37.89
881.714	70.65
881.886	11.26
882.058	-44.03
882.23	33.79
882.402	74.75
882.574	-27.65
882.746	-50.18
882.918	1.02
883.09	60.42
883.262	111.61
883.434	64.51
883.606	7.17
883.778	58.37
883.95	35.84
884.122	19.46
884.293	87.04
884.465	5.12
884.637	-31.74
884.809	29.7
884.98	39.94
885.152	-7.17
885.324	64.51
885.496	-17.41
885.667	15.36
885.839	9.22
886.011	29.7
886.182	-23.55
886.354	13.31
886.525	52.22
886.697	-29.7
886.869	17.41
887.04	58.37
887.212	66.56
887.383	70.65
887.555	-13.31
887.726	-9.22
887.897	76.8
888.069	23.55
888.24	-1.02
888.412	54.27
888.583	29.7
888.754	-11.26
888.926	-31.74
889.097	41.98
889.268	50.18
889.44	39.94
889.611	-72.7
889.782	-3.07
889.953	-35.84
890.125	37.89
890.296	-62.46
890.467	21.5
890.638	64.51
890.809	78.85
890.98	-13.31
891.151	-39.94
891.323	-13.31
891.494	-3.07
891.665	23.55
891.836	33.79
892.007	-29.7
892.178	-15.36
892.349	-60.42
892.52	44.03
892.691	-27.65
892.862	-15.36
893.032	5.12
893.203	-7.17
893.374	-7.17
893.545	31.74
893.716	-39.94
893.887	17.41
894.057	-31.74
894.228	33.79
894.399	31.74
894.57	-1.02
894.74	-3.07
894.911	37.89
895.082	-54.27
895.253	1.02
895.423	50.18
895.594	56.32
895.764	91.13
895.935	5.12
896.106	-23.55
896.276	-1.02
896.447	31.74
896.617	-9.22
896.788	52.22
896.958	97.28
897.129	7.17
897.299	-64.51
897.47	41.98
897.64	46.08
897.81	17.41
897.981	39.94
898.151	50.18
898.322	19.46
898.492	-17.41
898.662	-35.84
898.832	-9.22
899.003	5.12
899.173	46.08
899.343	31.74
899.513	27.65
