Data from USB4F104151__13__11-44-30-054.txt Node

Date: Fri Mar 14 11:44:30 EDT 2025
User: louis
Spectrometer: USB4F10415
Trigger mode: 4
Integration Time (sec): 2.000000E-2
Scans to average: 1
Electric dark correction enabled: true
Nonlinearity correction enabled: false
Boxcar width: 0
XAxis mode: Wavelengths
Number of Pixels in Spectrum: 3648
>>>>>Begin Spectral Data<<<<<
178.204	-31.23
178.424	-31.23
178.644	-31.23
178.864	-107.01
179.084	-61.95
179.304	11.78
179.524	-10.75
179.744	-16.9
179.964	44.54
180.184	-6.66
180.404	1.54
180.624	-18.94
180.844	-31.23
181.064	-10.75
181.283	13.82
181.503	-6.66
181.723	30.21
181.943	-61.95
182.163	42.5
182.383	42.5
182.602	-10.75
182.822	50.69
183.042	108.03
183.262	-29.18
183.482	75.26
183.701	9.73
183.921	19.97
184.141	38.4
184.361	38.4
184.58	60.93
184.8	44.54
185.02	19.97
185.239	112.13
185.459	13.82
185.679	34.3
185.898	22.02
186.118	71.17
186.338	58.88
186.557	50.69
186.777	-6.66
186.997	-6.66
187.216	1.54
187.436	112.13
187.655	26.11
187.875	71.17
188.095	1.54
188.314	-18.94
188.534	114.17
188.753	3.58
188.973	22.02
189.192	38.4
189.412	-18.94
189.631	-39.42
189.851	163.33
190.07	42.5
190.29	-6.66
190.509	73.21
190.729	-35.33
190.948	79.36
191.168	163.33
191.387	73.21
191.607	-0.51
191.826	54.78
192.045	24.06
192.265	24.06
192.484	36.35
192.704	122.37
192.923	38.4
193.142	126.46
193.362	50.69
193.581	-10.75
193.8	132.61
194.02	73.21
194.239	140.8
194.458	89.6
194.678	1.54
194.897	54.78
195.116	38.4
195.335	-8.7
195.555	67.07
195.774	24.06
195.993	58.88
196.212	52.74
196.432	42.5
196.651	-0.51
196.87	42.5
197.089	79.36
197.308	50.69
197.528	17.92
197.747	36.35
197.966	54.78
198.185	81.41
198.404	52.74
198.623	73.21
198.842	99.84
199.062	5.63
199.281	91.65
199.5	83.45
199.719	77.31
199.938	140.8
200.157	142.85
200.376	11.78
200.595	15.87
200.814	54.78
201.033	5.63
201.252	44.54
201.471	103.93
201.69	58.88
201.909	17.92
202.128	7.68
202.347	58.88
202.566	36.35
202.785	34.3
203.004	93.69
203.223	-6.66
203.442	30.21
203.661	-18.94
203.879	93.69
204.098	24.06
204.317	48.64
204.536	93.69
204.755	34.3
204.974	28.16
205.193	81.41
205.411	153.09
205.63	32.26
205.849	58.88
206.068	36.35
206.287	101.89
206.505	56.83
206.724	69.12
206.943	60.93
207.162	9.73
207.381	44.54
207.599	15.87
207.818	40.45
208.037	17.92
208.255	79.36
208.474	42.5
208.693	65.02
208.911	95.74
209.13	42.5
209.349	165.37
209.567	56.83
209.786	89.6
210.005	103.93
210.223	73.21
210.442	13.82
210.661	110.08
210.879	56.83
211.098	38.4
211.316	11.78
211.535	110.08
211.753	9.73
211.972	71.17
212.191	15.87
212.409	-29.18
212.628	-14.85
212.846	28.16
213.065	93.69
213.283	22.02
213.502	50.69
213.72	89.6
213.938	38.4
214.157	79.36
214.375	132.61
214.594	-43.52
214.812	58.88
215.031	-6.66
215.249	48.64
215.467	40.45
215.686	19.97
215.904	114.17
216.122	15.87
216.341	83.45
216.559	136.7
216.778	44.54
216.996	32.26
217.214	79.36
217.432	73.21
217.651	69.12
217.869	5.63
218.087	69.12
218.306	60.93
218.524	99.84
218.742	40.45
218.96	50.69
219.179	56.83
219.397	95.74
219.615	42.5
219.833	60.93
220.051	11.78
220.27	140.8
220.488	58.88
220.706	71.17
220.924	142.85
221.142	67.07
221.36	13.82
221.578	24.06
221.796	103.93
222.015	75.26
222.233	15.87
222.451	58.88
222.669	-35.33
222.887	75.26
223.105	58.88
223.323	95.74
223.541	75.26
223.759	62.98
223.977	52.74
224.195	75.26
224.413	56.83
224.631	40.45
224.849	24.06
225.067	50.69
225.285	32.26
225.503	77.31
225.721	40.45
225.939	116.22
226.157	38.4
226.375	101.89
226.592	46.59
226.81	3.58
227.028	-8.7
227.246	108.03
227.464	28.16
227.682	83.45
227.9	62.98
228.117	99.84
228.335	118.27
228.553	116.22
228.771	124.41
228.989	71.17
229.206	42.5
229.424	69.12
229.642	38.4
229.86	62.98
230.077	54.78
230.295	-8.7
230.513	32.26
230.731	71.17
230.948	1.54
231.166	144.89
231.384	-8.7
231.601	32.26
231.819	46.59
232.037	-10.75
232.254	67.07
232.472	130.56
232.689	17.92
232.907	71.17
233.125	67.07
233.342	11.78
233.56	142.85
233.777	95.74
233.995	56.83
234.213	24.06
234.43	15.87
234.648	42.5
234.865	58.88
235.083	1.54
235.3	69.12
235.518	32.26
235.735	91.65
235.953	50.69
236.17	65.02
236.388	-16.9
236.605	67.07
236.822	38.4
237.04	28.16
237.257	95.74
237.475	62.98
237.692	40.45
237.909	-27.14
238.127	62.98
238.344	44.54
238.562	73.21
238.779	62.98
238.996	42.5
239.214	5.63
239.431	85.5
239.648	69.12
239.865	48.64
240.083	46.59
240.3	99.84
240.517	-8.7
240.735	9.73
240.952	56.83
241.169	69.12
241.386	30.21
241.603	36.35
241.821	28.16
242.038	136.7
242.255	81.41
242.472	46.59
242.689	118.27
242.907	85.5
243.124	48.64
243.341	67.07
243.558	32.26
243.775	-0.51
243.992	40.45
244.209	15.87
244.426	75.26
244.643	83.45
244.86	42.5
245.078	56.83
245.295	73.21
245.512	99.84
245.729	95.74
245.946	69.12
246.163	19.97
246.38	19.97
246.597	36.35
246.814	36.35
247.031	73.21
247.248	-2.56
247.464	91.65
247.681	120.32
247.898	40.45
248.115	24.06
248.332	77.31
248.549	30.21
248.766	69.12
248.983	132.61
249.2	91.65
249.417	-0.51
249.633	151.04
249.85	60.93
250.067	42.5
250.284	67.07
250.501	58.88
250.717	73.21
250.934	75.26
251.151	75.26
251.368	17.92
251.585	97.79
251.801	99.84
252.018	60.93
252.235	54.78
252.451	75.26
252.668	54.78
252.885	99.84
253.102	97.79
253.318	73.21
253.535	120.32
253.752	15.87
253.968	3.58
254.185	44.54
254.401	28.16
254.618	128.51
254.835	69.12
255.051	112.13
255.268	-43.52
255.484	87.55
255.701	5.63
255.917	93.69
256.134	81.41
256.351	73.21
256.567	24.06
256.784	97.79
257	91.65
257.217	54.78
257.433	65.02
257.65	85.5
257.866	52.74
258.082	56.83
258.299	26.11
258.515	52.74
258.732	58.88
258.948	5.63
259.165	65.02
259.381	114.17
259.597	-20.99
259.814	50.69
260.03	75.26
260.246	40.45
260.463	48.64
260.679	69.12
260.895	83.45
261.112	181.76
261.328	-25.09
261.544	54.78
261.761	52.74
261.977	42.5
262.193	71.17
262.409	34.3
262.626	101.89
262.842	58.88
263.058	36.35
263.274	62.98
263.49	15.87
263.707	83.45
263.923	58.88
264.139	52.74
264.355	30.21
264.571	71.17
264.787	114.17
265.004	-16.9
265.22	126.46
265.436	22.02
265.652	-47.62
265.868	85.5
266.084	52.74
266.3	73.21
266.516	28.16
266.732	81.41
266.948	69.12
267.164	34.3
267.38	65.02
267.596	40.45
267.812	62.98
268.028	42.5
268.244	34.3
268.46	-16.9
268.676	34.3
268.892	22.02
269.108	54.78
269.324	34.3
269.54	30.21
269.756	50.69
269.972	-0.51
270.188	52.74
270.403	60.93
270.619	122.37
270.835	58.88
271.051	97.79
271.267	50.69
271.483	52.74
271.698	89.6
271.914	56.83
272.13	48.64
272.346	77.31
272.562	58.88
272.777	116.22
272.993	34.3
273.209	62.98
273.425	17.92
273.64	24.06
273.856	171.52
274.072	48.64
274.287	-2.56
274.503	79.36
274.719	3.58
274.934	48.64
275.15	91.65
275.366	95.74
275.581	56.83
275.797	28.16
276.012	65.02
276.228	62.98
276.444	52.74
276.659	79.36
276.875	9.73
277.09	89.6
277.306	97.79
277.521	79.36
277.737	73.21
277.952	40.45
278.168	120.32
278.383	62.98
278.599	-16.9
278.814	105.98
279.03	62.98
279.245	116.22
279.461	50.69
279.676	89.6
279.892	83.45
280.107	73.21
280.322	79.36
280.538	77.31
280.753	93.69
280.969	65.02
281.184	44.54
281.399	105.98
281.615	22.02
281.83	42.5
282.045	26.11
282.26	62.98
282.476	40.45
282.691	67.07
282.906	17.92
283.122	34.3
283.337	-16.9
283.552	24.06
283.767	9.73
283.983	3.58
284.198	136.7
284.413	95.74
284.628	38.4
284.843	56.83
285.058	87.55
285.274	58.88
285.489	58.88
285.704	105.98
285.919	112.13
286.134	46.59
286.349	52.74
286.564	-51.71
286.779	101.89
286.995	30.21
287.21	11.78
287.425	56.83
287.64	134.65
287.855	79.36
288.07	132.61
288.285	159.23
288.5	56.83
288.715	99.84
288.93	120.32
289.145	91.65
289.36	-66.05
289.575	112.13
289.79	75.26
290.004	99.84
290.219	136.7
290.434	56.83
290.649	1.54
290.864	132.61
291.079	42.5
291.294	91.65
291.509	77.31
291.724	101.89
291.938	-2.56
292.153	60.93
292.368	73.21
292.583	56.83
292.798	85.5
293.012	112.13
293.227	114.17
293.442	50.69
293.657	9.73
293.871	128.51
294.086	95.74
294.301	85.5
294.516	69.12
294.73	116.22
294.945	34.3
295.16	30.21
295.374	77.31
295.589	56.83
295.804	26.11
296.018	38.4
296.233	93.69
296.447	62.98
296.662	-4.61
296.877	118.27
297.091	67.07
297.306	134.65
297.52	103.93
297.735	114.17
297.949	44.54
298.164	108.03
298.378	58.88
298.593	81.41
298.807	52.74
299.022	87.55
299.236	40.45
299.451	38.4
299.665	75.26
299.88	103.93
300.094	87.55
300.309	73.21
300.523	22.02
300.737	62.98
300.952	73.21
301.166	32.26
301.381	71.17
301.595	40.45
301.809	22.02
302.024	71.17
302.238	58.88
302.452	89.6
302.667	42.5
302.881	110.08
303.095	-6.66
303.309	79.36
303.524	52.74
303.738	99.84
303.952	179.71
304.166	13.82
304.381	56.83
304.595	138.75
304.809	114.17
305.023	81.41
305.237	56.83
305.452	54.78
305.666	30.21
305.88	38.4
306.094	54.78
306.308	118.27
306.522	7.68
306.736	7.68
306.95	97.79
307.164	-29.18
307.379	81.41
307.593	155.13
307.807	-2.56
308.021	126.46
308.235	46.59
308.449	122.37
308.663	1.54
308.877	128.51
309.091	105.98
309.305	79.36
309.519	5.63
309.733	60.93
309.947	-33.28
310.161	69.12
310.374	79.36
310.588	132.61
310.802	9.73
311.016	144.89
311.23	75.26
311.444	56.83
311.658	112.13
311.872	163.33
312.085	46.59
312.299	50.69
312.513	56.83
312.727	85.5
312.941	99.84
313.154	93.69
313.368	48.64
313.582	75.26
313.796	95.74
314.009	44.54
314.223	75.26
314.437	52.74
314.651	62.98
314.864	-20.99
315.078	79.36
315.292	65.02
315.505	95.74
315.719	81.41
315.933	67.07
316.146	58.88
316.36	-0.51
316.573	103.93
316.787	105.98
317.001	11.78
317.214	81.41
317.428	67.07
317.641	52.74
317.855	40.45
318.068	17.92
318.282	73.21
318.495	124.41
318.709	69.12
318.922	54.78
319.136	69.12
319.349	93.69
319.563	77.31
319.776	124.41
319.99	-4.61
320.203	144.89
320.417	77.31
320.63	50.69
320.843	71.17
321.057	32.26
321.27	87.55
321.483	44.54
321.697	140.8
321.91	93.69
322.124	97.79
322.337	97.79
322.55	122.37
322.763	54.78
322.977	103.93
323.19	15.87
323.403	73.21
323.617	83.45
323.83	105.98
324.043	71.17
324.256	79.36
324.469	1.54
324.683	103.93
324.896	81.41
325.109	87.55
325.322	75.26
325.535	108.03
325.748	99.84
325.962	87.55
326.175	54.78
326.388	75.26
326.601	5.63
326.814	50.69
327.027	140.8
327.24	114.17
327.453	44.54
327.666	130.56
327.879	3.58
328.092	69.12
328.305	26.11
328.518	69.12
328.731	60.93
328.944	95.74
329.157	44.54
329.37	30.21
329.583	153.09
329.796	36.35
330.009	91.65
330.222	114.17
330.435	118.27
330.648	87.55
330.861	120.32
331.073	112.13
331.286	126.46
331.499	89.6
331.712	71.17
331.925	122.37
332.138	83.45
332.35	75.26
332.563	95.74
332.776	163.33
332.989	85.5
333.202	77.31
333.414	60.93
333.627	46.59
333.84	146.94
334.053	83.45
334.265	40.45
334.478	56.83
334.691	114.17
334.903	97.79
335.116	99.84
335.329	105.98
335.541	81.41
335.754	116.22
335.966	-10.75
336.179	175.61
336.392	36.35
336.604	69.12
336.817	81.41
337.029	130.56
337.242	13.82
337.454	93.69
337.667	24.06
337.88	136.7
338.092	65.02
338.305	130.56
338.517	40.45
338.729	126.46
338.942	112.13
339.154	116.22
339.367	30.21
339.579	87.55
339.792	108.03
340.004	120.32
340.217	3.58
340.429	-8.7
340.641	42.5
340.854	126.46
341.066	101.89
341.278	99.84
341.491	93.69
341.703	103.93
341.915	62.98
342.128	146.94
342.34	79.36
342.552	77.31
342.764	99.84
342.977	17.92
343.189	79.36
343.401	81.41
343.613	126.46
343.826	71.17
344.038	120.32
344.25	157.18
344.462	95.74
344.674	73.21
344.886	73.21
345.099	30.21
345.311	83.45
345.523	77.31
345.735	13.82
345.947	77.31
346.159	130.56
346.371	38.4
346.583	177.66
346.795	146.94
347.007	85.5
347.219	62.98
347.431	42.5
347.643	130.56
347.855	95.74
348.067	132.61
348.279	140.8
348.491	79.36
348.703	58.88
348.915	116.22
349.127	7.68
349.339	112.13
349.551	206.33
349.763	110.08
349.975	99.84
350.187	97.79
350.399	99.84
350.61	89.6
350.822	69.12
351.034	126.46
351.246	108.03
351.458	73.21
351.669	65.02
351.881	128.51
352.093	69.12
352.305	108.03
352.517	153.09
352.728	146.94
352.94	54.78
353.152	128.51
353.363	91.65
353.575	151.04
353.787	161.28
353.999	108.03
354.21	105.98
354.422	32.26
354.633	130.56
354.845	79.36
355.057	77.31
355.268	62.98
355.48	148.99
355.692	56.83
355.903	91.65
356.115	48.64
356.326	118.27
356.538	169.47
356.749	89.6
356.961	48.64
357.172	38.4
357.384	17.92
357.595	136.7
357.807	85.5
358.018	38.4
358.23	128.51
358.441	159.23
358.653	52.74
358.864	159.23
359.075	36.35
359.287	110.08
359.498	132.61
359.709	93.69
359.921	58.88
360.132	101.89
360.344	85.5
360.555	54.78
360.766	69.12
360.977	112.13
361.189	108.03
361.4	52.74
361.611	89.6
361.823	134.65
362.034	169.47
362.245	62.98
362.456	114.17
362.667	120.32
362.879	28.16
363.09	58.88
363.301	163.33
363.512	83.45
363.723	73.21
363.935	114.17
364.146	101.89
364.357	69.12
364.568	89.6
364.779	54.78
364.99	103.93
365.201	81.41
365.412	110.08
365.623	89.6
365.834	42.5
366.045	116.22
366.256	120.32
366.467	171.52
366.678	67.07
366.889	116.22
367.1	93.69
367.311	30.21
367.522	136.7
367.733	99.84
367.944	97.79
368.155	71.17
368.366	93.69
368.577	91.65
368.788	79.36
368.999	99.84
369.209	87.55
369.42	83.45
369.631	173.57
369.842	173.57
370.053	36.35
370.264	122.37
370.474	46.59
370.685	54.78
370.896	110.08
371.107	105.98
371.317	114.17
371.528	75.26
371.739	103.93
371.95	148.99
372.16	134.65
372.371	50.69
372.582	67.07
372.792	93.69
373.003	136.7
373.214	103.93
373.424	132.61
373.635	75.26
373.846	120.32
374.056	130.56
374.267	101.89
374.477	65.02
374.688	118.27
374.898	77.31
375.109	105.98
375.319	79.36
375.53	122.37
375.74	132.61
375.951	151.04
376.161	99.84
376.372	128.51
376.582	38.4
376.793	91.65
377.003	52.74
377.214	183.81
377.424	75.26
377.635	108.03
377.845	118.27
378.055	128.51
378.266	50.69
378.476	30.21
378.686	89.6
378.897	85.5
379.107	22.02
379.317	124.41
379.528	105.98
379.738	81.41
379.948	151.04
380.158	138.75
380.369	105.98
380.579	126.46
380.789	85.5
380.999	187.9
381.21	83.45
381.42	108.03
381.63	157.18
381.84	73.21
382.05	167.42
382.261	179.71
382.471	65.02
382.681	122.37
382.891	181.76
383.101	79.36
383.311	110.08
383.521	62.98
383.731	171.52
383.941	181.76
384.151	128.51
384.361	175.61
384.571	122.37
384.781	71.17
384.991	116.22
385.201	185.85
385.411	148.99
385.621	136.7
385.831	140.8
386.041	130.56
386.251	157.18
386.461	208.38
386.671	212.48
386.881	122.37
387.091	132.61
387.301	130.56
387.511	95.74
387.72	194.05
387.93	87.55
388.14	157.18
388.35	118.27
388.56	77.31
388.769	71.17
388.979	151.04
389.189	192
389.399	151.04
389.609	95.74
389.818	58.88
390.028	140.8
390.238	126.46
390.447	87.55
390.657	105.98
390.867	40.45
391.076	126.46
391.286	116.22
391.496	128.51
391.705	126.46
391.915	224.76
392.125	167.42
392.334	132.61
392.544	220.67
392.753	177.66
392.963	177.66
393.172	185.85
393.382	134.65
393.591	194.05
393.801	177.66
394.01	151.04
394.22	87.55
394.429	206.33
394.639	79.36
394.848	148.99
395.058	124.41
395.267	183.81
395.477	216.57
395.686	169.47
395.895	192
396.105	228.86
396.314	189.95
396.524	194.05
396.733	228.86
396.942	218.62
397.152	249.34
397.361	247.29
397.57	200.19
397.78	249.34
397.989	196.09
398.198	292.35
398.407	110.08
398.617	214.52
398.826	245.24
399.035	177.66
399.244	296.44
399.453	210.43
399.663	243.2
399.872	235
400.081	194.05
400.29	224.76
400.499	226.81
400.708	226.81
400.917	255.48
401.127	208.38
401.336	290.3
401.545	282.11
401.754	292.35
401.963	282.11
402.172	273.92
402.381	255.48
402.59	243.2
402.799	249.34
403.008	247.29
403.217	239.1
403.426	294.4
403.635	349.69
403.844	278.01
404.053	290.3
404.262	232.96
404.471	314.88
404.68	261.63
404.888	333.31
405.097	294.4
405.306	245.24
405.515	368.12
405.724	314.88
405.933	425.47
406.142	384.51
406.35	409.08
406.559	417.27
406.768	441.85
406.977	439.8
407.185	466.42
407.394	411.13
407.603	441.85
407.812	429.56
408.02	540.15
408.229	501.24
408.438	560.63
408.646	511.48
408.855	538.1
409.064	583.16
409.272	566.78
409.481	587.26
409.69	632.31
409.898	660.98
410.107	683.51
410.315	663.03
410.524	744.95
410.733	790
410.941	775.67
411.15	755.19
411.358	900.59
411.567	902.64
411.775	900.59
411.984	935.41
412.192	957.94
412.401	1076.72
412.609	1068.53
412.818	1148.4
413.026	1121.77
413.234	1152.49
413.443	1140.21
413.651	1201.65
413.86	1277.42
414.068	1349.1
414.276	1349.1
414.485	1437.16
414.693	1422.83
414.901	1433.07
415.11	1611.24
415.318	1607.14
415.526	1680.87
415.734	1639.91
415.943	1742.31
416.151	1912.29
416.359	1848.8
416.567	1875.43
416.776	2029.03
416.984	1996.26
417.192	2170.33
417.4	2266.59
417.608	2156
417.817	2381.28
418.025	2541.02
418.233	2696.66
418.441	2584.02
418.649	2713.05
418.857	2926.04
419.065	2899.41
419.273	2903.51
419.481	3075.54
419.689	3253.71
419.897	3446.22
420.105	3450.32
420.313	3450.32
420.521	3683.78
420.729	3718.6
420.937	3933.64
421.145	4050.37
421.353	4113.86
421.561	4365.76
421.769	4482.49
421.977	4691.38
422.185	4437.44
422.393	5039.54
422.601	5127.6
422.809	5049.78
423.017	5191.09
423.224	5631.4
423.432	5621.16
423.64	5852.58
423.848	6184.35
424.056	5854.63
424.263	6444.45
424.471	6567.32
424.679	6694.3
424.887	7064.98
425.094	7040.4
425.302	7257.49
425.51	7402.9
425.718	7775.63
425.925	7898.5
426.133	8035.72
426.341	8699.26
426.548	9051.51
426.756	8750.46
426.964	8981.88
427.171	9586.03
427.379	9835.88
427.586	9930.09
427.794	10349.92
428.001	10757.47
428.209	11242.84
428.417	11205.97
428.624	11879.75
428.832	12010.82
429.039	11672.91
429.247	11863.37
429.454	12930.36
429.662	13765.93
429.869	12877.12
430.076	13868.33
430.284	13260.09
430.491	13917.48
430.699	14621.98
430.906	14712.1
431.114	15160.6
431.321	15584.53
431.528	16049.42
431.736	16966.91
431.943	17640.69
432.15	17194.23
432.358	17321.21
432.565	18119.92
432.772	18314.47
432.979	19266.78
433.187	19502.29
433.394	19412.18
433.601	20731.08
433.808	20958.4
434.016	20745.41
434.223	21679.29
434.43	22934.69
434.637	22604.97
434.844	24097.94
435.052	24300.69
435.259	24210.57
435.466	24597.64
435.673	24202.38
435.88	25967.73
436.087	27563.1
436.294	27372.64
436.501	26549.35
436.708	27266.14
436.915	28200.02
437.122	29271.11
437.329	29330.5
437.537	29912.12
437.743	30557.23
437.95	30475.31
438.157	31988.76
438.364	33098.76
438.571	33098.76
438.778	33147.91
438.985	36023.26
439.192	34552.82
439.399	35578.85
439.606	34982.89
439.813	37415.88
440.02	39494.57
440.227	38579.12
440.433	38185.91
440.64	39553.96
440.847	39381.93
441.054	39877.54
441.261	42730.36
441.467	42001.28
441.674	43019.12
441.881	44497.75
442.088	44553.05
442.294	43893.6
442.501	45261.65
442.708	46416.7
442.914	47794.98
443.121	49752.84
443.328	48519.96
443.534	51413.74
443.741	50080.52
443.948	49691.4
444.154	53365.46
444.361	53140.18
444.568	52853.47
444.774	52970.2
444.981	53947.08
445.187	55255.73
445.394	57227.93
445.6	56828.57
445.807	61448.79
446.013	59470.45
446.22	59878
446.426	61854.29
446.633	62732.87
446.839	64092.72
447.046	62138.96
447.252	64092.72
447.459	64092.72
447.665	64092.72
447.871	64092.72
448.078	64092.72
448.284	64092.72
448.491	64092.72
448.697	64092.72
448.903	64092.72
449.11	64092.72
449.316	64092.72
449.522	64092.72
449.728	64092.72
449.935	64092.72
450.141	64092.72
450.347	64092.72
450.553	64092.72
450.76	64092.72
450.966	64092.72
451.172	64092.72
451.378	64092.72
451.584	64092.72
451.791	64092.72
451.997	64092.72
452.203	64092.72
452.409	64092.72
452.615	64092.72
452.821	64092.72
453.027	64092.72
453.233	64092.72
453.44	64092.72
453.646	64092.72
453.852	64092.72
454.058	64092.72
454.264	64092.72
454.47	64092.72
454.676	64092.72
454.882	64092.72
455.088	64092.72
455.294	64092.72
455.5	64092.72
455.705	64092.72
455.911	64092.72
456.117	64092.72
456.323	64092.72
456.529	64092.72
456.735	64092.72
456.941	64092.72
457.147	64092.72
457.352	64092.72
457.558	64092.72
457.764	64092.72
457.97	64092.72
458.176	64092.72
458.381	62122.57
458.587	59626.1
458.793	59320.95
458.999	56531.62
459.204	60422.76
459.41	58469
459.616	55036.6
459.821	55059.13
460.027	55048.89
460.233	53897.93
460.438	51561.2
460.644	51796.71
460.85	49589
461.055	48763.67
461.261	48968.47
461.466	45437.77
461.672	44032.86
461.878	46750.52
462.083	43989.86
462.289	43228.01
462.494	42814.32
462.7	40846.22
462.905	40098.72
463.111	41210.76
463.316	41298.83
463.522	40272.79
463.727	40543.13
463.932	40367
464.138	40008.61
464.343	40371.1
464.549	39105.45
464.754	40027.04
464.959	39531.43
465.165	39183.27
465.37	38087.61
465.575	36789.2
465.781	38464.44
465.986	38364.09
466.191	37247.94
466.397	36424.66
466.602	34663.41
466.807	35890.14
467.012	36279.25
467.218	36277.21
467.423	35441.64
467.628	35716.06
467.833	37235.66
468.038	35564.51
468.244	35097.58
468.449	36260.82
468.654	34900.97
468.859	34724.85
469.064	34681.84
469.269	33319.94
469.474	33618.94
469.679	34245.62
469.885	32865.29
470.09	33620.99
470.295	33551.36
470.5	32336.91
470.705	33078.28
470.91	31818.78
471.115	31708.19
471.32	32312.34
471.525	32285.72
471.73	31269.92
471.935	31292.45
472.139	30301.23
472.344	30532.65
472.549	30102.58
472.754	30035
472.959	29211.71
473.164	28681.29
473.369	28793.93
473.574	29289.54
473.778	29002.82
473.983	28759.11
474.188	28832.84
474.393	27569.24
474.598	27782.23
474.802	27325.54
475.007	26831.97
475.212	27155.55
475.417	26160.24
475.621	26133.62
475.826	26225.78
476.031	25480.32
476.235	25347.2
476.44	25648.25
476.645	25068.67
476.849	25031.81
477.054	24859.78
477.259	24515.72
477.463	24140.94
477.668	23587.99
477.872	24149.14
478.077	23483.55
478.282	23082.14
478.486	22955.17
478.691	22932.64
478.895	22723.75
479.1	22791.33
479.304	22475.95
479.509	21935.28
479.713	22316.2
479.918	21804.21
480.122	21392.57
480.326	21693.62
480.531	22004.91
480.735	21476.54
480.94	21370.04
481.144	22006.96
481.348	21112
481.553	21036.22
481.757	20835.52
481.961	21224.64
482.166	21345.47
482.37	21122.24
482.574	20796.61
482.778	21109.95
482.983	21157.05
483.187	20905.15
483.391	21040.32
483.595	20845.76
483.8	20729.03
484.004	20565.19
484.208	21091.52
484.412	20733.12
484.616	20808.9
484.821	21058.75
485.025	20462.79
485.229	20827.33
485.433	20583.62
485.637	20690.12
485.841	20913.34
486.045	20518.09
486.249	20749.51
486.453	20667.59
486.657	20837.57
486.861	20774.08
487.065	20405.45
487.269	20798.66
487.473	20536.52
487.677	21083.33
487.881	20974.78
488.085	20735.17
488.289	20661.44
488.493	20630.73
488.697	21034.18
488.901	21036.22
489.105	20827.33
489.309	21183.68
489.512	21060.8
489.716	21210.3
489.92	21075.13
490.124	20800.71
490.328	21230.78
490.531	21132.48
490.735	21210.3
490.939	21347.51
491.143	21152.96
491.346	21130.43
491.55	21472.44
491.754	21687.48
491.958	21910.71
492.161	21695.67
492.365	21931.19
492.569	21695.67
492.772	21593.27
492.976	21683.38
493.18	22131.89
493.383	22174.89
493.587	22295.72
493.79	22289.58
493.994	22260.91
494.197	22531.24
494.401	22856.87
494.605	22770.85
494.808	23342.24
495.012	23395.48
495.215	23317.66
495.419	23932.05
495.622	23278.75
495.825	23891.09
496.029	23694.49
496.232	24093.84
496.436	24315.02
496.639	24654.98
496.843	24867.97
497.046	25173.12
497.249	25349.25
497.453	25619.58
497.656	25998.45
497.859	25695.35
498.063	26203.25
498.266	26958.95
498.469	26420.33
498.673	26741.86
498.876	27329.63
499.079	27620.44
499.282	27714.65
499.485	28218.45
499.689	28159.06
499.892	28587.08
500.095	28740.68
500.298	29502.53
500.501	29336.64
500.705	30080.05
500.908	30121.01
501.111	30471.22
501.314	30628.91
501.517	30927.91
501.72	31564.83
501.923	31247.4
502.126	31773.72
502.329	32582.67
502.532	32597.01
502.735	32781.32
502.938	33109
503.141	33670.14
503.344	34548.72
503.547	33905.66
503.75	34649.07
503.953	35306.47
504.156	35498.98
504.359	35689.44
504.562	35640.29
504.765	36445.14
504.968	37039.05
505.17	37229.51
505.373	37215.18
505.576	37999.55
505.779	38611.89
505.982	38529.97
506.185	39236.52
506.387	39543.72
506.59	39812
506.793	40432.54
506.996	40555.41
507.198	41233.29
507.401	40862.61
507.604	41368.46
507.807	42466.17
508.009	42318.71
508.212	43055.98
508.415	43352.94
508.617	44069.73
508.82	43848.55
509.022	43789.16
509.225	44643.16
509.428	45456.2
509.63	45423.43
509.833	45644.62
510.035	46611.26
510.238	46521.15
510.44	46674.74
510.643	47500.08
510.845	47807.27
511.048	47928.1
511.25	48616.22
511.453	49027.86
511.655	50481.92
511.858	49484.56
512.06	49879.81
512.262	50776.83
512.465	50191.11
512.667	51550.96
512.87	51811.05
513.072	51806.95
513.274	53144.28
513.477	53295.83
513.679	53533.39
513.881	54174.41
514.084	54852.28
514.286	54285
514.488	54633.15
514.69	56253.09
514.893	56095.4
515.095	56027.82
515.297	56681.12
515.499	56949.4
515.701	57569.94
515.904	58342.02
516.106	58380.93
516.308	58991.23
516.51	59183.74
516.712	59265.66
516.914	59708.02
517.116	60701.28
517.318	60770.91
517.52	61180.51
517.722	61180.51
517.925	61903.44
518.127	62360.14
518.329	62493.25
518.531	62229.07
518.733	63459.9
518.935	63935.02
519.136	63806
519.338	64092.72
519.54	64092.72
519.742	64092.72
519.944	64092.72
520.146	64092.72
520.348	64092.72
520.55	64092.72
520.752	64092.72
520.954	64092.72
521.155	64092.72
521.357	64092.72
521.559	64092.72
521.761	64092.72
521.963	64092.72
522.164	64092.72
522.366	64092.72
522.568	64092.72
522.77	64092.72
522.971	64092.72
523.173	64092.72
523.375	64092.72
523.576	64092.72
523.778	64092.72
523.98	64092.72
524.181	64092.72
524.383	64092.72
524.584	64092.72
524.786	64092.72
524.988	64092.72
525.189	64092.72
525.391	64092.72
525.592	64092.72
525.794	64092.72
525.995	64092.72
526.197	64092.72
526.398	64092.72
526.6	64092.72
526.801	64092.72
527.003	64092.72
527.204	64092.72
527.406	64092.72
527.607	64092.72
527.808	64092.72
528.01	64092.72
528.211	64092.72
528.412	64092.72
528.614	64092.72
528.815	64092.72
529.016	64092.72
529.218	64092.72
529.419	64092.72
529.62	64092.72
529.822	64092.72
530.023	64092.72
530.224	64092.72
530.425	64092.72
530.626	64092.72
530.828	64092.72
531.029	64092.72
531.23	64092.72
531.431	64092.72
531.632	64092.72
531.833	64092.72
532.035	64092.72
532.236	64092.72
532.437	64092.72
532.638	64092.72
532.839	64092.72
533.04	64092.72
533.241	64092.72
533.442	64092.72
533.643	64092.72
533.844	64092.72
534.045	64092.72
534.246	64092.72
534.447	64092.72
534.648	64092.72
534.849	64092.72
535.05	64092.72
535.251	64092.72
535.451	64092.72
535.652	64092.72
535.853	64092.72
536.054	64092.72
536.255	64092.72
536.456	64092.72
536.657	64092.72
536.857	64092.72
537.058	64092.72
537.259	64092.72
537.46	64092.72
537.66	64092.72
537.861	64092.72
538.062	64092.72
538.263	64092.72
538.463	64092.72
538.664	64092.72
538.865	64092.72
539.065	64092.72
539.266	64092.72
539.466	64092.72
539.667	64092.72
539.868	64092.72
540.068	64092.72
540.269	64092.72
540.469	64092.72
540.67	64092.72
540.87	64092.72
541.071	64092.72
541.271	64092.72
541.472	64092.72
541.672	64092.72
541.873	64092.72
542.073	64092.72
542.274	64092.72
542.474	64092.72
542.675	64092.72
542.875	64092.72
543.075	64092.72
543.276	64092.72
543.476	64092.72
543.676	64092.72
543.877	64092.72
544.077	64092.72
544.277	64092.72
544.478	64092.72
544.678	64092.72
544.878	64092.72
545.078	64092.72
545.279	64092.72
545.479	64092.72
545.679	64092.72
545.879	64092.72
546.079	64092.72
546.28	64092.72
546.48	64092.72
546.68	64092.72
546.88	64092.72
547.08	64092.72
547.28	64092.72
547.48	64092.72
547.68	64092.72
547.88	64092.72
548.081	64092.72
548.281	64092.72
548.481	64092.72
548.681	64092.72
548.881	64092.72
549.081	64092.72
549.28	64092.72
549.48	64092.72
549.68	64092.72
549.88	64092.72
550.08	64092.72
550.28	64092.72
550.48	64092.72
550.68	64092.72
550.88	64092.72
551.08	64092.72
551.279	64092.72
551.479	64092.72
551.679	64092.72
551.879	64092.72
552.079	64092.72
552.278	64092.72
552.478	64092.72
552.678	64092.72
552.878	64092.72
553.077	64092.72
553.277	64092.72
553.477	64092.72
553.676	64092.72
553.876	64092.72
554.076	64092.72
554.275	64092.72
554.475	64092.72
554.674	64092.72
554.874	64092.72
555.074	64092.72
555.273	64092.72
555.473	64092.72
555.672	64092.72
555.872	64092.72
556.071	64092.72
556.271	64092.72
556.47	64092.72
556.67	64092.72
556.869	64092.72
557.068	64092.72
557.268	64092.72
557.467	64092.72
557.667	64092.72
557.866	64092.72
558.065	64092.72
558.265	64092.72
558.464	64092.72
558.663	64092.72
558.863	64092.72
559.062	64092.72
559.261	64092.72
559.461	64092.72
559.66	64092.72
559.859	64092.72
560.058	64092.72
560.258	64092.72
560.457	64092.72
560.656	64092.72
560.855	64092.72
561.054	64092.72
561.253	64092.72
561.453	64092.72
561.652	64092.72
561.851	64092.72
562.05	64092.72
562.249	64092.72
562.448	64092.72
562.647	64092.72
562.846	64092.72
563.045	64092.72
563.244	64092.72
563.443	64092.72
563.642	64092.72
563.841	64092.72
564.04	64092.72
564.239	64092.72
564.438	64092.72
564.637	64092.72
564.836	64092.72
565.035	64092.72
565.234	64092.72
565.432	64092.72
565.631	64092.72
565.83	64092.72
566.029	64092.72
566.228	64092.72
566.427	64092.72
566.625	64092.72
566.824	64092.72
567.023	64092.72
567.222	64092.72
567.42	64092.72
567.619	64092.72
567.818	64092.72
568.016	64092.72
568.215	64092.72
568.414	64092.72
568.612	64092.72
568.811	64092.72
569.01	64092.72
569.208	64092.72
569.407	64092.72
569.605	64092.72
569.804	64092.72
570.002	64092.72
570.201	64092.72
570.4	64092.72
570.598	64092.72
570.797	64092.72
570.995	64092.72
571.193	64092.72
571.392	64092.72
571.59	64092.72
571.789	64092.72
571.987	64092.72
572.186	64092.72
572.384	64092.72
572.582	64092.72
572.781	64092.72
572.979	64092.72
573.177	64092.72
573.376	64092.72
573.574	64092.72
573.772	64092.72
573.971	64092.72
574.169	64092.72
574.367	64092.72
574.565	64092.72
574.763	64092.72
574.962	64092.72
575.16	64092.72
575.358	64092.72
575.556	64092.72
575.754	64092.72
575.952	64092.72
576.151	64092.72
576.349	64092.72
576.547	64092.72
576.745	64092.72
576.943	64092.72
577.141	64092.72
577.339	64092.72
577.537	64092.72
577.735	64092.72
577.933	64092.72
578.131	64092.72
578.329	64092.72
578.527	64092.72
578.725	64092.72
578.923	64092.72
579.121	64092.72
579.319	64092.72
579.516	64092.72
579.714	64092.72
579.912	64092.72
580.11	64092.72
580.308	64092.72
580.506	64092.72
580.704	63791.67
580.901	64092.72
581.099	64092.72
581.297	63783.47
581.495	63687.22
581.692	63605.3
581.89	63130.17
582.088	63576.63
582.285	63162.94
582.483	63343.16
582.681	63195.71
582.878	63158.84
583.076	62822.98
583.274	62949.95
583.471	61966.93
583.669	62474.82
583.866	62155.34
584.064	62339.66
584.262	61809.23
584.459	62044.75
584.657	61549.14
584.854	62401.1
585.052	60856.93
585.249	61590.1
585.447	61370.97
585.644	60988
585.841	60930.65
586.039	61022.81
586.236	60713.57
586.434	60371.56
586.631	60418.66
586.828	60490.34
587.026	60152.43
587.223	59904.62
587.42	59918.96
587.618	60115.56
587.815	59333.24
588.012	59386.49
588.21	59271.8
588.407	59331.19
588.604	58978.94
588.801	59114.11
588.999	58737.28
589.196	59230.84
589.393	58999.42
589.59	58376.84
589.787	58339.97
589.984	58555.01
590.182	57625.23
590.379	58225.29
590.576	57590.42
590.773	57703.06
590.97	57348.76
591.167	57100.95
591.364	56584.86
591.561	57455.25
591.758	56488.61
591.955	56738.46
592.152	57070.23
592.349	56193.7
592.546	56208.04
592.743	56408.74
592.94	55601.84
593.137	56351.4
593.334	56205.99
593.531	55229.11
593.727	55759.53
593.924	55636.66
594.121	55302.84
594.318	54854.33
594.515	54309.57
594.712	55290.55
594.908	54315.72
595.105	54883
595.302	54166.21
595.499	54440.64
595.696	53981.9
595.892	53914.31
596.089	53961.42
596.286	53877.45
596.482	53426.9
596.679	53088.98
596.876	53926.6
597.072	52763.35
597.269	53101.27
597.466	52501.21
597.662	52722.4
597.859	52744.92
598.055	52394.72
598.252	52202.21
598.448	52261.6
598.645	52384.48
598.841	51702.51
599.038	51575.53
599.234	51825.39
599.431	51219.19
599.627	50973.43
599.824	51471.09
600.02	50959.09
600.217	51063.54
600.413	50858.74
600.609	50211.59
600.806	50148.1
601.002	50330.37
601.198	49654.54
601.395	49943.3
601.591	49707.79
601.787	49621.77
601.984	49214.23
602.18	50064.13
602.376	49675.02
602.572	48966.42
602.769	49277.71
602.965	48952.09
603.161	48843.54
603.357	48841.49
603.553	48390.94
603.75	48511.77
603.946	48319.26
604.142	48456.48
604.338	47590.19
604.534	48237.34
604.73	47643.43
604.926	47491.88
605.122	47700.78
605.318	47500.08
605.514	46836.53
605.71	46658.36
605.906	46906.16
606.102	46887.73
606.298	46639.93
606.494	46648.12
606.69	46697.27
606.886	46478.14
607.082	46123.84
607.278	46545.72
607.474	45615.94
607.67	46594.87
607.866	45734.73
608.062	46392.12
608.257	45839.17
608.453	46035.78
608.649	45835.08
608.845	44772.18
609.041	45378.38
609.236	45204.3
609.432	45669.19
609.628	45173.58
609.824	44890.96
610.019	44757.85
610.215	44745.56
610.411	45124.43
610.606	45214.54
610.802	44788.56
610.998	44497.75
611.193	44747.61
611.389	44088.16
611.584	44270.43
611.78	43928.42
611.976	44591.96
612.171	44067.68
612.367	44233.57
612.562	44129.12
612.758	43676.52
612.953	43504.49
613.149	44043.1
613.344	43426.67
613.539	44348.25
613.735	43565.93
613.93	43969.38
614.126	43060.08
614.321	43860.83
614.517	43393.9
614.712	43393.9
614.907	42849.14
615.103	43033.46
615.298	42666.87
615.493	43066.22
615.688	42683.25
615.884	43062.13
616.079	42517.37
616.274	42752.88
616.47	42390.39
616.665	42281.85
616.86	42357.63
617.055	42580.85
617.25	42120.06
617.445	42406.78
617.641	41636.74
617.836	42441.59
618.031	41673.6
618.226	42083.2
618.421	41646.98
618.616	41952.13
618.811	40801.17
619.006	41839.49
619.201	40694.68
619.396	41073.55
619.591	40764.31
619.786	40983.44
619.981	40272.79
620.176	40586.13
620.371	39723.94
620.566	39992.22
620.761	39893.92
620.956	40242.07
621.151	39517.09
621.346	39500.71
621.541	38867.89
621.735	39150.51
621.93	38501.3
622.125	39027.63
622.32	37950.4
622.515	38265.78
622.709	37987.26
622.904	37825.47
623.099	37669.83
623.294	37794.75
623.488	37430.21
623.683	37729.22
623.878	36770.77
624.072	36633.55
624.267	36840.4
624.462	36850.64
624.656	35781.6
624.851	36420.56
625.046	35728.35
625.24	36013.02
625.435	35109.86
625.629	35261.41
625.824	34976.75
626.018	35003.37
626.213	34544.62
626.407	34753.52
626.602	34104.31
626.796	34313.2
626.991	34040.82
627.185	33838.08
627.38	33917.95
627.574	33797.12
627.768	33227.78
627.963	33326.08
628.157	32562.19
628.352	33014.79
628.546	32396.31
628.74	32324.63
628.935	32042.01
629.129	32345.11
629.323	31558.69
629.517	31620.13
629.712	31704.09
629.906	31677.47
630.1	31099.94
630.294	31206.44
630.489	30706.73
630.683	30940.2
630.877	30612.52
631.071	30260.27
631.265	30546.99
631.459	30219.31
631.653	30188.6
631.848	29979.7
632.042	29617.21
632.236	29789.24
632.43	29322.3
632.624	29789.24
632.818	29191.23
633.012	28775.5
633.206	28804.17
633.4	28748.87
633.594	28265.55
633.788	28527.69
633.982	28060.76
634.176	28388.43
634.369	28095.57
634.563	27878.49
634.757	27630.68
634.951	27657.31
635.145	27382.88
635.339	27366.49
635.533	27182.18
635.726	27143.27
635.92	26661.99
636.114	26737.77
636.308	26770.54
636.501	26623.08
636.695	26532.97
636.889	26225.78
637.083	26072.18
637.276	25906.29
637.47	25836.66
637.664	25611.39
637.857	25457.79
638.051	25523.32
638.244	24996.99
638.438	25367.68
638.632	25097.35
638.825	24884.36
639.019	24628.36
639.212	24595.59
639.406	24685.7
639.599	24501.39
639.793	24743.05
639.986	23809.17
640.18	24405.13
640.373	23870.61
640.567	23671.96
640.76	23680.15
640.954	23456.92
641.147	23544.98
641.34	23032.99
641.534	23381.15
641.727	23399.58
641.92	23106.72
642.114	22637.73
642.307	22703.27
642.5	22406.31
642.694	22297.77
642.887	22467.75
643.08	22142.13
643.273	21945.52
643.467	21972.14
643.66	21744.82
643.853	21869.75
644.046	21658.81
644.239	21693.62
644.432	21728.44
644.626	21427.39
644.819	21116.09
645.012	21275.84
645.205	21134.53
645.398	21120.19
645.591	20614.34
645.784	20614.34
645.977	20683.97
646.17	20665.54
646.363	20452.55
646.556	20145.36
646.749	20260.04
646.942	20118.73
647.135	19952.85
647.328	19864.78
647.521	19866.83
647.714	19410.14
647.907	19447
648.099	19549.4
648.292	19561.69
648.485	19324.12
648.678	19123.42
648.871	19215.58
649.064	18986.21
649.256	18902.24
649.449	18783.46
649.642	18658.53
649.835	18484.45
650.027	18726.11
650.22	18332.9
650.413	18382.06
650.605	18214.12
650.798	18160.87
650.991	17933.55
651.183	18062.57
651.376	17831.15
651.568	17782
651.761	17749.23
651.954	17433.85
652.146	17741.04
652.339	17431.8
652.531	17249.53
652.724	17202.43
652.916	16907.52
653.109	17151.23
653.301	16839.94
653.494	16829.7
653.686	16735.49
653.879	16762.11
654.071	16260.36
654.263	16391.43
654.456	16700.67
654.648	16379.14
654.84	16123.15
655.033	16039.18
655.225	16043.28
655.417	15797.52
655.61	15836.43
655.802	16069.9
655.994	15508.76
656.186	15795.47
656.379	15658.26
656.571	15496.47
656.763	15353.11
656.955	15387.93
657.148	15326.49
657.34	15090.97
657.532	15041.82
657.724	14867.74
657.916	14847.26
658.108	14777.63
658.3	14624.03
658.492	14748.96
658.684	14513.44
658.876	14517.54
659.068	14673.18
659.26	14316.84
659.452	14421.28
659.644	14292.26
659.836	14064.94
660.028	14290.21
660.22	13819.18
660.412	14032.17
660.604	13649.2
660.796	13866.28
660.988	13888.81
661.18	13600.05
661.372	13475.12
661.563	13604.14
661.755	13329.72
661.947	13393.2
662.139	13264.18
662.331	13157.69
662.522	13016.38
662.714	13043
662.906	12883.26
663.097	12801.34
663.289	12653.89
663.481	12451.14
663.673	12924.22
663.864	12700.99
664.056	12424.51
664.247	12461.38
664.439	12070.22
664.631	12252.49
664.822	12283.2
665.014	12389.7
665.205	12363.08
665.397	12125.51
665.588	12068.17
665.78	11971.91
665.971	11846.99
666.163	12088.65
666.354	11924.81
666.546	11740.49
666.737	11517.26
666.929	11822.41
667.12	11615.57
667.311	11455.83
667.503	11378
667.694	11343.19
667.885	11300.18
668.077	11357.52
668.268	11212.12
668.459	11154.77
668.651	11119.96
668.842	11031.9
669.033	11005.27
669.224	10853.72
669.416	10855.77
669.607	10773.85
669.798	10648.93
669.989	10661.21
670.18	10632.54
670.371	10816.86
670.563	10454.37
670.754	10364.26
670.945	10468.7
671.136	10581.34
671.327	10405.22
671.518	10116.45
671.709	10126.69
671.9	10454.37
672.091	9999.72
672.282	10136.93
672.473	9827.69
672.664	10177.89
672.855	10098.02
673.046	9833.83
673.237	9741.68
673.428	10108.26
673.619	9692.52
673.809	9762.16
674	9592.17
674.191	9485.68
674.382	9534.83
674.573	9571.69
674.764	9489.78
674.954	9672.04
675.145	9241.97
675.336	9268.59
675.527	9274.74
675.717	9432.43
675.908	9115
676.099	9067.89
676.289	9170.29
676.48	9225.59
676.671	8844.67
676.861	9059.7
677.052	8908.15
677.243	8777.08
677.433	8990.07
677.624	8897.91
677.814	8727.93
678.005	8885.62
678.195	8713.6
678.386	8760.7
678.576	8410.5
678.767	8463.74
678.957	8508.8
679.148	8631.68
679.338	8461.69
679.529	8414.59
679.719	8521.09
679.909	8406.4
680.1	8334.72
680.29	8304
680.481	8238.47
680.671	8129.92
680.861	8220.03
681.052	8160.64
681.242	8052.1
681.432	8297.86
681.622	8144.26
681.813	8115.59
682.003	7947.65
682.193	7906.7
682.383	7935.37
682.573	7992.71
682.764	7808.39
682.954	7898.5
683.144	7636.36
683.334	7695.75
683.524	7554.44
683.714	7576.97
683.904	7591.31
684.094	7617.93
684.284	7529.87
684.474	7603.6
684.664	7658.89
684.854	7603.6
685.044	7419.28
685.234	7396.75
685.424	7452.05
685.614	7495.05
685.804	7218.58
685.994	7466.38
686.184	7206.29
686.374	7296.4
686.564	7003.54
686.753	7150.99
686.943	7116.18
687.133	7011.73
687.323	6938.01
687.513	7028.12
687.702	7034.26
687.892	7169.43
688.082	6833.56
688.272	6886.81
688.461	6626.71
688.651	6776.22
688.841	6712.73
689.03	6612.38
689.22	6579.61
689.41	6774.17
689.599	6591.9
689.789	6598.04
689.979	6354.34
690.168	6585.76
690.358	6413.73
690.547	6460.83
690.737	6348.19
690.926	6432.16
691.116	6342.05
691.305	6440.35
691.495	6393.25
691.684	6167.97
691.874	6303.14
692.063	6026.66
692.252	6200.74
692.442	6028.71
692.631	6069.67
692.82	6129.06
693.01	5801.38
693.199	5797.29
693.388	5979.56
693.578	5774.76
693.767	6006.18
693.956	5711.27
694.146	5549.48
694.335	5713.32
694.524	5655.98
694.713	5760.42
694.902	5516.72
695.092	5752.23
695.281	5684.65
695.47	5553.58
695.659	5479.85
695.848	5371.31
696.037	5471.66
696.226	5498.28
696.415	5510.57
696.604	5416.37
696.793	5541.29
696.982	5397.93
697.171	5322.16
697.36	5277.1
697.549	5354.93
697.738	5248.43
697.927	5301.68
698.116	5393.84
698.305	5055.92
698.494	5199.28
698.683	5244.34
698.872	5205.42
699.061	5045.68
699.25	5039.54
699.438	4976.05
699.627	5133.75
699.816	5103.03
700.005	5086.64
700.193	4931
700.382	4974
700.571	4877.75
700.76	4928.95
700.948	4949.43
701.137	4849.08
701.326	4695.48
701.514	4933.04
701.703	4853.17
701.892	4531.64
702.08	4675
702.269	4847.03
702.457	4769.21
702.646	4631.99
702.834	4666.81
703.023	4605.37
703.212	4810.17
703.4	4644.28
703.589	4658.62
703.777	4586.94
703.965	4623.8
704.154	4498.88
704.342	4482.49
704.531	4500.92
704.719	4421.05
704.907	4597.18
705.096	4457.92
705.284	4330.94
705.472	4564.41
705.661	4398.52
705.849	4464.06
706.037	4382.14
706.226	4429.24
706.414	4312.51
706.602	4240.83
706.79	4310.46
706.979	4363.71
707.167	4388.29
707.355	4373.95
707.543	4228.54
707.731	4359.61
707.919	4257.22
708.107	4191.68
708.296	4138.43
708.484	4203.97
708.672	4208.06
708.86	4191.68
709.048	4224.45
709.236	4160.96
709.424	4079.04
709.612	4201.92
709.8	4056.51
709.988	4132.29
710.176	4136.38
710.364	4130.24
710.551	3980.74
710.739	4050.37
710.927	4076.99
711.115	3921.35
711.303	4066.75
711.491	3954.12
711.679	4046.27
711.866	3982.79
712.054	3958.21
712.242	3878.34
712.43	3921.35
712.617	3874.24
712.805	3755.46
712.993	3890.63
713.181	3712.46
713.368	3902.92
713.556	3841.48
713.744	3757.51
713.931	3909.06
714.119	3800.52
714.306	3755.46
714.494	4031.94
714.682	3737.03
714.869	3724.74
715.057	3769.8
715.244	3880.39
715.432	3775.94
715.619	3757.51
715.807	3929.54
715.994	3835.33
716.182	3814.85
716.369	3853.77
716.556	3769.8
716.744	3689.93
716.931	3638.73
717.119	3667.4
717.306	3675.59
717.493	3712.46
717.681	3605.96
717.868	3524.04
718.055	3667.4
718.242	3618.25
718.43	3655.11
718.617	3614.15
718.804	3691.98
718.991	3595.72
719.179	3663.3
719.366	3640.78
719.553	3694.02
719.74	3622.34
719.927	3372.49
720.114	3567.05
720.301	3595.72
720.488	3517.9
720.676	3474.89
720.863	3460.56
721.05	3528.14
721.237	3315.15
721.424	3538.38
721.611	3425.74
721.798	3507.66
721.985	3384.78
722.172	3442.12
722.358	3450.32
722.545	3313.1
722.732	3442.12
722.919	3497.42
723.106	3358.16
723.293	3417.55
723.48	3386.83
723.667	3319.25
723.853	3335.63
724.04	3388.88
724.227	3292.62
724.414	3390.92
724.6	3360.2
724.787	3440.08
724.974	3425.74
725.161	3184.08
725.347	3302.86
725.534	3243.47
725.72	3304.91
725.907	3354.06
726.094	3298.77
726.28	3288.53
726.467	3274.19
726.653	3341.77
726.84	3325.39
727.027	3302.86
727.213	3192.27
727.4	3253.71
727.586	3196.37
727.773	3284.43
727.959	3399.12
728.145	3360.2
728.332	3380.68
728.518	3200.46
728.705	3321.29
728.891	3245.52
729.077	3274.19
729.264	3302.86
729.45	3241.42
729.636	3259.85
729.823	3229.13
730.009	3167.7
730.195	3186.13
730.382	3208.66
730.568	3218.89
730.754	3227.09
730.94	3251.66
731.126	3249.61
731.313	3268.05
731.499	3237.33
731.685	3157.46
731.871	3155.41
732.057	3141.07
732.243	3243.47
732.429	3233.23
732.615	3155.41
732.801	3206.61
732.987	3182.03
733.173	3263.95
733.359	3245.52
733.545	3280.33
733.731	3044.82
733.917	3194.32
734.103	3179.98
734.289	3063.25
734.475	3149.26
734.661	3294.67
734.847	3206.61
735.033	3241.42
735.219	3063.25
735.404	3237.33
735.59	3089.87
735.776	3067.35
735.962	3192.27
736.148	3059.15
736.333	3153.36
736.519	3044.82
736.705	3167.7
736.89	3159.5
737.076	3040.72
737.262	2954.71
737.447	3026.39
737.633	3030.48
737.819	3028.43
738.004	3001.81
738.19	3044.82
738.375	2946.52
738.561	2995.67
738.747	2969.04
738.932	2926.04
739.118	3126.74
739.303	2975.19
739.489	3036.63
739.674	2907.6
739.859	2989.52
740.045	3063.25
740.23	3020.24
740.416	2952.66
740.601	2930.13
740.786	2901.46
740.972	2891.22
741.157	2901.46
741.342	2741.72
741.528	2850.26
741.713	2993.62
741.898	2880.98
742.084	2866.64
742.269	2905.56
742.454	2899.41
742.639	2778.58
742.824	2913.75
743.01	2854.36
743.195	2811.35
743.38	2803.16
743.565	2821.59
743.75	2801.11
743.935	2749.91
744.12	2860.5
744.305	2864.6
744.49	2799.06
744.675	2717.14
744.86	2555.35
745.045	2717.14
745.23	2674.14
745.415	2747.86
745.6	2715.09
745.785	2768.34
745.97	2581.98
746.155	2688.47
746.34	2641.37
746.525	2635.22
746.71	2641.37
746.895	2389.47
747.079	2506.2
747.264	2596.31
747.449	2649.56
747.634	2577.88
747.819	2659.8
748.003	2567.64
748.188	2446.81
748.373	2532.83
748.557	2498.01
748.742	2469.34
748.927	2436.57
749.111	2422.24
749.296	2295.26
749.481	2538.97
749.665	2364.89
749.85	2430.43
750.034	2387.42
750.219	2524.63
750.404	2291.17
750.588	2350.56
750.773	2301.4
750.957	2274.78
751.141	2334.17
751.326	2301.4
751.51	2252.25
751.695	2254.3
751.879	2168.29
752.064	2276.83
752.248	2225.63
752.432	2258.4
752.617	2108.9
752.801	2278.88
752.985	2127.33
753.17	2061.79
753.354	2102.75
753.538	2186.72
753.722	2061.79
753.907	2067.94
754.091	1971.68
754.275	1947.11
754.459	2037.22
754.643	1953.25
754.828	1959.39
755.012	2014.69
755.196	1983.97
755.38	1783.27
755.564	1900
755.748	1951.2
755.932	2000.35
756.116	2018.79
756.3	1957.35
756.484	1920.48
756.668	1850.85
756.852	1844.71
757.036	1928.67
757.22	1760.74
757.404	1881.57
757.588	1836.52
757.772	1924.58
757.956	1838.56
758.14	1756.65
758.323	1697.25
758.507	1801.7
758.691	1697.25
758.875	1848.8
759.059	1721.83
759.242	1779.17
759.426	1662.44
759.61	1754.6
759.794	1658.34
759.977	1719.78
760.161	1654.25
760.345	1678.82
760.528	1660.39
760.712	1582.57
760.895	1609.19
761.079	1586.66
761.263	1697.25
761.446	1607.14
761.63	1586.66
761.813	1594.86
761.997	1695.21
762.18	1611.24
762.364	1615.34
762.547	1574.38
762.731	1586.66
762.914	1596.9
763.098	1596.9
763.281	1576.42
763.464	1406.44
763.648	1459.69
763.831	1412.59
764.015	1490.41
764.198	1566.18
764.381	1504.75
764.564	1461.74
764.748	1437.16
764.931	1492.46
765.114	1451.5
765.297	1369.58
765.481	1404.39
765.664	1486.31
765.847	1553.9
766.03	1420.78
766.213	1422.83
766.397	1527.27
766.58	1459.69
766.763	1461.74
766.946	1412.59
767.129	1365.48
767.312	1414.63
767.495	1385.96
767.678	1353.2
767.861	1347.05
768.044	1308.14
768.227	1410.54
768.41	1353.2
768.593	1381.87
768.776	1332.72
768.959	1424.87
769.142	1261.04
769.324	1258.99
769.507	1316.33
769.69	1332.72
769.873	1320.43
770.056	1351.15
770.239	1240.56
770.421	1250.8
770.604	1326.57
770.787	1306.09
770.97	1195.5
771.152	1285.61
771.335	1195.5
771.518	1271.28
771.7	1252.84
771.883	1263.08
772.066	1363.44
772.248	1170.93
772.431	1240.56
772.613	1181.17
772.796	1193.45
772.978	1218.03
773.161	1193.45
773.343	1185.26
773.526	1242.61
773.708	1170.93
773.891	1152.49
774.073	1064.43
774.256	1152.49
774.438	1203.69
774.621	1119.73
774.803	1144.3
774.985	1123.82
775.168	1121.77
775.35	1039.86
775.532	1052.14
775.715	1103.34
775.897	1054.19
776.079	1066.48
776.261	1132.01
776.444	1019.38
776.626	990.7
776.808	1002.99
776.99	1002.99
777.173	1062.38
777.355	998.9
777.537	1072.62
777.719	939.51
777.901	994.8
778.083	1015.28
778.265	986.61
778.447	1029.62
778.629	1011.18
778.811	984.56
778.993	957.94
779.175	972.27
779.357	849.4
779.539	906.74
779.721	1005.04
779.903	964.08
780.085	902.64
780.267	994.8
780.449	939.51
780.631	888.31
780.812	925.17
780.994	855.54
781.176	820.72
781.358	902.64
781.54	906.74
781.721	779.76
781.903	785.91
782.085	884.21
782.267	884.21
782.448	792.05
782.63	732.66
782.812	857.59
782.993	808.44
783.175	826.87
783.357	841.2
783.538	706.04
783.72	716.28
783.901	728.56
784.083	794.1
784.264	744.95
784.446	726.52
784.627	695.8
784.809	792.05
784.99	703.99
785.172	611.83
785.353	810.48
785.535	640.5
785.716	677.37
785.897	769.52
786.079	611.83
786.26	656.89
786.441	706.04
786.623	687.61
786.804	648.69
786.985	620.02
787.167	644.6
787.348	497.14
787.529	572.92
787.71	642.55
787.891	665.08
788.073	624.12
788.254	648.69
788.435	675.32
788.616	710.13
788.797	591.35
788.978	673.27
789.159	607.73
789.34	554.49
789.522	546.3
789.703	617.97
789.884	601.59
790.065	597.49
790.246	591.35
790.427	587.26
790.607	599.54
790.788	597.49
790.969	597.49
791.15	546.3
791.331	491
791.512	568.82
791.693	509.43
791.874	472.57
792.054	556.54
792.235	581.11
792.416	521.72
792.597	536.06
792.778	501.24
792.958	517.62
793.139	486.9
793.32	529.91
793.5	542.2
793.681	568.82
793.862	429.56
794.042	364.03
794.223	544.25
794.404	523.77
794.584	488.95
794.765	476.66
794.945	462.33
795.126	566.78
795.306	376.31
795.487	460.28
795.667	425.47
795.848	394.75
796.028	484.86
796.209	497.14
796.389	445.95
796.57	390.65
796.75	427.51
796.93	509.43
797.111	466.42
797.291	343.55
797.471	359.93
797.652	398.84
797.832	423.42
798.012	562.68
798.192	384.51
798.373	374.27
798.553	386.55
798.733	396.79
798.913	433.66
799.093	480.76
799.274	351.74
799.454	411.13
799.634	382.46
799.814	376.31
799.994	417.27
800.174	359.93
800.354	380.41
800.534	325.12
800.714	411.13
800.894	368.12
801.074	325.12
801.254	384.51
801.434	329.21
801.614	339.45
801.794	288.25
801.974	712.18
802.154	349.69
802.334	421.37
802.514	304.64
802.693	347.64
802.873	339.45
803.053	413.18
803.233	431.61
803.413	308.73
803.592	333.31
803.772	321.02
803.952	331.26
804.131	413.18
804.311	380.41
804.491	361.98
804.67	314.88
804.85	292.35
805.03	341.5
805.209	404.99
805.389	316.92
805.568	370.17
805.748	331.26
805.928	341.5
806.107	353.79
806.287	345.59
806.466	345.59
806.646	353.79
806.825	345.59
807.004	345.59
807.184	366.07
807.363	318.97
807.543	300.54
807.722	220.67
807.901	323.07
808.081	263.68
808.26	267.77
808.439	273.92
808.619	341.5
808.798	263.68
808.977	282.11
809.156	253.44
809.336	282.11
809.515	323.07
809.694	198.14
809.873	267.77
810.052	278.01
810.231	290.3
810.411	179.71
810.59	292.35
810.769	331.26
810.948	284.16
811.127	202.24
811.306	216.57
811.485	237.05
811.664	290.3
811.843	239.1
812.022	216.57
812.201	245.24
812.38	302.59
812.559	228.86
812.737	294.4
812.916	214.52
813.095	200.19
813.274	218.62
813.453	224.76
813.632	292.35
813.811	325.12
813.989	235
814.168	224.76
814.347	259.58
814.526	220.67
814.704	300.54
814.883	218.62
815.062	161.28
815.24	263.68
815.419	202.24
815.598	271.87
815.776	179.71
815.955	255.48
816.133	226.81
816.312	200.19
816.49	146.94
816.669	187.9
816.847	157.18
817.026	204.28
817.204	185.85
817.383	218.62
817.561	243.2
817.74	232.96
817.918	204.28
818.097	214.52
818.275	157.18
818.453	216.57
818.632	200.19
818.81	267.77
818.988	167.42
819.167	208.38
819.345	224.76
819.523	241.15
819.701	200.19
819.879	204.28
820.058	202.24
820.236	155.13
820.414	237.05
820.592	220.67
820.77	157.18
820.948	173.57
821.127	79.36
821.305	208.38
821.483	185.85
821.661	130.56
821.839	204.28
822.017	175.61
822.195	163.33
822.373	210.43
822.551	181.76
822.729	175.61
822.907	153.09
823.085	194.05
823.262	161.28
823.44	220.67
823.618	222.72
823.796	237.05
823.974	165.37
824.152	118.27
824.329	110.08
824.507	140.8
824.685	138.75
824.863	185.85
825.04	128.51
825.218	151.04
825.396	144.89
825.574	202.24
825.751	171.52
825.929	210.43
826.107	200.19
826.284	179.71
826.462	161.28
826.639	161.28
826.817	153.09
826.994	216.57
827.172	112.13
827.349	165.37
827.527	198.14
827.704	175.61
827.882	169.47
828.059	148.99
828.237	173.57
828.414	171.52
828.591	105.98
828.769	204.28
828.946	204.28
829.124	126.46
829.301	99.84
829.478	122.37
829.655	192
829.833	124.41
830.01	60.93
830.187	112.13
830.364	97.79
830.542	196.09
830.719	187.9
830.896	169.47
831.073	126.46
831.25	194.05
831.427	108.03
831.604	167.42
831.782	138.75
831.959	87.55
832.136	138.75
832.313	167.42
832.49	144.89
832.667	151.04
832.844	163.33
833.021	175.61
833.198	99.84
833.374	120.32
833.551	169.47
833.728	77.31
833.905	112.13
834.082	146.94
834.259	122.37
834.436	161.28
834.612	58.88
834.789	155.13
834.966	130.56
835.143	105.98
835.319	83.45
835.496	99.84
835.673	95.74
835.85	71.17
836.026	42.5
836.203	95.74
836.38	138.75
836.556	151.04
836.733	42.5
836.909	144.89
837.086	30.21
837.262	136.7
837.439	67.07
837.616	122.37
837.792	58.88
837.968	91.65
838.145	89.6
838.321	32.26
838.498	99.84
838.674	138.75
838.851	153.09
839.027	56.83
839.203	93.69
839.38	60.93
839.556	110.08
839.732	157.18
839.909	81.41
840.085	79.36
840.261	48.64
840.437	83.45
840.614	50.69
840.79	171.52
840.966	81.41
841.142	95.74
841.318	46.59
841.494	75.26
841.671	151.04
841.847	134.65
842.023	103.93
842.199	136.7
842.375	71.17
842.551	17.92
842.727	-12.8
842.903	163.33
843.079	87.55
843.255	56.83
843.431	105.98
843.607	128.51
843.783	56.83
843.959	95.74
844.134	112.13
844.31	67.07
844.486	77.31
844.662	77.31
844.838	122.37
845.013	77.31
845.189	85.5
845.365	95.74
845.541	36.35
845.716	171.52
845.892	108.03
846.068	77.31
846.244	32.26
846.419	38.4
846.595	128.51
846.77	-2.56
846.946	75.26
847.122	50.69
847.297	130.56
847.473	73.21
847.648	58.88
847.824	128.51
847.999	-47.62
848.175	65.02
848.35	153.09
848.526	52.74
848.701	83.45
848.876	38.4
849.052	71.17
849.227	103.93
849.403	120.32
849.578	97.79
849.753	77.31
849.929	62.98
850.104	91.65
850.279	65.02
850.454	87.55
850.63	144.89
850.805	26.11
850.98	75.26
851.155	87.55
851.33	60.93
851.505	40.45
851.681	81.41
851.856	15.87
852.031	87.55
852.206	62.98
852.381	73.21
852.556	110.08
852.731	83.45
852.906	40.45
853.081	56.83
853.256	93.69
853.431	-14.85
853.606	42.5
853.781	91.65
853.956	52.74
854.131	101.89
854.305	36.35
854.48	30.21
854.655	62.98
854.83	89.6
855.005	32.26
855.18	73.21
855.354	73.21
855.529	95.74
855.704	108.03
855.879	67.07
856.053	-12.8
856.228	118.27
856.403	-43.52
856.577	81.41
856.752	5.63
856.926	19.97
857.101	65.02
857.276	58.88
857.45	5.63
857.625	118.27
857.799	112.13
857.974	118.27
858.148	-51.71
858.323	15.87
858.497	50.69
858.672	36.35
858.846	7.68
859.02	62.98
859.195	44.54
859.369	48.64
859.543	30.21
859.718	75.26
859.892	7.68
860.066	54.78
860.241	50.69
860.415	103.93
860.589	67.07
860.763	-2.56
860.938	28.16
861.112	83.45
861.286	-49.66
861.46	77.31
861.634	65.02
861.808	44.54
861.982	83.45
862.157	28.16
862.331	7.68
862.505	60.93
862.679	11.78
862.853	112.13
863.027	58.88
863.201	120.32
863.375	42.5
863.549	89.6
863.722	71.17
863.896	1.54
864.07	103.93
864.244	69.12
864.418	65.02
864.592	38.4
864.766	38.4
864.939	46.59
865.113	46.59
865.287	-27.14
865.461	-39.42
865.634	17.92
865.808	-12.8
865.982	91.65
866.156	54.78
866.329	50.69
866.503	120.32
866.676	95.74
866.85	-2.56
867.024	13.82
867.197	-53.76
867.371	50.69
867.544	46.59
867.718	26.11
867.891	-2.56
868.065	-64
868.238	44.54
868.412	91.65
868.585	-0.51
868.759	58.88
868.932	-20.99
869.105	89.6
869.279	71.17
869.452	79.36
869.625	83.45
869.799	-12.8
869.972	101.89
870.145	50.69
870.319	5.63
870.492	17.92
870.665	13.82
870.838	56.83
871.011	-20.99
871.185	-23.04
871.358	30.21
871.531	28.16
871.704	-10.75
871.877	83.45
872.05	26.11
872.223	60.93
872.396	24.06
872.569	-0.51
872.742	34.3
872.915	89.6
873.088	42.5
873.261	48.64
873.434	-8.7
873.607	22.02
873.78	-4.61
873.953	54.78
874.126	40.45
874.299	79.36
874.471	1.54
874.644	105.98
874.817	1.54
874.99	75.26
875.163	71.17
875.335	38.4
875.508	9.73
875.681	36.35
875.853	-45.57
876.026	42.5
876.199	58.88
876.371	46.59
876.544	67.07
876.717	60.93
876.889	71.17
877.062	108.03
877.234	77.31
877.407	24.06
877.579	79.36
877.752	54.78
877.924	-2.56
878.097	71.17
878.269	30.21
878.442	46.59
878.614	89.6
878.786	-2.56
878.959	-8.7
879.131	9.73
879.303	-10.75
879.476	-68.09
879.648	50.69
879.82	19.97
879.993	-12.8
880.165	50.69
880.337	48.64
880.509	19.97
880.681	36.35
880.854	-20.99
881.026	42.5
881.198	83.45
881.37	65.02
881.542	38.4
881.714	105.98
881.886	-10.75
882.058	48.64
882.23	-6.66
882.402	56.83
882.574	28.16
882.746	50.69
882.918	67.07
883.09	60.93
883.262	28.16
883.434	42.5
883.606	-55.81
883.778	60.93
883.95	-20.99
884.122	34.3
884.293	97.79
884.465	46.59
884.637	-8.7
884.809	-0.51
884.98	58.88
885.152	50.69
885.324	-37.38
885.496	-16.9
885.667	91.65
885.839	17.92
886.011	77.31
886.182	77.31
886.354	60.93
886.525	-12.8
886.697	54.78
886.869	-33.28
887.04	69.12
887.212	62.98
887.383	126.46
887.555	26.11
887.726	-2.56
887.897	-66.05
888.069	-4.61
888.24	56.83
888.412	24.06
888.583	58.88
888.754	54.78
888.926	-31.23
889.097	105.98
889.268	-25.09
889.44	81.41
889.611	19.97
889.782	7.68
889.953	13.82
890.125	71.17
890.296	56.83
890.467	-8.7
890.638	69.12
890.809	65.02
890.98	-27.14
891.151	17.92
891.323	52.74
891.494	-12.8
891.665	-31.23
891.836	22.02
892.007	13.82
892.178	56.83
892.349	116.22
892.52	42.5
892.691	-0.51
892.862	40.45
893.032	17.92
893.203	48.64
893.374	52.74
893.545	7.68
893.716	-57.86
893.887	50.69
894.057	-20.99
894.228	50.69
894.399	19.97
894.57	30.21
894.74	-0.51
894.911	65.02
895.082	-2.56
895.253	30.21
895.423	32.26
895.594	30.21
895.764	-35.33
895.935	17.92
896.106	22.02
896.276	-10.75
896.447	-29.18
896.617	-10.75
896.788	22.02
896.958	60.93
897.129	75.26
897.299	3.58
897.47	-18.94
897.64	65.02
897.81	13.82
897.981	32.26
898.151	-0.51
898.322	-23.04
898.492	58.88
898.662	11.78
898.832	-0.51
899.003	-8.7
899.173	83.45
899.343	48.64
899.513	-31.23
