Data from USB4F104151__1__11-44-21-616.txt Node

Date: Fri Mar 14 11:44:21 EDT 2025
User: louis
Spectrometer: USB4F10415
Trigger mode: 4
Integration Time (sec): 2.000000E-2
Scans to average: 1
Electric dark correction enabled: true
Nonlinearity correction enabled: false
Boxcar width: 0
XAxis mode: Wavelengths
Number of Pixels in Spectrum: 3648
>>>>>Begin Spectral Data<<<<<
178.204	-53.42
178.424	-53.42
178.644	-53.42
178.864	-69.8
179.084	-51.37
179.304	46.93
179.524	-4.27
179.744	-30.89
179.964	75.6
180.184	-86.19
180.404	12.12
180.624	14.17
180.844	1.88
181.064	-98.47
181.283	42.84
181.503	40.79
181.723	-14.51
181.943	-18.6
182.163	22.36
182.383	-125.1
182.602	42.84
182.822	48.98
183.042	48.98
183.262	38.74
183.482	12.12
183.701	-26.79
183.921	40.79
184.141	48.98
184.361	14.17
184.58	26.45
184.8	24.4
185.02	5.97
185.239	36.69
185.459	-0.17
185.679	85.84
185.898	-41.13
186.118	67.41
186.338	-12.46
186.557	48.98
186.777	-16.55
186.997	26.45
187.216	-6.31
187.436	147.28
187.655	3.93
187.875	126.8
188.095	3.93
188.314	-10.41
188.534	77.65
188.753	-8.36
188.973	-26.79
189.192	32.6
189.412	3.93
189.631	-14.51
189.851	16.21
190.07	14.17
190.29	-41.13
190.509	-28.84
190.729	-16.55
190.948	16.21
191.168	110.42
191.387	98.13
191.607	30.55
191.826	48.98
192.045	38.74
192.265	55.12
192.484	-4.27
192.704	98.13
192.923	10.07
193.142	108.37
193.362	-30.89
193.581	67.41
193.8	106.32
194.02	63.32
194.239	55.12
194.458	46.93
194.678	20.31
194.897	-28.84
195.116	38.74
195.335	46.93
195.555	-55.47
195.774	8.02
195.993	5.97
196.212	36.69
196.432	38.74
196.651	-8.36
196.87	-0.17
197.089	122.71
197.308	-10.41
197.528	69.46
197.747	18.26
197.966	79.7
198.185	46.93
198.404	81.75
198.623	30.55
198.842	102.23
199.062	30.55
199.281	63.32
199.5	-39.08
199.719	-22.7
199.938	59.22
200.157	73.56
200.376	55.12
200.595	67.41
200.814	65.36
201.033	48.98
201.252	5.97
201.471	30.55
201.69	112.47
201.909	1.88
202.128	83.8
202.347	-0.17
202.566	132.95
202.785	44.88
203.004	26.45
203.223	26.45
203.442	42.84
203.661	51.03
203.879	40.79
204.098	26.45
204.317	42.84
204.536	26.45
204.755	22.36
204.974	-0.17
205.193	-41.13
205.411	36.69
205.63	104.28
205.849	-34.99
206.068	-43.18
206.287	42.84
206.505	-6.31
206.724	-41.13
206.943	-20.65
207.162	-0.17
207.381	-28.84
207.599	51.03
207.818	94.04
208.037	16.21
208.255	36.69
208.474	65.36
208.693	14.17
208.911	65.36
209.13	38.74
209.349	24.4
209.567	32.6
209.786	73.56
210.005	61.27
210.223	112.47
210.442	12.12
210.661	10.07
210.879	24.4
211.098	53.08
211.316	67.41
211.535	81.75
211.753	91.99
211.972	98.13
212.191	-0.17
212.409	18.26
212.628	22.36
212.846	53.08
213.065	44.88
213.283	59.22
213.502	59.22
213.72	-14.51
213.938	30.55
214.157	-8.36
214.375	73.56
214.594	20.31
214.812	36.69
215.031	73.56
215.249	40.79
215.467	32.6
215.686	-26.79
215.904	61.27
216.122	18.26
216.341	42.84
216.559	57.17
216.778	5.97
216.996	71.51
217.214	14.17
217.432	12.12
217.651	65.36
217.869	24.4
218.087	26.45
218.306	14.17
218.524	75.6
218.742	79.7
218.96	10.07
219.179	57.17
219.397	-65.71
219.615	91.99
219.833	85.84
220.051	-0.17
220.27	46.93
220.488	65.36
220.706	-37.03
220.924	126.8
221.142	-10.41
221.36	20.31
221.578	-4.27
221.796	112.47
222.015	71.51
222.233	102.23
222.451	32.6
222.669	-32.94
222.887	91.99
223.105	-22.7
223.323	48.98
223.541	-65.71
223.759	65.36
223.977	67.41
224.195	20.31
224.413	85.84
224.631	65.36
224.849	24.4
225.067	69.46
225.285	26.45
225.503	28.5
225.721	46.93
225.939	-22.7
226.157	12.12
226.375	116.56
226.592	28.5
226.81	46.93
227.028	85.84
227.246	71.51
227.464	14.17
227.682	57.17
227.9	98.13
228.117	-0.17
228.335	34.64
228.553	40.79
228.771	28.5
228.989	94.04
229.206	71.51
229.424	53.08
229.642	73.56
229.86	55.12
230.077	-4.27
230.295	3.93
230.513	57.17
230.731	57.17
230.948	83.8
231.166	96.08
231.384	10.07
231.601	79.7
231.819	77.65
232.037	77.65
232.254	-18.6
232.472	94.04
232.689	5.97
232.907	16.21
233.125	32.6
233.342	59.22
233.56	12.12
233.777	44.88
233.995	30.55
234.213	22.36
234.43	57.17
234.648	87.89
234.865	22.36
235.083	55.12
235.3	26.45
235.518	110.42
235.735	69.46
235.953	51.03
236.17	46.93
236.388	63.32
236.605	16.21
236.822	139.09
237.04	18.26
237.257	57.17
237.475	22.36
237.692	67.41
237.909	-6.31
238.127	14.17
238.344	98.13
238.562	-4.27
238.779	-39.08
238.996	42.84
239.214	34.64
239.431	100.18
239.648	-24.75
239.865	14.17
240.083	73.56
240.3	79.7
240.517	71.51
240.735	48.98
240.952	32.6
241.169	28.5
241.386	32.6
241.603	-16.55
241.821	40.79
242.038	55.12
242.255	16.21
242.472	48.98
242.689	57.17
242.907	96.08
243.124	57.17
243.341	-10.41
243.558	51.03
243.775	16.21
243.992	-20.65
244.209	44.88
244.426	79.7
244.643	53.08
244.86	40.79
245.078	24.4
245.295	20.31
245.512	132.95
245.729	14.17
245.946	94.04
246.163	65.36
246.38	40.79
246.597	14.17
246.814	24.4
247.031	75.6
247.248	42.84
247.464	48.98
247.681	14.17
247.898	20.31
248.115	44.88
248.332	12.12
248.549	14.17
248.766	77.65
248.983	83.8
249.2	59.22
249.417	81.75
249.633	28.5
249.85	-55.47
250.067	73.56
250.284	79.7
250.501	12.12
250.717	-22.7
250.934	-16.55
251.151	-10.41
251.368	-51.37
251.585	73.56
251.801	63.32
252.018	61.27
252.235	108.37
252.451	38.74
252.668	16.21
252.885	59.22
253.102	96.08
253.318	30.55
253.535	63.32
253.752	77.65
253.968	26.45
254.185	46.93
254.401	-28.84
254.618	71.51
254.835	48.98
255.051	114.52
255.268	34.64
255.484	-32.94
255.701	12.12
255.917	22.36
256.134	42.84
256.351	102.23
256.567	83.8
256.784	22.36
257	5.97
257.217	26.45
257.433	1.88
257.65	61.27
257.866	42.84
258.082	1.88
258.299	26.45
258.515	14.17
258.732	20.31
258.948	77.65
259.165	42.84
259.381	-0.17
259.597	44.88
259.814	94.04
260.03	12.12
260.246	32.6
260.463	-4.27
260.679	32.6
260.895	-51.37
261.112	151.38
261.328	-37.03
261.544	36.69
261.761	22.36
261.977	75.6
262.193	55.12
262.409	102.23
262.626	40.79
262.842	51.03
263.058	65.36
263.274	63.32
263.49	69.46
263.707	85.84
263.923	89.94
264.139	32.6
264.355	14.17
264.571	147.28
264.787	44.88
265.004	53.08
265.22	34.64
265.436	79.7
265.652	55.12
265.868	61.27
266.084	22.36
266.3	40.79
266.516	30.55
266.732	8.02
266.948	71.51
267.164	38.74
267.38	79.7
267.596	77.65
267.812	44.88
268.028	40.79
268.244	63.32
268.46	24.4
268.676	30.55
268.892	53.08
269.108	8.02
269.324	14.17
269.54	34.64
269.756	44.88
269.972	42.84
270.188	100.18
270.403	20.31
270.619	18.26
270.835	118.61
271.051	-2.22
271.267	28.5
271.483	42.84
271.698	-8.36
271.914	44.88
272.13	28.5
272.346	51.03
272.562	57.17
272.777	51.03
272.993	14.17
273.209	5.97
273.425	18.26
273.64	18.26
273.856	106.32
274.072	46.93
274.287	71.51
274.503	30.55
274.719	73.56
274.934	94.04
275.15	-28.84
275.366	40.79
275.581	28.5
275.797	71.51
276.012	-34.99
276.228	24.4
276.444	106.32
276.659	73.56
276.875	40.79
277.09	65.36
277.306	61.27
277.521	-18.6
277.737	83.8
277.952	57.17
278.168	94.04
278.383	77.65
278.599	53.08
278.814	79.7
279.03	-0.17
279.245	61.27
279.461	26.45
279.676	5.97
279.892	-0.17
280.107	-0.17
280.322	89.94
280.538	36.69
280.753	1.88
280.969	14.17
281.184	8.02
281.399	5.97
281.615	-12.46
281.83	46.93
282.045	26.45
282.26	69.46
282.476	48.98
282.691	26.45
282.906	18.26
283.122	5.97
283.337	65.36
283.552	63.32
283.767	46.93
283.983	30.55
284.198	16.21
284.413	73.56
284.628	5.97
284.843	69.46
285.058	73.56
285.274	73.56
285.489	38.74
285.704	59.22
285.919	67.41
286.134	53.08
286.349	-0.17
286.564	44.88
286.779	65.36
286.995	53.08
287.21	-59.56
287.425	32.6
287.64	36.69
287.855	112.47
288.07	65.36
288.285	106.32
288.5	48.98
288.715	32.6
288.93	53.08
289.145	77.65
289.36	46.93
289.575	61.27
289.79	40.79
290.004	48.98
290.219	122.71
290.434	40.79
290.649	8.02
290.864	73.56
291.079	18.26
291.294	38.74
291.509	42.84
291.724	57.17
291.938	-26.79
292.153	32.6
292.368	114.52
292.583	3.93
292.798	83.8
293.012	65.36
293.227	73.56
293.442	71.51
293.657	42.84
293.871	32.6
294.086	42.84
294.301	73.56
294.516	135
294.73	-12.46
294.945	18.26
295.16	-39.08
295.374	20.31
295.589	100.18
295.804	16.21
296.018	59.22
296.233	38.74
296.447	116.56
296.662	48.98
296.877	53.08
297.091	69.46
297.306	32.6
297.52	16.21
297.735	65.36
297.949	-24.75
298.164	46.93
298.378	18.26
298.593	-2.22
298.807	114.52
299.022	51.03
299.236	3.93
299.451	14.17
299.665	-28.84
299.88	26.45
300.094	-0.17
300.309	-14.51
300.523	10.07
300.737	57.17
300.952	36.69
301.166	89.94
301.381	-4.27
301.595	112.47
301.809	83.8
302.024	96.08
302.238	10.07
302.452	14.17
302.667	28.5
302.881	98.13
303.095	12.12
303.309	42.84
303.524	57.17
303.738	77.65
303.952	-2.22
304.166	28.5
304.381	36.69
304.595	135
304.809	55.12
305.023	40.79
305.237	120.66
305.452	77.65
305.666	63.32
305.88	118.61
306.094	85.84
306.308	149.33
306.522	24.4
306.736	30.55
306.95	73.56
307.164	28.5
307.379	32.6
307.593	87.89
307.807	-0.17
308.021	100.18
308.235	85.84
308.449	26.45
308.663	53.08
308.877	96.08
309.091	48.98
309.305	77.65
309.519	71.51
309.733	75.6
309.947	8.02
310.161	36.69
310.374	81.75
310.588	91.99
310.802	44.88
311.016	3.93
311.23	22.36
311.444	32.6
311.658	12.12
311.872	85.84
312.085	40.79
312.299	61.27
312.513	46.93
312.727	36.69
312.941	14.17
313.154	77.65
313.368	16.21
313.582	89.94
313.796	61.27
314.009	48.98
314.223	83.8
314.437	83.8
314.651	69.46
314.864	67.41
315.078	12.12
315.292	83.8
315.505	48.98
315.719	12.12
315.933	40.79
316.146	81.75
316.36	51.03
316.573	98.13
316.787	32.6
317.001	61.27
317.214	18.26
317.428	-6.31
317.641	16.21
317.855	28.5
318.068	28.5
318.282	65.36
318.495	81.75
318.709	40.79
318.922	57.17
319.136	85.84
319.349	32.6
319.563	34.64
319.776	32.6
319.99	-39.08
320.203	100.18
320.417	38.74
320.63	-16.55
320.843	81.75
321.057	-6.31
321.27	26.45
321.483	71.51
321.697	32.6
321.91	42.84
322.124	110.42
322.337	61.27
322.55	40.79
322.763	26.45
322.977	118.61
323.19	-12.46
323.403	26.45
323.617	-10.41
323.83	69.46
324.043	61.27
324.256	16.21
324.469	57.17
324.683	85.84
324.896	73.56
325.109	36.69
325.322	42.84
325.535	59.22
325.748	87.89
325.962	57.17
326.175	65.36
326.388	30.55
326.601	106.32
326.814	51.03
327.027	59.22
327.24	73.56
327.453	59.22
327.666	75.6
327.879	40.79
328.092	67.41
328.305	46.93
328.518	48.98
328.731	61.27
328.944	118.61
329.157	5.97
329.37	26.45
329.583	65.36
329.796	73.56
330.009	28.5
330.222	36.69
330.435	8.02
330.648	51.03
330.861	3.93
331.073	106.32
331.286	130.9
331.499	53.08
331.712	114.52
331.925	81.75
332.138	38.74
332.35	48.98
332.563	34.64
332.776	77.65
332.989	-18.6
333.202	75.6
333.414	-28.84
333.627	30.55
333.84	12.12
334.053	48.98
334.265	-28.84
334.478	3.93
334.691	63.32
334.903	26.45
335.116	75.6
335.329	28.5
335.541	116.56
335.754	22.36
335.966	63.32
336.179	28.5
336.392	61.27
336.604	14.17
336.817	28.5
337.029	42.84
337.242	24.4
337.454	59.22
337.667	65.36
337.88	77.65
338.092	48.98
338.305	130.9
338.517	-8.36
338.729	67.41
338.942	53.08
339.154	-8.36
339.367	-0.17
339.579	10.07
339.792	16.21
340.004	38.74
340.217	3.93
340.429	-12.46
340.641	57.17
340.854	98.13
341.066	135
341.278	85.84
341.491	55.12
341.703	130.9
341.915	102.23
342.128	112.47
342.34	83.8
342.552	-0.17
342.764	139.09
342.977	98.13
343.189	91.99
343.401	12.12
343.613	67.41
343.826	46.93
344.038	8.02
344.25	20.31
344.462	36.69
344.674	67.41
344.886	81.75
345.099	83.8
345.311	73.56
345.523	-8.36
345.735	44.88
345.947	73.56
346.159	40.79
346.371	89.94
346.583	98.13
346.795	108.37
347.007	71.51
347.219	40.79
347.431	-12.46
347.643	26.45
347.855	48.98
348.067	34.64
348.279	-18.6
348.491	40.79
348.703	48.98
348.915	46.93
349.127	87.89
349.339	81.75
349.551	112.47
349.763	71.51
349.975	153.43
350.187	108.37
350.399	65.36
350.61	30.55
350.822	-4.27
351.034	106.32
351.246	10.07
351.458	126.8
351.669	85.84
351.881	128.85
352.093	38.74
352.305	112.47
352.517	85.84
352.728	24.4
352.94	149.33
353.152	24.4
353.363	20.31
353.575	67.41
353.787	40.79
353.999	59.22
354.21	106.32
354.422	22.36
354.633	-2.22
354.845	46.93
355.057	32.6
355.268	28.5
355.48	57.17
355.692	26.45
355.903	38.74
356.115	3.93
356.326	32.6
356.538	108.37
356.749	14.17
356.961	98.13
357.172	-12.46
357.384	57.17
357.595	32.6
357.807	57.17
358.018	51.03
358.23	65.36
358.441	34.64
358.653	61.27
358.864	53.08
359.075	85.84
359.287	8.02
359.498	53.08
359.709	91.99
359.921	102.23
360.132	30.55
360.344	75.6
360.555	75.6
360.766	55.12
360.977	100.18
361.189	48.98
361.4	30.55
361.611	87.89
361.823	67.41
362.034	42.84
362.245	-88.23
362.456	32.6
362.667	71.51
362.879	128.85
363.09	8.02
363.301	48.98
363.512	102.23
363.723	32.6
363.935	22.36
364.146	83.8
364.357	46.93
364.568	48.98
364.779	18.26
364.99	73.56
365.201	42.84
365.412	79.7
365.623	28.5
365.834	65.36
366.045	5.97
366.256	114.52
366.467	81.75
366.678	-34.99
366.889	71.51
367.1	94.04
367.311	40.79
367.522	-4.27
367.733	98.13
367.944	55.12
368.155	-26.79
368.366	149.33
368.577	32.6
368.788	98.13
368.999	65.36
369.209	102.23
369.42	63.32
369.631	169.81
369.842	94.04
370.053	57.17
370.264	108.37
370.474	40.79
370.685	5.97
370.896	-14.51
371.107	44.88
371.317	112.47
371.528	36.69
371.739	102.23
371.95	48.98
372.16	106.32
372.371	53.08
372.582	-4.27
372.792	98.13
373.003	53.08
373.214	-37.03
373.424	63.32
373.635	40.79
373.846	200.53
374.056	79.7
374.267	110.42
374.477	53.08
374.688	-20.65
374.898	163.67
375.109	-6.31
375.319	71.51
375.53	65.36
375.74	83.8
375.951	18.26
376.161	106.32
376.372	100.18
376.582	59.22
376.793	77.65
377.003	53.08
377.214	14.17
377.424	94.04
377.635	44.88
377.845	44.88
378.055	81.75
378.266	28.5
378.476	16.21
378.686	63.32
378.897	81.75
379.107	96.08
379.317	53.08
379.528	81.75
379.738	73.56
379.948	104.28
380.158	57.17
380.369	87.89
380.579	36.69
380.789	89.94
380.999	16.21
381.21	73.56
381.42	87.89
381.63	24.4
381.84	143.19
382.05	40.79
382.261	81.75
382.471	24.4
382.681	69.46
382.891	94.04
383.101	46.93
383.311	53.08
383.521	67.41
383.731	65.36
383.941	85.84
384.151	18.26
384.361	3.93
384.571	73.56
384.781	87.89
384.991	116.56
385.201	69.46
385.411	102.23
385.621	40.79
385.831	128.85
386.041	30.55
386.251	63.32
386.461	87.89
386.671	30.55
386.881	61.27
387.091	118.61
387.301	8.02
387.511	5.97
387.72	180.05
387.93	130.9
388.14	-16.55
388.35	79.7
388.56	57.17
388.769	124.76
388.979	71.51
389.189	59.22
389.399	61.27
389.609	85.84
389.818	20.31
390.028	91.99
390.238	69.46
390.447	46.93
390.657	53.08
390.867	73.56
391.076	24.4
391.286	110.42
391.496	128.85
391.705	65.36
391.915	91.99
392.125	151.38
392.334	71.51
392.544	112.47
392.753	12.12
392.963	10.07
393.172	18.26
393.382	67.41
393.591	153.43
393.801	36.69
394.01	96.08
394.22	165.71
394.429	143.19
394.639	102.23
394.848	96.08
395.058	51.03
395.267	20.31
395.477	135
395.686	83.8
395.895	128.85
396.105	63.32
396.314	96.08
396.524	24.4
396.733	110.42
396.942	163.67
397.152	71.51
397.361	124.76
397.57	98.13
397.78	10.07
397.989	83.8
398.198	91.99
398.407	151.38
398.617	71.51
398.826	112.47
399.035	114.52
399.244	98.13
399.453	73.56
399.663	147.28
399.872	94.04
400.081	120.66
400.29	147.28
400.499	128.85
400.708	106.32
400.917	128.85
401.127	114.52
401.336	143.19
401.545	126.8
401.754	114.52
401.963	100.18
402.172	173.91
402.381	165.71
402.59	155.47
402.799	141.14
403.008	124.76
403.217	98.13
403.426	163.67
403.635	145.24
403.844	98.13
404.053	184.15
404.262	91.99
404.471	204.63
404.68	137.04
404.888	184.15
405.097	77.65
405.306	98.13
405.515	161.62
405.724	135
405.933	171.86
406.142	169.81
406.35	206.67
406.559	194.39
406.768	184.15
406.977	229.2
407.185	196.43
407.394	200.53
407.603	200.53
407.812	221.01
408.02	245.59
408.229	278.35
408.438	284.5
408.646	173.91
408.855	237.39
409.064	270.16
409.272	257.87
409.481	257.87
409.69	253.78
409.898	212.82
410.107	300.88
410.315	388.94
410.524	276.31
410.733	307.02
410.941	307.02
411.15	327.5
411.358	425.81
411.567	401.23
411.775	386.9
411.984	413.52
412.192	429.9
412.401	409.42
412.609	423.76
412.818	421.71
413.026	444.24
413.234	571.21
413.443	540.49
413.651	599.88
413.86	565.07
414.068	577.36
414.276	526.16
414.485	616.27
414.693	591.69
414.901	685.9
415.11	718.67
415.318	649.04
415.526	698.19
415.734	786.25
415.943	753.48
416.151	714.57
416.359	847.69
416.567	839.5
416.776	892.74
416.984	941.89
417.192	956.23
417.4	927.56
417.608	907.08
417.817	968.52
418.025	1179.46
418.233	1138.5
418.441	972.61
418.649	1054.53
418.857	1206.08
419.065	1259.33
419.273	1247.04
419.481	1404.74
419.689	1333.06
419.897	1402.69
420.105	1457.98
420.313	1523.52
420.521	1603.39
420.729	1564.48
420.937	1591.1
421.145	1687.36
421.353	1789.75
421.561	1816.38
421.769	1972.02
421.977	1922.87
422.185	1916.73
422.393	2051.89
422.601	2232.12
422.809	2232.12
423.017	2101.05
423.224	2248.5
423.432	2381.62
423.64	2447.15
423.848	2578.22
424.056	2549.55
424.263	2690.86
424.471	2797.35
424.679	2768.68
424.887	2901.8
425.094	3030.82
425.302	2983.72
425.51	3198.76
425.718	3192.61
425.925	3325.73
426.133	3436.32
426.341	3663.65
426.548	3741.47
426.756	3661.6
426.964	3823.39
427.171	4079.38
427.379	4110.1
427.586	4230.93
427.794	4300.56
428.001	4407.06
428.209	4747.02
428.417	4828.94
428.624	4873.99
428.832	5037.83
429.039	4843.28
429.247	4826.89
429.454	5400.32
429.662	5832.44
429.869	5349.12
430.076	5723.9
430.284	5539.58
430.491	5867.26
430.699	6162.17
430.906	6012.67
431.114	6274.81
431.321	6733.55
431.528	6643.44
431.736	7085.8
431.943	7384.8
432.15	7159.53
432.358	7169.77
432.565	7724.77
432.772	7614.18
432.979	8093.4
433.187	7943.9
433.394	8216.28
433.601	8912.59
433.808	8775.38
434.016	8730.32
434.223	9223.88
434.43	9653.95
434.637	9533.12
434.844	10059.45
435.052	10184.38
435.259	10294.97
435.466	10268.34
435.673	10256.06
435.88	10909.36
436.087	11456.17
436.294	11497.13
436.501	11284.14
436.708	11441.83
436.915	11882.14
437.122	12297.88
437.329	12435.1
437.537	12840.59
437.743	12934.8
437.95	12879.5
438.157	13371.02
438.364	13880.96
438.571	13934.21
438.778	13762.18
438.985	15115.89
439.192	14413.43
439.399	15156.85
439.606	14751.35
439.813	15560.3
440.02	16623.19
440.227	16195.17
440.433	15973.99
440.64	16690.77
440.847	16422.49
441.054	17061.46
441.261	18245.18
441.467	17462.86
441.674	18316.86
441.881	18828.85
442.088	18968.12
442.294	18742.84
442.501	19162.67
442.708	19623.47
442.914	20385.31
443.121	21302.8
443.328	20469.28
443.534	22162.95
443.741	21485.07
443.948	20872.73
444.154	22748.67
444.361	22498.81
444.568	22912.5
444.774	22705.66
444.981	22961.65
445.187	23487.98
445.394	24735.2
445.6	24384.99
445.807	26731.97
446.013	25435.6
446.22	25963.98
446.426	27092.41
446.633	27116.98
446.839	28097.96
447.046	27168.18
447.252	28370.34
447.459	28665.25
447.665	28456.36
447.871	29773.2
448.078	31118.71
448.284	29347.22
448.491	30285.19
448.697	31483.25
448.903	31880.56
449.11	31821.17
449.316	31337.85
449.522	32499.05
449.728	33037.66
449.935	33398.1
450.141	33260.89
450.347	33684.82
450.553	32982.37
450.76	33303.9
450.966	34307.4
451.172	33873.23
451.378	34895.17
451.584	33834.32
451.791	35069.25
451.997	34800.96
452.203	35538.23
452.409	35534.14
452.615	35249.47
452.821	33758.55
453.027	33822.03
453.233	35587.38
453.44	34096.46
453.646	34346.31
453.852	34624.84
454.058	35335.48
454.264	34356.55
454.47	34760
454.676	33813.84
454.882	34954.56
455.088	32081.26
455.294	32644.45
455.5	33107.29
455.705	33394.01
455.911	31681.91
456.117	31415.67
456.323	30879.1
456.529	29242.78
456.735	30465.41
456.941	29836.69
457.147	29529.49
457.352	28358.05
457.558	28161.45
457.764	28001.71
457.97	27807.15
458.176	27209.14
458.381	26738.11
458.587	25884.11
458.793	25662.93
458.999	24311.27
459.204	26078.66
459.41	25503.18
459.616	23717.36
459.821	24188.39
460.027	23881.19
460.233	23285.23
460.438	21880.33
460.644	22580.73
460.85	21417.49
461.055	21003.8
461.261	20962.84
461.466	19232.3
461.672	18708.02
461.878	19871.27
462.083	18695.74
462.289	18626.11
462.494	18224.7
462.7	17385.04
462.905	17088.08
463.111	17692.23
463.316	17419.85
463.522	17403.47
463.727	17323.6
463.932	16924.24
464.138	17118.8
464.343	17204.81
464.549	16547.42
464.754	17133.14
464.959	16967.25
465.165	16916.05
465.37	15992.42
465.575	15683.17
465.781	16359
465.986	16664.15
466.191	15754.85
466.397	15525.48
466.602	14823.03
466.807	15441.51
467.012	15347.31
467.218	15269.48
467.423	14919.28
467.628	15464.04
467.833	15902.31
468.038	15242.86
468.244	14829.17
468.449	15224.43
468.654	14917.23
468.859	14560.89
469.064	14737.01
469.269	13981.31
469.474	14161.53
469.679	14605.94
469.885	13923.97
470.09	14276.22
470.295	14388.86
470.5	13948.54
470.705	13985.41
470.91	13579.91
471.115	13489.8
471.32	13663.88
471.525	13741.7
471.73	13278.86
471.935	13444.74
472.139	13039.25
472.344	13055.63
472.549	13080.21
472.754	12859.03
472.959	12566.17
473.164	12226.2
473.369	12070.56
473.574	12682.9
473.778	12365.46
473.983	12263.07
474.188	12201.63
474.393	11488.93
474.598	11550.37
474.802	11837.09
475.007	11464.36
475.212	11540.13
475.417	10931.89
475.621	11146.92
475.826	11210.41
476.031	11048.62
476.235	10677.94
476.44	10659.51
476.645	10692.27
476.849	10751.67
477.054	10454.71
477.259	10516.15
477.463	10329.78
477.668	10061.5
477.872	10313.4
478.077	10067.64
478.282	9805.5
478.486	9717.44
478.691	9852.61
478.895	9828.03
479.1	9713.35
479.304	9676.48
479.509	9387.72
479.713	9686.72
479.918	9105.1
480.122	9324.23
480.326	9385.67
480.531	9289.42
480.735	9115.34
480.94	9033.42
481.144	9406.15
481.348	8916.69
481.553	9051.85
481.757	8814.29
481.961	9201.35
482.166	9051.85
482.37	9109.19
482.574	8871.63
482.778	8763.09
482.983	9039.56
483.187	8820.43
483.391	9010.89
483.595	8945.36
483.8	8879.82
484.004	8912.59
484.208	8963.79
484.412	8781.52
484.616	8910.54
484.821	9012.94
485.025	8771.28
485.229	9158.35
485.433	8894.16
485.637	9035.47
485.841	8650.45
486.045	8738.51
486.249	8912.59
486.453	8830.67
486.657	8849.1
486.861	9004.75
487.065	8722.13
487.269	8738.51
487.473	8769.23
487.677	8982.22
487.881	8994.51
488.085	8795.86
488.289	8853.2
488.493	8885.97
488.697	8986.32
488.901	8955.6
489.105	8922.83
489.309	9023.18
489.512	9035.47
489.716	8949.45
489.92	8988.36
490.124	8916.69
490.328	9113.29
490.531	8943.31
490.735	9209.54
490.939	9090.76
491.143	9072.33
491.346	9129.67
491.55	9156.3
491.754	9148.11
491.958	9326.28
492.161	9205.45
492.365	9236.17
492.569	9342.66
492.772	9285.32
492.976	9569.99
493.18	9451.21
493.383	9578.18
493.587	9674.43
493.79	9711.3
493.994	9717.44
494.197	9623.23
494.401	9942.72
494.605	9938.62
494.808	9883.33
495.012	9778.88
495.215	10149.56
495.419	10172.09
495.622	10112.7
495.825	10317.5
496.029	10145.47
496.232	10522.29
496.436	10383.03
496.639	10804.91
496.843	10620.6
497.046	11028.14
497.249	11065
497.453	11022
497.656	11083.44
497.859	11155.12
498.063	11165.35
498.266	11669.16
498.469	11429.54
498.673	11640.48
498.876	11642.53
499.079	11857.57
499.282	11892.38
499.485	12224.15
499.689	12019.36
499.892	12285.59
500.095	12322.46
500.298	12727.96
500.501	12570.26
500.705	12818.07
500.908	12809.87
501.111	13059.73
501.314	13067.92
501.517	13332.11
501.72	13426.31
501.923	13248.14
502.126	13661.83
502.329	13993.6
502.532	14124.67
502.735	14067.33
502.938	14390.91
503.141	14442.1
503.344	14777.97
503.547	14679.67
503.75	14896.75
503.953	15085.17
504.156	14990.96
504.359	15490.66
504.562	15511.14
504.765	15980.13
504.968	15726.18
505.17	16213.6
505.373	16156.25
505.576	16492.12
505.779	16655.96
505.982	16797.27
506.185	16916.05
506.387	17200.72
506.59	17350.22
506.793	17462.86
506.996	17411.66
507.198	17845.83
507.401	17962.56
507.604	18089.54
507.807	18535.99
508.009	18466.36
508.212	18652.73
508.415	18961.97
508.617	18933.3
508.82	19043.89
509.022	18998.84
509.225	19664.43
509.428	19568.17
509.63	19691.05
509.833	20194.85
510.035	20354.59
510.238	20450.85
510.44	20510.24
510.643	20899.35
510.845	21329.42
511.048	20868.63
511.25	20999.7
511.453	21200.4
511.655	22273.54
511.858	21870.09
512.06	22189.57
512.262	22603.26
512.465	22197.76
512.667	22889.98
512.87	22994.42
513.072	22892.02
513.274	23510.51
513.477	23584.24
513.679	23432.69
513.881	24235.49
514.084	24147.43
514.286	23993.83
514.488	24495.58
514.69	25253.33
514.893	25171.41
515.095	25093.59
515.297	25429.46
515.499	25660.88
515.701	25839.05
515.904	25957.83
516.106	25976.26
516.308	26500.54
516.51	26607.04
516.712	26449.35
516.914	26758.59
517.116	27383.22
517.318	27375.03
517.52	27405.75
517.722	27377.08
517.925	27968.94
518.127	28458.4
518.329	28339.62
518.531	28642.72
518.733	29031.83
518.935	29228.44
519.136	28851.61
519.338	29678.99
519.54	29635.99
519.742	29926.8
519.944	29863.31
520.146	30563.71
520.348	30639.49
520.55	30795.14
520.752	30741.89
520.954	31161.72
521.155	30997.88
521.357	31686
521.559	31972.72
521.761	32449.89
521.963	32011.63
522.164	32208.23
522.366	32472.42
522.568	32757.09
522.77	32927.07
522.971	33154.4
523.173	33068.38
523.375	33557.85
523.576	33531.22
523.778	33647.96
523.98	33819.99
524.181	34190.67
524.383	34280.78
524.584	34471.24
524.786	34557.25
524.988	34383.18
525.189	34714.95
525.391	34940.22
525.592	34981.18
525.794	35073.34
525.995	35333.43
526.197	35519.8
526.398	35095.87
526.6	35753.27
526.801	35732.79
527.003	35902.77
527.204	35697.97
527.406	36103.47
527.607	36517.16
527.808	36492.58
528.01	35990.83
528.211	36287.79
528.412	36926.75
528.614	36791.59
528.815	36965.67
529.016	37006.62
529.218	36662.57
529.419	36795.68
529.62	36748.58
529.822	36900.13
530.023	36861.22
530.224	37416.22
530.425	37012.77
530.626	36562.22
530.828	36900.13
531.029	37541.14
531.23	37281.05
531.431	37170.46
531.632	37455.13
531.833	37643.54
532.035	37473.56
532.236	37537.05
532.437	37629.21
532.638	37891.35
532.839	37678.36
533.04	37782.8
533.241	37461.27
533.442	37897.49
533.643	37934.35
533.844	37649.69
534.045	37827.86
534.246	37504.28
534.447	38169.87
534.648	38049.04
534.849	37860.63
535.05	37336.35
535.251	38176.01
535.451	37920.02
535.652	38241.55
535.853	37639.45
536.054	37858.58
536.255	38339.85
536.456	37586.2
536.657	38065.42
536.857	37535
537.058	37813.52
537.259	38169.87
537.46	37958.93
537.66	37684.5
537.861	37983.51
538.062	37313.82
538.263	37973.27
538.463	37596.44
538.664	37971.22
538.865	37815.57
539.065	37717.27
539.266	37297.44
539.466	37719.32
539.667	37514.52
539.868	38104.34
540.068	37457.18
540.269	37500.19
540.469	37809.43
540.67	37745.94
540.87	37559.58
541.071	37690.65
541.271	37698.84
541.472	37547.29
541.672	37262.62
541.873	37625.11
542.073	37207.33
542.274	38006.03
542.474	37369.12
542.675	37225.76
542.875	37788.95
543.075	37461.27
543.276	36906.27
543.476	37995.79
543.676	37192.99
543.877	37674.26
544.077	37618.97
544.277	37772.56
544.478	37315.87
544.678	37596.44
544.878	37018.91
545.078	37074.21
545.279	37315.87
545.479	37451.03
545.679	37356.83
545.879	37328.16
546.079	37457.18
546.28	37082.4
546.48	36982.05
546.68	37469.47
546.88	37311.77
547.08	37117.21
547.28	37283.1
547.48	36973.86
547.68	37430.55
547.88	36775.2
548.081	37700.89
548.281	37281.05
548.481	37405.98
548.681	37340.44
548.881	37115.17
549.081	37000.48
549.28	37061.92
549.48	37106.98
549.68	37137.69
549.88	37448.99
550.08	37000.48
550.28	37242.14
550.48	36697.38
550.68	37274.91
550.88	37012.77
551.08	36967.71
551.279	37279
551.479	36576.55
551.679	37197.09
551.879	36947.23
552.079	36963.62
552.278	37045.54
552.478	36797.73
552.678	36803.88
552.878	37057.82
553.077	36893.99
553.277	36701.48
553.477	37358.88
553.676	36490.54
553.876	37205.28
554.076	36826.4
554.275	36580.65
554.475	36508.97
554.674	36603.17
554.874	36971.81
555.074	36592.93
555.273	36973.86
555.473	37252.38
555.672	36183.34
555.872	36531.5
556.071	36990.24
556.271	36459.82
556.47	36687.14
556.67	36103.47
556.869	36377.9
557.068	36683.05
557.268	36259.12
557.467	36494.63
557.667	35800.37
557.866	36150.57
558.065	36054.32
558.265	36132.14
558.464	35878.19
558.663	36478.25
558.863	35841.33
559.062	36029.74
559.261	35837.23
559.461	36246.83
559.66	35726.64
559.859	36123.95
560.058	35829.04
560.258	35718.45
560.457	35226.94
560.656	35876.15
560.855	35415.35
561.054	35999.02
561.253	35235.13
561.453	35523.9
561.652	35413.3
561.851	35319.1
562.05	34929.98
562.249	35185.98
562.448	35351.87
562.647	35124.54
562.846	35054.91
563.045	35411.26
563.244	34780.48
563.443	35571
563.642	34628.93
563.841	34696.52
564.04	34964.8
564.239	35241.28
564.438	34882.88
564.637	34702.66
564.836	35065.15
565.035	34215.24
565.234	34448.71
565.432	34686.28
565.631	34346.31
565.83	34446.66
566.029	34239.82
566.228	34245.96
566.427	34510.15
566.625	34082.13
566.824	33658.2
567.023	34467.14
567.222	33465.69
567.42	34303.31
567.619	34041.17
567.818	33985.87
568.016	33518.93
568.215	33963.34
568.414	33682.77
568.612	34049.36
568.811	33631.57
569.01	33551.7
569.208	33047.9
569.407	33492.31
569.605	33389.91
569.804	33635.67
570.002	33164.64
570.201	33375.58
570.4	33271.13
570.598	32863.58
570.797	32689.51
570.995	33277.27
571.193	32462.18
571.392	32974.17
571.59	32722.27
571.789	32701.79
571.987	32675.17
572.186	32527.72
572.384	32451.94
572.582	32847.2
572.781	32322.92
572.979	32025.96
573.177	32281.96
573.376	32324.97
573.574	32048.49
573.772	32386.41
573.971	32148.84
574.169	31821.17
574.367	31597.94
574.565	31810.93
574.763	31530.36
574.962	31675.76
575.16	31387
575.358	31745.39
575.556	31450.49
575.754	31726.96
575.952	31075.71
576.151	31516.02
576.349	31022.46
576.547	31108.47
576.745	30915.97
576.943	31012.22
577.141	31198.59
577.339	31163.77
577.537	30700.93
577.735	30963.07
577.933	30303.62
578.131	30674.31
578.329	30561.67
578.527	30588.29
578.725	30612.87
578.923	30301.57
579.121	30147.98
579.319	30166.41
579.516	30291.34
579.714	30254.47
579.912	30125.45
580.11	30006.67
580.308	30147.98
580.506	29740.43
580.704	29738.38
580.901	29482.39
581.099	29965.71
581.297	29406.61
581.495	29578.64
581.692	29468.05
581.89	29169.05
582.088	29568.4
582.285	29230.49
582.483	29662.61
582.681	29242.78
582.878	29267.35
583.076	28976.54
583.274	29005.21
583.471	28612
583.669	28872.09
583.866	28540.32
584.064	29064.6
584.262	28431.78
584.459	28798.37
584.657	28546.47
584.854	28673.44
585.052	27538.87
585.249	28517.79
585.447	28429.73
585.644	27983.27
585.841	28143.02
586.039	27968.94
586.236	27854.25
586.434	27633.07
586.631	27708.85
586.828	27692.46
587.026	27719.09
587.223	27749.81
587.42	27667.89
587.618	27555.25
587.815	27246.01
588.012	27356.6
588.21	27211.19
588.407	27426.23
588.604	26947
588.801	26660.29
588.999	26613.18
589.196	26838.46
589.393	26793.4
589.59	26521.02
589.787	26660.29
589.984	26551.74
590.182	26033.61
590.379	26512.83
590.576	26267.08
590.773	26420.67
590.97	26209.73
591.167	26224.07
591.364	25712.08
591.561	26346.95
591.758	25744.84
591.955	25849.29
592.152	25671.12
592.349	25976.26
592.546	25963.98
592.743	25886.15
592.94	25392.59
593.137	25134.55
593.334	25509.33
593.531	25028.06
593.727	25271.76
593.924	25069.01
594.121	25212.37
594.318	25421.27
594.515	24743.39
594.712	25038.3
594.908	24917.47
595.105	24794.59
595.302	24661.47
595.499	24776.16
595.696	24544.73
595.892	24454.62
596.089	24745.44
596.286	24567.26
596.482	24382.95
596.679	24528.35
596.876	24401.38
597.072	23954.92
597.269	24188.39
597.466	23985.64
597.662	24192.48
597.859	23922.15
598.055	23752.17
598.252	23676.4
598.448	23721.45
598.645	23348.72
598.841	23485.93
599.038	23571.95
599.234	23524.85
599.431	23242.23
599.627	23086.58
599.824	23406.06
600.02	22902.26
600.217	23031.29
600.413	22846.97
600.609	22857.21
600.806	22795.77
601.002	22769.15
601.198	22472.19
601.395	22523.39
601.591	22431.23
601.787	22521.34
601.984	22502.91
602.18	22566.4
602.376	22439.42
602.572	22021.64
602.769	22287.87
602.965	22124.04
603.161	21984.77
603.357	21837.32
603.553	21874.18
603.75	21722.63
603.946	21712.39
604.142	21970.44
604.338	21317.14
604.534	21630.48
604.73	21620.24
604.926	21351.95
605.122	21323.28
605.318	21419.53
605.514	21282.32
605.71	21177.87
605.906	20774.42
606.102	21147.15
606.298	21151.25
606.494	20989.46
606.69	21046.8
606.886	20903.45
607.082	20895.25
607.278	20639.26
607.474	20481.56
607.67	20805.14
607.866	20461.09
608.062	20561.44
608.257	20612.63
608.453	20579.87
608.649	20686.36
608.845	20553.24
609.041	20467.23
609.236	20422.17
609.432	20387.36
609.628	20059.68
609.824	20319.78
610.019	20151.84
610.215	20094.5
610.411	20057.64
610.606	20045.35
610.802	20157.99
610.998	19988
611.193	19867.17
611.389	19826.21
611.584	19598.89
611.78	19721.77
611.976	20039.2
612.171	19828.26
612.367	19895.85
612.562	19869.22
612.758	19361.33
612.953	19471.92
613.149	19891.75
613.344	19844.65
613.539	19535.4
613.735	19525.16
613.93	19717.67
614.126	19654.19
614.321	19351.09
614.517	19390
614.712	19318.32
614.907	19365.42
615.103	19379.76
615.298	19359.28
615.493	19545.64
615.688	19205.68
615.884	19588.65
616.079	18855.48
616.274	18984.5
616.47	19160.62
616.665	19293.74
616.86	18974.26
617.055	18976.31
617.25	18931.25
617.445	19011.12
617.641	18654.78
617.836	18765.37
618.031	18540.09
618.226	18736.7
618.421	18556.47
618.616	18726.46
618.811	18263.61
619.006	18789.94
619.201	18382.4
619.396	18409.02
619.591	18198.08
619.786	18214.46
619.981	18136.64
620.176	18343.49
620.371	17845.83
620.566	17851.97
620.761	17800.77
620.956	17827.4
621.151	17546.83
621.346	17942.08
621.541	17481.29
621.735	17688.14
621.93	17110.61
622.125	17296.97
622.32	17366.6
622.515	17360.46
622.709	16981.59
622.904	17067.6
623.099	17133.14
623.294	16858.71
623.488	16852.56
623.683	16748.12
623.878	16277.08
624.072	16545.37
624.267	16655.96
624.462	16322.14
624.656	16064.1
624.851	16420.44
625.046	15982.18
625.24	16166.49
625.435	15801.96
625.629	16076.38
625.824	15842.92
626.018	15666.79
626.213	15404.65
626.407	15461.99
626.602	15189.61
626.796	15306.35
626.991	15246.96
627.185	15259.24
627.38	14970.48
627.574	14845.55
627.768	15083.12
627.963	14874.23
628.157	14673.53
628.352	14831.22
628.546	14491.26
628.74	14777.97
628.935	14419.58
629.129	14556.79
629.323	13981.31
629.517	14116.48
629.712	14175.87
629.906	13907.59
630.1	13928.06
630.294	13964.93
630.489	13780.61
630.683	13938.3
630.877	13665.92
631.071	13594.25
631.265	13813.38
631.459	13639.3
631.653	13383.31
631.848	13512.33
632.042	13147.79
632.236	13209.23
632.43	13309.58
632.624	13059.73
632.818	12998.29
633.012	12713.62
633.206	12934.8
633.4	13010.57
633.594	12639.89
633.788	12928.66
633.982	13022.86
634.176	12551.83
634.369	12594.84
634.563	12572.31
634.757	12594.84
634.951	12527.25
635.145	12256.92
635.339	12252.83
635.533	12058.27
635.726	12070.56
635.92	11669.16
636.114	11787.94
636.308	11984.54
636.501	11880.1
636.695	11771.55
636.889	11708.07
637.083	11441.83
637.276	11462.31
637.47	11398.82
637.664	11599.52
637.857	11433.64
638.051	11118.25
638.244	11382.44
638.438	11155.12
638.632	11034.28
638.825	11052.72
639.019	11175.59
639.212	10811.06
639.406	10938.03
639.599	11013.81
639.793	11017.9
639.986	10518.2
640.18	10573.49
640.373	10757.81
640.567	10653.36
640.76	10503.86
640.954	10536.63
641.147	10514.1
641.34	10370.74
641.534	10512.05
641.727	10426.04
641.92	10333.88
642.114	10176.19
642.307	10098.36
642.5	10098.36
642.694	9793.22
642.887	9875.13
643.08	10155.71
643.273	9914.05
643.467	9887.42
643.66	9703.11
643.853	9852.61
644.046	9424.58
644.239	9557.7
644.432	9617.09
644.626	9641.67
644.819	9580.23
645.012	9516.74
645.205	9420.49
645.398	9422.53
645.591	9367.24
645.784	9227.98
645.977	9080.52
646.17	9221.83
646.363	9035.47
646.556	9131.72
646.749	9101
646.942	8957.64
647.135	8791.76
647.328	8806.09
647.521	8859.34
647.714	8765.14
647.907	8715.98
648.099	8750.8
648.292	8836.81
648.485	8679.12
648.678	8679.12
648.871	8503
649.064	8451.8
649.256	8421.08
649.449	8365.78
649.642	8337.11
649.835	8257.24
650.027	8107.74
650.22	8208.09
650.413	8222.42
650.605	8113.88
650.798	8130.27
650.991	7888.6
651.183	7984.86
651.376	8007.39
651.568	7945.95
651.761	7945.95
651.954	7808.73
652.146	7896.8
652.339	7624.42
652.531	7902.94
652.724	7722.72
652.916	7452.39
653.109	7726.82
653.301	7626.46
653.494	7575.27
653.686	7571.17
653.879	7436
654.071	7403.24
654.263	7331.56
654.456	7333.61
654.648	7306.98
654.84	7220.97
655.033	7288.55
655.225	7378.66
655.417	7134.95
655.61	7050.99
655.802	7218.92
655.994	6975.21
656.186	7096.04
656.379	6907.63
656.571	6967.02
656.763	6794.99
656.955	6792.94
657.148	6790.89
657.34	6876.91
657.532	6670.06
657.724	6715.12
657.916	6696.69
658.108	6622.96
658.3	6522.61
658.492	6549.23
658.684	6508.27
658.876	6407.92
659.068	6479.6
659.26	6452.98
659.452	6383.35
659.644	6278.9
659.836	6328.05
660.028	6379.25
660.22	6194.93
660.412	6328.05
660.604	5973.75
660.796	6315.76
660.988	6256.37
661.18	6055.67
661.372	6086.39
661.563	6033.15
661.755	6059.77
661.947	6129.4
662.139	5996.28
662.331	5992.19
662.522	5871.36
662.714	5834.49
662.906	5859.07
663.097	5717.76
663.289	5940.99
663.481	5918.46
663.673	5613.31
663.864	5881.6
664.056	5701.37
664.247	5521.15
664.439	5650.18
664.631	5668.61
664.822	5654.27
665.014	5639.94
665.205	5598.98
665.397	5435.14
665.588	5500.67
665.78	5281.54
665.971	5521.15
666.163	5293.83
666.354	5410.56
666.546	5398.27
666.737	5263.11
666.929	5306.12
667.12	5193.48
667.311	5230.34
667.503	5299.97
667.694	5234.44
667.885	5113.61
668.077	5177.09
668.268	5299.97
668.459	4988.68
668.651	5205.77
668.842	4943.63
669.033	4970.25
669.224	4941.58
669.416	5156.61
669.607	4910.86
669.798	4898.57
669.989	5029.64
670.18	4892.43
670.371	4914.95
670.563	5005.06
670.754	4937.48
670.945	4751.12
671.136	4804.36
671.327	4822.8
671.518	4742.92
671.709	4835.08
671.9	4826.89
672.091	4730.64
672.282	4775.69
672.473	4769.55
672.664	4693.77
672.855	4638.48
673.046	4685.58
673.237	4667.15
673.428	4579.09
673.619	4513.55
673.809	4421.39
674	4529.94
674.191	4505.36
674.382	4577.04
674.573	4615.95
674.764	4464.4
674.954	4445.97
675.145	4460.31
675.336	4421.39
675.527	4398.87
675.717	4388.63
675.908	4280.08
676.099	4452.11
676.289	4382.48
676.48	4253.46
676.671	4349.71
676.861	4208.41
677.052	4284.18
677.243	4306.71
677.433	4042.52
677.624	4212.5
677.814	4245.27
678.005	4155.16
678.195	4099.86
678.386	3976.98
678.576	4112.15
678.767	4095.77
678.957	4226.84
679.148	4081.43
679.338	4247.32
679.529	4003.61
679.719	4177.69
679.909	4120.34
680.1	4095.77
680.29	4101.91
680.481	4071.19
680.671	3999.51
680.861	3985.18
681.052	4040.47
681.242	4112.15
681.432	3927.83
681.622	3942.17
681.813	3888.92
682.003	3976.98
682.193	3827.48
682.383	3856.15
682.573	3915.55
682.764	3948.31
682.954	3821.34
683.144	3860.25
683.334	3952.41
683.524	3761.95
683.714	3884.83
683.904	3813.15
684.094	3815.2
684.284	3827.48
684.474	3815.2
684.664	3725.08
684.854	3725.08
685.044	3622.69
685.234	3821.34
685.424	3641.12
685.614	3634.97
685.804	3686.17
685.994	3677.98
686.184	3733.28
686.374	3698.46
686.564	3729.18
686.753	3510.05
686.943	3577.63
687.133	3553.06
687.323	3575.58
687.513	3520.29
687.702	3421.99
687.892	3548.96
688.082	3499.81
688.272	3565.34
688.461	3495.71
688.651	3448.61
688.841	3645.21
689.03	3391.27
689.22	3346.21
689.41	3415.84
689.599	3348.26
689.789	3405.6
689.979	3350.31
690.168	3323.68
690.358	3290.92
690.547	3358.5
690.737	3321.63
690.926	3284.77
691.116	3188.52
691.305	3262.24
691.495	3260.2
691.684	3161.89
691.874	3202.85
692.063	3084.07
692.252	3129.13
692.442	3090.21
692.631	3182.37
692.82	3067.69
693.01	3235.62
693.199	3026.73
693.388	3004.2
693.578	3053.35
693.767	2981.67
693.956	3077.93
694.146	2914.09
694.335	2834.22
694.524	2920.23
694.713	2953
694.902	3026.73
695.092	2895.66
695.281	2705.2
695.47	2823.98
695.659	2883.37
695.848	2852.65
696.037	2858.79
696.226	2717.48
696.415	2742.06
696.604	2832.17
696.793	2715.44
696.982	2760.49
697.171	2813.74
697.36	2760.49
697.549	2787.11
697.738	2711.34
697.927	2680.62
698.116	2803.5
698.305	2760.49
698.494	2662.19
698.683	2656.04
698.872	2776.87
699.061	2492.21
699.25	2649.9
699.438	2701.1
699.627	2750.25
699.816	2627.37
700.005	2598.7
700.193	2651.95
700.382	2668.33
700.571	2516.78
700.76	2592.56
700.948	2578.22
701.137	2582.32
701.326	2613.04
701.514	2721.58
701.703	2637.61
701.892	2518.83
702.08	2649.9
702.269	2645.8
702.457	2598.7
702.646	2531.12
702.834	2567.98
703.023	2469.68
703.212	2608.94
703.4	2453.3
703.589	2430.77
703.777	2518.83
703.965	2441.01
704.154	2481.97
704.342	2457.39
704.531	2465.58
704.719	2572.08
704.907	2463.54
705.096	2490.16
705.284	2533.17
705.472	2481.97
705.661	2342.71
705.849	2492.21
706.037	2510.64
706.226	2484.02
706.414	2475.82
706.602	2414.38
706.79	2545.45
706.979	2447.15
707.167	2469.68
707.355	2410.29
707.543	2334.51
707.731	2338.61
707.919	2486.06
708.107	2387.76
708.296	2436.91
708.484	2430.77
708.672	2531.12
708.86	2424.62
709.048	2400.05
709.236	2389.81
709.424	2465.58
709.612	2398
709.8	2254.64
709.988	2451.25
710.176	2285.36
710.364	2383.66
710.551	2299.7
710.739	2479.92
710.927	2373.43
711.115	2447.15
711.303	2303.79
711.491	2365.23
711.679	2469.68
711.866	2400.05
712.054	2385.71
712.242	2301.75
712.43	2453.3
712.617	2363.19
712.805	2492.21
712.993	2301.75
713.181	2422.58
713.368	2445.1
713.556	2463.54
713.744	2369.33
713.931	2383.66
714.119	2365.23
714.306	2424.62
714.494	2234.16
714.682	2418.48
714.869	2295.6
715.057	2359.09
715.244	2369.33
715.432	2371.38
715.619	2330.42
715.807	2416.43
715.994	2332.47
716.182	2328.37
716.369	2320.18
716.556	2301.75
716.744	2348.85
716.931	2322.23
717.119	2412.34
717.306	2307.89
717.493	2328.37
717.681	2361.14
717.868	2383.66
718.055	2389.81
718.242	2352.95
718.43	2357.04
718.617	2266.93
718.804	2441.01
718.991	2475.82
719.179	2342.71
719.366	2334.51
719.553	2371.38
719.74	2320.18
719.927	2289.46
720.114	2400.05
720.301	2342.71
720.488	2389.81
720.676	2301.75
720.863	2293.55
721.05	2377.52
721.237	2502.45
721.424	2496.3
721.611	2352.95
721.798	2305.84
721.985	2408.24
722.172	2293.55
722.358	2318.13
722.545	2441.01
722.732	2383.66
722.919	2389.81
723.106	2363.19
723.293	2359.09
723.48	2510.64
723.667	2346.8
723.853	2406.19
724.04	2477.87
724.227	2445.1
724.414	2406.19
724.6	2406.19
724.787	2494.26
724.974	2516.78
725.161	2295.6
725.347	2422.58
725.534	2404.14
725.72	2436.91
725.907	2295.6
726.094	2481.97
726.28	2451.25
726.467	2453.3
726.653	2385.71
726.84	2418.48
727.027	2488.11
727.213	2445.1
727.4	2428.72
727.586	2211.64
727.773	2373.43
727.959	2436.91
728.145	2455.34
728.332	2416.43
728.518	2387.76
728.705	2453.3
728.891	2465.58
729.077	2424.62
729.264	2457.39
729.45	2475.82
729.636	2434.86
729.823	2340.66
730.009	2465.58
730.195	2537.26
730.382	2352.95
730.568	2438.96
730.754	2492.21
730.94	2490.16
731.126	2461.49
731.313	2531.12
731.499	2467.63
731.685	2604.85
731.871	2430.77
732.057	2465.58
732.243	2475.82
732.429	2416.43
732.615	2467.63
732.801	2586.41
732.987	2488.11
733.173	2500.4
733.359	2563.89
733.545	2469.68
733.731	2484.02
733.917	2479.92
734.103	2492.21
734.289	2580.27
734.475	2469.68
734.661	2457.39
734.847	2432.82
735.033	2576.17
735.219	2539.31
735.404	2441.01
735.59	2596.65
735.776	2516.78
735.962	2584.37
736.148	2502.45
736.333	2490.16
736.519	2502.45
736.705	2594.61
736.89	2602.8
737.076	2551.6
737.262	2473.78
737.447	2494.26
737.633	2434.86
737.819	2473.78
738.004	2463.54
738.19	2422.58
738.375	2422.58
738.561	2643.76
738.747	2506.54
738.932	2377.52
739.118	2572.08
739.303	2582.32
739.489	2467.63
739.674	2477.87
739.859	2490.16
740.045	2426.67
740.23	2416.43
740.416	2438.96
740.601	2445.1
740.786	2430.77
740.972	2363.19
741.157	2398
741.342	2381.62
741.528	2520.88
741.713	2447.15
741.898	2484.02
742.084	2514.73
742.269	2322.23
742.454	2436.91
742.639	2391.86
742.824	2367.28
743.01	2361.14
743.195	2375.47
743.38	2451.25
743.565	2395.95
743.75	2342.71
743.935	2295.6
744.12	2350.9
744.305	2367.28
744.49	2340.66
744.675	2316.08
744.86	2371.38
745.045	2285.36
745.23	2367.28
745.415	2258.74
745.6	2248.5
745.785	2156.34
745.97	2344.75
746.155	2246.45
746.34	2287.41
746.525	2213.68
746.71	2180.92
746.895	2174.77
747.079	2090.81
747.264	2080.57
747.449	2148.15
747.634	2182.96
747.819	2234.16
748.003	2084.66
748.188	2015.03
748.373	2125.62
748.557	2121.52
748.742	2082.61
748.927	2117.43
749.111	2023.22
749.296	2035.51
749.481	2070.33
749.665	2068.28
749.85	2047.8
750.034	2037.56
750.219	2060.09
750.404	1965.88
750.588	1976.12
750.773	1914.68
750.957	1974.07
751.141	1910.58
751.326	2012.98
751.51	1888.06
751.695	1943.35
751.879	1963.83
752.064	1947.45
752.248	1879.86
752.432	1738.55
752.617	1816.38
752.801	1836.86
752.985	1877.82
753.17	1799.99
753.354	1912.63
753.538	1746.75
753.722	1738.55
753.907	1707.84
754.091	1781.56
754.275	1810.23
754.459	1644.35
754.643	1681.21
754.828	1789.75
755.012	1724.22
755.196	1613.63
755.38	1675.07
755.564	1632.06
755.748	1576.77
755.932	1625.92
756.116	1607.48
756.3	1656.64
756.484	1486.65
756.668	1568.57
756.852	1615.68
757.036	1683.26
757.22	1576.77
757.404	1621.82
757.588	1537.85
757.772	1509.18
757.956	1535.81
758.14	1535.81
758.323	1519.42
758.507	1613.63
758.691	1412.93
758.875	1535.81
759.059	1486.65
759.242	1412.93
759.426	1550.14
759.61	1472.32
759.794	1468.22
759.977	1474.37
760.161	1402.69
760.345	1457.98
760.528	1410.88
760.712	1447.74
760.895	1347.39
761.079	1427.26
761.263	1347.39
761.446	1324.87
761.63	1288
761.813	1314.63
761.997	1283.91
762.18	1292.1
762.364	1331.01
762.547	1249.09
762.731	1320.77
762.914	1357.63
763.098	1185.6
763.281	1302.34
763.464	1253.19
763.648	1226.56
763.831	1173.32
764.015	1210.18
764.198	1169.22
764.381	1283.91
764.564	1279.81
764.748	1249.09
764.931	1263.43
765.114	1228.61
765.297	1240.9
765.481	1113.92
765.664	1195.84
765.847	1191.75
766.03	1244.99
766.213	1251.14
766.397	1214.27
766.58	1156.93
766.763	1187.65
766.946	1232.71
767.129	1177.41
767.312	1169.22
767.495	1138.5
767.678	1111.88
767.861	1242.95
768.044	1204.03
768.227	1148.74
768.41	1081.16
768.593	1066.82
768.776	1204.03
768.959	1081.16
769.142	1109.83
769.324	1079.11
769.507	1228.61
769.69	1126.21
769.873	1040.2
770.056	1158.98
770.239	1066.82
770.421	1189.7
770.604	1142.6
770.787	1001.29
770.97	997.19
771.152	1044.29
771.335	1068.87
771.518	989
771.7	1044.29
771.883	1130.31
772.066	1066.82
772.248	1021.77
772.431	1103.68
772.613	1056.58
772.796	1017.67
772.978	1001.29
773.161	894.79
773.343	952.13
773.526	972.61
773.708	964.42
773.891	898.89
774.073	886.6
774.256	925.51
774.438	972.61
774.621	878.41
774.803	900.94
774.985	915.27
775.168	880.46
775.35	851.78
775.532	974.66
775.715	888.65
775.897	972.61
776.079	925.51
776.261	874.31
776.444	827.21
776.626	847.69
776.808	773.96
776.99	866.12
777.173	829.26
777.355	855.88
777.537	804.68
777.719	859.98
777.901	640.84
778.083	839.5
778.265	763.72
778.447	843.59
778.629	855.88
778.811	784.2
778.993	778.06
779.175	790.35
779.357	749.39
779.539	788.3
779.721	722.76
779.903	794.44
780.085	745.29
780.267	767.82
780.449	696.14
780.631	773.96
780.812	718.67
780.994	724.81
781.176	624.46
781.358	671.56
781.54	685.9
781.721	640.84
781.903	679.75
782.085	663.37
782.267	726.86
782.448	560.97
782.63	681.8
782.812	702.28
782.993	704.33
783.175	667.47
783.357	659.28
783.538	577.36
783.72	671.56
783.901	558.92
784.083	585.55
784.264	593.74
784.446	685.9
784.627	595.79
784.809	577.36
784.99	612.17
785.172	577.36
785.353	655.18
785.535	579.4
785.716	622.41
785.897	497.49
786.079	589.64
786.26	497.49
786.441	579.4
786.623	581.45
786.804	517.97
786.985	556.88
787.167	552.78
787.348	560.97
787.529	534.35
787.71	595.79
787.891	481.1
788.073	481.1
788.254	499.53
788.435	460.62
788.616	442.19
788.797	470.86
788.978	497.49
789.159	477.01
789.34	474.96
789.522	429.9
789.703	491.34
789.884	493.39
790.065	520.01
790.246	552.78
790.427	442.19
790.607	493.39
790.788	395.09
790.969	460.62
791.15	444.24
791.331	417.61
791.512	446.29
791.693	477.01
791.874	417.61
792.054	458.57
792.235	536.4
792.416	421.71
792.597	395.09
792.778	417.61
792.958	413.52
793.139	464.72
793.32	446.29
793.5	421.71
793.681	405.33
793.862	425.81
794.042	354.13
794.223	419.66
794.404	390.99
794.584	372.56
794.765	427.85
794.945	274.26
795.126	343.89
795.306	427.85
795.487	300.88
795.667	405.33
795.848	360.27
796.028	343.89
796.209	341.84
796.389	384.85
796.57	429.9
796.75	354.13
796.93	376.66
797.111	337.74
797.291	343.89
797.471	370.51
797.652	329.55
797.832	321.36
798.012	341.84
798.192	311.12
798.373	360.27
798.553	372.56
798.733	393.04
798.913	327.5
799.093	317.26
799.274	253.78
799.454	329.55
799.634	378.7
799.814	364.37
799.994	317.26
800.174	413.52
800.354	304.98
800.534	319.31
800.714	327.5
800.894	249.68
801.074	216.91
801.254	284.5
801.434	317.26
801.614	309.07
801.794	272.21
801.974	614.22
802.154	278.35
802.334	403.28
802.514	235.35
802.693	268.11
802.873	341.84
803.053	331.6
803.233	196.43
803.413	243.54
803.592	261.97
803.772	245.59
803.952	354.13
804.131	321.36
804.311	296.78
804.491	304.98
804.67	309.07
804.85	231.25
805.03	278.35
805.209	304.98
805.389	210.77
805.568	268.11
805.748	264.02
805.928	175.95
806.107	266.07
806.287	276.31
806.466	296.78
806.646	214.87
806.825	270.16
807.004	235.35
807.184	237.39
807.363	331.6
807.543	214.87
807.722	184.15
807.901	225.11
808.081	235.35
808.26	169.81
808.439	292.69
808.619	178
808.798	192.34
808.977	247.63
809.156	298.83
809.336	253.78
809.515	223.06
809.694	190.29
809.873	227.15
810.052	264.02
810.231	270.16
810.411	221.01
810.59	241.49
810.769	313.17
810.948	255.83
811.127	210.77
811.306	233.3
811.485	210.77
811.664	186.19
811.843	194.39
812.022	200.53
812.201	184.15
812.38	231.25
812.559	288.59
812.737	169.81
812.916	186.19
813.095	188.24
813.274	266.07
813.453	229.2
813.632	204.63
813.811	210.77
813.989	180.05
814.168	139.09
814.347	112.47
814.526	233.3
814.704	147.28
814.883	227.15
815.062	210.77
815.24	210.77
815.419	128.85
815.598	151.38
815.776	149.33
815.955	165.71
816.133	77.65
816.312	229.2
816.49	167.76
816.669	167.76
816.847	89.94
817.026	173.91
817.204	200.53
817.383	235.35
817.561	139.09
817.74	155.47
817.918	206.67
818.097	196.43
818.275	143.19
818.453	200.53
818.632	214.87
818.81	120.66
818.988	141.14
819.167	122.71
819.345	120.66
819.523	175.95
819.701	124.76
819.879	173.91
820.058	186.19
820.236	147.28
820.414	186.19
820.592	194.39
820.77	180.05
820.948	231.25
821.127	104.28
821.305	173.91
821.483	147.28
821.661	171.86
821.839	180.05
822.017	135
822.195	214.87
822.373	173.91
822.551	137.04
822.729	188.24
822.907	114.52
823.085	245.59
823.262	180.05
823.44	110.42
823.618	151.38
823.796	104.28
823.974	110.42
824.152	165.71
824.329	145.24
824.507	270.16
824.685	122.71
824.863	169.81
825.04	143.19
825.218	208.72
825.396	100.18
825.574	196.43
825.751	137.04
825.929	75.6
826.107	178
826.284	110.42
826.462	120.66
826.639	149.33
826.817	77.65
826.994	135
827.172	79.7
827.349	190.29
827.527	106.32
827.704	143.19
827.882	161.62
828.059	208.72
828.237	48.98
828.414	175.95
828.591	98.13
828.769	184.15
828.946	126.8
829.124	128.85
829.301	163.67
829.478	75.6
829.655	137.04
829.833	100.18
830.01	110.42
830.187	149.33
830.364	81.75
830.542	182.1
830.719	163.67
830.896	106.32
831.073	128.85
831.25	110.42
831.427	151.38
831.604	188.24
831.782	79.7
831.959	161.62
832.136	102.23
832.313	175.95
832.49	20.31
832.667	128.85
832.844	141.14
833.021	153.43
833.198	100.18
833.374	87.89
833.551	61.27
833.728	169.81
833.905	126.8
834.082	110.42
834.259	77.65
834.436	120.66
834.612	46.93
834.789	36.69
834.966	83.8
835.143	106.32
835.319	137.04
835.496	149.33
835.673	87.89
835.85	108.37
836.026	98.13
836.203	-14.51
836.38	98.13
836.556	51.03
836.733	102.23
836.909	110.42
837.086	110.42
837.262	110.42
837.439	108.37
837.616	65.36
837.792	163.67
837.968	79.7
838.145	98.13
838.321	48.98
838.498	85.84
838.674	149.33
838.851	-61.61
839.027	132.95
839.203	59.22
839.38	114.52
839.556	94.04
839.732	149.33
839.909	81.75
840.085	65.36
840.261	55.12
840.437	126.8
840.614	135
840.79	77.65
840.966	122.71
841.142	132.95
841.318	73.56
841.494	77.65
841.671	110.42
841.847	51.03
842.023	141.14
842.199	30.55
842.375	36.69
842.551	81.75
842.727	55.12
842.903	96.08
843.079	12.12
843.255	94.04
843.431	120.66
843.607	102.23
843.783	12.12
843.959	118.61
844.134	48.98
844.31	83.8
844.486	20.31
844.662	57.17
844.838	137.04
845.013	171.86
845.189	48.98
845.365	55.12
845.541	77.65
845.716	139.09
845.892	110.42
846.068	67.41
846.244	79.7
846.419	42.84
846.595	20.31
846.77	44.88
846.946	81.75
847.122	120.66
847.297	36.69
847.473	36.69
847.648	40.79
847.824	44.88
847.999	30.55
848.175	100.18
848.35	73.56
848.526	36.69
848.701	65.36
848.876	104.28
849.052	112.47
849.227	57.17
849.403	100.18
849.578	30.55
849.753	77.65
849.929	122.71
850.104	89.94
850.279	98.13
850.454	100.18
850.63	71.51
850.805	73.56
850.98	102.23
851.155	26.45
851.33	32.6
851.505	46.93
851.681	71.51
851.856	34.64
852.031	110.42
852.206	67.41
852.381	83.8
852.556	63.32
852.731	-0.17
852.906	51.03
853.081	-12.46
853.256	71.51
853.431	87.89
853.606	83.8
853.781	85.84
853.956	28.5
854.131	81.75
854.305	-12.46
854.48	102.23
854.655	44.88
854.83	34.64
855.005	67.41
855.18	36.69
855.354	87.89
855.529	65.36
855.704	51.03
855.879	171.86
856.053	5.97
856.228	51.03
856.403	3.93
856.577	81.75
856.752	73.56
856.926	57.17
857.101	14.17
857.276	30.55
857.45	20.31
857.625	75.6
857.799	-14.51
857.974	20.31
858.148	28.5
858.323	42.84
858.497	57.17
858.672	48.98
858.846	30.55
859.02	159.57
859.195	1.88
859.369	77.65
859.543	81.75
859.718	28.5
859.892	34.64
860.066	114.52
860.241	20.31
860.415	38.74
860.589	61.27
860.763	91.99
860.938	32.6
861.112	24.4
861.286	36.69
861.46	-16.55
861.634	22.36
861.808	20.31
861.982	22.36
862.157	-6.31
862.331	34.64
862.505	14.17
862.679	40.79
862.853	48.98
863.027	106.32
863.201	98.13
863.375	-6.31
863.549	12.12
863.722	28.5
863.896	51.03
864.07	69.46
864.244	34.64
864.418	53.08
864.592	5.97
864.766	40.79
864.939	5.97
865.113	36.69
865.287	8.02
865.461	-22.7
865.634	108.37
865.808	63.32
865.982	30.55
866.156	40.79
866.329	38.74
866.503	-26.79
866.676	96.08
866.85	36.69
867.024	36.69
867.197	5.97
867.371	48.98
867.544	46.93
867.718	51.03
867.891	53.08
868.065	96.08
868.238	57.17
868.412	-20.65
868.585	1.88
868.759	-4.27
868.932	67.41
869.105	-18.6
869.279	130.9
869.452	85.84
869.625	36.69
869.799	1.88
869.972	16.21
870.145	5.97
870.319	-14.51
870.492	89.94
870.665	24.4
870.838	34.64
871.011	24.4
871.185	-0.17
871.358	57.17
871.531	16.21
871.704	59.22
871.877	-20.65
872.05	36.69
872.223	20.31
872.396	-39.08
872.569	73.56
872.742	57.17
872.915	48.98
873.088	59.22
873.261	-2.22
873.434	51.03
873.607	65.36
873.78	22.36
873.953	44.88
874.126	32.6
874.299	67.41
874.471	-12.46
874.644	44.88
874.817	10.07
874.99	87.89
875.163	59.22
875.335	71.51
875.508	48.98
875.681	100.18
875.853	18.26
876.026	24.4
876.199	85.84
876.371	-18.6
876.544	-0.17
876.717	42.84
876.889	42.84
877.062	75.6
877.234	-28.84
877.407	22.36
877.579	10.07
877.752	5.97
877.924	24.4
878.097	57.17
878.269	59.22
878.442	48.98
878.614	16.21
878.786	18.26
878.959	46.93
879.131	65.36
879.303	-34.99
879.476	20.31
879.648	16.21
879.82	59.22
879.993	-47.27
880.165	38.74
880.337	-4.27
880.509	44.88
880.681	-47.27
880.854	30.55
881.026	61.27
881.198	98.13
881.37	44.88
881.542	5.97
881.714	-45.23
881.886	104.28
882.058	-39.08
882.23	36.69
882.402	-2.22
882.574	85.84
882.746	36.69
882.918	85.84
883.09	71.51
883.262	63.32
883.434	14.17
883.606	48.98
883.778	81.75
883.95	57.17
884.122	87.89
884.293	12.12
884.465	16.21
884.637	53.08
884.809	-45.23
884.98	18.26
885.152	18.26
885.324	57.17
885.496	-6.31
885.667	12.12
885.839	-20.65
886.011	44.88
886.182	-8.36
886.354	79.7
886.525	12.12
886.697	30.55
886.869	24.4
887.04	22.36
887.212	46.93
887.383	38.74
887.555	96.08
887.726	16.21
887.897	30.55
888.069	57.17
888.24	3.93
888.412	57.17
888.583	-14.51
888.754	1.88
888.926	110.42
889.097	120.66
889.268	28.5
889.44	16.21
889.611	-18.6
889.782	51.03
889.953	3.93
890.125	36.69
890.296	8.02
890.467	-2.22
890.638	-20.65
890.809	26.45
890.98	22.36
891.151	34.64
891.323	16.21
891.494	65.36
891.665	96.08
891.836	46.93
892.007	42.84
892.178	130.9
892.349	114.52
892.52	32.6
892.691	22.36
892.862	-53.42
893.032	18.26
893.203	-8.36
893.374	20.31
893.545	1.88
893.716	8.02
893.887	75.6
894.057	85.84
894.228	-14.51
894.399	71.51
894.57	34.64
894.74	32.6
894.911	42.84
895.082	5.97
895.253	-6.31
895.423	-30.89
895.594	-14.51
895.764	51.03
895.935	1.88
896.106	75.6
896.276	-2.22
896.447	10.07
896.617	-30.89
896.788	1.88
896.958	12.12
897.129	10.07
897.299	16.21
897.47	91.99
897.64	32.6
897.81	40.79
897.981	24.4
898.151	-14.51
898.322	16.21
898.492	24.4
898.662	12.12
898.832	57.17
899.003	20.31
899.173	-55.47
899.343	79.7
899.513	1.88
