Data from USB4F104151__74__11-45-28-447.txt Node

Date: Fri Mar 14 11:45:28 EDT 2025
User: louis
Spectrometer: USB4F10415
Trigger mode: 4
Integration Time (sec): 2.000000E-2
Scans to average: 1
Electric dark correction enabled: true
Nonlinearity correction enabled: false
Boxcar width: 0
XAxis mode: Wavelengths
Number of Pixels in Spectrum: 3648
>>>>>Begin Spectral Data<<<<<
178.204	-91.13
178.424	-91.13
178.644	-91.13
178.864	-82.94
179.084	-93.18
179.304	23.55
179.524	64.51
179.744	-41.98
179.964	9.22
180.184	-27.65
180.404	11.26
180.624	-7.17
180.844	9.22
181.064	-33.79
181.283	41.98
181.503	-33.79
181.723	-15.36
181.943	-27.65
182.163	93.18
182.383	-19.46
182.602	50.18
182.822	70.65
183.042	115.71
183.262	35.84
183.482	41.98
183.701	1.02
183.921	-15.36
184.141	-19.46
184.361	25.6
184.58	39.94
184.8	76.8
185.02	72.7
185.239	15.36
185.459	29.7
185.679	44.03
185.898	-13.31
186.118	54.27
186.338	62.46
186.557	160.77
186.777	35.84
186.997	27.65
187.216	-54.27
187.436	62.46
187.655	72.7
187.875	62.46
188.095	-52.22
188.314	62.46
188.534	11.26
188.753	44.03
188.973	33.79
189.192	11.26
189.412	109.57
189.631	58.37
189.851	54.27
190.07	64.51
190.29	70.65
190.509	56.32
190.729	23.55
190.948	1.02
191.168	84.99
191.387	-7.17
191.607	29.7
191.826	93.18
192.045	70.65
192.265	7.17
192.484	25.6
192.704	44.03
192.923	-39.94
193.142	119.81
193.362	46.08
193.581	44.03
193.8	13.31
194.02	13.31
194.239	-46.08
194.458	82.94
194.678	21.5
194.897	25.6
195.116	-3.07
195.335	74.75
195.555	52.22
195.774	-29.7
195.993	58.37
196.212	37.89
196.432	37.89
196.651	99.33
196.87	60.42
197.089	70.65
197.308	41.98
197.528	33.79
197.747	5.12
197.966	78.85
198.185	84.99
198.404	-3.07
198.623	29.7
198.842	-7.17
199.062	78.85
199.281	62.46
199.5	56.32
199.719	27.65
199.938	50.18
200.157	105.47
200.376	87.04
200.595	44.03
200.814	7.17
201.033	80.89
201.252	35.84
201.471	31.74
201.69	15.36
201.909	52.22
202.128	84.99
202.347	37.89
202.566	50.18
202.785	23.55
203.004	33.79
203.223	103.42
203.442	87.04
203.661	39.94
203.879	50.18
204.098	64.51
204.317	56.32
204.536	101.37
204.755	31.74
204.974	-9.22
205.193	19.46
205.411	54.27
205.63	-9.22
205.849	50.18
206.068	101.37
206.287	3.07
206.505	89.09
206.724	29.7
206.943	17.41
207.162	50.18
207.381	-15.36
207.599	41.98
207.818	-1.02
208.037	44.03
208.255	48.13
208.474	5.12
208.693	21.5
208.911	50.18
209.13	44.03
209.349	37.89
209.567	76.8
209.786	70.65
210.005	93.18
210.223	9.22
210.442	-9.22
210.661	15.36
210.879	35.84
211.098	21.5
211.316	105.47
211.535	50.18
211.753	19.46
211.972	97.28
212.191	68.61
212.409	115.71
212.628	78.85
212.846	9.22
213.065	50.18
213.283	82.94
213.502	-58.37
213.72	66.56
213.938	33.79
214.157	-1.02
214.375	13.31
214.594	103.42
214.812	13.31
215.031	66.56
215.249	-1.02
215.467	-19.46
215.686	27.65
215.904	39.94
216.122	46.08
216.341	-5.12
216.559	-46.08
216.778	25.6
216.996	5.12
217.214	1.02
217.432	-13.31
217.651	3.07
217.869	35.84
218.087	21.5
218.306	-37.89
218.524	-29.7
218.742	48.13
218.96	58.37
219.179	56.32
219.397	76.8
219.615	66.56
219.833	66.56
220.051	29.7
220.27	66.56
220.488	37.89
220.706	-1.02
220.924	62.46
221.142	7.17
221.36	13.31
221.578	50.18
221.796	33.79
222.015	27.65
222.233	-11.26
222.451	117.76
222.669	68.61
222.887	62.46
223.105	-7.17
223.323	33.79
223.541	56.32
223.759	-23.55
223.977	17.41
224.195	70.65
224.413	-1.02
224.631	44.03
224.849	27.65
225.067	87.04
225.285	-21.5
225.503	27.65
225.721	54.27
225.939	82.94
226.157	-17.41
226.375	78.85
226.592	109.57
226.81	-3.07
227.028	-13.31
227.246	-3.07
227.464	33.79
227.682	11.26
227.9	25.6
228.117	41.98
228.335	33.79
228.553	5.12
228.771	60.42
228.989	80.89
229.206	44.03
229.424	60.42
229.642	58.37
229.86	29.7
230.077	119.81
230.295	-29.7
230.513	-27.65
230.731	3.07
230.948	5.12
231.166	-5.12
231.384	25.6
231.601	11.26
231.819	97.28
232.037	48.13
232.254	-44.03
232.472	17.41
232.689	3.07
232.907	72.7
233.125	56.32
233.342	123.9
233.56	44.03
233.777	46.08
233.995	11.26
234.213	60.42
234.43	11.26
234.648	29.7
234.865	50.18
235.083	93.18
235.3	29.7
235.518	50.18
235.735	119.81
235.953	62.46
236.17	70.65
236.388	66.56
236.605	37.89
236.822	-17.41
237.04	7.17
237.257	-33.79
237.475	25.6
237.692	19.46
237.909	60.42
238.127	25.6
238.344	68.61
238.562	-7.17
238.779	9.22
238.996	23.55
239.214	72.7
239.431	89.09
239.648	41.98
239.865	82.94
240.083	-7.17
240.3	56.32
240.517	5.12
240.735	37.89
240.952	23.55
241.169	115.71
241.386	33.79
241.603	37.89
241.821	5.12
242.038	109.57
242.255	115.71
242.472	76.8
242.689	39.94
242.907	56.32
243.124	66.56
243.341	41.98
243.558	39.94
243.775	1.02
243.992	-19.46
244.209	41.98
244.426	160.77
244.643	21.5
244.86	11.26
245.078	15.36
245.295	21.5
245.512	21.5
245.729	7.17
245.946	66.56
246.163	46.08
246.38	5.12
246.597	25.6
246.814	64.51
247.031	46.08
247.248	37.89
247.464	13.31
247.681	50.18
247.898	62.46
248.115	25.6
248.332	91.13
248.549	101.37
248.766	35.84
248.983	111.61
249.2	76.8
249.417	58.37
249.633	54.27
249.85	39.94
250.067	72.7
250.284	9.22
250.501	54.27
250.717	68.61
250.934	52.22
251.151	-21.5
251.368	29.7
251.585	64.51
251.801	29.7
252.018	9.22
252.235	97.28
252.451	-1.02
252.668	31.74
252.885	21.5
253.102	58.37
253.318	82.94
253.535	44.03
253.752	33.79
253.968	17.41
254.185	23.55
254.401	105.47
254.618	46.08
254.835	23.55
255.051	107.52
255.268	33.79
255.484	48.13
255.701	37.89
255.917	9.22
256.134	74.75
256.351	-27.65
256.567	-39.94
256.784	48.13
257	7.17
257.217	41.98
257.433	60.42
257.65	107.52
257.866	72.7
258.082	-1.02
258.299	123.9
258.515	46.08
258.732	-5.12
258.948	7.17
259.165	37.89
259.381	103.42
259.597	-13.31
259.814	41.98
260.03	-3.07
260.246	39.94
260.463	50.18
260.679	37.89
260.895	19.46
261.112	56.32
261.328	39.94
261.544	-46.08
261.761	70.65
261.977	50.18
262.193	44.03
262.409	134.14
262.626	44.03
262.842	64.51
263.058	72.7
263.274	103.42
263.49	56.32
263.707	11.26
263.923	27.65
264.139	39.94
264.355	58.37
264.571	97.28
264.787	27.65
265.004	-31.74
265.22	-13.31
265.436	82.94
265.652	31.74
265.868	68.61
266.084	70.65
266.3	58.37
266.516	-9.22
266.732	33.79
266.948	31.74
267.164	21.5
267.38	64.51
267.596	44.03
267.812	41.98
268.028	82.94
268.244	39.94
268.46	44.03
268.676	27.65
268.892	15.36
269.108	95.23
269.324	50.18
269.54	13.31
269.756	68.61
269.972	62.46
270.188	35.84
270.403	31.74
270.619	44.03
270.835	1.02
271.051	-5.12
271.267	15.36
271.483	-19.46
271.698	68.61
271.914	82.94
272.13	-27.65
272.346	62.46
272.562	62.46
272.777	74.75
272.993	33.79
273.209	35.84
273.425	50.18
273.64	93.18
273.856	87.04
274.072	66.56
274.287	70.65
274.503	46.08
274.719	70.65
274.934	-23.55
275.15	60.42
275.366	89.09
275.581	13.31
275.797	119.81
276.012	39.94
276.228	50.18
276.444	72.7
276.659	82.94
276.875	-11.26
277.09	62.46
277.306	50.18
277.521	41.98
277.737	11.26
277.952	72.7
278.168	37.89
278.383	66.56
278.599	25.6
278.814	33.79
279.03	13.31
279.245	68.61
279.461	125.95
279.676	87.04
279.892	33.79
280.107	11.26
280.322	-1.02
280.538	37.89
280.753	25.6
280.969	19.46
281.184	13.31
281.399	33.79
281.615	-5.12
281.83	29.7
282.045	84.99
282.26	-1.02
282.476	70.65
282.691	33.79
282.906	70.65
283.122	125.95
283.337	27.65
283.552	1.02
283.767	46.08
283.983	56.32
284.198	29.7
284.413	91.13
284.628	58.37
284.843	9.22
285.058	56.32
285.274	-33.79
285.489	-11.26
285.704	103.42
285.919	7.17
286.134	58.37
286.349	-1.02
286.564	68.61
286.779	68.61
286.995	84.99
287.21	46.08
287.425	87.04
287.64	-37.89
287.855	-19.46
288.07	74.75
288.285	54.27
288.5	115.71
288.715	50.18
288.93	-7.17
289.145	93.18
289.36	76.8
289.575	17.41
289.79	39.94
290.004	29.7
290.219	62.46
290.434	48.13
290.649	-13.31
290.864	103.42
291.079	-1.02
291.294	76.8
291.509	99.33
291.724	60.42
291.938	46.08
292.153	60.42
292.368	76.8
292.583	70.65
292.798	23.55
293.012	68.61
293.227	52.22
293.442	23.55
293.657	68.61
293.871	39.94
294.086	27.65
294.301	46.08
294.516	31.74
294.73	13.31
294.945	-41.98
295.16	87.04
295.374	-5.12
295.589	54.27
295.804	44.03
296.018	58.37
296.233	113.66
296.447	60.42
296.662	37.89
296.877	11.26
297.091	23.55
297.306	-1.02
297.52	-3.07
297.735	101.37
297.949	50.18
298.164	-5.12
298.378	48.13
298.593	56.32
298.807	29.7
299.022	48.13
299.236	91.13
299.451	74.75
299.665	123.9
299.88	33.79
300.094	82.94
300.309	52.22
300.523	64.51
300.737	3.07
300.952	62.46
301.166	115.71
301.381	-21.5
301.595	68.61
301.809	33.79
302.024	-17.41
302.238	1.02
302.452	66.56
302.667	39.94
302.881	46.08
303.095	35.84
303.309	23.55
303.524	54.27
303.738	1.02
303.952	35.84
304.166	29.7
304.381	33.79
304.595	41.98
304.809	46.08
305.023	50.18
305.237	37.89
305.452	29.7
305.666	31.74
305.88	41.98
306.094	-5.12
306.308	21.5
306.522	56.32
306.736	58.37
306.95	50.18
307.164	-7.17
307.379	50.18
307.593	52.22
307.807	62.46
308.021	60.42
308.235	84.99
308.449	-23.55
308.663	95.23
308.877	62.46
309.091	78.85
309.305	13.31
309.519	5.12
309.733	66.56
309.947	5.12
310.161	91.13
310.374	52.22
310.588	68.61
310.802	-29.7
311.016	91.13
311.23	78.85
311.444	5.12
311.658	60.42
311.872	78.85
312.085	107.52
312.299	41.98
312.513	70.65
312.727	66.56
312.941	50.18
313.154	87.04
313.368	29.7
313.582	39.94
313.796	33.79
314.009	25.6
314.223	117.76
314.437	140.29
314.651	31.74
314.864	3.07
315.078	-54.27
315.292	62.46
315.505	89.09
315.719	89.09
315.933	52.22
316.146	35.84
316.36	35.84
316.573	54.27
316.787	87.04
317.001	50.18
317.214	-54.27
317.428	13.31
317.641	54.27
317.855	41.98
318.068	41.98
318.282	9.22
318.495	109.57
318.709	41.98
318.922	9.22
319.136	13.31
319.349	9.22
319.563	31.74
319.776	1.02
319.99	1.02
320.203	54.27
320.417	125.95
320.63	87.04
320.843	46.08
321.057	119.81
321.27	62.46
321.483	50.18
321.697	72.7
321.91	39.94
322.124	72.7
322.337	50.18
322.55	33.79
322.763	62.46
322.977	44.03
323.19	95.23
323.403	60.42
323.617	54.27
323.83	37.89
324.043	44.03
324.256	33.79
324.469	-29.7
324.683	113.66
324.896	103.42
325.109	84.99
325.322	21.5
325.535	121.85
325.748	17.41
325.962	15.36
326.175	11.26
326.388	66.56
326.601	97.28
326.814	60.42
327.027	64.51
327.24	68.61
327.453	95.23
327.666	130.05
327.879	41.98
328.092	72.7
328.305	46.08
328.518	70.65
328.731	37.89
328.944	87.04
329.157	-11.26
329.37	-5.12
329.583	68.61
329.796	148.48
330.009	82.94
330.222	11.26
330.435	11.26
330.648	11.26
330.861	70.65
331.073	13.31
331.286	35.84
331.499	50.18
331.712	60.42
331.925	46.08
332.138	103.42
332.35	54.27
332.563	1.02
332.776	105.47
332.989	11.26
333.202	103.42
333.414	113.66
333.627	13.31
333.84	31.74
334.053	15.36
334.265	-13.31
334.478	46.08
334.691	31.74
334.903	115.71
335.116	5.12
335.329	11.26
335.541	46.08
335.754	125.95
335.966	78.85
336.179	35.84
336.392	123.9
336.604	74.75
336.817	107.52
337.029	99.33
337.242	74.75
337.454	80.89
337.667	11.26
337.88	93.18
338.092	56.32
338.305	99.33
338.517	62.46
338.729	117.76
338.942	58.37
339.154	-7.17
339.367	48.13
339.579	44.03
339.792	64.51
340.004	78.85
340.217	52.22
340.429	101.37
340.641	46.08
340.854	-17.41
341.066	52.22
341.278	82.94
341.491	84.99
341.703	11.26
341.915	68.61
342.128	-25.6
342.34	80.89
342.552	48.13
342.764	37.89
342.977	68.61
343.189	62.46
343.401	33.79
343.613	13.31
343.826	13.31
344.038	-48.13
344.25	93.18
344.462	35.84
344.674	-37.89
344.886	74.75
345.099	48.13
345.311	107.52
345.523	15.36
345.735	84.99
345.947	97.28
346.159	99.33
346.371	84.99
346.583	66.56
346.795	82.94
347.007	19.46
347.219	52.22
347.431	-21.5
347.643	9.22
347.855	25.6
348.067	115.71
348.279	13.31
348.491	66.56
348.703	58.37
348.915	82.94
349.127	9.22
349.339	13.31
349.551	44.03
349.763	78.85
349.975	107.52
350.187	66.56
350.399	56.32
350.61	23.55
350.822	1.02
351.034	52.22
351.246	44.03
351.458	1.02
351.669	93.18
351.881	35.84
352.093	89.09
352.305	82.94
352.517	87.04
352.728	109.57
352.94	84.99
353.152	29.7
353.363	7.17
353.575	37.89
353.787	60.42
353.999	72.7
354.21	93.18
354.422	80.89
354.633	80.89
354.845	35.84
355.057	52.22
355.268	-37.89
355.48	105.47
355.692	44.03
355.903	-27.65
356.115	13.31
356.326	39.94
356.538	138.24
356.749	91.13
356.961	109.57
357.172	70.65
357.384	111.61
357.595	101.37
357.807	1.02
358.018	56.32
358.23	23.55
358.441	101.37
358.653	60.42
358.864	89.09
359.075	46.08
359.287	25.6
359.498	93.18
359.709	113.66
359.921	97.28
360.132	3.07
360.344	46.08
360.555	70.65
360.766	99.33
360.977	48.13
361.189	74.75
361.4	31.74
361.611	58.37
361.823	9.22
362.034	97.28
362.245	21.5
362.456	70.65
362.667	80.89
362.879	7.17
363.09	37.89
363.301	76.8
363.512	48.13
363.723	56.32
363.935	-27.65
364.146	13.31
364.357	50.18
364.568	93.18
364.779	46.08
364.99	125.95
365.201	82.94
365.412	25.6
365.623	50.18
365.834	56.32
366.045	52.22
366.256	101.37
366.467	99.33
366.678	39.94
366.889	74.75
367.1	21.5
367.311	70.65
367.522	-27.65
367.733	60.42
367.944	64.51
368.155	111.61
368.366	17.41
368.577	101.37
368.788	46.08
368.999	58.37
369.209	21.5
369.42	91.13
369.631	117.76
369.842	29.7
370.053	27.65
370.264	-11.26
370.474	52.22
370.685	101.37
370.896	64.51
371.107	138.24
371.317	93.18
371.528	109.57
371.739	95.23
371.95	105.47
372.16	15.36
372.371	-7.17
372.582	9.22
372.792	199.68
373.003	97.28
373.214	119.81
373.424	93.18
373.635	68.61
373.846	54.27
374.056	62.46
374.267	107.52
374.477	9.22
374.688	19.46
374.898	25.6
375.109	-41.98
375.319	113.66
375.53	113.66
375.74	74.75
375.951	-3.07
376.161	70.65
376.372	123.9
376.582	31.74
376.793	117.76
377.003	76.8
377.214	97.28
377.424	103.42
377.635	56.32
377.845	66.56
378.055	70.65
378.266	11.26
378.476	46.08
378.686	93.18
378.897	25.6
379.107	39.94
379.317	107.52
379.528	142.33
379.738	117.76
379.948	-19.46
380.158	113.66
380.369	91.13
380.579	187.39
380.789	70.65
380.999	72.7
381.21	119.81
381.42	82.94
381.63	25.6
381.84	70.65
382.05	33.79
382.261	101.37
382.471	148.48
382.681	82.94
382.891	35.84
383.101	60.42
383.311	109.57
383.521	123.9
383.731	142.33
383.941	78.85
384.151	15.36
384.361	80.89
384.571	-21.5
384.781	125.95
384.991	111.61
385.201	76.8
385.411	15.36
385.621	9.22
385.831	35.84
386.041	50.18
386.251	25.6
386.461	82.94
386.671	107.52
386.881	78.85
387.091	76.8
387.301	56.32
387.511	17.41
387.72	50.18
387.93	80.89
388.14	1.02
388.35	58.37
388.56	33.79
388.769	58.37
388.979	58.37
389.189	37.89
389.399	9.22
389.609	87.04
389.818	148.48
390.028	21.5
390.238	78.85
390.447	31.74
390.657	70.65
390.867	11.26
391.076	72.7
391.286	68.61
391.496	128
391.705	99.33
391.915	68.61
392.125	60.42
392.334	58.37
392.544	91.13
392.753	82.94
392.963	84.99
393.172	87.04
393.382	82.94
393.591	107.52
393.801	136.19
394.01	109.57
394.22	99.33
394.429	99.33
394.639	72.7
394.848	84.99
395.058	95.23
395.267	82.94
395.477	54.27
395.686	111.61
395.895	113.66
396.105	144.38
396.314	140.29
396.524	132.09
396.733	123.9
396.942	130.05
397.152	70.65
397.361	89.09
397.57	91.13
397.78	97.28
397.989	138.24
398.198	46.08
398.407	162.81
398.617	121.85
398.826	150.53
399.035	78.85
399.244	146.43
399.453	66.56
399.663	160.77
399.872	154.62
400.081	113.66
400.29	138.24
400.499	109.57
400.708	99.33
400.917	158.72
401.127	80.89
401.336	97.28
401.545	195.58
401.754	132.09
401.963	171.01
402.172	91.13
402.381	154.62
402.59	89.09
402.799	121.85
403.008	134.14
403.217	175.1
403.426	142.33
403.635	199.68
403.844	123.9
404.053	246.78
404.262	111.61
404.471	218.11
404.68	158.72
404.888	156.67
405.097	103.42
405.306	119.81
405.515	168.96
405.724	130.05
405.933	183.29
406.142	138.24
406.35	181.25
406.559	185.34
406.768	160.77
406.977	158.72
407.185	205.82
407.394	207.87
407.603	187.39
407.812	164.86
408.02	259.07
408.229	263.16
408.438	246.78
408.646	160.77
408.855	240.64
409.064	300.03
409.272	250.88
409.481	295.93
409.69	302.08
409.898	244.73
410.107	246.78
410.315	330.75
410.524	324.6
410.733	314.36
410.941	361.47
411.15	326.65
411.358	418.81
411.567	390.14
411.775	347.13
411.984	412.67
412.192	336.89
412.401	449.53
412.609	474.1
412.818	494.58
413.026	498.68
413.234	467.96
413.443	474.1
413.651	605.17
413.86	658.42
414.068	582.65
414.276	629.75
414.485	529.4
414.693	605.17
414.901	631.8
415.11	658.42
415.318	627.7
415.526	693.24
415.734	691.19
415.943	705.53
416.151	812.02
416.359	777.2
416.567	838.64
416.776	891.89
416.984	922.61
417.192	879.6
417.4	852.98
417.608	877.55
417.817	1012.72
418.025	969.71
418.233	1102.83
418.441	1074.16
418.649	1215.47
418.857	1244.14
419.065	1313.77
419.273	1258.48
419.481	1305.58
419.689	1379.31
419.897	1453.03
420.105	1393.64
420.313	1559.53
420.521	1586.15
420.729	1471.47
420.937	1569.77
421.145	1670.12
421.353	1741.8
421.561	1768.42
421.769	1725.41
421.977	1948.64
422.185	1958.88
422.393	2057.18
422.601	2143.2
422.809	2094.05
423.017	2184.16
423.224	2180.06
423.432	2413.53
423.64	2317.28
423.848	2558.94
424.056	2522.07
424.263	2706.39
424.471	2706.39
424.679	2825.17
424.887	2773.97
425.094	2880.47
425.302	2986.96
425.51	3054.55
425.718	3128.27
425.925	3199.95
426.133	3408.84
426.341	3627.98
426.548	3683.27
426.756	3636.17
426.964	3646.41
427.171	3898.31
427.379	4021.19
427.586	4060.1
427.794	4162.5
428.001	4344.77
428.209	4690.87
428.417	4598.71
428.624	4807.61
428.832	4924.34
429.039	4889.53
429.247	4987.83
429.454	5401.52
429.662	5524.4
429.869	5268.4
430.076	5512.11
430.284	5772.2
430.491	5684.14
430.699	5970.85
430.906	6134.69
431.114	6058.92
431.321	6400.93
431.528	6544.28
431.736	6880.15
431.943	7289.74
432.15	7146.39
432.358	7078.8
432.565	7529.36
432.772	7537.55
432.979	7848.84
433.187	8037.25
433.394	7975.81
433.601	8586.11
433.808	8547.2
434.016	8547.2
434.223	8952.7
434.43	9235.32
434.637	9110.39
434.844	9984.87
435.052	10021.74
435.259	10199.91
435.466	10007.4
435.673	9925.48
435.88	10574.69
436.087	11182.93
436.294	11213.65
436.501	10933.08
436.708	11033.43
436.915	11666.25
437.122	12114.76
437.329	11901.77
437.537	12227.4
437.743	12688.19
437.95	12432.19
438.157	13173.56
438.364	13534
438.571	13443.89
438.778	13554.48
438.985	14666.53
439.192	14189.35
439.399	14480.16
439.606	14363.43
439.813	15330.07
440.02	16237.32
440.227	15858.45
440.433	15733.52
440.64	16237.32
440.847	16233.22
441.054	16575.24
441.261	17599.22
441.467	17236.73
441.674	17574.64
441.881	18399.98
442.088	18295.53
442.294	17869.55
442.501	18371.3
442.708	18885.34
442.914	19688.15
443.121	20677.32
443.328	20134.6
443.534	21510.84
443.741	20738.76
443.948	20761.28
444.154	22082.22
444.361	22026.93
444.568	22033.07
444.774	21844.66
444.981	22356.65
445.187	23214.75
445.394	24124.05
445.6	23638.68
445.807	26251.89
446.013	24681.1
446.22	25297.53
446.426	26225.26
446.633	26446.44
446.839	27753.05
447.046	26438.25
447.252	27605.59
447.459	27707.99
447.665	27804.25
447.871	29153.86
448.078	30304.82
448.284	29153.86
448.491	29350.46
448.697	30442.03
448.903	31187.49
449.11	31300.13
449.316	30747.18
449.522	31121.96
449.728	31904.28
449.935	32610.83
450.141	32340.5
450.347	32938.51
450.553	32270.87
450.76	32653.84
450.966	34015.74
451.172	33108.49
451.378	33778.17
451.584	33430.02
451.791	34222.58
451.997	34306.55
452.203	34896.36
452.409	34433.52
452.615	34339.32
452.821	33337.86
453.027	32907.79
453.233	34615.79
453.44	33380.87
453.646	33880.57
453.852	33790.46
454.058	34327.03
454.264	33245.7
454.47	34195.96
454.676	33321.48
454.882	34146.81
455.088	31265.31
455.294	31947.29
455.5	32053.78
455.705	32356.88
455.911	31124.01
456.117	30980.65
456.323	30192.18
456.529	28922.44
456.735	29727.29
456.941	29143.62
457.147	28621.39
457.352	27974.23
457.558	27380.32
457.764	27503.2
457.97	27066.98
458.176	26448.49
458.381	26729.06
458.587	25127.55
458.793	25059.97
458.999	23984.79
459.204	25688.7
459.41	24840.84
459.616	23397.02
459.821	23300.76
460.027	23083.68
460.233	22717.09
460.438	21684.92
460.644	21813.94
460.85	20933.31
461.055	20507.34
461.261	20679.36
461.466	19153.63
461.672	18459.37
461.878	19630.8
462.083	18485.99
462.289	18164.46
462.494	17812.21
462.7	17093.37
462.905	16468.74
463.111	17081.08
463.316	17378.04
463.522	16849.66
463.727	16886.53
463.932	16784.13
464.138	16456.45
464.343	16501.51
464.549	16282.38
464.754	16542.47
464.959	16818.94
465.165	16552.71
465.37	16001.8
465.575	15708.94
465.781	16102.15
465.986	16143.11
466.191	15524.63
466.397	15252.25
466.602	14211.88
466.807	14816.03
467.012	15153.94
467.218	15010.59
467.423	14869.28
467.628	14953.24
467.833	15567.63
468.038	15014.68
468.244	14388
468.449	15180.57
468.654	14699.3
468.859	14482.21
469.064	14418.72
469.269	13802.29
469.474	14093.1
469.679	14304.04
469.885	13556.53
470.09	13749.04
470.295	13771.57
470.5	13542.19
470.705	13720.37
470.91	13437.75
471.115	13142.84
471.32	13421.36
471.525	13415.22
471.73	12993.34
471.935	12954.43
472.139	12532.54
472.344	12841.79
472.549	12782.4
472.754	12518.21
472.959	12012.36
473.164	11914.06
473.369	11774.8
473.574	12297.03
473.778	12233.54
473.983	11971.4
474.188	11791.18
474.393	11440.98
474.598	11400.02
474.802	11273.04
475.007	11072.34
475.212	11379.54
475.417	10810.2
475.621	10812.25
475.826	10861.4
476.031	10720.09
476.235	10373.99
476.44	10656.61
476.645	10474.34
476.849	10451.81
477.054	10216.29
477.259	10169.19
477.463	10179.43
477.668	10011.5
477.872	9958.25
478.077	9948.01
478.282	9704.3
478.486	9612.14
478.691	9642.86
478.895	9433.97
479.1	9306.99
479.304	9577.33
479.509	9091.96
479.713	9329.52
479.918	9028.47
480.122	8864.63
480.326	9091.96
480.531	8981.37
480.735	9245.55
480.94	8760.19
481.144	9175.92
481.348	8653.69
481.553	8784.76
481.757	8690.56
481.961	8758.14
482.166	8786.81
482.37	8737.66
482.574	8639.36
482.778	8727.42
482.983	8987.51
483.187	8809.34
483.391	8856.44
483.595	8653.69
483.8	8539.01
484.004	8592.25
484.208	8809.34
484.412	8536.96
484.616	8629.12
484.821	8803.19
485.025	8461.18
485.229	8850.3
485.433	8612.73
485.637	8629.12
485.841	8563.58
486.045	8532.86
486.249	8588.16
486.453	8737.66
486.657	8649.6
486.861	8819.58
487.065	8348.54
487.269	8559.49
487.473	8383.36
487.677	8629.12
487.881	8838.01
488.085	8612.73
488.289	8725.37
488.493	8516.48
488.697	8862.58
488.901	8582.01
489.105	8678.27
489.309	8663.93
489.512	8747.9
489.716	8698.75
489.92	8790.91
490.124	8657.79
490.328	8653.69
490.531	8672.12
490.735	8850.3
490.939	8805.24
491.143	8844.15
491.346	8924.02
491.55	9012.09
491.754	8780.67
491.958	9098.1
492.161	8991.61
492.365	9165.68
492.569	9284.47
492.772	9077.62
492.976	9227.12
493.18	9282.42
493.383	9257.84
493.587	9395.06
493.79	9540.46
493.994	9487.22
494.197	9462.64
494.401	9503.6
494.605	9673.58
494.808	9722.73
495.012	9644.91
495.215	9778.03
495.419	9653.1
495.622	9806.7
495.825	10091.37
496.029	10072.93
496.232	10257.25
496.436	9970.54
496.639	10455.9
496.843	10455.9
497.046	10584.93
497.249	10654.56
497.453	10591.07
497.656	10814.3
497.859	10883.93
498.063	11023.19
498.266	11387.73
498.469	11307.86
498.673	11365.2
498.876	11289.43
499.079	11785.04
499.282	11447.12
499.485	11940.68
499.689	11905.87
499.892	12331.84
500.095	11961.16
500.298	12362.56
500.501	12047.18
500.705	12690.24
500.908	12696.38
501.111	12733.25
501.314	12911.42
501.517	13228.85
501.72	13202.23
501.923	13284.15
502.126	13548.34
502.329	13802.29
502.532	13921.07
502.735	13826.86
502.938	14109.48
503.141	14097.19
503.344	14326.57
503.547	14422.82
503.75	14441.25
503.953	14891.8
504.156	15006.49
504.359	15047.45
504.562	15182.62
504.765	15852.3
504.968	15538.96
505.17	15602.45
505.373	15637.27
505.576	16165.64
505.779	16565
505.982	16337.67
506.185	16687.87
506.387	16868.09
506.59	16990.97
506.793	17216.25
506.996	17273.59
507.198	17699.57
507.401	17824.5
507.604	17529.59
507.807	17961.71
508.009	18291.43
508.212	18166.51
508.415	18565.86
508.617	18846.43
508.82	18836.19
509.022	18916.06
509.225	19104.48
509.428	19339.99
509.63	19571.41
509.833	19690.2
510.035	20181.71
510.238	20019.92
510.44	20230.86
510.643	20660.93
510.845	20986.56
511.048	20738.76
511.25	21123.77
511.453	21035.71
511.655	21701.3
511.858	21562.04
512.06	21985.97
512.262	21947.06
512.465	21973.68
512.667	22495.91
512.87	22753.96
513.072	22645.41
513.274	23276.19
513.477	23399.07
513.679	23405.21
513.881	23716.5
514.084	23978.64
514.286	24027.79
514.488	24205.97
514.69	24812.17
514.893	24664.71
515.095	24877.7
515.297	25295.49
515.499	25475.71
515.701	25762.42
515.904	25881.21
516.106	26192.5
516.308	26538.6
516.51	26716.78
516.712	26608.23
516.914	27030.12
517.116	27697.75
517.318	27529.82
517.52	27435.61
517.722	27847.26
517.925	28090.96
518.127	28668.49
518.329	28666.44
518.531	28355.15
518.733	29237.83
518.935	29420.1
519.136	29407.81
519.338	29608.51
519.54	29897.27
519.742	29940.28
519.944	30302.77
520.146	30741.03
520.348	30599.73
520.55	31058.47
520.752	31091.24
520.954	31834.65
521.155	31371.81
521.357	31685.15
521.559	32018.97
521.761	32326.16
521.963	32694.8
522.164	33075.72
522.366	32713.23
522.568	33317.38
522.77	33395.2
522.971	33688.06
523.173	33681.92
523.375	34052.6
523.576	34140.66
523.778	34044.41
523.98	35146.22
524.181	34847.21
524.383	34773.49
524.584	35490.27
524.786	35408.36
524.988	35412.45
525.189	35854.81
525.391	36231.64
525.592	36221.4
525.794	35957.21
525.995	36239.83
526.197	36231.64
526.398	36325.85
526.6	36798.93
526.801	36968.91
527.003	37065.16
527.204	37403.08
527.406	37734.85
527.607	37505.48
527.808	38050.24
528.01	37237.19
528.211	37437.89
528.412	38390.2
528.614	37937.6
528.815	38191.55
529.016	38511.03
529.218	38310.33
529.419	38785.46
529.62	38934.96
529.822	38330.81
530.023	38508.98
530.224	38398.39
530.425	38605.23
530.626	38377.91
530.828	38640.05
531.029	39512.49
531.23	38566.32
531.431	39229.87
531.632	38900.14
531.833	39258.54
532.035	39377.32
532.236	39371.18
532.437	39424.42
532.638	39113.13
532.839	39395.75
533.04	39745.95
533.241	38980.01
533.442	39858.59
533.643	39598.5
533.844	39481.77
534.045	39561.64
534.246	39535.01
534.447	39879.07
534.648	39786.91
534.849	39553.44
535.05	39420.33
535.251	39870.88
535.451	39319.98
535.652	39688.61
535.853	40049.05
536.054	40235.42
536.255	40161.69
536.456	39193
536.657	40425.88
536.857	39668.13
537.058	39743.91
537.259	40055.2
537.46	39582.12
537.66	39522.72
537.861	39795.1
538.062	39825.82
538.263	39809.44
538.463	39522.72
538.664	39770.53
538.865	40024.48
539.065	40173.98
539.266	39829.92
539.466	40202.65
539.667	39319.98
539.868	40356.25
540.068	39717.28
540.269	39741.86
540.469	39901.6
540.67	39365.03
540.87	39494.05
541.071	39616.93
541.271	40110.49
541.472	39915.93
541.672	39678.37
541.873	39328.17
542.073	39258.54
542.274	39942.56
542.474	39426.47
542.675	39322.02
542.875	39676.32
543.075	39504.29
543.276	39293.35
543.476	40317.34
543.676	39602.6
543.877	39975.33
544.077	39451.05
544.277	39784.86
544.478	39487.91
544.678	39954.85
544.878	39723.43
545.078	39674.27
545.279	39424.42
545.479	39391.65
545.679	39492.01
545.879	39733.67
546.079	39500.2
546.28	39590.31
546.48	39184.81
546.68	39383.46
546.88	39530.92
547.08	39811.49
547.28	39440.81
547.48	39635.36
547.68	39436.71
547.88	39137.71
548.081	39250.35
548.281	39322.02
548.481	38934.96
548.681	39704.99
548.881	39578.02
549.081	39434.66
549.28	38926.77
549.48	39238.06
549.68	39387.56
549.88	39862.69
550.08	39225.77
550.28	39492.01
550.48	39299.5
550.68	39438.76
550.88	39020.97
551.08	39281.06
551.279	39215.53
551.479	39070.12
551.679	39244.2
551.879	39004.59
552.079	39281.06
552.278	39285.16
552.478	38828.46
552.678	39217.58
552.878	39389.61
553.077	38549.94
553.277	38646.19
553.477	39575.97
553.676	38773.17
553.876	39090.6
554.076	38517.17
554.275	38977.97
554.475	38476.21
554.674	38846.9
554.874	39188.91
555.074	38627.76
555.273	38762.93
555.473	38816.18
555.672	38801.84
555.872	38502.84
556.071	38484.4
556.271	38801.84
556.47	38601.14
556.67	38189.5
556.869	38443.45
557.068	38517.17
557.268	38363.57
557.467	38435.25
557.667	38869.42
557.866	38670.77
558.065	38386.1
558.265	38486.45
558.464	38140.35
558.663	38250.94
558.863	37849.53
559.062	38605.23
559.261	37505.48
559.461	38404.53
559.66	37638.59
559.859	37624.26
560.058	37650.88
560.258	37472.71
560.457	37261.77
560.656	37532.1
560.855	37134.79
561.054	37345.73
561.253	37472.71
561.453	37409.22
561.652	37466.56
561.851	37550.53
562.05	37315.01
562.249	36846.03
562.448	37609.92
562.647	37005.77
562.846	36809.17
563.045	36981.2
563.244	36587.99
563.443	36897.23
563.642	36573.65
563.841	36778.45
564.04	36796.88
564.239	37145.03
564.438	35934.68
564.637	36420.05
564.836	36174.3
565.035	35875.29
565.234	36143.58
565.432	35854.81
565.631	36211.16
565.83	35936.73
566.029	35903.96
566.228	35695.07
566.427	35666.4
566.625	35465.7
566.824	35160.55
567.023	35596.77
567.222	35189.22
567.42	35482.08
567.619	35133.93
567.818	35090.92
568.016	34945.51
568.215	35355.11
568.414	34980.33
568.612	35047.91
568.811	35113.45
569.01	34884.08
569.208	34105.85
569.407	34820.59
569.605	34030.07
569.804	34566.64
570.002	34425.33
570.201	34566.64
570.4	34159.09
570.598	34066.94
570.797	34023.93
570.995	34060.79
571.193	33753.6
571.392	34073.08
571.59	33763.84
571.789	33864.19
571.987	33415.68
572.186	33143.3
572.384	33126.92
572.582	33434.11
572.781	33409.54
572.979	32918.03
573.177	33243.65
573.376	33217.03
573.574	32709.13
573.772	33024.52
573.971	32551.44
574.169	32883.21
574.367	32399.89
574.565	32690.7
574.763	32277.01
574.962	32451.09
575.16	31912.47
575.358	32449.04
575.556	31734.3
575.754	32315.92
575.952	31740.44
576.151	31861.27
576.349	31699.48
576.547	31521.31
576.745	32256.53
576.943	31629.85
577.141	31658.52
577.339	31805.98
577.537	31601.18
577.735	31570.46
577.933	31132.2
578.131	31228.45
578.329	30970.41
578.527	30960.17
578.725	30773.8
578.923	30994.98
579.121	30908.97
579.319	30587.44
579.516	30956.07
579.714	30798.38
579.912	30460.46
580.11	30356.02
580.308	29999.67
580.506	30384.69
580.704	29647.42
580.901	30093.88
581.099	30415.41
581.297	29827.64
581.495	29942.33
581.692	30231.09
581.89	29522.49
582.088	29821.5
582.285	29786.68
582.483	29819.45
582.681	29510.21
582.878	29303.36
583.076	29207.11
583.274	29530.69
583.471	28793.42
583.669	29131.33
583.866	29088.32
584.064	29061.7
584.262	28768.84
584.459	28963.4
584.657	28506.7
584.854	29006.41
585.052	28414.54
585.249	28785.22
585.447	28795.46
585.644	28179.03
585.841	28277.33
586.039	28412.49
586.236	28019.28
586.434	27695.71
586.631	28025.43
586.828	27839.06
587.026	28160.59
587.223	27454.05
587.42	27734.62
587.618	27939.41
587.815	27660.89
588.012	26956.39
588.21	27157.09
588.407	27646.55
588.604	27171.43
588.801	27214.43
588.999	27257.44
589.196	26841.7
589.393	27023.97
589.59	26976.87
589.787	26712.68
589.984	26667.63
590.182	26597.99
590.379	26591.85
590.576	26479.21
590.773	26399.34
590.97	26190.45
591.167	26413.68
591.364	26219.12
591.561	26282.61
591.758	26032.75
591.955	26208.88
592.152	26180.21
592.349	25811.57
592.546	25705.08
592.743	25877.11
592.94	25631.35
593.137	25516.67
593.334	25582.2
593.531	25184.9
593.727	25490.04
593.924	25252.48
594.121	25242.24
594.318	25313.92
594.515	24955.52
594.712	25160.32
594.908	24953.48
595.105	25031.3
595.302	24824.45
595.499	24967.81
595.696	24597.13
595.892	24466.06
596.089	24435.34
596.286	24478.35
596.482	24373.9
596.679	24203.92
596.876	24162.96
597.072	24183.44
597.269	24300.17
597.466	24019.6
597.662	23986.83
597.859	23906.96
598.055	23761.56
598.252	23351.96
598.448	23769.75
598.645	23526.04
598.841	23605.91
599.038	23028.38
599.234	23501.47
599.431	23452.31
599.627	23100.06
599.824	23589.53
600.02	23028.38
600.217	22993.57
600.413	22958.75
600.609	22706.85
600.806	22749.86
601.002	23259.81
601.198	22686.37
601.395	22729.38
601.591	22493.86
601.787	22422.19
601.984	22276.78
602.18	22377.13
602.376	22543.02
602.572	22291.12
602.769	22465.19
602.965	22018.74
603.161	22127.28
603.357	22002.35
603.553	22069.94
603.75	21768.88
603.946	21836.47
604.142	21965.49
604.338	21609.14
604.534	21815.99
604.73	21312.19
604.926	21347
605.122	21455.54
605.318	21342.91
605.514	21252.8
605.71	20996.8
605.906	21166.78
606.102	21154.49
606.298	21070.53
606.494	21017.28
606.69	20925.12
606.886	21111.49
607.082	20822.72
607.278	21054.14
607.474	20439.75
607.67	20982.46
607.866	20357.83
608.062	20941.5
608.257	20431.56
608.453	20693.7
608.649	20570.82
608.845	20642.5
609.041	20140.75
609.236	20249.29
609.432	20316.87
609.628	20656.84
609.824	20335.31
610.019	20030.16
610.215	20265.67
610.411	20333.26
610.606	20007.63
610.802	20189.9
610.998	19831.51
611.193	19925.71
611.389	20120.27
611.584	19815.12
611.78	19495.64
611.976	19706.58
612.171	19899.09
612.367	19843.79
612.562	19643.09
612.758	19659.48
612.953	19550.93
613.149	19792.59
613.344	19335.9
613.539	20028.11
613.735	19413.72
613.93	19454.68
614.126	19213.02
614.321	19722.96
614.517	19251.93
614.712	19434.2
614.907	19221.21
615.103	19227.35
615.298	18920.16
615.493	19370.71
615.688	18967.26
615.884	19333.85
616.079	19032.8
616.274	19163.87
616.47	18879.2
616.665	18813.66
616.86	19092.19
617.055	18926.3
617.25	18715.36
617.445	18985.69
617.641	18828
617.836	19014.37
618.031	18608.87
618.226	18678.5
618.421	18612.96
618.616	18539.24
618.811	18268.91
619.006	18442.98
619.201	18211.56
619.396	18266.86
619.591	17892.08
619.786	18289.38
619.981	17740.53
620.176	18012.91
620.371	17642.23
620.566	17834.74
620.761	17545.97
620.956	17890.03
621.151	17529.59
621.346	17720.05
621.541	17298.17
621.735	17445.62
621.93	17232.63
622.125	17083.13
622.32	16988.92
622.515	16861.95
622.709	16767.74
622.904	16780.03
623.099	16737.02
623.294	17005.31
623.488	16702.21
623.683	16536.32
623.878	16347.91
624.072	16294.66
624.267	16407.3
624.462	16292.62
624.656	15950.6
624.851	16065.29
625.046	16030.48
625.24	15971.08
625.435	15661.84
625.629	15567.63
625.824	15733.52
626.018	15518.48
626.213	15594.26
626.407	15289.11
626.602	15194.9
626.796	15371.03
626.991	15069.98
627.185	14895.9
627.38	14922.52
627.574	14801.69
627.768	14672.67
627.963	14588.71
628.157	14553.89
628.352	14508.83
628.546	14246.69
628.74	14621.47
628.935	14220.07
629.129	14351.14
629.323	14160.68
629.517	13953.84
629.712	14084.91
629.906	13980.46
630.1	13658.93
630.294	13730.61
630.489	13615.92
630.683	13824.81
630.877	13566.77
631.071	13456.18
631.265	13839.15
631.459	13398.84
631.653	13306.68
631.848	13296.44
632.042	13257.53
632.236	13187.89
632.43	12829.5
632.624	12876.6
632.818	13163.32
633.012	12938.04
633.206	12864.32
633.4	12940.09
633.594	12553.02
633.788	12747.58
633.982	12649.28
634.176	12307.27
634.369	12622.66
634.563	12247.88
634.757	12256.07
634.951	12528.45
635.145	12202.82
635.339	12352.32
635.533	12081.99
635.726	11711.31
635.92	11733.84
636.114	11811.66
636.308	11750.22
636.501	11715.41
636.695	11735.88
636.889	11764.56
637.083	11428.69
637.276	11490.13
637.47	11451.22
637.664	11463.51
637.857	11172.69
638.051	11191.13
638.244	11328.34
638.438	11135.83
638.632	11225.94
638.825	10851.16
639.019	11002.71
639.212	10840.92
639.406	10992.47
639.599	10492.77
639.793	10834.78
639.986	10500.96
640.18	10658.65
640.373	10701.66
640.567	10287.97
640.76	10357.6
640.954	10431.33
641.147	10175.33
641.34	10244.96
641.534	10236.77
641.727	10324.83
641.92	10048.36
642.114	9876.33
642.307	9937.77
642.5	10126.18
642.694	9966.44
642.887	9921.38
643.08	10070.89
643.273	9784.17
643.467	9851.75
643.66	9667.44
643.853	9560.94
644.046	9702.25
644.239	9483.12
644.432	9464.69
644.626	9536.37
644.819	9444.21
645.012	9335.67
645.205	9329.52
645.398	9292.66
645.591	9249.65
645.784	9157.49
645.977	9147.25
646.17	9263.99
646.363	9042.81
646.556	8893.3
646.749	8926.07
646.942	9018.23
647.135	8940.41
647.328	8741.75
647.521	8815.48
647.714	8655.74
647.907	8704.89
648.099	8571.77
648.292	8557.44
648.485	8582.01
648.678	8471.42
648.871	8536.96
649.064	8414.08
649.256	8608.64
649.449	8354.69
649.642	8291.2
649.835	8162.18
650.027	8276.87
650.22	8160.13
650.413	8106.88
650.605	8047.49
650.798	8049.54
650.991	7920.52
651.183	7971.72
651.376	7760.78
651.568	7840.65
651.761	7807.88
651.954	7779.21
652.146	7648.14
652.339	7603.08
652.531	7707.53
652.724	7422.86
652.916	7566.22
653.109	7506.83
653.301	7506.83
653.494	7455.63
653.686	7285.65
653.879	7447.44
654.071	7289.74
654.263	7406.48
654.456	7500.69
654.648	7355.28
654.84	7175.06
655.033	7220.11
655.225	7252.88
655.417	6990.74
655.61	7078.8
655.802	7107.48
655.994	7019.41
656.186	7041.94
656.379	6849.43
656.571	6876.06
656.763	6730.65
656.955	6968.21
657.148	6804.38
657.34	6685.59
657.532	6564.76
657.724	6591.39
657.916	6626.2
658.108	6515.61
658.3	6480.8
658.492	6355.87
658.684	6292.38
658.876	6523.8
659.068	6423.45
659.26	6366.11
659.452	6450.08
659.644	6337.44
659.836	6226.85
660.028	6239.14
660.22	6161.31
660.412	6165.41
660.604	6140.83
660.796	6069.16
660.988	6108.07
661.18	6091.68
661.372	6103.97
661.563	6095.78
661.755	5927.85
661.947	5864.36
662.139	5905.32
662.331	6032.29
662.522	5901.22
662.714	5866.41
662.906	5895.08
663.097	5770.15
663.289	5764.01
663.481	5784.49
663.673	5802.92
663.864	5589.93
664.056	5526.44
664.247	5647.27
664.439	5540.78
664.631	5583.79
664.822	5557.16
665.014	5559.21
665.205	5499.82
665.397	5290.93
665.588	5372.85
665.78	5303.22
665.971	5254.06
666.163	5460.91
666.354	5241.78
666.546	5272.5
666.737	5194.67
666.929	5288.88
667.12	5260.21
667.311	5346.22
667.503	5129.14
667.694	5120.95
667.885	5057.46
668.077	5102.51
668.268	5075.89
668.459	5002.16
668.651	5106.61
668.842	4793.27
669.033	5120.95
669.224	5120.95
669.416	4979.64
669.607	4940.72
669.798	4940.72
669.989	4998.07
670.18	4717.5
670.371	4916.15
670.563	4742.07
670.754	4744.12
670.945	4676.54
671.136	4690.87
671.327	4797.37
671.518	4752.31
671.709	4719.54
671.9	4608.95
672.091	4856.76
672.282	4494.27
672.473	4498.36
672.664	4721.59
672.855	4668.34
673.046	4535.23
673.237	4512.7
673.428	4662.2
673.619	4486.08
673.809	4477.88
674	4586.43
674.191	4385.73
674.382	4567.99
674.573	4453.31
674.764	4490.17
674.954	4598.71
675.145	4334.53
675.336	4424.64
675.527	4379.58
675.717	4389.82
675.908	4348.86
676.099	4279.23
676.289	4309.95
676.48	4332.48
676.671	4174.78
676.861	4420.54
677.052	4201.41
677.243	4301.76
677.433	4209.6
677.624	4334.53
677.814	4135.87
678.005	4170.69
678.195	4254.66
678.386	4238.27
678.576	4228.03
678.767	4148.16
678.957	4115.39
679.148	4213.7
679.338	4172.74
679.529	3988.42
679.719	4103.11
679.909	4131.78
680.1	4041.67
680.29	3984.32
680.481	4246.46
680.671	3890.12
680.861	4027.33
681.052	4047.81
681.242	3996.61
681.432	3980.23
681.622	3894.21
681.813	3855.3
682.003	4017.09
682.193	3984.32
682.383	4008.9
682.573	3918.79
682.764	3937.22
682.954	4008.9
683.144	3877.83
683.334	3871.68
683.524	3871.68
683.714	3865.54
683.904	3941.32
684.094	3877.83
684.284	3826.63
684.474	3926.98
684.664	3980.23
684.854	3791.81
685.044	3863.49
685.234	3847.11
685.424	3836.87
685.614	3812.29
685.804	3691.46
685.994	3765.19
686.184	3789.77
686.374	3757
686.564	3720.14
686.753	3820.49
686.943	3662.79
687.133	3632.07
687.323	3644.36
687.513	3732.42
687.702	3638.22
687.892	3611.59
688.082	3611.59
688.272	3619.78
688.461	3488.71
688.651	3548.11
688.841	3576.78
689.03	3544.01
689.22	3605.45
689.41	3490.76
689.599	3423.18
689.789	3582.92
689.979	3351.5
690.168	3259.34
690.358	3511.24
690.547	3300.3
690.737	3365.84
690.926	3396.56
691.116	3189.71
691.305	3396.56
691.495	3302.35
691.684	3294.16
691.874	3294.16
692.063	3210.19
692.252	3214.29
692.442	3208.14
692.631	3161.04
692.82	3253.2
693.01	3169.23
693.199	3083.22
693.388	3140.56
693.578	3115.98
693.767	3081.17
693.956	3068.88
694.146	3093.46
694.335	3097.55
694.524	3152.85
694.713	3013.59
694.902	3232.72
695.092	3126.22
695.281	2946
695.47	3046.35
695.659	2946
695.848	3075.03
696.037	3122.13
696.226	2896.85
696.415	3009.49
696.604	3077.07
696.793	3011.54
696.982	2913.24
697.171	2997.2
697.36	2997.2
697.549	2810.84
697.738	3019.73
697.927	2835.41
698.116	2825.17
698.305	2970.58
698.494	2925.52
698.683	2952.15
698.872	2980.82
699.061	2866.13
699.25	2970.58
699.438	2849.75
699.627	2839.51
699.816	2870.23
700.005	2911.19
700.193	2917.33
700.382	2851.8
700.571	2788.31
700.76	2878.42
700.948	2907.09
701.137	2872.28
701.326	2870.23
701.514	2790.36
701.703	2812.89
701.892	2853.84
702.08	2939.86
702.269	2806.74
702.457	2749.4
702.646	2880.47
702.834	2761.69
703.023	2737.11
703.212	2810.84
703.4	2806.74
703.589	2862.04
703.777	2692.05
703.965	2757.59
704.154	2798.55
704.342	2722.77
704.531	2802.65
704.719	2737.11
704.907	2706.39
705.096	2864.08
705.284	2757.59
705.472	2776.02
705.661	2741.21
705.849	2759.64
706.037	2872.28
706.226	2698.2
706.414	2612.18
706.602	2769.88
706.79	2673.62
706.979	2626.52
707.167	2757.59
707.355	2821.08
707.543	2790.36
707.731	2790.36
707.919	2790.36
708.107	2642.9
708.296	2702.29
708.484	2712.53
708.672	2749.4
708.86	2743.25
709.048	2696.15
709.236	2745.3
709.424	2753.49
709.612	2802.65
709.8	2716.63
709.988	2767.83
710.176	2827.22
710.364	2642.9
710.551	2735.06
710.739	2722.77
710.927	2665.43
711.115	2761.69
711.303	2757.59
711.491	2739.16
711.679	2706.39
711.866	2683.86
712.054	2767.83
712.242	2757.59
712.43	2788.31
712.617	2733.01
712.805	2763.73
712.993	2653.14
713.181	2733.01
713.368	2784.21
713.556	2702.29
713.744	2626.52
713.931	2659.29
714.119	2612.18
714.306	2622.42
714.494	2776.02
714.682	2810.84
714.869	2743.25
715.057	2644.95
715.244	2649.05
715.432	2708.44
715.619	2681.82
715.807	2685.91
715.994	2612.18
716.182	2739.16
716.369	2626.52
716.556	2751.45
716.744	2659.29
716.931	2773.97
717.119	2726.87
717.306	2747.35
717.493	2704.34
717.681	2743.25
717.868	2685.91
718.055	2751.45
718.242	2694.1
718.43	2556.89
718.617	2761.69
718.804	2714.58
718.991	2733.01
719.179	2644.95
719.366	2749.4
719.553	2724.82
719.74	2640.86
719.927	2712.53
720.114	2628.57
720.301	2853.84
720.488	2773.97
720.676	2733.01
720.863	2679.77
721.05	2737.11
721.237	2757.59
721.424	2755.54
721.611	2868.18
721.798	2632.66
721.985	2696.15
722.172	2591.7
722.358	2626.52
722.545	2816.98
722.732	2737.11
722.919	2749.4
723.106	2661.34
723.293	2597.85
723.48	2761.69
723.667	2642.9
723.853	2692.05
724.04	2655.19
724.227	2673.62
724.414	2821.08
724.6	2757.59
724.787	2751.45
724.974	2696.15
725.161	2651.1
725.347	2520.03
725.534	2798.55
725.72	2649.05
725.907	2843.6
726.094	2685.91
726.28	2696.15
726.467	2513.88
726.653	2796.5
726.84	2753.49
727.027	2894.8
727.213	2647
727.4	2733.01
727.586	2667.48
727.773	2712.53
727.959	2741.21
728.145	2620.38
728.332	2718.68
728.518	2792.41
728.705	2837.46
728.891	2665.43
729.077	2747.35
729.264	2728.92
729.45	2694.1
729.636	2765.78
729.823	2776.02
730.009	2728.92
730.195	2788.31
730.382	2808.79
730.568	2757.59
730.754	2733.01
730.94	2704.34
731.126	2816.98
731.313	2673.62
731.499	2743.25
731.685	2704.34
731.871	2769.88
732.057	2638.81
732.243	2708.44
732.429	2790.36
732.615	2653.14
732.801	2737.11
732.987	2714.58
733.173	2806.74
733.359	2769.88
733.545	2735.06
733.731	2767.83
733.917	2692.05
734.103	2587.61
734.289	2792.41
734.475	2706.39
734.661	2757.59
734.847	2741.21
735.033	2722.77
735.219	2718.68
735.404	2763.73
735.59	2696.15
735.776	2665.43
735.962	2755.54
736.148	2788.31
736.333	2730.97
736.519	2647
736.705	2687.96
736.89	2597.85
737.076	2720.73
737.262	2663.38
737.447	2767.83
737.633	2763.73
737.819	2712.53
738.004	2579.42
738.19	2683.86
738.375	2669.53
738.561	2669.53
738.747	2608.09
738.932	2728.92
739.118	2706.39
739.303	2712.53
739.489	2595.8
739.674	2673.62
739.859	2636.76
740.045	2577.37
740.23	2659.29
740.416	2620.38
740.601	2751.45
740.786	2667.48
740.972	2595.8
741.157	2659.29
741.342	2683.86
741.528	2634.71
741.713	2720.73
741.898	2536.41
742.084	2548.7
742.269	2606.04
742.454	2716.63
742.639	2647
742.824	2612.18
743.01	2589.66
743.195	2771.93
743.38	2444.25
743.565	2581.46
743.75	2618.33
743.935	2544.6
744.12	2497.5
744.305	2491.35
744.49	2434.01
744.675	2434.01
744.86	2474.97
745.045	2415.58
745.23	2505.69
745.415	2448.35
745.6	2442.2
745.785	2362.33
745.97	2403.29
746.155	2362.33
746.34	2458.59
746.525	2302.94
746.71	2364.38
746.895	2204.64
747.079	2335.71
747.264	2212.83
747.449	2335.71
747.634	2341.85
747.819	2223.07
748.003	2276.32
748.188	2264.03
748.373	2296.8
748.557	2247.65
748.742	2239.45
748.927	2249.69
749.111	2243.55
749.296	2110.43
749.481	2104.29
749.665	2165.73
749.85	2114.53
750.034	2051.04
750.219	2124.77
750.404	2005.99
750.588	2184.16
750.773	1930.21
750.957	2118.62
751.141	2071.52
751.326	1999.84
751.51	2010.08
751.695	2018.27
751.879	2069.47
752.064	1991.65
752.248	1999.84
752.432	1926.11
752.617	1848.29
752.801	1928.16
752.985	2040.8
753.17	1926.11
753.354	1887.2
753.538	1858.53
753.722	1897.44
753.907	1862.63
754.091	1709.03
754.275	1876.96
754.459	1770.47
754.643	1778.66
754.828	1803.24
755.012	1764.33
755.196	1723.37
755.38	1684.45
755.564	1727.46
755.748	1784.8
755.932	1645.54
756.116	1709.03
756.3	1666.02
756.484	1698.79
756.668	1614.82
756.852	1602.54
757.036	1616.87
757.22	1610.73
757.404	1510.38
757.588	1653.73
757.772	1688.55
757.956	1547.24
758.14	1600.49
758.323	1520.62
758.507	1674.21
758.691	1543.14
758.875	1563.62
759.059	1524.71
759.242	1432.55
759.426	1520.62
759.61	1444.84
759.794	1518.57
759.977	1543.14
760.161	1500.14
760.345	1381.35
760.528	1547.24
760.712	1459.18
760.895	1420.27
761.079	1442.79
761.263	1393.64
761.446	1360.88
761.63	1397.74
761.813	1436.65
761.997	1444.84
762.18	1493.99
762.364	1371.12
762.547	1299.44
762.731	1360.88
762.914	1256.43
763.098	1401.83
763.281	1238
763.464	1293.29
763.648	1258.48
763.831	1270.76
764.015	1395.69
764.198	1350.64
764.381	1311.72
764.564	1348.59
764.748	1375.21
764.931	1397.74
765.114	1242.09
765.297	1371.12
765.481	1217.52
765.664	1219.57
765.847	1203.18
766.03	1258.48
766.213	1246.19
766.397	1213.42
766.58	1309.68
766.763	1278.96
766.946	1240.05
767.129	1342.44
767.312	1262.57
767.495	1209.33
767.678	1123.31
767.861	1272.81
768.044	1111.02
768.227	1186.8
768.41	1227.76
768.593	1178.61
768.776	1092.59
768.959	1182.7
769.142	1154.03
769.324	1111.02
769.507	1149.93
769.69	1147.89
769.873	1139.69
770.056	1131.5
770.239	1133.55
770.421	1211.37
770.604	1076.21
770.787	1096.69
770.97	1045.49
771.152	1037.3
771.335	1125.36
771.518	1016.82
771.7	1102.83
771.883	1115.12
772.066	1119.21
772.248	1108.98
772.431	1068.02
772.613	1037.3
772.796	914.42
772.978	1016.82
773.161	1055.73
773.343	1022.96
773.526	955.38
773.708	955.38
773.891	1035.25
774.073	873.46
774.256	953.33
774.438	918.51
774.621	943.09
774.803	908.27
774.985	945.14
775.168	920.56
775.35	930.8
775.532	998.38
775.715	893.94
775.897	885.75
776.079	791.54
776.261	814.07
776.444	924.66
776.626	910.32
776.808	863.22
776.99	814.07
777.173	871.41
777.355	881.65
777.537	814.07
777.719	859.12
777.901	828.4
778.083	789.49
778.265	721.91
778.447	793.59
778.629	758.77
778.811	777.2
778.993	791.54
779.175	803.83
779.357	769.01
779.539	707.57
779.721	764.92
779.903	805.88
780.085	736.24
780.267	797.68
780.449	828.4
780.631	744.44
780.812	777.2
780.994	728.05
781.176	752.63
781.358	689.14
781.54	699.38
781.721	623.61
781.903	680.95
782.085	746.48
782.267	738.29
782.448	662.52
782.63	691.19
782.812	660.47
782.993	750.58
783.175	701.43
783.357	664.57
783.538	662.52
783.72	623.61
783.901	613.37
784.083	584.7
784.264	664.57
784.446	662.52
784.627	549.88
784.809	592.89
784.99	625.65
785.172	594.93
785.353	615.41
785.535	613.37
785.716	484.34
785.897	504.82
786.079	584.7
786.26	588.79
786.441	515.06
786.623	574.46
786.804	539.64
786.985	537.59
787.167	584.7
787.348	553.98
787.529	549.88
787.71	564.22
787.891	531.45
788.073	492.54
788.254	416.76
788.435	529.4
788.616	486.39
788.797	517.11
788.978	594.93
789.159	465.91
789.34	521.21
789.522	447.48
789.703	515.06
789.884	502.78
790.065	418.81
790.246	467.96
790.427	508.92
790.607	447.48
790.788	435.19
790.969	453.63
791.15	490.49
791.331	488.44
791.512	412.67
791.693	508.92
791.874	351.23
792.054	439.29
792.235	517.11
792.416	437.24
792.597	322.56
792.778	461.82
792.958	377.85
793.139	461.82
793.32	402.43
793.5	371.71
793.681	457.72
793.862	353.27
794.042	414.71
794.223	449.53
794.404	402.43
794.584	433.15
794.765	398.33
794.945	365.56
795.126	390.14
795.306	414.71
795.487	383.99
795.667	392.19
795.848	390.14
796.028	359.42
796.209	439.29
796.389	394.23
796.57	447.48
796.75	365.56
796.93	320.51
797.111	359.42
797.291	390.14
797.471	386.04
797.652	338.94
797.832	394.23
798.012	297.98
798.192	373.75
798.373	306.17
798.553	408.57
798.733	424.95
798.913	340.99
799.093	334.84
799.274	343.03
799.454	326.65
799.634	347.13
799.814	334.84
799.994	377.85
800.174	396.28
800.354	300.03
800.534	336.89
800.714	328.7
800.894	312.32
801.074	334.84
801.254	310.27
801.434	318.46
801.614	293.88
801.794	330.75
801.974	738.29
802.154	271.36
802.334	279.55
802.514	300.03
802.693	271.36
802.873	316.41
803.053	293.88
803.233	291.84
803.413	287.74
803.592	287.74
803.772	308.22
803.952	205.82
804.131	271.36
804.311	300.03
804.491	273.4
804.67	273.4
804.85	250.88
805.03	330.75
805.209	332.79
805.389	271.36
805.568	287.74
805.748	285.69
805.928	224.25
806.107	355.32
806.287	283.64
806.466	179.2
806.646	287.74
806.825	246.78
807.004	226.3
807.184	209.92
807.363	234.49
807.543	222.2
807.722	263.16
807.901	257.02
808.081	230.4
808.26	224.25
808.439	234.49
808.619	209.92
808.798	259.07
808.977	275.45
809.156	185.34
809.336	152.57
809.515	297.98
809.694	230.4
809.873	285.69
810.052	230.4
810.231	277.5
810.411	232.44
810.59	232.44
810.769	246.78
810.948	234.49
811.127	136.19
811.306	187.39
811.485	197.63
811.664	250.88
811.843	238.59
812.022	177.15
812.201	232.44
812.38	230.4
812.559	246.78
812.737	263.16
812.916	134.14
813.095	195.58
813.274	160.77
813.453	224.25
813.632	220.16
813.811	205.82
813.989	164.86
814.168	297.98
814.347	173.05
814.526	183.29
814.704	230.4
814.883	201.72
815.062	187.39
815.24	136.19
815.419	80.89
815.598	205.82
815.776	74.75
815.955	187.39
816.133	181.25
816.312	222.2
816.49	156.67
816.669	234.49
816.847	238.59
817.026	138.24
817.204	228.35
817.383	191.49
817.561	201.72
817.74	152.57
817.918	254.97
818.097	156.67
818.275	207.87
818.453	269.31
818.632	148.48
818.81	144.38
818.988	199.68
819.167	158.72
819.345	166.91
819.523	89.09
819.701	218.11
819.879	154.62
820.058	144.38
820.236	189.44
820.414	136.19
820.592	173.05
820.77	142.33
820.948	171.01
821.127	78.85
821.305	156.67
821.483	130.05
821.661	189.44
821.839	119.81
822.017	134.14
822.195	156.67
822.373	189.44
822.551	173.05
822.729	150.53
822.907	89.09
823.085	150.53
823.262	109.57
823.44	150.53
823.618	179.2
823.796	68.61
823.974	197.63
824.152	181.25
824.329	109.57
824.507	93.18
824.685	150.53
824.863	179.2
825.04	117.76
825.218	187.39
825.396	132.09
825.574	148.48
825.751	140.29
825.929	166.91
826.107	158.72
826.284	115.71
826.462	189.44
826.639	97.28
826.817	140.29
826.994	193.53
827.172	109.57
827.349	191.49
827.527	166.91
827.704	130.05
827.882	97.28
828.059	162.81
828.237	152.57
828.414	152.57
828.591	154.62
828.769	171.01
828.946	109.57
829.124	115.71
829.301	148.48
829.478	128
829.655	117.76
829.833	140.29
830.01	70.65
830.187	140.29
830.364	156.67
830.542	205.82
830.719	168.96
830.896	117.76
831.073	68.61
831.25	132.09
831.427	142.33
831.604	111.61
831.782	181.25
831.959	117.76
832.136	70.65
832.313	109.57
832.49	123.9
832.667	62.46
832.844	107.52
833.021	105.47
833.198	56.32
833.374	101.37
833.551	115.71
833.728	125.95
833.905	91.13
834.082	15.36
834.259	91.13
834.436	64.51
834.612	48.13
834.789	146.43
834.966	70.65
835.143	130.05
835.319	95.23
835.496	142.33
835.673	105.47
835.85	109.57
836.026	72.7
836.203	156.67
836.38	132.09
836.556	82.94
836.733	60.42
836.909	107.52
837.086	146.43
837.262	121.85
837.439	107.52
837.616	82.94
837.792	27.65
837.968	62.46
838.145	82.94
838.321	31.74
838.498	125.95
838.674	156.67
838.851	78.85
839.027	62.46
839.203	54.27
839.38	39.94
839.556	91.13
839.732	91.13
839.909	93.18
840.085	54.27
840.261	52.22
840.437	132.09
840.614	70.65
840.79	60.42
840.966	130.05
841.142	119.81
841.318	93.18
841.494	101.37
841.671	142.33
841.847	46.08
842.023	68.61
842.199	48.13
842.375	60.42
842.551	128
842.727	62.46
842.903	156.67
843.079	46.08
843.255	89.09
843.431	101.37
843.607	78.85
843.783	91.13
843.959	54.27
844.134	76.8
844.31	84.99
844.486	41.98
844.662	60.42
844.838	78.85
845.013	66.56
845.189	140.29
845.365	89.09
845.541	74.75
845.716	33.79
845.892	99.33
846.068	125.95
846.244	84.99
846.419	130.05
846.595	82.94
846.77	31.74
846.946	41.98
847.122	41.98
847.297	91.13
847.473	125.95
847.648	105.47
847.824	130.05
847.999	76.8
848.175	70.65
848.35	39.94
848.526	80.89
848.701	46.08
848.876	93.18
849.052	154.62
849.227	39.94
849.403	76.8
849.578	70.65
849.753	29.7
849.929	62.46
850.104	125.95
850.279	19.46
850.454	107.52
850.63	60.42
850.805	58.37
850.98	19.46
851.155	87.04
851.33	89.09
851.505	27.65
851.681	105.47
851.856	48.13
852.031	76.8
852.206	105.47
852.381	35.84
852.556	48.13
852.731	78.85
852.906	87.04
853.081	62.46
853.256	113.66
853.431	23.55
853.606	44.03
853.781	97.28
853.956	76.8
854.131	74.75
854.305	17.41
854.48	5.12
854.655	115.71
854.83	78.85
855.005	46.08
855.18	97.28
855.354	50.18
855.529	50.18
855.704	11.26
855.879	48.13
856.053	44.03
856.228	-21.5
856.403	5.12
856.577	99.33
856.752	17.41
856.926	107.52
857.101	60.42
857.276	48.13
857.45	60.42
857.625	54.27
857.799	54.27
857.974	87.04
858.148	17.41
858.323	5.12
858.497	-9.22
858.672	72.7
858.846	21.5
859.02	11.26
859.195	25.6
859.369	48.13
859.543	-23.55
859.718	46.08
859.892	68.61
860.066	21.5
860.241	56.32
860.415	33.79
860.589	29.7
860.763	21.5
860.938	33.79
861.112	13.31
861.286	97.28
861.46	56.32
861.634	9.22
861.808	87.04
861.982	82.94
862.157	41.98
862.331	78.85
862.505	58.37
862.679	-17.41
862.853	39.94
863.027	84.99
863.201	15.36
863.375	35.84
863.549	93.18
863.722	-11.26
863.896	66.56
864.07	62.46
864.244	60.42
864.418	-25.6
864.592	64.51
864.766	97.28
864.939	46.08
865.113	9.22
865.287	5.12
865.461	48.13
865.634	46.08
865.808	89.09
865.982	27.65
866.156	39.94
866.329	-1.02
866.503	37.89
866.676	29.7
866.85	140.29
867.024	50.18
867.197	44.03
867.371	50.18
867.544	97.28
867.718	-11.26
867.891	-7.17
868.065	29.7
868.238	72.7
868.412	68.61
868.585	33.79
868.759	68.61
868.932	9.22
869.105	78.85
869.279	17.41
869.452	-72.7
869.625	48.13
869.799	76.8
869.972	29.7
870.145	1.02
870.319	1.02
870.492	62.46
870.665	44.03
870.838	50.18
871.011	11.26
871.185	50.18
871.358	25.6
871.531	41.98
871.704	15.36
871.877	50.18
872.05	66.56
872.223	62.46
872.396	54.27
872.569	48.13
872.742	23.55
872.915	50.18
873.088	31.74
873.261	31.74
873.434	66.56
873.607	56.32
873.78	13.31
873.953	50.18
874.126	54.27
874.299	121.85
874.471	31.74
874.644	29.7
874.817	41.98
874.99	35.84
875.163	1.02
875.335	68.61
875.508	60.42
875.681	66.56
875.853	44.03
876.026	-41.98
876.199	48.13
876.371	56.32
876.544	68.61
876.717	64.51
876.889	11.26
877.062	117.76
877.234	-74.75
877.407	-39.94
877.579	93.18
877.752	27.65
877.924	37.89
878.097	29.7
878.269	-15.36
878.442	41.98
878.614	-17.41
878.786	91.13
878.959	27.65
879.131	78.85
879.303	-21.5
879.476	21.5
879.648	76.8
879.82	21.5
879.993	-33.79
880.165	17.41
880.337	70.65
880.509	25.6
880.681	60.42
880.854	95.23
881.026	101.37
881.198	37.89
881.37	64.51
881.542	31.74
881.714	58.37
881.886	76.8
882.058	21.5
882.23	-23.55
882.402	5.12
882.574	17.41
882.746	56.32
882.918	95.23
883.09	66.56
883.262	1.02
883.434	70.65
883.606	87.04
883.778	80.89
883.95	111.61
884.122	13.31
884.293	64.51
884.465	13.31
884.637	-3.07
884.809	-13.31
884.98	1.02
885.152	25.6
885.324	62.46
885.496	23.55
885.667	-19.46
885.839	13.31
886.011	29.7
886.182	33.79
886.354	37.89
886.525	-41.98
886.697	54.27
886.869	-33.79
887.04	-68.61
887.212	25.6
887.383	64.51
887.555	50.18
887.726	21.5
887.897	27.65
888.069	39.94
888.24	29.7
888.412	74.75
888.583	37.89
888.754	-52.22
888.926	31.74
889.097	44.03
889.268	-3.07
889.44	70.65
889.611	-44.03
889.782	-5.12
889.953	25.6
890.125	44.03
890.296	-7.17
890.467	52.22
890.638	-9.22
890.809	21.5
890.98	1.02
891.151	29.7
891.323	-9.22
891.494	84.99
891.665	9.22
891.836	27.65
892.007	11.26
892.178	35.84
892.349	15.36
892.52	-25.6
892.691	39.94
892.862	-21.5
893.032	21.5
893.203	70.65
893.374	62.46
893.545	48.13
893.716	19.46
893.887	44.03
894.057	39.94
894.228	-31.74
894.399	1.02
894.57	-11.26
894.74	-3.07
894.911	56.32
895.082	35.84
895.253	35.84
895.423	107.52
895.594	78.85
895.764	13.31
895.935	-19.46
896.106	31.74
896.276	39.94
896.447	-58.37
896.617	35.84
896.788	25.6
896.958	17.41
897.129	66.56
897.299	33.79
897.47	37.89
897.64	25.6
897.81	19.46
897.981	15.36
898.151	46.08
898.322	56.32
898.492	39.94
898.662	1.02
898.832	-19.46
899.003	66.56
899.173	95.23
899.343	-46.08
899.513	5.12
