Data from USB4F104151__11__11-44-29-235.txt Node

Date: Fri Mar 14 11:44:29 EDT 2025
User: louis
Spectrometer: USB4F10415
Trigger mode: 4
Integration Time (sec): 2.000000E-2
Scans to average: 1
Electric dark correction enabled: true
Nonlinearity correction enabled: false
Boxcar width: 0
XAxis mode: Wavelengths
Number of Pixels in Spectrum: 3648
>>>>>Begin Spectral Data<<<<<
178.204	-77.65
178.424	-77.65
178.644	-77.65
178.864	-108.37
179.084	-147.28
179.304	-20.31
179.524	-40.79
179.744	-42.84
179.964	61.61
180.184	37.03
180.404	24.75
180.624	24.75
180.844	28.84
181.064	-38.74
181.283	34.99
181.503	-44.88
181.723	-24.4
181.943	-22.36
182.163	26.79
182.383	16.55
182.602	32.94
182.822	-20.31
183.042	39.08
183.262	12.46
183.482	121
183.701	34.99
183.921	10.41
184.141	73.9
184.361	-8.02
184.58	-24.4
184.8	69.8
185.02	49.32
185.239	86.19
185.459	6.31
185.679	82.09
185.898	-12.12
186.118	51.37
186.338	92.33
186.557	106.67
186.777	18.6
186.997	-24.4
187.216	12.46
187.436	80.04
187.655	88.23
187.875	121
188.095	10.41
188.314	51.37
188.534	20.65
188.753	63.66
188.973	51.37
189.192	49.32
189.412	90.28
189.631	39.08
189.851	-22.36
190.07	47.27
190.29	-20.31
190.509	-51.03
190.729	20.65
190.948	65.71
191.168	80.04
191.387	30.89
191.607	112.81
191.826	90.28
192.045	12.46
192.265	55.47
192.484	6.31
192.704	67.75
192.923	16.55
193.142	80.04
193.362	61.61
193.581	-1.88
193.8	34.99
194.02	49.32
194.239	-3.93
194.458	73.9
194.678	20.65
194.897	24.75
195.116	63.66
195.335	37.03
195.555	75.95
195.774	73.9
195.993	69.8
196.212	88.23
196.432	45.23
196.651	28.84
196.87	22.7
197.089	57.51
197.308	49.32
197.528	-26.45
197.747	39.08
197.966	47.27
198.185	94.38
198.404	2.22
198.623	16.55
198.842	67.75
199.062	32.94
199.281	2.22
199.5	39.08
199.719	108.71
199.938	145.58
200.157	0.17
200.376	51.37
200.595	108.71
200.814	24.75
201.033	-20.31
201.252	39.08
201.471	-1.88
201.69	110.76
201.909	-1.88
202.128	94.38
202.347	26.79
202.566	41.13
202.785	30.89
203.004	-10.07
203.223	-8.02
203.442	24.75
203.661	80.04
203.879	51.37
204.098	24.75
204.317	30.89
204.536	55.47
204.755	88.23
204.974	86.19
205.193	47.27
205.411	67.75
205.63	37.03
205.849	0.17
206.068	14.51
206.287	57.51
206.505	22.7
206.724	49.32
206.943	14.51
207.162	37.03
207.381	92.33
207.599	92.33
207.818	28.84
208.037	-10.07
208.255	75.95
208.474	47.27
208.693	45.23
208.911	30.89
209.13	-42.84
209.349	71.85
209.567	65.71
209.786	59.56
210.005	59.56
210.223	47.27
210.442	18.6
210.661	4.27
210.879	71.85
211.098	63.66
211.316	61.61
211.535	114.86
211.753	24.75
211.972	53.42
212.191	45.23
212.409	-10.07
212.628	75.95
212.846	65.71
213.065	8.36
213.283	86.19
213.502	30.89
213.72	55.47
213.938	41.13
214.157	-3.93
214.375	94.38
214.594	-12.12
214.812	24.75
215.031	-18.26
215.249	-5.97
215.467	37.03
215.686	88.23
215.904	118.95
216.122	20.65
216.341	43.18
216.559	59.56
216.778	0.17
216.996	63.66
217.214	30.89
217.432	30.89
217.651	45.23
217.869	-3.93
218.087	32.94
218.306	102.57
218.524	8.36
218.742	16.55
218.96	67.75
219.179	-5.97
219.397	-24.4
219.615	104.62
219.833	-12.12
220.051	65.71
220.27	57.51
220.488	32.94
220.706	129.19
220.924	59.56
221.142	114.86
221.36	39.08
221.578	69.8
221.796	166.06
222.015	26.79
222.233	2.22
222.451	121
222.669	53.42
222.887	39.08
223.105	6.31
223.323	30.89
223.541	41.13
223.759	22.7
223.977	22.7
224.195	43.18
224.413	51.37
224.631	22.7
224.849	-32.6
225.067	49.32
225.285	49.32
225.503	14.51
225.721	-8.02
225.939	-8.02
226.157	6.31
226.375	123.05
226.592	2.22
226.81	114.86
227.028	30.89
227.246	43.18
227.464	77.99
227.682	116.9
227.9	4.27
228.117	4.27
228.335	-40.79
228.553	-5.97
228.771	39.08
228.989	39.08
229.206	94.38
229.424	12.46
229.642	71.85
229.86	39.08
230.077	153.77
230.295	84.14
230.513	67.75
230.731	125.1
230.948	100.52
231.166	-12.12
231.384	45.23
231.601	-22.36
231.819	6.31
232.037	108.71
232.254	47.27
232.472	4.27
232.689	-3.93
232.907	88.23
233.125	55.47
233.342	18.6
233.56	82.09
233.777	47.27
233.995	55.47
234.213	69.8
234.43	100.52
234.648	45.23
234.865	39.08
235.083	-36.69
235.3	102.57
235.518	-28.5
235.735	102.57
235.953	73.9
236.17	30.89
236.388	45.23
236.605	77.99
236.822	141.48
237.04	-20.31
237.257	49.32
237.475	59.56
237.692	80.04
237.909	28.84
238.127	26.79
238.344	84.14
238.562	67.75
238.779	-16.21
238.996	37.03
239.214	26.79
239.431	108.71
239.648	-14.17
239.865	84.14
240.083	96.43
240.3	65.71
240.517	-26.45
240.735	102.57
240.952	121
241.169	88.23
241.386	67.75
241.603	8.36
241.821	69.8
242.038	39.08
242.255	108.71
242.472	10.41
242.689	63.66
242.907	-1.88
243.124	143.53
243.341	51.37
243.558	57.51
243.775	-5.97
243.992	49.32
244.209	94.38
244.426	55.47
244.643	59.56
244.86	43.18
245.078	63.66
245.295	-51.03
245.512	-10.07
245.729	41.13
245.946	30.89
246.163	55.47
246.38	-26.45
246.597	12.46
246.814	63.66
247.031	59.56
247.248	90.28
247.464	20.65
247.681	63.66
247.898	51.37
248.115	67.75
248.332	110.76
248.549	55.47
248.766	153.77
248.983	112.81
249.2	18.6
249.417	90.28
249.633	84.14
249.85	63.66
250.067	28.84
250.284	49.32
250.501	32.94
250.717	80.04
250.934	37.03
251.151	63.66
251.368	26.79
251.585	94.38
251.801	-14.17
252.018	26.79
252.235	32.94
252.451	-18.26
252.668	16.55
252.885	20.65
253.102	61.61
253.318	86.19
253.535	55.47
253.752	94.38
253.968	6.31
254.185	57.51
254.401	88.23
254.618	92.33
254.835	45.23
255.051	102.57
255.268	6.31
255.484	51.37
255.701	4.27
255.917	45.23
256.134	32.94
256.351	4.27
256.567	47.27
256.784	57.51
257	32.94
257.217	34.99
257.433	94.38
257.65	34.99
257.866	10.41
258.082	41.13
258.299	94.38
258.515	26.79
258.732	37.03
258.948	-59.22
259.165	43.18
259.381	57.51
259.597	90.28
259.814	67.75
260.03	82.09
260.246	90.28
260.463	67.75
260.679	57.51
260.895	28.84
261.112	102.57
261.328	-1.88
261.544	4.27
261.761	30.89
261.977	67.75
262.193	10.41
262.409	-12.12
262.626	88.23
262.842	39.08
263.058	-28.5
263.274	55.47
263.49	22.7
263.707	88.23
263.923	106.67
264.139	-5.97
264.355	32.94
264.571	155.82
264.787	75.95
265.004	0.17
265.22	69.8
265.436	-20.31
265.652	-20.31
265.868	53.42
266.084	32.94
266.3	28.84
266.516	102.57
266.732	30.89
266.948	94.38
267.164	-12.12
267.38	94.38
267.596	34.99
267.812	53.42
268.028	47.27
268.244	41.13
268.46	57.51
268.676	32.94
268.892	73.9
269.108	82.09
269.324	73.9
269.54	8.36
269.756	53.42
269.972	125.1
270.188	84.14
270.403	10.41
270.619	30.89
270.835	63.66
271.051	75.95
271.267	-8.02
271.483	77.99
271.698	53.42
271.914	43.18
272.13	22.7
272.346	18.6
272.562	18.6
272.777	104.62
272.993	98.47
273.209	114.86
273.425	59.56
273.64	63.66
273.856	82.09
274.072	51.37
274.287	14.51
274.503	43.18
274.719	67.75
274.934	92.33
275.15	-3.93
275.366	157.86
275.581	4.27
275.797	84.14
276.012	6.31
276.228	45.23
276.444	10.41
276.659	116.9
276.875	88.23
277.09	47.27
277.306	37.03
277.521	53.42
277.737	61.61
277.952	114.86
278.168	41.13
278.383	28.84
278.599	2.22
278.814	34.99
279.03	77.99
279.245	4.27
279.461	61.61
279.676	75.95
279.892	75.95
280.107	84.14
280.322	2.22
280.538	4.27
280.753	125.1
280.969	110.76
281.184	53.42
281.399	92.33
281.615	69.8
281.83	137.38
282.045	55.47
282.26	-14.17
282.476	65.71
282.691	88.23
282.906	-30.55
283.122	47.27
283.337	8.36
283.552	51.37
283.767	55.47
283.983	75.95
284.198	73.9
284.413	77.99
284.628	59.56
284.843	26.79
285.058	12.46
285.274	18.6
285.489	-61.27
285.704	65.71
285.919	57.51
286.134	22.7
286.349	8.36
286.564	53.42
286.779	94.38
286.995	67.75
287.21	41.13
287.425	20.65
287.64	-38.74
287.855	57.51
288.07	-14.17
288.285	75.95
288.5	18.6
288.715	88.23
288.93	28.84
289.145	-3.93
289.36	96.43
289.575	77.99
289.79	20.65
290.004	88.23
290.219	129.19
290.434	28.84
290.649	16.55
290.864	63.66
291.079	20.65
291.294	71.85
291.509	37.03
291.724	67.75
291.938	30.89
292.153	141.48
292.368	6.31
292.583	121
292.798	-1.88
293.012	55.47
293.227	6.31
293.442	14.51
293.657	73.9
293.871	96.43
294.086	75.95
294.301	75.95
294.516	20.65
294.73	53.42
294.945	20.65
295.16	86.19
295.374	57.51
295.589	37.03
295.804	20.65
296.018	135.34
296.233	-10.07
296.447	106.67
296.662	8.36
296.877	71.85
297.091	104.62
297.306	32.94
297.52	49.32
297.735	86.19
297.949	53.42
298.164	32.94
298.378	96.43
298.593	34.99
298.807	77.99
299.022	69.8
299.236	96.43
299.451	55.47
299.665	125.1
299.88	77.99
300.094	59.56
300.309	77.99
300.523	112.81
300.737	28.84
300.952	53.42
301.166	82.09
301.381	14.51
301.595	34.99
301.809	80.04
302.024	43.18
302.238	51.37
302.452	73.9
302.667	6.31
302.881	141.48
303.095	112.81
303.309	98.47
303.524	-3.93
303.738	4.27
303.952	18.6
304.166	80.04
304.381	-18.26
304.595	166.06
304.809	63.66
305.023	106.67
305.237	24.75
305.452	47.27
305.666	71.85
305.88	34.99
306.094	-34.64
306.308	71.85
306.522	59.56
306.736	59.56
306.95	94.38
307.164	51.37
307.379	-24.4
307.593	37.03
307.807	96.43
308.021	57.51
308.235	67.75
308.449	-10.07
308.663	-14.17
308.877	161.96
309.091	108.71
309.305	178.34
309.519	106.67
309.733	90.28
309.947	-24.4
310.161	75.95
310.374	102.57
310.588	12.46
310.802	12.46
311.016	77.99
311.23	80.04
311.444	26.79
311.658	69.8
311.872	86.19
312.085	41.13
312.299	139.43
312.513	45.23
312.727	26.79
312.941	24.75
313.154	71.85
313.368	26.79
313.582	53.42
313.796	116.9
314.009	65.71
314.223	141.48
314.437	67.75
314.651	39.08
314.864	-5.97
315.078	2.22
315.292	59.56
315.505	125.1
315.719	88.23
315.933	104.62
316.146	104.62
316.36	49.32
316.573	86.19
316.787	61.61
317.001	102.57
317.214	49.32
317.428	96.43
317.641	71.85
317.855	73.9
318.068	94.38
318.282	110.76
318.495	164.01
318.709	77.99
318.922	45.23
319.136	129.19
319.349	47.27
319.563	30.89
319.776	90.28
319.99	102.57
320.203	129.19
320.417	-18.26
320.63	61.61
320.843	110.76
321.057	67.75
321.27	102.57
321.483	75.95
321.697	16.55
321.91	34.99
322.124	98.47
322.337	71.85
322.55	20.65
322.763	16.55
322.977	96.43
323.19	77.99
323.403	86.19
323.617	8.36
323.83	69.8
324.043	75.95
324.256	125.1
324.469	55.47
324.683	116.9
324.896	26.79
325.109	49.32
325.322	51.37
325.535	26.79
325.748	41.13
325.962	73.9
326.175	28.84
326.388	86.19
326.601	114.86
326.814	137.38
327.027	131.24
327.24	133.29
327.453	51.37
327.666	49.32
327.879	61.61
328.092	51.37
328.305	65.71
328.518	88.23
328.731	20.65
328.944	100.52
329.157	75.95
329.37	86.19
329.583	2.22
329.796	135.34
330.009	71.85
330.222	71.85
330.435	106.67
330.648	82.09
330.861	63.66
331.073	71.85
331.286	65.71
331.499	53.42
331.712	110.76
331.925	43.18
332.138	123.05
332.35	49.32
332.563	80.04
332.776	59.56
332.989	6.31
333.202	80.04
333.414	94.38
333.627	82.09
333.84	88.23
334.053	75.95
334.265	53.42
334.478	32.94
334.691	80.04
334.903	82.09
335.116	86.19
335.329	153.77
335.541	39.08
335.754	39.08
335.966	10.41
336.179	80.04
336.392	41.13
336.604	-1.88
336.817	53.42
337.029	133.29
337.242	18.6
337.454	69.8
337.667	24.75
337.88	30.89
338.092	92.33
338.305	86.19
338.517	104.62
338.729	94.38
338.942	71.85
339.154	69.8
339.367	59.56
339.579	84.14
339.792	-1.88
340.004	63.66
340.217	39.08
340.429	147.62
340.641	100.52
340.854	80.04
341.066	125.1
341.278	104.62
341.491	108.71
341.703	57.51
341.915	2.22
342.128	90.28
342.34	51.37
342.552	170.15
342.764	16.55
342.977	86.19
343.189	71.85
343.401	37.03
343.613	65.71
343.826	55.47
344.038	71.85
344.25	110.76
344.462	65.71
344.674	84.14
344.886	127.14
345.099	39.08
345.311	131.24
345.523	112.81
345.735	-36.69
345.947	121
346.159	178.34
346.371	71.85
346.583	39.08
346.795	123.05
347.007	30.89
347.219	86.19
347.431	110.76
347.643	69.8
347.855	112.81
348.067	137.38
348.279	2.22
348.491	106.67
348.703	82.09
348.915	73.9
349.127	86.19
349.339	75.95
349.551	53.42
349.763	88.23
349.975	80.04
350.187	51.37
350.399	55.47
350.61	149.67
350.822	116.9
351.034	125.1
351.246	96.43
351.458	47.27
351.669	88.23
351.881	73.9
352.093	77.99
352.305	143.53
352.517	67.75
352.728	143.53
352.94	116.9
353.152	118.95
353.363	82.09
353.575	112.81
353.787	112.81
353.999	75.95
354.21	55.47
354.422	2.22
354.633	12.46
354.845	123.05
355.057	143.53
355.268	73.9
355.48	59.56
355.692	30.89
355.903	18.6
356.115	92.33
356.326	41.13
356.538	77.99
356.749	39.08
356.961	-12.12
357.172	88.23
357.384	-5.97
357.595	133.29
357.807	75.95
358.018	73.9
358.23	82.09
358.441	61.61
358.653	61.61
358.864	121
359.075	65.71
359.287	86.19
359.498	0.17
359.709	45.23
359.921	45.23
360.132	86.19
360.344	12.46
360.555	34.99
360.766	63.66
360.977	94.38
361.189	118.95
361.4	118.95
361.611	100.52
361.823	139.43
362.034	71.85
362.245	102.57
362.456	133.29
362.667	73.9
362.879	67.75
363.09	45.23
363.301	164.01
363.512	164.01
363.723	129.19
363.935	39.08
364.146	92.33
364.357	-1.88
364.568	73.9
364.779	82.09
364.99	98.47
365.201	67.75
365.412	47.27
365.623	49.32
365.834	88.23
366.045	84.14
366.256	116.9
366.467	100.52
366.678	125.1
366.889	100.52
367.1	118.95
367.311	131.24
367.522	47.27
367.733	71.85
367.944	137.38
368.155	116.9
368.366	157.86
368.577	104.62
368.788	104.62
368.999	67.75
369.209	137.38
369.42	104.62
369.631	121
369.842	118.95
370.053	32.94
370.264	106.67
370.474	123.05
370.685	121
370.896	125.1
371.107	153.77
371.317	139.43
371.528	57.51
371.739	80.04
371.95	112.81
372.16	123.05
372.371	88.23
372.582	104.62
372.792	116.9
373.003	96.43
373.214	100.52
373.424	71.85
373.635	49.32
373.846	102.57
374.056	145.58
374.267	125.1
374.477	108.71
374.688	82.09
374.898	67.75
375.109	164.01
375.319	84.14
375.53	139.43
375.74	174.25
375.951	71.85
376.161	18.6
376.372	94.38
376.582	59.56
376.793	88.23
377.003	88.23
377.214	69.8
377.424	116.9
377.635	139.43
377.845	145.58
378.055	112.81
378.266	16.55
378.476	123.05
378.686	77.99
378.897	100.52
379.107	43.18
379.317	133.29
379.528	133.29
379.738	77.99
379.948	65.71
380.158	80.04
380.369	123.05
380.579	82.09
380.789	43.18
380.999	84.14
381.21	86.19
381.42	121
381.63	28.84
381.84	145.58
382.05	90.28
382.261	75.95
382.471	90.28
382.681	51.37
382.891	131.24
383.101	77.99
383.311	37.03
383.521	168.1
383.731	123.05
383.941	121
384.151	108.71
384.361	157.86
384.571	77.99
384.781	71.85
384.991	108.71
385.201	55.47
385.411	223.4
385.621	98.47
385.831	133.29
386.041	98.47
386.251	102.57
386.461	188.58
386.671	123.05
386.881	129.19
387.091	151.72
387.301	166.06
387.511	100.52
387.72	125.1
387.93	75.95
388.14	88.23
388.35	133.29
388.56	170.15
388.769	75.95
388.979	110.76
389.189	69.8
389.399	129.19
389.609	166.06
389.818	178.34
390.028	129.19
390.238	108.71
390.447	110.76
390.657	94.38
390.867	82.09
391.076	170.15
391.286	139.43
391.496	194.73
391.705	131.24
391.915	164.01
392.125	209.06
392.334	116.9
392.544	219.3
392.753	94.38
392.963	112.81
393.172	116.9
393.382	178.34
393.591	166.06
393.801	145.58
394.01	131.24
394.22	184.49
394.429	123.05
394.639	164.01
394.848	157.86
395.058	123.05
395.267	178.34
395.477	207.02
395.686	161.96
395.895	145.58
396.105	233.64
396.314	180.39
396.524	121
396.733	121
396.942	186.54
397.152	223.4
397.361	233.64
397.57	180.39
397.78	149.67
397.989	264.36
398.198	247.97
398.407	243.88
398.617	272.55
398.826	225.45
399.035	200.87
399.244	202.92
399.453	207.02
399.663	256.17
399.872	299.17
400.081	241.83
400.29	282.79
400.499	178.34
400.708	272.55
400.917	190.63
401.127	280.74
401.336	182.44
401.545	258.21
401.754	252.07
401.963	241.83
402.172	225.45
402.381	325.8
402.59	225.45
402.799	303.27
403.008	284.84
403.217	256.17
403.426	211.11
403.635	264.36
403.844	286.89
404.053	258.21
404.262	270.5
404.471	295.08
404.68	303.27
404.888	264.36
405.097	284.84
405.306	340.13
405.515	395.43
405.724	395.43
405.933	403.62
406.142	333.99
406.35	415.91
406.559	438.44
406.768	354.47
406.977	413.86
407.185	377
407.394	450.72
407.603	393.38
407.812	489.64
408.02	446.63
408.229	475.3
408.438	450.72
408.646	592.03
408.855	530.59
409.064	510.11
409.272	489.64
409.481	647.33
409.69	594.08
409.898	647.33
410.107	626.85
410.315	704.67
410.524	751.78
410.733	770.21
410.941	788.64
411.15	798.88
411.358	776.35
411.567	835.74
411.775	856.22
411.984	856.22
412.192	981.15
412.401	985.24
412.609	987.29
412.818	1147.03
413.026	1011.87
413.234	1142.94
413.443	1153.18
413.651	1200.28
413.86	1282.2
414.068	1353.88
414.276	1446.04
414.485	1478.8
414.693	1431.7
414.901	1437.84
415.11	1583.25
415.318	1568.91
415.526	1636.5
415.734	1718.42
415.943	1734.8
416.151	1837.2
416.359	1853.58
416.567	1880.21
416.776	1865.87
416.984	2146.44
417.192	2242.7
417.4	2291.85
417.608	2295.94
417.817	2287.75
418.025	2365.57
418.233	2613.38
418.441	2480.26
418.649	2711.68
418.857	2805.89
419.065	2930.81
419.273	2885.76
419.481	2984.06
419.689	3258.49
419.897	3252.35
420.105	3348.6
420.313	3442.81
420.521	3541.11
420.729	3590.26
420.937	3801.2
421.145	3942.51
421.353	4044.91
421.561	4333.67
421.769	4481.13
421.977	4671.59
422.185	4567.14
422.393	4864.1
422.601	5097.56
422.809	5054.56
423.017	5218.4
423.224	5531.73
423.432	5597.27
423.64	5613.65
423.848	6207.56
424.056	6076.49
424.263	6391.88
424.471	6481.99
424.679	6635.59
424.887	7071.81
425.094	7092.29
425.302	7241.79
425.51	7493.69
425.718	7635
425.925	7919.67
426.133	8200.24
426.341	8439.85
426.548	8906.79
426.756	8990.75
426.964	9066.53
427.171	9408.54
427.379	9752.6
427.586	10065.94
427.794	9955.35
428.001	10717.19
428.209	11216.9
428.417	10905.6
428.624	11649.02
428.832	11872.25
429.039	11677.69
429.247	11638.78
429.454	12974.05
429.662	13672.41
429.869	12722.15
430.076	13754.33
430.284	13373.41
430.491	13914.07
430.699	14909.38
430.906	14569.42
431.114	14882.76
431.321	15648.7
431.528	15685.56
431.736	16541.61
431.943	17211.3
432.15	16859.05
432.358	17280.93
432.565	18143.13
432.772	18233.24
432.979	19005.32
433.187	19445.63
433.394	19347.33
433.601	20862.83
433.808	20762.48
434.016	20709.23
434.223	21577.57
434.43	22814.54
434.637	22445.91
434.844	23914.3
435.052	24414.01
435.259	24371
435.466	24237.88
435.673	24004.41
435.88	25571.11
436.087	27000.59
436.294	26926.86
436.501	26535.7
436.708	26875.66
436.915	28133.12
437.122	28948.21
437.329	29003.5
437.537	29996.77
437.743	30486.23
437.95	30199.52
438.157	31809.22
438.364	32847.54
438.571	32779.96
438.778	32798.39
438.985	36052.61
439.192	34584.22
439.399	36099.72
439.606	34862.74
439.813	36791.93
440.02	38837.85
440.227	38098.53
440.433	38268.51
440.64	39239.25
440.847	39300.69
441.054	39968.33
441.261	42262.05
441.467	41891.37
441.674	43099.67
441.881	44385.8
442.088	44043.79
442.294	43572.75
442.501	44916.22
442.708	45905.39
442.914	47488.47
443.121	49358.27
443.328	48143.82
443.534	51602.84
443.741	49745.33
443.948	49112.51
444.154	52905.35
444.361	52477.32
444.568	52948.35
444.774	53001.6
444.981	53243.26
445.187	54984.04
445.394	57070.92
445.6	56608.07
445.807	60851.47
446.013	58760.49
446.22	60204.31
446.426	62098.68
446.633	62573.81
446.839	64081.11
447.046	62375.15
447.252	64081.11
447.459	64081.11
447.665	64081.11
447.871	64081.11
448.078	64081.11
448.284	64081.11
448.491	64081.11
448.697	64081.11
448.903	64081.11
449.11	64081.11
449.316	64081.11
449.522	64081.11
449.728	64081.11
449.935	64081.11
450.141	64081.11
450.347	64081.11
450.553	64081.11
450.76	64081.11
450.966	64081.11
451.172	64081.11
451.378	64081.11
451.584	64081.11
451.791	64081.11
451.997	64081.11
452.203	64081.11
452.409	64081.11
452.615	64081.11
452.821	64081.11
453.027	64081.11
453.233	64081.11
453.44	64081.11
453.646	64081.11
453.852	64081.11
454.058	64081.11
454.264	64081.11
454.47	64081.11
454.676	64081.11
454.882	64081.11
455.088	64081.11
455.294	64081.11
455.5	64081.11
455.705	64081.11
455.911	64081.11
456.117	64081.11
456.323	64081.11
456.529	64081.11
456.735	64081.11
456.941	64081.11
457.147	64081.11
457.352	64081.11
457.558	64081.11
457.764	64081.11
457.97	63847.64
458.176	62166.26
458.381	61889.79
458.587	59016.49
458.793	59483.42
458.999	56091.99
459.204	59645.21
459.41	58613.04
459.616	54895.97
459.821	54846.82
460.027	54580.59
460.233	53140.86
460.438	50800.04
460.644	51967.38
460.85	49182.14
461.055	48917.95
461.261	48383.43
461.466	45520.37
461.672	43679.25
461.878	46892.51
462.083	43806.22
462.289	42851.87
462.494	42440.23
462.7	40623.68
462.905	39591.5
463.111	40826.43
463.316	40855.1
463.522	39878.22
463.727	40398.4
463.932	40377.92
464.138	39634.51
464.343	39757.39
464.549	38600.29
464.754	39870.03
464.959	39626.32
465.165	39360.08
465.37	37846.63
465.575	36740.73
465.781	38321.76
465.986	38239.84
466.191	36654.72
466.397	36400.77
466.602	34541.21
466.807	35819.14
467.012	36286.08
467.218	35675.79
467.423	35319.44
467.628	35483.28
467.833	37238.39
468.038	35368.59
468.244	34555.55
468.449	35851.91
468.654	34551.45
468.859	34586.27
469.064	34475.68
469.269	32960.18
469.474	32968.37
469.679	33885.86
469.885	32876.21
470.09	33226.42
470.295	32898.74
470.5	32214.72
470.705	32415.42
470.91	31798.98
471.115	31583.94
471.32	31952.58
471.525	31723.21
471.73	31002.32
471.935	31010.51
472.139	29849.32
472.344	30199.52
472.549	30099.17
472.754	29644.52
472.959	29183.73
473.164	28466.94
473.369	28102.4
473.574	29155.05
473.778	28647.16
473.983	28317.43
474.188	28454.65
474.393	27256.59
474.598	27326.22
474.802	26984.21
475.007	26634
475.212	26994.45
475.417	25941.79
475.621	25960.22
475.826	25935.65
476.031	25288.49
476.235	24944.43
476.44	25431.85
476.645	24887.09
476.849	24995.63
477.054	24678.19
477.259	24119.1
477.463	24297.27
477.668	23207.75
477.872	23816
478.077	23246.66
478.282	22855.5
478.486	22910.8
478.691	22722.38
478.895	22452.05
479.1	22521.68
479.304	22544.21
479.509	21575.52
479.713	21884.76
479.918	21880.67
480.122	21233.51
480.326	21423.97
480.531	21452.64
480.735	21268.33
480.94	21372.77
481.144	21950.3
481.348	21077.87
481.553	21174.12
481.757	20756.33
481.961	20959.08
482.166	21274.47
482.37	21075.82
482.574	20406.13
482.778	20758.38
482.983	21251.94
483.187	20764.53
483.391	21133.16
483.595	20526.96
483.8	20576.11
484.004	20502.39
484.208	20739.95
484.412	20774.77
484.616	20604.78
484.821	20690.8
485.025	20410.23
485.229	20791.15
485.433	20508.53
485.637	20866.92
485.841	20682.61
486.045	20526.96
486.249	20598.64
486.453	20320.12
486.657	20651.89
486.861	20748.14
487.065	20184.95
487.269	20619.12
487.473	20432.75
487.677	20721.52
487.881	20561.78
488.085	20328.31
488.289	20954.99
488.493	20348.79
488.697	20842.35
488.901	21020.52
489.105	20764.53
489.309	20584.3
489.512	20770.67
489.716	20627.31
489.92	20737.9
490.124	20733.81
490.328	21387.11
490.531	20795.25
490.735	20934.51
490.939	21184.36
491.143	21059.43
491.346	21127.02
491.55	21356.39
491.754	21485.41
491.958	21499.75
492.161	20942.7
492.365	21522.27
492.569	21569.38
492.772	21880.67
492.976	21819.23
493.18	22017.88
493.383	22202.2
493.587	22433.62
493.79	22665.04
493.994	22089.56
494.197	22454.1
494.401	22632.27
494.605	22669.14
494.808	23000.91
495.012	23072.59
495.215	22947.66
495.419	23394.12
495.622	23256.9
495.825	24014.65
496.029	23889.73
496.232	24192.83
496.436	24147.77
496.639	24602.42
496.843	24510.26
497.046	24897.33
497.249	25487.14
497.453	25403.18
497.656	25429.8
497.859	25581.35
498.063	25870.11
498.266	26582.81
498.469	26617.62
498.673	26457.88
498.876	27096.85
499.079	27430.66
499.282	27432.71
499.485	28172.03
499.689	28178.17
499.892	28485.37
500.095	28294.91
500.298	29181.68
500.501	28915.44
500.705	29791.97
500.908	30060.26
501.111	30017.25
501.314	30111.46
501.517	30809.81
501.72	30897.88
501.923	30916.31
502.126	32085.7
502.329	32376.51
502.532	32218.82
502.735	32433.85
502.938	33097.39
503.141	33103.54
503.344	33980.07
503.547	33601.19
503.75	34291.36
503.953	34625.18
504.156	35069.59
504.359	35444.37
504.562	35622.54
504.765	36374.14
504.968	36550.27
505.17	37039.73
505.373	37074.55
505.576	37813.87
505.779	38030.95
505.982	37938.79
506.185	38944.34
506.387	38778.46
506.59	39208.53
506.793	40332.87
506.996	39964.23
507.198	40955.45
507.401	40914.49
507.604	41575.98
507.807	42004.01
508.009	42034.73
508.212	42368.55
508.415	43046.43
508.617	43783.69
508.82	43511.31
509.022	43580.95
509.225	44637.7
509.428	44885.5
509.63	44934.65
509.833	45157.88
510.035	46343.66
510.238	46241.26
510.44	46943.71
510.643	47633.88
510.845	47752.66
511.048	47375.83
511.25	48416.2
511.453	48235.98
511.655	50097.58
511.858	49528.25
512.06	49407.42
512.262	50269.61
512.465	50421.16
512.667	50965.92
512.87	51461.53
513.072	51455.39
513.274	52481.42
513.477	52901.25
513.679	52790.66
513.881	54068.59
514.084	54103.41
514.286	54170.99
514.488	54443.37
514.69	55606.62
514.893	55688.54
515.095	55885.14
515.297	56767.82
515.499	56614.22
515.701	57324.86
515.904	58074.42
516.106	57826.62
516.308	58455.34
516.51	58953
516.712	59153.7
516.914	59604.25
517.116	60292.37
517.318	60259.6
517.52	60601.61
517.722	60892.43
517.925	61408.51
518.127	61979.9
518.329	62512.37
518.531	62145.78
518.733	63071.46
518.935	63177.96
519.136	63612.13
519.338	64081.11
519.54	64081.11
519.742	64081.11
519.944	64081.11
520.146	64081.11
520.348	64081.11
520.55	64081.11
520.752	64081.11
520.954	64081.11
521.155	64081.11
521.357	64081.11
521.559	64081.11
521.761	64081.11
521.963	64081.11
522.164	64081.11
522.366	64081.11
522.568	64081.11
522.77	64081.11
522.971	64081.11
523.173	64081.11
523.375	64081.11
523.576	64081.11
523.778	64081.11
523.98	64081.11
524.181	64081.11
524.383	64081.11
524.584	64081.11
524.786	64081.11
524.988	64081.11
525.189	64081.11
525.391	64081.11
525.592	64081.11
525.794	64081.11
525.995	64081.11
526.197	64081.11
526.398	64081.11
526.6	64081.11
526.801	64081.11
527.003	64081.11
527.204	64081.11
527.406	64081.11
527.607	64081.11
527.808	64081.11
528.01	64081.11
528.211	64081.11
528.412	64081.11
528.614	64081.11
528.815	64081.11
529.016	64081.11
529.218	64081.11
529.419	64081.11
529.62	64081.11
529.822	64081.11
530.023	64081.11
530.224	64081.11
530.425	64081.11
530.626	64081.11
530.828	64081.11
531.029	64081.11
531.23	64081.11
531.431	64081.11
531.632	64081.11
531.833	64081.11
532.035	64081.11
532.236	64081.11
532.437	64081.11
532.638	64081.11
532.839	64081.11
533.04	64081.11
533.241	64081.11
533.442	64081.11
533.643	64081.11
533.844	64081.11
534.045	64081.11
534.246	64081.11
534.447	64081.11
534.648	64081.11
534.849	64081.11
535.05	64081.11
535.251	64081.11
535.451	64081.11
535.652	64081.11
535.853	64081.11
536.054	64081.11
536.255	64081.11
536.456	64081.11
536.657	64081.11
536.857	64081.11
537.058	64081.11
537.259	64081.11
537.46	64081.11
537.66	64081.11
537.861	64081.11
538.062	64081.11
538.263	64081.11
538.463	64081.11
538.664	64081.11
538.865	64081.11
539.065	64081.11
539.266	64081.11
539.466	64081.11
539.667	64081.11
539.868	64081.11
540.068	64081.11
540.269	64081.11
540.469	64081.11
540.67	64081.11
540.87	64081.11
541.071	64081.11
541.271	64081.11
541.472	64081.11
541.672	64081.11
541.873	64081.11
542.073	64081.11
542.274	64081.11
542.474	64081.11
542.675	64081.11
542.875	64081.11
543.075	64081.11
543.276	64081.11
543.476	64081.11
543.676	64081.11
543.877	64081.11
544.077	64081.11
544.277	64081.11
544.478	64081.11
544.678	64081.11
544.878	64081.11
545.078	64081.11
545.279	64081.11
545.479	64081.11
545.679	64081.11
545.879	64081.11
546.079	64081.11
546.28	64081.11
546.48	64081.11
546.68	64081.11
546.88	64081.11
547.08	64081.11
547.28	64081.11
547.48	64081.11
547.68	64081.11
547.88	64081.11
548.081	64081.11
548.281	64081.11
548.481	64081.11
548.681	64081.11
548.881	64081.11
549.081	64081.11
549.28	64081.11
549.48	64081.11
549.68	64081.11
549.88	64081.11
550.08	64081.11
550.28	64081.11
550.48	64081.11
550.68	64081.11
550.88	64081.11
551.08	64081.11
551.279	64081.11
551.479	64081.11
551.679	64081.11
551.879	64081.11
552.079	64081.11
552.278	64081.11
552.478	64081.11
552.678	64081.11
552.878	64081.11
553.077	64081.11
553.277	64081.11
553.477	64081.11
553.676	64081.11
553.876	64081.11
554.076	64081.11
554.275	64081.11
554.475	64081.11
554.674	64081.11
554.874	64081.11
555.074	64081.11
555.273	64081.11
555.473	64081.11
555.672	64081.11
555.872	64081.11
556.071	64081.11
556.271	64081.11
556.47	64081.11
556.67	64081.11
556.869	64081.11
557.068	64081.11
557.268	64081.11
557.467	64081.11
557.667	64081.11
557.866	64081.11
558.065	64081.11
558.265	64081.11
558.464	64081.11
558.663	64081.11
558.863	64081.11
559.062	64081.11
559.261	64081.11
559.461	64081.11
559.66	64081.11
559.859	64081.11
560.058	64081.11
560.258	64081.11
560.457	64081.11
560.656	64081.11
560.855	64081.11
561.054	64081.11
561.253	64081.11
561.453	64081.11
561.652	64081.11
561.851	64081.11
562.05	64081.11
562.249	64081.11
562.448	64081.11
562.647	64081.11
562.846	64081.11
563.045	64081.11
563.244	64081.11
563.443	64081.11
563.642	64081.11
563.841	64081.11
564.04	64081.11
564.239	64081.11
564.438	64081.11
564.637	64081.11
564.836	64081.11
565.035	64081.11
565.234	64081.11
565.432	64081.11
565.631	64081.11
565.83	64081.11
566.029	64081.11
566.228	64081.11
566.427	64081.11
566.625	64081.11
566.824	64081.11
567.023	64081.11
567.222	64081.11
567.42	64081.11
567.619	64081.11
567.818	64081.11
568.016	64081.11
568.215	64081.11
568.414	64081.11
568.612	64081.11
568.811	64081.11
569.01	64081.11
569.208	64081.11
569.407	64081.11
569.605	64081.11
569.804	64081.11
570.002	64081.11
570.201	64081.11
570.4	64081.11
570.598	64081.11
570.797	64081.11
570.995	64081.11
571.193	64081.11
571.392	64081.11
571.59	64081.11
571.789	64081.11
571.987	64081.11
572.186	64081.11
572.384	64081.11
572.582	64081.11
572.781	64081.11
572.979	64081.11
573.177	64081.11
573.376	64081.11
573.574	64081.11
573.772	64081.11
573.971	64081.11
574.169	64081.11
574.367	64081.11
574.565	64081.11
574.763	64081.11
574.962	64081.11
575.16	64081.11
575.358	64081.11
575.556	64081.11
575.754	64081.11
575.952	64081.11
576.151	64081.11
576.349	64081.11
576.547	64081.11
576.745	64081.11
576.943	64081.11
577.141	64081.11
577.339	64081.11
577.537	64081.11
577.735	64081.11
577.933	64081.11
578.131	64081.11
578.329	64081.11
578.527	64081.11
578.725	64081.11
578.923	64081.11
579.121	64081.11
579.319	64081.11
579.516	64081.11
579.714	64060.63
579.912	64081.11
580.11	63849.69
580.308	64081.11
580.506	63884.51
580.704	63593.7
580.901	63892.7
581.099	63986.91
581.297	63220.97
581.495	63272.17
581.692	63349.99
581.89	62741.74
582.088	63288.55
582.285	62674.16
582.483	63220.97
582.681	62956.78
582.878	62291.19
583.076	62090.49
583.274	62606.58
583.471	61467.9
583.669	62020.86
583.866	61775.1
584.064	61625.6
584.262	61267.2
584.459	61775.1
584.657	61691.13
584.854	61887.74
585.052	60341.52
585.249	61603.07
585.447	61340.93
585.644	60996.87
585.841	60507.41
586.039	60980.49
586.236	59858.2
586.434	60032.28
586.631	59958.55
586.828	60230.93
587.026	60048.66
587.223	59843.87
587.42	59421.98
587.618	59424.03
587.815	58899.75
588.012	58998.05
588.21	58815.79
588.407	59415.84
588.604	58570.03
588.801	58457.39
588.999	58758.44
589.196	58049.84
589.393	58572.08
589.59	58328.37
589.787	57937.21
589.984	57869.62
590.182	57320.77
590.379	57695.55
590.576	57261.38
590.773	57527.61
590.97	56917.32
591.167	57306.43
591.364	56206.67
591.561	56716.62
591.758	56163.67
591.955	56294.74
592.152	56284.5
592.349	55614.81
592.546	56073.56
592.743	55946.58
592.94	55207.26
593.137	55790.94
593.334	55401.82
593.531	54975.84
593.727	55147.87
593.924	55364.96
594.121	54406.51
594.318	55180.64
594.515	54197.62
594.712	54506.86
594.908	54084.98
595.105	54525.29
595.302	53734.77
595.499	53990.77
595.696	53972.34
595.892	53493.11
596.089	53759.35
596.286	53732.73
596.482	53036.42
596.679	53341.56
596.876	53013.89
597.072	52960.64
597.269	52733.32
597.466	52266.38
597.662	52266.38
597.859	52389.26
598.055	52673.93
598.252	51502.49
598.448	51801.49
598.645	51266.97
598.841	51318.17
599.038	51879.32
599.234	51455.39
599.431	50609.57
599.627	50671.01
599.824	51166.62
600.02	50441.64
600.217	50601.38
600.413	50146.73
600.609	50171.31
600.806	49552.82
601.002	50152.88
601.198	49421.75
601.395	49700.28
601.591	48971.2
601.787	49270.2
601.984	49450.42
602.18	49493.43
602.376	48846.27
602.572	48899.52
602.769	48831.94
602.965	48365
603.161	48434.63
603.357	48692.68
603.553	48188.88
603.75	48139.72
603.946	47998.41
604.142	48129.48
604.338	47351.26
604.534	47975.89
604.73	47310.3
604.926	46986.72
605.122	47439.32
605.318	46939.61
605.514	46761.44
605.71	46874.08
605.906	46757.35
606.102	46325.22
606.298	46702.05
606.494	46517.73
606.69	46394.85
606.886	46079.47
607.082	45923.82
607.278	45964.78
607.474	44875.26
607.67	45446.65
607.866	45407.73
608.062	45692.4
608.257	45524.47
608.453	45272.57
608.649	45596.15
608.845	45141.5
609.041	45075.96
609.236	45297.14
609.432	44619.27
609.628	44944.89
609.824	44600.83
610.019	44844.54
610.215	44328.45
610.411	44809.73
610.606	44424.71
610.802	44795.39
610.998	44422.66
611.193	44619.27
611.389	44213.77
611.584	43941.39
611.78	43714.06
611.976	44158.47
612.171	44011.02
612.367	43808.27
612.562	43861.52
612.758	43083.29
612.953	43480.6
613.149	43486.74
613.344	42952.22
613.539	43822.61
613.735	43320.85
613.93	43302.42
614.126	43294.23
614.321	43421.2
614.517	43247.13
614.712	43095.58
614.907	42837.53
615.103	42384.93
615.298	42685.98
615.493	43025.95
615.688	41975.34
615.884	43494.93
616.079	42130.98
616.274	42520.1
616.47	42186.28
616.665	42206.76
616.86	42335.78
617.055	42071.59
617.25	42036.78
617.445	42200.61
617.641	41266.74
617.836	41932.33
618.031	41315.89
618.226	41528.88
618.421	41057.85
618.616	41602.61
618.811	40887.87
619.006	41238.07
619.201	40558.14
619.396	40846.91
619.591	40230.47
619.786	40672.83
619.981	39714.38
620.176	40269.38
620.371	39536.21
620.566	39755.34
620.761	39276.12
620.956	39814.73
621.151	39102.04
621.346	39343.7
621.541	38465.12
621.735	38698.59
621.93	38299.23
622.125	38221.41
622.32	37733.99
622.515	38282.85
622.709	37766.76
622.904	37656.17
623.099	37351.02
623.294	37355.12
623.488	37017.21
623.683	36648.57
623.878	36296.32
624.072	36777.59
624.267	36161.15
624.462	36069
624.656	35874.44
624.851	35939.97
625.046	35120.79
625.24	35174.03
625.435	35100.31
625.629	34983.57
625.824	34854.55
626.018	35108.5
626.213	33775.27
626.407	34348.7
626.602	33959.59
626.796	34164.39
626.991	34057.89
627.185	34031.27
627.38	33095.35
627.574	33396.4
627.768	32718.52
627.963	32982.71
628.157	32511.67
628.352	32808.63
628.546	32368.32
628.74	32681.66
628.935	31911.62
629.129	32192.19
629.323	31436.49
629.517	31549.13
629.712	31237.84
629.906	31024.85
630.1	30639.83
630.294	31018.71
630.489	30545.62
630.683	30797.52
630.877	30490.33
631.071	30238.43
631.265	30301.92
631.459	29677.29
631.653	29650.66
631.848	30097.12
632.042	29626.09
632.236	29628.13
632.43	28897.01
632.624	29075.18
632.818	29023.98
633.012	28620.53
633.206	28610.29
633.4	28776.18
633.594	28118.78
633.788	28317.43
633.982	28251.9
634.176	28081.92
634.369	27422.47
634.563	27430.66
634.757	27328.27
634.951	27346.7
635.145	27565.83
635.339	27229.96
635.533	26801.94
635.726	26978.06
635.92	26679.06
636.114	26572.57
636.308	26500.89
636.501	26257.18
636.695	26320.67
636.889	25927.46
637.083	25839.39
637.276	25591.59
637.47	25747.23
637.664	25577.25
637.857	25562.92
638.051	25362.22
638.244	24919.85
638.438	25032.49
638.632	24827.7
638.825	24725.3
639.019	24532.79
639.212	24549.17
639.406	24309.56
639.599	24444.73
639.793	24241.98
639.986	23877.44
640.18	24024.89
640.373	23760.7
640.567	23582.53
640.76	23514.95
640.954	23230.28
641.147	23207.75
641.34	23191.37
641.534	23193.42
641.727	22998.86
641.92	22787.92
642.114	22595.41
642.307	22689.62
642.5	22681.42
642.694	22284.12
642.887	22042.46
643.08	22142.81
643.273	21874.52
643.467	22097.75
643.66	21624.67
643.853	21776.22
644.046	21499.75
644.239	21491.55
644.432	21423.97
644.626	21090.15
644.819	21043.05
645.012	21147.5
645.205	20969.32
645.398	20897.64
645.591	20694.89
645.784	20746.09
645.977	20160.38
646.17	20213.62
646.363	19996.54
646.556	19912.57
646.749	20070.26
646.942	20103.03
647.135	19761.02
647.328	19863.42
647.521	19470.21
647.714	19388.29
647.907	19238.79
648.099	19558.27
648.292	19412.87
648.485	19113.86
648.678	18716.56
648.871	18874.25
649.064	18984.84
649.256	18966.41
649.449	18542.48
649.642	18597.77
649.835	18313.11
650.027	18624.4
650.22	18345.87
650.413	18071.45
650.605	18102.17
650.798	18046.87
650.991	17616.8
651.183	17690.52
651.376	17581.98
651.568	17668
651.761	17520.54
651.954	17362.85
652.146	17274.79
652.339	17213.35
652.531	16930.73
652.724	17233.83
652.916	16807.85
653.109	16764.84
653.301	16738.22
653.494	16842.67
653.686	16560.05
653.879	16709.55
654.071	16367.54
654.263	16187.32
654.456	16099.25
654.648	16273.33
654.84	16050.1
655.033	16052.15
655.225	15994.81
655.417	15613.88
655.61	16015.29
655.802	15497.15
655.994	15292.35
656.186	15683.52
656.379	15529.92
656.571	15503.29
656.763	15179.72
656.955	15153.09
657.148	15187.91
657.34	15114.18
657.532	14804.94
657.724	14936.01
657.916	14942.15
658.108	14809.03
658.3	14731.21
658.492	14501.84
658.684	14383.06
658.876	14471.12
659.068	14163.92
659.26	14313.42
659.452	14401.49
659.644	14303.18
659.836	13901.78
660.028	14174.16
660.22	13586.4
660.412	13819.86
660.604	13803.48
660.796	13924.31
660.988	13496.28
661.18	13447.13
661.372	13320.16
661.563	13510.62
661.755	13254.62
661.947	13449.18
662.139	13109.22
662.331	13084.64
662.522	12759.02
662.714	12910.57
662.906	12908.52
663.097	12761.06
663.289	12570.6
663.481	12642.28
663.673	12765.16
663.864	12498.92
664.056	12369.9
664.247	12435.44
664.439	12181.49
664.631	12363.76
664.822	12433.39
665.014	11927.54
665.205	11970.55
665.397	12007.41
665.588	11878.39
665.78	11767.8
665.971	11767.8
666.163	11921.4
666.354	11524.09
666.546	11757.56
666.737	11737.08
666.929	11415.55
667.12	11503.61
667.311	11599.87
667.503	11399.16
667.694	11278.33
667.885	11034.63
668.077	11132.93
668.268	11290.62
668.459	11038.72
668.651	11089.92
668.842	11057.15
669.033	10967.04
669.224	10854.41
669.416	10758.15
669.607	10590.22
669.798	10696.71
669.989	10848.26
670.18	10622.98
670.371	10436.62
670.563	10508.3
670.754	10283.02
670.945	10416.14
671.136	10356.75
671.327	10209.29
671.518	10086.42
671.709	10203.15
671.9	10211.34
672.091	10123.28
672.282	9914.39
672.473	9932.82
672.664	10018.83
672.855	9766.93
673.046	9797.65
673.237	9953.3
673.428	9822.23
673.619	9791.51
673.809	9429.02
674	9459.74
674.191	9609.24
674.382	9494.55
674.573	9623.58
674.764	9494.55
674.954	9328.67
675.145	9304.09
675.336	9113.63
675.527	9373.72
675.717	9140.26
675.908	9138.21
676.099	9244.7
676.289	9019.43
676.48	8904.74
676.671	8939.55
676.861	8992.8
677.052	8697.89
677.243	8790.05
677.433	8790.05
677.624	8699.94
677.814	8800.29
678.005	8661.03
678.195	8478.76
678.386	8736.81
678.576	8749.09
678.767	8564.78
678.957	8685.61
679.148	8429.61
679.338	8431.66
679.529	8337.45
679.719	8290.35
679.909	8441.9
680.1	8196.14
680.29	8284.2
680.481	8192.05
680.671	8153.13
680.861	7999.54
681.052	8151.09
681.242	7948.34
681.432	8230.96
681.622	8161.33
681.813	7899.19
682.003	8177.71
682.193	7936.05
682.383	8030.26
682.573	7714.87
682.764	7788.6
682.954	7778.36
683.144	7538.74
683.334	7594.04
683.524	7610.42
683.714	7608.37
683.904	7516.22
684.094	7450.68
684.284	7581.75
684.474	7608.37
684.664	7569.46
684.854	7440.44
685.044	7417.91
685.234	7340.09
685.424	7313.47
685.614	7424.06
685.804	7176.25
685.994	7344.19
686.184	7374.91
686.374	7178.3
686.564	7184.45
686.753	7059.52
686.943	7125.05
687.133	6965.31
687.323	7010.37
687.513	6899.78
687.702	6776.9
687.892	6776.9
688.082	6617.16
688.272	6772.8
688.461	6744.13
688.651	6715.46
688.841	6527.05
689.03	6592.58
689.22	6559.81
689.41	6608.97
689.599	6406.22
689.789	6451.27
689.979	6301.77
690.168	6606.92
690.358	6316.11
690.547	6381.64
690.737	6269
690.926	6320.2
691.116	6256.72
691.305	6256.72
691.495	6269
691.684	6051.92
691.874	6238.28
692.063	6070.35
692.252	6035.53
692.442	6010.96
692.631	6010.96
692.82	5894.22
693.01	5818.45
693.199	5746.77
693.388	5699.67
693.578	5820.5
693.767	5935.18
693.956	5795.92
694.146	5759.06
694.335	5722.2
694.524	5634.13
694.713	5853.27
694.902	5642.32
695.092	5716.05
695.281	5453.91
695.47	5453.91
695.659	5410.9
695.848	5421.14
696.037	5525.59
696.226	5535.83
696.415	5474.39
696.604	5279.83
696.793	5290.07
696.982	5242.97
697.171	5339.23
697.36	5369.94
697.549	5304.41
697.738	5183.58
697.927	5167.2
698.116	5208.16
698.305	5183.58
698.494	5351.51
698.683	5220.44
698.872	5148.76
699.061	5003.36
699.25	5042.27
699.438	4995.17
699.627	4913.25
699.816	4876.38
700.005	4857.95
700.193	4839.52
700.382	4921.44
700.571	4833.38
700.76	5044.32
700.948	4798.56
701.137	4804.71
701.326	4837.47
701.514	4677.73
701.703	4640.87
701.892	4728.93
702.08	4776.03
702.269	4798.56
702.457	4593.76
702.646	4730.98
702.834	4667.49
703.023	4583.52
703.212	4622.44
703.4	4626.53
703.589	4524.13
703.777	4561
703.965	4524.13
704.154	4534.37
704.342	4386.92
704.531	4319.34
704.719	4485.22
704.907	4511.85
705.096	4458.6
705.284	4388.97
705.472	4431.98
705.661	4350.06
705.849	4329.58
706.037	4274.28
706.226	4311.14
706.414	4300.91
706.602	4253.8
706.79	4163.69
706.979	4264.04
707.167	4165.74
707.355	4149.36
707.543	4294.76
707.731	4210.79
707.919	4096.11
708.107	4124.78
708.296	4190.31
708.484	4143.21
708.672	4210.79
708.86	4067.44
709.048	3954.8
709.236	3989.61
709.424	4028.53
709.612	3991.66
709.8	4049
709.988	3934.32
710.176	3942.51
710.364	4120.68
710.551	3948.65
710.739	3930.22
710.927	3866.74
711.115	3991.66
711.303	3950.7
711.491	3934.32
711.679	3936.37
711.866	3840.11
712.054	4069.48
712.242	3881.07
712.43	3950.7
712.617	3876.98
712.805	3962.99
712.993	3879.02
713.181	3840.11
713.368	3854.45
713.556	3768.43
713.744	3719.28
713.931	3868.78
714.119	3713.14
714.306	3752.05
714.494	3733.62
714.682	3862.64
714.869	3725.43
715.057	3823.73
715.244	3833.97
715.432	3625.08
715.619	3663.99
715.807	3823.73
715.994	3784.82
716.182	3649.65
716.369	3704.95
716.556	3756.15
716.744	3616.88
716.931	3674.23
717.119	3618.93
717.306	3567.73
717.493	3571.83
717.681	3586.16
717.868	3489.91
718.055	3623.03
718.242	3590.26
718.43	3709.04
718.617	3479.67
718.804	3534.96
718.991	3559.54
719.179	3457.14
719.366	3557.49
719.553	3481.72
719.74	3590.26
719.927	3526.77
720.114	3510.39
720.301	3498.1
720.488	3494.01
720.676	3311.74
720.863	3399.8
721.05	3461.24
721.237	3481.72
721.424	3451
721.611	3446.9
721.798	3264.63
721.985	3412.09
722.172	3362.94
722.358	3317.88
722.545	3360.89
722.732	3418.23
722.919	3537.01
723.106	3260.54
723.293	3434.61
723.48	3233.91
723.667	3254.39
723.853	3270.78
724.04	3291.26
724.227	3457.14
724.414	3272.82
724.6	3287.16
724.787	3246.2
724.974	3399.8
725.161	3305.59
725.347	3299.45
725.534	3276.92
725.72	3319.93
725.907	3319.93
726.094	3369.08
726.28	3223.67
726.467	3170.43
726.653	3281.02
726.84	3315.83
727.027	3248.25
727.213	3190.91
727.4	3272.82
727.586	3176.57
727.773	3274.87
727.959	3127.42
728.145	3086.46
728.332	3145.85
728.518	3201.15
728.705	3246.2
728.891	3215.48
729.077	3231.87
729.264	3160.19
729.45	3076.22
729.636	3160.19
729.823	3125.37
730.009	3240.06
730.195	3166.33
730.382	3217.53
730.568	3092.6
730.754	3240.06
730.94	3215.48
731.126	3160.19
731.313	3170.43
731.499	3205.24
731.685	3053.69
731.871	3221.63
732.057	2998.4
732.243	3172.47
732.429	3108.99
732.615	3086.46
732.801	3039.36
732.987	3045.5
733.173	3078.27
733.359	3160.19
733.545	3127.42
733.731	3121.28
733.917	3207.29
734.103	3158.14
734.289	3045.5
734.475	3162.23
734.661	3192.95
734.847	3012.73
735.033	3168.38
735.219	3029.12
735.404	3020.92
735.59	3102.84
735.776	2992.25
735.962	2951.29
736.148	3068.03
736.333	3043.45
736.519	2990.21
736.705	3020.92
736.89	3082.36
737.076	3008.64
737.262	3068.03
737.447	3008.64
737.633	2869.37
737.819	2977.92
738.004	2984.06
738.19	3059.84
738.375	3059.84
738.561	2955.39
738.747	2840.7
738.932	2928.77
739.118	3000.44
739.303	2865.28
739.489	2975.87
739.674	2930.81
739.859	2918.53
740.045	2756.74
740.23	2898.05
740.416	2955.39
740.601	2840.7
740.786	2838.66
740.972	2852.99
741.157	2914.43
741.342	2828.42
741.528	3043.45
741.713	2896
741.898	2744.45
742.084	2871.42
742.269	2857.09
742.454	2771.07
742.639	2738.3
742.824	2771.07
743.01	2830.46
743.195	2889.85
743.38	2693.25
743.565	2760.83
743.75	2754.69
743.935	2652.29
744.12	2664.58
744.305	2584.71
744.49	2705.54
744.675	2746.5
744.86	2609.28
745.045	2666.63
745.23	2652.29
745.415	2656.39
745.6	2637.95
745.785	2619.52
745.97	2738.3
746.155	2584.71
746.34	2758.78
746.525	2541.7
746.71	2549.89
746.895	2474.12
747.079	2447.49
747.264	2465.93
747.449	2486.4
747.634	2513.03
747.819	2553.99
748.003	2496.64
748.188	2605.19
748.373	2570.37
748.557	2461.83
748.742	2316.42
748.927	2431.11
749.111	2355.33
749.296	2414.73
749.481	2355.33
749.665	2326.66
749.85	2316.42
750.034	2316.42
750.219	2304.14
750.404	2328.71
750.588	2326.66
750.773	2271.37
750.957	2218.12
751.141	2216.07
751.326	2252.94
751.51	2187.4
751.695	2058.38
751.879	2168.97
752.064	2316.42
752.248	2168.97
752.432	2140.3
752.617	2048.14
752.801	2158.73
752.985	2052.24
753.17	2074.76
753.354	2105.48
753.538	2099.34
753.722	2025.61
753.907	1904.78
754.091	1966.22
754.275	1945.74
754.459	2074.76
754.643	1996.94
754.828	1947.79
755.012	1849.49
755.196	1880.21
755.38	1943.69
755.564	2013.32
755.748	1882.25
755.932	1962.12
756.116	1849.49
756.3	1906.83
756.484	1824.91
756.668	1890.45
756.852	1816.72
757.036	1773.71
757.22	1736.85
757.404	1839.25
757.588	1767.57
757.772	1726.61
757.956	1779.86
758.14	1708.18
758.323	1605.78
758.507	1779.86
758.691	1790.1
758.875	1661.07
759.059	1718.42
759.242	1673.36
759.426	1710.22
759.61	1751.18
759.794	1640.59
759.977	1673.36
760.161	1650.83
760.345	1695.89
760.528	1591.44
760.712	1634.45
760.895	1589.39
761.079	1558.67
761.263	1599.63
761.446	1585.3
761.63	1601.68
761.813	1581.2
761.997	1515.67
762.18	1626.26
762.364	1546.39
762.547	1558.67
762.731	1495.19
762.914	1497.24
763.098	1413.27
763.281	1429.65
763.464	1540.24
763.648	1480.85
763.831	1462.42
764.015	1538.2
764.198	1495.19
764.381	1439.89
764.564	1562.77
764.748	1429.65
764.931	1400.98
765.114	1390.74
765.297	1460.37
765.481	1370.26
765.664	1515.67
765.847	1331.35
766.03	1425.56
766.213	1372.31
766.397	1394.84
766.58	1431.7
766.763	1390.74
766.946	1331.35
767.129	1333.4
767.312	1355.93
767.495	1294.49
767.678	1312.92
767.861	1392.79
768.044	1355.93
768.227	1419.41
768.41	1292.44
768.593	1368.21
768.776	1292.44
768.959	1261.72
769.142	1329.3
769.324	1339.54
769.507	1237.14
769.69	1296.53
769.873	1306.77
770.056	1321.11
770.239	1208.47
770.421	1255.58
770.604	1294.49
770.787	1237.14
770.97	1278.1
771.152	1200.28
771.335	1192.09
771.518	1187.99
771.7	1144.99
771.883	1271.96
772.066	1228.95
772.248	1208.47
772.431	1202.33
772.613	1198.23
772.796	1190.04
772.978	1120.41
773.161	1255.58
773.343	1175.7
773.526	1091.74
773.708	1063.07
773.891	1003.68
774.073	1132.7
774.256	1181.85
774.438	1171.61
774.621	1024.16
774.803	1126.55
774.985	1071.26
775.168	1132.7
775.35	1120.41
775.532	1101.98
775.715	1122.46
775.897	1065.11
776.079	997.53
776.261	1044.63
776.444	1034.39
776.626	952.48
776.808	948.38
776.99	977.05
777.173	983.2
777.355	1046.68
777.537	934.04
777.719	1007.77
777.901	1026.2
778.083	915.61
778.265	858.27
778.447	870.56
778.629	882.85
778.811	993.44
778.993	913.56
779.175	891.04
779.357	790.69
779.539	948.38
779.721	866.46
779.903	903.32
780.085	903.32
780.267	831.65
780.449	848.03
780.631	823.45
780.812	780.45
780.994	915.61
781.176	837.79
781.358	805.02
781.54	786.59
781.721	831.65
781.903	809.12
782.085	784.54
782.267	772.25
782.448	831.65
782.63	786.59
782.812	821.41
782.993	827.55
783.175	813.21
783.357	792.73
783.538	798.88
783.72	749.73
783.901	700.58
784.083	739.49
784.264	757.92
784.446	665.76
784.627	704.67
784.809	624.8
784.99	743.58
785.172	614.56
785.353	774.3
785.535	686.24
785.716	659.62
785.897	702.62
786.079	608.42
786.26	700.58
786.441	657.57
786.623	673.95
786.804	719.01
786.985	663.71
787.167	616.61
787.348	663.71
787.529	663.71
787.71	649.38
787.891	581.79
788.073	635.04
788.254	618.66
788.435	596.13
788.616	587.94
788.797	624.8
788.978	606.37
789.159	600.23
789.34	575.65
789.522	553.12
789.703	503.97
789.884	565.41
790.065	585.89
790.246	581.79
790.427	489.64
790.607	514.21
790.788	567.46
790.969	491.68
791.15	604.32
791.331	536.74
791.512	503.97
791.693	602.27
791.874	491.68
792.054	594.08
792.235	534.69
792.416	473.25
792.597	561.31
792.778	602.27
792.958	508.07
793.139	481.44
793.32	495.78
793.5	477.35
793.681	452.77
793.862	426.15
794.042	422.05
794.223	473.25
794.404	450.72
794.584	383.14
794.765	442.53
794.945	426.15
795.126	372.9
795.306	456.87
795.487	493.73
795.667	460.96
795.848	473.25
796.028	450.72
796.209	426.15
796.389	503.97
796.57	383.14
796.75	454.82
796.93	411.81
797.111	360.61
797.291	420
797.471	497.83
797.652	395.43
797.832	385.19
798.012	424.1
798.192	323.75
798.373	442.53
798.553	450.72
798.733	401.57
798.913	381.09
799.093	360.61
799.274	420
799.454	348.33
799.634	401.57
799.814	409.76
799.994	377
800.174	309.41
800.354	389.28
800.534	358.57
800.714	282.79
800.894	379.04
801.074	338.09
801.254	350.37
801.434	411.81
801.614	397.48
801.794	395.43
801.974	719.01
802.154	327.85
802.334	356.52
802.514	377
802.693	420
802.873	321.7
803.053	356.52
803.233	278.69
803.413	299.17
803.592	333.99
803.772	299.17
803.952	454.82
804.131	336.04
804.311	272.55
804.491	362.66
804.67	315.56
804.85	297.13
805.03	344.23
805.209	395.43
805.389	272.55
805.568	282.79
805.748	270.5
805.928	272.55
806.107	313.51
806.287	321.7
806.466	260.26
806.646	223.4
806.825	274.6
807.004	366.76
807.184	227.5
807.363	260.26
807.543	370.85
807.722	278.69
807.901	252.07
808.081	307.37
808.26	309.41
808.439	309.41
808.619	254.12
808.798	272.55
808.977	284.84
809.156	250.02
809.336	299.17
809.515	270.5
809.694	250.02
809.873	194.73
810.052	307.37
810.231	290.98
810.411	227.5
810.59	297.13
810.769	247.97
810.948	266.41
811.127	266.41
811.306	239.78
811.485	241.83
811.664	247.97
811.843	137.38
812.022	231.59
812.201	260.26
812.38	227.5
812.559	217.26
812.737	348.33
812.916	200.87
813.095	221.35
813.274	186.54
813.453	274.6
813.632	229.54
813.811	272.55
813.989	139.43
814.168	164.01
814.347	190.63
814.526	217.26
814.704	161.96
814.883	207.02
815.062	161.96
815.24	223.4
815.419	225.45
815.598	245.93
815.776	198.82
815.955	207.02
816.133	159.91
816.312	196.78
816.49	151.72
816.669	235.69
816.847	264.36
817.026	204.97
817.204	151.72
817.383	190.63
817.561	157.86
817.74	190.63
817.918	170.15
818.097	188.58
818.275	192.68
818.453	217.26
818.632	161.96
818.81	164.01
818.988	221.35
819.167	198.82
819.345	157.86
819.523	178.34
819.701	245.93
819.879	141.48
820.058	147.62
820.236	239.78
820.414	157.86
820.592	194.73
820.77	211.11
820.948	100.52
821.127	137.38
821.305	159.91
821.483	182.44
821.661	190.63
821.839	207.02
822.017	139.43
822.195	200.87
822.373	211.11
822.551	159.91
822.729	188.58
822.907	161.96
823.085	166.06
823.262	127.14
823.44	90.28
823.618	170.15
823.796	229.54
823.974	108.71
824.152	168.1
824.329	217.26
824.507	147.62
824.685	233.64
824.863	209.06
825.04	180.39
825.218	174.25
825.396	170.15
825.574	125.1
825.751	157.86
825.929	164.01
826.107	125.1
826.284	114.86
826.462	176.3
826.639	63.66
826.817	176.3
826.994	129.19
827.172	155.82
827.349	112.81
827.527	217.26
827.704	161.96
827.882	200.87
828.059	182.44
828.237	106.67
828.414	215.21
828.591	63.66
828.769	102.57
828.946	67.75
829.124	133.29
829.301	139.43
829.478	139.43
829.655	125.1
829.833	155.82
830.01	123.05
830.187	137.38
830.364	100.52
830.542	159.91
830.719	172.2
830.896	112.81
831.073	45.23
831.25	176.3
831.427	129.19
831.604	100.52
831.782	77.99
831.959	161.96
832.136	174.25
832.313	149.67
832.49	98.47
832.667	92.33
832.844	102.57
833.021	108.71
833.198	110.76
833.374	164.01
833.551	110.76
833.728	127.14
833.905	129.19
834.082	121
834.259	65.71
834.436	57.51
834.612	82.09
834.789	172.2
834.966	121
835.143	129.19
835.319	139.43
835.496	65.71
835.673	73.9
835.85	39.08
836.026	151.72
836.203	149.67
836.38	112.81
836.556	67.75
836.733	141.48
836.909	43.18
837.086	116.9
837.262	73.9
837.439	55.47
837.616	75.95
837.792	127.14
837.968	82.09
838.145	168.1
838.321	121
838.498	67.75
838.674	129.19
838.851	30.89
839.027	166.06
839.203	147.62
839.38	106.67
839.556	166.06
839.732	92.33
839.909	39.08
840.085	112.81
840.261	57.51
840.437	57.51
840.614	127.14
840.79	88.23
840.966	80.04
841.142	86.19
841.318	73.9
841.494	55.47
841.671	125.1
841.847	43.18
842.023	2.22
842.199	24.75
842.375	22.7
842.551	39.08
842.727	112.81
842.903	84.14
843.079	30.89
843.255	159.91
843.431	129.19
843.607	123.05
843.783	30.89
843.959	84.14
844.134	84.14
844.31	133.29
844.486	133.29
844.662	73.9
844.838	84.14
845.013	102.57
845.189	-42.84
845.365	6.31
845.541	80.04
845.716	34.99
845.892	65.71
846.068	116.9
846.244	71.85
846.419	24.75
846.595	26.79
846.77	77.99
846.946	75.95
847.122	41.13
847.297	6.31
847.473	30.89
847.648	61.61
847.824	22.7
847.999	41.13
848.175	-38.74
848.35	129.19
848.526	-16.21
848.701	94.38
848.876	49.32
849.052	20.65
849.227	116.9
849.403	88.23
849.578	14.51
849.753	18.6
849.929	96.43
850.104	-1.88
850.279	73.9
850.454	22.7
850.63	77.99
850.805	77.99
850.98	16.55
851.155	63.66
851.33	112.81
851.505	51.37
851.681	39.08
851.856	98.47
852.031	6.31
852.206	43.18
852.381	88.23
852.556	-1.88
852.731	116.9
852.906	94.38
853.081	108.71
853.256	118.95
853.431	61.61
853.606	90.28
853.781	14.51
853.956	24.75
854.131	102.57
854.305	12.46
854.48	-24.4
854.655	0.17
854.83	71.85
855.005	57.51
855.18	22.7
855.354	63.66
855.529	61.61
855.704	6.31
855.879	84.14
856.053	63.66
856.228	75.95
856.403	20.65
856.577	39.08
856.752	0.17
856.926	53.42
857.101	121
857.276	73.9
857.45	51.37
857.625	49.32
857.799	24.75
857.974	98.47
858.148	-20.31
858.323	80.04
858.497	28.84
858.672	47.27
858.846	-38.74
859.02	16.55
859.195	-20.31
859.369	14.51
859.543	34.99
859.718	84.14
859.892	-20.31
860.066	63.66
860.241	28.84
860.415	6.31
860.589	37.03
860.763	14.51
860.938	51.37
861.112	8.36
861.286	6.31
861.46	125.1
861.634	61.61
861.808	71.85
861.982	47.27
862.157	0.17
862.331	14.51
862.505	30.89
862.679	28.84
862.853	-1.88
863.027	53.42
863.201	26.79
863.375	63.66
863.549	39.08
863.722	-10.07
863.896	12.46
864.07	39.08
864.244	75.95
864.418	-8.02
864.592	41.13
864.766	16.55
864.939	18.6
865.113	-8.02
865.287	41.13
865.461	63.66
865.634	4.27
865.808	16.55
865.982	69.8
866.156	-12.12
866.329	12.46
866.503	57.51
866.676	-24.4
866.85	61.61
867.024	55.47
867.197	155.82
867.371	71.85
867.544	26.79
867.718	-12.12
867.891	-24.4
868.065	8.36
868.238	6.31
868.412	0.17
868.585	-116.56
868.759	10.41
868.932	26.79
869.105	98.47
869.279	47.27
869.452	-5.97
869.625	53.42
869.799	-22.36
869.972	-22.36
870.145	67.75
870.319	41.13
870.492	32.94
870.665	-18.26
870.838	96.43
871.011	-3.93
871.185	84.14
871.358	59.56
871.531	47.27
871.704	37.03
871.877	37.03
872.05	4.27
872.223	-18.26
872.396	22.7
872.569	45.23
872.742	86.19
872.915	-38.74
873.088	53.42
873.261	47.27
873.434	24.75
873.607	30.89
873.78	4.27
873.953	-59.22
874.126	26.79
874.299	32.94
874.471	32.94
874.644	88.23
874.817	57.51
874.99	123.05
875.163	100.52
875.335	59.56
875.508	49.32
875.681	2.22
875.853	28.84
876.026	55.47
876.199	94.38
876.371	45.23
876.544	0.17
876.717	-8.02
876.889	2.22
877.062	-22.36
877.234	8.36
877.407	10.41
877.579	10.41
877.752	47.27
877.924	-14.17
878.097	2.22
878.269	43.18
878.442	37.03
878.614	69.8
878.786	43.18
878.959	61.61
879.131	-34.64
879.303	-48.98
879.476	-26.45
879.648	-24.4
879.82	-24.4
879.993	28.84
880.165	63.66
880.337	-20.31
880.509	34.99
880.681	4.27
880.854	-38.74
881.026	12.46
881.198	125.1
881.37	-42.84
881.542	32.94
881.714	39.08
881.886	-10.07
882.058	6.31
882.23	12.46
882.402	-30.55
882.574	24.75
882.746	-32.6
882.918	43.18
883.09	129.19
883.262	-22.36
883.434	71.85
883.606	-22.36
883.778	16.55
883.95	47.27
884.122	10.41
884.293	30.89
884.465	88.23
884.637	39.08
884.809	-3.93
884.98	-1.88
885.152	47.27
885.324	59.56
885.496	61.61
885.667	110.76
885.839	-14.17
886.011	86.19
886.182	-34.64
886.354	39.08
886.525	41.13
886.697	16.55
886.869	41.13
887.04	24.75
887.212	-8.02
887.383	-20.31
887.555	41.13
887.726	-14.17
887.897	92.33
888.069	-12.12
888.24	-22.36
888.412	10.41
888.583	-12.12
888.754	26.79
888.926	-32.6
889.097	75.95
889.268	22.7
889.44	37.03
889.611	2.22
889.782	57.51
889.953	34.99
890.125	123.05
890.296	-3.93
890.467	-16.21
890.638	0.17
890.809	45.23
890.98	2.22
891.151	47.27
891.323	8.36
891.494	18.6
891.665	-12.12
891.836	39.08
892.007	-34.64
892.178	-16.21
892.349	51.37
892.52	18.6
892.691	28.84
892.862	6.31
893.032	-22.36
893.203	12.46
893.374	-42.84
893.545	59.56
893.716	12.46
893.887	18.6
894.057	10.41
894.228	-10.07
894.399	-55.12
894.57	16.55
894.74	-10.07
894.911	131.24
895.082	-14.17
895.253	14.51
895.423	59.56
895.594	-8.02
895.764	-30.55
895.935	34.99
896.106	57.51
896.276	-3.93
896.447	-12.12
896.617	-10.07
896.788	-63.32
896.958	-3.93
897.129	47.27
897.299	26.79
897.47	-83.8
897.64	-30.55
897.81	-30.55
897.981	8.36
898.151	10.41
898.322	2.22
898.492	12.46
898.662	26.79
898.832	-3.93
899.003	-8.02
899.173	24.75
899.343	16.55
899.513	67.75
