Data from USB4F104151__96__11-45-47-405.txt Node

Date: Fri Mar 14 11:45:47 EDT 2025
User: louis
Spectrometer: USB4F10415
Trigger mode: 4
Integration Time (sec): 2.000000E-2
Scans to average: 1
Electric dark correction enabled: true
Nonlinearity correction enabled: false
Boxcar width: 0
XAxis mode: Wavelengths
Number of Pixels in Spectrum: 3648
>>>>>Begin Spectral Data<<<<<
178.204	-159.4
178.424	-159.4
178.644	-159.4
178.864	-71.34
179.084	-83.63
179.304	20.82
179.524	-3.75
179.744	-34.47
179.964	14.68
180.184	14.68
180.404	2.39
180.624	10.58
180.844	-71.34
181.064	49.49
181.283	-26.28
181.503	26.96
181.723	-3.75
181.943	-9.9
182.163	39.25
182.383	41.3
182.602	55.64
182.822	51.54
183.042	41.3
183.262	-28.33
183.482	43.35
183.701	8.53
183.921	39.25
184.141	-5.8
184.361	63.83
184.58	49.49
184.8	12.63
185.02	39.25
185.239	92.5
185.459	78.16
185.679	10.58
185.898	-34.47
186.118	-30.38
186.338	63.83
186.557	53.59
186.777	100.69
186.997	-28.33
187.216	-18.09
187.436	-7.85
187.655	110.93
187.875	22.87
188.095	-24.23
188.314	-1.71
188.534	65.88
188.753	53.59
188.973	33.11
189.192	53.59
189.412	12.63
189.631	12.63
189.851	51.54
190.07	67.92
190.29	31.06
190.509	65.88
190.729	63.83
190.948	45.4
191.168	90.45
191.387	63.83
191.607	20.82
191.826	63.83
192.045	39.25
192.265	37.2
192.484	10.58
192.704	92.5
192.923	24.92
193.142	12.63
193.362	63.83
193.581	0.34
193.8	92.5
194.02	127.32
194.239	74.07
194.458	72.02
194.678	76.12
194.897	69.97
195.116	53.59
195.335	63.83
195.555	0.34
195.774	139.6
195.993	39.25
196.212	-24.23
196.432	18.77
196.651	-5.8
196.87	76.12
197.089	14.68
197.308	41.3
197.528	88.4
197.747	16.73
197.966	-34.47
198.185	67.92
198.404	29.01
198.623	4.44
198.842	14.68
199.062	63.83
199.281	72.02
199.5	6.49
199.719	76.12
199.938	39.25
200.157	72.02
200.376	-22.19
200.595	-28.33
200.814	45.4
201.033	35.16
201.252	57.68
201.471	49.49
201.69	108.88
201.909	53.59
202.128	98.64
202.347	57.68
202.566	-1.71
202.785	49.49
203.004	29.01
203.223	121.17
203.442	49.49
203.661	33.11
203.879	12.63
204.098	57.68
204.317	41.3
204.536	72.02
204.755	0.34
204.974	100.69
205.193	69.97
205.411	80.21
205.63	26.96
205.849	72.02
206.068	-11.95
206.287	94.55
206.505	20.82
206.724	72.02
206.943	4.44
207.162	-5.8
207.381	24.92
207.599	20.82
207.818	-30.38
208.037	-50.86
208.255	8.53
208.474	41.3
208.693	12.63
208.911	24.92
209.13	53.59
209.349	-28.33
209.567	121.17
209.786	35.16
210.005	45.4
210.223	-7.85
210.442	35.16
210.661	26.96
210.879	43.35
211.098	0.34
211.316	94.55
211.535	84.31
211.753	22.87
211.972	33.11
212.191	10.58
212.409	57.68
212.628	-13.99
212.846	51.54
213.065	31.06
213.283	43.35
213.502	31.06
213.72	22.87
213.938	35.16
214.157	4.44
214.375	8.53
214.594	-34.47
214.812	35.16
215.031	55.64
215.249	-32.43
215.467	10.58
215.686	18.77
215.904	16.73
216.122	18.77
216.341	8.53
216.559	16.73
216.778	35.16
216.996	2.39
217.214	35.16
217.432	-13.99
217.651	-22.19
217.869	16.73
218.087	121.17
218.306	-18.09
218.524	72.02
218.742	24.92
218.96	78.16
219.179	102.74
219.397	10.58
219.615	74.07
219.833	22.87
220.051	57.68
220.27	8.53
220.488	67.92
220.706	67.92
220.924	-1.71
221.142	-85.67
221.36	49.49
221.578	16.73
221.796	26.96
222.015	57.68
222.233	33.11
222.451	-11.95
222.669	18.77
222.887	29.01
223.105	65.88
223.323	86.36
223.541	-83.63
223.759	49.49
223.977	51.54
224.195	96.6
224.413	90.45
224.631	18.77
224.849	12.63
225.067	82.26
225.285	-1.71
225.503	47.44
225.721	-1.71
225.939	63.83
226.157	74.07
226.375	20.82
226.592	16.73
226.81	96.6
227.028	47.44
227.246	104.79
227.464	14.68
227.682	94.55
227.9	59.73
228.117	-13.99
228.335	-11.95
228.553	59.73
228.771	-44.71
228.989	72.02
229.206	10.58
229.424	49.49
229.642	45.4
229.86	80.21
230.077	51.54
230.295	90.45
230.513	39.25
230.731	108.88
230.948	53.59
231.166	74.07
231.384	-24.23
231.601	18.77
231.819	65.88
232.037	-87.72
232.254	12.63
232.472	43.35
232.689	22.87
232.907	110.93
233.125	-11.95
233.342	61.78
233.56	-13.99
233.777	55.64
233.995	12.63
234.213	92.5
234.43	51.54
234.648	67.92
234.865	-46.76
235.083	2.39
235.3	39.25
235.518	94.55
235.735	65.88
235.953	74.07
236.17	-1.71
236.388	51.54
236.605	84.31
236.822	6.49
237.04	65.88
237.257	47.44
237.475	-5.8
237.692	86.36
237.909	-1.71
238.127	22.87
238.344	-5.8
238.562	143.7
238.779	16.73
238.996	82.26
239.214	61.78
239.431	10.58
239.648	2.39
239.865	57.68
240.083	49.49
240.3	-5.8
240.517	-9.9
240.735	57.68
240.952	61.78
241.169	55.64
241.386	14.68
241.603	35.16
241.821	-11.95
242.038	65.88
242.255	88.4
242.472	84.31
242.689	-20.14
242.907	61.78
243.124	33.11
243.341	76.12
243.558	106.84
243.775	-3.75
243.992	37.2
244.209	108.88
244.426	33.11
244.643	39.25
244.86	18.77
245.078	20.82
245.295	57.68
245.512	61.78
245.729	-63.15
245.946	100.69
246.163	43.35
246.38	2.39
246.597	92.5
246.814	67.92
247.031	86.36
247.248	49.49
247.464	22.87
247.681	67.92
247.898	47.44
248.115	49.49
248.332	-7.85
248.549	20.82
248.766	49.49
248.983	4.44
249.2	51.54
249.417	74.07
249.633	-30.38
249.85	63.83
250.067	94.55
250.284	47.44
250.501	65.88
250.717	51.54
250.934	39.25
251.151	98.64
251.368	24.92
251.585	59.73
251.801	16.73
252.018	37.2
252.235	45.4
252.451	65.88
252.668	29.01
252.885	53.59
253.102	29.01
253.318	10.58
253.535	53.59
253.752	26.96
253.968	63.83
254.185	2.39
254.401	24.92
254.618	53.59
254.835	-48.81
255.051	94.55
255.268	78.16
255.484	65.88
255.701	78.16
255.917	88.4
256.134	-42.67
256.351	49.49
256.567	112.98
256.784	53.59
257	37.2
257.217	59.73
257.433	-5.8
257.65	45.4
257.866	37.2
258.082	51.54
258.299	106.84
258.515	53.59
258.732	-67.24
258.948	63.83
259.165	123.22
259.381	-22.19
259.597	31.06
259.814	57.68
260.03	43.35
260.246	67.92
260.463	43.35
260.679	51.54
260.895	76.12
261.112	10.58
261.328	35.16
261.544	39.25
261.761	98.64
261.977	49.49
262.193	-16.04
262.409	33.11
262.626	59.73
262.842	12.63
263.058	55.64
263.274	22.87
263.49	31.06
263.707	51.54
263.923	47.44
264.139	14.68
264.355	2.39
264.571	26.96
264.787	-7.85
265.004	92.5
265.22	33.11
265.436	39.25
265.652	72.02
265.868	98.64
266.084	74.07
266.3	59.73
266.516	-18.09
266.732	6.49
266.948	55.64
267.164	39.25
267.38	4.44
267.596	47.44
267.812	22.87
268.028	26.96
268.244	33.11
268.46	14.68
268.676	26.96
268.892	16.73
269.108	-65.19
269.324	33.11
269.54	-9.9
269.756	41.3
269.972	14.68
270.188	37.2
270.403	29.01
270.619	67.92
270.835	67.92
271.051	80.21
271.267	-7.85
271.483	-18.09
271.698	106.84
271.914	-18.09
272.13	47.44
272.346	0.34
272.562	0.34
272.777	92.5
272.993	24.92
273.209	14.68
273.425	72.02
273.64	-7.85
273.856	102.74
274.072	67.92
274.287	82.26
274.503	18.77
274.719	55.64
274.934	26.96
275.15	0.34
275.366	74.07
275.581	14.68
275.797	4.44
276.012	20.82
276.228	2.39
276.444	-3.75
276.659	106.84
276.875	0.34
277.09	14.68
277.306	53.59
277.521	127.32
277.737	14.68
277.952	2.39
278.168	53.59
278.383	4.44
278.599	20.82
278.814	47.44
279.03	53.59
279.245	108.88
279.461	45.4
279.676	100.69
279.892	41.3
280.107	63.83
280.322	-65.19
280.538	51.54
280.753	16.73
280.969	51.54
281.184	10.58
281.399	49.49
281.615	-5.8
281.83	76.12
282.045	37.2
282.26	-11.95
282.476	18.77
282.691	-18.09
282.906	49.49
283.122	80.21
283.337	63.83
283.552	16.73
283.767	24.92
283.983	-3.75
284.198	22.87
284.413	76.12
284.628	51.54
284.843	14.68
285.058	24.92
285.274	41.3
285.489	10.58
285.704	80.21
285.919	47.44
286.134	35.16
286.349	57.68
286.564	-34.47
286.779	65.88
286.995	51.54
287.21	8.53
287.425	53.59
287.64	78.16
287.855	88.4
288.07	29.01
288.285	112.98
288.5	96.6
288.715	88.4
288.93	12.63
289.145	35.16
289.36	80.21
289.575	55.64
289.79	80.21
290.004	-18.09
290.219	35.16
290.434	18.77
290.649	-5.8
290.864	39.25
291.079	12.63
291.294	18.77
291.509	108.88
291.724	123.22
291.938	61.78
292.153	59.73
292.368	-5.8
292.583	43.35
292.798	2.39
293.012	43.35
293.227	82.26
293.442	72.02
293.657	80.21
293.871	98.64
294.086	35.16
294.301	26.96
294.516	10.58
294.73	12.63
294.945	22.87
295.16	57.68
295.374	98.64
295.589	55.64
295.804	-5.8
296.018	47.44
296.233	151.89
296.447	39.25
296.662	61.78
296.877	53.59
297.091	29.01
297.306	45.4
297.52	18.77
297.735	35.16
297.949	-16.04
298.164	80.21
298.378	90.45
298.593	41.3
298.807	-5.8
299.022	20.82
299.236	102.74
299.451	41.3
299.665	0.34
299.88	6.49
300.094	37.2
300.309	76.12
300.523	-5.8
300.737	57.68
300.952	94.55
301.166	88.4
301.381	57.68
301.595	47.44
301.809	112.98
302.024	31.06
302.238	29.01
302.452	31.06
302.667	43.35
302.881	41.3
303.095	-1.71
303.309	20.82
303.524	24.92
303.738	18.77
303.952	16.73
304.166	55.64
304.381	26.96
304.595	55.64
304.809	-42.67
305.023	49.49
305.237	74.07
305.452	29.01
305.666	106.84
305.88	84.31
306.094	47.44
306.308	67.92
306.522	47.44
306.736	63.83
306.95	41.3
307.164	49.49
307.379	33.11
307.593	43.35
307.807	45.4
308.021	121.17
308.235	67.92
308.449	-26.28
308.663	-73.39
308.877	102.74
309.091	47.44
309.305	82.26
309.519	8.53
309.733	84.31
309.947	63.83
310.161	117.08
310.374	49.49
310.588	65.88
310.802	65.88
311.016	53.59
311.23	16.73
311.444	90.45
311.658	35.16
311.872	119.12
312.085	74.07
312.299	74.07
312.513	31.06
312.727	61.78
312.941	-7.85
313.154	84.31
313.368	35.16
313.582	45.4
313.796	-13.99
314.009	45.4
314.223	29.01
314.437	108.88
314.651	74.07
314.864	6.49
315.078	-13.99
315.292	-5.8
315.505	59.73
315.719	24.92
315.933	98.64
316.146	4.44
316.36	14.68
316.573	-3.75
316.787	20.82
317.001	16.73
317.214	-16.04
317.428	117.08
317.641	33.11
317.855	10.58
318.068	59.73
318.282	88.4
318.495	29.01
318.709	69.97
318.922	-7.85
319.136	65.88
319.349	37.2
319.563	14.68
319.776	67.92
319.99	31.06
320.203	82.26
320.417	22.87
320.63	14.68
320.843	72.02
321.057	65.88
321.27	43.35
321.483	0.34
321.697	104.79
321.91	39.25
322.124	20.82
322.337	20.82
322.55	-9.9
322.763	47.44
322.977	8.53
323.19	-22.19
323.403	43.35
323.617	55.64
323.83	69.97
324.043	55.64
324.256	43.35
324.469	59.73
324.683	59.73
324.896	78.16
325.109	18.77
325.322	24.92
325.535	74.07
325.748	55.64
325.962	10.58
326.175	33.11
326.388	76.12
326.601	37.2
326.814	92.5
327.027	53.59
327.24	149.84
327.453	47.44
327.666	119.12
327.879	24.92
328.092	76.12
328.305	20.82
328.518	94.55
328.731	29.01
328.944	86.36
329.157	12.63
329.37	-11.95
329.583	121.17
329.796	69.97
330.009	72.02
330.222	-11.95
330.435	127.32
330.648	8.53
330.861	35.16
331.073	14.68
331.286	59.73
331.499	115.03
331.712	57.68
331.925	82.26
332.138	51.54
332.35	39.25
332.563	43.35
332.776	24.92
332.989	37.2
333.202	39.25
333.414	-11.95
333.627	65.88
333.84	12.63
334.053	92.5
334.265	102.74
334.478	-13.99
334.691	-11.95
334.903	51.54
335.116	61.78
335.329	16.73
335.541	119.12
335.754	96.6
335.966	61.78
336.179	92.5
336.392	14.68
336.604	57.68
336.817	86.36
337.029	100.69
337.242	12.63
337.454	127.32
337.667	14.68
337.88	22.87
338.092	-5.8
338.305	112.98
338.517	31.06
338.729	45.4
338.942	69.97
339.154	72.02
339.367	92.5
339.579	139.6
339.792	47.44
340.004	88.4
340.217	57.68
340.429	4.44
340.641	57.68
340.854	45.4
341.066	74.07
341.278	123.22
341.491	10.58
341.703	94.55
341.915	57.68
342.128	24.92
342.34	-20.14
342.552	63.83
342.764	88.4
342.977	84.31
343.189	0.34
343.401	65.88
343.613	-32.43
343.826	-7.85
344.038	69.97
344.25	37.2
344.462	72.02
344.674	115.03
344.886	43.35
345.099	96.6
345.311	80.21
345.523	82.26
345.735	49.49
345.947	149.84
346.159	125.27
346.371	123.22
346.583	4.44
346.795	0.34
347.007	33.11
347.219	82.26
347.431	0.34
347.643	57.68
347.855	57.68
348.067	94.55
348.279	67.92
348.491	6.49
348.703	57.68
348.915	18.77
349.127	51.54
349.339	65.88
349.551	-22.19
349.763	53.59
349.975	49.49
350.187	37.2
350.399	80.21
350.61	51.54
350.822	90.45
351.034	22.87
351.246	20.82
351.458	31.06
351.669	53.59
351.881	53.59
352.093	18.77
352.305	59.73
352.517	74.07
352.728	43.35
352.94	43.35
353.152	6.49
353.363	8.53
353.575	-9.9
353.787	61.78
353.999	-1.71
354.21	74.07
354.422	31.06
354.633	51.54
354.845	14.68
355.057	115.03
355.268	29.01
355.48	98.64
355.692	61.78
355.903	127.32
356.115	59.73
356.326	31.06
356.538	102.74
356.749	51.54
356.961	96.6
357.172	129.36
357.384	41.3
357.595	-26.28
357.807	123.22
358.018	0.34
358.23	-32.43
358.441	8.53
358.653	98.64
358.864	72.02
359.075	-3.75
359.287	43.35
359.498	72.02
359.709	76.12
359.921	55.64
360.132	76.12
360.344	88.4
360.555	-57
360.766	82.26
360.977	49.49
361.189	67.92
361.4	39.25
361.611	49.49
361.823	6.49
362.034	39.25
362.245	115.03
362.456	63.83
362.667	49.49
362.879	-5.8
363.09	43.35
363.301	94.55
363.512	45.4
363.723	24.92
363.935	67.92
364.146	67.92
364.357	94.55
364.568	-1.71
364.779	18.77
364.99	90.45
365.201	63.83
365.412	72.02
365.623	49.49
365.834	53.59
366.045	14.68
366.256	147.8
366.467	-5.8
366.678	115.03
366.889	51.54
367.1	106.84
367.311	108.88
367.522	96.6
367.733	133.46
367.944	92.5
368.155	69.97
368.366	94.55
368.577	137.56
368.788	82.26
368.999	35.16
369.209	24.92
369.42	100.69
369.631	76.12
369.842	2.39
370.053	31.06
370.264	61.78
370.474	80.21
370.685	49.49
370.896	74.07
371.107	59.73
371.317	119.12
371.528	57.68
371.739	104.79
371.95	108.88
372.16	125.27
372.371	-38.57
372.582	47.44
372.792	31.06
373.003	6.49
373.214	20.82
373.424	80.21
373.635	41.3
373.846	22.87
374.056	69.97
374.267	55.64
374.477	80.21
374.688	92.5
374.898	133.46
375.109	63.83
375.319	51.54
375.53	61.78
375.74	2.39
375.951	8.53
376.161	61.78
376.372	119.12
376.582	41.3
376.793	141.65
377.003	26.96
377.214	84.31
377.424	82.26
377.635	76.12
377.845	59.73
378.055	123.22
378.266	10.58
378.476	65.88
378.686	29.01
378.897	37.2
379.107	74.07
379.317	-32.43
379.528	96.6
379.738	98.64
379.948	35.16
380.158	-3.75
380.369	67.92
380.579	37.2
380.789	104.79
380.999	29.01
381.21	16.73
381.42	90.45
381.63	8.53
381.84	90.45
382.05	10.58
382.261	98.64
382.471	12.63
382.681	41.3
382.891	47.44
383.101	4.44
383.311	96.6
383.521	35.16
383.731	137.56
383.941	106.84
384.151	47.44
384.361	92.5
384.571	26.96
384.781	90.45
384.991	121.17
385.201	82.26
385.411	121.17
385.621	82.26
385.831	119.12
386.041	18.77
386.251	82.26
386.461	-22.19
386.671	121.17
386.881	76.12
387.091	16.73
387.301	123.22
387.511	16.73
387.72	55.64
387.93	76.12
388.14	18.77
388.35	76.12
388.56	80.21
388.769	63.83
388.979	145.75
389.189	74.07
389.399	139.6
389.609	47.44
389.818	88.4
390.028	33.11
390.238	18.77
390.447	37.2
390.657	53.59
390.867	35.16
391.076	39.25
391.286	92.5
391.496	69.97
391.705	24.92
391.915	90.45
392.125	39.25
392.334	96.6
392.544	110.93
392.753	14.68
392.963	63.83
393.172	0.34
393.382	10.58
393.591	184.66
393.801	84.31
394.01	176.47
394.22	37.2
394.429	72.02
394.639	88.4
394.848	108.88
395.058	76.12
395.267	117.08
395.477	98.64
395.686	33.11
395.895	121.17
396.105	106.84
396.314	131.41
396.524	117.08
396.733	100.69
396.942	174.42
397.152	98.64
397.361	127.32
397.57	92.5
397.78	76.12
397.989	213.33
398.198	194.9
398.407	108.88
398.617	106.84
398.826	78.16
399.035	158.03
399.244	135.51
399.453	78.16
399.663	84.31
399.872	141.65
400.081	24.92
400.29	143.7
400.499	82.26
400.708	110.93
400.917	106.84
401.127	117.08
401.336	96.6
401.545	205.14
401.754	100.69
401.963	155.99
402.172	137.56
402.381	160.08
402.59	108.88
402.799	182.61
403.008	174.42
403.217	74.07
403.426	43.35
403.635	102.74
403.844	49.49
404.053	184.66
404.262	86.36
404.471	166.23
404.68	141.65
404.888	112.98
405.097	160.08
405.306	164.18
405.515	233.81
405.724	153.94
405.933	227.67
406.142	176.47
406.35	84.31
406.559	125.27
406.768	162.13
406.977	190.8
407.185	176.47
407.394	108.88
407.603	190.8
407.812	235.86
408.02	223.57
408.229	196.95
408.438	237.91
408.646	184.66
408.855	178.51
409.064	174.42
409.272	287.06
409.481	268.63
409.69	209.23
409.898	221.52
410.107	332.11
410.315	235.86
410.524	274.77
410.733	258.39
410.941	278.87
411.15	362.83
411.358	371.02
411.567	373.07
411.775	420.17
411.984	381.26
412.192	434.51
412.401	377.17
412.609	371.02
412.818	452.94
413.026	403.79
413.234	467.28
413.443	467.28
413.651	483.66
413.86	543.05
414.068	598.35
414.276	588.11
414.485	506.19
414.693	624.97
414.901	651.6
415.11	680.27
415.318	596.3
415.526	663.88
415.734	657.74
415.943	651.6
416.151	670.03
416.359	846.15
416.567	764.23
416.776	784.71
416.984	786.76
417.192	862.54
417.4	860.49
417.608	850.25
417.817	954.69
418.025	813.38
418.233	1075.52
418.441	973.13
418.649	948.55
418.857	1151.3
419.065	1098.05
419.273	975.17
419.481	1278.27
419.689	1214.79
419.897	1263.94
420.105	1349.95
420.313	1358.14
420.521	1362.24
420.729	1388.86
420.937	1517.89
421.145	1575.23
421.353	1507.65
421.561	1747.26
421.769	1655.1
421.977	1769.79
422.185	1814.84
422.393	1927.48
422.601	1947.96
422.809	1831.23
423.017	1947.96
423.224	1993.01
423.432	2175.28
423.64	2128.18
423.848	2308.4
424.056	2230.58
424.263	2437.42
424.471	2576.69
424.679	2445.62
424.887	2689.32
425.094	2779.43
425.302	2697.52
425.51	2869.55
425.718	2894.12
425.925	3004.71
426.133	3041.57
426.341	3375.39
426.548	3356.96
426.756	3397.92
426.964	3344.67
427.171	3565.85
427.379	3705.12
427.586	3623.2
427.794	4053.27
428.001	4096.28
428.209	4288.79
428.417	4180.25
428.624	4481.3
428.832	4612.37
429.039	4448.53
429.247	4432.15
429.454	4946.19
429.662	5144.84
429.869	4811.02
430.076	5083.4
430.284	4948.23
430.491	5329.16
430.699	5435.65
430.906	5556.48
431.114	5603.58
431.321	5865.72
431.528	5970.17
431.736	6170.87
431.943	6537.46
432.15	6314.23
432.358	6504.69
432.565	6861.04
432.772	6813.93
432.979	7094.51
433.187	7299.3
433.394	7225.58
433.601	7901.4
433.808	7868.64
434.016	7817.44
434.223	7991.52
434.43	8552.66
434.637	8419.54
434.844	9027.79
435.052	9140.43
435.259	8915.15
435.466	9308.36
435.673	9175.24
435.88	9797.82
436.087	10178.75
436.294	10291.38
436.501	9957.57
436.708	10131.64
436.915	10434.74
437.122	11104.43
437.329	11159.72
437.537	11530.41
437.743	11438.25
437.95	11462.82
438.157	12146.84
438.364	12417.18
438.571	12353.69
438.778	12386.46
438.985	13809.79
439.192	13238.41
439.399	13312.14
439.606	13314.19
439.813	13842.56
440.02	14659.7
440.227	14542.97
440.433	14368.89
440.64	14868.59
440.847	14878.83
441.054	15024.24
441.261	16244.83
441.467	15949.92
441.674	16386.14
441.881	16916.56
442.088	16650.33
442.294	16728.15
442.501	16937.04
442.708	17451.08
442.914	18128.96
443.121	19011.64
443.328	18419.77
443.534	19898.41
443.741	19073.07
443.948	18767.93
444.154	20181.03
444.361	20164.64
444.568	20213.79
444.774	20383.77
444.981	20609.05
445.187	21391.37
445.394	22011.91
445.6	21905.42
445.807	23691.24
446.013	23037.94
446.22	23209.97
446.426	23908.33
446.633	24211.43
446.839	25059.29
447.046	23818.22
447.252	25247.7
447.459	25546.7
447.665	25139.16
447.871	26494.91
448.078	27393.97
448.284	26273.73
448.491	26824.64
448.697	28077.99
448.903	28630.94
449.11	28663.71
449.316	28360.61
449.522	28966.81
449.728	29491.09
449.935	29738.9
450.141	29863.82
450.347	30445.44
450.553	29390.74
450.76	29810.57
450.966	30867.33
451.172	30261.13
451.378	31076.22
451.584	30592.9
451.791	31328.12
451.997	31420.28
452.203	31682.42
452.409	31813.49
452.615	31555.44
452.821	30543.75
453.027	30023.56
453.233	31969.13
453.44	30353.29
453.646	31121.27
453.852	31004.54
454.058	31657.84
454.264	30556.04
454.47	31219.58
454.676	30529.41
454.882	31436.66
455.088	28800.93
455.294	29126.55
455.5	29554.58
455.705	30140.3
455.911	28546.98
456.117	28014.51
456.323	27848.62
456.529	26240.96
456.735	27682.73
456.941	26734.53
457.147	26410.95
457.352	25102.29
457.558	25026.52
457.764	25389.01
457.97	24760.28
458.176	24350.69
458.381	24049.64
458.587	22724.6
458.793	23351.28
458.999	21981.19
459.204	23527.41
459.41	22568.96
459.616	21452.81
459.821	21673.99
460.027	21356.56
460.233	20781.08
460.438	19650.6
460.644	20162.59
460.85	19036.21
461.055	18683.96
461.261	18841.65
461.466	17487.95
461.672	16918.61
461.878	18044.99
462.083	16898.13
462.289	16504.92
462.494	16281.69
462.7	15427.69
462.905	15345.77
463.111	15886.43
463.316	15863.91
463.522	15499.37
463.727	15366.25
463.932	15374.44
464.138	15263.85
464.343	15306.86
464.549	14745.72
464.754	15255.66
464.959	15169.65
465.165	15046.77
465.37	14555.26
465.575	13992.06
465.781	14712.95
465.986	14864.5
466.191	14112.89
466.397	13924.48
466.602	13064.33
466.807	13785.22
467.012	13605
467.218	13705.35
467.423	13590.66
467.628	13627.53
467.833	14143.61
468.038	13631.62
468.244	13129.87
468.449	13742.21
468.654	13291.66
468.859	13336.71
469.064	13238.41
469.269	12675.22
469.474	12972.18
469.679	13045.9
469.885	12767.38
470.09	12781.71
470.295	12869.78
470.5	12460.18
470.705	12515.48
470.91	12294.3
471.115	12044.45
471.32	12363.93
471.525	12114.08
471.73	11905.18
471.935	12007.58
472.139	11417.77
472.344	11544.74
472.549	11511.97
472.754	11385
472.959	11292.84
473.164	10965.17
473.369	10821.81
473.574	11229.35
473.778	11172.01
473.983	11063.47
474.188	10903.73
474.393	10442.93
474.598	10438.84
474.802	10424.5
475.007	10221.75
475.212	10301.62
475.417	10078.4
475.621	9957.57
475.826	9947.33
476.031	9713.86
476.235	9609.41
476.44	9812.16
476.645	9529.54
476.849	9502.92
477.054	9390.28
477.259	9318.6
477.463	9564.36
477.668	8968.4
477.872	9306.31
478.077	9076.94
478.282	8861.9
478.486	8763.6
478.691	8755.41
478.895	8603.86
479.1	8693.97
479.304	8591.57
479.509	8446.16
479.713	8577.23
479.918	8464.6
480.122	8141.02
480.326	8470.74
480.531	8186.07
480.735	8202.46
480.94	8159.45
481.144	8454.36
481.348	8034.52
481.553	8157.4
481.757	7801.05
481.961	8028.38
482.166	7899.36
482.37	7954.65
482.574	7874.78
482.778	7815.39
482.983	8186.07
483.187	7975.13
483.391	8104.15
483.595	8102.11
483.8	8050.91
484.004	7999.71
484.208	8034.52
484.412	7928.03
484.616	8034.52
484.821	7971.04
485.025	7776.48
485.229	8134.87
485.433	7989.47
485.637	7872.73
485.841	7803.1
486.045	7919.84
486.249	7921.88
486.453	7786.72
486.657	7813.34
486.861	8014.04
487.065	7696.61
487.269	7885.02
487.473	7758.05
487.677	8022.23
487.881	8116.44
488.085	7796.96
488.289	7985.37
488.493	7954.65
488.697	7852.25
488.901	7917.79
489.105	8085.72
489.309	7979.23
489.512	8089.82
489.716	8093.91
489.92	8022.23
490.124	8077.53
490.328	8313.05
490.531	8224.98
490.735	8030.43
490.939	8141.02
491.143	7905.5
491.346	8138.97
491.55	8302.81
491.754	8071.39
491.958	8364.25
492.161	8298.71
492.365	8233.18
492.569	8304.85
492.772	8388.82
492.976	8403.16
493.18	8569.04
493.383	8546.51
493.587	8368.34
493.79	8661.2
493.994	8597.71
494.197	8634.58
494.401	8927.44
494.605	8853.71
494.808	9128.14
495.012	8925.39
495.215	8849.61
495.419	8941.77
495.622	9117.9
495.825	9343.17
496.029	9162.95
496.232	9668.8
496.436	9162.95
496.639	9650.37
496.843	9568.45
497.046	9652.42
497.249	9793.73
497.453	9742.53
497.656	10016.96
497.859	9959.61
498.063	10160.31
498.266	10338.49
498.469	10264.76
498.673	10338.49
498.876	10500.28
499.079	10649.78
499.282	10475.7
499.485	10959.02
499.689	10875.06
499.892	10983.6
500.095	11094.19
500.298	11434.15
500.501	11153.58
500.705	11649.19
500.908	11729.06
501.111	11767.97
501.314	11872.42
501.517	11962.53
501.72	12142.75
501.923	11942.05
502.126	12538.01
502.329	12701.84
502.532	12673.17
502.735	12929.17
502.938	12814.48
503.141	13117.58
503.344	13320.33
503.547	13324.43
503.75	13467.78
503.953	13764.74
504.156	13865.09
504.359	13768.84
504.562	13865.09
504.765	14264.44
504.968	14497.91
505.17	14600.31
505.373	14583.93
505.576	14602.36
505.779	15028.34
505.982	14878.83
506.185	15290.48
506.387	15564.9
506.59	15423.59
506.793	15767.65
506.996	15779.94
507.198	16326.75
507.401	16124
507.604	16312.41
507.807	16498.78
508.009	16728.15
508.212	17053.78
508.415	17059.92
508.617	17408.08
508.82	17508.43
509.022	17162.32
509.225	18018.37
509.428	18034.75
509.63	17758.28
509.833	18051.14
510.035	18583.61
510.238	18526.27
510.44	18692.15
510.643	18804.79
510.845	19167.28
511.048	19087.41
511.25	19560.49
511.453	19505.2
511.655	20133.92
511.858	19916.84
512.06	20396.06
512.262	20480.03
512.465	20221.98
512.667	20846.62
512.87	20955.16
513.072	20832.28
513.274	21340.18
513.477	21174.29
513.679	21612.56
513.881	21997.57
514.084	22085.64
514.286	22192.13
514.488	22302.72
514.69	22726.65
514.893	22898.68
515.095	23177.2
515.297	23238.64
515.499	23521.26
515.701	23836.65
515.904	23898.09
516.106	24129.51
516.308	24471.52
516.51	24768.48
516.712	24942.55
516.914	24942.55
517.116	25227.22
517.318	25446.35
517.52	25409.49
517.722	25954.25
517.925	26068.94
518.127	26439.62
518.329	26785.72
518.531	26367.94
518.733	27039.67
518.935	27137.98
519.136	27180.98
519.338	27647.92
519.54	27504.56
519.742	27979.69
519.944	27842.48
520.146	28583.84
520.348	28880.8
520.55	28776.35
520.752	29061.02
520.954	29480.85
521.155	29085.59
521.357	29872.01
521.559	29927.31
521.761	30689.15
521.963	30556.04
522.164	30920.57
522.366	30914.43
522.568	31289.21
522.77	31399.8
522.971	31735.67
523.173	31784.82
523.375	31881.07
523.576	32057.2
523.778	31989.61
523.98	32493.41
524.181	32489.32
524.383	33042.27
524.584	32915.3
524.786	33226.59
524.988	33138.52
525.189	33482.58
525.391	33961.81
525.592	34174.8
525.794	33818.45
525.995	34377.54
526.197	34099.02
526.398	34230.09
526.6	34967.36
526.801	34527.05
527.003	34811.71
527.204	35123.01
527.406	35344.19
527.607	35274.56
527.808	35393.34
528.01	35108.67
528.211	35686.2
528.412	35921.71
528.614	36142.89
528.815	36142.89
529.016	36161.33
529.218	36038.45
529.419	36622.12
529.62	36226.86
529.822	36491.05
530.023	36773.67
530.224	36611.88
530.425	36527.91
530.626	36628.26
530.828	36769.57
531.029	37283.61
531.23	37158.69
531.431	36712.23
531.632	36986.66
531.833	36785.96
532.035	37056.29
532.236	37398.3
532.437	37252.89
532.638	37097.25
532.839	37271.32
533.04	37486.36
533.241	37336.86
533.442	37840.66
533.643	37807.89
533.844	37785.36
534.045	37922.58
534.246	37134.11
534.447	37938.96
534.648	38053.65
534.849	37863.19
535.05	37343
535.251	37836.56
535.451	37474.07
535.652	37926.67
535.853	37580.57
536.054	37996.31
536.255	38080.27
536.456	37498.65
536.657	38063.89
536.857	37994.26
537.058	37490.46
537.259	38338.32
537.46	38237.97
537.66	37674.77
537.861	38203.15
538.062	37818.13
538.263	38074.13
538.463	37744.41
538.664	37785.36
538.865	38088.46
539.065	38178.57
539.266	37617.43
539.466	38147.86
539.667	37811.99
539.868	38424.33
540.068	37873.43
540.269	37773.08
540.469	38147.86
540.67	37783.32
540.87	37814.04
541.071	37904.15
541.271	38029.07
541.472	38031.12
541.672	37814.04
541.873	37736.21
542.073	37381.91
542.274	37885.72
542.474	37668.63
542.675	37519.13
542.875	37910.29
543.075	37666.58
543.276	37228.32
543.476	37910.29
543.676	37539.61
543.877	37525.27
544.077	37943.06
544.277	37748.5
544.478	37494.55
544.678	37906.19
544.878	37605.14
545.078	37932.82
545.279	37631.77
545.479	37584.66
545.679	37588.76
545.879	37392.15
546.079	37216.03
546.28	37345.05
546.48	37324.57
546.68	37887.76
546.88	37541.66
547.08	37519.13
547.28	37594.9
547.48	36994.85
547.68	37805.84
547.88	37371.68
548.081	37601.05
548.281	37310.24
548.481	37461.79
548.681	37953.3
548.881	37457.69
549.081	37775.12
549.28	37345.05
549.48	37809.94
549.68	37736.21
549.88	37840.66
550.08	37144.35
550.28	37226.27
550.48	37394.2
550.68	38090.51
550.88	37422.87
551.08	37283.61
551.279	37355.29
551.479	37170.97
551.679	37494.55
551.879	37320.48
552.079	37480.22
552.278	37359.39
552.478	37199.65
552.678	37422.87
552.878	37734.17
553.077	37150.49
553.277	37115.68
553.477	37521.18
553.676	36986.66
553.876	37224.22
554.076	37426.97
554.275	36970.27
554.475	36398.89
554.674	37187.36
554.874	37162.78
555.074	36732.71
555.273	37072.67
555.473	36855.59
555.672	37105.44
555.872	36677.41
556.071	36882.21
556.271	36863.78
556.47	36384.55
556.67	36081.45
556.869	36689.7
557.068	37031.71
557.268	36298.54
557.467	36200.24
557.667	36640.55
557.866	36177.71
558.065	36534.06
558.265	36155.18
558.464	35938.1
558.663	36208.43
558.863	35870.51
559.062	36480.81
559.261	36093.74
559.461	36155.18
559.66	35770.16
559.859	35938.1
560.058	36075.31
560.258	36183.85
560.457	35503.93
560.656	35790.64
560.855	35413.82
561.054	35823.41
561.253	35567.41
561.453	35587.89
561.652	35524.41
561.851	35702.58
562.05	35442.49
562.249	35295.03
562.448	35219.26
562.647	35376.95
562.846	35350.33
563.045	34856.77
563.244	34641.73
563.443	35348.28
563.642	34291.53
563.841	34619.21
564.04	34344.78
564.239	34957.12
564.438	34631.49
564.637	34500.42
564.836	34533.19
565.035	33976.14
565.234	34598.73
565.432	33951.57
565.631	33769.3
565.83	34236.23
566.029	34281.29
566.228	33898.32
566.427	33529.69
566.625	33255.26
566.824	33189.72
567.023	33824.59
567.222	32933.73
567.42	33613.65
567.619	33503.06
567.818	33353.56
568.016	33175.39
568.215	33306.46
568.414	32970.59
568.612	32952.16
568.811	32892.77
569.01	32954.21
569.208	32460.65
569.407	32599.91
569.605	32239.47
569.804	32903.01
570.002	32229.23
570.201	32368.49
570.4	32083.82
570.598	31887.21
570.797	32014.19
570.995	31827.82
571.193	31706.99
571.392	32163.69
571.59	31790.96
571.789	31618.93
571.987	31383.41
572.186	31661.94
572.384	31428.47
572.582	31518.58
572.781	31700.85
572.979	31039.36
573.177	31149.95
573.376	31092.6
573.574	30963.58
573.772	30623.62
573.971	30619.52
574.169	30443.4
574.367	30424.97
574.565	30869.37
574.763	30486.4
574.962	30599.04
575.16	30031.76
575.358	30095.24
575.556	29767.57
575.754	30336.9
575.952	29613.97
576.151	30101.39
576.349	29783.95
576.547	29427.6
576.745	29712.27
576.943	29585.3
577.141	29431.7
577.339	29611.92
577.537	29325.21
577.735	29323.16
577.933	28743.58
578.131	28852.13
578.329	29013.91
578.527	28678.05
578.725	28866.46
578.923	28850.08
579.121	28606.37
579.319	28614.56
579.516	28708.77
579.714	28659.62
579.912	28665.76
580.11	28067.75
580.308	28196.78
580.506	28215.21
580.704	27531.19
580.901	28034.99
581.099	28125.1
581.297	27742.13
581.495	27799.47
581.692	27690.93
581.89	27598.77
582.088	27633.58
582.285	27441.07
582.483	27615.15
582.681	27500.47
582.878	27146.17
583.076	27144.12
583.274	27011
583.471	27127.74
583.669	26863.55
583.866	27094.97
584.064	27142.07
584.262	26521.54
584.459	26771.39
584.657	26697.66
584.854	27113.4
585.052	26412.99
585.249	26777.53
585.447	26630.08
585.644	26032.07
585.841	26144.71
586.039	26685.37
586.236	25882.57
586.434	26113.99
586.631	25765.84
586.828	25677.77
587.026	25860.04
587.223	25735.12
587.42	25526.22
587.618	25767.88
587.815	25470.93
588.012	25184.21
588.21	25112.53
588.407	25620.43
588.604	25032.66
588.801	25059.29
588.999	25085.91
589.196	24854.49
589.393	24956.89
589.59	24948.7
589.787	24772.57
589.984	24571.87
590.182	24535.01
590.379	24758.24
590.576	24395.75
590.773	24332.26
590.97	24248.29
591.167	24330.21
591.364	24229.86
591.561	24164.32
591.758	24016.87
591.955	23951.34
592.152	24238.05
592.349	23711.72
592.546	23922.66
592.743	24100.84
592.94	23433.2
593.137	23783.4
593.334	23476.21
593.531	23097.33
593.727	23468.02
593.924	23732.2
594.121	23171.06
594.318	23295.99
594.515	22820.86
594.712	23289.84
594.908	23183.35
595.105	23044.09
595.302	22996.98
595.499	22677.5
595.696	22771.71
595.892	22564.86
596.089	22919.16
596.286	22691.84
596.482	22542.33
596.679	22548.48
596.876	22665.21
597.072	22192.13
597.269	22448.13
597.466	22028.29
597.662	22061.06
597.859	22013.96
598.055	22106.12
598.252	21891.08
598.448	21897.22
598.645	21637.13
598.841	21481.49
599.038	21665.8
599.234	21600.27
599.431	21581.84
599.627	21297.17
599.824	21571.6
600.02	21268.5
600.217	21288.98
600.413	21084.18
600.609	20906.01
600.806	21018.64
601.002	21092.37
601.198	21084.18
601.395	20822.04
601.591	20873.24
601.787	20645.91
601.984	20607
602.18	20906.01
602.376	20817.94
602.572	20598.81
602.769	20480.03
602.965	20199.46
603.161	20518.94
603.357	19998.76
603.553	19800.1
603.75	20211.74
603.946	19941.41
604.142	19890.21
604.338	19935.27
604.534	19937.32
604.73	19914.79
604.926	19845.16
605.122	19816.49
605.318	19677.23
605.514	19570.73
605.71	19345.45
605.906	19384.37
606.102	19513.39
606.298	19499.05
606.494	19497
606.69	19347.5
606.886	19275.82
607.082	18866.23
607.278	19222.58
607.474	19046.45
607.67	19038.26
607.866	19013.68
608.062	19140.66
608.257	18931.76
608.453	18942
608.649	18855.99
608.845	18796.6
609.041	18585.66
609.236	18446.4
609.432	18686.01
609.628	18614.33
609.824	18704.44
610.019	18532.41
610.215	18497.6
610.411	18356.29
610.606	18284.61
610.802	18563.13
610.998	18599.99
611.193	18597.95
611.389	18249.79
611.584	18210.88
611.78	18229.31
611.976	18217.02
612.171	17969.22
612.367	17975.36
612.562	18077.76
612.758	17666.12
612.953	17770.57
613.149	18012.23
613.344	17569.87
613.539	17817.67
613.735	17762.37
613.93	18149.44
614.126	17576.01
614.321	18137.15
614.517	17821.77
614.712	17748.04
614.907	17729.61
615.103	17512.52
615.298	17702.98
615.493	17641.54
615.688	17393.74
615.884	17842.25
616.079	17420.36
616.274	17317.97
616.47	17176.66
616.665	17283.15
616.86	17303.63
617.055	17379.4
617.25	17166.42
617.445	17209.42
617.641	17193.04
617.836	17481.8
618.031	16867.41
618.226	17090.64
618.421	17059.92
618.616	16947.28
618.811	16545.88
619.006	16934.99
619.201	16635.99
619.396	16658.52
619.591	16427.1
619.786	16486.49
619.981	15990.88
620.176	16408.67
620.371	16017.5
620.566	16363.61
620.761	16164.96
620.956	16281.69
621.151	15935.59
621.346	16279.64
621.541	15827.04
621.735	16169.05
621.93	15636.58
622.125	15745.13
622.32	15636.58
622.515	15616.1
622.709	15409.26
622.904	15323.24
623.099	15378.54
623.294	15143.02
623.488	15214.7
623.683	15020.14
623.878	14997.62
624.072	15034.48
624.267	14911.6
624.462	14801.01
624.656	14753.91
624.851	14753.91
625.046	14575.73
625.24	14542.97
625.435	14426.23
625.629	14205.05
625.824	14205.05
626.018	14010.5
626.213	14069.89
626.407	14020.74
626.602	13875.33
626.796	14026.88
626.991	14018.69
627.185	13797.51
627.38	13617.29
627.574	13613.19
627.768	13506.7
627.963	13478.02
628.157	13156.49
628.352	13303.95
628.546	13215.88
628.74	13170.83
628.935	13193.36
629.129	12974.22
629.323	12982.42
629.517	12732.56
629.712	12691.6
629.906	12804.24
630.1	12505.24
630.294	12613.78
630.489	12578.97
630.683	12554.39
630.877	12294.3
631.071	12155.04
631.265	12112.03
631.459	12204.19
631.653	12069.02
631.848	12003.49
632.042	11991.2
632.236	11976.86
632.43	11780.26
632.624	11763.87
632.818	11872.42
633.012	11636.9
633.206	11618.47
633.4	11610.28
633.594	11526.31
633.788	11452.58
633.982	11677.86
634.176	11333.8
634.369	11307.18
634.563	11129
634.757	11129
634.951	11172.01
635.145	11147.44
635.339	11057.32
635.533	10784.94
635.726	10875.06
635.92	10830
636.114	10899.63
636.308	10678.45
636.501	10864.82
636.695	10696.88
636.889	10674.35
637.083	10432.69
637.276	10444.98
637.47	10408.12
637.664	10451.13
637.857	10311.86
638.051	10270.9
638.244	10119.35
638.438	10205.37
638.632	9791.68
638.825	10035.39
639.019	9799.87
639.212	9752.77
639.406	9957.57
639.599	9873.6
639.793	9746.62
639.986	9642.18
640.18	9846.98
640.373	9619.65
640.567	9367.75
640.76	9586.88
640.954	9449.67
641.147	9332.93
641.34	9199.82
641.534	9314.5
641.727	9459.91
641.92	9218.25
642.114	9201.86
642.307	9072.84
642.5	9119.95
642.694	8966.35
642.887	8790.22
643.08	8988.88
643.273	8779.98
643.467	8990.92
643.66	8718.54
643.853	8722.64
644.046	8659.15
644.239	8661.2
644.432	8726.74
644.626	8673.49
644.819	8618.19
645.012	8532.18
645.205	8419.54
645.398	8399.06
645.591	8278.23
645.784	8380.63
645.977	8138.97
646.17	8323.29
646.363	8308.95
646.556	8130.78
646.749	8141.02
646.942	8100.06
647.135	7973.08
647.328	8018.14
647.521	8016.09
647.714	7942.36
647.907	7850.21
648.099	7786.72
648.292	7860.45
648.485	7805.15
648.678	7547.11
648.871	7567.59
649.064	7594.21
649.256	7547.11
649.449	7352.55
649.642	7475.43
649.835	7411.94
650.027	7430.37
650.22	7473.38
650.413	7205.1
650.605	7239.91
650.798	7260.39
650.991	7178.47
651.183	7305.45
651.376	6983.91
651.568	7049.45
651.761	7106.79
651.954	7092.46
652.146	7002.35
652.339	6985.96
652.531	6992.11
652.724	6949.1
652.916	6822.13
653.109	6727.92
653.301	6824.17
653.494	6822.13
653.686	6752.49
653.879	6738.16
654.071	6705.39
654.263	6502.64
654.456	6715.63
654.648	6510.83
654.84	6404.34
655.033	6482.16
655.225	6404.34
655.417	6361.33
655.61	6293.75
655.802	6377.72
655.994	6396.15
656.186	6443.25
656.379	6084.86
656.571	6316.28
656.763	6209.78
656.955	6191.35
657.148	6205.69
657.34	6105.34
657.532	6121.72
657.724	6007.03
657.916	5990.65
658.108	5955.83
658.3	5943.55
658.492	5902.59
658.684	5744.89
658.876	5912.83
659.068	5757.18
659.26	5689.6
659.452	5732.61
659.644	5746.94
659.836	5681.41
660.028	5714.17
660.22	5478.66
660.412	5681.41
660.604	5507.33
660.796	5695.74
660.988	5507.33
661.18	5499.14
661.372	5353.73
661.563	5591.3
661.755	5378.31
661.947	5458.18
662.139	5341.44
662.331	5261.57
662.522	5247.24
662.714	5234.95
662.906	5284.1
663.097	5243.14
663.289	5204.23
663.481	5144.84
663.673	5183.75
663.864	5243.14
664.056	5077.26
664.247	5116.17
664.439	5112.07
664.631	5185.8
664.822	5091.59
665.014	5060.87
665.205	5052.68
665.397	4915.47
665.588	5042.44
665.78	4888.84
665.971	5060.87
666.163	4870.41
666.354	4899.08
666.546	4813.07
666.737	4772.11
666.929	4819.21
667.12	4718.86
667.311	4751.63
667.503	4669.71
667.694	4757.77
667.885	4671.76
668.077	4811.02
668.268	4679.95
668.459	4503.82
668.651	4634.89
668.842	4487.44
669.033	4708.62
669.224	4469.01
669.416	4423.95
669.607	4450.58
669.798	4432.15
669.989	4428.05
670.18	4395.28
670.371	4317.46
670.563	4503.82
670.754	4292.88
670.945	4407.57
671.136	4245.78
671.327	4241.68
671.518	4253.97
671.709	4360.47
671.9	4196.63
672.091	4182.29
672.282	4262.16
672.473	4251.92
672.664	4067.61
672.855	4114.71
673.046	4202.77
673.237	4217.11
673.428	4278.55
673.619	4104.47
673.809	4065.56
674	4249.88
674.191	4204.82
674.382	4032.79
674.573	3975.45
674.764	3926.3
674.954	4032.79
675.145	4063.51
675.336	3995.93
675.527	4110.61
675.717	4061.46
675.908	3946.78
676.099	3881.24
676.289	3805.47
676.48	3918.11
676.671	3989.78
676.861	3948.83
677.052	3930.39
677.243	3901.72
677.433	3963.16
677.624	3868.95
677.814	3936.54
678.005	3789.08
678.195	3987.74
678.386	3834.14
678.576	3764.51
678.767	3864.86
678.957	3840.28
679.148	3963.16
679.338	3715.36
679.529	3860.76
679.719	3811.61
679.909	3782.94
680.1	3858.71
680.29	3655.97
680.481	3713.31
680.671	3705.12
680.861	3805.47
681.052	3692.83
681.242	3727.64
681.432	3713.31
681.622	3569.95
681.813	3782.94
682.003	3766.56
682.193	3623.2
682.383	3723.55
682.573	3692.83
682.764	3678.49
682.954	3612.96
683.144	3735.84
683.334	3621.15
683.524	3623.2
683.714	3631.39
683.904	3615.01
684.094	3664.16
684.284	3576.09
684.474	3615.01
684.664	3567.9
684.854	3582.24
685.044	3477.79
685.234	3445.02
685.424	3432.74
685.614	3516.7
685.804	3492.13
685.994	3436.83
686.184	3602.72
686.374	3494.18
686.564	3477.79
686.753	3426.59
686.943	3348.77
687.133	3379.49
687.323	3379.49
687.513	3361.06
687.702	3328.29
687.892	3361.06
688.082	3285.28
688.272	3483.94
688.461	3285.28
688.651	3266.85
688.841	3285.28
689.03	3293.48
689.22	3162.41
689.41	3186.98
689.599	3160.36
689.789	3197.22
689.979	3238.18
690.168	3139.88
690.358	3172.64
690.547	3129.64
690.737	3229.99
690.926	3049.77
691.116	3076.39
691.305	3148.07
691.495	3098.92
691.684	3086.63
691.874	3010.86
692.063	3186.98
692.252	3103.01
692.442	3053.86
692.631	2959.66
692.82	3057.96
693.01	3000.62
693.199	2924.84
693.388	2887.98
693.578	2955.56
693.767	3008.81
693.956	3000.62
694.146	2920.74
694.335	2765.1
694.524	2908.46
694.713	2879.79
694.902	2869.55
695.092	2939.18
695.281	2799.91
695.47	2752.81
695.659	2822.44
695.848	2840.87
696.037	2699.56
696.226	2787.63
696.415	2750.76
696.604	2734.38
696.793	2806.06
696.982	2750.76
697.171	2832.68
697.36	2707.76
697.549	2701.61
697.738	2674.99
697.927	2771.24
698.116	2703.66
698.305	2672.94
698.494	2718
698.683	2801.96
698.872	2683.18
699.061	2711.85
699.25	2832.68
699.438	2677.04
699.627	2779.43
699.816	2769.2
700.005	2746.67
700.193	2781.48
700.382	2791.72
700.571	2689.32
700.76	2586.93
700.948	2672.94
701.137	2783.53
701.326	2722.09
701.514	2597.17
701.703	2664.75
701.892	2691.37
702.08	2705.71
702.269	2646.32
702.457	2658.6
702.646	2681.13
702.834	2681.13
703.023	2668.84
703.212	2812.2
703.4	2697.52
703.589	2785.58
703.777	2707.76
703.965	2638.13
704.154	2664.75
704.342	2758.96
704.531	2754.86
704.719	2730.28
704.907	2795.82
705.096	2611.5
705.284	2605.36
705.472	2548.01
705.661	2685.23
705.849	2625.84
706.037	2631.98
706.226	2658.6
706.414	2580.78
706.602	2763.05
706.79	2631.98
706.979	2631.98
707.167	2701.61
707.355	2701.61
707.543	2572.59
707.731	2631.98
707.919	2599.21
708.107	2726.19
708.296	2605.36
708.484	2619.69
708.672	2711.85
708.86	2648.36
709.048	2674.99
709.236	2709.8
709.424	2634.03
709.612	2631.98
709.8	2640.17
709.988	2681.13
710.176	2750.76
710.364	2672.94
710.551	2578.73
710.739	2773.29
710.927	2785.58
711.115	2785.58
711.303	2730.28
711.491	2718
711.679	2566.45
711.866	2652.46
712.054	2705.71
712.242	2629.93
712.43	2705.71
712.617	2664.75
712.805	2701.61
712.993	2627.89
713.181	2513.2
713.368	2591.02
713.556	2660.65
713.744	2670.89
713.931	2779.43
714.119	2672.94
714.306	2619.69
714.494	2668.84
714.682	2648.36
714.869	2574.64
715.057	2599.21
715.244	2625.84
715.432	2629.93
715.619	2691.37
715.807	2588.97
715.994	2664.75
716.182	2539.82
716.369	2695.47
716.556	2701.61
716.744	2572.59
716.931	2566.45
717.119	2617.65
717.306	2572.59
717.493	2595.12
717.681	2728.24
717.868	2566.45
718.055	2556.21
718.242	2525.49
718.43	2672.94
718.617	2799.91
718.804	2535.73
718.991	2584.88
719.179	2568.49
719.366	2666.8
719.553	2607.41
719.74	2562.35
719.927	2730.28
720.114	2574.64
720.301	2554.16
720.488	2543.92
720.676	2595.12
720.863	2738.48
721.05	2629.93
721.237	2636.08
721.424	2476.34
721.611	2822.44
721.798	2550.06
721.985	2599.21
722.172	2552.11
722.358	2591.02
722.545	2634.03
722.732	2627.89
722.919	2556.21
723.106	2574.64
723.293	2664.75
723.48	2685.23
723.667	2568.49
723.853	2611.5
724.04	2728.24
724.227	2625.84
724.414	2537.77
724.6	2599.21
724.787	2533.68
724.974	2677.04
725.161	2638.13
725.347	2537.77
725.534	2672.94
725.72	2668.84
725.907	2724.14
726.094	2617.65
726.28	2679.08
726.467	2654.51
726.653	2570.54
726.84	2693.42
727.027	2697.52
727.213	2488.62
727.4	2654.51
727.586	2654.51
727.773	2689.32
727.959	2662.7
728.145	2631.98
728.332	2662.7
728.518	2543.92
728.705	2691.37
728.891	2595.12
729.077	2693.42
729.264	2605.36
729.45	2640.17
729.636	2664.75
729.823	2677.04
730.009	2685.23
730.195	2658.6
730.382	2517.29
730.568	2711.85
730.754	2761
730.94	2574.64
731.126	2709.8
731.313	2636.08
731.499	2660.65
731.685	2689.32
731.871	2677.04
732.057	2683.18
732.243	2775.34
732.429	2588.97
732.615	2715.95
732.801	2656.56
732.987	2689.32
733.173	2648.36
733.359	2634.03
733.545	2713.9
733.731	2713.9
733.917	2677.04
734.103	2607.41
734.289	2691.37
734.475	2693.42
734.661	2730.28
734.847	2531.63
735.033	2644.27
735.219	2603.31
735.404	2693.42
735.59	2634.03
735.776	2674.99
735.962	2674.99
736.148	2601.26
736.333	2687.28
736.519	2701.61
736.705	2652.46
736.89	2640.17
737.076	2621.74
737.262	2748.72
737.447	2621.74
737.633	2574.64
737.819	2591.02
738.004	2545.97
738.19	2511.15
738.375	2601.26
738.561	2631.98
738.747	2539.82
738.932	2619.69
739.118	2517.29
739.303	2545.97
739.489	2738.48
739.674	2564.4
739.859	2670.89
740.045	2502.96
740.23	2658.6
740.416	2459.95
740.601	2636.08
740.786	2494.77
740.972	2576.69
741.157	2390.32
741.342	2459.95
741.528	2459.95
741.713	2576.69
741.898	2556.21
742.084	2595.12
742.269	2480.43
742.454	2548.01
742.639	2429.23
742.824	2474.29
743.01	2517.29
743.195	2486.58
743.38	2447.66
743.565	2433.33
743.75	2533.68
743.935	2404.66
744.12	2578.73
744.305	2296.11
744.49	2488.62
744.675	2363.7
744.86	2421.04
745.045	2392.37
745.23	2216.24
745.415	2306.35
745.6	2224.44
745.785	2300.21
745.97	2462
746.155	2242.87
746.34	2234.68
746.525	2330.93
746.71	2437.42
746.895	2210.1
747.079	2269.49
747.264	2128.18
747.449	2287.92
747.634	2208.05
747.819	2206
748.003	2109.75
748.188	2246.96
748.373	2203.96
748.557	2193.72
748.742	2056.5
748.927	2206
749.111	2033.97
749.296	2017.59
749.481	2187.57
749.665	1964.34
749.85	2103.61
750.034	1894.71
750.219	1943.86
750.404	1966.39
750.588	2005.3
750.773	1986.87
750.957	1993.01
751.141	1986.87
751.326	2031.93
751.51	1888.57
751.695	1888.57
751.879	1921.34
752.064	2009.4
752.248	1939.77
752.432	1915.19
752.617	1880.38
752.801	1943.86
752.985	1810.75
753.17	1833.27
753.354	1751.35
753.538	1814.84
753.722	1802.55
753.907	1720.64
754.091	1806.65
754.275	1751.35
754.459	1761.59
754.643	1726.78
754.828	1661.24
755.012	1706.3
755.196	1689.92
755.38	1605.95
755.564	1671.48
755.748	1655.1
755.932	1734.97
756.116	1562.94
756.3	1626.43
756.484	1610.04
756.668	1624.38
756.852	1673.53
757.036	1591.61
757.22	1573.18
757.404	1517.89
757.588	1573.18
757.772	1470.78
757.956	1536.32
758.14	1392.96
758.323	1587.52
758.507	1513.79
758.691	1468.73
758.875	1503.55
759.059	1534.27
759.242	1403.2
759.426	1429.82
759.61	1530.17
759.794	1519.93
759.977	1476.93
760.161	1450.3
760.345	1407.3
760.528	1470.78
760.712	1454.4
760.895	1431.87
761.079	1378.62
761.263	1349.95
761.446	1325.38
761.63	1386.82
761.813	1362.24
761.997	1333.57
762.18	1325.38
762.364	1319.23
762.547	1333.57
762.731	1395.01
762.914	1237.31
763.098	1304.9
763.281	1182.02
763.464	1376.58
763.648	1231.17
763.831	1274.18
764.015	1276.23
764.198	1225.03
764.381	1313.09
764.564	1292.61
764.748	1214.79
764.931	1278.27
765.114	1235.27
765.297	1237.31
765.481	1214.79
765.664	1233.22
765.847	1177.92
766.03	1169.73
766.213	1136.96
766.397	1179.97
766.58	1257.79
766.763	1214.79
766.946	1141.06
767.129	1173.83
767.312	1046.85
767.495	1179.97
767.678	1161.54
767.861	1212.74
768.044	1083.72
768.227	1118.53
768.41	1192.26
768.593	1161.54
768.776	1036.61
768.959	1030.47
769.142	1143.11
769.324	1130.82
769.507	1149.25
769.69	1114.44
769.873	1007.94
770.056	1169.73
770.239	1089.86
770.421	1130.82
770.604	1096
770.787	1024.33
770.97	975.17
771.152	1067.33
771.335	1046.85
771.518	1044.81
771.7	1112.39
771.883	997.7
772.066	1067.33
772.248	1012.04
772.431	1069.38
772.613	1055.05
772.796	1073.48
772.978	1036.61
773.161	950.6
773.343	979.27
773.526	1005.89
773.708	874.82
773.891	942.41
774.073	915.78
774.256	887.11
774.438	999.75
774.621	958.79
774.803	911.69
774.985	946.5
775.168	944.45
775.35	915.78
775.532	891.21
775.715	885.06
775.897	862.54
776.079	872.78
776.261	960.84
776.444	817.48
776.626	938.31
776.808	829.77
776.99	803.15
777.173	854.34
777.355	813.38
777.537	840.01
777.719	815.43
777.901	758.09
778.083	831.82
778.265	753.99
778.447	803.15
778.629	786.76
778.811	737.61
778.993	737.61
779.175	776.52
779.357	706.89
779.539	776.52
779.721	715.08
779.903	776.52
780.085	612.68
780.267	780.62
780.449	756.04
780.631	778.57
780.812	782.67
780.994	670.03
781.176	729.42
781.358	717.13
781.54	667.98
781.721	698.7
781.903	651.6
782.085	647.5
782.267	698.7
782.448	610.64
782.63	655.69
782.812	612.68
782.993	657.74
783.175	612.68
783.357	659.79
783.538	538.96
783.72	532.81
783.901	606.54
784.083	633.16
784.264	604.49
784.446	631.12
784.627	608.59
784.809	600.4
784.99	561.48
785.172	526.67
785.353	553.29
785.535	541.01
785.716	530.77
785.897	592.2
786.079	606.54
786.26	514.38
786.441	526.67
786.623	491.85
786.804	512.33
786.985	454.99
787.167	457.04
787.348	428.37
787.529	522.57
787.71	563.53
787.891	502.09
788.073	473.42
788.254	489.81
788.435	518.48
788.616	534.86
788.797	485.71
788.978	432.46
789.159	516.43
789.34	500.05
789.522	485.71
789.703	450.89
789.884	428.37
790.065	485.71
790.246	481.61
790.427	485.71
790.607	471.37
790.788	426.32
790.969	469.33
791.15	442.7
791.331	454.99
791.512	397.65
791.693	303.44
791.874	454.99
792.054	459.09
792.235	422.22
792.416	381.26
792.597	399.7
792.778	418.13
792.958	434.51
793.139	444.75
793.32	317.78
793.5	454.99
793.681	442.7
793.862	375.12
794.042	454.99
794.223	391.5
794.404	358.74
794.584	387.41
794.765	422.22
794.945	291.15
795.126	377.17
795.306	452.94
795.487	436.56
795.667	342.35
795.848	344.4
796.028	334.16
796.209	368.98
796.389	315.73
796.57	313.68
796.75	291.15
796.93	346.45
797.111	354.64
797.291	266.58
797.471	336.21
797.652	346.45
797.832	334.16
798.012	350.54
798.192	254.29
798.373	340.3
798.553	254.29
798.733	282.96
798.913	321.87
799.093	420.17
799.274	303.44
799.454	340.3
799.634	338.26
799.814	354.64
799.994	299.34
800.174	252.24
800.354	285.01
800.534	315.73
800.714	344.4
800.894	325.97
801.074	264.53
801.254	313.68
801.434	297.3
801.614	262.48
801.794	319.82
801.974	727.37
802.154	278.87
802.334	289.1
802.514	313.68
802.693	299.34
802.873	213.33
803.053	307.54
803.233	328.02
803.413	246.1
803.592	268.63
803.772	301.39
803.952	254.29
804.131	182.61
804.311	328.02
804.491	231.76
804.67	223.57
804.85	258.39
805.03	309.58
805.209	166.23
805.389	278.87
805.568	282.96
805.748	262.48
805.928	239.95
806.107	225.62
806.287	242
806.466	250.19
806.646	252.24
806.825	174.42
807.004	231.76
807.184	272.72
807.363	287.06
807.543	246.1
807.722	215.38
807.901	293.2
808.081	223.57
808.26	211.28
808.439	252.24
808.619	313.68
808.798	205.14
808.977	239.95
809.156	246.1
809.336	244.05
809.515	162.13
809.694	252.24
809.873	186.71
810.052	205.14
810.231	276.82
810.411	295.25
810.59	268.63
810.769	104.79
810.948	229.71
811.127	151.89
811.306	180.56
811.485	233.81
811.664	215.38
811.843	203.09
812.022	147.8
812.201	205.14
812.38	256.34
812.559	198.99
812.737	215.38
812.916	170.32
813.095	186.71
813.274	215.38
813.453	205.14
813.632	158.03
813.811	252.24
813.989	158.03
814.168	184.66
814.347	297.3
814.526	239.95
814.704	205.14
814.883	117.08
815.062	203.09
815.24	186.71
815.419	176.47
815.598	164.18
815.776	242
815.955	221.52
816.133	215.38
816.312	205.14
816.49	153.94
816.669	160.08
816.847	162.13
817.026	227.67
817.204	182.61
817.383	205.14
817.561	121.17
817.74	166.23
817.918	153.94
818.097	149.84
818.275	149.84
818.453	184.66
818.632	237.91
818.81	205.14
818.988	211.28
819.167	172.37
819.345	227.67
819.523	176.47
819.701	131.41
819.879	186.71
820.058	190.8
820.236	182.61
820.414	155.99
820.592	209.23
820.77	104.79
820.948	92.5
821.127	102.74
821.305	151.89
821.483	147.8
821.661	133.46
821.839	119.12
822.017	137.56
822.195	174.42
822.373	149.84
822.551	158.03
822.729	112.98
822.907	137.56
823.085	147.8
823.262	153.94
823.44	170.32
823.618	88.4
823.796	137.56
823.974	194.9
824.152	112.98
824.329	196.95
824.507	100.69
824.685	139.6
824.863	198.99
825.04	133.46
825.218	127.32
825.396	55.64
825.574	115.03
825.751	108.88
825.929	72.02
826.107	88.4
826.284	98.64
826.462	125.27
826.639	125.27
826.817	115.03
826.994	100.69
827.172	74.07
827.349	131.41
827.527	174.42
827.704	145.75
827.882	84.31
828.059	194.9
828.237	94.55
828.414	158.03
828.591	166.23
828.769	92.5
828.946	67.92
829.124	112.98
829.301	104.79
829.478	129.36
829.655	90.45
829.833	47.44
830.01	98.64
830.187	96.6
830.364	88.4
830.542	106.84
830.719	96.6
830.896	182.61
831.073	72.02
831.25	137.56
831.427	129.36
831.604	151.89
831.782	8.53
831.959	145.75
832.136	98.64
832.313	55.64
832.49	96.6
832.667	168.27
832.844	158.03
833.021	119.12
833.198	65.88
833.374	139.6
833.551	106.84
833.728	98.64
833.905	92.5
834.082	104.79
834.259	137.56
834.436	137.56
834.612	82.26
834.789	129.36
834.966	-9.9
835.143	65.88
835.319	131.41
835.496	110.93
835.673	115.03
835.85	139.6
836.026	102.74
836.203	117.08
836.38	45.4
836.556	139.6
836.733	104.79
836.909	141.65
837.086	94.55
837.262	49.49
837.439	92.5
837.616	125.27
837.792	112.98
837.968	78.16
838.145	33.11
838.321	53.59
838.498	106.84
838.674	129.36
838.851	117.08
839.027	112.98
839.203	35.16
839.38	78.16
839.556	6.49
839.732	119.12
839.909	26.96
840.085	69.97
840.261	33.11
840.437	139.6
840.614	69.97
840.79	92.5
840.966	59.73
841.142	147.8
841.318	51.54
841.494	115.03
841.671	86.36
841.847	39.25
842.023	51.54
842.199	121.17
842.375	139.6
842.551	4.44
842.727	57.68
842.903	129.36
843.079	35.16
843.255	43.35
843.431	67.92
843.607	94.55
843.783	6.49
843.959	37.2
844.134	49.49
844.31	108.88
844.486	108.88
844.662	63.83
844.838	-3.75
845.013	88.4
845.189	178.51
845.365	86.36
845.541	69.97
845.716	41.3
845.892	123.22
846.068	69.97
846.244	127.32
846.419	98.64
846.595	31.06
846.77	94.55
846.946	115.03
847.122	102.74
847.297	-1.71
847.473	115.03
847.648	-16.04
847.824	153.94
847.999	76.12
848.175	55.64
848.35	-5.8
848.526	4.44
848.701	84.31
848.876	117.08
849.052	129.36
849.227	100.69
849.403	33.11
849.578	86.36
849.753	-13.99
849.929	94.55
850.104	80.21
850.279	8.53
850.454	86.36
850.63	162.13
850.805	92.5
850.98	143.7
851.155	80.21
851.33	119.12
851.505	14.68
851.681	98.64
851.856	47.44
852.031	61.78
852.206	33.11
852.381	-65.19
852.556	55.64
852.731	82.26
852.906	55.64
853.081	82.26
853.256	88.4
853.431	26.96
853.606	65.88
853.781	121.17
853.956	57.68
854.131	20.82
854.305	18.77
854.48	12.63
854.655	39.25
854.83	14.68
855.005	-57
855.18	37.2
855.354	59.73
855.529	57.68
855.704	80.21
855.879	125.27
856.053	35.16
856.228	78.16
856.403	33.11
856.577	16.73
856.752	24.92
856.926	-32.43
857.101	67.92
857.276	14.68
857.45	67.92
857.625	-28.33
857.799	100.69
857.974	49.49
858.148	63.83
858.323	65.88
858.497	43.35
858.672	43.35
858.846	78.16
859.02	26.96
859.195	2.39
859.369	35.16
859.543	8.53
859.718	65.88
859.892	33.11
860.066	37.2
860.241	18.77
860.415	24.92
860.589	74.07
860.763	39.25
860.938	-13.99
861.112	57.68
861.286	20.82
861.46	47.44
861.634	80.21
861.808	90.45
861.982	-7.85
862.157	43.35
862.331	33.11
862.505	59.73
862.679	65.88
862.853	61.78
863.027	100.69
863.201	57.68
863.375	2.39
863.549	0.34
863.722	2.39
863.896	72.02
864.07	16.73
864.244	96.6
864.418	63.83
864.592	-7.85
864.766	82.26
864.939	96.6
865.113	55.64
865.287	43.35
865.461	82.26
865.634	53.59
865.808	59.73
865.982	12.63
866.156	12.63
866.329	47.44
866.503	-3.75
866.676	129.36
866.85	29.01
867.024	49.49
867.197	6.49
867.371	88.4
867.544	-22.19
867.718	-1.71
867.891	102.74
868.065	98.64
868.238	41.3
868.412	176.47
868.585	43.35
868.759	61.78
868.932	-18.09
869.105	45.4
869.279	12.63
869.452	18.77
869.625	22.87
869.799	41.3
869.972	-38.57
870.145	96.6
870.319	104.79
870.492	74.07
870.665	-16.04
870.838	49.49
871.011	16.73
871.185	29.01
871.358	8.53
871.531	67.92
871.704	55.64
871.877	61.78
872.05	35.16
872.223	12.63
872.396	67.92
872.569	104.79
872.742	26.96
872.915	29.01
873.088	26.96
873.261	-18.09
873.434	88.4
873.607	69.97
873.78	37.2
873.953	8.53
874.126	2.39
874.299	31.06
874.471	43.35
874.644	16.73
874.817	12.63
874.99	80.21
875.163	2.39
875.335	24.92
875.508	26.96
875.681	55.64
875.853	63.83
876.026	41.3
876.199	69.97
876.371	-22.19
876.544	29.01
876.717	61.78
876.889	49.49
877.062	29.01
877.234	57.68
877.407	53.59
877.579	59.73
877.752	63.83
877.924	53.59
878.097	-5.8
878.269	84.31
878.442	100.69
878.614	0.34
878.786	72.02
878.959	33.11
879.131	-1.71
879.303	39.25
879.476	37.2
879.648	72.02
879.82	90.45
879.993	12.63
880.165	55.64
880.337	20.82
880.509	22.87
880.681	47.44
880.854	2.39
881.026	-9.9
881.198	29.01
881.37	80.21
881.542	61.78
881.714	55.64
881.886	72.02
882.058	-3.75
882.23	96.6
882.402	-1.71
882.574	47.44
882.746	49.49
882.918	65.88
883.09	72.02
883.262	24.92
883.434	33.11
883.606	0.34
883.778	14.68
883.95	49.49
884.122	4.44
884.293	22.87
884.465	57.68
884.637	55.64
884.809	22.87
884.98	47.44
885.152	49.49
885.324	22.87
885.496	69.97
885.667	29.01
885.839	80.21
886.011	10.58
886.182	59.73
886.354	63.83
886.525	33.11
886.697	31.06
886.869	24.92
887.04	-20.14
887.212	110.93
887.383	86.36
887.555	76.12
887.726	112.98
887.897	18.77
888.069	-7.85
888.24	-16.04
888.412	-11.95
888.583	-32.43
888.754	18.77
888.926	26.96
889.097	-38.57
889.268	39.25
889.44	26.96
889.611	72.02
889.782	84.31
889.953	-3.75
890.125	94.55
890.296	51.54
890.467	-48.81
890.638	14.68
890.809	-3.75
890.98	4.44
891.151	31.06
891.323	8.53
891.494	-16.04
891.665	72.02
891.836	39.25
892.007	18.77
892.178	96.6
892.349	35.16
892.52	-28.33
892.691	35.16
892.862	35.16
893.032	18.77
893.203	-13.99
893.374	20.82
893.545	35.16
893.716	80.21
893.887	37.2
894.057	-5.8
894.228	26.96
894.399	33.11
894.57	65.88
894.74	-5.8
894.911	18.77
895.082	43.35
895.253	18.77
895.423	29.01
895.594	96.6
895.764	-5.8
895.935	4.44
896.106	-34.47
896.276	8.53
896.447	-18.09
896.617	76.12
896.788	-42.67
896.958	24.92
897.129	-7.85
897.299	-7.85
897.47	-26.28
897.64	51.54
897.81	-1.71
897.981	8.53
898.151	55.64
898.322	55.64
898.492	-9.9
898.662	63.83
898.832	55.64
899.003	-44.71
899.173	-13.99
899.343	49.49
899.513	61.78
