Data from USB4F104151__49__11-45-09-057.txt Node

Date: Fri Mar 14 11:45:09 EDT 2025
User: louis
Spectrometer: USB4F10415
Trigger mode: 4
Integration Time (sec): 2.000000E-2
Scans to average: 1
Electric dark correction enabled: true
Nonlinearity correction enabled: false
Boxcar width: 0
XAxis mode: Wavelengths
Number of Pixels in Spectrum: 3648
>>>>>Begin Spectral Data<<<<<
178.204	-38.74
178.424	-38.74
178.644	-38.74
178.864	-16.21
179.084	-124.76
179.304	-16.21
179.524	45.23
179.744	4.27
179.964	-12.12
180.184	96.43
180.404	41.13
180.624	-53.08
180.844	-10.07
181.064	-57.17
181.283	-61.27
181.503	-42.84
181.723	65.71
181.943	-44.88
182.163	110.76
182.383	77.99
182.602	0.17
182.822	-16.21
183.042	34.99
183.262	39.08
183.482	-32.6
183.701	28.84
183.921	41.13
184.141	-77.65
184.361	14.51
184.58	53.42
184.8	92.33
185.02	-3.93
185.239	69.8
185.459	112.81
185.679	12.46
185.898	-1.88
186.118	24.75
186.338	32.94
186.557	108.71
186.777	16.55
186.997	34.99
187.216	18.6
187.436	61.61
187.655	16.55
187.875	69.8
188.095	-18.26
188.314	53.42
188.534	45.23
188.753	32.94
188.973	53.42
189.192	61.61
189.412	55.47
189.631	12.46
189.851	20.65
190.07	37.03
190.29	14.51
190.509	49.32
190.729	37.03
190.948	53.42
191.168	61.61
191.387	55.47
191.607	12.46
191.826	26.79
192.045	32.94
192.265	55.47
192.484	10.41
192.704	26.79
192.923	8.36
193.142	94.38
193.362	69.8
193.581	-10.07
193.8	32.94
194.02	28.84
194.239	53.42
194.458	-24.4
194.678	69.8
194.897	114.86
195.116	63.66
195.335	-10.07
195.555	47.27
195.774	24.75
195.993	-30.55
196.212	63.66
196.432	30.89
196.651	-12.12
196.87	39.08
197.089	82.09
197.308	106.67
197.528	18.6
197.747	12.46
197.966	26.79
198.185	82.09
198.404	104.62
198.623	-48.98
198.842	8.36
199.062	59.56
199.281	32.94
199.5	82.09
199.719	8.36
199.938	82.09
200.157	53.42
200.376	65.71
200.595	28.84
200.814	14.51
201.033	-36.69
201.252	53.42
201.471	32.94
201.69	6.31
201.909	14.51
202.128	30.89
202.347	32.94
202.566	8.36
202.785	-14.17
203.004	39.08
203.223	88.23
203.442	75.95
203.661	-5.97
203.879	-12.12
204.098	84.14
204.317	-36.69
204.536	-3.93
204.755	65.71
204.974	75.95
205.193	30.89
205.411	51.37
205.63	61.61
205.849	22.7
206.068	-32.6
206.287	102.57
206.505	61.61
206.724	37.03
206.943	-1.88
207.162	41.13
207.381	41.13
207.599	39.08
207.818	41.13
208.037	14.51
208.255	-22.36
208.474	73.9
208.693	63.66
208.911	20.65
209.13	39.08
209.349	92.33
209.567	63.66
209.786	37.03
210.005	55.47
210.223	12.46
210.442	57.51
210.661	65.71
210.879	24.75
211.098	16.55
211.316	37.03
211.535	-20.31
211.753	41.13
211.972	-26.45
212.191	2.22
212.409	18.6
212.628	75.95
212.846	-26.45
213.065	-26.45
213.283	67.75
213.502	51.37
213.72	4.27
213.938	16.55
214.157	-16.21
214.375	141.48
214.594	39.08
214.812	143.53
215.031	55.47
215.249	51.37
215.467	32.94
215.686	-42.84
215.904	24.75
216.122	-3.93
216.341	75.95
216.559	-24.4
216.778	53.42
216.996	49.32
217.214	82.09
217.432	77.99
217.651	-28.5
217.869	55.47
218.087	28.84
218.306	28.84
218.524	-3.93
218.742	43.18
218.96	-24.4
219.179	-22.36
219.397	-32.6
219.615	-26.45
219.833	47.27
220.051	28.84
220.27	4.27
220.488	94.38
220.706	110.76
220.924	100.52
221.142	71.85
221.36	37.03
221.578	51.37
221.796	-8.02
222.015	112.81
222.233	55.47
222.451	-10.07
222.669	-24.4
222.887	30.89
223.105	-20.31
223.323	-42.84
223.541	-20.31
223.759	102.57
223.977	51.37
224.195	71.85
224.413	53.42
224.631	59.56
224.849	28.84
225.067	55.47
225.285	63.66
225.503	37.03
225.721	14.51
225.939	77.99
226.157	59.56
226.375	110.76
226.592	28.84
226.81	-1.88
227.028	43.18
227.246	129.19
227.464	59.56
227.682	69.8
227.9	-24.4
228.117	32.94
228.335	28.84
228.553	55.47
228.771	24.75
228.989	114.86
229.206	71.85
229.424	34.99
229.642	18.6
229.86	-1.88
230.077	37.03
230.295	49.32
230.513	16.55
230.731	88.23
230.948	116.9
231.166	71.85
231.384	-14.17
231.601	32.94
231.819	51.37
232.037	53.42
232.254	-8.02
232.472	-20.31
232.689	24.75
232.907	8.36
233.125	45.23
233.342	22.7
233.56	18.6
233.777	59.56
233.995	69.8
234.213	77.99
234.43	34.99
234.648	8.36
234.865	-34.64
235.083	86.19
235.3	59.56
235.518	43.18
235.735	121
235.953	84.14
236.17	2.22
236.388	118.95
236.605	63.66
236.822	30.89
237.04	69.8
237.257	32.94
237.475	57.51
237.692	41.13
237.909	32.94
238.127	28.84
238.344	8.36
238.562	63.66
238.779	-18.26
238.996	45.23
239.214	51.37
239.431	16.55
239.648	67.75
239.865	59.56
240.083	125.1
240.3	43.18
240.517	4.27
240.735	45.23
240.952	63.66
241.169	32.94
241.386	32.94
241.603	75.95
241.821	26.79
242.038	75.95
242.255	71.85
242.472	61.61
242.689	53.42
242.907	69.8
243.124	37.03
243.341	59.56
243.558	53.42
243.775	32.94
243.992	-1.88
244.209	102.57
244.426	53.42
244.643	18.6
244.86	16.55
245.078	51.37
245.295	-5.97
245.512	106.67
245.729	51.37
245.946	49.32
246.163	55.47
246.38	14.51
246.597	47.27
246.814	57.51
247.031	57.51
247.248	39.08
247.464	65.71
247.681	59.56
247.898	37.03
248.115	63.66
248.332	-32.6
248.549	28.84
248.766	18.6
248.983	12.46
249.2	18.6
249.417	98.47
249.633	24.75
249.85	39.08
250.067	4.27
250.284	-53.08
250.501	41.13
250.717	75.95
250.934	-32.6
251.151	16.55
251.368	28.84
251.585	-10.07
251.801	77.99
252.018	24.75
252.235	45.23
252.451	49.32
252.668	39.08
252.885	-3.93
253.102	77.99
253.318	61.61
253.535	80.04
253.752	69.8
253.968	-3.93
254.185	16.55
254.401	51.37
254.618	22.7
254.835	-12.12
255.051	61.61
255.268	98.47
255.484	69.8
255.701	8.36
255.917	65.71
256.134	34.99
256.351	61.61
256.567	61.61
256.784	92.33
257	0.17
257.217	26.79
257.433	16.55
257.65	108.71
257.866	12.46
258.082	30.89
258.299	-20.31
258.515	14.51
258.732	71.85
258.948	53.42
259.165	14.51
259.381	24.75
259.597	102.57
259.814	110.76
260.03	59.56
260.246	-14.17
260.463	69.8
260.679	53.42
260.895	94.38
261.112	147.62
261.328	-16.21
261.544	59.56
261.761	123.05
261.977	55.47
262.193	28.84
262.409	57.51
262.626	28.84
262.842	84.14
263.058	28.84
263.274	39.08
263.49	41.13
263.707	43.18
263.923	4.27
264.139	51.37
264.355	-20.31
264.571	73.9
264.787	28.84
265.004	49.32
265.22	26.79
265.436	59.56
265.652	8.36
265.868	41.13
266.084	73.9
266.3	-5.97
266.516	49.32
266.732	32.94
266.948	39.08
267.164	28.84
267.38	-12.12
267.596	14.51
267.812	86.19
268.028	63.66
268.244	26.79
268.46	106.67
268.676	90.28
268.892	73.9
269.108	10.41
269.324	0.17
269.54	12.46
269.756	67.75
269.972	-77.65
270.188	86.19
270.403	20.65
270.619	4.27
270.835	32.94
271.051	63.66
271.267	10.41
271.483	18.6
271.698	39.08
271.914	-16.21
272.13	24.75
272.346	30.89
272.562	47.27
272.777	14.51
272.993	20.65
273.209	41.13
273.425	75.95
273.64	10.41
273.856	73.9
274.072	59.56
274.287	49.32
274.503	77.99
274.719	88.23
274.934	94.38
275.15	-8.02
275.366	86.19
275.581	-16.21
275.797	73.9
276.012	-10.07
276.228	133.29
276.444	-14.17
276.659	-26.45
276.875	-5.97
277.09	55.47
277.306	14.51
277.521	14.51
277.737	88.23
277.952	-12.12
278.168	24.75
278.383	61.61
278.599	32.94
278.814	-24.4
279.03	80.04
279.245	47.27
279.461	18.6
279.676	30.89
279.892	-3.93
280.107	77.99
280.322	51.37
280.538	49.32
280.753	-16.21
280.969	118.95
281.184	-1.88
281.399	41.13
281.615	34.99
281.83	94.38
282.045	63.66
282.26	20.65
282.476	53.42
282.691	49.32
282.906	53.42
283.122	24.75
283.337	71.85
283.552	-14.17
283.767	47.27
283.983	69.8
284.198	71.85
284.413	61.61
284.628	30.89
284.843	24.75
285.058	57.51
285.274	-26.45
285.489	53.42
285.704	4.27
285.919	30.89
286.134	-3.93
286.349	18.6
286.564	26.79
286.779	39.08
286.995	43.18
287.21	-26.45
287.425	-1.88
287.64	-1.88
287.855	20.65
288.07	49.32
288.285	94.38
288.5	41.13
288.715	157.86
288.93	10.41
289.145	-20.31
289.36	65.71
289.575	-8.02
289.79	43.18
290.004	69.8
290.219	90.28
290.434	55.47
290.649	47.27
290.864	26.79
291.079	41.13
291.294	26.79
291.509	-57.17
291.724	53.42
291.938	41.13
292.153	51.37
292.368	45.23
292.583	12.46
292.798	34.99
293.012	67.75
293.227	32.94
293.442	-32.6
293.657	-24.4
293.871	-5.97
294.086	125.1
294.301	82.09
294.516	49.32
294.73	28.84
294.945	49.32
295.16	0.17
295.374	-3.93
295.589	106.67
295.804	-1.88
296.018	45.23
296.233	6.31
296.447	8.36
296.662	-28.5
296.877	16.55
297.091	-12.12
297.306	20.65
297.52	-59.22
297.735	-26.45
297.949	94.38
298.164	88.23
298.378	110.76
298.593	-5.97
298.807	67.75
299.022	96.43
299.236	94.38
299.451	-8.02
299.665	-61.27
299.88	8.36
300.094	-20.31
300.309	20.65
300.523	49.32
300.737	92.33
300.952	61.61
301.166	80.04
301.381	-32.6
301.595	67.75
301.809	-18.26
302.024	39.08
302.238	55.47
302.452	55.47
302.667	143.53
302.881	59.56
303.095	47.27
303.309	57.51
303.524	34.99
303.738	26.79
303.952	34.99
304.166	26.79
304.381	26.79
304.595	32.94
304.809	-44.88
305.023	22.7
305.237	67.75
305.452	-18.26
305.666	82.09
305.88	43.18
306.094	-1.88
306.308	61.61
306.522	94.38
306.736	96.43
306.95	59.56
307.164	-1.88
307.379	61.61
307.593	71.85
307.807	22.7
308.021	20.65
308.235	49.32
308.449	77.99
308.663	-1.88
308.877	106.67
309.091	53.42
309.305	80.04
309.519	4.27
309.733	102.57
309.947	-1.88
310.161	34.99
310.374	75.95
310.588	41.13
310.802	53.42
311.016	-42.84
311.23	47.27
311.444	37.03
311.658	20.65
311.872	86.19
312.085	26.79
312.299	59.56
312.513	110.76
312.727	59.56
312.941	47.27
313.154	28.84
313.368	8.36
313.582	32.94
313.796	69.8
314.009	57.51
314.223	45.23
314.437	37.03
314.651	71.85
314.864	51.37
315.078	2.22
315.292	55.47
315.505	12.46
315.719	98.47
315.933	-18.26
316.146	73.9
316.36	-24.4
316.573	8.36
316.787	10.41
317.001	63.66
317.214	-1.88
317.428	-42.84
317.641	-20.31
317.855	57.51
318.068	32.94
318.282	12.46
318.495	77.99
318.709	39.08
318.922	75.95
319.136	18.6
319.349	90.28
319.563	41.13
319.776	0.17
319.99	57.51
320.203	59.56
320.417	28.84
320.63	-10.07
320.843	125.1
321.057	55.47
321.27	39.08
321.483	69.8
321.697	6.31
321.91	30.89
322.124	-28.5
322.337	47.27
322.55	55.47
322.763	77.99
322.977	43.18
323.19	96.43
323.403	16.55
323.617	-26.45
323.83	96.43
324.043	49.32
324.256	96.43
324.469	84.14
324.683	73.9
324.896	61.61
325.109	77.99
325.322	20.65
325.535	59.56
325.748	-16.21
325.962	-14.17
326.175	69.8
326.388	65.71
326.601	80.04
326.814	32.94
327.027	-3.93
327.24	96.43
327.453	22.7
327.666	43.18
327.879	102.57
328.092	20.65
328.305	92.33
328.518	-3.93
328.731	90.28
328.944	63.66
329.157	92.33
329.37	65.71
329.583	63.66
329.796	164.01
330.009	43.18
330.222	30.89
330.435	69.8
330.648	24.75
330.861	47.27
331.073	65.71
331.286	49.32
331.499	45.23
331.712	49.32
331.925	69.8
332.138	0.17
332.35	61.61
332.563	18.6
332.776	47.27
332.989	14.51
333.202	67.75
333.414	92.33
333.627	-5.97
333.84	98.47
334.053	16.55
334.265	77.99
334.478	43.18
334.691	73.9
334.903	77.99
335.116	28.84
335.329	-20.31
335.541	-5.97
335.754	71.85
335.966	-3.93
336.179	94.38
336.392	45.23
336.604	-24.4
336.817	59.56
337.029	45.23
337.242	18.6
337.454	45.23
337.667	12.46
337.88	106.67
338.092	32.94
338.305	-5.97
338.517	-28.5
338.729	2.22
338.942	18.6
339.154	59.56
339.367	4.27
339.579	39.08
339.792	28.84
340.004	32.94
340.217	69.8
340.429	24.75
340.641	53.42
340.854	12.46
341.066	-3.93
341.278	69.8
341.491	16.55
341.703	67.75
341.915	59.56
342.128	-12.12
342.34	0.17
342.552	18.6
342.764	80.04
342.977	20.65
343.189	24.75
343.401	69.8
343.613	32.94
343.826	18.6
344.038	8.36
344.25	2.22
344.462	104.62
344.674	20.65
344.886	63.66
345.099	67.75
345.311	51.37
345.523	18.6
345.735	-14.17
345.947	47.27
346.159	18.6
346.371	61.61
346.583	51.37
346.795	75.95
347.007	39.08
347.219	45.23
347.431	14.51
347.643	57.51
347.855	92.33
348.067	41.13
348.279	59.56
348.491	139.43
348.703	37.03
348.915	34.99
349.127	51.37
349.339	41.13
349.551	43.18
349.763	71.85
349.975	84.14
350.187	90.28
350.399	8.36
350.61	61.61
350.822	98.47
351.034	61.61
351.246	69.8
351.458	67.75
351.669	96.43
351.881	57.51
352.093	47.27
352.305	30.89
352.517	108.71
352.728	125.1
352.94	-3.93
353.152	-3.93
353.363	34.99
353.575	137.38
353.787	67.75
353.999	37.03
354.21	94.38
354.422	39.08
354.633	32.94
354.845	4.27
355.057	-28.5
355.268	24.75
355.48	47.27
355.692	73.9
355.903	59.56
356.115	39.08
356.326	69.8
356.538	45.23
356.749	82.09
356.961	55.47
357.172	-22.36
357.384	16.55
357.595	108.71
357.807	39.08
358.018	45.23
358.23	-22.36
358.441	-1.88
358.653	43.18
358.864	77.99
359.075	65.71
359.287	98.47
359.498	10.41
359.709	106.67
359.921	106.67
360.132	32.94
360.344	121
360.555	-5.97
360.766	57.51
360.977	6.31
361.189	49.32
361.4	20.65
361.611	6.31
361.823	82.09
362.034	88.23
362.245	-38.74
362.456	-5.97
362.667	37.03
362.879	63.66
363.09	69.8
363.301	59.56
363.512	55.47
363.723	106.67
363.935	12.46
364.146	-8.02
364.357	84.14
364.568	4.27
364.779	26.79
364.99	98.47
365.201	20.65
365.412	118.95
365.623	53.42
365.834	32.94
366.045	55.47
366.256	73.9
366.467	71.85
366.678	106.67
366.889	57.51
367.1	73.9
367.311	53.42
367.522	24.75
367.733	108.71
367.944	51.37
368.155	34.99
368.366	-16.21
368.577	39.08
368.788	96.43
368.999	4.27
369.209	26.79
369.42	96.43
369.631	114.86
369.842	102.57
370.053	53.42
370.264	4.27
370.474	71.85
370.685	-36.69
370.896	39.08
371.107	-1.88
371.317	18.6
371.528	69.8
371.739	-12.12
371.95	-36.69
372.16	135.34
372.371	45.23
372.582	131.24
372.792	32.94
373.003	16.55
373.214	92.33
373.424	26.79
373.635	34.99
373.846	59.56
374.056	8.36
374.267	108.71
374.477	65.71
374.688	24.75
374.898	94.38
375.109	71.85
375.319	121
375.53	82.09
375.74	94.38
375.951	88.23
376.161	24.75
376.372	-5.97
376.582	45.23
376.793	12.46
377.003	4.27
377.214	45.23
377.424	45.23
377.635	49.32
377.845	69.8
378.055	86.19
378.266	24.75
378.476	82.09
378.686	61.61
378.897	67.75
379.107	59.56
379.317	71.85
379.528	22.7
379.738	71.85
379.948	61.61
380.158	129.19
380.369	112.81
380.579	4.27
380.789	65.71
380.999	51.37
381.21	6.31
381.42	69.8
381.63	26.79
381.84	43.18
382.05	49.32
382.261	102.57
382.471	20.65
382.681	-3.93
382.891	112.81
383.101	43.18
383.311	24.75
383.521	-16.21
383.731	37.03
383.941	104.62
384.151	77.99
384.361	86.19
384.571	37.03
384.781	141.48
384.991	32.94
385.201	77.99
385.411	106.67
385.621	77.99
385.831	41.13
386.041	49.32
386.251	73.9
386.461	106.67
386.671	133.29
386.881	106.67
387.091	39.08
387.301	84.14
387.511	61.61
387.72	131.24
387.93	65.71
388.14	43.18
388.35	39.08
388.56	63.66
388.769	67.75
388.979	51.37
389.189	75.95
389.399	45.23
389.609	59.56
389.818	2.22
390.028	32.94
390.238	26.79
390.447	96.43
390.657	30.89
390.867	67.75
391.076	0.17
391.286	75.95
391.496	92.33
391.705	2.22
391.915	141.48
392.125	47.27
392.334	94.38
392.544	12.46
392.753	127.14
392.963	77.99
393.172	53.42
393.382	92.33
393.591	133.29
393.801	69.8
394.01	77.99
394.22	127.14
394.429	73.9
394.639	98.47
394.848	82.09
395.058	28.84
395.267	28.84
395.477	55.47
395.686	28.84
395.895	86.19
396.105	69.8
396.314	8.36
396.524	118.95
396.733	82.09
396.942	106.67
397.152	77.99
397.361	55.47
397.57	65.71
397.78	123.05
397.989	98.47
398.198	102.57
398.407	153.77
398.617	69.8
398.826	100.52
399.035	116.9
399.244	75.95
399.453	4.27
399.663	104.62
399.872	157.86
400.081	69.8
400.29	121
400.499	26.79
400.708	125.1
400.917	86.19
401.127	110.76
401.336	22.7
401.545	151.72
401.754	96.43
401.963	127.14
402.172	53.42
402.381	139.43
402.59	141.48
402.799	98.47
403.008	47.27
403.217	55.47
403.426	77.99
403.635	127.14
403.844	84.14
404.053	59.56
404.262	153.77
404.471	157.86
404.68	55.47
404.888	131.24
405.097	178.34
405.306	65.71
405.515	180.39
405.724	77.99
405.933	184.49
406.142	77.99
406.35	159.91
406.559	90.28
406.768	133.29
406.977	157.86
407.185	213.16
407.394	141.48
407.603	125.1
407.812	192.68
408.02	86.19
408.229	155.82
408.438	192.68
408.646	180.39
408.855	213.16
409.064	260.26
409.272	213.16
409.481	250.02
409.69	219.3
409.898	227.5
410.107	247.97
410.315	258.21
410.524	202.92
410.733	299.17
410.941	252.07
411.15	282.79
411.358	243.88
411.567	309.41
411.775	297.13
411.984	274.6
412.192	305.32
412.401	284.84
412.609	370.85
412.818	374.95
413.026	336.04
413.234	315.56
413.443	258.21
413.651	391.33
413.86	358.57
414.068	485.54
414.276	487.59
414.485	442.53
414.693	532.64
414.901	485.54
415.11	485.54
415.318	413.86
415.526	534.69
415.734	503.97
415.943	518.31
416.151	637.09
416.359	532.64
416.567	680.1
416.776	714.91
416.984	684.19
417.192	735.39
417.4	696.48
417.608	735.39
417.817	651.42
418.025	727.2
418.233	762.02
418.441	714.91
418.649	872.61
418.857	876.7
419.065	862.37
419.273	858.27
419.481	874.65
419.689	1007.77
419.897	989.34
420.105	1058.97
420.313	1036.44
420.521	1149.08
420.729	1110.17
420.937	1140.89
421.145	1187.99
421.353	1243.29
421.561	1329.3
421.769	1239.19
421.977	1353.88
422.185	1355.93
422.393	1355.93
422.601	1484.95
422.809	1464.47
423.017	1616.02
423.224	1583.25
423.432	1652.88
423.64	1671.31
423.848	1745.04
424.056	1712.27
424.263	1896.59
424.471	1937.55
424.679	1802.38
424.887	2087.05
425.094	2080.91
425.302	2080.91
425.51	2154.63
425.718	2252.94
425.925	2244.74
426.133	2326.66
426.341	2523.27
426.548	2504.84
426.756	2617.47
426.964	2642.05
427.171	2762.88
427.379	2924.67
427.586	2881.66
427.794	3033.21
428.001	3223.67
428.209	3338.36
428.417	3242.11
428.624	3330.17
428.832	3432.57
429.039	3303.54
429.247	3557.49
429.454	3768.43
429.662	3942.51
429.869	3790.96
430.076	4036.72
430.284	3913.84
430.491	3999.85
430.699	4206.7
430.906	4352.1
431.114	4350.06
431.321	4536.42
431.528	4661.35
431.736	4937.82
431.943	5144.67
432.15	5054.56
432.358	5046.37
432.565	5328.99
432.772	5404.76
432.979	5539.93
433.187	5521.49
433.394	5740.63
433.601	6142.03
433.808	6023.25
434.016	6144.08
434.223	6398.03
434.43	6699.08
434.637	6600.77
434.844	6895.68
435.052	7077.95
435.259	6907.97
435.466	7039.04
435.673	7141.44
435.88	7458.87
436.087	7831.6
436.294	7817.27
436.501	7852.08
436.708	7962.67
436.915	8050.74
437.122	8572.97
437.329	8618.02
437.537	8726.57
437.743	8921.12
437.95	8937.51
438.157	9332.76
438.364	9465.88
438.571	9480.22
438.778	9783.32
438.985	10672.14
439.192	9945.11
439.399	10410
439.606	10340.36
439.813	10610.7
440.02	11390.97
440.227	11139.07
440.433	11212.8
440.64	11374.59
440.847	11427.84
441.054	11864.05
441.261	12525.55
441.467	12328.94
441.674	12687.34
441.881	13017.06
442.088	12965.86
442.294	12939.24
442.501	13135.84
442.708	13416.41
442.914	13995.99
443.121	14696.39
443.328	14282.7
443.534	15347.65
443.741	14925.77
443.948	14677.96
444.154	15652.8
444.361	15585.21
444.568	15689.66
444.774	15681.47
444.981	15886.26
445.187	16570.29
445.394	17139.62
445.6	16621.49
445.807	18452.37
446.013	17665.95
446.22	17909.66
446.426	18587.54
446.633	18943.88
446.839	19335.04
447.046	18898.83
447.252	19451.78
447.459	19937.15
447.665	19603.33
447.871	20574.06
448.078	21483.36
448.284	20275.06
448.491	20987.75
448.697	21888.86
448.903	22042.46
449.11	22110.04
449.316	21786.46
449.522	22243.16
449.728	23062.35
449.935	23160.65
450.141	22824.78
450.347	23701.31
450.553	22861.65
450.76	23162.7
450.966	23560
451.172	23856.96
451.378	24205.11
451.584	23779.14
451.791	24686.39
451.997	24268.6
452.203	24489.78
452.409	24762.16
452.615	24528.69
452.821	23770.94
453.027	23353.16
453.233	24854.32
453.44	23600.96
453.646	23809.86
453.852	23816
454.058	24463.16
454.264	23424.84
454.47	24348.47
454.676	23449.41
454.882	24024.89
455.088	22308.69
455.294	22486.87
455.5	22722.38
455.705	23019.34
455.911	22157.14
456.117	21593.95
456.323	21430.12
456.529	20393.84
456.735	21157.74
456.941	20750.19
457.147	20420.47
457.352	19728.25
457.558	19644.29
457.764	19591.04
457.97	19091.34
458.176	18859.91
458.381	18851.72
458.587	17876.89
458.793	17770.4
458.999	16936.87
459.204	18444.18
459.41	17653.66
459.616	16723.88
459.821	16359.35
460.027	16269.23
460.233	16199.6
460.438	15372.22
460.644	15509.44
460.85	14831.56
461.055	14690.25
461.261	14381.01
461.466	13436.89
461.672	13012.96
461.878	14086.1
462.083	13111.27
462.289	12783.59
462.494	12675.05
462.7	12060.66
462.905	11708.41
463.111	12027.89
463.316	12433.39
463.522	11960.31
463.727	12009.46
463.932	11827.19
464.138	12070.9
464.343	11870.2
464.549	11466.75
464.754	12101.62
464.959	11864.05
465.165	11603.96
465.37	11266.05
465.575	10801.16
465.781	11503.61
465.986	11499.52
466.191	10926.08
466.397	10885.12
466.602	10346.51
466.807	10801.16
467.012	10817.54
467.218	10606.6
467.423	10577.93
467.628	10420.24
467.833	10878.98
468.038	10698.76
468.244	10276.88
468.449	10709
468.654	10491.91
468.859	10354.7
469.064	10346.51
469.269	9795.61
469.474	9850.9
469.679	10162.19
469.885	9926.68
470.09	10012.69
470.295	9836.56
470.5	9752.6
470.705	9775.13
470.91	9439.26
471.115	9396.25
471.32	9705.49
471.525	9564.18
471.73	9213.98
471.935	9109.54
472.139	8831.01
472.344	9146.4
472.549	8960.03
472.754	8800.29
472.959	8671.27
473.164	8441.9
473.369	8400.94
473.574	8771.62
473.778	8595.5
473.983	8464.43
474.188	8605.74
474.393	8157.23
474.598	8116.27
474.802	8017.97
475.007	8132.65
475.212	8017.97
475.417	7589.94
475.621	7628.85
475.826	7798.84
476.031	7823.41
476.235	7344.19
476.44	7671.86
476.645	7426.11
476.849	7407.67
477.054	7286.84
477.259	7401.53
477.463	7225.4
477.668	7053.38
477.872	7108.67
478.077	7000.13
478.282	6957.12
478.486	6953.02
478.691	6770.76
478.895	6684.74
479.1	6619.21
479.304	6527.05
479.509	6451.27
479.713	6764.61
479.918	6361.16
480.122	6375.5
480.326	6398.03
480.531	6404.17
480.735	6537.29
480.94	6426.7
481.144	6481.99
481.348	6269
481.553	6430.79
481.757	6119.5
481.961	6279.24
482.166	6398.03
482.37	6391.88
482.574	6080.59
482.778	6127.69
482.983	6322.25
483.187	6338.63
483.391	6230.09
483.595	6209.61
483.8	6144.08
484.004	6232.14
484.208	6305.87
484.412	6299.72
484.616	6158.41
484.821	6328.39
485.025	6127.69
485.229	6211.66
485.433	6185.04
485.637	6008.91
485.841	6199.37
486.045	6260.81
486.249	6119.5
486.453	6254.67
486.657	6285.39
486.861	6148.17
487.065	6103.12
487.269	6309.96
487.473	6121.55
487.677	6320.2
487.881	6066.25
488.085	6176.84
488.289	6062.16
488.493	6273.1
488.697	6486.09
488.901	6219.85
489.105	6182.99
489.309	6258.76
489.512	6340.68
489.716	6332.49
489.92	6113.36
490.124	6203.47
490.328	6490.18
490.531	6133.84
490.735	6291.53
490.939	6273.1
491.143	6436.94
491.346	6398.03
491.55	6514.76
491.754	6412.36
491.958	6580.29
492.161	6420.55
492.365	6447.18
492.569	6563.91
492.772	6617.16
492.976	6586.44
493.18	6647.88
493.383	6852.67
493.587	6617.16
493.79	6713.41
493.994	6848.58
494.197	6869.06
494.401	6934.59
494.605	6926.4
494.808	6967.36
495.012	7004.22
495.215	7080
495.419	7266.36
495.622	7114.81
495.825	7213.12
496.029	7235.64
496.232	7448.63
496.436	7041.09
496.639	7589.94
496.843	7579.7
497.046	7536.7
497.249	7618.61
497.453	7800.88
497.656	7649.33
497.859	7852.08
498.063	7823.41
498.266	7876.66
498.469	7972.91
498.673	8153.13
498.876	8220.72
499.079	8163.37
499.282	8267.82
499.485	8757.29
499.689	8529.96
499.892	8665.13
500.095	8652.84
500.298	8912.93
500.501	8712.23
500.705	8976.42
500.908	9125.92
501.111	9089.06
501.314	9535.51
501.517	9439.26
501.72	9543.71
501.923	9500.7
502.126	9662.49
502.329	9910.29
502.532	9820.18
502.735	9926.68
502.938	10067.99
503.141	10254.35
503.344	10424.33
503.547	10369.04
503.75	10375.18
503.953	10663.94
504.156	10805.25
504.359	10760.2
504.562	11001.86
504.765	11304.96
504.968	11038.72
505.17	11304.96
505.373	11567.1
505.576	11479.04
505.779	11743.22
505.982	12048.37
506.185	12023.8
506.387	12019.7
506.59	12281.84
506.793	12507.12
506.996	12242.93
507.198	12705.77
507.401	12601.32
507.604	12924.9
507.807	13219.81
508.009	13260.77
508.212	13182.95
508.415	13346.78
508.617	13588.44
508.82	13875.16
509.022	13447.13
509.225	13961.17
509.428	14145.49
509.63	14223.31
509.833	14256.08
510.035	14665.67
510.238	14673.87
510.44	14833.61
510.643	15126.47
510.845	15036.36
511.048	14989.25
511.25	15378.37
511.453	15347.65
511.655	16093.11
511.858	15841.21
512.06	16205.75
512.262	16275.38
512.465	16181.17
512.667	16455.6
512.87	16719.79
513.072	16654.25
513.274	17084.33
513.477	17186.72
513.679	17137.57
513.881	17514.4
514.084	17659.81
514.286	17622.94
514.488	17844.12
514.69	18466.7
514.893	18300.82
515.095	18266
515.297	18806.67
515.499	18560.91
515.701	18823.05
515.904	19185.54
516.106	19306.37
516.308	19646.33
516.51	19632
516.712	19679.1
516.914	19869.56
517.116	20320.12
517.318	20254.58
517.52	20336.5
517.722	20694.89
517.925	20791.15
518.127	21335.91
518.329	21481.31
518.531	20983.66
518.733	21686.11
518.935	21901.15
519.136	21964.64
519.338	22085.47
519.54	22277.97
519.742	22654.8
519.944	23197.51
520.146	22910.8
520.348	23183.18
520.55	23013.2
520.752	23484.23
520.954	23777.09
521.155	23582.53
521.357	24002.36
521.559	24278.84
521.761	24694.58
521.963	24213.31
522.164	24743.73
522.366	25005.87
522.568	24917.81
522.77	25421.61
522.971	25642.79
523.173	25470.76
523.375	25872.16
523.576	26091.29
523.778	25990.94
523.98	26492.69
524.181	26617.62
524.383	26558.23
524.584	26806.03
524.786	27000.59
524.988	26631.96
525.189	27354.89
525.391	27668.23
525.592	27576.07
525.794	27498.25
525.995	27692.8
526.197	27703.04
526.398	27770.63
526.6	28221.18
526.801	28620.53
527.003	28393.21
527.204	28278.52
527.406	28727.03
527.607	28569.33
527.808	29122.29
528.01	28495.61
528.211	29126.38
528.412	29349.61
528.614	29454.06
528.815	29445.87
529.016	29787.88
529.218	29384.43
529.419	29675.24
529.62	29429.48
529.822	29615.85
530.023	29716.2
530.224	29918.95
530.425	30271.2
530.626	29914.85
530.828	29652.71
531.029	30705.37
531.23	30043.87
531.431	30199.52
531.632	30463.71
531.833	30566.1
532.035	30197.47
532.236	30498.52
532.437	30586.58
532.638	30473.95
532.839	30904.02
533.04	31207.12
533.241	30385.88
533.442	31102.67
533.643	30926.55
533.844	30650.07
534.045	30883.54
534.246	30586.58
534.447	30877.4
534.648	30582.49
534.849	30815.96
535.05	30807.76
535.251	30742.23
535.451	30998.23
535.652	31041.23
535.853	30887.64
536.054	31352.52
536.255	31418.06
536.456	31268.56
536.657	31594.18
536.857	30912.21
537.058	31063.76
537.259	31168.21
537.46	31190.73
537.66	30781.14
537.861	31018.71
538.062	30967.51
538.263	31454.92
538.463	31121.1
538.664	30803.67
538.865	31162.06
539.065	31278.8
539.266	30863.06
539.466	31514.31
539.667	30688.98
539.868	31495.88
540.068	30887.64
540.269	31233.74
540.469	31391.44
540.67	30641.88
540.87	31246.03
541.071	30883.54
541.271	31033.04
541.472	30987.99
541.672	30963.41
541.873	31108.82
542.073	30414.55
542.274	31069.9
542.474	31176.4
542.675	30936.79
542.875	31411.92
543.075	31104.72
543.276	30867.16
543.476	31260.37
543.676	30856.92
543.877	31215.31
544.077	31114.96
544.277	30750.42
544.478	30570.2
544.678	31215.31
544.878	30770.9
545.078	31133.39
545.279	30858.96
545.479	31022.8
545.679	31104.72
545.879	31117.01
546.079	30641.88
546.28	30625.5
546.48	30711.51
546.68	30924.5
546.88	31057.62
547.08	30973.65
547.28	30879.44
547.48	30435.03
547.68	30873.3
547.88	30611.16
548.081	31041.23
548.281	30713.56
548.481	30635.74
548.681	30842.58
548.881	30752.47
549.081	30809.81
549.28	30494.43
549.48	30717.65
549.68	30723.8
549.88	31080.14
550.08	30752.47
550.28	30742.23
550.48	30684.89
550.68	31039.19
550.88	30738.13
551.08	30570.2
551.279	30908.12
551.479	30353.12
551.679	30695.13
551.879	30572.25
552.079	30461.66
552.278	30535.38
552.478	30758.61
552.678	30885.59
552.878	30879.44
553.077	30748.37
553.277	30349.02
553.477	30891.73
553.676	30621.4
553.876	30443.23
554.076	30152.41
554.275	30285.53
554.475	30226.14
554.674	30598.87
554.874	30514.91
555.074	29966.05
555.273	30344.92
555.473	30361.31
555.672	30389.98
555.872	29939.43
556.071	30236.38
556.271	30279.39
556.47	30301.92
556.67	29957.86
556.869	29937.38
557.068	30170.85
557.268	30017.25
557.467	29968.1
557.667	30088.93
557.866	29560.55
558.065	29916.9
558.265	29744.87
558.464	29609.7
558.663	29832.93
558.863	29171.44
559.062	29800.16
559.261	29318.89
559.461	29746.92
559.66	29241.07
559.859	29417.19
560.058	29286.12
560.258	29296.36
560.457	29099.76
560.656	29445.87
560.855	29126.38
561.054	29034.22
561.253	28718.84
561.453	28952.3
561.652	29191.92
561.851	29314.8
562.05	28966.64
562.249	28817.14
562.448	28833.52
562.647	28845.81
562.846	28522.23
563.045	28555
563.244	28464.89
563.443	28788.47
563.642	28129.02
563.841	28415.74
564.04	28204.8
564.239	28583.67
564.438	28380.92
564.637	28176.12
564.836	28354.3
565.035	27768.58
565.234	28210.94
565.432	27680.52
565.631	27760.39
565.83	27873.03
566.029	27903.74
566.228	27684.61
566.427	27664.13
566.625	27369.23
566.824	27174.67
567.023	27516.68
567.222	27057.93
567.42	27322.12
567.619	27156.24
567.818	27002.64
568.016	26894.1
568.215	27143.95
568.414	26973.97
568.612	27100.94
568.811	26533.65
569.01	26806.03
569.208	26291.99
569.407	26701.59
569.605	26494.74
569.804	26726.16
570.002	26279.71
570.201	26433.3
570.4	26273.56
570.598	26154.78
570.797	25816.86
570.995	26107.68
571.193	25405.22
571.392	25964.32
571.59	25540.39
571.789	25620.26
571.987	25691.94
572.186	25413.41
572.384	25341.74
572.582	25524.01
572.781	25542.44
572.979	25138.99
573.177	25151.27
573.376	25313.06
573.574	25276.2
573.772	24835.89
573.971	24954.67
574.169	24753.97
574.367	24428.34
574.565	24633.14
574.763	24706.87
574.962	24409.91
575.16	24530.74
575.358	24426.29
575.556	24059.71
575.754	24184.63
575.952	24067.9
576.151	24217.4
576.349	23809.86
576.547	23883.58
576.745	23975.74
576.943	24026.94
577.141	23811.9
577.339	23992.12
577.537	23899.97
577.735	23697.22
577.933	23328.58
578.131	23418.69
578.329	23357.25
578.527	23158.6
578.725	22992.72
578.923	23285.58
579.121	23013.2
579.319	23054.15
579.516	23224.14
579.714	23166.79
579.912	23029.58
580.11	22697.81
580.308	22630.23
580.506	22536.02
580.704	22476.63
580.901	22761.3
581.099	22853.45
581.297	22519.64
581.495	22163.29
581.692	22794.06
581.89	21978.97
582.088	22224.73
582.285	22392.66
582.483	22452.05
582.681	21964.64
582.878	21534.56
583.076	21981.02
583.274	21753.69
583.471	21718.88
583.669	21493.6
583.866	21864.29
584.064	21626.72
584.262	21520.23
584.459	21694.3
584.657	21247.85
584.854	21428.07
585.052	21346.15
585.249	21288.81
585.447	21430.12
585.644	21024.62
585.841	21065.58
586.039	21186.41
586.236	21073.77
586.434	20813.68
586.631	20875.12
586.828	20479.86
587.026	20549.49
587.223	20610.93
587.42	20416.37
587.618	20500.34
587.815	20297.59
588.012	20436.85
588.21	20148.09
588.407	20375.41
588.604	20242.29
588.801	20019.07
588.999	20135.8
589.196	19990.39
589.393	19883.9
589.59	19859.32
589.787	19873.66
589.984	19828.6
590.182	19629.95
590.379	19664.77
590.576	19384.19
590.773	19578.75
590.97	19316.61
591.167	19515.26
591.364	19380.1
591.561	19443.59
591.758	19222.41
591.955	19240.84
592.152	19068.81
592.349	19015.56
592.546	18864.01
592.743	19027.85
592.94	18937.74
593.137	19077
593.334	18792.33
593.531	18767.76
593.727	18855.82
593.924	18419.6
594.121	18632.59
594.318	18552.72
594.515	18317.2
594.712	18601.87
594.908	18560.91
595.105	18515.86
595.302	18028.44
595.499	18442.13
595.696	18257.81
595.892	18104.21
596.089	18259.86
596.286	18227.09
596.482	18153.37
596.679	18216.85
596.876	17973.14
597.072	17653.66
597.269	17840.03
597.466	17772.44
597.662	17840.03
597.859	17694.62
598.055	17686.43
598.252	17495.97
598.448	17489.82
598.645	17391.52
598.841	16981.93
599.038	17500.06
599.234	17661.85
599.431	16938.92
599.627	17332.13
599.824	17407.91
600.02	16912.3
600.217	17069.99
600.413	16928.68
600.609	16854.95
600.806	16801.71
601.002	16861.1
601.198	16461.74
601.395	16603.05
601.591	16646.06
601.787	16764.84
601.984	16431.02
602.18	16607.15
602.376	16351.15
602.572	16316.34
602.769	16605.1
602.965	16369.58
603.161	16207.8
603.357	16019.38
603.553	16148.4
603.75	16080.82
603.946	15734.71
604.142	15972.28
604.338	15880.12
604.534	15820.73
604.73	15765.43
604.926	15605.69
605.122	15871.93
605.318	15693.76
605.514	15556.54
605.71	15585.21
605.906	15585.21
606.102	15630.27
606.298	15646.65
606.494	15546.3
606.69	15161.28
606.886	15519.68
607.082	15192
607.278	15275.97
607.474	14999.49
607.67	15153.09
607.866	15073.22
608.062	15015.88
608.257	15105.99
608.453	14843.85
608.649	15130.56
608.845	14938.05
609.041	14905.29
609.236	14868.42
609.432	14923.72
609.628	14684.11
609.824	14813.13
610.019	14727.11
610.215	14665.67
610.411	14698.44
610.606	14507.98
610.802	14710.73
610.998	14798.79
611.193	14682.06
611.389	14354.38
611.584	14434.25
611.78	14442.45
611.976	14284.75
612.171	14571.47
612.367	14616.52
612.562	14237.65
612.758	14487.5
612.953	14196.69
613.149	14305.23
613.344	14034.9
613.539	14319.57
613.735	14202.83
613.93	14231.51
614.126	14350.29
614.321	14092.24
614.517	14098.39
614.712	14190.55
614.907	14145.49
615.103	13987.8
615.298	13959.13
615.493	14161.87
615.688	13750.23
615.884	14137.3
616.079	13787.1
616.274	13922.26
616.47	13670.36
616.665	13731.8
616.86	13752.28
617.055	13625.31
617.25	13676.51
617.445	13627.35
617.641	13248.48
617.836	13475.81
618.031	13490.14
618.226	13371.36
618.421	13416.41
618.616	13584.35
618.811	13277.15
619.006	13604.83
619.201	13019.11
619.396	13322.21
619.591	12976.1
619.786	13150.18
619.981	12838.89
620.176	13256.67
620.371	12885.99
620.566	12783.59
620.761	12777.45
620.956	12881.89
621.151	12662.76
621.346	12773.35
621.541	12912.61
621.735	12605.42
621.93	12417.01
622.125	12539.88
622.32	12118
622.515	12206.06
622.709	12072.95
622.904	12464.11
623.099	12185.58
623.294	12210.16
623.488	12036.08
623.683	11900.92
623.878	11933.68
624.072	12054.51
624.267	11900.92
624.462	11739.13
624.656	11608.06
624.851	11659.26
625.046	11569.15
625.24	11536.38
625.435	11331.58
625.629	11567.1
625.824	10983.43
626.018	11356.16
626.213	10942.47
626.407	11128.83
626.602	10952.71
626.796	11114.5
626.991	10956.8
627.185	10842.12
627.38	10825.73
627.574	10901.51
627.768	10702.86
627.963	10584.07
628.157	10596.36
628.352	10422.28
628.546	10414.09
628.74	10358.8
628.935	10430.48
629.129	10301.45
629.323	10246.16
629.517	10229.77
629.712	10110.99
629.906	10201.1
630.1	10004.5
630.294	9920.53
630.489	9996.31
630.683	9943.06
630.877	9734.17
631.071	9818.13
631.265	9535.51
631.459	9723.93
631.653	9709.59
631.848	9474.07
632.042	9562.14
632.236	9506.84
632.43	9314.33
632.624	9437.21
632.818	9340.96
633.012	9226.27
633.206	9220.13
633.4	9216.03
633.594	9091.1
633.788	8986.66
633.982	9140.26
634.176	9087.01
634.369	8906.79
634.563	8927.27
634.757	8773.67
634.951	8853.54
635.145	8779.81
635.339	8665.13
635.533	8765.48
635.726	8749.09
635.92	8511.53
636.114	8429.61
636.308	8491.05
636.501	8319.02
636.695	8415.27
636.889	8499.24
637.083	8216.62
637.276	8245.29
637.47	8196.14
637.664	8165.42
637.857	8118.32
638.051	8278.06
638.244	8024.11
638.438	8108.08
638.632	7970.87
638.825	7796.79
639.019	7856.18
639.212	7985.2
639.406	7837.75
639.599	7833.65
639.793	7788.6
639.986	7673.91
640.18	7618.61
640.373	7649.33
640.567	7432.25
640.76	7475.26
640.954	7411.77
641.147	7479.35
641.34	7460.92
641.534	7366.71
641.727	7467.06
641.92	7239.74
642.114	7223.36
642.307	7174.21
642.5	7108.67
642.694	6996.03
642.887	7016.51
643.08	7254.08
643.273	7026.75
643.467	6813.76
643.66	7061.57
643.853	6928.45
644.046	6824
644.239	6766.66
644.432	6801.47
644.626	6686.79
644.819	6649.93
645.012	6805.57
645.205	6740.04
645.398	6606.92
645.591	6604.87
645.784	6514.76
645.977	6369.35
646.17	6664.26
646.363	6348.87
646.556	6371.4
646.749	6318.15
646.942	6334.54
647.135	6252.62
647.328	6414.41
647.521	6295.63
647.714	6383.69
647.907	6142.03
648.099	6129.74
648.292	6078.54
648.485	6053.97
648.678	6178.89
648.871	5892.18
649.064	6111.31
649.256	6045.77
649.449	5935.18
649.642	5943.38
649.835	6025.29
650.027	5957.71
650.22	5705.81
650.413	5720.15
650.605	5701.72
650.798	5734.48
650.991	5697.62
651.183	5537.88
651.376	5683.28
651.568	5537.88
651.761	5714
651.954	5423.19
652.146	5511.25
652.339	5410.9
652.531	5494.87
652.724	5415
652.916	5255.26
653.109	5345.37
653.301	5247.07
653.494	5351.51
653.686	5328.99
653.879	5310.55
654.071	5349.47
654.263	5091.42
654.456	5159
654.648	5177.44
654.84	5058.65
655.033	5058.65
655.225	5167.2
655.417	5062.75
655.61	4960.35
655.802	5083.23
655.994	4960.35
656.186	5017.69
656.379	4997.21
656.571	4857.95
656.763	4814.95
656.955	4784.23
657.148	4751.46
657.34	4896.86
657.532	4659.3
657.724	4792.42
657.916	4661.35
658.108	4644.96
658.3	4802.66
658.492	4626.53
658.684	4450.41
658.876	4597.86
659.068	4624.48
659.26	4485.22
659.452	4649.06
659.644	4565.09
659.836	4423.78
660.028	4470.89
660.22	4278.38
660.412	4325.48
660.604	4317.29
660.796	4446.31
660.988	4345.96
661.18	4397.16
661.372	4294.76
661.563	4321.38
661.755	4233.32
661.947	4286.57
662.139	4241.51
662.331	4302.95
662.522	4100.2
662.714	4130.92
662.906	4161.64
663.097	4032.62
663.289	4110.44
663.481	4128.88
663.673	4106.35
663.864	4130.92
664.056	3950.7
664.247	3962.99
664.439	3829.87
664.631	3924.08
664.822	3956.85
665.014	3971.18
665.205	3788.91
665.397	3846.26
665.588	3854.45
665.78	4003.95
665.971	3833.97
666.163	3756.15
666.354	3821.68
666.546	3856.5
666.737	3901.55
666.929	3790.96
667.12	3684.47
667.311	3807.34
667.503	3659.89
667.694	3758.19
667.885	3600.5
668.077	3635.32
668.268	3600.5
668.459	3725.43
668.651	3747.95
668.842	3655.79
669.033	3723.38
669.224	3602.55
669.416	3641.46
669.607	3453.05
669.798	3485.81
669.989	3661.94
670.18	3504.25
670.371	3489.91
670.563	3526.77
670.754	3545.2
670.945	3561.59
671.136	3453.05
671.327	3334.26
671.518	3434.61
671.709	3680.37
671.9	3379.32
672.091	3403.89
672.282	3397.75
672.473	3238.01
672.664	3426.42
672.855	3340.41
673.046	3248.25
673.237	3399.8
673.428	3387.51
673.619	3188.86
673.809	3299.45
674	3305.59
674.191	3324.02
674.382	3217.53
674.573	3334.26
674.764	3287.16
674.954	3354.74
675.145	3274.87
675.336	3156.09
675.527	3223.67
675.717	3139.71
675.908	3188.86
676.099	3201.15
676.289	3266.68
676.48	3272.82
676.671	3213.43
676.861	3188.86
677.052	3203.19
677.243	3149.95
677.433	3139.71
677.624	3160.19
677.814	3225.72
678.005	3041.4
678.195	3252.35
678.386	3121.28
678.576	3145.85
678.767	3094.65
678.957	3188.86
679.148	3176.57
679.338	3149.95
679.529	3027.07
679.719	3090.56
679.909	3043.45
680.1	3035.26
680.29	3170.43
680.481	3203.19
680.671	3078.27
680.861	3106.94
681.052	3033.21
681.242	3086.46
681.432	3172.47
681.622	3035.26
681.813	3043.45
682.003	3108.99
682.193	3029.12
682.383	3072.12
682.573	3045.5
682.764	3020.92
682.954	3084.41
683.144	3045.5
683.334	2949.25
683.524	2943.1
683.714	3108.99
683.904	2967.68
684.094	2963.58
684.284	3006.59
684.474	3000.44
684.664	2918.53
684.854	2994.3
685.044	2998.4
685.234	2945.15
685.424	3041.4
685.614	2900.09
685.804	2887.81
685.994	3061.88
686.184	2959.49
686.374	2992.25
686.564	2857.09
686.753	3078.27
686.943	2936.96
687.133	2982.01
687.323	2873.47
687.513	2867.33
687.702	2803.84
687.892	2838.66
688.082	2920.57
688.272	2834.56
688.461	2756.74
688.651	2904.19
688.841	2789.5
689.03	2838.66
689.22	2726.02
689.41	2705.54
689.599	2783.36
689.789	2777.22
689.979	2652.29
690.168	2701.44
690.358	2779.26
690.547	2713.73
690.737	2793.6
690.926	2685.06
691.116	2695.3
691.305	2656.39
691.495	2654.34
691.684	2506.88
691.874	2734.21
692.063	2668.67
692.252	2584.71
692.442	2578.56
692.631	2568.32
692.82	2723.97
693.01	2560.13
693.199	2521.22
693.388	2480.26
693.578	2523.27
693.767	2502.79
693.956	2482.31
694.146	2435.21
694.335	2404.49
694.524	2476.16
694.713	2476.16
694.902	2498.69
695.092	2465.93
695.281	2351.24
695.47	2443.4
695.659	2449.54
695.848	2398.34
696.037	2338.95
696.226	2494.6
696.415	2472.07
696.604	2381.96
696.793	2306.18
696.982	2408.58
697.171	2402.44
697.36	2369.67
697.549	2402.44
697.738	2357.38
697.927	2449.54
698.116	2384.01
698.305	2300.04
698.494	2408.58
698.683	2338.95
698.872	2332.81
699.061	2314.38
699.25	2367.62
699.438	2361.48
699.627	2388.1
699.816	2441.35
700.005	2377.86
700.193	2437.25
700.382	2447.49
700.571	2265.22
700.76	2336.9
700.948	2400.39
701.137	2398.34
701.326	2400.39
701.514	2318.47
701.703	2214.02
701.892	2369.67
702.08	2359.43
702.269	2392.2
702.457	2384.01
702.646	2375.81
702.834	2420.87
703.023	2363.53
703.212	2406.53
703.4	2435.21
703.589	2433.16
703.777	2443.4
703.965	2283.66
704.154	2295.94
704.342	2404.49
704.531	2304.14
704.719	2318.47
704.907	2384.01
705.096	2285.7
705.284	2334.86
705.472	2381.96
705.661	2314.38
705.849	2316.42
706.037	2386.05
706.226	2422.92
706.414	2363.53
706.602	2308.23
706.79	2330.76
706.979	2365.57
707.167	2494.6
707.355	2394.25
707.543	2388.1
707.731	2392.2
707.919	2240.65
708.107	2254.98
708.296	2367.62
708.484	2355.33
708.672	2320.52
708.86	2283.66
709.048	2439.3
709.236	2281.61
709.424	2441.35
709.612	2451.59
709.8	2306.18
709.988	2310.28
710.176	2420.87
710.364	2265.22
710.551	2367.62
710.739	2326.66
710.927	2377.86
711.115	2287.75
711.303	2384.01
711.491	2289.8
711.679	2287.75
711.866	2297.99
712.054	2349.19
712.242	2326.66
712.43	2420.87
712.617	2336.9
712.805	2332.81
712.993	2427.01
713.181	2332.81
713.368	2410.63
713.556	2445.45
713.744	2318.47
713.931	2478.21
714.119	2386.05
714.306	2455.69
714.494	2338.95
714.682	2283.66
714.869	2369.67
715.057	2312.33
715.244	2437.25
715.432	2396.29
715.619	2472.07
715.807	2457.73
715.994	2377.86
716.182	2402.44
716.369	2392.2
716.556	2334.86
716.744	2379.91
716.931	2341
717.119	2457.73
717.306	2322.57
717.493	2447.49
717.681	2345.09
717.868	2392.2
718.055	2353.29
718.242	2474.12
718.43	2474.12
718.617	2433.16
718.804	2470.02
718.991	2377.86
719.179	2457.73
719.366	2416.77
719.553	2404.49
719.74	2388.1
719.927	2439.3
720.114	2472.07
720.301	2373.77
720.488	2369.67
720.676	2451.59
720.863	2422.92
721.05	2465.93
721.237	2502.79
721.424	2521.22
721.611	2457.73
721.798	2412.68
721.985	2449.54
722.172	2465.93
722.358	2441.35
722.545	2404.49
722.732	2334.86
722.919	2482.31
723.106	2451.59
723.293	2500.74
723.48	2488.45
723.667	2455.69
723.853	2427.01
724.04	2478.21
724.227	2560.13
724.414	2517.12
724.6	2486.4
724.787	2533.51
724.974	2541.7
725.161	2502.79
725.347	2457.73
725.534	2551.94
725.72	2433.16
725.907	2517.12
726.094	2564.23
726.28	2435.21
726.467	2437.25
726.653	2510.98
726.84	2467.97
727.027	2451.59
727.213	2515.08
727.4	2488.45
727.586	2470.02
727.773	2510.98
727.959	2439.3
728.145	2431.11
728.332	2527.36
728.518	2529.41
728.705	2582.66
728.891	2537.6
729.077	2629.76
729.264	2484.36
729.45	2510.98
729.636	2408.58
729.823	2592.9
730.009	2582.66
730.195	2613.38
730.382	2535.56
730.568	2418.82
730.754	2539.65
730.94	2498.69
731.126	2592.9
731.313	2582.66
731.499	2449.54
731.685	2646.15
731.871	2599.04
732.057	2592.9
732.243	2599.04
732.429	2672.77
732.615	2670.72
732.801	2683.01
732.987	2627.71
733.173	2543.75
733.359	2635.91
733.545	2580.61
733.731	2642.05
733.917	2631.81
734.103	2582.66
734.289	2506.88
734.475	2570.37
734.661	2662.53
734.847	2586.76
735.033	2553.99
735.219	2617.47
735.404	2599.04
735.59	2640
735.776	2668.67
735.962	2662.53
736.148	2652.29
736.333	2685.06
736.519	2578.56
736.705	2465.93
736.89	2656.39
737.076	2599.04
737.262	2711.68
737.447	2539.65
737.633	2592.9
737.819	2580.61
738.004	2566.28
738.19	2633.86
738.375	2531.46
738.561	2607.23
738.747	2543.75
738.932	2486.4
739.118	2461.83
739.303	2646.15
739.489	2537.6
739.674	2613.38
739.859	2508.93
740.045	2506.88
740.23	2519.17
740.416	2517.12
740.601	2590.85
740.786	2510.98
740.972	2584.71
741.157	2478.21
741.342	2441.35
741.528	2551.94
741.713	2676.87
741.898	2513.03
742.084	2490.5
742.269	2490.5
742.454	2381.96
742.639	2476.16
742.824	2420.87
743.01	2576.52
743.195	2424.97
743.38	2492.55
743.565	2482.31
743.75	2357.38
743.935	2480.26
744.12	2357.38
744.305	2449.54
744.49	2414.73
744.675	2326.66
744.86	2492.55
745.045	2414.73
745.23	2365.57
745.415	2324.62
745.6	2343.05
745.785	2336.9
745.97	2254.98
746.155	2254.98
746.34	2314.38
746.525	2295.94
746.71	2349.19
746.895	2209.93
747.079	2236.55
747.264	2310.28
747.449	2338.95
747.634	2228.36
747.819	2250.89
748.003	2177.16
748.188	2179.21
748.373	2193.55
748.557	2201.74
748.742	2097.29
748.927	2148.49
749.111	2097.29
749.296	2146.44
749.481	2179.21
749.665	2099.34
749.85	2080.91
750.034	2091.15
750.219	2115.72
750.404	2060.43
750.588	2019.47
750.773	1945.74
750.957	2087.05
751.141	2070.67
751.326	2021.52
751.51	1947.79
751.695	1894.54
751.879	1820.81
752.064	1890.45
752.248	1996.94
752.432	1990.8
752.617	1855.63
752.801	1902.73
752.985	1761.42
753.17	1890.45
753.354	1886.35
753.538	1851.53
753.722	1747.09
753.907	1790.1
754.091	1759.38
754.275	1810.58
754.459	1798.29
754.643	1781.9
754.828	1718.42
755.012	1800.34
755.196	1720.46
755.38	1740.94
755.564	1730.7
755.748	1613.97
755.932	1738.9
756.116	1622.16
756.3	1640.59
756.484	1611.92
756.668	1575.06
756.852	1628.31
757.036	1718.42
757.22	1558.67
757.404	1652.88
757.588	1566.87
757.772	1622.16
757.956	1554.58
758.14	1575.06
758.323	1581.2
758.507	1611.92
758.691	1478.8
758.875	1573.01
759.059	1437.84
759.242	1513.62
759.426	1501.33
759.61	1501.33
759.794	1497.24
759.977	1548.44
760.161	1499.28
760.345	1511.57
760.528	1372.31
760.712	1419.41
760.895	1507.48
761.079	1323.16
761.263	1380.5
761.446	1331.35
761.63	1417.37
761.813	1317.01
761.997	1368.21
762.18	1278.1
762.364	1364.12
762.547	1245.34
762.731	1278.1
762.914	1284.25
763.098	1329.3
763.281	1441.94
763.464	1280.15
763.648	1325.21
763.831	1335.45
764.015	1239.19
764.198	1329.3
764.381	1265.82
764.564	1271.96
764.748	1247.38
764.931	1259.67
765.114	1220.76
765.297	1355.93
765.481	1167.51
765.664	1233.05
765.847	1124.51
766.03	1177.75
766.213	1212.57
766.397	1134.75
766.58	1171.61
766.763	1208.47
766.946	1220.76
767.129	1198.23
767.312	1120.41
767.495	1155.23
767.678	1147.03
767.861	1202.33
768.044	1134.75
768.227	1187.99
768.41	1206.42
768.593	1140.89
768.776	1052.83
768.959	1163.42
769.142	1208.47
769.324	1042.59
769.507	1159.32
769.69	1065.11
769.873	1044.63
770.056	1050.78
770.239	1058.97
770.421	1075.35
770.604	1034.39
770.787	1134.75
770.97	1106.07
771.152	1048.73
771.335	1101.98
771.518	1036.44
771.7	1038.49
771.883	1015.96
772.066	1110.17
772.248	923.8
772.431	1112.22
772.613	975
772.796	1065.11
772.978	1003.68
773.161	1007.77
773.343	964.76
773.526	977.05
773.708	927.9
773.891	925.85
774.073	964.76
774.256	909.47
774.438	891.04
774.621	919.71
774.803	925.85
774.985	929.95
775.168	835.74
775.35	1020.06
775.532	989.34
775.715	893.09
775.897	874.65
776.079	901.28
776.261	874.65
776.444	897.18
776.626	921.76
776.808	845.98
776.99	909.47
777.173	790.69
777.355	807.07
777.537	888.99
777.719	770.21
777.901	727.2
778.083	817.31
778.265	813.21
778.447	745.63
778.629	772.25
778.811	827.55
778.993	741.54
779.175	796.83
779.357	655.52
779.539	665.76
779.721	811.17
779.903	721.06
780.085	637.09
780.267	712.86
780.449	665.76
780.631	688.29
780.812	710.82
780.994	688.29
781.176	665.76
781.358	784.54
781.54	667.81
781.721	622.75
781.903	612.51
782.085	688.29
782.267	673.95
782.448	676
782.63	600.23
782.812	663.71
782.993	651.42
783.175	663.71
783.357	610.47
783.538	655.52
783.72	698.53
783.901	577.7
784.083	583.84
784.264	635.04
784.446	555.17
784.627	639.14
784.809	602.27
784.99	565.41
785.172	608.42
785.353	530.59
785.535	540.83
785.716	598.18
785.897	544.93
786.079	569.51
786.26	628.9
786.441	538.79
786.623	506.02
786.804	573.6
786.985	463.01
787.167	506.02
787.348	465.06
787.529	399.52
787.71	583.84
787.891	555.17
788.073	518.31
788.254	549.03
788.435	604.32
788.616	499.88
788.797	485.54
788.978	446.63
789.159	469.16
789.34	569.51
789.522	561.31
789.703	420
789.884	442.53
790.065	446.63
790.246	544.93
790.427	471.2
790.607	458.92
790.788	463.01
790.969	438.44
791.15	407.72
791.331	465.06
791.512	354.47
791.693	381.09
791.874	508.07
792.054	458.92
792.235	471.2
792.416	426.15
792.597	370.85
792.778	430.24
792.958	420
793.139	454.82
793.32	397.48
793.5	372.9
793.681	395.43
793.862	432.29
794.042	381.09
794.223	356.52
794.404	299.17
794.584	450.72
794.765	368.81
794.945	395.43
795.126	315.56
795.306	364.71
795.487	354.47
795.667	381.09
795.848	305.32
796.028	391.33
796.209	354.47
796.389	430.24
796.57	352.42
796.75	360.61
796.93	290.98
797.111	409.76
797.291	393.38
797.471	317.61
797.652	315.56
797.832	325.8
798.012	368.81
798.192	252.07
798.373	299.17
798.553	280.74
798.733	385.19
798.913	307.37
799.093	180.39
799.274	258.21
799.454	284.84
799.634	348.33
799.814	270.5
799.994	264.36
800.174	381.09
800.354	325.8
800.534	295.08
800.714	327.85
800.894	235.69
801.074	274.6
801.254	317.61
801.434	264.36
801.614	284.84
801.794	340.13
801.974	667.81
802.154	344.23
802.334	321.7
802.514	262.31
802.693	258.21
802.873	274.6
803.053	284.84
803.233	272.55
803.413	315.56
803.592	213.16
803.772	250.02
803.952	282.79
804.131	333.99
804.311	243.88
804.491	307.37
804.67	311.46
804.85	288.93
805.03	209.06
805.209	213.16
805.389	217.26
805.568	303.27
805.748	323.75
805.928	221.35
806.107	235.69
806.287	329.89
806.466	241.83
806.646	284.84
806.825	315.56
807.004	243.88
807.184	284.84
807.363	250.02
807.543	286.89
807.722	227.5
807.901	284.84
808.081	227.5
808.26	266.41
808.439	295.08
808.619	241.83
808.798	278.69
808.977	147.62
809.156	274.6
809.336	272.55
809.515	172.2
809.694	215.21
809.873	229.54
810.052	256.17
810.231	237.74
810.411	264.36
810.59	252.07
810.769	233.64
810.948	190.63
811.127	213.16
811.306	166.06
811.485	182.44
811.664	235.69
811.843	153.77
812.022	192.68
812.201	202.92
812.38	200.87
812.559	198.82
812.737	225.45
812.916	178.34
813.095	196.78
813.274	245.93
813.453	217.26
813.632	243.88
813.811	303.27
813.989	274.6
814.168	215.21
814.347	250.02
814.526	204.97
814.704	198.82
814.883	207.02
815.062	260.26
815.24	237.74
815.419	227.5
815.598	202.92
815.776	270.5
815.955	176.3
816.133	168.1
816.312	227.5
816.49	227.5
816.669	137.38
816.847	233.64
817.026	209.06
817.204	137.38
817.383	217.26
817.561	159.91
817.74	200.87
817.918	219.3
818.097	161.96
818.275	178.34
818.453	73.9
818.632	180.39
818.81	209.06
818.988	202.92
819.167	227.5
819.345	127.14
819.523	254.12
819.701	133.29
819.879	192.68
820.058	155.82
820.236	190.63
820.414	112.81
820.592	174.25
820.77	161.96
820.948	127.14
821.127	192.68
821.305	159.91
821.483	188.58
821.661	209.06
821.839	143.53
822.017	188.58
822.195	112.81
822.373	118.95
822.551	69.8
822.729	135.34
822.907	123.05
823.085	153.77
823.262	151.72
823.44	186.54
823.618	121
823.796	219.3
823.974	137.38
824.152	164.01
824.329	129.19
824.507	114.86
824.685	116.9
824.863	114.86
825.04	123.05
825.218	102.57
825.396	125.1
825.574	141.48
825.751	131.24
825.929	106.67
826.107	123.05
826.284	125.1
826.462	170.15
826.639	129.19
826.817	139.43
826.994	112.81
827.172	127.14
827.349	149.67
827.527	98.47
827.704	207.02
827.882	139.43
828.059	65.71
828.237	80.04
828.414	166.06
828.591	53.42
828.769	172.2
828.946	141.48
829.124	121
829.301	82.09
829.478	110.76
829.655	149.67
829.833	82.09
830.01	114.86
830.187	94.38
830.364	73.9
830.542	141.48
830.719	143.53
830.896	157.86
831.073	82.09
831.25	129.19
831.427	114.86
831.604	125.1
831.782	39.08
831.959	121
832.136	127.14
832.313	75.95
832.49	102.57
832.667	94.38
832.844	110.76
833.021	82.09
833.198	168.1
833.374	135.34
833.551	112.81
833.728	92.33
833.905	129.19
834.082	63.66
834.259	200.87
834.436	94.38
834.612	131.24
834.789	63.66
834.966	112.81
835.143	211.11
835.319	61.61
835.496	121
835.673	133.29
835.85	127.14
836.026	88.23
836.203	139.43
836.38	61.61
836.556	30.89
836.733	153.77
836.909	106.67
837.086	139.43
837.262	49.32
837.439	37.03
837.616	127.14
837.792	84.14
837.968	110.76
838.145	34.99
838.321	88.23
838.498	59.56
838.674	80.04
838.851	77.99
839.027	100.52
839.203	37.03
839.38	43.18
839.556	41.13
839.732	80.04
839.909	86.19
840.085	65.71
840.261	37.03
840.437	47.27
840.614	37.03
840.79	77.99
840.966	34.99
841.142	63.66
841.318	71.85
841.494	137.38
841.671	116.9
841.847	80.04
842.023	45.23
842.199	94.38
842.375	61.61
842.551	47.27
842.727	75.95
842.903	112.81
843.079	39.08
843.255	102.57
843.431	73.9
843.607	65.71
843.783	77.99
843.959	159.91
844.134	82.09
844.31	121
844.486	77.99
844.662	41.13
844.838	45.23
845.013	82.09
845.189	123.05
845.365	53.42
845.541	47.27
845.716	0.17
845.892	71.85
846.068	112.81
846.244	37.03
846.419	106.67
846.595	24.75
846.77	61.61
846.946	96.43
847.122	-1.88
847.297	37.03
847.473	90.28
847.648	90.28
847.824	57.51
847.999	37.03
848.175	26.79
848.35	77.99
848.526	159.91
848.701	67.75
848.876	63.66
849.052	98.47
849.227	86.19
849.403	32.94
849.578	49.32
849.753	28.84
849.929	37.03
850.104	16.55
850.279	49.32
850.454	71.85
850.63	172.2
850.805	20.65
850.98	8.36
851.155	106.67
851.33	80.04
851.505	2.22
851.681	92.33
851.856	26.79
852.031	114.86
852.206	100.52
852.381	12.46
852.556	94.38
852.731	14.51
852.906	30.89
853.081	49.32
853.256	116.9
853.431	77.99
853.606	28.84
853.781	96.43
853.956	-3.93
854.131	112.81
854.305	-28.5
854.48	0.17
854.655	43.18
854.83	-26.45
855.005	47.27
855.18	155.82
855.354	61.61
855.529	65.71
855.704	30.89
855.879	59.56
856.053	77.99
856.228	73.9
856.403	51.37
856.577	16.55
856.752	12.46
856.926	108.71
857.101	106.67
857.276	59.56
857.45	47.27
857.625	32.94
857.799	8.36
857.974	116.9
858.148	-26.45
858.323	43.18
858.497	-22.36
858.672	73.9
858.846	24.75
859.02	-18.26
859.195	63.66
859.369	63.66
859.543	41.13
859.718	65.71
859.892	30.89
860.066	69.8
860.241	51.37
860.415	12.46
860.589	53.42
860.763	55.47
860.938	-12.12
861.112	69.8
861.286	75.95
861.46	26.79
861.634	30.89
861.808	63.66
861.982	-28.5
862.157	18.6
862.331	57.51
862.505	-1.88
862.679	51.37
862.853	39.08
863.027	53.42
863.201	57.51
863.375	6.31
863.549	6.31
863.722	73.9
863.896	6.31
864.07	10.41
864.244	96.43
864.418	37.03
864.592	20.65
864.766	43.18
864.939	39.08
865.113	10.41
865.287	26.79
865.461	77.99
865.634	57.51
865.808	-14.17
865.982	37.03
866.156	-26.45
866.329	14.51
866.503	37.03
866.676	100.52
866.85	28.84
867.024	6.31
867.197	22.7
867.371	4.27
867.544	98.47
867.718	-1.88
867.891	59.56
868.065	45.23
868.238	34.99
868.412	37.03
868.585	18.6
868.759	77.99
868.932	16.55
869.105	37.03
869.279	-32.6
869.452	12.46
869.625	12.46
869.799	59.56
869.972	34.99
870.145	-1.88
870.319	53.42
870.492	10.41
870.665	-5.97
870.838	-8.02
871.011	20.65
871.185	18.6
871.358	26.79
871.531	75.95
871.704	32.94
871.877	39.08
872.05	28.84
872.223	71.85
872.396	22.7
872.569	24.75
872.742	-34.64
872.915	69.8
873.088	-3.93
873.261	65.71
873.434	73.9
873.607	-14.17
873.78	49.32
873.953	75.95
874.126	88.23
874.299	59.56
874.471	61.61
874.644	53.42
874.817	39.08
874.99	47.27
875.163	43.18
875.335	-20.31
875.508	37.03
875.681	73.9
875.853	-26.45
876.026	37.03
876.199	-5.97
876.371	-32.6
876.544	34.99
876.717	69.8
876.889	67.75
877.062	6.31
877.234	-65.36
877.407	8.36
877.579	18.6
877.752	10.41
877.924	34.99
878.097	16.55
878.269	4.27
878.442	45.23
878.614	90.28
878.786	24.75
878.959	94.38
879.131	0.17
879.303	20.65
879.476	20.65
879.648	-22.36
879.82	32.94
879.993	32.94
880.165	-48.98
880.337	32.94
880.509	14.51
880.681	4.27
880.854	45.23
881.026	-42.84
881.198	92.33
881.37	47.27
881.542	63.66
881.714	2.22
881.886	22.7
882.058	28.84
882.23	20.65
882.402	-38.74
882.574	12.46
882.746	49.32
882.918	24.75
883.09	12.46
883.262	57.51
883.434	55.47
883.606	2.22
883.778	41.13
883.95	10.41
884.122	16.55
884.293	110.76
884.465	16.55
884.637	71.85
884.809	-42.84
884.98	28.84
885.152	47.27
885.324	0.17
885.496	53.42
885.667	12.46
885.839	-61.27
886.011	37.03
886.182	-1.88
886.354	0.17
886.525	43.18
886.697	20.65
886.869	32.94
887.04	18.6
887.212	-1.88
887.383	-30.55
887.555	26.79
887.726	49.32
887.897	26.79
888.069	41.13
888.24	32.94
888.412	88.23
888.583	-14.17
888.754	59.56
888.926	4.27
889.097	26.79
889.268	30.89
889.44	26.79
889.611	-26.45
889.782	77.99
889.953	-28.5
890.125	37.03
890.296	18.6
890.467	-10.07
890.638	8.36
890.809	-18.26
890.98	0.17
891.151	96.43
891.323	8.36
891.494	28.84
891.665	37.03
891.836	-20.31
892.007	-14.17
892.178	90.28
892.349	57.51
892.52	-63.32
892.691	-12.12
892.862	28.84
893.032	26.79
893.203	32.94
893.374	53.42
893.545	-1.88
893.716	34.99
893.887	104.62
894.057	-44.88
894.228	51.37
894.399	41.13
894.57	61.61
894.74	14.51
894.911	-10.07
895.082	-8.02
895.253	86.19
895.423	51.37
895.594	53.42
895.764	59.56
895.935	12.46
896.106	-10.07
896.276	20.65
896.447	-3.93
896.617	12.46
896.788	10.41
896.958	41.13
897.129	43.18
897.299	18.6
897.47	71.85
897.64	12.46
897.81	37.03
897.981	6.31
898.151	16.55
898.322	65.71
898.492	43.18
898.662	-28.5
898.832	92.33
899.003	16.55
899.173	39.08
899.343	-26.45
899.513	-30.55
