Data from USB4F104151__39__11-44-58-491.txt Node

Date: Fri Mar 14 11:44:58 EDT 2025
User: louis
Spectrometer: USB4F10415
Trigger mode: 4
Integration Time (sec): 2.000000E-2
Scans to average: 1
Electric dark correction enabled: true
Nonlinearity correction enabled: false
Boxcar width: 0
XAxis mode: Wavelengths
Number of Pixels in Spectrum: 3648
>>>>>Begin Spectral Data<<<<<
178.204	-103.76
178.424	-103.76
178.644	-103.76
178.864	-71
179.084	-68.95
179.304	12.97
179.524	12.97
179.744	-13.65
179.964	37.55
180.184	-56.66
180.404	58.03
180.624	6.83
180.844	41.64
181.064	-1.37
181.283	-38.23
181.503	-36.18
181.723	-23.89
181.943	-60.76
182.163	35.5
182.383	45.74
182.602	43.69
182.822	21.16
183.042	-1.37
183.262	-30.04
183.482	-17.75
183.701	-56.66
183.921	74.41
184.141	-9.56
184.361	29.35
184.58	66.22
184.8	12.97
185.02	31.4
185.239	-27.99
185.459	21.16
185.679	6.83
185.898	-38.23
186.118	-23.89
186.338	4.78
186.557	-9.56
186.777	-54.61
186.997	-58.71
187.216	8.87
187.436	39.59
187.655	47.79
187.875	92.84
188.095	-25.94
188.314	29.35
188.534	60.07
188.753	-36.18
188.973	12.97
189.192	90.79
189.412	29.35
189.631	62.12
189.851	33.45
190.07	105.13
190.29	-52.56
190.509	41.64
190.729	12.97
190.948	60.07
191.168	92.84
191.387	74.41
191.607	-42.32
191.826	-38.23
192.045	-77.14
192.265	0.68
192.484	-81.24
192.704	-1.37
192.923	-60.76
193.142	-1.37
193.362	47.79
193.581	31.4
193.8	-50.52
194.02	74.41
194.239	33.45
194.458	0.68
194.678	-13.65
194.897	-17.75
195.116	-7.51
195.335	-17.75
195.555	0.68
195.774	-97.62
195.993	41.64
196.212	45.74
196.432	21.16
196.651	-17.75
196.87	49.83
197.089	17.07
197.308	6.83
197.528	21.16
197.747	-50.52
197.966	23.21
198.185	31.4
198.404	-3.41
198.623	51.88
198.842	58.03
199.062	33.45
199.281	-19.8
199.5	-19.8
199.719	-5.46
199.938	39.59
200.157	15.02
200.376	21.16
200.595	74.41
200.814	29.35
201.033	49.83
201.252	-44.37
201.471	-23.89
201.69	23.21
201.909	37.55
202.128	25.26
202.347	31.4
202.566	72.36
202.785	-5.46
203.004	-23.89
203.223	15.02
203.442	-7.51
203.661	2.73
203.879	33.45
204.098	-46.42
204.317	-17.75
204.536	60.07
204.755	39.59
204.974	2.73
205.193	68.27
205.411	4.78
205.63	90.79
205.849	33.45
206.068	8.87
206.287	15.02
206.505	-32.08
206.724	-34.13
206.943	-30.04
207.162	31.4
207.381	49.83
207.599	58.03
207.818	35.5
208.037	19.11
208.255	-42.32
208.474	60.07
208.693	15.02
208.911	-23.89
209.13	10.92
209.349	-40.28
209.567	66.22
209.786	17.07
210.005	-17.75
210.223	8.87
210.442	-50.52
210.661	17.07
210.879	-19.8
211.098	27.31
211.316	-32.08
211.535	29.35
211.753	27.31
211.972	-27.99
212.191	51.88
212.409	2.73
212.628	17.07
212.846	19.11
213.065	82.6
213.283	35.5
213.502	51.88
213.72	66.22
213.938	-3.41
214.157	27.31
214.375	-17.75
214.594	72.36
214.812	43.69
215.031	-27.99
215.249	-3.41
215.467	-3.41
215.686	12.97
215.904	96.94
216.122	4.78
216.341	43.69
216.559	41.64
216.778	23.21
216.996	66.22
217.214	37.55
217.432	8.87
217.651	39.59
217.869	-9.56
218.087	58.03
218.306	8.87
218.524	33.45
218.742	29.35
218.96	51.88
219.179	123.56
219.397	-19.8
219.615	45.74
219.833	27.31
220.051	17.07
220.27	35.5
220.488	62.12
220.706	2.73
220.924	-9.56
221.142	55.98
221.36	-7.51
221.578	-38.23
221.796	41.64
222.015	74.41
222.233	45.74
222.451	49.83
222.669	-25.94
222.887	-3.41
223.105	33.45
223.323	6.83
223.541	4.78
223.759	-7.51
223.977	-1.37
224.195	-11.61
224.413	62.12
224.631	-13.65
224.849	-38.23
225.067	66.22
225.285	23.21
225.503	39.59
225.721	-40.28
225.939	82.6
226.157	-13.65
226.375	35.5
226.592	-3.41
226.81	-15.7
227.028	4.78
227.246	17.07
227.464	-23.89
227.682	-13.65
227.9	62.12
228.117	47.79
228.335	-3.41
228.553	-38.23
228.771	-21.84
228.989	8.87
229.206	27.31
229.424	53.93
229.642	43.69
229.86	115.37
230.077	-9.56
230.295	-7.51
230.513	-54.61
230.731	-5.46
230.948	-15.7
231.166	47.79
231.384	12.97
231.601	-44.37
231.819	39.59
232.037	-32.08
232.254	31.4
232.472	12.97
232.689	86.7
232.907	-3.41
233.125	119.46
233.342	17.07
233.56	-7.51
233.777	58.03
233.995	-5.46
234.213	-19.8
234.43	2.73
234.648	39.59
234.865	-58.71
235.083	6.83
235.3	39.59
235.518	70.31
235.735	41.64
235.953	49.83
236.17	15.02
236.388	6.83
236.605	-7.51
236.822	-13.65
237.04	-50.52
237.257	-23.89
237.475	90.79
237.692	35.5
237.909	31.4
238.127	-89.43
238.344	55.98
238.562	10.92
238.779	8.87
238.996	4.78
239.214	35.5
239.431	45.74
239.648	17.07
239.865	8.87
240.083	6.83
240.3	-7.51
240.517	-38.23
240.735	-3.41
240.952	58.03
241.169	21.16
241.386	6.83
241.603	92.84
241.821	-34.13
242.038	60.07
242.255	-7.51
242.472	0.68
242.689	88.75
242.907	12.97
243.124	-32.08
243.341	76.46
243.558	-11.61
243.775	17.07
243.992	-17.75
244.209	119.46
244.426	70.31
244.643	33.45
244.86	-23.89
245.078	70.31
245.295	29.35
245.512	41.64
245.729	6.83
245.946	15.02
246.163	55.98
246.38	0.68
246.597	51.88
246.814	58.03
247.031	92.84
247.248	-5.46
247.464	19.11
247.681	-3.41
247.898	23.21
248.115	-11.61
248.332	19.11
248.549	47.79
248.766	123.56
248.983	88.75
249.2	35.5
249.417	49.83
249.633	27.31
249.85	-38.23
250.067	-46.42
250.284	43.69
250.501	76.46
250.717	90.79
250.934	-62.8
251.151	60.07
251.368	15.02
251.585	78.51
251.801	-32.08
252.018	-36.18
252.235	-11.61
252.451	6.83
252.668	-134.48
252.885	41.64
253.102	17.07
253.318	37.55
253.535	27.31
253.752	51.88
253.968	-5.46
254.185	51.88
254.401	19.11
254.618	31.4
254.835	27.31
255.051	72.36
255.268	-25.94
255.484	-5.46
255.701	92.84
255.917	-34.13
256.134	-5.46
256.351	2.73
256.567	6.83
256.784	10.92
257	-48.47
257.217	33.45
257.433	96.94
257.65	25.26
257.866	82.6
258.082	-34.13
258.299	37.55
258.515	25.26
258.732	-15.7
258.948	53.93
259.165	4.78
259.381	-17.75
259.597	-15.7
259.814	15.02
260.03	29.35
260.246	25.26
260.463	-114
260.679	12.97
260.895	17.07
261.112	45.74
261.328	33.45
261.544	-21.84
261.761	29.35
261.977	25.26
262.193	-5.46
262.409	-32.08
262.626	-21.84
262.842	66.22
263.058	-9.56
263.274	17.07
263.49	23.21
263.707	19.11
263.923	-11.61
264.139	-60.76
264.355	31.4
264.571	8.87
264.787	51.88
265.004	31.4
265.22	-3.41
265.436	0.68
265.652	4.78
265.868	51.88
266.084	-1.37
266.3	25.26
266.516	8.87
266.732	25.26
266.948	-15.7
267.164	53.93
267.38	12.97
267.596	35.5
267.812	64.17
268.028	2.73
268.244	-3.41
268.46	-19.8
268.676	-42.32
268.892	-32.08
269.108	-34.13
269.324	29.35
269.54	25.26
269.756	6.83
269.972	-25.94
270.188	-23.89
270.403	23.21
270.619	-27.99
270.835	47.79
271.051	84.65
271.267	-11.61
271.483	-34.13
271.698	19.11
271.914	55.98
272.13	-1.37
272.346	53.93
272.562	-23.89
272.777	31.4
272.993	39.59
273.209	-1.37
273.425	78.51
273.64	33.45
273.856	33.45
274.072	-30.04
274.287	-48.47
274.503	60.07
274.719	-40.28
274.934	41.64
275.15	-48.47
275.366	35.5
275.581	-32.08
275.797	121.51
276.012	47.79
276.228	-19.8
276.444	33.45
276.659	-5.46
276.875	29.35
277.09	60.07
277.306	113.32
277.521	6.83
277.737	60.07
277.952	60.07
278.168	-5.46
278.383	125.61
278.599	29.35
278.814	62.12
279.03	39.59
279.245	105.13
279.461	53.93
279.676	78.51
279.892	-54.61
280.107	-40.28
280.322	60.07
280.538	-3.41
280.753	96.94
280.969	6.83
281.184	55.98
281.399	37.55
281.615	25.26
281.83	53.93
282.045	-9.56
282.26	-11.61
282.476	17.07
282.691	-7.51
282.906	-48.47
283.122	25.26
283.337	66.22
283.552	25.26
283.767	-34.13
283.983	43.69
284.198	21.16
284.413	35.5
284.628	-19.8
284.843	-44.37
285.058	41.64
285.274	76.46
285.489	15.02
285.704	-9.56
285.919	25.26
286.134	-7.51
286.349	-13.65
286.564	33.45
286.779	-40.28
286.995	39.59
287.21	41.64
287.425	51.88
287.64	37.55
287.855	-15.7
288.07	4.78
288.285	37.55
288.5	15.02
288.715	17.07
288.93	21.16
289.145	66.22
289.36	68.27
289.575	33.45
289.79	58.03
290.004	-1.37
290.219	21.16
290.434	-9.56
290.649	51.88
290.864	-21.84
291.079	45.74
291.294	47.79
291.509	4.78
291.724	15.02
291.938	0.68
292.153	33.45
292.368	68.27
292.583	66.22
292.798	109.23
293.012	-9.56
293.227	6.83
293.442	-17.75
293.657	23.21
293.871	-27.99
294.086	41.64
294.301	53.93
294.516	10.92
294.73	-21.84
294.945	-7.51
295.16	33.45
295.374	33.45
295.589	70.31
295.804	-25.94
296.018	33.45
296.233	62.12
296.447	19.11
296.662	-38.23
296.877	82.6
297.091	0.68
297.306	88.75
297.52	70.31
297.735	8.87
297.949	-15.7
298.164	-13.65
298.378	58.03
298.593	-3.41
298.807	58.03
299.022	33.45
299.236	0.68
299.451	-9.56
299.665	25.26
299.88	103.08
300.094	49.83
300.309	31.4
300.523	-38.23
300.737	39.59
300.952	43.69
301.166	92.84
301.381	8.87
301.595	35.5
301.809	51.88
302.024	8.87
302.238	58.03
302.452	35.5
302.667	-23.89
302.881	92.84
303.095	31.4
303.309	19.11
303.524	-27.99
303.738	12.97
303.952	47.79
304.166	47.79
304.381	-32.08
304.595	-42.32
304.809	-3.41
305.023	-5.46
305.237	25.26
305.452	25.26
305.666	-27.99
305.88	-48.47
306.094	19.11
306.308	96.94
306.522	94.89
306.736	27.31
306.95	55.98
307.164	17.07
307.379	53.93
307.593	60.07
307.807	29.35
308.021	53.93
308.235	80.55
308.449	37.55
308.663	-3.41
308.877	-9.56
309.091	51.88
309.305	133.8
309.519	39.59
309.733	27.31
309.947	-23.89
310.161	4.78
310.374	27.31
310.588	55.98
310.802	45.74
311.016	17.07
311.23	27.31
311.444	29.35
311.658	-15.7
311.872	66.22
312.085	82.6
312.299	103.08
312.513	31.4
312.727	33.45
312.941	-21.84
313.154	19.11
313.368	41.64
313.582	51.88
313.796	-17.75
314.009	-5.46
314.223	76.46
314.437	35.5
314.651	-17.75
314.864	-17.75
315.078	-64.85
315.292	-21.84
315.505	29.35
315.719	4.78
315.933	62.12
316.146	62.12
316.36	90.79
316.573	115.37
316.787	21.16
317.001	47.79
317.214	-36.18
317.428	6.83
317.641	39.59
317.855	-7.51
318.068	-1.37
318.282	17.07
318.495	-5.46
318.709	29.35
318.922	78.51
319.136	10.92
319.349	115.37
319.563	-30.04
319.776	-7.51
319.99	27.31
320.203	41.64
320.417	39.59
320.63	29.35
320.843	2.73
321.057	12.97
321.27	-5.46
321.483	-3.41
321.697	121.51
321.91	72.36
322.124	15.02
322.337	55.98
322.55	49.83
322.763	45.74
322.977	6.83
323.19	-56.66
323.403	35.5
323.617	109.23
323.83	90.79
324.043	15.02
324.256	39.59
324.469	31.4
324.683	55.98
324.896	90.79
325.109	80.55
325.322	-11.61
325.535	62.12
325.748	-32.08
325.962	-34.13
326.175	-1.37
326.388	96.94
326.601	31.4
326.814	47.79
327.027	-7.51
327.24	23.21
327.453	-52.56
327.666	84.65
327.879	6.83
328.092	21.16
328.305	4.78
328.518	21.16
328.731	31.4
328.944	-34.13
329.157	31.4
329.37	43.69
329.583	23.21
329.796	25.26
330.009	43.69
330.222	29.35
330.435	8.87
330.648	49.83
330.861	35.5
331.073	49.83
331.286	-11.61
331.499	-9.56
331.712	58.03
331.925	43.69
332.138	-40.28
332.35	4.78
332.563	66.22
332.776	49.83
332.989	-13.65
333.202	39.59
333.414	-36.18
333.627	-1.37
333.84	12.97
334.053	29.35
334.265	76.46
334.478	68.27
334.691	31.4
334.903	62.12
335.116	0.68
335.329	-60.76
335.541	33.45
335.754	15.02
335.966	53.93
336.179	88.75
336.392	-30.04
336.604	51.88
336.817	39.59
337.029	0.68
337.242	-19.8
337.454	35.5
337.667	4.78
337.88	23.21
338.092	60.07
338.305	27.31
338.517	-42.32
338.729	58.03
338.942	33.45
339.154	-9.56
339.367	-9.56
339.579	51.88
339.792	4.78
340.004	8.87
340.217	-23.89
340.429	31.4
340.641	72.36
340.854	-27.99
341.066	25.26
341.278	62.12
341.491	-7.51
341.703	37.55
341.915	19.11
342.128	17.07
342.34	-7.51
342.552	-21.84
342.764	-3.41
342.977	-13.65
343.189	8.87
343.401	25.26
343.613	45.74
343.826	19.11
344.038	-27.99
344.25	-21.84
344.462	68.27
344.674	74.41
344.886	-68.95
345.099	43.69
345.311	8.87
345.523	39.59
345.735	62.12
345.947	25.26
346.159	64.17
346.371	-3.41
346.583	25.26
346.795	-3.41
347.007	8.87
347.219	49.83
347.431	-9.56
347.643	74.41
347.855	37.55
348.067	37.55
348.279	-27.99
348.491	66.22
348.703	0.68
348.915	19.11
349.127	23.21
349.339	80.55
349.551	15.02
349.763	49.83
349.975	82.6
350.187	27.31
350.399	23.21
350.61	72.36
350.822	-9.56
351.034	33.45
351.246	55.98
351.458	49.83
351.669	58.03
351.881	-11.61
352.093	70.31
352.305	68.27
352.517	17.07
352.728	29.35
352.94	-3.41
353.152	23.21
353.363	2.73
353.575	33.45
353.787	2.73
353.999	58.03
354.21	-7.51
354.422	64.17
354.633	17.07
354.845	58.03
355.057	25.26
355.268	-30.04
355.48	41.64
355.692	17.07
355.903	-9.56
356.115	12.97
356.326	4.78
356.538	-7.51
356.749	33.45
356.961	58.03
357.172	39.59
357.384	-25.94
357.595	86.7
357.807	4.78
358.018	-17.75
358.23	15.02
358.441	107.18
358.653	-7.51
358.864	6.83
359.075	51.88
359.287	53.93
359.498	80.55
359.709	23.21
359.921	8.87
360.132	-1.37
360.344	12.97
360.555	58.03
360.766	86.7
360.977	0.68
361.189	23.21
361.4	31.4
361.611	74.41
361.823	8.87
362.034	51.88
362.245	68.27
362.456	25.26
362.667	47.79
362.879	19.11
363.09	101.03
363.301	66.22
363.512	41.64
363.723	78.51
363.935	-50.52
364.146	2.73
364.357	101.03
364.568	76.46
364.779	-36.18
364.99	68.27
365.201	25.26
365.412	47.79
365.623	-21.84
365.834	35.5
366.045	33.45
366.256	-25.94
366.467	27.31
366.678	47.79
366.889	90.79
367.1	33.45
367.311	41.64
367.522	15.02
367.733	53.93
367.944	105.13
368.155	-11.61
368.366	105.13
368.577	103.08
368.788	133.8
368.999	-3.41
369.209	17.07
369.42	96.94
369.631	107.18
369.842	53.93
370.053	70.31
370.264	17.07
370.474	-50.52
370.685	41.64
370.896	84.65
371.107	31.4
371.317	19.11
371.528	70.31
371.739	31.4
371.95	12.97
372.16	66.22
372.371	10.92
372.582	2.73
372.792	101.03
373.003	43.69
373.214	37.55
373.424	41.64
373.635	33.45
373.846	82.6
374.056	-3.41
374.267	62.12
374.477	88.75
374.688	53.93
374.898	23.21
375.109	41.64
375.319	-32.08
375.53	29.35
375.74	129.7
375.951	37.55
376.161	15.02
376.372	58.03
376.582	25.26
376.793	15.02
377.003	17.07
377.214	19.11
377.424	-9.56
377.635	8.87
377.845	70.31
378.055	82.6
378.266	-32.08
378.476	19.11
378.686	41.64
378.897	-17.75
379.107	74.41
379.317	160.42
379.528	15.02
379.738	10.92
379.948	49.83
380.158	62.12
380.369	47.79
380.579	-1.37
380.789	15.02
380.999	47.79
381.21	-7.51
381.42	21.16
381.63	31.4
381.84	62.12
382.05	-25.94
382.261	47.79
382.471	62.12
382.681	23.21
382.891	12.97
383.101	-5.46
383.311	53.93
383.521	72.36
383.731	39.59
383.941	41.64
384.151	-36.18
384.361	-23.89
384.571	-30.04
384.781	23.21
384.991	60.07
385.201	98.99
385.411	45.74
385.621	43.69
385.831	-7.51
386.041	62.12
386.251	64.17
386.461	51.88
386.671	-11.61
386.881	-9.56
387.091	10.92
387.301	10.92
387.511	66.22
387.72	88.75
387.93	29.35
388.14	2.73
388.35	19.11
388.56	41.64
388.769	103.08
388.979	31.4
389.189	8.87
389.399	27.31
389.609	31.4
389.818	45.74
390.028	94.89
390.238	88.75
390.447	27.31
390.657	60.07
390.867	-19.8
391.076	58.03
391.286	23.21
391.496	72.36
391.705	49.83
391.915	37.55
392.125	49.83
392.334	27.31
392.544	84.65
392.753	55.98
392.963	33.45
393.172	86.7
393.382	-48.47
393.591	86.7
393.801	17.07
394.01	144.04
394.22	86.7
394.429	31.4
394.639	123.56
394.848	29.35
395.058	53.93
395.267	53.93
395.477	39.59
395.686	64.17
395.895	60.07
396.105	103.08
396.314	37.55
396.524	90.79
396.733	41.64
396.942	62.12
397.152	60.07
397.361	146.09
397.57	55.98
397.78	76.46
397.989	152.23
398.198	133.8
398.407	35.5
398.617	2.73
398.826	92.84
399.035	2.73
399.244	94.89
399.453	103.08
399.663	88.75
399.872	107.18
400.081	101.03
400.29	101.03
400.499	43.69
400.708	154.28
400.917	58.03
401.127	74.41
401.336	4.78
401.545	64.17
401.754	135.85
401.963	103.08
402.172	127.66
402.381	162.47
402.59	72.36
402.799	47.79
403.008	84.65
403.217	103.08
403.426	176.81
403.635	47.79
403.844	109.23
404.053	152.23
404.262	115.37
404.471	135.85
404.68	66.22
404.888	94.89
405.097	101.03
405.306	45.74
405.515	117.42
405.724	150.18
405.933	98.99
406.142	158.38
406.35	162.47
406.559	164.52
406.768	103.08
406.977	221.86
407.185	170.66
407.394	221.86
407.603	115.37
407.812	185
408.02	211.62
408.229	195.24
408.438	230.06
408.646	176.81
408.855	228.01
409.064	209.58
409.272	248.49
409.481	258.73
409.69	197.29
409.898	262.82
410.107	299.69
410.315	268.97
410.524	242.34
410.733	307.88
410.941	238.25
411.15	275.11
411.358	291.49
411.567	369.32
411.775	238.25
411.984	324.26
412.192	369.32
412.401	447.14
412.609	361.13
412.818	402.08
413.026	377.51
413.234	414.37
413.443	451.24
413.651	479.91
413.86	486.05
414.068	574.11
414.276	461.48
414.485	594.59
414.693	561.83
414.901	602.79
415.11	641.7
415.318	662.18
415.526	574.11
415.734	656.03
415.943	703.14
416.151	711.33
416.359	688.8
416.567	715.42
416.776	729.76
416.984	772.77
417.192	832.16
417.4	914.08
417.608	871.07
417.817	836.25
418.025	959.13
418.233	971.42
418.441	891.55
418.649	1012.38
418.857	1129.11
419.065	1168.02
419.273	1061.53
419.481	1122.97
419.689	1241.75
419.897	1247.9
420.105	1186.46
420.313	1335.96
420.521	1434.26
420.729	1385.11
420.937	1446.55
421.145	1507.99
421.353	1526.42
421.561	1614.48
421.769	1665.68
421.977	1768.08
422.185	1770.13
422.393	1825.42
422.601	1942.16
422.809	1997.45
423.017	1903.25
423.224	2056.84
423.432	2048.65
423.64	2085.51
423.848	2361.99
424.056	2347.65
424.263	2435.72
424.471	2435.72
424.679	2536.07
424.887	2570.88
425.094	2671.23
425.302	2660.99
425.51	2888.32
425.718	2890.37
425.925	2828.93
426.133	3033.72
426.341	3265.14
426.548	3353.21
426.756	3400.31
426.964	3406.45
427.171	3555.96
427.379	3723.89
427.586	3740.27
427.794	3971.69
428.001	4014.7
428.209	4160.11
428.417	4176.49
428.624	4561.51
428.832	4383.34
429.039	4436.58
429.247	4483.69
429.454	4944.48
429.662	5149.28
429.869	4887.14
430.076	5165.66
430.284	5143.13
430.491	5159.52
430.699	5630.55
430.906	5565.01
431.114	5696.08
431.321	5859.92
431.528	5939.79
431.736	6408.78
431.943	6736.45
432.15	6392.39
432.358	6349.39
432.565	7074.37
432.772	6836.8
432.979	7223.87
433.187	7268.92
433.394	7371.32
433.601	7909.94
433.808	7930.42
434.016	8008.24
434.223	8170.03
434.43	8815.14
434.637	8557.1
434.844	8946.21
435.052	9257.5
435.259	9171.49
435.466	9200.16
435.673	9232.93
435.88	9808.41
436.087	10402.32
436.294	10170.9
436.501	9837.08
436.708	10148.37
436.915	10648.07
437.122	11133.44
437.329	11016.71
437.537	11409.92
437.743	11702.78
437.95	11377.15
438.157	12022.26
438.364	12478.96
438.571	12300.78
438.778	12702.18
438.985	13693.4
439.192	13234.66
439.399	13480.41
439.606	13263.33
439.813	13994.45
440.02	14660.04
440.227	14475.73
440.433	14500.3
440.64	14875.08
440.847	14817.74
441.054	15102.4
441.261	15956.41
441.467	16058.81
441.674	16089.53
441.881	16970.15
442.088	16875.95
442.294	16638.38
442.501	17113.51
442.708	17760.67
442.914	18037.14
443.121	19134.85
443.328	18508.18
443.534	19870.08
443.741	19229.06
443.948	19173.77
444.154	20412.79
444.361	20007.29
444.568	20418.93
444.774	20488.56
444.981	20504.95
445.187	21176.68
445.394	22118.75
445.6	21594.47
445.807	23810.37
446.013	22997.32
446.22	23288.14
446.426	24062.27
446.633	24408.37
446.839	25205.03
447.046	24226.1
447.252	25454.89
447.459	25671.97
447.665	25606.44
447.871	26702.1
448.078	27283.72
448.284	26347.8
448.491	27242.76
448.697	28020.99
448.903	28508.41
449.11	28772.6
449.316	28248.32
449.522	28670.2
449.728	29343.98
449.935	29905.12
450.141	30007.52
450.347	30515.42
450.553	29360.36
450.76	29671.65
450.966	30951.63
451.172	30908.63
451.378	31058.13
451.584	30660.82
451.791	31486.15
451.997	31123.66
452.203	32053.44
452.409	32114.88
452.615	31639.75
452.821	30535.9
453.027	29989.09
453.233	31785.16
453.44	30613.72
453.646	30761.17
453.852	30974.16
454.058	31588.55
454.264	30660.82
454.47	31289.55
454.676	30134.49
454.882	31420.62
455.088	28670.2
455.294	29016.3
455.5	29389.03
455.705	30044.38
455.911	28463.35
456.117	28168.44
456.323	27797.76
456.529	26556.69
456.735	27599.11
456.941	26790.16
457.147	26351.9
457.352	25512.23
457.558	25055.53
457.764	25073.96
457.97	25010.48
458.176	24176.95
458.381	24062.27
458.587	22753.62
458.793	22929.74
458.999	21832.03
459.204	23554.37
459.41	22710.61
459.616	21031.27
459.821	21277.03
460.027	21150.06
460.233	20746.61
460.438	19413.38
460.644	20040.06
460.85	18971.02
461.055	18721.17
461.261	18770.32
461.466	17172.9
461.672	16542.13
461.878	17738.14
462.083	16804.27
462.289	16306.61
462.494	16404.91
462.7	15788.47
462.905	15311.3
463.111	15456.7
463.316	15751.61
463.522	15333.82
463.727	15448.51
463.932	15260.1
464.138	15108.55
464.343	15327.68
464.549	14846.41
464.754	15272.39
464.959	15290.82
465.165	15063.49
465.37	14244.31
465.575	14207.44
465.781	14772.68
465.986	14801.35
466.191	14197.2
466.397	13867.48
466.602	13228.51
466.807	13701.59
467.012	13756.89
467.218	13482.46
467.423	13531.61
467.628	13646.3
467.833	14205.39
468.038	13414.88
468.244	13167.07
468.449	13791.7
468.654	13320.67
468.859	13220.32
469.064	13185.51
469.269	12485.1
469.474	12653.03
469.679	13031.91
469.885	12747.24
470.09	12868.07
470.295	12624.36
470.5	12206.58
470.705	12306.93
470.91	12440.04
471.115	12042.74
471.32	12257.78
471.525	12241.39
471.73	11887.09
471.935	11694.58
472.139	11393.53
472.344	11463.16
472.549	11389.44
472.754	11467.26
472.959	10848.77
473.164	10807.81
473.369	10781.19
473.574	11248.13
473.778	11063.81
473.983	10785.29
474.188	10828.29
474.393	10342.92
474.598	10443.28
474.802	10328.59
475.007	10146.32
475.212	10162.7
475.417	9785.88
475.621	9996.82
475.826	9927.19
476.031	9777.69
476.235	9558.55
476.44	9728.53
476.645	9521.69
476.849	9527.83
477.054	9456.15
477.259	9165.34
477.463	9320.99
477.668	8983.07
477.872	9097.76
478.077	8870.44
478.282	8553
478.486	8784.42
478.691	8540.71
478.895	8542.76
479.1	8612.39
479.304	8729.13
479.509	8057.39
479.713	8522.28
479.918	8131.12
480.122	8043.06
480.326	8174.13
480.531	8276.52
480.735	8090.16
480.94	7995.95
481.144	8452.65
481.348	7887.41
481.553	7957.04
481.757	7782.96
481.961	8090.16
482.166	8088.11
482.37	7871.03
482.574	7785.01
482.778	7877.17
482.983	8010.29
483.187	8061.49
483.391	8047.15
483.595	7905.84
483.8	7762.48
484.004	7954.99
484.208	7873.07
484.412	7916.08
484.616	7899.7
484.821	7868.98
485.025	7733.81
485.229	7864.88
485.433	7905.84
485.637	8002.1
485.841	7920.18
486.045	7832.12
486.249	7727.67
486.453	7778.87
486.657	7825.97
486.861	7850.55
487.065	7678.52
487.269	7985.71
487.473	7725.62
487.677	7875.12
487.881	8067.63
488.085	7840.31
488.289	7830.07
488.493	7719.48
488.697	7811.64
488.901	7995.95
489.105	7895.6
489.309	7868.98
489.512	7975.47
489.716	8045.1
489.92	8049.2
490.124	7924.27
490.328	8104.5
490.531	8139.31
490.735	8069.68
490.939	8038.96
491.143	7895.6
491.346	8084.02
491.55	8202.8
491.754	8112.69
491.958	8264.24
492.161	8333.87
492.365	8262.19
492.569	8159.79
492.772	8399.4
492.976	8282.67
493.18	8356.4
493.383	8395.31
493.587	8426.03
493.79	8548.9
493.994	8380.97
494.197	8614.44
494.401	8696.36
494.605	8550.95
494.808	8821.28
495.012	8827.43
495.215	8729.13
495.419	9036.32
495.622	8978.98
495.825	9028.13
496.029	9130.53
496.232	9368.09
496.436	9148.96
496.639	9466.39
496.843	9396.76
497.046	9667.1
497.249	9703.96
497.453	9787.93
497.656	9734.68
497.859	9937.43
498.063	9919
498.266	10328.59
498.469	10205.71
498.673	10330.64
498.876	10377.74
499.079	10324.49
499.282	10394.12
499.485	10682.89
499.689	10881.54
499.892	10897.92
500.095	11020.8
500.298	11227.65
500.501	11131.39
500.705	11399.68
500.908	11518.46
501.111	11659.77
501.314	11764.22
501.517	11868.66
501.72	12214.77
501.923	12005.88
502.126	12288.5
502.329	12302.83
502.532	12413.42
502.735	12663.27
502.938	12702.18
503.141	12880.36
503.344	12890.6
503.547	13031.91
503.75	13115.87
503.953	13447.65
504.156	13556.19
504.359	13777.37
504.562	13986.26
504.765	13881.81
504.968	14203.35
505.17	14209.49
505.373	14404.05
505.576	14606.8
505.779	14666.19
505.982	14698.95
506.185	15239.62
506.387	15212.99
506.59	15094.21
506.793	15690.17
506.996	15552.96
507.198	15923.64
507.401	15888.82
507.604	16130.48
507.807	16320.95
508.009	16267.7
508.212	16562.61
508.415	16681.39
508.617	16783.79
508.82	17056.17
509.022	17107.37
509.225	17492.38
509.428	17584.54
509.63	17414.56
509.833	17707.42
510.035	17901.98
510.238	18074.01
510.44	18137.49
510.643	18483.6
510.845	18571.66
511.048	18772.36
511.25	18923.91
511.453	19030.41
511.655	19696
511.858	19585.41
512.06	19751.29
512.262	20060.54
512.465	19890.56
512.667	20236.66
512.87	20459.89
513.072	20445.55
513.274	20861.29
513.477	21344.61
513.679	21119.34
513.881	21188.97
514.084	21815.65
514.286	21715.3
514.488	21807.45
514.69	22505.81
514.893	22419.8
515.095	22542.67
515.297	22538.58
515.499	23069
515.701	22993.23
515.904	23120.2
516.106	23621.95
516.308	23998.78
516.51	24068.41
516.712	23916.86
516.914	24201.53
517.116	24658.23
517.318	24611.12
517.52	24731.95
517.722	24852.78
517.925	25133.36
518.127	25895.2
518.329	25598.24
518.531	25745.7
518.733	26116.38
518.935	26413.34
519.136	26659.09
519.338	26573.08
519.54	27078.93
519.742	27259.15
519.944	27089.17
520.146	27627.78
520.348	27658.5
520.55	27787.52
520.752	28109.05
520.954	28307.71
521.155	28109.05
521.357	28567.8
521.559	28973.3
521.761	29516.01
521.963	29266.16
522.164	29315.31
522.366	29516.01
522.568	29751.52
522.77	30025.95
522.971	30300.38
523.173	29995.23
523.375	30607.58
523.576	30324.96
523.778	30970.07
523.98	30963.92
524.181	31506.63
524.383	31512.78
524.584	31797.45
524.786	31834.31
524.988	31520.97
525.189	31850.69
525.391	32231.61
525.592	32272.57
525.794	32358.59
525.995	32463.04
526.197	32458.94
526.398	32807.09
526.6	33097.91
526.801	32846.01
527.003	33661.1
527.204	33304.75
527.406	33530.03
527.607	33638.57
527.808	33695.91
528.01	33368.24
528.211	33462.44
528.412	34842.77
528.614	33958.05
528.815	34117.79
529.016	34484.38
529.218	34179.23
529.419	34648.22
529.62	34531.48
529.822	34363.55
530.023	34492.57
530.224	34242.72
530.425	34322.59
530.626	34244.77
530.828	34310.3
531.029	35362.96
531.23	34652.31
531.431	34556.06
531.632	35031.19
531.833	35182.74
532.035	35154.07
532.236	35322
532.437	34949.27
532.638	35125.39
532.839	35475.6
533.04	35168.4
533.241	34971.8
533.442	35571.85
533.643	35135.63
533.844	35170.45
534.045	35604.62
534.246	34814.1
534.447	35446.93
534.648	35463.31
534.849	35801.22
535.05	35504.27
535.251	35672.2
535.451	35268.75
535.652	35461.26
535.853	35444.88
536.054	35414.16
536.255	35670.15
536.456	35256.46
536.657	35823.75
536.857	35412.11
537.058	35758.22
537.259	35991.69
537.46	35688.59
537.66	35534.99
537.861	35862.66
538.062	35573.9
538.263	35678.35
538.463	35172.5
538.664	35565.71
538.865	35567.76
539.065	35817.61
539.266	35225.75
539.466	35672.2
539.667	35289.23
539.868	35793.03
540.068	35266.7
540.269	35477.65
540.469	35850.38
540.67	35248.27
540.87	35588.24
541.071	35305.62
541.271	35549.32
541.472	35426.45
541.672	35586.19
541.873	35045.52
542.073	35242.13
542.274	35657.87
542.474	35473.55
542.675	35078.29
542.875	35475.6
543.075	35559.56
543.276	35186.83
543.476	35598.48
543.676	35371.15
543.877	35534.99
544.077	35389.58
544.277	35446.93
544.478	35633.29
544.678	35299.47
544.878	35242.13
545.078	35375.25
545.279	34996.37
545.479	34723.99
545.679	35231.89
545.879	35090.58
546.079	35524.75
546.28	35049.62
546.48	35074.2
546.68	35520.65
546.88	35268.75
547.08	35188.88
547.28	35332.24
547.48	34773.14
547.68	34943.13
547.88	34703.51
548.081	35461.26
548.281	34922.65
548.481	35039.38
548.681	35227.79
548.881	34863.25
549.081	35199.12
549.28	35002.52
549.48	35412.11
549.68	35119.25
549.88	35262.61
550.08	34918.55
550.28	34793.62
550.48	35031.19
550.68	35420.3
550.88	34611.35
551.08	34662.55
551.279	34916.5
551.479	34496.67
551.679	34672.79
551.879	34656.41
552.079	34992.28
552.278	34588.83
552.478	34916.5
552.678	34431.13
552.878	34631.83
553.077	34869.4
553.277	34183.33
553.477	34914.45
553.676	34818.2
553.876	34820.25
554.076	34814.1
554.275	34490.52
554.475	34050.21
554.674	34887.83
554.874	34478.24
555.074	34613.4
555.273	34633.88
555.473	34719.9
555.672	34259.1
555.872	34619.55
556.071	34449.56
556.271	34474.14
556.47	34181.28
556.67	33753.26
556.869	34136.23
557.068	34525.34
557.268	33853.61
557.467	33876.13
557.667	33886.37
557.866	34027.68
558.065	33966.24
558.265	33657
558.464	33931.43
558.663	34201.76
558.863	33616.04
559.062	33685.67
559.261	33613.99
559.461	33945.76
559.66	33185.97
559.859	33386.67
560.058	33452.2
560.258	33259.7
560.457	33284.27
560.656	33435.82
560.855	33099.95
561.054	33085.62
561.253	32891.06
561.453	33036.47
561.652	32936.12
561.851	33241.26
562.05	33061.04
562.249	32911.54
562.448	33173.68
562.647	32884.92
562.846	32786.61
563.045	32753.85
563.244	32243.9
563.443	33040.56
563.642	32305.34
563.841	32553.15
564.04	32258.24
564.239	32671.93
564.438	32098.5
564.637	32313.53
564.836	32639.16
565.035	31949
565.234	32229.57
565.432	31697.09
565.631	32061.63
565.83	32020.67
566.029	31498.44
566.228	31623.37
566.427	31496.39
566.625	31688.9
566.824	31469.77
567.023	31979.71
567.222	30906.58
567.42	31674.57
567.619	31375.56
567.818	31056.08
568.016	31115.47
568.215	31494.35
568.414	30824.66
568.612	31166.67
568.811	31058.13
569.01	31011.03
569.208	30699.73
569.407	30822.61
569.605	30456.03
569.804	31070.42
570.002	30437.59
570.201	30425.31
570.4	30370.01
570.598	30208.22
570.797	29964.51
570.995	30169.31
571.193	29915.36
571.392	30116.06
571.59	29726.95
571.789	30005.47
571.987	29554.92
572.186	29884.64
572.384	29481.19
572.582	29585.64
572.781	29917.41
572.979	29206.76
573.177	29339.88
573.376	29550.82
573.574	28819.7
573.772	29243.63
573.971	29036.78
574.169	28700.92
574.367	28670.2
574.565	28948.72
574.763	28750.07
574.962	28188.92
575.16	28334.33
575.358	28854.51
575.556	28356.86
575.754	28629.24
575.952	27973.89
576.151	27977.98
576.349	28141.82
576.547	28143.87
576.745	28184.83
576.943	27937.02
577.141	28113.15
577.339	27918.59
577.537	28047.61
577.735	27668.74
577.933	27670.79
578.131	27775.23
578.329	27529.48
578.527	27205.9
578.725	27341.07
578.923	27349.26
579.121	27138.32
579.319	27060.49
579.516	27400.46
579.714	27160.84
579.912	27056.4
580.11	26632.47
580.308	27304.2
580.506	26695.96
580.704	26714.39
580.901	26605.84
581.099	27025.68
581.297	26409.24
581.495	26370.33
581.692	26769.68
581.89	25954.59
582.088	26650.9
582.285	26063.13
582.483	26427.67
582.681	26046.75
582.878	26169.63
583.076	25678.11
583.274	26151.2
583.471	25452.84
583.669	25735.46
583.866	25368.87
584.064	25491.75
584.262	25237.8
584.459	25581.86
584.657	25325.86
584.854	25413.93
585.052	25045.29
585.249	25127.21
585.447	25471.27
585.644	24731.95
585.841	24863.02
586.039	25078.06
586.236	24486.2
586.434	24903.98
586.631	24785.2
586.828	24826.16
587.026	24471.86
587.223	24602.93
587.42	24326.46
587.618	24412.47
587.815	24226.1
588.012	24148.28
588.21	24246.58
588.407	23998.78
588.604	23814.46
588.801	23830.85
588.999	23509.32
589.196	23703.87
589.393	23693.63
589.59	23648.58
589.787	23494.98
589.984	23347.53
590.182	23226.7
590.379	23519.56
590.576	23189.83
590.773	23271.75
590.97	23021.9
591.167	23537.99
591.364	22849.87
591.561	23261.51
591.758	22802.77
591.955	23036.24
592.152	22849.87
592.349	22876.49
592.546	22960.46
592.743	23011.66
592.94	22430.04
593.137	22591.83
593.334	22751.57
593.531	22253.91
593.727	22585.68
593.924	22413.65
594.121	22112.6
594.318	22133.08
594.515	21899.61
594.712	22061.4
594.908	22038.87
595.105	22067.55
595.302	21522.79
595.499	21997.92
595.696	21662.05
595.892	21789.02
596.089	21719.39
596.286	21621.09
596.482	21567.84
596.679	21719.39
596.876	21084.52
597.072	21238.12
597.269	21434.72
597.466	21240.17
597.662	20978.03
597.859	21166.44
598.055	21027.18
598.252	20748.65
598.448	21152.1
598.645	21043.56
598.841	20519.28
599.038	20861.29
599.234	20742.51
599.431	20566.38
599.627	20361.59
599.824	20654.45
600.02	20529.52
600.217	20439.41
600.413	20076.92
600.609	19982.71
600.806	20296.05
601.002	20154.74
601.198	20115.83
601.395	19956.09
601.591	19921.27
601.787	19726.72
601.984	19616.13
602.18	20076.92
602.376	19716.48
602.572	19411.33
602.769	19933.56
602.965	19286.4
603.161	19659.13
603.357	19388.8
603.553	19337.6
603.75	19257.73
603.946	19163.53
604.142	19167.62
604.338	18803.08
604.534	19134.85
604.73	19007.88
604.926	18893.19
605.122	18796.94
605.318	18704.78
605.514	18395.54
605.71	18825.61
605.906	18598.29
606.102	18659.73
606.298	18418.07
606.494	18528.66
606.69	18540.94
606.886	18354.58
607.082	18119.06
607.278	18413.97
607.474	18071.96
607.67	18307.48
607.866	18045.34
608.062	18133.4
608.257	18164.12
608.453	18053.53
608.649	18198.93
608.845	17707.42
609.041	17652.13
609.236	17949.08
609.432	17967.51
609.628	17906.07
609.824	17557.92
610.019	17684.89
610.215	17553.82
610.411	17709.47
610.606	17621.41
610.802	17332.64
610.998	17533.34
611.193	17441.18
611.389	17353.12
611.584	17400.23
611.78	17326.5
611.976	17586.59
612.171	17699.23
612.367	17158.56
612.562	17344.93
612.758	17279.4
612.953	17213.86
613.149	17279.4
613.344	16943.53
613.539	17162.66
613.735	17148.33
613.93	17017.26
614.126	16818.6
614.321	17170.85
614.517	16912.81
614.712	16753.07
614.907	16894.38
615.103	16918.95
615.298	16834.99
615.493	16761.26
615.688	16632.24
615.884	16996.78
616.079	16458.16
616.274	16908.71
616.47	16667.05
616.665	16576.94
616.86	16302.51
617.055	16462.26
617.25	16341.43
617.445	16542.13
617.641	16157.11
617.836	16265.65
618.031	16101.81
618.226	16300.47
618.421	16136.63
618.616	16177.59
618.811	15927.74
619.006	16196.02
619.201	15837.62
619.396	16200.12
619.591	15540.67
619.786	15882.68
619.981	15524.29
620.176	15704.51
620.371	15399.36
620.566	15348.16
620.761	15450.56
620.956	15282.63
621.151	15112.64
621.346	15464.89
621.541	14963.14
621.735	15258.05
621.93	14961.09
622.125	14973.38
622.32	14762.44
622.515	14844.36
622.709	14817.74
622.904	14610.89
623.099	14434.77
623.294	14404.05
623.488	14475.73
623.683	14451.15
623.878	14252.5
624.072	14143.95
624.267	14326.22
624.462	13988.31
624.656	14094.8
624.851	14129.62
625.046	13777.37
625.24	13896.15
625.435	13599.2
625.629	13795.8
625.824	13486.56
626.018	13564.38
626.213	13406.69
626.407	13486.56
626.602	13220.32
626.796	13265.38
626.991	13320.67
627.185	13052.39
627.38	13074.92
627.574	13074.92
627.768	12763.62
627.963	12796.39
628.157	12708.33
628.352	12820.97
628.546	12308.97
628.74	12741.1
628.935	12526.06
629.129	12700.14
629.323	12202.48
629.517	12413.42
629.712	12247.54
629.906	12038.64
630.1	11887.09
630.294	12083.7
630.489	12087.79
630.683	11868.66
630.877	11870.71
631.071	11878.9
631.265	11663.86
631.459	11622.91
631.653	11510.27
631.848	11649.53
632.042	11567.61
632.236	11457.02
632.43	11436.54
632.624	11420.16
632.818	11239.94
633.012	11008.51
633.206	11123.2
633.4	11182.59
633.594	11090.43
633.788	11082.24
633.982	10994.18
634.176	10947.08
634.369	10859.01
634.563	10959.36
634.757	10721.8
634.951	10605.06
635.145	10660.36
635.339	10555.91
635.533	10527.24
635.726	10545.67
635.92	10412.56
636.114	10566.15
636.308	10297.87
636.501	10232.33
636.695	10363.4
636.889	10058.26
637.083	10091.02
637.276	10031.63
637.47	9892.37
637.664	9935.38
637.857	9806.36
638.051	9988.63
638.244	9734.68
638.438	9728.53
638.632	9703.96
638.825	9546.26
639.019	9787.93
639.212	9597.46
639.406	9470.49
639.599	9339.42
639.793	9488.92
639.986	9189.92
640.18	9331.23
640.373	9392.67
640.567	9048.61
640.76	9054.75
640.954	9140.77
641.147	8978.98
641.34	9138.72
641.534	8892.96
641.727	9073.18
641.92	8933.92
642.114	8768.04
642.307	8737.32
642.5	8768.04
642.694	8577.58
642.887	8565.29
643.08	8598.06
643.273	8442.41
643.467	8684.07
643.66	8524.33
643.853	8436.27
644.046	8319.53
644.239	8389.16
644.432	8297
644.626	8063.54
644.819	7967.28
645.012	8290.86
645.205	8004.14
645.398	7944.75
645.591	8030.77
645.784	7844.4
645.977	7832.12
646.17	7928.37
646.363	7756.34
646.556	7801.4
646.749	7635.51
646.942	7701.05
647.135	7719.48
647.328	7701.05
647.521	7690.81
647.714	7651.89
647.907	7524.92
648.099	7494.2
648.292	7559.74
648.485	7486.01
648.678	7397.95
648.871	7281.21
649.064	7121.47
649.256	7348.79
649.449	7291.45
649.642	7289.4
649.835	7289.4
650.027	7307.84
650.22	7012.93
650.413	7090.75
650.605	7094.85
650.798	6931.01
650.991	6965.82
651.183	6957.63
651.376	6681.16
651.568	6863.43
651.761	6687.3
651.954	6785.6
652.146	6599.24
652.339	6689.35
652.531	6656.58
652.724	6707.78
652.916	6478.41
653.109	6515.27
653.301	6531.65
653.494	6433.35
653.686	6277.71
653.879	6664.77
654.071	6496.84
654.263	6181.45
654.456	6341.19
654.648	6265.42
654.84	6296.14
655.033	6132.3
655.225	6263.37
655.417	6158.92
655.61	6070.86
655.802	6093.39
655.994	6009.42
656.186	6122.06
656.379	5784.15
656.571	6062.67
656.763	5960.27
656.955	5925.46
657.148	5874.26
657.34	5923.41
657.532	5739.09
657.724	5888.59
657.916	5790.29
658.108	5755.47
658.3	5675.6
658.492	5694.04
658.684	5683.8
658.876	5732.95
659.068	5513.81
659.26	5528.15
659.452	5431.9
659.644	5583.45
659.836	5409.37
660.028	5425.75
660.22	5337.69
660.412	5403.22
660.604	5376.6
660.796	5358.17
660.988	5286.49
661.18	5239.39
661.372	5218.91
661.563	5223
661.755	5161.56
661.947	5360.22
662.139	5159.52
662.331	5120.6
662.522	5126.75
662.714	5057.12
662.906	5032.54
663.097	5048.93
663.289	4938.34
663.481	5077.6
663.673	4969.05
663.864	4936.29
664.056	4842.08
664.247	5007.97
664.439	4747.87
664.631	4837.98
664.822	4928.1
665.014	4741.73
665.205	4833.89
665.397	4799.07
665.588	4647.52
665.78	4680.29
665.971	4643.43
666.163	4610.66
666.354	4727.39
666.546	4680.29
666.737	4551.27
666.929	4491.88
667.12	4547.17
667.311	4508.26
667.503	4422.25
667.694	4414.06
667.885	4252.27
668.077	4440.68
668.268	4440.68
668.459	4381.29
668.651	4252.27
668.842	4422.25
669.033	4346.47
669.224	4369
669.416	4307.56
669.607	4391.53
669.798	4340.33
669.989	4242.03
670.18	4282.99
670.371	4158.06
670.563	4362.86
670.754	4244.07
670.945	4139.63
671.136	4141.68
671.327	4106.86
671.518	4147.82
671.709	4213.35
671.9	4117.1
672.091	4244.07
672.282	4043.37
672.473	4035.18
672.664	4172.4
672.855	4178.54
673.046	4061.8
673.237	3979.89
673.428	3936.88
673.619	4039.28
673.809	3891.82
674	3953.26
674.191	4043.37
674.382	3887.73
674.573	3822.19
674.764	3705.46
674.954	3891.82
675.145	3828.34
675.336	3857.01
675.527	3881.58
675.717	3773.04
675.908	3807.86
676.099	3883.63
676.289	3689.07
676.48	3799.66
676.671	3607.16
676.861	3736.18
677.052	3787.38
677.243	3777.14
677.433	3795.57
677.624	3777.14
677.814	3738.23
678.005	3717.75
678.195	3646.07
678.386	3693.17
678.576	3609.2
678.767	3609.2
678.957	3648.11
679.148	3617.4
679.338	3705.46
679.529	3515
679.719	3474.04
679.909	3613.3
680.1	3551.86
680.29	3598.96
680.481	3584.63
680.671	3580.53
680.861	3619.44
681.052	3480.18
681.242	3484.28
681.432	3551.86
681.622	3371.64
681.813	3519.09
682.003	3545.72
682.193	3402.36
682.383	3566.2
682.573	3486.33
682.764	3437.17
682.954	3537.52
683.144	3506.81
683.334	3410.55
683.524	3455.61
683.714	3437.17
683.904	3326.58
684.094	3334.78
684.284	3433.08
684.474	3431.03
684.664	3420.79
684.854	3582.58
685.044	3281.53
685.234	3363.45
685.424	3269.24
685.614	3302.01
685.804	3379.83
685.994	3324.54
686.184	3177.08
686.374	3390.07
686.564	3328.63
686.753	3248.76
686.943	3207.8
687.133	3244.67
687.323	3236.47
687.513	3236.47
687.702	3213.95
687.892	3166.84
688.082	3246.71
688.272	3168.89
688.461	3046.01
688.651	3064.44
688.841	3093.12
689.03	3013.24
689.22	3089.02
689.41	3048.06
689.599	3056.25
689.789	2980.48
689.979	3097.21
690.168	2949.76
690.358	3027.58
690.547	2998.91
690.737	3056.25
690.926	2943.61
691.116	2857.6
691.305	3029.63
691.495	2964.09
691.684	2902.65
691.874	2929.28
692.063	2675.33
692.252	2851.46
692.442	2912.89
692.631	2798.21
692.82	2865.79
693.01	2722.43
693.199	2736.77
693.388	2820.74
693.578	2732.67
693.767	2695.81
693.956	2812.54
694.146	2683.52
694.335	2765.44
694.524	2794.11
694.713	2665.09
694.902	2640.51
695.092	2609.79
695.281	2691.71
695.47	2646.66
695.659	2767.49
695.848	2646.66
696.037	2531.97
696.226	2570.88
696.415	2620.03
696.604	2599.56
696.793	2509.44
696.982	2558.6
697.171	2609.79
697.36	2620.03
697.549	2482.82
697.738	2554.5
697.927	2536.07
698.116	2513.54
698.305	2550.4
698.494	2503.3
698.683	2523.78
698.872	2484.87
699.061	2523.78
699.25	2507.4
699.438	2554.5
699.627	2509.44
699.816	2472.58
700.005	2525.83
700.193	2546.31
700.382	2538.12
700.571	2519.68
700.76	2488.96
700.948	2611.84
701.137	2552.45
701.326	2548.36
701.514	2435.72
701.703	2415.24
701.892	2450.05
702.08	2493.06
702.269	2450.05
702.457	2349.7
702.646	2519.68
702.834	2347.65
703.023	2550.4
703.212	2474.63
703.4	2450.05
703.589	2495.11
703.777	2413.19
703.965	2398.85
704.154	2431.62
704.342	2542.21
704.531	2329.22
704.719	2349.7
704.907	2468.48
705.096	2523.78
705.284	2407.05
705.472	2396.81
705.661	2398.85
705.849	2476.68
706.037	2316.94
706.226	2402.95
706.414	2357.89
706.602	2400.9
706.79	2456.2
706.979	2439.81
707.167	2425.48
707.355	2445.96
707.543	2419.33
707.731	2382.47
707.919	2458.25
708.107	2394.76
708.296	2398.85
708.484	2462.34
708.672	2364.04
708.86	2398.85
709.048	2417.29
709.236	2314.89
709.424	2374.28
709.612	2392.71
709.8	2437.77
709.988	2388.61
710.176	2394.76
710.364	2431.62
710.551	2366.09
710.739	2306.7
710.927	2351.75
711.115	2273.93
711.303	2431.62
711.491	2433.67
711.679	2443.91
711.866	2441.86
712.054	2392.71
712.242	2349.7
712.43	2376.33
712.617	2351.75
712.805	2364.04
712.993	2431.62
713.181	2327.18
713.368	2433.67
713.556	2349.7
713.744	2325.13
713.931	2357.89
714.119	2476.68
714.306	2312.84
714.494	2374.28
714.682	2304.65
714.869	2405
715.057	2407.05
715.244	2382.47
715.432	2329.22
715.619	2386.57
715.807	2372.23
715.994	2364.04
716.182	2482.82
716.369	2380.42
716.556	2413.19
716.744	2259.59
716.931	2488.96
717.119	2411.14
717.306	2370.18
717.493	2398.85
717.681	2343.56
717.868	2392.71
718.055	2458.25
718.242	2456.2
718.43	2437.77
718.617	2278.02
718.804	2376.33
718.991	2407.05
719.179	2345.61
719.366	2296.46
719.553	2515.59
719.74	2394.76
719.927	2468.48
720.114	2292.36
720.301	2421.38
720.488	2411.14
720.676	2310.79
720.863	2423.43
721.05	2493.06
721.237	2454.15
721.424	2452.1
721.611	2413.19
721.798	2325.13
721.985	2443.91
722.172	2357.89
722.358	2507.4
722.545	2464.39
722.732	2345.61
722.919	2318.98
723.106	2433.67
723.293	2421.38
723.48	2443.91
723.667	2437.77
723.853	2400.9
724.04	2497.16
724.227	2427.53
724.414	2503.3
724.6	2370.18
724.787	2415.24
724.974	2509.44
725.161	2515.59
725.347	2425.48
725.534	2435.72
725.72	2396.81
725.907	2427.53
726.094	2454.15
726.28	2443.91
726.467	2437.77
726.653	2474.63
726.84	2562.69
727.027	2556.55
727.213	2359.94
727.4	2472.58
727.586	2359.94
727.773	2566.79
727.959	2392.71
728.145	2521.73
728.332	2286.22
728.518	2499.2
728.705	2611.84
728.891	2433.67
729.077	2452.1
729.264	2366.09
729.45	2562.69
729.636	2595.46
729.823	2376.33
730.009	2491.01
730.195	2497.16
730.382	2548.36
730.568	2448.01
730.754	2433.67
730.94	2550.4
731.126	2493.06
731.313	2499.2
731.499	2419.33
731.685	2456.2
731.871	2460.29
732.057	2630.27
732.243	2429.57
732.429	2476.68
732.615	2519.68
732.801	2460.29
732.987	2593.41
733.173	2402.95
733.359	2546.31
733.545	2497.16
733.731	2501.25
733.917	2464.39
734.103	2710.15
734.289	2521.73
734.475	2583.17
734.661	2445.96
734.847	2581.12
735.033	2570.88
735.219	2513.54
735.404	2507.4
735.59	2538.12
735.776	2464.39
735.962	2478.72
736.148	2495.11
736.333	2615.94
736.519	2605.7
736.705	2491.01
736.89	2472.58
737.076	2384.52
737.262	2507.4
737.447	2378.37
737.633	2509.44
737.819	2529.92
738.004	2448.01
738.19	2415.24
738.375	2478.72
738.561	2515.59
738.747	2466.44
738.932	2431.62
739.118	2460.29
739.303	2540.16
739.489	2417.29
739.674	2507.4
739.859	2402.95
740.045	2562.69
740.23	2509.44
740.416	2361.99
740.601	2400.9
740.786	2448.01
740.972	2431.62
741.157	2452.1
741.342	2361.99
741.528	2468.48
741.713	2472.58
741.898	2460.29
742.084	2470.53
742.269	2357.89
742.454	2390.66
742.639	2429.57
742.824	2409.09
743.01	2427.53
743.195	2390.66
743.38	2275.98
743.565	2347.65
743.75	2235.02
743.935	2349.7
744.12	2364.04
744.305	2327.18
744.49	2222.73
744.675	2304.65
744.86	2327.18
745.045	2263.69
745.23	2312.84
745.415	2316.94
745.6	2335.37
745.785	2263.69
745.97	2212.49
746.155	2245.26
746.34	2204.3
746.525	2165.39
746.71	2230.92
746.895	2275.98
747.079	2165.39
747.264	2228.87
747.449	2169.48
747.634	2091.66
747.819	2171.53
748.003	2153.1
748.188	2224.78
748.373	2079.37
748.557	2189.96
748.742	2056.84
748.927	2120.33
749.111	2105.99
749.296	2085.51
749.481	1993.36
749.665	1925.77
749.85	1989.26
750.034	1972.88
750.219	1999.5
750.404	1913.49
750.588	1993.36
750.773	1968.78
750.957	1946.25
751.141	1888.91
751.326	2026.12
751.51	1739.41
751.695	1895.05
751.879	1952.4
752.064	1858.19
752.248	1874.57
752.432	1950.35
752.617	1794.7
752.801	1774.22
752.985	1804.94
753.17	1729.17
753.354	1854.09
753.538	1786.51
753.722	1798.8
753.907	1688.21
754.091	1667.73
754.275	1784.46
754.459	1675.92
754.643	1594
754.828	1798.8
755.012	1637.01
755.196	1589.91
755.38	1536.66
755.564	1516.18
755.748	1614.48
755.932	1667.73
756.116	1614.48
756.3	1643.15
756.484	1669.78
756.668	1546.9
756.852	1518.23
757.036	1575.57
757.22	1464.98
757.404	1553.04
757.588	1536.66
757.772	1536.66
757.956	1563.28
758.14	1563.28
758.323	1479.32
758.507	1497.75
758.691	1520.28
758.875	1528.47
759.059	1446.55
759.242	1417.88
759.426	1403.54
759.61	1415.83
759.794	1370.77
759.977	1374.87
760.161	1481.36
760.345	1360.53
760.528	1366.68
760.712	1319.57
760.895	1329.81
761.079	1358.49
761.263	1426.07
761.446	1272.47
761.63	1249.94
761.813	1333.91
761.997	1290.9
762.18	1192.6
762.364	1196.7
762.547	1217.18
762.731	1225.37
762.914	1348.25
763.098	1270.42
763.281	1249.94
763.464	1180.31
763.648	1315.48
763.831	1227.42
764.015	1229.46
764.198	1235.61
764.381	1233.56
764.564	1270.42
764.748	1243.8
764.931	1231.51
765.114	1247.9
765.297	1139.35
765.481	1256.09
765.664	1135.26
765.847	1139.35
766.03	1026.71
766.213	1153.69
766.397	1133.21
766.58	1104.54
766.763	1147.55
766.946	1065.63
767.129	1104.54
767.312	1057.43
767.495	1168.02
767.678	1143.45
767.861	1118.87
768.044	1094.3
768.227	1118.87
768.41	1026.71
768.593	1086.11
768.776	1104.54
768.959	1100.44
769.142	1034.91
769.324	1071.77
769.507	1039
769.69	1010.33
769.873	1086.11
770.056	1098.39
770.239	1036.95
770.421	1053.34
770.604	1112.73
770.787	1018.52
770.97	934.56
771.152	926.36
771.335	961.18
771.518	938.65
771.7	983.71
771.883	1088.15
772.066	950.94
772.248	991.9
772.431	920.22
772.613	965.28
772.796	912.03
772.978	1030.81
773.161	926.36
773.343	924.32
773.526	946.84
773.708	869.02
773.891	850.59
774.073	854.69
774.256	873.12
774.438	1014.43
774.621	963.23
774.803	1004.19
774.985	897.69
775.168	889.5
775.35	817.82
775.532	840.35
775.715	866.97
775.897	772.77
776.079	821.92
776.261	895.65
776.444	793.25
776.626	959.13
776.808	912.03
776.99	735.9
777.173	762.53
777.355	803.49
777.537	809.63
777.719	737.95
777.901	772.77
778.083	799.39
778.265	694.94
778.447	740
778.629	758.43
778.811	727.71
778.993	746.14
779.175	742.05
779.357	815.77
779.539	682.66
779.721	664.22
779.903	754.34
780.085	735.9
780.267	637.6
780.449	664.22
780.631	701.09
780.812	776.86
780.994	629.41
781.176	641.7
781.358	645.79
781.54	543.39
781.721	678.56
781.903	680.61
782.085	547.49
782.267	514.72
782.448	600.74
782.63	570.02
782.812	606.88
782.993	559.78
783.175	619.17
783.357	578.21
783.538	613.03
783.72	576.16
783.901	621.22
784.083	656.03
784.264	555.68
784.446	477.86
784.627	518.82
784.809	535.2
784.99	443.04
785.172	516.77
785.353	494.24
785.535	547.49
785.716	469.67
785.897	500.39
786.079	529.06
786.26	578.21
786.441	598.69
786.623	426.66
786.804	502.44
786.985	510.63
787.167	535.2
787.348	455.33
787.529	481.96
787.71	576.16
787.891	434.85
788.073	553.63
788.254	385.7
788.435	561.83
788.616	486.05
788.797	463.52
788.978	434.85
789.159	397.99
789.34	490.15
789.522	391.84
789.703	346.79
789.884	455.33
790.065	463.52
790.246	537.25
790.427	365.22
790.607	375.46
790.788	371.37
790.969	395.94
791.15	406.18
791.331	420.52
791.512	406.18
791.693	357.03
791.874	402.08
792.054	426.66
792.235	461.48
792.416	354.98
792.597	291.49
792.778	397.99
792.958	432.8
793.139	416.42
793.32	367.27
793.5	381.6
793.681	336.55
793.862	352.93
794.042	422.56
794.223	338.6
794.404	393.89
794.584	377.51
794.765	289.45
794.945	365.22
795.126	414.37
795.306	307.88
795.487	285.35
795.667	289.45
795.848	354.98
796.028	371.37
796.209	326.31
796.389	295.59
796.57	342.69
796.75	309.93
796.93	303.78
797.111	326.31
797.291	236.2
797.471	264.87
797.652	293.54
797.832	277.16
798.012	330.41
798.192	305.83
798.373	348.84
798.553	211.62
798.733	283.3
798.913	395.94
799.093	266.92
799.274	352.93
799.454	275.11
799.634	377.51
799.814	248.49
799.994	232.1
800.174	295.59
800.354	279.21
800.534	195.24
800.714	285.35
800.894	275.11
801.074	273.06
801.254	266.92
801.434	373.41
801.614	262.82
801.794	236.2
801.974	621.22
802.154	213.67
802.334	363.17
802.514	193.19
802.693	242.34
802.873	203.43
803.053	320.17
803.233	258.73
803.413	201.38
803.592	242.34
803.772	246.44
803.952	242.34
804.131	201.38
804.311	230.06
804.491	252.58
804.67	211.62
804.85	277.16
805.03	244.39
805.209	242.34
805.389	256.68
805.568	244.39
805.748	207.53
805.928	219.82
806.107	215.72
806.287	240.3
806.466	228.01
806.646	268.97
806.825	174.76
807.004	250.53
807.184	223.91
807.363	160.42
807.543	260.77
807.722	189.1
807.901	256.68
808.081	277.16
808.26	187.05
808.439	193.19
808.619	170.66
808.798	254.63
808.977	213.67
809.156	199.34
809.336	191.14
809.515	205.48
809.694	135.85
809.873	238.25
810.052	205.48
810.231	248.49
810.411	180.9
810.59	168.62
810.769	254.63
810.948	252.58
811.127	158.38
811.306	211.62
811.485	228.01
811.664	211.62
811.843	189.1
812.022	185
812.201	150.18
812.38	170.66
812.559	187.05
812.737	107.18
812.916	135.85
813.095	162.47
813.274	172.71
813.453	211.62
813.632	166.57
813.811	125.61
813.989	207.53
814.168	152.23
814.347	74.41
814.526	127.66
814.704	230.06
814.883	156.33
815.062	189.1
815.24	154.28
815.419	68.27
815.598	195.24
815.776	139.94
815.955	101.03
816.133	201.38
816.312	160.42
816.49	127.66
816.669	144.04
816.847	189.1
817.026	164.52
817.204	135.85
817.383	137.9
817.561	141.99
817.74	129.7
817.918	246.44
818.097	166.57
818.275	152.23
818.453	111.27
818.632	213.67
818.81	119.46
818.988	141.99
819.167	25.26
819.345	141.99
819.523	74.41
819.701	113.32
819.879	185
820.058	135.85
820.236	154.28
820.414	123.56
820.592	111.27
820.77	137.9
820.948	113.32
821.127	146.09
821.305	70.31
821.483	72.36
821.661	129.7
821.839	121.51
822.017	131.75
822.195	90.79
822.373	164.52
822.551	105.13
822.729	113.32
822.907	182.95
823.085	146.09
823.262	39.59
823.44	82.6
823.618	82.6
823.796	82.6
823.974	43.69
824.152	86.7
824.329	156.33
824.507	55.98
824.685	92.84
824.863	146.09
825.04	109.23
825.218	88.75
825.396	166.57
825.574	144.04
825.751	125.61
825.929	109.23
826.107	82.6
826.284	168.62
826.462	62.12
826.639	82.6
826.817	98.99
826.994	72.36
827.172	144.04
827.349	115.37
827.527	62.12
827.704	111.27
827.882	117.42
828.059	113.32
828.237	76.46
828.414	107.18
828.591	41.64
828.769	94.89
828.946	131.75
829.124	133.8
829.301	103.08
829.478	92.84
829.655	105.13
829.833	-1.37
830.01	121.51
830.187	84.65
830.364	82.6
830.542	76.46
830.719	129.7
830.896	146.09
831.073	86.7
831.25	39.59
831.427	82.6
831.604	170.66
831.782	55.98
831.959	88.75
832.136	139.94
832.313	84.65
832.49	72.36
832.667	64.17
832.844	113.32
833.021	133.8
833.198	111.27
833.374	96.94
833.551	39.59
833.728	80.55
833.905	74.41
834.082	68.27
834.259	51.88
834.436	68.27
834.612	47.79
834.789	80.55
834.966	41.64
835.143	86.7
835.319	66.22
835.496	90.79
835.673	76.46
835.85	96.94
836.026	35.5
836.203	101.03
836.38	82.6
836.556	80.55
836.733	105.13
836.909	70.31
837.086	8.87
837.262	62.12
837.439	31.4
837.616	70.31
837.792	-42.32
837.968	58.03
838.145	-9.56
838.321	84.65
838.498	-1.37
838.674	101.03
838.851	-27.99
839.027	86.7
839.203	78.51
839.38	76.46
839.556	45.74
839.732	68.27
839.909	21.16
840.085	90.79
840.261	8.87
840.437	51.88
840.614	-5.46
840.79	74.41
840.966	86.7
841.142	23.21
841.318	45.74
841.494	88.75
841.671	101.03
841.847	86.7
842.023	58.03
842.199	111.27
842.375	152.23
842.551	29.35
842.727	-15.7
842.903	115.37
843.079	23.21
843.255	133.8
843.431	0.68
843.607	60.07
843.783	19.11
843.959	27.31
844.134	21.16
844.31	84.65
844.486	2.73
844.662	72.36
844.838	-5.46
845.013	4.78
845.189	47.79
845.365	66.22
845.541	47.79
845.716	53.93
845.892	62.12
846.068	39.59
846.244	-21.84
846.419	72.36
846.595	41.64
846.77	78.51
846.946	74.41
847.122	53.93
847.297	0.68
847.473	45.74
847.648	-11.61
847.824	39.59
847.999	60.07
848.175	78.51
848.35	53.93
848.526	111.27
848.701	113.32
848.876	4.78
849.052	-7.51
849.227	-36.18
849.403	27.31
849.578	43.69
849.753	90.79
849.929	64.17
850.104	45.74
850.279	60.07
850.454	49.83
850.63	15.02
850.805	74.41
850.98	88.75
851.155	49.83
851.33	103.08
851.505	37.55
851.681	47.79
851.856	33.45
852.031	60.07
852.206	47.79
852.381	80.55
852.556	-13.65
852.731	70.31
852.906	2.73
853.081	78.51
853.256	8.87
853.431	-48.47
853.606	53.93
853.781	19.11
853.956	12.97
854.131	-19.8
854.305	25.26
854.48	2.73
854.655	8.87
854.83	25.26
855.005	37.55
855.18	80.55
855.354	37.55
855.529	74.41
855.704	-52.56
855.879	39.59
856.053	0.68
856.228	19.11
856.403	-7.51
856.577	90.79
856.752	68.27
856.926	74.41
857.101	35.5
857.276	86.7
857.45	-32.08
857.625	76.46
857.799	29.35
857.974	6.83
858.148	23.21
858.323	-5.46
858.497	8.87
858.672	8.87
858.846	17.07
859.02	90.79
859.195	-21.84
859.369	39.59
859.543	76.46
859.718	21.16
859.892	4.78
860.066	-15.7
860.241	4.78
860.415	-36.18
860.589	-30.04
860.763	2.73
860.938	-52.56
861.112	41.64
861.286	19.11
861.46	53.93
861.634	39.59
861.808	70.31
861.982	-60.76
862.157	-25.94
862.331	19.11
862.505	-25.94
862.679	-30.04
862.853	37.55
863.027	4.78
863.201	25.26
863.375	0.68
863.549	25.26
863.722	76.46
863.896	21.16
864.07	27.31
864.244	21.16
864.418	60.07
864.592	-40.28
864.766	-5.46
864.939	17.07
865.113	-15.7
865.287	15.02
865.461	4.78
865.634	72.36
865.808	4.78
865.982	64.17
866.156	-30.04
866.329	-7.51
866.503	29.35
866.676	27.31
866.85	47.79
867.024	58.03
867.197	41.64
867.371	53.93
867.544	-32.08
867.718	-32.08
867.891	4.78
868.065	37.55
868.238	41.64
868.412	17.07
868.585	37.55
868.759	23.21
868.932	6.83
869.105	-15.7
869.279	49.83
869.452	64.17
869.625	25.26
869.799	37.55
869.972	31.4
870.145	-9.56
870.319	49.83
870.492	35.5
870.665	12.97
870.838	-25.94
871.011	17.07
871.185	-5.46
871.358	-32.08
871.531	53.93
871.704	45.74
871.877	41.64
872.05	-7.51
872.223	-5.46
872.396	8.87
872.569	-40.28
872.742	-7.51
872.915	8.87
873.088	29.35
873.261	35.5
873.434	8.87
873.607	76.46
873.78	49.83
873.953	-62.8
874.126	49.83
874.299	-38.23
874.471	17.07
874.644	103.08
874.817	-3.41
874.99	19.11
875.163	-85.33
875.335	-40.28
875.508	-23.89
875.681	25.26
875.853	6.83
876.026	-48.47
876.199	53.93
876.371	-3.41
876.544	-77.14
876.717	6.83
876.889	-3.41
877.062	25.26
877.234	-3.41
877.407	27.31
877.579	-34.13
877.752	58.03
877.924	17.07
878.097	12.97
878.269	29.35
878.442	19.11
878.614	-9.56
878.786	29.35
878.959	10.92
879.131	31.4
879.303	-60.76
879.476	-13.65
879.648	6.83
879.82	-1.37
879.993	27.31
880.165	-9.56
880.337	25.26
880.509	60.07
880.681	58.03
880.854	-25.94
881.026	8.87
881.198	53.93
881.37	70.31
881.542	23.21
881.714	82.6
881.886	-40.28
882.058	0.68
882.23	29.35
882.402	15.02
882.574	55.98
882.746	21.16
882.918	66.22
883.09	-44.37
883.262	23.21
883.434	-13.65
883.606	47.79
883.778	-15.7
883.95	-23.89
884.122	17.07
884.293	66.22
884.465	-13.65
884.637	17.07
884.809	8.87
884.98	-15.7
885.152	29.35
885.324	39.59
885.496	-68.95
885.667	-54.61
885.839	19.11
886.011	31.4
886.182	43.69
886.354	-11.61
886.525	-87.38
886.697	6.83
886.869	29.35
887.04	58.03
887.212	47.79
887.383	35.5
887.555	-52.56
887.726	-11.61
887.897	15.02
888.069	19.11
888.24	19.11
888.412	33.45
888.583	-42.32
888.754	31.4
888.926	-3.41
889.097	55.98
889.268	43.69
889.44	-34.13
889.611	-27.99
889.782	113.32
889.953	-81.24
890.125	15.02
890.296	21.16
890.467	17.07
890.638	6.83
890.809	-5.46
890.98	35.5
891.151	27.31
891.323	-27.99
891.494	19.11
891.665	31.4
891.836	-19.8
892.007	-23.89
892.178	-17.75
892.349	-15.7
892.52	0.68
892.691	21.16
892.862	-36.18
893.032	-50.52
893.203	88.75
893.374	-64.85
893.545	53.93
893.716	2.73
893.887	45.74
894.057	21.16
894.228	49.83
894.399	19.11
894.57	84.65
894.74	6.83
894.911	-19.8
895.082	-30.04
895.253	37.55
895.423	66.22
895.594	25.26
895.764	37.55
895.935	-38.23
896.106	-21.84
896.276	19.11
896.447	47.79
896.617	6.83
896.788	53.93
896.958	8.87
897.129	-66.9
897.299	-13.65
897.47	21.16
897.64	-9.56
897.81	33.45
897.981	-23.89
898.151	2.73
898.322	-66.9
898.492	0.68
898.662	21.16
898.832	103.08
899.003	8.87
899.173	43.69
899.343	35.5
899.513	-66.9
