Data from USB4F104151__47__11-45-08-370.txt Node

Date: Fri Mar 14 11:45:08 EDT 2025
User: louis
Spectrometer: USB4F10415
Trigger mode: 4
Integration Time (sec): 2.000000E-2
Scans to average: 1
Electric dark correction enabled: true
Nonlinearity correction enabled: false
Boxcar width: 0
XAxis mode: Wavelengths
Number of Pixels in Spectrum: 3648
>>>>>Begin Spectral Data<<<<<
178.204	-50.35
178.424	-50.35
178.644	-50.35
178.864	-122.02
179.084	-119.98
179.304	-29.87
179.524	-40.11
179.744	25.43
179.964	-9.39
180.184	-48.3
180.404	47.96
180.624	-17.58
180.844	60.24
181.064	-9.39
181.283	29.52
181.503	-58.54
181.723	50
181.943	-99.5
182.163	82.77
182.383	84.82
182.602	66.39
182.822	45.91
183.042	-31.91
183.262	-9.39
183.482	58.2
183.701	-11.43
183.921	27.48
184.141	2.9
184.361	39.76
184.58	19.29
184.8	2.9
185.02	7
185.239	0.85
185.459	11.09
185.679	-13.48
185.898	-50.35
186.118	23.38
186.338	39.76
186.557	19.29
186.777	43.86
186.997	-29.87
187.216	27.48
187.436	76.63
187.655	-13.48
187.875	-11.43
188.095	-9.39
188.314	2.9
188.534	80.72
188.753	4.95
188.973	47.96
189.192	56.15
189.412	-27.82
189.631	72.53
189.851	21.33
190.07	70.48
190.29	-15.53
190.509	2.9
190.729	4.95
190.948	19.29
191.168	150.36
191.387	-7.34
191.607	-33.96
191.826	31.57
192.045	-19.63
192.265	52.05
192.484	21.33
192.704	11.09
192.923	-52.39
193.142	19.29
193.362	23.38
193.581	52.05
193.8	0.85
194.02	15.19
194.239	45.91
194.458	19.29
194.678	-15.53
194.897	11.09
195.116	-27.82
195.335	-7.34
195.555	25.43
195.774	39.76
195.993	41.81
196.212	-13.48
196.432	39.76
196.651	33.62
196.87	78.68
197.089	80.72
197.308	-11.43
197.528	39.76
197.747	-48.3
197.966	19.29
198.185	13.14
198.404	33.62
198.623	4.95
198.842	29.52
199.062	27.48
199.281	31.57
199.5	-23.72
199.719	9.05
199.938	47.96
200.157	-13.48
200.376	21.33
200.595	41.81
200.814	-52.39
201.033	25.43
201.252	-19.63
201.471	-23.72
201.69	13.14
201.909	99.16
202.128	-9.39
202.347	-11.43
202.566	25.43
202.785	-17.58
203.004	-56.49
203.223	84.82
203.442	56.15
203.661	-60.59
203.879	-1.19
204.098	33.62
204.317	-81.07
204.536	82.77
204.755	-42.15
204.974	19.29
205.193	2.9
205.411	39.76
205.63	17.24
205.849	-17.58
206.068	66.39
206.287	-74.92
206.505	-1.19
206.724	15.19
206.943	-5.29
207.162	25.43
207.381	-5.29
207.599	41.81
207.818	29.52
208.037	-19.63
208.255	-29.87
208.474	-36.01
208.693	-3.24
208.911	39.76
209.13	-40.11
209.349	54.1
209.567	43.86
209.786	-7.34
210.005	50
210.223	37.72
210.442	-19.63
210.661	-40.11
210.879	-3.24
211.098	21.33
211.316	9.05
211.535	41.81
211.753	50
211.972	7
212.191	-33.96
212.409	54.1
212.628	-9.39
212.846	31.57
213.065	2.9
213.283	52.05
213.502	-5.29
213.72	25.43
213.938	25.43
214.157	41.81
214.375	-15.53
214.594	23.38
214.812	62.29
215.031	4.95
215.249	31.57
215.467	7
215.686	-33.96
215.904	29.52
216.122	-48.3
216.341	-58.54
216.559	21.33
216.778	60.24
216.996	-27.82
217.214	-58.54
217.432	-19.63
217.651	27.48
217.869	37.72
218.087	74.58
218.306	-1.19
218.524	58.2
218.742	25.43
218.96	47.96
219.179	-19.63
219.397	35.67
219.615	43.86
219.833	7
220.051	-3.24
220.27	39.76
220.488	-13.48
220.706	90.96
220.924	-3.24
221.142	58.2
221.36	58.2
221.578	99.16
221.796	-25.77
222.015	19.29
222.233	4.95
222.451	-70.83
222.669	-56.49
222.887	41.81
223.105	-25.77
223.323	-50.35
223.541	25.43
223.759	60.24
223.977	-48.3
224.195	15.19
224.413	17.24
224.631	-62.63
224.849	11.09
225.067	41.81
225.285	0.85
225.503	99.16
225.721	54.1
225.939	7
226.157	23.38
226.375	60.24
226.592	-38.06
226.81	-25.77
227.028	23.38
227.246	152.4
227.464	-7.34
227.682	45.91
227.9	43.86
228.117	-5.29
228.335	9.05
228.553	-23.72
228.771	13.14
228.989	29.52
229.206	-1.19
229.424	25.43
229.642	-48.3
229.86	-29.87
230.077	-11.43
230.295	-7.34
230.513	74.58
230.731	13.14
230.948	50
231.166	9.05
231.384	66.39
231.601	9.05
231.819	19.29
232.037	17.24
232.254	0.85
232.472	-19.63
232.689	-21.67
232.907	27.48
233.125	19.29
233.342	23.38
233.56	-7.34
233.777	-64.68
233.995	54.1
234.213	25.43
234.43	-9.39
234.648	-48.3
234.865	37.72
235.083	11.09
235.3	29.52
235.518	58.2
235.735	27.48
235.953	74.58
236.17	-7.34
236.388	99.16
236.605	-48.3
236.822	37.72
237.04	4.95
237.257	35.67
237.475	31.57
237.692	-7.34
237.909	-5.29
238.127	50
238.344	23.38
238.562	-38.06
238.779	11.09
238.996	-3.24
239.214	-50.35
239.431	37.72
239.648	19.29
239.865	-66.73
240.083	9.05
240.3	21.33
240.517	27.48
240.735	37.72
240.952	35.67
241.169	-36.01
241.386	-13.48
241.603	-7.34
241.821	45.91
242.038	-3.24
242.255	72.53
242.472	21.33
242.689	19.29
242.907	35.67
243.124	-9.39
243.341	54.1
243.558	15.19
243.775	-5.29
243.992	15.19
244.209	-50.35
244.426	47.96
244.643	31.57
244.86	-31.91
245.078	9.05
245.295	17.24
245.512	-85.16
245.729	-17.58
245.946	35.67
246.163	-7.34
246.38	52.05
246.597	-5.29
246.814	25.43
247.031	-66.73
247.248	19.29
247.464	-40.11
247.681	-11.43
247.898	45.91
248.115	-19.63
248.332	-46.25
248.549	11.09
248.766	101.2
248.983	4.95
249.2	-23.72
249.417	-5.29
249.633	-17.58
249.85	103.25
250.067	-31.91
250.284	-13.48
250.501	-33.96
250.717	-23.72
250.934	9.05
251.151	25.43
251.368	74.58
251.585	25.43
251.801	50
252.018	70.48
252.235	-9.39
252.451	13.14
252.668	4.95
252.885	54.1
253.102	13.14
253.318	15.19
253.535	15.19
253.752	-3.24
253.968	-21.67
254.185	-31.91
254.401	-3.24
254.618	29.52
254.835	-13.48
255.051	52.05
255.268	35.67
255.484	41.81
255.701	41.81
255.917	33.62
256.134	-1.19
256.351	-58.54
256.567	70.48
256.784	54.1
257	-85.16
257.217	-42.15
257.433	15.19
257.65	19.29
257.866	7
258.082	-23.72
258.299	-27.82
258.515	17.24
258.732	-11.43
258.948	-5.29
259.165	31.57
259.381	0.85
259.597	43.86
259.814	25.43
260.03	-21.67
260.246	90.96
260.463	-1.19
260.679	41.81
260.895	70.48
261.112	37.72
261.328	35.67
261.544	-7.34
261.761	78.68
261.977	66.39
262.193	41.81
262.409	45.91
262.626	76.63
262.842	45.91
263.058	-36.01
263.274	-25.77
263.49	-7.34
263.707	97.11
263.923	54.1
264.139	47.96
264.355	-89.26
264.571	37.72
264.787	-1.19
265.004	4.95
265.22	-19.63
265.436	41.81
265.652	35.67
265.868	25.43
266.084	13.14
266.3	29.52
266.516	-11.43
266.732	-1.19
266.948	-3.24
267.164	7
267.38	45.91
267.596	-13.48
267.812	80.72
268.028	90.96
268.244	-19.63
268.46	2.9
268.676	54.1
268.892	-17.58
269.108	17.24
269.324	-27.82
269.54	11.09
269.756	45.91
269.972	-9.39
270.188	80.72
270.403	35.67
270.619	37.72
270.835	37.72
271.051	33.62
271.267	4.95
271.483	9.05
271.698	78.68
271.914	-23.72
272.13	-23.72
272.346	31.57
272.562	-7.34
272.777	29.52
272.993	39.76
273.209	-33.96
273.425	45.91
273.64	52.05
273.856	-5.29
274.072	-11.43
274.287	7
274.503	101.2
274.719	76.63
274.934	-3.24
275.15	37.72
275.366	15.19
275.581	47.96
275.797	45.91
276.012	60.24
276.228	21.33
276.444	2.9
276.659	72.53
276.875	19.29
277.09	-1.19
277.306	-72.87
277.521	68.44
277.737	39.76
277.952	72.53
278.168	33.62
278.383	-13.48
278.599	-40.11
278.814	23.38
279.03	2.9
279.245	82.77
279.461	31.57
279.676	43.86
279.892	-111.78
280.107	0.85
280.322	-44.2
280.538	-7.34
280.753	-13.48
280.969	19.29
281.184	13.14
281.399	66.39
281.615	39.76
281.83	27.48
282.045	-15.53
282.26	-66.73
282.476	45.91
282.691	31.57
282.906	-21.67
283.122	-1.19
283.337	-48.3
283.552	45.91
283.767	56.15
283.983	-23.72
284.198	0.85
284.413	-36.01
284.628	-11.43
284.843	-25.77
285.058	-19.63
285.274	29.52
285.489	-7.34
285.704	-17.58
285.919	37.72
286.134	37.72
286.349	-17.58
286.564	66.39
286.779	-7.34
286.995	52.05
287.21	-33.96
287.425	39.76
287.64	-33.96
287.855	54.1
288.07	-7.34
288.285	-27.82
288.5	39.76
288.715	15.19
288.93	68.44
289.145	68.44
289.36	-11.43
289.575	0.85
289.79	-5.29
290.004	21.33
290.219	66.39
290.434	-11.43
290.649	9.05
290.864	45.91
291.079	52.05
291.294	17.24
291.509	70.48
291.724	-23.72
291.938	37.72
292.153	47.96
292.368	-27.82
292.583	4.95
292.798	-29.87
293.012	-1.19
293.227	9.05
293.442	-25.77
293.657	13.14
293.871	41.81
294.086	37.72
294.301	54.1
294.516	2.9
294.73	54.1
294.945	-44.2
295.16	-13.48
295.374	7
295.589	-3.24
295.804	-21.67
296.018	27.48
296.233	-1.19
296.447	0.85
296.662	-15.53
296.877	25.43
297.091	-5.29
297.306	-29.87
297.52	25.43
297.735	54.1
297.949	29.52
298.164	97.11
298.378	37.72
298.593	25.43
298.807	50
299.022	2.9
299.236	45.91
299.451	41.81
299.665	7
299.88	-42.15
300.094	4.95
300.309	70.48
300.523	54.1
300.737	-15.53
300.952	54.1
301.166	64.34
301.381	23.38
301.595	78.68
301.809	-72.87
302.024	-15.53
302.238	-3.24
302.452	35.67
302.667	25.43
302.881	4.95
303.095	39.76
303.309	35.67
303.524	-11.43
303.738	23.38
303.952	29.52
304.166	-33.96
304.381	-27.82
304.595	35.67
304.809	-11.43
305.023	29.52
305.237	-40.11
305.452	93.01
305.666	-42.15
305.88	25.43
306.094	43.86
306.308	13.14
306.522	15.19
306.736	29.52
306.95	37.72
307.164	82.77
307.379	35.67
307.593	-29.87
307.807	-7.34
308.021	41.81
308.235	-13.48
308.449	17.24
308.663	25.43
308.877	45.91
309.091	66.39
309.305	23.38
309.519	-7.34
309.733	21.33
309.947	11.09
310.161	27.48
310.374	-9.39
310.588	70.48
310.802	-19.63
311.016	-25.77
311.23	58.2
311.444	54.1
311.658	15.19
311.872	0.85
312.085	21.33
312.299	56.15
312.513	13.14
312.727	25.43
312.941	58.2
313.154	33.62
313.368	2.9
313.582	13.14
313.796	7
314.009	-11.43
314.223	21.33
314.437	21.33
314.651	19.29
314.864	45.91
315.078	13.14
315.292	-17.58
315.505	0.85
315.719	35.67
315.933	9.05
316.146	74.58
316.36	-40.11
316.573	17.24
316.787	0.85
317.001	25.43
317.214	-11.43
317.428	54.1
317.641	54.1
317.855	62.29
318.068	2.9
318.282	35.67
318.495	33.62
318.709	23.38
318.922	-7.34
319.136	35.67
319.349	31.57
319.563	-58.54
319.776	-19.63
319.99	-29.87
320.203	2.9
320.417	58.2
320.63	29.52
320.843	-25.77
321.057	-21.67
321.27	17.24
321.483	35.67
321.697	29.52
321.91	-27.82
322.124	-19.63
322.337	27.48
322.55	-40.11
322.763	-50.35
322.977	-40.11
323.19	54.1
323.403	-68.78
323.617	80.72
323.83	52.05
324.043	-1.19
324.256	17.24
324.469	-62.63
324.683	54.1
324.896	-17.58
325.109	43.86
325.322	-87.21
325.535	56.15
325.748	37.72
325.962	31.57
326.175	0.85
326.388	-7.34
326.601	15.19
326.814	13.14
327.027	66.39
327.24	148.31
327.453	21.33
327.666	17.24
327.879	25.43
328.092	50
328.305	25.43
328.518	13.14
328.731	25.43
328.944	13.14
329.157	-23.72
329.37	-44.2
329.583	140.12
329.796	99.16
330.009	2.9
330.222	-27.82
330.435	29.52
330.648	19.29
330.861	-9.39
331.073	45.91
331.286	13.14
331.499	29.52
331.712	-5.29
331.925	54.1
332.138	19.29
332.35	45.91
332.563	60.24
332.776	64.34
332.989	0.85
333.202	35.67
333.414	-23.72
333.627	37.72
333.84	-27.82
334.053	99.16
334.265	13.14
334.478	50
334.691	9.05
334.903	25.43
335.116	-13.48
335.329	-42.15
335.541	58.2
335.754	27.48
335.966	-27.82
336.179	-19.63
336.392	17.24
336.604	25.43
336.817	0.85
337.029	27.48
337.242	-7.34
337.454	-36.01
337.667	-5.29
337.88	33.62
338.092	-48.3
338.305	29.52
338.517	23.38
338.729	25.43
338.942	90.96
339.154	27.48
339.367	17.24
339.579	37.72
339.792	50
340.004	25.43
340.217	-19.63
340.429	33.62
340.641	33.62
340.854	-36.01
341.066	-11.43
341.278	15.19
341.491	13.14
341.703	-3.24
341.915	2.9
342.128	29.52
342.34	-40.11
342.552	15.19
342.764	25.43
342.977	-7.34
343.189	7
343.401	-33.96
343.613	7
343.826	39.76
344.038	-11.43
344.25	-11.43
344.462	64.34
344.674	-23.72
344.886	25.43
345.099	64.34
345.311	-25.77
345.523	-15.53
345.735	-60.59
345.947	60.24
346.159	-3.24
346.371	29.52
346.583	-13.48
346.795	74.58
347.007	-1.19
347.219	-17.58
347.431	-23.72
347.643	-23.72
347.855	-7.34
348.067	4.95
348.279	2.9
348.491	0.85
348.703	-19.63
348.915	93.01
349.127	0.85
349.339	58.2
349.551	-79.02
349.763	27.48
349.975	-42.15
350.187	27.48
350.399	17.24
350.61	39.76
350.822	29.52
351.034	17.24
351.246	21.33
351.458	11.09
351.669	19.29
351.881	60.24
352.093	41.81
352.305	45.91
352.517	80.72
352.728	66.39
352.94	66.39
353.152	17.24
353.363	-42.15
353.575	25.43
353.787	-1.19
353.999	27.48
354.21	43.86
354.422	45.91
354.633	13.14
354.845	23.38
355.057	-27.82
355.268	9.05
355.48	68.44
355.692	-50.35
355.903	-3.24
356.115	-3.24
356.326	-89.26
356.538	4.95
356.749	41.81
356.961	45.91
357.172	35.67
357.384	17.24
357.595	111.44
357.807	-46.25
358.018	82.77
358.23	0.85
358.441	21.33
358.653	-1.19
358.864	19.29
359.075	72.53
359.287	56.15
359.498	0.85
359.709	52.05
359.921	19.29
360.132	9.05
360.344	25.43
360.555	47.96
360.766	33.62
360.977	-29.87
361.189	35.67
361.4	27.48
361.611	45.91
361.823	-54.44
362.034	-36.01
362.245	17.24
362.456	17.24
362.667	13.14
362.879	-21.67
363.09	-42.15
363.301	52.05
363.512	-15.53
363.723	9.05
363.935	-64.68
364.146	82.77
364.357	-3.24
364.568	31.57
364.779	2.9
364.99	107.35
365.201	-11.43
365.412	76.63
365.623	2.9
365.834	39.76
366.045	41.81
366.256	0.85
366.467	58.2
366.678	84.82
366.889	25.43
367.1	0.85
367.311	-42.15
367.522	33.62
367.733	29.52
367.944	88.92
368.155	-1.19
368.366	29.52
368.577	84.82
368.788	47.96
368.999	2.9
369.209	29.52
369.42	9.05
369.631	101.2
369.842	-27.82
370.053	-7.34
370.264	47.96
370.474	27.48
370.685	93.01
370.896	64.34
371.107	21.33
371.317	39.76
371.528	-13.48
371.739	97.11
371.95	52.05
372.16	78.68
372.371	4.95
372.582	-5.29
372.792	39.76
373.003	-9.39
373.214	35.67
373.424	21.33
373.635	-1.19
373.846	107.35
374.056	41.81
374.267	0.85
374.477	19.29
374.688	-17.58
374.898	0.85
375.109	68.44
375.319	60.24
375.53	-5.29
375.74	15.19
375.951	43.86
376.161	15.19
376.372	33.62
376.582	25.43
376.793	-3.24
377.003	-15.53
377.214	-11.43
377.424	29.52
377.635	-23.72
377.845	103.25
378.055	72.53
378.266	-21.67
378.476	-19.63
378.686	54.1
378.897	74.58
379.107	62.29
379.317	45.91
379.528	-64.68
379.738	0.85
379.948	-64.68
380.158	13.14
380.369	97.11
380.579	23.38
380.789	2.9
380.999	58.2
381.21	4.95
381.42	74.58
381.63	-1.19
381.84	15.19
382.05	41.81
382.261	56.15
382.471	-21.67
382.681	-1.19
382.891	52.05
383.101	33.62
383.311	19.29
383.521	-23.72
383.731	19.29
383.941	50
384.151	-58.54
384.361	35.67
384.571	33.62
384.781	7
384.991	82.77
385.201	64.34
385.411	15.19
385.621	90.96
385.831	33.62
386.041	56.15
386.251	-3.24
386.461	54.1
386.671	84.82
386.881	11.09
387.091	-33.96
387.301	-15.53
387.511	39.76
387.72	45.91
387.93	39.76
388.14	47.96
388.35	54.1
388.56	113.49
388.769	9.05
388.979	35.67
389.189	54.1
389.399	-25.77
389.609	52.05
389.818	17.24
390.028	66.39
390.238	29.52
390.447	9.05
390.657	-9.39
390.867	-1.19
391.076	-17.58
391.286	13.14
391.496	13.14
391.705	129.88
391.915	52.05
392.125	4.95
392.334	74.58
392.544	107.35
392.753	17.24
392.963	80.72
393.172	39.76
393.382	25.43
393.591	109.4
393.801	62.29
394.01	86.87
394.22	95.06
394.429	-3.24
394.639	35.67
394.848	131.92
395.058	-33.96
395.267	-33.96
395.477	41.81
395.686	17.24
395.895	31.57
396.105	109.4
396.314	86.87
396.524	54.1
396.733	13.14
396.942	70.48
397.152	33.62
397.361	74.58
397.57	39.76
397.78	80.72
397.989	31.57
398.198	43.86
398.407	117.59
398.617	-3.24
398.826	-36.01
399.035	101.2
399.244	125.78
399.453	17.24
399.663	78.68
399.872	39.76
400.081	101.2
400.29	107.35
400.499	15.19
400.708	140.12
400.917	41.81
401.127	-7.34
401.336	64.34
401.545	90.96
401.754	113.49
401.963	52.05
402.172	76.63
402.381	41.81
402.59	52.05
402.799	72.53
403.008	90.96
403.217	170.83
403.426	176.98
403.635	47.96
403.844	35.67
404.053	39.76
404.262	39.76
404.471	119.64
404.68	56.15
404.888	86.87
405.097	86.87
405.306	176.98
405.515	107.35
405.724	142.16
405.933	183.12
406.142	60.24
406.35	168.79
406.559	119.64
406.768	88.92
406.977	166.74
407.185	68.44
407.394	179.03
407.603	97.11
407.812	199.51
408.02	103.25
408.229	179.03
408.438	179.03
408.646	123.73
408.855	176.98
409.064	197.46
409.272	136.02
409.481	236.37
409.69	166.74
409.898	140.12
410.107	181.07
410.315	174.93
410.524	156.5
410.733	217.94
410.941	244.56
411.15	199.51
411.358	201.55
411.567	219.99
411.775	260.95
411.984	254.8
412.192	291.66
412.401	316.24
412.609	322.38
412.818	324.43
413.026	375.63
413.234	312.14
413.443	299.86
413.651	394.06
413.86	428.88
414.068	312.14
414.276	420.69
414.485	326.48
414.693	445.26
414.901	469.84
415.11	486.22
415.318	416.59
415.526	473.93
415.734	527.18
415.943	521.04
416.151	508.75
416.359	518.99
416.567	539.47
416.776	498.51
416.984	684.87
417.192	660.3
417.4	656.2
417.608	652.11
417.817	705.35
418.025	762.7
418.233	840.52
418.441	762.7
418.649	842.57
418.857	844.62
419.065	863.05
419.273	842.57
419.481	920.39
419.689	951.11
419.897	938.82
420.105	930.63
420.313	985.93
420.521	1061.7
420.729	1153.86
420.937	1162.05
421.145	1235.78
421.353	1215.3
421.561	1233.73
421.769	1211.2
421.977	1372.99
422.185	1321.79
422.393	1409.86
422.601	1502.01
422.809	1485.63
423.017	1471.29
423.224	1557.31
423.432	1717.05
423.64	1655.61
423.848	1733.43
424.056	1751.87
424.263	1837.88
424.471	1841.98
424.679	1989.43
424.887	1981.24
425.094	2044.73
425.302	2083.64
425.51	2052.92
425.718	2282.29
425.925	2257.71
426.133	2296.63
426.341	2503.47
426.548	2460.46
426.756	2612.01
426.964	2509.62
427.171	2644.78
427.379	2755.37
427.586	2829.1
427.794	3027.75
428.001	3113.77
428.209	3113.77
428.417	3148.58
428.624	3402.53
428.832	3361.57
429.039	3484.45
429.247	3302.18
429.454	3771.16
429.662	3953.43
429.869	3633.95
430.076	3969.82
430.284	3906.33
430.491	4186.9
430.699	4281.11
430.906	4346.64
431.114	4434.71
431.321	4432.66
431.528	4494.1
431.736	4760.33
431.943	5001.99
432.15	5071.62
432.358	4889.35
432.565	5241.61
432.772	5284.61
432.979	5571.33
433.187	5589.76
433.394	5616.38
433.601	6095.61
433.808	6101.75
434.016	6220.53
434.223	6286.07
434.43	6619.89
434.637	6515.44
434.844	6886.12
435.052	6968.04
435.259	6900.46
435.466	7072.49
435.673	6961.9
435.88	7506.66
436.087	7926.49
436.294	7781.09
436.501	7723.74
436.708	7824.09
436.915	7973.6
437.122	8585.94
437.329	8549.07
437.537	8852.17
437.743	8805.07
437.95	8694.48
438.157	9409.22
438.364	9491.14
438.571	9593.54
438.778	9536.2
438.985	10416.82
439.192	9972.41
439.399	10271.42
439.606	10091.2
439.813	11037.36
440.02	11190.95
440.227	11129.52
440.433	11207.34
440.64	11565.73
440.847	11422.38
441.054	11774.63
441.261	12395.16
441.467	12270.23
441.674	12464.79
441.881	12950.16
442.088	12757.65
442.294	12749.46
442.501	13011.6
442.708	13531.78
442.914	13845.12
443.121	14494.33
443.328	14013.06
443.534	15202.93
443.741	14715.51
443.948	14596.73
444.154	15565.42
444.361	15565.42
444.568	15520.36
444.774	15501.93
444.981	16063.07
445.187	16407.13
445.394	16974.42
445.6	16906.84
445.807	18274.88
446.013	17719.88
446.22	17945.16
446.426	18426.43
446.633	18897.46
446.839	19669.55
447.046	18694.71
447.252	19565.1
447.459	19661.35
447.665	19589.67
447.871	20589.08
448.078	21391.89
448.284	20367.9
448.491	20804.12
448.697	21533.2
448.903	22178.31
449.11	22139.4
449.316	21778.95
449.522	22114.82
449.728	22680.06
449.935	23124.47
450.141	22915.58
450.347	23667.18
450.553	22487.55
450.76	23177.72
450.966	24031.72
451.172	23468.53
451.378	24322.53
451.584	23712.24
451.791	24375.78
451.997	24271.33
452.203	24658.4
452.409	24383.97
452.615	24805.85
452.821	23695.85
453.027	23192.05
453.233	24463.84
453.44	23312.88
453.646	23697.9
453.852	23931.37
454.058	24422.88
454.264	23828.97
454.47	24304.1
454.676	23706.09
454.882	24361.44
455.088	21991.94
455.294	22618.62
455.5	23020.02
455.705	23114.23
455.911	22215.17
456.117	21662.22
456.323	21352.98
456.529	20548.12
456.735	21307.92
456.941	20550.17
457.147	20642.33
457.352	19794.47
457.558	19634.73
457.764	19706.41
457.97	19339.82
458.176	18778.68
458.381	18473.53
458.587	17730.12
458.793	17914.44
458.999	16859.73
459.204	18178.62
459.41	17515.08
459.616	16321.12
459.821	16392.8
460.027	16710.23
460.233	16030.3
460.438	15344.24
460.644	15647.33
460.85	14772.85
461.055	14594.68
461.261	14342.78
461.466	13523.59
461.672	13103.76
461.878	13947.52
462.083	12952.21
462.289	12882.58
462.494	12563.09
462.7	11920.03
462.905	11647.65
463.111	12145.31
463.316	12303
463.522	12184.22
463.727	12108.44
463.932	11971.23
464.138	11805.35
464.343	11946.66
464.549	11543.21
464.754	11723.43
464.959	11627.17
465.165	11760.29
465.37	11193
465.575	10834.61
465.781	11381.42
465.986	11465.38
466.191	10961.58
466.397	10982.06
466.602	10205.88
466.807	10580.66
467.012	10586.8
467.218	10560.18
467.423	10529.46
467.628	10611.38
467.833	11029.17
468.038	10541.75
468.244	10185.4
468.449	10527.41
468.654	10281.66
468.859	10181.31
469.064	10083
469.269	9568.96
469.474	9880.25
469.679	10031.8
469.885	9736.9
470.09	10031.8
470.295	9753.28
470.5	9556.68
470.705	9536.2
470.91	9579.2
471.115	9429.7
471.32	9648.83
471.525	9298.63
471.73	9171.66
471.935	8966.86
472.139	8704.72
472.344	9073.35
472.549	8770.26
472.754	8841.93
472.959	8334.04
473.164	8561.36
473.369	8338.13
473.574	8620.75
473.778	8430.29
473.983	8409.81
474.188	8305.37
474.393	8162.01
474.598	8211.16
474.802	7932.64
475.007	8065.75
475.212	7885.53
475.417	7740.13
475.621	7719.65
475.826	7690.98
476.031	7537.38
476.235	7469.8
476.44	7555.81
476.645	7549.67
476.849	7416.55
477.054	7252.71
477.259	7369.44
477.463	7056.11
477.668	7056.11
477.872	7201.51
478.077	6734.57
478.282	6660.85
478.486	6675.18
478.691	6783.73
478.895	6664.94
479.1	6841.07
479.304	6601.46
479.509	6507.25
479.713	6660.85
479.918	6431.48
480.122	6400.76
480.326	6492.91
480.531	6443.76
480.735	6408.95
480.94	6320.88
481.144	6492.91
481.348	6247.16
481.553	6345.46
481.757	6109.94
481.961	6275.83
482.166	6411
482.37	6187.77
482.574	6116.09
482.778	6038.27
482.983	6370.04
483.187	6212.34
483.391	6277.88
483.595	6116.09
483.8	5995.26
484.004	6169.34
484.208	6288.12
484.412	5974.78
484.616	6163.19
484.821	6034.17
485.025	5917.44
485.229	6081.27
485.433	6298.36
485.637	6062.84
485.841	5976.83
486.045	6025.98
486.249	6103.8
486.453	6132.47
486.657	6107.9
486.861	6181.62
487.065	5956.35
487.269	6142.71
487.473	5939.96
487.677	6241.01
487.881	6208.25
488.085	6236.92
488.289	6003.45
488.493	5899
488.697	6163.19
488.901	6064.89
489.105	6165.24
489.309	6183.67
489.512	6261.49
489.716	6066.94
489.92	6161.14
490.124	6202.1
490.328	6165.24
490.531	6206.2
490.735	6202.1
490.939	6431.48
491.143	6351.6
491.346	6290.17
491.55	6411
491.754	6363.89
491.958	6562.55
492.161	6359.8
492.365	6466.29
492.569	6388.47
492.772	6419.19
492.976	6529.78
493.18	6687.47
493.383	6669.04
493.587	6759.15
493.79	6824.69
493.994	6548.21
494.197	6630.13
494.401	6863.6
494.605	6802.16
494.808	6988.52
495.012	6972.14
495.215	6822.64
495.419	7029.48
495.622	6935.28
495.825	7121.64
496.029	7221.99
496.232	7287.53
496.436	7262.95
496.639	7340.77
496.843	7346.92
497.046	7498.47
497.249	7641.82
497.453	7713.5
497.656	7801.57
497.859	7811.81
498.063	7760.61
498.266	8053.47
498.469	8032.99
498.673	8039.13
498.876	8284.89
499.079	8061.66
499.282	8299.22
499.485	8456.92
499.689	8655.57
499.892	8549.07
500.095	8659.67
500.298	8833.74
500.501	8905.42
500.705	9024.2
500.908	8956.62
501.111	9142.99
501.314	9286.34
501.517	9394.89
501.72	9321.16
501.923	9554.63
502.126	9740.99
502.329	9804.48
502.532	9886.4
502.735	9810.62
502.938	10144.44
503.141	10234.55
503.344	10269.37
503.547	10361.53
503.75	10300.09
503.953	10556.08
504.156	10752.69
504.359	10668.72
504.562	10865.33
504.765	10818.22
504.968	11227.82
505.17	11401.9
505.373	11512.49
505.576	11506.34
505.779	11748
505.982	11819.68
506.185	11920.03
506.387	12063.39
506.59	12034.72
506.793	12253.85
506.996	12462.74
507.198	12542.61
507.401	12790.42
507.604	12690.07
507.807	13146.76
508.009	13144.72
508.212	13107.85
508.415	13404.81
508.617	13410.95
508.82	13636.23
509.022	13589.13
509.225	13941.38
509.428	13873.79
509.63	14406.27
509.833	14342.78
510.035	14639.73
510.238	14764.66
510.44	14580.34
510.643	14756.47
510.845	15192.69
511.048	15045.23
511.25	15391.34
511.453	15516.26
511.655	15979.11
511.858	15825.51
512.06	15714.92
512.262	16175.71
512.465	15981.15
512.667	16484.95
512.87	16392.8
513.072	16667.22
513.274	16777.81
513.477	17085.01
513.679	17160.78
513.881	17293.9
514.084	17642.06
514.286	17621.58
514.488	17689.16
514.69	18270.78
514.893	18371.13
515.095	18258.49
515.297	18367.04
515.499	18825.78
515.701	18917.94
515.904	18973.24
516.106	19231.28
516.308	19518
516.51	19636.78
516.712	19700.26
516.914	19841.57
517.116	20423.2
517.318	20419.1
517.52	20421.15
517.722	20525.6
517.925	20886.04
518.127	20951.57
518.329	20931.09
518.531	21240.34
518.733	21410.32
518.935	21869.06
519.136	21899.78
519.338	21973.51
519.54	22266.37
519.742	22510.08
519.944	22528.51
520.146	22878.71
520.348	22847.99
520.55	23069.17
520.752	23296.5
520.954	23984.62
521.155	23765.48
521.357	23884.26
521.559	23945.7
521.761	24742.36
521.963	24437.22
522.164	24721.88
522.366	24893.91
522.568	25076.18
522.77	24928.73
522.971	25872.84
523.173	25647.57
523.375	26024.39
523.576	25631.18
523.778	25924.04
523.98	26491.33
524.181	26253.76
524.383	26464.71
524.584	26761.66
524.786	26876.35
524.988	26902.97
525.189	27064.76
525.391	27568.56
525.592	27093.43
525.794	27599.28
525.995	27570.61
526.197	27765.17
526.398	27875.76
526.6	27939.24
526.801	27830.7
527.003	28713.38
527.204	28424.61
527.406	28858.78
527.607	28613.02
527.808	28854.69
528.01	28318.12
528.211	28664.22
528.412	29329.81
528.614	29237.66
528.815	29145.5
529.016	29247.9
529.218	29448.6
529.419	29395.35
529.62	29618.58
529.822	29827.47
530.023	29927.82
530.224	29550.99
530.425	29727.12
530.626	29776.27
530.828	29487.51
531.029	30243.21
531.23	29913.48
531.431	30065.03
531.632	29624.72
531.833	30112.14
532.035	30443.91
532.236	30230.92
532.437	30544.26
532.638	30302.6
532.839	30943.61
533.04	30587.27
533.241	30189.96
533.442	30691.71
533.643	30591.36
533.844	30818.69
534.045	30693.76
534.246	30343.56
534.447	30908.8
534.648	30849.41
534.849	30894.46
535.05	30708.1
535.251	30466.44
535.451	30718.34
535.652	30808.45
535.853	31039.87
536.054	31039.87
536.255	31203.71
536.456	30804.35
536.657	31142.27
536.857	30986.62
537.058	30828.93
537.259	31154.55
537.46	31052.16
537.66	30726.53
537.861	30843.26
538.062	30808.45
538.263	30931.33
538.463	31179.13
538.664	30994.81
538.865	31138.17
539.065	31099.26
539.266	30730.62
539.466	31308.15
539.667	30859.65
539.868	31164.79
540.068	30781.82
540.269	31144.31
540.469	31080.83
540.67	31211.9
540.87	30796.16
541.071	31025.53
541.271	31025.53
541.472	31005.05
541.672	31009.15
541.873	30706.05
542.073	30751.1
542.274	31046.01
542.474	30495.11
542.675	30937.47
542.875	30982.52
543.075	30908.8
543.276	30771.58
543.476	31003
543.676	30671.23
543.877	30982.52
544.077	30681.47
544.277	31005.05
544.478	30867.84
544.678	30822.78
544.878	30636.42
545.078	31058.3
545.279	30581.12
545.479	30761.34
545.679	30605.7
545.879	31043.96
546.079	30937.47
546.28	30599.55
546.48	30294.41
546.68	30587.27
546.88	30691.71
547.08	31086.97
547.28	30880.13
547.48	30263.69
547.68	30640.51
547.88	30579.07
548.081	30792.06
548.281	30673.28
548.481	30546.31
548.681	30626.18
548.881	30800.26
549.081	30806.4
549.28	30345.61
549.48	31023.48
549.68	30386.57
549.88	31320.44
550.08	30624.13
550.28	30923.13
550.48	30812.54
550.68	30910.85
550.88	30722.43
551.08	30460.29
551.279	30892.41
551.479	30441.86
551.679	30519.68
551.879	30589.31
552.079	30796.16
552.278	30298.5
552.478	30452.1
552.678	30361.99
552.878	30968.19
553.077	30325.13
553.277	30019.98
553.477	30931.33
553.676	30450.05
553.876	30343.56
554.076	30341.51
554.275	29862.29
554.475	30105.99
554.674	30306.69
554.874	30394.76
555.074	30183.82
555.273	30396.81
555.473	30210.44
555.672	30321.03
555.872	30060.94
556.071	29985.16
556.271	30423.43
556.47	29888.91
556.67	29680.02
556.869	29804.94
557.068	30046.6
557.268	29741.46
557.467	30079.37
557.667	29565.33
557.866	29763.98
558.065	29905.29
558.265	29680.02
558.464	29571.47
558.663	29884.81
558.863	29208.98
559.062	29839.76
559.261	29217.18
559.461	29520.27
559.66	29288.85
559.859	29348.25
560.058	28955.04
560.258	29370.77
560.457	28936.6
560.656	29122.97
560.855	28942.75
561.054	29223.32
561.253	28780.96
561.453	28772.77
561.652	29077.91
561.851	29221.27
562.05	28864.92
562.249	28363.17
562.448	28924.32
562.647	28930.46
562.846	28539.3
563.045	28791.2
563.244	28514.72
563.443	28684.7
563.642	27926.96
563.841	28414.37
564.04	28074.41
564.239	28324.26
564.438	28023.21
564.637	28117.42
564.836	27742.64
565.035	27756.97
565.234	28185
565.432	28031.4
565.631	27664.82
565.83	27810.22
566.029	27648.43
566.228	27576.75
566.427	27460.02
566.625	27234.74
566.824	27042.23
567.023	27449.78
567.222	26661.31
567.42	27132.34
567.619	27261.37
567.818	26956.22
568.016	26714.56
568.215	26970.55
568.414	26960.31
568.612	27138.49
568.811	26696.13
569.01	26671.55
569.208	25977.29
569.407	26470.85
569.605	25928.14
569.804	26454.47
570.002	25981.38
570.201	26239.43
570.4	26159.56
570.598	26069.45
570.797	25934.28
570.995	25846.22
571.193	25758.16
571.392	25973.19
571.59	25596.37
571.789	25629.13
571.987	25782.73
572.186	25250.26
572.384	25272.79
572.582	25539.02
572.781	25119.19
572.979	25156.05
573.177	25336.27
573.376	25041.37
573.574	24834.52
573.772	25231.83
573.971	24912.35
574.169	24527.33
574.367	24656.35
574.565	24793.56
574.763	24289.76
574.962	24480.22
575.16	24164.84
575.358	24547.81
575.556	23937.51
575.754	24388.07
575.952	23878.12
576.151	24316.39
576.349	23833.07
576.547	24150.5
576.745	23783.91
576.943	23906.79
577.141	23554.54
577.339	23650.8
577.537	23562.73
577.735	23390.7
577.933	23441.9
578.131	23572.97
578.329	23110.13
578.527	22946.3
578.725	23142.9
578.923	23124.47
579.121	22704.63
579.319	22847.99
579.516	23054.84
579.714	23099.89
579.912	22784.51
580.11	22718.97
580.308	22856.18
580.506	22520.32
580.704	22422.02
580.901	22610.43
581.099	22473.21
581.297	22266.37
581.495	22249.99
581.692	22354.43
581.89	22000.13
582.088	22215.17
582.285	21989.89
582.483	21875.21
582.681	22094.34
582.878	21832.2
583.076	21389.84
583.274	21893.64
583.471	21492.24
583.669	21639.69
583.866	21314.06
584.064	21551.63
584.262	21205.52
584.459	21570.06
584.657	21139.99
584.854	21502.48
585.052	21058.07
585.249	21099.03
585.447	21226
585.644	20865.56
585.841	21103.12
586.039	21522.96
586.236	20732.44
586.434	20726.3
586.631	20931.09
586.828	20619.8
587.026	20574.75
587.223	20707.87
587.42	20501.02
587.618	20316.7
587.815	20302.37
588.012	20578.84
588.21	20202.02
588.407	20066.85
588.604	20126.24
588.801	19950.12
588.999	20187.68
589.196	19763.75
589.393	20173.35
589.59	19751.46
589.787	19757.61
589.984	19501.61
590.182	19876.39
590.379	19868.2
590.576	19667.5
590.773	19769.9
590.97	19481.13
591.167	19661.35
591.364	19141.17
591.561	19501.61
591.758	19386.93
591.955	19286.58
592.152	19257.9
592.349	19130.93
592.546	18893.37
592.743	18842.17
592.94	18741.82
593.137	18975.28
593.334	18891.32
593.531	18641.46
593.727	18692.66
593.924	18655.8
594.121	18532.92
594.318	18532.92
594.515	18213.44
594.712	18680.38
594.908	18063.94
595.105	18500.16
595.302	18008.64
595.499	17949.25
595.696	18199.1
595.892	18246.21
596.089	18174.53
596.286	18248.25
596.482	17922.63
596.679	17844.81
596.876	17828.42
597.072	18014.79
597.269	17613.38
597.466	17601.1
597.662	17472.07
597.859	17547.85
598.055	17388.11
598.252	17424.97
598.448	17302.09
598.645	17257.04
598.841	17111.63
599.038	17267.28
599.234	17060.43
599.431	17136.21
599.627	17064.53
599.824	17314.38
600.02	16773.72
600.217	16998.99
600.413	16953.94
600.609	16757.33
600.806	16808.53
601.002	16898.64
601.198	16716.37
601.395	16489.05
601.591	16743
601.787	16679.51
601.984	16433.75
602.18	16695.89
602.376	16239.2
602.572	16480.86
602.769	16292.44
602.965	16101.98
603.161	16204.38
603.357	16056.93
603.553	16155.23
603.75	16001.63
603.946	15948.39
604.142	16093.79
604.338	15772.26
604.534	15823.46
604.73	15641.19
604.926	15809.12
605.122	16007.78
605.318	15587.94
605.514	15551.08
605.71	15663.72
605.906	15362.67
606.102	15469.16
606.298	15493.74
606.494	15366.76
606.69	15307.37
606.886	15231.6
607.082	14998.13
607.278	15315.56
607.474	14727.8
607.67	15215.21
607.866	14830.2
608.062	15225.45
608.257	14875.25
608.453	15082.1
608.649	15012.46
608.845	14957.17
609.041	14879.35
609.236	14951.03
609.432	14965.36
609.628	14699.13
609.824	14615.16
610.019	14711.41
610.215	14885.49
610.411	14654.07
610.606	14514.81
610.802	14645.88
610.998	14590.58
611.193	14555.77
611.389	14520.95
611.584	14441.08
611.78	14342.78
611.976	14432.89
612.171	14449.27
612.367	14250.62
612.562	14350.97
612.758	14242.43
612.953	14398.07
613.149	14283.39
613.344	14027.39
613.539	14398.07
613.735	13968
613.93	14168.7
614.126	14043.78
614.321	14127.74
614.517	13853.31
614.712	13988.48
614.907	13832.83
615.103	13912.71
615.298	13777.54
615.493	14039.68
615.688	13724.29
615.884	13857.41
616.079	13783.68
616.274	13660.8
616.47	13644.42
616.665	13558.41
616.86	13443.72
617.055	13607.56
617.25	13556.36
617.445	13814.4
617.641	13341.32
617.836	13466.25
618.031	13224.59
618.226	13380.23
618.421	13369.99
618.616	13404.81
618.811	13124.24
619.006	13365.9
619.201	13142.67
619.396	13302.41
619.591	12741.27
619.786	12868.24
619.981	12989.07
620.176	13087.37
620.371	12937.87
620.566	12753.55
620.761	12722.84
620.956	12917.39
621.151	12755.6
621.346	12606.1
621.541	12501.65
621.735	12685.97
621.93	12376.73
622.125	12325.53
622.32	12182.17
622.515	12282.52
622.709	12245.66
622.904	12173.98
623.099	12204.7
623.294	12147.36
623.488	12063.39
623.683	12006.05
623.878	11786.91
624.072	11903.65
624.267	11651.75
624.462	11762.34
624.656	11428.52
624.851	11608.74
625.046	11549.35
625.24	11395.75
625.435	11375.27
625.629	11246.25
625.824	11051.69
626.018	11238.06
626.213	11047.6
626.407	11039.4
626.602	10838.7
626.796	10848.94
626.991	10943.15
627.185	10769.07
627.38	10695.35
627.574	10613.43
627.768	10615.48
627.963	10711.73
628.157	10609.33
628.352	10539.7
628.546	10328.76
628.74	10392.25
628.935	10298.04
629.129	10126.01
629.323	10136.25
629.517	10121.91
629.712	9867.97
629.906	9929.41
630.1	9908.93
630.294	10054.33
630.489	9847.49
630.683	9822.91
630.877	9628.35
631.071	9628.35
631.265	9659.07
631.459	9511.62
631.653	9525.96
631.848	9585.35
632.042	9542.34
632.236	9507.52
632.43	9378.5
632.624	9392.84
632.818	9282.25
633.012	9276.1
633.206	9067.21
633.4	9278.15
633.594	9020.11
633.788	9044.68
633.982	9130.7
634.176	9097.93
634.369	8819.41
634.563	8997.58
634.757	8760.02
634.951	8682.19
635.145	8841.93
635.339	8676.05
635.533	8692.43
635.726	8704.72
635.92	8536.79
636.114	8424.15
636.308	8438.48
636.501	8327.89
636.695	8362.71
636.889	8315.61
637.083	8067.8
637.276	8006.36
637.47	8225.5
637.664	8000.22
637.857	8108.76
638.051	8141.53
638.244	7910.11
638.438	7906.01
638.632	7969.5
638.825	7797.47
639.019	7824.09
639.212	7824.09
639.406	7668.45
639.599	7604.96
639.793	7779.04
639.986	7582.43
640.18	7596.77
640.373	7525.09
640.567	7578.34
640.76	7549.67
640.954	7434.98
641.147	7299.81
641.34	7408.36
641.534	7500.51
641.727	7332.58
641.92	7340.77
642.114	7185.13
642.307	7168.74
642.5	7131.88
642.694	7052.01
642.887	7045.87
643.08	7025.39
643.273	7035.63
643.467	7013.1
643.66	6877.93
643.853	6830.83
644.046	6857.45
644.239	6828.78
644.432	6619.89
644.626	6689.52
644.819	6693.62
645.012	6517.49
645.205	6822.64
645.398	6634.22
645.591	6589.17
645.784	6605.55
645.977	6472.43
646.17	6494.96
646.363	6468.34
646.556	6419.19
646.749	6296.31
646.942	6462.19
647.135	6181.62
647.328	6265.59
647.521	6275.83
647.714	6148.86
647.907	6241.01
648.099	6011.64
648.292	5964.54
648.485	6118.14
648.678	5946.11
648.871	6032.12
649.064	5985.02
649.256	5923.58
649.449	5849.85
649.642	5841.66
649.835	5745.41
650.027	5665.53
650.22	5798.65
650.413	5679.87
650.605	5636.86
650.798	5649.15
650.991	5524.23
651.183	5630.72
651.376	5628.67
651.568	5677.82
651.761	5483.27
651.954	5556.99
652.146	5483.27
652.339	5442.31
652.531	5421.83
652.724	5149.45
652.916	5227.27
653.109	5333.76
653.301	5378.82
653.494	5427.97
653.686	5157.64
653.879	5305.09
654.071	5227.27
654.263	5272.32
654.456	5137.16
654.648	5131.02
654.84	4950.79
655.033	4985.61
655.225	5051.14
655.417	4866.83
655.61	5030.66
655.802	5010.18
655.994	5010.18
656.186	4915.98
656.379	4954.89
656.571	4922.12
656.763	4846.35
656.955	4737.81
657.148	4854.54
657.34	4862.73
657.532	4737.81
657.724	4592.4
657.916	4563.73
658.108	4625.17
658.3	4428.56
658.492	4623.12
658.684	4367.12
658.876	4469.52
659.068	4651.79
659.26	4717.33
659.452	4543.25
659.644	4592.4
659.836	4322.07
660.028	4475.67
660.22	4393.75
660.412	4297.49
660.604	4305.68
660.796	4178.71
660.988	4309.78
661.18	4393.75
661.372	4199.19
661.563	4309.78
661.755	4254.48
661.947	4313.88
662.139	4238.1
662.331	4199.19
662.522	4238.1
662.714	4121.37
662.906	4098.84
663.097	4205.33
663.289	4053.78
663.481	3967.77
663.673	4021.02
663.864	3980.06
664.056	4080.41
664.247	3965.72
664.439	3904.28
664.631	3939.1
664.822	3904.28
665.014	3891.99
665.205	3898.14
665.397	3961.62
665.588	3762.97
665.78	3760.92
665.971	3900.19
666.163	3887.9
666.354	3830.55
666.546	3744.54
666.737	3623.71
666.929	3592.99
667.12	3851.03
667.311	3765.02
667.503	3699.48
667.694	3771.16
667.885	3818.27
668.077	3799.84
668.268	3627.81
668.459	3576.61
668.651	3474.21
668.842	3592.99
669.033	3494.69
669.224	3482.4
669.416	3601.18
669.607	3449.63
669.798	3443.49
669.989	3658.53
670.18	3564.32
670.371	3523.36
670.563	3482.4
670.754	3459.87
670.945	3474.21
671.136	3486.5
671.327	3410.72
671.518	3429.15
671.709	3367.71
671.9	3308.32
672.091	3400.48
672.282	3427.11
672.473	3138.34
672.664	3349.28
672.855	3416.87
673.046	3236.64
673.237	3349.28
673.428	3314.47
673.619	3316.51
673.809	3242.79
674	3334.95
674.191	3380
674.382	3269.41
674.573	3193.64
674.764	3265.32
674.954	3339.04
675.145	3093.29
675.336	3173.16
675.527	3162.92
675.717	3343.14
675.908	3097.38
676.099	3156.77
676.289	3181.35
676.48	3083.05
676.671	3105.57
676.861	3074.85
677.052	3001.13
677.243	3095.33
677.433	3130.15
677.624	3091.24
677.814	3103.53
678.005	3306.27
678.195	3232.55
678.386	3054.37
678.576	3083.05
678.767	2923.3
678.957	3171.11
679.148	3130.15
679.338	3148.58
679.529	3169.06
679.719	3091.24
679.909	3025.7
680.1	3070.76
680.29	3078.95
680.481	3068.71
680.671	3064.61
680.861	2982.7
681.052	3074.85
681.242	3150.63
681.432	3048.23
681.622	3007.27
681.813	3009.32
682.003	2984.74
682.193	3037.99
682.383	2945.83
682.573	2939.69
682.764	2972.46
682.954	3021.61
683.144	3097.38
683.334	2900.78
683.524	2943.78
683.714	3044.13
683.904	2937.64
684.094	2855.72
684.284	3031.85
684.474	2884.39
684.664	3078.95
684.854	2980.65
685.044	2884.39
685.234	2943.78
685.424	2941.74
685.614	2951.98
685.804	2908.97
685.994	2958.12
686.184	2994.98
686.374	2841.39
686.564	2855.72
686.753	2839.34
686.943	2908.97
687.133	2825
687.323	2904.87
687.513	2843.43
687.702	2761.52
687.892	2667.31
688.082	2736.94
688.272	2851.63
688.461	2698.03
688.651	2859.82
688.841	2859.82
689.03	2716.46
689.22	2769.71
689.41	2700.08
689.599	2581.29
689.789	2745.13
689.979	2691.88
690.168	2667.31
690.358	2612.01
690.547	2548.53
690.737	2618.16
690.926	2587.44
691.116	2526
691.305	2704.17
691.495	2478.9
691.684	2468.66
691.874	2521.9
692.063	2628.4
692.252	2671.4
692.442	2640.69
692.631	2456.37
692.82	2407.22
693.01	2571.05
693.199	2648.88
693.388	2405.17
693.578	2560.81
693.767	2485.04
693.956	2454.32
694.146	2374.45
694.335	2462.51
694.524	2384.69
694.713	2378.55
694.902	2343.73
695.092	2538.29
695.281	2351.92
695.47	2411.31
695.659	2374.45
695.848	2433.84
696.037	2399.02
696.226	2347.83
696.415	2399.02
696.604	2407.22
696.793	2364.21
696.982	2411.31
697.171	2450.22
697.36	2372.4
697.549	2310.96
697.738	2302.77
697.927	2429.74
698.116	2374.45
698.305	2337.59
698.494	2351.92
698.683	2280.24
698.872	2296.63
699.061	2308.91
699.25	2319.15
699.438	2313.01
699.627	2384.69
699.816	2405.17
700.005	2341.68
700.193	2343.73
700.382	2253.62
700.571	2345.78
700.76	2327.35
700.948	2368.31
701.137	2431.79
701.326	2407.22
701.514	2364.21
701.703	2390.83
701.892	2175.8
702.08	2364.21
702.269	2380.59
702.457	2372.4
702.646	2298.67
702.834	2317.11
703.023	2300.72
703.212	2386.74
703.4	2298.67
703.589	2179.89
703.777	2300.72
703.965	2286.39
704.154	2327.35
704.342	2315.06
704.531	2247.48
704.719	2247.48
704.907	2237.24
705.096	2315.06
705.284	2378.55
705.472	2386.74
705.661	2286.39
705.849	2362.16
706.037	2415.41
706.226	2331.44
706.414	2329.39
706.602	2310.96
706.79	2413.36
706.979	2394.93
707.167	2353.97
707.355	2186.04
707.543	2306.87
707.731	2317.11
707.919	2358.07
708.107	2169.65
708.296	2282.29
708.484	2319.15
708.672	2329.39
708.86	2243.38
709.048	2313.01
709.236	2280.24
709.424	2327.35
709.612	2183.99
709.8	2224.95
709.988	2243.38
710.176	2274.1
710.364	2313.01
710.551	2222.9
710.739	2306.87
710.927	2386.74
711.115	2288.43
711.303	2296.63
711.491	2274.1
711.679	2380.59
711.866	2442.03
712.054	2337.59
712.242	2263.86
712.43	2286.39
712.617	2302.77
712.805	2335.54
712.993	2370.35
713.181	2220.85
713.368	2376.5
713.556	2380.59
713.744	2550.57
713.931	2351.92
714.119	2296.63
714.306	2427.7
714.494	2366.26
714.682	2315.06
714.869	2310.96
715.057	2478.9
715.244	2276.15
715.432	2292.53
715.619	2259.76
715.807	2409.26
715.994	2376.5
716.182	2341.68
716.369	2280.24
716.556	2433.84
716.744	2308.91
716.931	2382.64
717.119	2417.46
717.306	2343.73
717.493	2444.08
717.681	2511.66
717.868	2444.08
718.055	2325.3
718.242	2345.78
718.43	2333.49
718.617	2327.35
718.804	2349.87
718.991	2351.92
719.179	2495.28
719.366	2450.22
719.553	2411.31
719.74	2347.83
719.927	2450.22
720.114	2308.91
720.301	2372.4
720.488	2378.55
720.676	2431.79
720.863	2505.52
721.05	2489.14
721.237	2444.08
721.424	2315.06
721.611	2396.98
721.798	2435.89
721.985	2409.26
722.172	2437.94
722.358	2396.98
722.545	2485.04
722.732	2450.22
722.919	2493.23
723.106	2446.13
723.293	2435.89
723.48	2403.12
723.667	2349.87
723.853	2356.02
724.04	2597.68
724.227	2317.11
724.414	2515.76
724.6	2458.42
724.787	2448.18
724.974	2433.84
725.161	2476.85
725.347	2417.46
725.534	2466.61
725.72	2505.52
725.907	2456.37
726.094	2442.03
726.28	2521.9
726.467	2546.48
726.653	2581.29
726.84	2503.47
727.027	2646.83
727.213	2415.41
727.4	2579.25
727.586	2347.83
727.773	2495.28
727.959	2425.65
728.145	2476.85
728.332	2409.26
728.518	2509.62
728.705	2624.3
728.891	2552.62
729.077	2487.09
729.264	2554.67
729.45	2421.55
729.636	2560.81
729.823	2335.54
730.009	2435.89
730.195	2452.27
730.382	2423.6
730.568	2444.08
730.754	2425.65
730.94	2583.34
731.126	2593.58
731.313	2554.67
731.499	2523.95
731.685	2542.38
731.871	2446.13
732.057	2468.66
732.243	2446.13
732.429	2542.38
732.615	2487.09
732.801	2550.57
732.987	2442.03
733.173	2665.26
733.359	2540.33
733.545	2544.43
733.731	2526
733.917	2605.87
734.103	2575.15
734.289	2464.56
734.475	2544.43
734.661	2517.81
734.847	2513.71
735.033	2519.85
735.219	2485.04
735.404	2554.67
735.59	2669.36
735.776	2499.38
735.962	2566.96
736.148	2587.44
736.333	2548.53
736.519	2655.02
736.705	2710.32
736.89	2532.14
737.076	2609.97
737.262	2544.43
737.447	2423.6
737.633	2487.09
737.819	2536.24
738.004	2558.77
738.19	2640.69
738.375	2513.71
738.561	2497.33
738.747	2523.95
738.932	2429.74
739.118	2513.71
739.303	2517.81
739.489	2550.57
739.674	2571.05
739.859	2632.49
740.045	2526
740.23	2548.53
740.416	2409.26
740.601	2476.85
740.786	2511.66
740.972	2521.9
741.157	2487.09
741.342	2517.81
741.528	2333.49
741.713	2446.13
741.898	2528.05
742.084	2392.88
742.269	2413.36
742.454	2482.99
742.639	2472.75
742.824	2296.63
743.01	2442.03
743.195	2421.55
743.38	2364.21
743.565	2388.78
743.75	2388.78
743.935	2358.07
744.12	2487.09
744.305	2392.88
744.49	2405.17
744.675	2290.48
744.86	2343.73
745.045	2278.19
745.23	2294.58
745.415	2208.56
745.6	2298.67
745.785	2288.43
745.97	2227
746.155	2319.15
746.34	2198.32
746.525	2255.67
746.71	2313.01
746.895	2177.84
747.079	2159.41
747.264	2198.32
747.449	2155.32
747.634	2114.36
747.819	2114.36
748.003	2161.46
748.188	2097.97
748.373	2106.17
748.557	2050.87
748.742	2038.58
748.927	2024.25
749.111	1991.48
749.296	2087.73
749.481	2050.87
749.665	2161.46
749.85	2016.05
750.034	2046.77
750.219	1979.19
750.404	1966.9
750.588	2001.72
750.773	1864.5
750.957	1934.14
751.141	2034.49
751.326	1938.23
751.51	1866.55
751.695	1917.75
751.879	1907.51
752.064	1950.52
752.248	1798.97
752.432	1979.19
752.617	1758.01
752.801	1837.88
752.985	1917.75
753.17	1872.7
753.354	1829.69
753.538	1790.78
753.722	1815.35
753.907	1784.63
754.091	1737.53
754.275	1674.04
754.459	1790.78
754.643	1766.2
754.828	1729.34
755.012	1739.58
755.196	1620.8
755.38	1721.15
755.564	1598.27
755.748	1737.53
755.932	1610.56
756.116	1549.12
756.3	1612.6
756.484	1655.61
756.668	1506.11
756.852	1588.03
757.036	1622.84
757.22	1506.11
757.404	1575.74
757.588	1463.1
757.772	1473.34
757.956	1518.4
758.14	1565.5
758.323	1526.59
758.507	1475.39
758.691	1522.49
758.875	1573.69
759.059	1522.49
759.242	1454.91
759.426	1454.91
759.61	1485.63
759.794	1401.66
759.977	1399.62
760.161	1430.34
760.345	1459.01
760.528	1375.04
760.712	1450.82
760.895	1465.15
761.079	1286.98
761.263	1397.57
761.446	1385.28
761.63	1293.12
761.813	1405.76
761.997	1334.08
762.18	1332.03
762.364	1332.03
762.547	1198.92
762.731	1303.36
762.914	1338.18
763.098	1186.63
763.281	1342.27
763.464	1225.54
763.648	1215.3
763.831	1280.83
764.015	1332.03
764.198	1174.34
764.381	1194.82
764.564	1229.63
764.748	1205.06
764.931	1198.92
765.114	1264.45
765.297	1174.34
765.481	1280.83
765.664	1143.62
765.847	1194.82
766.03	1121.09
766.213	1207.11
766.397	1141.57
766.58	1110.85
766.763	1192.77
766.946	1166.15
767.129	1170.24
767.312	1119.04
767.495	1192.77
767.678	1076.04
767.861	1145.67
768.044	1174.34
768.227	1061.7
768.41	1211.2
768.593	1123.14
768.776	1043.27
768.959	994.12
769.142	1104.71
769.324	1039.17
769.507	1018.69
769.69	1020.74
769.873	1026.89
770.056	1090.37
770.239	992.07
770.421	1037.13
770.604	1000.26
770.787	1043.27
770.97	1047.37
771.152	1028.93
771.335	1080.13
771.518	1037.13
771.7	1012.55
771.883	975.69
772.066	967.49
772.248	963.4
772.431	1035.08
772.613	932.68
772.796	904.01
772.978	934.73
773.161	1012.55
773.343	922.44
773.526	947.01
773.708	904.01
773.891	922.44
774.073	977.73
774.256	985.93
774.438	926.54
774.621	953.16
774.803	934.73
774.985	926.54
775.168	797.51
775.35	781.13
775.532	901.96
775.715	852.81
775.897	858.95
776.079	856.9
776.261	854.86
776.444	756.55
776.626	889.67
776.808	873.29
776.99	766.79
777.173	817.99
777.355	807.75
777.537	840.52
777.719	811.85
777.901	725.83
778.083	721.74
778.265	721.74
778.447	783.18
778.629	715.59
778.811	693.07
778.993	758.6
779.175	832.33
779.357	668.49
779.539	656.2
779.721	713.55
779.903	793.42
780.085	697.16
780.267	611.15
780.449	760.65
780.631	750.41
780.812	662.35
780.994	719.69
781.176	697.16
781.358	678.73
781.54	625.48
781.721	633.68
781.903	664.4
782.085	537.42
782.267	629.58
782.448	621.39
782.63	658.25
782.812	650.06
782.993	562
783.175	586.57
783.357	594.76
783.538	564.04
783.72	510.8
783.901	576.33
784.083	492.37
784.264	611.15
784.446	529.23
784.627	498.51
784.809	635.72
784.99	527.18
785.172	484.17
785.353	557.9
785.535	545.61
785.716	478.03
785.897	551.76
786.079	484.17
786.26	529.23
786.441	494.41
786.623	523.09
786.804	514.89
786.985	490.32
787.167	478.03
787.348	510.8
787.529	486.22
787.71	478.03
787.891	494.41
788.073	457.55
788.254	494.41
788.435	394.06
788.616	482.13
788.797	455.5
788.978	455.5
789.159	410.45
789.34	377.68
789.522	420.69
789.703	484.17
789.884	455.5
790.065	449.36
790.246	480.08
790.427	488.27
790.607	453.45
790.788	461.65
790.969	357.2
791.15	406.35
791.331	424.78
791.512	381.78
791.693	375.63
791.874	400.21
792.054	469.84
792.235	398.16
792.416	299.86
792.597	369.49
792.778	394.06
792.958	410.45
793.139	349.01
793.32	340.82
793.5	351.06
793.681	447.31
793.862	377.68
794.042	328.53
794.223	306
794.404	404.3
794.584	320.34
794.765	377.68
794.945	310.1
795.126	342.86
795.306	373.58
795.487	398.16
795.667	297.81
795.848	312.14
796.028	281.43
796.209	258.9
796.389	295.76
796.57	308.05
796.75	338.77
796.93	373.58
797.111	287.57
797.291	285.52
797.471	291.66
797.652	369.49
797.832	322.38
798.012	332.62
798.192	267.09
798.373	312.14
798.553	336.72
798.733	299.86
798.913	361.3
799.093	205.65
799.274	342.86
799.454	351.06
799.634	293.71
799.814	297.81
799.994	244.56
800.174	273.23
800.354	299.86
800.534	256.85
800.714	279.38
800.894	277.33
801.074	187.22
801.254	287.57
801.434	293.71
801.614	273.23
801.794	222.03
801.974	596.81
802.154	242.51
802.334	250.71
802.514	277.33
802.693	213.84
802.873	181.07
803.053	287.57
803.233	303.95
803.413	262.99
803.592	199.51
803.772	258.9
803.952	234.32
804.131	185.17
804.311	275.28
804.491	297.81
804.67	244.56
804.85	248.66
805.03	193.36
805.209	256.85
805.389	285.52
805.568	181.07
805.748	191.31
805.928	203.6
806.107	238.42
806.287	168.79
806.466	260.95
806.646	217.94
806.825	140.12
807.004	219.99
807.184	281.43
807.363	234.32
807.543	254.8
807.722	242.51
807.901	211.79
808.081	193.36
808.26	160.59
808.439	179.03
808.619	172.88
808.798	201.55
808.977	248.66
809.156	215.89
809.336	258.9
809.515	242.51
809.694	226.13
809.873	224.08
810.052	238.42
810.231	211.79
810.411	105.3
810.59	193.36
810.769	166.74
810.948	262.99
811.127	140.12
811.306	123.73
811.485	185.17
811.664	226.13
811.843	103.25
812.022	131.92
812.201	219.99
812.38	156.5
812.559	174.93
812.737	78.68
812.916	189.27
813.095	127.83
813.274	183.12
813.453	271.19
813.632	181.07
813.811	162.64
813.989	138.07
814.168	154.45
814.347	193.36
814.526	146.26
814.704	123.73
814.883	150.36
815.062	107.35
815.24	150.36
815.419	133.97
815.598	156.5
815.776	179.03
815.955	105.3
816.133	144.21
816.312	138.07
816.49	179.03
816.669	162.64
816.847	66.39
817.026	158.55
817.204	111.44
817.383	123.73
817.561	166.74
817.74	236.37
817.918	125.78
818.097	152.4
818.275	127.83
818.453	166.74
818.632	58.2
818.81	115.54
818.988	172.88
819.167	142.16
819.345	43.86
819.523	144.21
819.701	136.02
819.879	117.59
820.058	144.21
820.236	107.35
820.414	154.45
820.592	90.96
820.77	136.02
820.948	64.34
821.127	82.77
821.305	176.98
821.483	172.88
821.661	80.72
821.839	119.64
822.017	101.2
822.195	11.09
822.373	56.15
822.551	125.78
822.729	152.4
822.907	162.64
823.085	115.54
823.262	142.16
823.44	136.02
823.618	60.24
823.796	205.65
823.974	47.96
824.152	129.88
824.329	113.49
824.507	168.79
824.685	119.64
824.863	152.4
825.04	123.73
825.218	125.78
825.396	80.72
825.574	121.68
825.751	111.44
825.929	76.63
826.107	76.63
826.284	111.44
826.462	127.83
826.639	117.59
826.817	72.53
826.994	164.69
827.172	60.24
827.349	111.44
827.527	95.06
827.704	90.96
827.882	154.45
828.059	47.96
828.237	138.07
828.414	127.83
828.591	90.96
828.769	52.05
828.946	131.92
829.124	168.79
829.301	84.82
829.478	90.96
829.655	27.48
829.833	54.1
830.01	33.62
830.187	62.29
830.364	82.77
830.542	142.16
830.719	138.07
830.896	115.54
831.073	93.01
831.25	84.82
831.427	64.34
831.604	56.15
831.782	109.4
831.959	146.26
832.136	140.12
832.313	136.02
832.49	78.68
832.667	174.93
832.844	58.2
833.021	162.64
833.198	52.05
833.374	62.29
833.551	41.81
833.728	109.4
833.905	154.45
834.082	80.72
834.259	86.87
834.436	78.68
834.612	-27.82
834.789	25.43
834.966	9.05
835.143	70.48
835.319	88.92
835.496	72.53
835.673	80.72
835.85	78.68
836.026	84.82
836.203	27.48
836.38	84.82
836.556	45.91
836.733	11.09
836.909	72.53
837.086	25.43
837.262	33.62
837.439	58.2
837.616	93.01
837.792	84.82
837.968	70.48
838.145	-7.34
838.321	60.24
838.498	60.24
838.674	45.91
838.851	142.16
839.027	-9.39
839.203	23.38
839.38	82.77
839.556	9.05
839.732	103.25
839.909	58.2
840.085	105.3
840.261	54.1
840.437	80.72
840.614	-9.39
840.79	115.54
840.966	60.24
841.142	133.97
841.318	103.25
841.494	33.62
841.671	52.05
841.847	-27.82
842.023	23.38
842.199	152.4
842.375	43.86
842.551	70.48
842.727	47.96
842.903	78.68
843.079	52.05
843.255	107.35
843.431	31.57
843.607	-9.39
843.783	-48.3
843.959	68.44
844.134	50
844.31	84.82
844.486	56.15
844.662	25.43
844.838	11.09
845.013	82.77
845.189	88.92
845.365	107.35
845.541	39.76
845.716	80.72
845.892	146.26
846.068	13.14
846.244	4.95
846.419	43.86
846.595	47.96
846.77	117.59
846.946	54.1
847.122	41.81
847.297	25.43
847.473	70.48
847.648	54.1
847.824	11.09
847.999	-5.29
848.175	2.9
848.35	-13.48
848.526	13.14
848.701	4.95
848.876	54.1
849.052	33.62
849.227	45.91
849.403	43.86
849.578	90.96
849.753	47.96
849.929	11.09
850.104	72.53
850.279	47.96
850.454	52.05
850.63	39.76
850.805	4.95
850.98	4.95
851.155	17.24
851.33	25.43
851.505	23.38
851.681	39.76
851.856	125.78
852.031	-17.58
852.206	58.2
852.381	39.76
852.556	21.33
852.731	45.91
852.906	0.85
853.081	74.58
853.256	-42.15
853.431	7
853.606	11.09
853.781	-25.77
853.956	-91.31
854.131	78.68
854.305	54.1
854.48	52.05
854.655	-36.01
854.83	27.48
855.005	-11.43
855.18	-15.53
855.354	64.34
855.529	27.48
855.704	-21.67
855.879	-9.39
856.053	45.91
856.228	2.9
856.403	-7.34
856.577	133.97
856.752	-50.35
856.926	-13.48
857.101	19.29
857.276	45.91
857.45	39.76
857.625	82.77
857.799	58.2
857.974	52.05
858.148	-27.82
858.323	37.72
858.497	-17.58
858.672	117.59
858.846	-13.48
859.02	27.48
859.195	-11.43
859.369	37.72
859.543	27.48
859.718	52.05
859.892	37.72
860.066	17.24
860.241	25.43
860.415	11.09
860.589	-13.48
860.763	7
860.938	-21.67
861.112	74.58
861.286	66.39
861.46	27.48
861.634	29.52
861.808	82.77
861.982	19.29
862.157	41.81
862.331	37.72
862.505	95.06
862.679	-52.39
862.853	15.19
863.027	-27.82
863.201	58.2
863.375	-52.39
863.549	60.24
863.722	-7.34
863.896	39.76
864.07	13.14
864.244	23.38
864.418	-3.24
864.592	23.38
864.766	-3.24
864.939	-21.67
865.113	-21.67
865.287	35.67
865.461	-48.3
865.634	17.24
865.808	35.67
865.982	21.33
866.156	-3.24
866.329	45.91
866.503	54.1
866.676	19.29
866.85	-19.63
867.024	41.81
867.197	78.68
867.371	23.38
867.544	56.15
867.718	0.85
867.891	-17.58
868.065	-7.34
868.238	-15.53
868.412	-17.58
868.585	0.85
868.759	-44.2
868.932	43.86
869.105	-33.96
869.279	-52.39
869.452	39.76
869.625	-1.19
869.799	-93.35
869.972	-54.44
870.145	15.19
870.319	35.67
870.492	-27.82
870.665	7
870.838	-23.72
871.011	64.34
871.185	-31.91
871.358	-68.78
871.531	76.63
871.704	68.44
871.877	88.92
872.05	33.62
872.223	-29.87
872.396	13.14
872.569	41.81
872.742	-23.72
872.915	2.9
873.088	-58.54
873.261	-38.06
873.434	-21.67
873.607	-23.72
873.78	-42.15
873.953	7
874.126	21.33
874.299	72.53
874.471	47.96
874.644	29.52
874.817	-5.29
874.99	68.44
875.163	23.38
875.335	-5.29
875.508	25.43
875.681	-15.53
875.853	4.95
876.026	74.58
876.199	29.52
876.371	-13.48
876.544	-13.48
876.717	74.58
876.889	-25.77
877.062	33.62
877.234	-40.11
877.407	7
877.579	29.52
877.752	58.2
877.924	39.76
878.097	-52.39
878.269	-25.77
878.442	-13.48
878.614	45.91
878.786	27.48
878.959	9.05
879.131	-15.53
879.303	-66.73
879.476	-3.24
879.648	54.1
879.82	-31.91
879.993	-27.82
880.165	-31.91
880.337	41.81
880.509	72.53
880.681	4.95
880.854	9.05
881.026	56.15
881.198	29.52
881.37	-33.96
881.542	66.39
881.714	-33.96
881.886	93.01
882.058	-72.87
882.23	68.44
882.402	-40.11
882.574	11.09
882.746	45.91
882.918	19.29
883.09	0.85
883.262	56.15
883.434	9.05
883.606	-46.25
883.778	-33.96
883.95	101.2
884.122	17.24
884.293	4.95
884.465	-15.53
884.637	7
884.809	70.48
884.98	-60.59
885.152	9.05
885.324	-1.19
885.496	-95.4
885.667	-89.26
885.839	-74.92
886.011	56.15
886.182	-54.44
886.354	13.14
886.525	-48.3
886.697	19.29
886.869	82.77
887.04	15.19
887.212	29.52
887.383	27.48
887.555	-40.11
887.726	-44.2
887.897	7
888.069	-29.87
888.24	-46.25
888.412	-7.34
888.583	-11.43
888.754	25.43
888.926	-56.49
889.097	60.24
889.268	-58.54
889.44	11.09
889.611	-17.58
889.782	-3.24
889.953	43.86
890.125	4.95
890.296	-62.63
890.467	0.85
890.638	-60.59
890.809	27.48
890.98	-29.87
891.151	45.91
891.323	-13.48
891.494	66.39
891.665	39.76
891.836	23.38
892.007	-7.34
892.178	-7.34
892.349	-13.48
892.52	21.33
892.691	-68.78
892.862	-13.48
893.032	-64.68
893.203	-33.96
893.374	31.57
893.545	-19.63
893.716	13.14
893.887	62.29
894.057	47.96
894.228	25.43
894.399	-5.29
894.57	58.2
894.74	-5.29
894.911	25.43
895.082	-21.67
895.253	-15.53
895.423	-21.67
895.594	74.58
895.764	-5.29
895.935	11.09
896.106	9.05
896.276	-36.01
896.447	-36.01
896.617	25.43
896.788	29.52
896.958	4.95
897.129	-9.39
897.299	-31.91
897.47	9.05
897.64	2.9
897.81	-23.72
897.981	-19.63
898.151	-19.63
898.322	68.44
898.492	33.62
898.662	-5.29
898.832	-7.34
899.003	-36.01
899.173	-21.67
899.343	4.95
899.513	-93.35
