Data from USB4F104151__41__11-45-04-030.txt Node

Date: Fri Mar 14 11:45:04 EDT 2025
User: louis
Spectrometer: USB4F10415
Trigger mode: 4
Integration Time (sec): 2.000000E-2
Scans to average: 1
Electric dark correction enabled: true
Nonlinearity correction enabled: false
Boxcar width: 0
XAxis mode: Wavelengths
Number of Pixels in Spectrum: 3648
>>>>>Begin Spectral Data<<<<<
178.204	-68.61
178.424	-68.61
178.644	-68.61
178.864	-44.03
179.084	-64.51
179.304	41.98
179.524	-3.07
179.744	-64.51
179.964	-33.79
180.184	27.65
180.404	11.26
180.624	58.37
180.844	48.13
181.064	-48.13
181.283	17.41
181.503	-48.13
181.723	-7.17
181.943	-3.07
182.163	44.03
182.383	-41.98
182.602	44.03
182.822	29.7
183.042	-35.84
183.262	-33.79
183.482	-82.94
183.701	-41.98
183.921	33.79
184.141	54.27
184.361	82.94
184.58	11.26
184.8	15.36
185.02	-1.02
185.239	11.26
185.459	3.07
185.679	11.26
185.898	-1.02
186.118	-11.26
186.338	-48.13
186.557	48.13
186.777	-58.37
186.997	-46.08
187.216	-27.65
187.436	87.04
187.655	-1.02
187.875	25.6
188.095	44.03
188.314	87.04
188.534	-48.13
188.753	-21.5
188.973	17.41
189.192	41.98
189.412	-33.79
189.631	78.85
189.851	-17.41
190.07	19.46
190.29	50.18
190.509	-33.79
190.729	-3.07
190.948	56.32
191.168	76.8
191.387	27.65
191.607	-29.7
191.826	-17.41
192.045	33.79
192.265	19.46
192.484	13.31
192.704	25.6
192.923	25.6
193.142	19.46
193.362	23.55
193.581	72.7
193.8	72.7
194.02	33.79
194.239	-25.6
194.458	-27.65
194.678	9.22
194.897	7.17
195.116	-17.41
195.335	19.46
195.555	44.03
195.774	15.36
195.993	54.27
196.212	70.65
196.432	9.22
196.651	15.36
196.87	25.6
197.089	107.52
197.308	-5.12
197.528	-89.09
197.747	-33.79
197.966	-29.7
198.185	-17.41
198.404	-19.46
198.623	29.7
198.842	21.5
199.062	15.36
199.281	31.74
199.5	35.84
199.719	13.31
199.938	29.7
200.157	9.22
200.376	-17.41
200.595	54.27
200.814	33.79
201.033	7.17
201.252	60.42
201.471	11.26
201.69	-1.02
201.909	152.57
202.128	7.17
202.347	19.46
202.566	-7.17
202.785	-74.75
203.004	-23.55
203.223	52.22
203.442	37.89
203.661	-33.79
203.879	25.6
204.098	-27.65
204.317	1.02
204.536	76.8
204.755	9.22
204.974	66.56
205.193	60.42
205.411	-23.55
205.63	5.12
205.849	7.17
206.068	80.89
206.287	-21.5
206.505	13.31
206.724	113.66
206.943	-5.12
207.162	19.46
207.381	-72.7
207.599	-3.07
207.818	37.89
208.037	-46.08
208.255	15.36
208.474	-21.5
208.693	-25.6
208.911	-3.07
209.13	7.17
209.349	23.55
209.567	-15.36
209.786	48.13
210.005	-9.22
210.223	3.07
210.442	-50.18
210.661	68.61
210.879	-19.46
211.098	3.07
211.316	-80.89
211.535	-13.31
211.753	7.17
211.972	25.6
212.191	17.41
212.409	21.5
212.628	-5.12
212.846	-68.61
213.065	48.13
213.283	-50.18
213.502	-113.66
213.72	-7.17
213.938	27.65
214.157	-7.17
214.375	-48.13
214.594	-19.46
214.812	-13.31
215.031	17.41
215.249	-27.65
215.467	-35.84
215.686	-31.74
215.904	64.51
216.122	-27.65
216.341	33.79
216.559	-15.36
216.778	70.65
216.996	-56.32
217.214	29.7
217.432	-1.02
217.651	15.36
217.869	-27.65
218.087	54.27
218.306	48.13
218.524	91.13
218.742	31.74
218.96	3.07
219.179	-39.94
219.397	-7.17
219.615	9.22
219.833	-52.22
220.051	-15.36
220.27	25.6
220.488	-29.7
220.706	-35.84
220.924	-103.42
221.142	-44.03
221.36	11.26
221.578	-56.32
221.796	-1.02
222.015	7.17
222.233	9.22
222.451	39.94
222.669	-1.02
222.887	-33.79
223.105	-11.26
223.323	5.12
223.541	27.65
223.759	-17.41
223.977	-44.03
224.195	56.32
224.413	-70.65
224.631	21.5
224.849	-3.07
225.067	5.12
225.285	-29.7
225.503	1.02
225.721	-23.55
225.939	21.5
226.157	35.84
226.375	52.22
226.592	31.74
226.81	29.7
227.028	78.85
227.246	58.37
227.464	72.7
227.682	78.85
227.9	101.37
228.117	87.04
228.335	-1.02
228.553	3.07
228.771	-35.84
228.989	13.31
229.206	-9.22
229.424	3.07
229.642	-35.84
229.86	-46.08
230.077	9.22
230.295	21.5
230.513	7.17
230.731	48.13
230.948	39.94
231.166	58.37
231.384	-50.18
231.601	13.31
231.819	13.31
232.037	19.46
232.254	-25.6
232.472	5.12
232.689	3.07
232.907	64.51
233.125	23.55
233.342	-1.02
233.56	-39.94
233.777	-76.8
233.995	-27.65
234.213	23.55
234.43	60.42
234.648	27.65
234.865	15.36
235.083	-9.22
235.3	-11.26
235.518	-50.18
235.735	52.22
235.953	5.12
236.17	5.12
236.388	-11.26
236.605	-13.31
236.822	19.46
237.04	64.51
237.257	-3.07
237.475	9.22
237.692	13.31
237.909	1.02
238.127	-11.26
238.344	27.65
238.562	-52.22
238.779	-70.65
238.996	-21.5
239.214	7.17
239.431	99.33
239.648	-37.89
239.865	-5.12
240.083	9.22
240.3	13.31
240.517	21.5
240.735	41.98
240.952	58.37
241.169	25.6
241.386	54.27
241.603	-11.26
241.821	-50.18
242.038	-15.36
242.255	7.17
242.472	-25.6
242.689	-11.26
242.907	-5.12
243.124	17.41
243.341	3.07
243.558	-89.09
243.775	13.31
243.992	3.07
244.209	-25.6
244.426	39.94
244.643	-5.12
244.86	3.07
245.078	-23.55
245.295	23.55
245.512	52.22
245.729	93.18
245.946	19.46
246.163	21.5
246.38	-89.09
246.597	23.55
246.814	-31.74
247.031	-44.03
247.248	15.36
247.464	27.65
247.681	17.41
247.898	1.02
248.115	58.37
248.332	-7.17
248.549	52.22
248.766	39.94
248.983	37.89
249.2	68.61
249.417	27.65
249.633	37.89
249.85	-13.31
250.067	-44.03
250.284	56.32
250.501	33.79
250.717	19.46
250.934	84.99
251.151	33.79
251.368	62.46
251.585	72.7
251.801	-17.41
252.018	7.17
252.235	23.55
252.451	-7.17
252.668	5.12
252.885	44.03
253.102	-107.52
253.318	11.26
253.535	-17.41
253.752	13.31
253.968	-9.22
254.185	-54.27
254.401	-37.89
254.618	23.55
254.835	9.22
255.051	76.8
255.268	35.84
255.484	27.65
255.701	-9.22
255.917	39.94
256.134	27.65
256.351	37.89
256.567	-93.18
256.784	33.79
257	-3.07
257.217	37.89
257.433	19.46
257.65	111.61
257.866	-58.37
258.082	-35.84
258.299	-15.36
258.515	-33.79
258.732	62.46
258.948	19.46
259.165	-13.31
259.381	33.79
259.597	33.79
259.814	19.46
260.03	11.26
260.246	19.46
260.463	62.46
260.679	11.26
260.895	-13.31
261.112	-17.41
261.328	-29.7
261.544	5.12
261.761	35.84
261.977	25.6
262.193	7.17
262.409	54.27
262.626	-31.74
262.842	-17.41
263.058	-21.5
263.274	-9.22
263.49	37.89
263.707	-19.46
263.923	-29.7
264.139	-41.98
264.355	-37.89
264.571	44.03
264.787	7.17
265.004	39.94
265.22	1.02
265.436	-25.6
265.652	-39.94
265.868	5.12
266.084	41.98
266.3	9.22
266.516	-44.03
266.732	33.79
266.948	35.84
267.164	-23.55
267.38	-7.17
267.596	23.55
267.812	56.32
268.028	29.7
268.244	46.08
268.46	-44.03
268.676	25.6
268.892	-23.55
269.108	-27.65
269.324	35.84
269.54	60.42
269.756	17.41
269.972	-21.5
270.188	23.55
270.403	-72.7
270.619	9.22
270.835	-9.22
271.051	11.26
271.267	-23.55
271.483	-33.79
271.698	13.31
271.914	-5.12
272.13	58.37
272.346	31.74
272.562	-19.46
272.777	25.6
272.993	-50.18
273.209	58.37
273.425	1.02
273.64	-9.22
273.856	46.08
274.072	-15.36
274.287	27.65
274.503	15.36
274.719	89.09
274.934	54.27
275.15	9.22
275.366	60.42
275.581	-48.13
275.797	-31.74
276.012	74.75
276.228	62.46
276.444	35.84
276.659	-11.26
276.875	-35.84
277.09	-1.02
277.306	19.46
277.521	-1.02
277.737	23.55
277.952	7.17
278.168	-19.46
278.383	9.22
278.599	25.6
278.814	31.74
279.03	7.17
279.245	1.02
279.461	-3.07
279.676	15.36
279.892	-50.18
280.107	37.89
280.322	-13.31
280.538	23.55
280.753	31.74
280.969	37.89
281.184	52.22
281.399	15.36
281.615	-31.74
281.83	-3.07
282.045	-27.65
282.26	-9.22
282.476	21.5
282.691	64.51
282.906	-29.7
283.122	68.61
283.337	27.65
283.552	27.65
283.767	21.5
283.983	7.17
284.198	-37.89
284.413	35.84
284.628	-7.17
284.843	13.31
285.058	48.13
285.274	33.79
285.489	21.5
285.704	-1.02
285.919	11.26
286.134	50.18
286.349	-33.79
286.564	33.79
286.779	9.22
286.995	48.13
287.21	-7.17
287.425	-15.36
287.64	3.07
287.855	35.84
288.07	-21.5
288.285	15.36
288.5	60.42
288.715	72.7
288.93	48.13
289.145	44.03
289.36	-29.7
289.575	82.94
289.79	33.79
290.004	-13.31
290.219	44.03
290.434	-46.08
290.649	21.5
290.864	-80.89
291.079	3.07
291.294	25.6
291.509	52.22
291.724	-23.55
291.938	-3.07
292.153	-17.41
292.368	41.98
292.583	44.03
292.798	105.47
293.012	-9.22
293.227	-5.12
293.442	-17.41
293.657	48.13
293.871	15.36
294.086	17.41
294.301	50.18
294.516	17.41
294.73	76.8
294.945	39.94
295.16	-68.61
295.374	27.65
295.589	7.17
295.804	33.79
296.018	-21.5
296.233	95.23
296.447	-15.36
296.662	62.46
296.877	48.13
297.091	7.17
297.306	13.31
297.52	-76.8
297.735	19.46
297.949	29.7
298.164	35.84
298.378	1.02
298.593	-39.94
298.807	-48.13
299.022	-7.17
299.236	-19.46
299.451	-7.17
299.665	-5.12
299.88	33.79
300.094	27.65
300.309	-37.89
300.523	31.74
300.737	21.5
300.952	-54.27
301.166	-7.17
301.381	39.94
301.595	5.12
301.809	41.98
302.024	7.17
302.238	25.6
302.452	11.26
302.667	15.36
302.881	117.76
303.095	27.65
303.309	9.22
303.524	19.46
303.738	-19.46
303.952	37.89
304.166	58.37
304.381	-29.7
304.595	23.55
304.809	-15.36
305.023	-23.55
305.237	56.32
305.452	44.03
305.666	13.31
305.88	11.26
306.094	27.65
306.308	31.74
306.522	35.84
306.736	1.02
306.95	52.22
307.164	-13.31
307.379	-44.03
307.593	27.65
307.807	80.89
308.021	46.08
308.235	7.17
308.449	-15.36
308.663	-3.07
308.877	35.84
309.091	46.08
309.305	37.89
309.519	25.6
309.733	44.03
309.947	33.79
310.161	17.41
310.374	99.33
310.588	15.36
310.802	11.26
311.016	21.5
311.23	72.7
311.444	21.5
311.658	-1.02
311.872	-70.65
312.085	19.46
312.299	97.28
312.513	52.22
312.727	31.74
312.941	-37.89
313.154	48.13
313.368	39.94
313.582	-29.7
313.796	39.94
314.009	-35.84
314.223	48.13
314.437	54.27
314.651	-52.22
314.864	17.41
315.078	-25.6
315.292	25.6
315.505	21.5
315.719	-1.02
315.933	29.7
316.146	-48.13
316.36	56.32
316.573	25.6
316.787	60.42
317.001	93.18
317.214	35.84
317.428	39.94
317.641	11.26
317.855	41.98
318.068	46.08
318.282	25.6
318.495	91.13
318.709	-15.36
318.922	-37.89
319.136	113.66
319.349	33.79
319.563	15.36
319.776	19.46
319.99	-5.12
320.203	29.7
320.417	27.65
320.63	68.61
320.843	68.61
321.057	-46.08
321.27	76.8
321.483	-1.02
321.697	113.66
321.91	5.12
322.124	-1.02
322.337	58.37
322.55	-5.12
322.763	3.07
322.977	64.51
323.19	-62.46
323.403	-41.98
323.617	-11.26
323.83	37.89
324.043	33.79
324.256	-9.22
324.469	27.65
324.683	113.66
324.896	46.08
325.109	-13.31
325.322	13.31
325.535	7.17
325.748	-11.26
325.962	70.65
326.175	-74.75
326.388	27.65
326.601	76.8
326.814	-23.55
327.027	5.12
327.24	123.9
327.453	-13.31
327.666	52.22
327.879	35.84
328.092	21.5
328.305	33.79
328.518	-3.07
328.731	35.84
328.944	25.6
329.157	-5.12
329.37	-31.74
329.583	29.7
329.796	-1.02
330.009	-9.22
330.222	7.17
330.435	29.7
330.648	25.6
330.861	3.07
331.073	46.08
331.286	48.13
331.499	7.17
331.712	35.84
331.925	-50.18
332.138	-23.55
332.35	23.55
332.563	33.79
332.776	3.07
332.989	5.12
333.202	3.07
333.414	52.22
333.627	78.85
333.84	-3.07
334.053	13.31
334.265	-19.46
334.478	-23.55
334.691	11.26
334.903	-17.41
335.116	-7.17
335.329	23.55
335.541	-1.02
335.754	15.36
335.966	17.41
336.179	46.08
336.392	60.42
336.604	27.65
336.817	29.7
337.029	41.98
337.242	58.37
337.454	107.52
337.667	15.36
337.88	-41.98
338.092	-3.07
338.305	15.36
338.517	11.26
338.729	-1.02
338.942	91.13
339.154	11.26
339.367	-23.55
339.579	25.6
339.792	5.12
340.004	44.03
340.217	-21.5
340.429	25.6
340.641	3.07
340.854	-27.65
341.066	-1.02
341.278	39.94
341.491	93.18
341.703	68.61
341.915	39.94
342.128	52.22
342.34	-19.46
342.552	23.55
342.764	31.74
342.977	52.22
343.189	31.74
343.401	82.94
343.613	25.6
343.826	70.65
344.038	-7.17
344.25	-17.41
344.462	44.03
344.674	68.61
344.886	-13.31
345.099	50.18
345.311	7.17
345.523	39.94
345.735	-37.89
345.947	103.42
346.159	41.98
346.371	17.41
346.583	-46.08
346.795	58.37
347.007	13.31
347.219	-3.07
347.431	19.46
347.643	3.07
347.855	-44.03
348.067	21.5
348.279	-23.55
348.491	31.74
348.703	3.07
348.915	-13.31
349.127	-27.65
349.339	41.98
349.551	9.22
349.763	-13.31
349.975	25.6
350.187	41.98
350.399	48.13
350.61	5.12
350.822	31.74
351.034	-33.79
351.246	-37.89
351.458	-27.65
351.669	-15.36
351.881	9.22
352.093	35.84
352.305	101.37
352.517	60.42
352.728	23.55
352.94	-37.89
353.152	7.17
353.363	-25.6
353.575	-5.12
353.787	-31.74
353.999	58.37
354.21	132.09
354.422	-44.03
354.633	1.02
354.845	-17.41
355.057	44.03
355.268	48.13
355.48	-27.65
355.692	84.99
355.903	68.61
356.115	-25.6
356.326	-46.08
356.538	37.89
356.749	37.89
356.961	7.17
357.172	-3.07
357.384	-27.65
357.595	101.37
357.807	-13.31
358.018	5.12
358.23	-46.08
358.441	82.94
358.653	11.26
358.864	33.79
359.075	70.65
359.287	11.26
359.498	91.13
359.709	31.74
359.921	48.13
360.132	68.61
360.344	27.65
360.555	-13.31
360.766	46.08
360.977	-1.02
361.189	-3.07
361.4	-1.02
361.611	3.07
361.823	-17.41
362.034	76.8
362.245	17.41
362.456	3.07
362.667	101.37
362.879	70.65
363.09	19.46
363.301	37.89
363.512	-9.22
363.723	19.46
363.935	25.6
364.146	37.89
364.357	87.04
364.568	76.8
364.779	31.74
364.99	39.94
365.201	-105.47
365.412	46.08
365.623	1.02
365.834	46.08
366.045	-13.31
366.256	19.46
366.467	56.32
366.678	5.12
366.889	5.12
367.1	3.07
367.311	44.03
367.522	9.22
367.733	25.6
367.944	21.5
368.155	54.27
368.366	95.23
368.577	93.18
368.788	54.27
368.999	-44.03
369.209	25.6
369.42	37.89
369.631	156.67
369.842	35.84
370.053	-23.55
370.264	27.65
370.474	52.22
370.685	50.18
370.896	13.31
371.107	64.51
371.317	-11.26
371.528	54.27
371.739	60.42
371.95	97.28
372.16	54.27
372.371	37.89
372.582	44.03
372.792	-25.6
373.003	46.08
373.214	52.22
373.424	82.94
373.635	15.36
373.846	-23.55
374.056	27.65
374.267	13.31
374.477	76.8
374.688	-33.79
374.898	-31.74
375.109	52.22
375.319	70.65
375.53	78.85
375.74	84.99
375.951	21.5
376.161	-64.51
376.372	41.98
376.582	15.36
376.793	-5.12
377.003	39.94
377.214	66.56
377.424	95.23
377.635	64.51
377.845	19.46
378.055	84.99
378.266	60.42
378.476	5.12
378.686	5.12
378.897	-27.65
379.107	15.36
379.317	68.61
379.528	-23.55
379.738	-1.02
379.948	29.7
380.158	68.61
380.369	95.23
380.579	7.17
380.789	31.74
380.999	70.65
381.21	-82.94
381.42	37.89
381.63	21.5
381.84	-11.26
382.05	39.94
382.261	62.46
382.471	48.13
382.681	54.27
382.891	68.61
383.101	-25.6
383.311	-41.98
383.521	15.36
383.731	31.74
383.941	-3.07
384.151	132.09
384.361	44.03
384.571	25.6
384.781	37.89
384.991	31.74
385.201	111.61
385.411	-80.89
385.621	54.27
385.831	56.32
386.041	-35.84
386.251	72.7
386.461	109.57
386.671	-50.18
386.881	48.13
387.091	-1.02
387.301	13.31
387.511	37.89
387.72	35.84
387.93	-3.07
388.14	5.12
388.35	54.27
388.56	78.85
388.769	82.94
388.979	39.94
389.189	78.85
389.399	87.04
389.609	52.22
389.818	70.65
390.028	80.89
390.238	27.65
390.447	103.42
390.657	25.6
390.867	-21.5
391.076	46.08
391.286	19.46
391.496	-7.17
391.705	68.61
391.915	97.28
392.125	166.91
392.334	70.65
392.544	68.61
392.753	113.66
392.963	82.94
393.172	25.6
393.382	72.7
393.591	62.46
393.801	91.13
394.01	93.18
394.22	89.09
394.429	3.07
394.639	76.8
394.848	84.99
395.058	101.37
395.267	21.5
395.477	80.89
395.686	72.7
395.895	31.74
396.105	152.57
396.314	89.09
396.524	125.95
396.733	87.04
396.942	113.66
397.152	-15.36
397.361	95.23
397.57	52.22
397.78	105.47
397.989	70.65
398.198	117.76
398.407	78.85
398.617	68.61
398.826	58.37
399.035	128
399.244	60.42
399.453	152.57
399.663	74.75
399.872	144.38
400.081	66.56
400.29	123.9
400.499	91.13
400.708	74.75
400.917	113.66
401.127	80.89
401.336	29.7
401.545	111.61
401.754	105.47
401.963	111.61
402.172	168.96
402.381	87.04
402.59	105.47
402.799	134.14
403.008	103.42
403.217	46.08
403.426	117.76
403.635	99.33
403.844	113.66
404.053	68.61
404.262	171.01
404.471	181.25
404.68	70.65
404.888	171.01
405.097	76.8
405.306	160.77
405.515	203.77
405.724	82.94
405.933	142.33
406.142	123.9
406.35	197.63
406.559	193.53
406.768	183.29
406.977	201.72
407.185	232.44
407.394	234.49
407.603	183.29
407.812	177.15
408.02	234.49
408.229	156.67
408.438	302.08
408.646	269.31
408.855	281.6
409.064	244.73
409.272	322.56
409.481	277.5
409.69	232.44
409.898	193.53
410.107	361.47
410.315	355.32
410.524	349.18
410.733	383.99
410.941	336.89
411.15	418.81
411.358	383.99
411.567	459.77
411.775	340.99
411.984	513.02
412.192	474.1
412.401	490.49
412.609	578.55
412.818	431.1
413.026	564.22
413.234	496.63
413.443	537.59
413.651	615.41
413.86	590.84
414.068	650.23
414.276	633.85
414.485	637.94
414.693	762.87
414.901	728.05
415.11	760.82
415.318	711.67
415.526	695.29
415.734	756.72
415.943	807.92
416.151	1000.43
416.359	945.14
416.567	883.7
416.776	941.04
416.984	975.86
417.192	1016.82
417.4	1053.68
417.608	988.14
417.817	1184.75
418.025	1180.65
418.233	1264.62
418.441	1266.67
418.649	1334.25
418.857	1346.54
419.065	1383.4
419.273	1444.84
419.481	1498.09
419.689	1498.09
419.897	1545.19
420.105	1688.55
420.313	1666.02
420.521	1838.05
420.729	1782.76
420.937	1907.68
421.145	1938.4
421.353	1969.12
421.561	1985.51
421.769	2108.38
421.977	2186.21
422.185	2255.84
422.393	2245.6
422.601	2487.26
422.809	2456.54
423.017	2493.4
423.224	2726.87
423.432	2716.63
423.64	2771.93
423.848	2968.53
424.056	2868.18
424.263	3144.66
424.471	3083.22
424.679	3277.77
424.887	3367.88
425.094	3482.57
425.302	3417.04
425.51	3552.2
425.718	3609.54
425.925	3734.47
426.133	3998.66
426.341	4113.35
426.548	4334.53
426.756	4139.97
426.964	4398.01
427.171	4518.84
427.379	4836.28
427.586	4817.85
427.794	5061.55
428.001	5299.12
428.209	5393.33
428.417	5327.79
428.624	5669.8
428.832	5731.24
429.039	5704.62
429.247	5634.99
429.454	6132.64
429.662	6652.83
429.869	6405.02
430.076	6710.17
430.284	6390.69
430.491	6742.94
430.699	7056.28
430.906	7011.22
431.114	7072.66
431.321	7541.64
431.528	7705.48
431.736	8018.82
431.943	8457.09
432.15	8491.9
432.358	8342.4
432.565	8881.02
432.772	8747.9
432.979	9218.93
433.187	9331.57
433.394	9352.05
433.601	10177.38
433.808	10142.57
434.016	10093.41
434.223	10505.06
434.43	11082.58
434.637	10982.23
434.844	11735.88
435.052	11856.72
435.259	11658.06
435.466	12006.22
435.673	11703.12
435.88	12409.67
436.087	13095.74
436.294	13241.14
436.501	12774.21
436.708	12995.39
436.915	13728.56
437.122	13947.69
437.329	14295.85
437.537	14451.49
437.743	14656.29
437.95	14715.68
438.157	15526.68
438.364	15907.6
438.571	15844.11
438.778	15983.37
438.985	17638.13
439.192	16804.61
439.399	17392.37
439.606	17007.36
439.813	17842.93
440.02	19079.9
440.227	18766.56
440.433	18422.5
440.64	19161.82
440.847	18911.97
441.054	19684.05
441.261	20882.11
441.467	20542.15
441.674	21211.84
441.881	21822.13
442.088	21322.43
442.294	21476.02
442.501	21918.39
442.708	22768.29
442.914	23311
443.121	24367.76
443.328	23655.06
443.534	25156.22
443.741	24607.37
443.948	24224.4
444.154	26542.7
444.361	26030.71
444.568	26342
444.774	26030.71
444.981	26325.61
445.187	26978.92
445.394	28430.93
445.6	28152.4
445.807	30741.03
446.013	29203.01
446.22	29792.83
446.426	30986.79
446.633	31521.31
446.839	32551.44
447.046	31117.86
447.252	33022.47
447.459	32940.55
447.665	32723.47
447.871	34105.85
448.078	35684.83
448.284	33731.07
448.491	34824.68
448.697	36217.3
448.903	37204.42
449.11	37011.92
449.316	36209.11
449.522	36843.98
449.728	38056.38
449.935	38570.42
450.141	38400.44
450.347	39131.56
450.553	37953.98
450.76	38506.93
450.966	39522.72
451.172	39258.54
451.378	40270.23
451.584	39127.47
451.791	40098.2
451.997	40376.73
452.203	40636.82
452.409	40903.06
452.615	40774.03
452.821	38803.89
453.027	38588.85
453.233	40778.13
453.44	39467.43
453.646	39608.74
453.852	39942.56
454.058	40329.62
454.264	39119.28
454.47	40116.64
454.676	39000.49
454.882	40362.39
455.088	37149.13
455.294	37700.03
455.5	38017.47
455.705	38228.41
455.911	37034.44
456.117	36016.6
456.323	35903.96
456.529	33913.34
456.735	35408.36
456.941	34267.64
457.147	33753.6
457.352	32840.2
457.558	32952.84
457.764	32412.18
457.97	32057.88
458.176	31623.71
458.381	31175.2
458.587	29631.04
458.793	29682.24
458.999	27978.33
459.204	30093.88
459.41	29424.19
459.616	27589.21
459.821	27490.91
460.027	27214.43
460.233	26722.92
460.438	25617.02
460.644	25993.84
460.85	24742.53
461.055	24343.18
461.261	24044.18
461.466	22407.85
461.672	21902
461.878	23458.46
462.083	21764.79
462.289	21521.08
462.494	21324.47
462.7	20259.53
462.905	19727.06
463.111	20462.28
463.316	20320.97
463.522	20009.68
463.727	19829.46
463.932	20118.22
464.138	19579.61
464.343	20021.97
464.549	19299.03
464.754	19868.37
464.959	19561.17
465.165	19473.11
465.37	18645.73
465.575	18164.46
465.781	18713.31
465.986	19014.37
466.191	18289.38
466.397	18098.92
466.602	17234.68
466.807	17830.64
467.012	17767.15
467.218	17820.4
467.423	17586.93
467.628	17564.4
467.833	18504.42
468.038	17718
468.244	16907.01
468.449	17834.74
468.654	17314.55
468.859	16997.12
469.064	16759.55
469.269	16227.08
469.474	16413.45
469.679	16980.73
469.885	16139.02
470.09	16499.46
470.295	16468.74
470.5	15938.32
470.705	15885.07
470.91	15813.39
471.115	15692.56
471.32	15835.92
471.525	15805.2
471.73	15581.97
471.935	15188.76
472.139	14916.38
472.344	15178.52
472.549	14889.76
472.754	14758.69
472.959	14209.83
473.164	14189.35
473.369	13996.84
473.574	14512.93
473.778	14279.46
473.983	14068.52
474.188	13912.88
474.393	13540.15
474.598	13765.42
474.802	13431.6
475.007	13251.38
475.212	13212.47
475.417	12741.44
475.621	12841.79
475.826	12974.91
476.031	12673.85
476.235	12462.91
476.44	12677.95
476.645	12288.84
476.849	12051.27
477.054	12374.85
477.259	11948.87
477.463	12137.29
477.668	11629.39
477.872	11907.91
478.077	11539.28
478.282	11416.4
478.486	11436.88
478.691	11205.46
478.895	11193.17
479.1	11086.68
479.304	11168.6
479.509	10634.08
479.713	11105.11
479.918	10793.82
480.122	10599.26
480.326	10781.53
480.531	10552.16
480.735	10793.82
480.94	10453.86
481.144	10908.51
481.348	10593.12
481.553	10607.45
481.757	10191.72
481.961	10376.03
482.166	10597.21
482.37	10435.42
482.574	9958.25
482.778	10296.16
482.983	10537.82
483.187	10232.68
483.391	10302.31
483.595	10247.01
483.8	10072.93
484.004	10122.09
484.208	10320.74
484.412	10300.26
484.616	10140.52
484.821	10265.44
485.025	10173.28
485.229	10451.81
485.433	10310.5
485.637	10064.74
485.841	10087.27
486.045	10232.68
486.249	10394.47
486.453	10173.28
486.657	10539.87
486.861	10167.14
487.065	10001.26
487.269	10177.38
487.473	9972.58
487.677	10390.37
487.881	10345.31
488.085	10101.61
488.289	10220.39
488.493	10230.63
488.697	10355.55
488.901	10283.88
489.105	10228.58
489.309	10595.17
489.512	10122.09
489.716	10306.4
489.92	10365.79
490.124	10206.05
490.328	10550.11
490.531	10513.25
490.735	10599.26
490.939	10769.24
491.143	10484.58
491.346	10449.76
491.55	10734.43
491.754	10593.12
491.958	10756.96
492.161	10670.94
492.365	10935.13
492.569	10691.42
492.772	10531.68
492.976	10799.96
493.18	10994.52
493.383	11021.14
493.587	11260.76
493.79	11203.41
493.994	11096.92
494.197	11184.98
494.401	11230.04
494.605	11301.72
494.808	11488.08
495.012	11610.96
495.215	11586.38
495.419	11709.26
495.622	11551.57
495.825	11750.22
496.029	11840.33
496.232	11844.43
496.436	12069.7
496.639	12419.91
496.843	12372.8
497.046	12450.63
497.249	12366.66
497.453	12829.5
497.656	12815.16
497.859	12956.47
498.063	13069.11
498.266	13331.25
498.469	13159.22
498.673	13237.05
498.876	13579.06
499.079	13738.8
499.282	13466.42
499.485	13826.86
499.689	13996.84
499.892	14066.47
500.095	14314.28
500.298	14441.25
500.501	14488.35
500.705	14904.09
500.908	15067.93
501.111	15203.1
501.314	15467.28
501.517	15485.72
501.72	15655.7
501.923	15448.85
502.126	15852.3
502.329	16116.49
502.532	16192.26
502.735	16216.84
502.938	16513.8
503.141	16571.14
503.344	16907.01
503.547	17087.23
503.75	17185.53
503.953	17353.46
504.156	17746.67
504.359	17738.48
504.562	17730.29
504.765	18303.72
504.968	18447.08
505.17	18741.99
505.373	18793.19
505.576	18946.78
505.779	19012.32
505.982	19106.52
506.185	19348.18
506.387	19700.44
506.59	19710.68
506.793	20325.07
506.996	20116.17
507.198	20638.41
507.401	20384.46
507.604	20896.45
507.807	21598.9
508.009	21451.45
508.212	21463.74
508.415	21797.56
508.617	22084.27
508.82	22186.67
509.022	22280.88
509.225	22870.69
509.428	22938.27
509.63	23122.59
509.833	23075.49
510.035	23671.45
510.238	23302.81
510.44	24029.84
510.643	24130.19
510.845	24453.77
511.048	24287.89
511.25	24425.1
511.453	24775.3
511.655	25549.43
511.858	25416.32
512.06	25799.29
512.262	25670.26
512.465	25954.93
512.667	26468.97
512.87	26280.56
513.072	26376.81
513.274	26929.77
513.477	27574.88
513.679	27345.5
513.881	27949.65
514.084	28111.44
514.286	28129.87
514.488	28394.06
514.69	28928.58
514.893	29043.27
515.095	29166.15
515.297	29645.37
515.499	29698.62
515.701	30014.01
515.904	30241.33
516.106	30171.7
516.308	30886.44
516.51	30970.41
516.712	31054.37
516.914	31154.72
517.116	32010.78
517.318	31447.58
517.52	32135.7
517.722	32113.17
517.925	32612.88
518.127	33217.03
518.329	33454.59
518.531	33288.71
518.733	33731.07
518.935	33923.58
519.136	34279.92
519.338	34615.79
519.54	34705.9
519.742	35103.21
519.944	35174.89
520.146	35477.99
520.348	35574.24
520.55	35998.17
520.752	35703.26
520.954	36862.41
521.155	36471.25
521.357	37345.73
521.559	36884.94
521.761	37665.22
521.963	37831.1
522.164	37898.69
522.366	38361.53
522.568	38502.84
522.77	38416.82
522.971	39137.71
523.173	38392.25
523.375	39207.34
523.576	39170.47
523.778	39301.54
523.98	39948.7
524.181	40491.41
524.383	39688.61
524.584	40540.57
524.786	40284.57
524.988	40612.24
525.189	40855.95
525.391	41034.13
525.592	41277.83
525.794	41312.65
525.995	41787.78
526.197	41548.17
526.398	41714.05
526.6	41879.94
526.801	42273.15
527.003	42062.21
527.204	42496.38
527.406	43045.23
527.607	42697.08
527.808	42871.15
528.01	42500.47
528.211	42951.02
528.412	44009.82
528.614	43628.9
528.815	43747.68
529.016	44052.83
529.218	43313.52
529.419	43682.15
529.62	43655.53
529.822	43583.85
530.023	43743.59
530.224	43757.92
530.425	43897.19
530.626	43649.38
530.828	43845.99
531.029	44577.11
531.23	44306.78
531.431	44525.91
531.632	44335.45
531.833	44603.74
532.035	44177.76
532.236	44585.3
532.437	44937.55
532.638	44411.23
532.839	45076.82
533.04	44966.23
533.241	44304.73
533.442	45431.11
533.643	44577.11
533.844	45298
534.045	44988.75
534.246	44429.66
534.447	45121.87
534.648	44851.54
534.849	45146.45
535.05	44554.58
535.251	44947.79
535.451	44736.85
535.652	45097.3
535.853	45015.38
536.054	44812.63
536.255	45420.87
536.456	44587.35
536.657	45908.29
536.857	44581.21
537.058	44798.29
537.259	45408.59
537.46	45224.27
537.66	44855.64
537.861	44810.58
538.062	44579.16
538.263	45123.92
538.463	44634.45
538.664	44876.12
538.865	45078.86
539.065	45056.34
539.266	44573.02
539.466	45273.42
539.667	44243.29
539.868	45128.02
540.068	45095.25
540.269	44343.64
540.469	45635.91
540.67	44915.03
540.87	44765.52
541.071	44847.44
541.271	45001.04
541.472	44765.52
541.672	44775.76
541.873	44888.4
542.073	44499.29
542.274	45070.67
542.474	44661.08
542.675	44437.85
542.875	45199.69
543.075	44663.13
543.276	44237.15
543.476	45341
543.676	44738.9
543.877	44831.06
544.077	44593.5
544.277	44857.68
544.478	44257.63
544.678	44923.22
544.878	44476.76
545.078	44804.44
545.279	44466.52
545.479	44544.34
545.679	44646.74
545.879	44439.9
546.079	44554.58
546.28	44704.09
546.48	44175.71
546.68	44624.22
546.88	44609.88
547.08	44601.69
547.28	44478.81
547.48	44077.41
547.68	44249.44
547.88	44300.64
548.081	44745.05
548.281	44450.14
548.481	44286.3
548.681	44687.7
548.881	44222.81
549.081	44415.32
549.28	43958.63
549.48	44446.04
549.68	44425.56
549.88	44970.32
550.08	44206.43
550.28	44151.13
550.48	44282.2
550.68	44618.07
550.88	44034.4
551.08	44284.25
551.279	44243.29
551.479	43985.25
551.679	44437.85
551.879	43762.02
552.079	44472.67
552.278	44013.92
552.478	44183.9
552.678	44192.09
552.878	44433.75
553.077	43915.62
553.277	43766.12
553.477	44548.44
553.676	44020.06
553.876	44050.78
554.076	43714.92
554.275	43757.92
554.475	43215.21
554.674	44136.8
554.874	43596.13
555.074	43694.44
555.273	43506.02
555.473	44071.26
555.672	43542.89
555.872	43241.84
556.071	43489.64
556.271	43852.13
556.47	43583.85
556.67	43135.34
556.869	43141.49
557.068	43653.48
557.268	43331.95
557.467	43239.79
557.667	43239.79
557.866	43159.92
558.065	43321.71
558.265	43178.35
558.464	42508.66
558.663	43299.18
558.863	42099.07
559.062	43364.71
559.261	42750.32
559.461	43592.04
559.66	42426.74
559.859	42649.97
560.058	42885.49
560.258	42416.5
560.457	42285.43
560.656	42699.12
560.855	42195.32
561.054	42459.51
561.253	41521.54
561.453	42627.45
561.652	42414.46
561.851	42170.75
562.05	42117.5
562.249	42037.63
562.448	42293.63
562.647	42189.18
562.846	41976.19
563.045	41781.63
563.244	41494.92
563.443	41580.93
563.642	41546.12
563.841	42035.58
564.04	41472.39
564.239	41822.59
564.438	41087.37
564.637	41488.77
564.836	41503.11
565.035	40671.64
565.234	41058.7
565.432	41077.13
565.631	40913.3
565.83	40962.45
566.029	40847.76
566.228	40616.34
566.427	40794.51
566.625	40427.93
566.824	40247.71
567.023	40616.34
567.222	40114.59
567.42	40720.79
567.619	40536.47
567.818	40526.23
568.016	40110.49
568.215	40311.19
568.414	39885.22
568.612	40298.91
568.811	39817.63
569.01	39682.47
569.208	39186.86
569.407	39793.06
569.605	39420.33
569.804	39610.79
570.002	39178.67
570.201	39676.32
570.4	39188.91
570.598	39010.73
570.797	38861.23
570.995	38832.56
571.193	38777.26
571.392	38818.22
571.59	38629.81
571.789	38584.76
571.987	38689.2
572.186	38359.48
572.384	38244.79
572.582	38597.04
572.781	38277.56
572.979	37810.62
573.177	37865.92
573.376	38181.31
573.574	37654.98
573.772	37859.77
573.971	37415.37
574.169	37122.51
574.367	37417.41
574.565	37654.98
574.763	37110.22
574.962	37499.33
575.16	36630.99
575.358	37011.92
575.556	36622.8
575.754	37310.92
575.952	36641.23
576.151	37020.11
576.349	36467.16
576.547	36149.72
576.745	36674
576.943	36858.32
577.141	36403.67
577.339	36733.39
577.537	36041.18
577.735	36301.27
577.933	36004.31
578.131	36141.53
578.329	35635.68
578.527	35443.17
578.725	35549.67
578.923	36082.14
579.121	35482.08
579.319	35492.32
579.516	35344.87
579.714	35340.77
579.912	35168.74
580.11	35090.92
580.308	35287.53
580.506	34830.83
580.704	34630.13
580.901	35066.34
581.099	34976.23
581.297	34718.19
581.495	34748.91
581.692	34877.93
581.89	34329.08
582.088	34755.05
582.285	34259.45
582.483	34421.23
582.681	34062.84
582.878	33896.95
583.076	33804.8
583.274	34052.6
583.471	33581.57
583.669	33647.1
583.866	33432.07
584.064	33804.8
584.262	33286.66
584.459	33495.55
584.657	33131.01
584.854	33516.03
585.052	32834.06
585.249	33165.83
585.447	33239.56
585.644	32768.52
585.841	32727.56
586.039	33219.08
586.236	32662.03
586.434	32698.89
586.631	32457.23
586.828	32684.56
587.026	32424.47
587.223	31986.2
587.42	32029.21
587.618	32285.2
587.815	31795.74
588.012	32074.26
588.21	31851.03
588.407	31832.6
588.604	31826.46
588.801	31820.31
588.999	31341.09
589.196	31382.05
589.393	31423.01
589.59	31191.59
589.787	31240.74
589.984	31003.17
590.182	30798.38
590.379	30857.77
590.576	30951.98
590.773	30736.94
590.97	30589.49
591.167	30532.14
591.364	30401.07
591.561	30505.52
591.758	30331.44
591.955	30345.78
592.152	30689.84
592.349	30157.36
592.546	30378.54
592.743	29966.9
592.94	29835.83
593.137	30163.51
593.334	29946.42
593.531	29397.57
593.727	29590.08
593.924	29518.4
594.121	29485.63
594.318	29450.81
594.515	29323.84
594.712	29246.02
594.908	29246.02
595.105	29141.57
595.302	28662.35
595.499	28940.87
595.696	28723.79
595.892	28582.48
596.089	28701.26
596.286	28807.75
596.482	28504.65
596.679	28396.11
596.876	28195.41
597.072	28121.68
597.269	28158.55
597.466	27664.99
597.662	27949.65
597.859	27945.56
598.055	27918.93
598.252	28078.68
598.448	27488.86
598.645	27624.03
598.841	27454.05
599.038	27392.61
599.234	27505.24
599.431	27189.86
599.627	26706.54
599.824	27073.12
600.02	27138.66
600.217	26667.63
600.413	26806.89
600.609	26679.91
600.806	26792.55
601.002	26673.77
601.198	26690.15
601.395	26436.2
601.591	26530.41
601.787	26499.69
601.984	26172.02
602.18	26376.81
602.376	26331.76
602.572	26192.5
602.769	26073.71
602.965	25623.16
603.161	26288.75
603.357	25758.33
603.553	25567.87
603.75	25670.26
603.946	25492.09
604.142	25494.14
604.338	25549.43
604.534	25424.51
604.73	24844.93
604.926	24873.6
605.122	25121.41
605.318	24967.81
605.514	24933
605.71	24519.31
605.906	24685.19
606.102	24709.77
606.298	24875.65
606.494	24785.54
606.69	24550.03
606.886	24453.77
607.082	23962.26
607.278	24570.51
607.474	23956.11
607.67	24580.74
607.866	23825.04
608.062	24095.38
608.257	24109.71
608.453	24281.74
608.649	23894.68
608.845	23786.13
609.041	23728.79
609.236	23890.58
609.432	23757.46
609.628	23605.91
609.824	23593.62
610.019	23374.49
610.215	23538.33
610.411	23556.76
610.606	23417.5
610.802	23483.03
610.998	23419.55
611.193	23691.93
611.389	23388.83
611.584	23296.67
611.78	23122.59
611.976	23394.97
612.171	23274.14
612.367	23210.65
612.562	23169.69
612.758	22844.07
612.953	22680.23
613.149	23233.18
613.344	22604.46
613.539	22897.31
613.735	23016.1
613.93	23138.97
614.126	22741.67
614.321	22901.41
614.517	22930.08
614.712	22813.35
614.907	22057.65
615.103	22831.78
615.298	22403.75
615.493	22690.47
615.688	22430.38
615.884	22878.88
616.079	22135.47
616.274	22201.01
616.47	22055.6
616.665	22377.13
616.86	22071.98
617.055	22098.61
617.25	22160.05
617.445	22391.47
617.641	21648.05
617.836	21781.17
618.031	21846.71
618.226	21990.06
618.421	21764.79
618.616	21723.83
618.811	21543.61
619.006	21955.25
619.201	21205.69
619.396	21600.95
619.591	21240.51
619.786	21322.43
619.981	20951.74
620.176	21258.94
620.371	20894.4
620.566	21080.77
620.761	20939.46
620.956	21025.47
621.151	20425.42
621.346	20660.93
621.541	20497.1
621.735	20595.4
621.93	20163.28
622.125	20325.07
622.32	20073.17
622.515	19833.55
622.709	19821.27
622.904	19968.72
623.099	19772.11
623.294	19819.22
623.488	19610.32
623.683	19542.74
623.878	19116.76
624.072	19190.49
624.267	19383
624.462	19063.52
624.656	18858.72
624.851	18995.93
625.046	18748.13
625.24	18551.52
625.435	18465.51
625.629	18610.92
625.824	18289.38
626.018	18385.64
626.213	18021.1
626.407	18217.71
626.602	18010.86
626.796	18041.58
626.991	17820.4
627.185	17789.68
627.38	17855.22
627.574	17548.02
627.768	17404.66
627.963	17314.55
628.157	17384.18
628.352	17224.44
628.546	16941.82
628.74	17007.36
628.935	16904.96
629.129	16990.97
629.323	16431.88
629.517	16411.4
629.712	16298.76
629.906	16151.31
630.1	16012.04
630.294	16493.32
630.489	16241.42
630.683	16136.97
630.877	15971.08
631.071	15670.03
631.265	15964.94
631.459	15966.99
631.653	15792.91
631.848	15584.02
632.042	15481.62
632.236	15706.9
632.43	15334.17
632.624	15131.42
632.818	15295.25
633.012	14914.33
633.206	14852.89
633.4	14873.37
633.594	14844.7
633.788	14807.84
633.982	14854.94
634.176	14598.95
634.369	14615.33
634.563	14631.71
634.757	14304.04
634.951	14570.27
635.145	14166.82
635.339	14248.74
635.533	14082.86
635.726	14091.05
635.92	13738.8
636.114	13935.4
636.308	13820.72
636.501	14062.38
636.695	13712.17
636.889	13671.22
637.083	13484.85
637.276	13417.27
637.47	13497.14
637.664	13241.14
637.857	13282.1
638.051	13218.61
638.244	13134.65
638.438	13296.44
638.632	13042.49
638.825	12819.26
639.019	12823.36
639.212	12923.71
639.406	12786.49
639.599	12772.16
639.793	12632.9
639.986	12497.73
640.18	12553.02
640.373	12438.34
640.567	12501.83
640.76	12317.51
640.954	12172.1
641.147	12397.38
641.34	12036.94
641.534	12104.52
641.727	12155.72
641.92	12000.07
642.114	11803.47
642.307	11887.43
642.5	11828.04
642.694	11676.49
642.887	11696.97
643.08	11590.48
643.273	11561.81
643.467	11549.52
643.66	11496.27
643.853	11471.7
644.046	11238.23
644.239	11408.21
644.432	11453.27
644.626	11168.6
644.819	11125.59
645.012	11062.1
645.205	10926.94
645.398	11008.86
645.591	10763.1
645.784	10795.87
645.977	10689.37
646.17	10799.96
646.363	10576.73
646.556	10701.66
646.749	10367.84
646.942	10533.73
647.135	10503.01
647.328	10441.57
647.521	10402.66
647.714	10228.58
647.907	10154.85
648.099	10195.81
648.292	10161
648.485	9954.15
648.678	10066.79
648.871	9657.2
649.064	10070.89
649.256	9841.51
649.449	9587.57
649.642	9698.16
649.835	9681.77
650.027	9689.96
650.22	9513.84
650.413	9601.9
650.605	9388.91
650.798	9526.13
650.991	9403.25
651.183	9249.65
651.376	9141.11
651.568	9278.32
651.761	9245.55
651.954	9206.64
652.146	9137.01
652.339	9300.85
652.531	9057.14
652.724	9071.48
652.916	8797.05
653.109	8774.52
653.301	8856.44
653.494	8827.77
653.686	8606.59
653.879	8715.13
654.071	8760.19
654.263	8526.72
654.456	8608.64
654.648	8696.7
654.84	8414.08
655.033	8418.18
655.225	8432.51
655.417	8356.74
655.61	8207.23
655.802	8289.15
655.994	8022.92
656.186	8127.36
656.379	8299.39
656.571	7996.29
656.763	7928.71
656.955	8033.16
657.148	8090.5
657.34	8016.77
657.532	7920.52
657.724	7791.5
657.916	7842.7
658.108	7834.5
658.3	7676.81
658.492	7619.47
658.684	7623.56
658.876	7500.69
659.068	7594.89
659.26	7496.59
659.452	7494.54
659.644	7449.49
659.836	7375.76
660.028	7492.49
660.22	7291.79
660.412	7369.62
660.604	7297.94
660.796	7173.01
660.988	7222.16
661.18	7082.9
661.372	7136.15
661.563	7164.82
661.755	7015.32
661.947	6994.84
662.139	6931.35
662.331	6953.88
662.522	6996.89
662.714	6769.56
662.906	6822.81
663.097	6812.57
663.289	6656.92
663.481	6714.27
663.673	6798.23
663.864	6554.52
664.056	6615.96
664.247	6646.68
664.439	6575
664.631	6544.28
664.822	6423.45
665.014	6402.97
665.205	6509.47
665.397	6386.59
665.588	6462.37
665.78	6187.94
665.971	6290.34
666.163	6308.77
666.354	6243.23
666.546	6321.06
666.737	6079.4
666.929	6130.59
667.12	6333.34
667.311	6056.87
667.503	6249.38
667.694	6251.42
667.885	6044.58
668.077	6020
668.268	5893.03
668.459	5987.24
668.651	5858.21
668.842	5952.42
669.033	5790.63
669.224	5893.03
669.416	5804.97
669.607	5835.69
669.798	5874.6
669.989	5807.02
670.18	5598.12
670.371	5587.88
670.563	5659.56
670.754	5811.11
670.945	5510.06
671.136	5516.2
671.327	5456.81
671.518	5510.06
671.709	5614.51
671.9	5495.72
672.091	5260.21
672.282	5426.09
672.473	5407.66
672.664	5292.98
672.855	5493.68
673.046	5503.92
673.237	5489.58
673.428	5284.78
673.619	5315.5
673.809	5342.13
674	5284.78
674.191	5331.89
674.382	5237.68
674.573	5163.95
674.764	5133.23
674.954	5198.77
675.145	5239.73
675.336	5059.51
675.527	5153.71
675.717	5225.39
675.908	4969.4
676.099	4977.59
676.289	5047.22
676.48	4817.85
676.671	4805.56
676.861	4932.53
677.052	4967.35
677.243	4709.3
677.433	4850.61
677.624	4938.68
677.814	4895.67
678.005	4858.81
678.195	4795.32
678.386	4834.23
678.576	4733.88
678.767	4823.99
678.957	4815.8
679.148	4842.42
679.338	4883.38
679.529	4604.86
679.719	4570.04
679.909	4690.87
680.1	4713.4
680.29	4668.34
680.481	4694.97
680.671	4578.23
680.861	4570.04
681.052	4590.52
681.242	4567.99
681.432	4445.12
681.622	4547.51
681.813	4520.89
682.003	4574.14
682.193	4387.77
682.383	4467.64
682.573	4350.91
682.764	4375.49
682.954	4426.68
683.144	4492.22
683.334	4377.53
683.524	4393.92
683.714	4418.49
683.904	4441.02
684.094	4324.29
684.284	4414.4
684.474	4451.26
684.664	4387.77
684.854	4434.88
685.044	4180.93
685.234	4381.63
685.424	4148.16
685.614	4348.86
685.804	4248.51
685.994	4172.74
686.184	4367.29
686.374	4107.2
686.564	4174.78
686.753	4191.17
686.943	4189.12
687.133	4043.71
687.323	4037.57
687.513	4076.48
687.702	4172.74
687.892	3992.52
688.082	4029.38
688.272	4082.63
688.461	4027.33
688.651	3945.41
688.841	3888.07
689.03	3935.17
689.22	3845.06
689.41	3998.66
689.599	3963.84
689.789	3881.92
689.979	3847.11
690.168	3877.83
690.358	3769.29
690.547	3828.68
690.737	3787.72
690.926	3857.35
691.116	3763.14
691.305	3736.52
691.495	3664.84
691.684	3750.85
691.874	3705.8
692.063	3580.87
692.252	3675.08
692.442	3593.16
692.631	3548.11
692.82	3587.02
693.01	3494.86
693.199	3650.5
693.388	3550.15
693.578	3546.06
693.767	3582.92
693.956	3417.04
694.146	3447.76
694.335	3412.94
694.524	3470.28
694.713	3494.86
694.902	3466.19
695.092	3300.3
695.281	3365.84
695.47	3437.52
695.659	3300.3
695.848	3294.16
696.037	3308.49
696.226	3304.4
696.415	3267.53
696.604	3386.32
696.793	3206.1
696.982	3271.63
697.171	3163.09
697.36	3267.53
697.549	3191.76
697.738	3187.66
697.927	3208.14
698.116	3236.81
698.305	3339.21
698.494	3183.57
698.683	3165.14
698.872	3101.65
699.061	3118.03
699.25	3083.22
699.438	3072.98
699.627	3122.13
699.816	3191.76
700.005	3054.55
700.193	3156.94
700.382	3134.42
700.571	3017.68
700.76	3152.85
700.948	2976.72
701.137	3091.41
701.326	3234.77
701.514	3005.39
701.703	3038.16
701.892	2966.48
702.08	3144.66
702.269	3046.35
702.457	2886.61
702.646	3095.5
702.834	2991.06
703.023	3017.68
703.212	2958.29
703.4	3062.74
703.589	2986.96
703.777	2991.06
703.965	2884.56
704.154	3072.98
704.342	2958.29
704.531	2886.61
704.719	2888.66
704.907	2802.65
705.096	3005.39
705.284	2886.61
705.472	2929.62
705.661	3089.36
705.849	2970.58
706.037	2880.47
706.226	2855.89
706.414	2905.04
706.602	2927.57
706.79	2943.96
706.979	2935.76
707.167	2911.19
707.355	2859.99
707.543	2841.56
707.731	2960.34
707.919	2966.48
708.107	2886.61
708.296	2933.72
708.484	2751.45
708.672	2892.76
708.86	2819.03
709.048	2857.94
709.236	2853.84
709.424	2921.43
709.612	2882.52
709.8	2790.36
709.988	2837.46
710.176	2884.56
710.364	2868.18
710.551	2825.17
710.739	2808.79
710.927	2862.04
711.115	2825.17
711.303	2802.65
711.491	2892.76
711.679	2816.98
711.866	2771.93
712.054	2831.32
712.242	2843.6
712.43	2790.36
712.617	2862.04
712.805	2771.93
712.993	2888.66
713.181	2741.21
713.368	2829.27
713.556	2806.74
713.744	2714.58
713.931	2857.94
714.119	2823.12
714.306	2845.65
714.494	2868.18
714.682	2816.98
714.869	2733.01
715.057	2771.93
715.244	2706.39
715.432	2806.74
715.619	2690.01
715.807	2819.03
715.994	2780.12
716.182	2728.92
716.369	2773.97
716.556	2737.11
716.744	2839.51
716.931	2763.73
717.119	2872.28
717.306	2767.83
717.493	2794.45
717.681	2714.58
717.868	2794.45
718.055	2792.41
718.242	2745.3
718.43	2810.84
718.617	2628.57
718.804	2782.17
718.991	2745.3
719.179	2792.41
719.366	2653.14
719.553	2798.55
719.74	2548.7
719.927	2718.68
720.114	2560.98
720.301	2724.82
720.488	2700.25
720.676	2659.29
720.863	2706.39
721.05	2737.11
721.237	2706.39
721.424	2769.88
721.611	2696.15
721.798	2630.62
721.985	2647
722.172	2683.86
722.358	2718.68
722.545	2743.25
722.732	2706.39
722.919	2741.21
723.106	2730.97
723.293	2812.89
723.48	2704.34
723.667	2767.83
723.853	2716.63
724.04	2628.57
724.227	2784.21
724.414	2710.49
724.6	2661.34
724.787	2663.38
724.974	2761.69
725.161	2722.77
725.347	2632.66
725.534	2671.58
725.72	2726.87
725.907	2784.21
726.094	2665.43
726.28	2671.58
726.467	2616.28
726.653	2608.09
726.84	2778.07
727.027	2771.93
727.213	2743.25
727.4	2675.67
727.586	2548.7
727.773	2704.34
727.959	2831.32
728.145	2794.45
728.332	2679.77
728.518	2755.54
728.705	2649.05
728.891	2780.12
729.077	2687.96
729.264	2710.49
729.45	2737.11
729.636	2741.21
729.823	2773.97
730.009	2671.58
730.195	2718.68
730.382	2751.45
730.568	2808.79
730.754	2681.82
730.94	2741.21
731.126	2763.73
731.313	2747.35
731.499	2741.21
731.685	2636.76
731.871	2712.53
732.057	2730.97
732.243	2755.54
732.429	2802.65
732.615	2675.67
732.801	2763.73
732.987	2804.69
733.173	2669.53
733.359	2720.73
733.545	2657.24
733.731	2657.24
733.917	2700.25
734.103	2780.12
734.289	2823.12
734.475	2757.59
734.661	2743.25
734.847	2741.21
735.033	2716.63
735.219	2665.43
735.404	2714.58
735.59	2663.38
735.776	2726.87
735.962	2733.01
736.148	2903
736.333	2706.39
736.519	2794.45
736.705	2579.42
736.89	2745.3
737.076	2681.82
737.262	2665.43
737.447	2679.77
737.633	2733.01
737.819	2739.16
738.004	2649.05
738.19	2687.96
738.375	2718.68
738.561	2636.76
738.747	2677.72
738.932	2716.63
739.118	2681.82
739.303	2569.18
739.489	2690.01
739.674	2726.87
739.859	2655.19
740.045	2593.75
740.23	2651.1
740.416	2640.86
740.601	2530.27
740.786	2640.86
740.972	2628.57
741.157	2528.22
741.342	2571.22
741.528	2661.34
741.713	2511.83
741.898	2679.77
742.084	2483.16
742.269	2632.66
742.454	2622.42
742.639	2577.37
742.824	2483.16
743.01	2505.69
743.195	2579.42
743.38	2495.45
743.565	2464.73
743.75	2591.7
743.935	2399.2
744.12	2599.9
744.305	2407.39
744.49	2511.83
744.675	2532.31
744.86	2384.86
745.045	2530.27
745.23	2538.46
745.415	2413.53
745.6	2405.34
745.785	2427.87
745.97	2358.24
746.155	2413.53
746.34	2448.35
746.525	2360.28
746.71	2397.15
746.895	2352.09
747.079	2460.63
747.264	2261.98
747.449	2198.49
747.634	2378.72
747.819	2325.47
748.003	2178.01
748.188	2280.41
748.373	2302.94
748.557	2208.73
748.742	2190.3
748.927	2145.25
749.111	2161.63
749.296	2094.05
749.481	2118.62
749.665	2147.3
749.85	2247.65
750.034	2141.15
750.219	2118.62
750.404	2067.42
750.588	1993.7
750.773	1962.98
750.957	2118.62
751.141	2003.94
751.326	2108.38
751.51	2067.42
751.695	1924.07
751.879	1821.67
752.064	2051.04
752.248	1903.59
752.432	1930.21
752.617	1876.96
752.801	1909.73
752.985	1870.82
753.17	1895.4
753.354	1958.88
753.538	1846.24
753.722	1782.76
753.907	1868.77
754.091	1844.2
754.275	1905.63
754.459	1797.09
754.643	1780.71
754.828	1833.96
755.012	1821.67
755.196	1727.46
755.38	1655.78
755.564	1741.8
755.748	1850.34
755.932	1657.83
756.116	1717.22
756.3	1620.97
756.484	1717.22
756.668	1502.19
756.852	1704.93
757.036	1608.68
757.22	1754.09
757.404	1657.83
757.588	1672.17
757.772	1596.39
757.956	1678.31
758.14	1577.96
758.323	1485.8
758.507	1532.9
758.691	1584.1
758.875	1545.19
759.059	1545.19
759.242	1436.65
759.426	1473.51
759.61	1407.98
759.794	1440.75
759.977	1485.8
760.161	1444.84
760.345	1530.86
760.528	1375.21
760.712	1377.26
760.895	1387.5
761.079	1465.32
761.263	1381.35
761.446	1422.31
761.63	1295.34
761.813	1397.74
761.997	1387.5
762.18	1344.49
762.364	1344.49
762.547	1403.88
762.731	1344.49
762.914	1381.35
763.098	1270.76
763.281	1301.48
763.464	1328.11
763.648	1299.44
763.831	1289.2
764.015	1315.82
764.198	1307.63
764.381	1336.3
764.564	1270.76
764.748	1281
764.931	1307.63
765.114	1262.57
765.297	1252.33
765.481	1268.72
765.664	1303.53
765.847	1213.42
766.03	1293.29
766.213	1223.66
766.397	1272.81
766.58	1172.46
766.763	1113.07
766.946	1131.5
767.129	1160.17
767.312	1100.78
767.495	1211.37
767.678	1215.47
767.861	1164.27
768.044	1211.37
768.227	1201.13
768.41	1166.32
768.593	1203.18
768.776	1147.89
768.959	1117.17
769.142	1119.21
769.324	1190.89
769.507	1072.11
769.69	1129.45
769.873	1135.6
770.056	1053.68
770.239	1094.64
770.421	1053.68
770.604	1027.06
770.787	1084.4
770.97	1047.54
771.152	1074.16
771.335	1121.26
771.518	1004.53
771.7	1029.1
771.883	1076.21
772.066	1094.64
772.248	1076.21
772.431	1037.3
772.613	1022.96
772.796	1004.53
772.978	977.91
773.161	1029.1
773.343	1070.06
773.526	965.62
773.708	998.38
773.891	1016.82
774.073	873.46
774.256	949.23
774.438	951.28
774.621	881.65
774.803	986.1
774.985	959.47
775.168	959.47
775.35	910.32
775.532	955.38
775.715	912.37
775.897	855.03
776.079	943.09
776.261	893.94
776.444	930.8
776.626	898.03
776.808	812.02
776.99	869.36
777.173	879.6
777.355	840.69
777.537	814.07
777.719	830.45
777.901	783.35
778.083	895.99
778.265	834.55
778.447	785.4
778.629	865.27
778.811	791.54
778.993	793.59
779.175	855.03
779.357	785.4
779.539	736.24
779.721	719.86
779.903	760.82
780.085	736.24
780.267	740.34
780.449	746.48
780.631	736.24
780.812	721.91
780.994	721.91
781.176	678.9
781.358	709.62
781.54	744.44
781.721	713.72
781.903	715.77
782.085	674.81
782.267	736.24
782.448	625.65
782.63	685.05
782.812	674.81
782.993	666.61
783.175	662.52
783.357	631.8
783.538	754.68
783.72	689.14
783.901	594.93
784.083	639.99
784.264	607.22
784.446	545.78
784.627	519.16
784.809	578.55
784.99	549.88
785.172	558.07
785.353	582.65
785.535	627.7
785.716	578.55
785.897	613.37
786.079	566.26
786.26	527.35
786.441	586.74
786.623	568.31
786.804	533.5
786.985	482.3
787.167	523.26
787.348	490.49
787.529	457.72
787.71	572.41
787.891	519.16
788.073	480.25
788.254	492.54
788.435	519.16
788.616	521.21
788.797	490.49
788.978	451.58
789.159	492.54
789.34	470.01
789.522	502.78
789.703	420.86
789.884	496.63
790.065	437.24
790.246	457.72
790.427	527.35
790.607	429.05
790.788	470.01
790.969	482.3
791.15	381.95
791.331	478.2
791.512	394.23
791.693	472.06
791.874	359.42
792.054	504.82
792.235	443.39
792.416	410.62
792.597	359.42
792.778	398.33
792.958	400.38
793.139	465.91
793.32	351.23
793.5	451.58
793.681	406.52
793.862	353.27
794.042	347.13
794.223	388.09
794.404	324.6
794.584	322.56
794.765	398.33
794.945	336.89
795.126	357.37
795.306	355.32
795.487	379.9
795.667	392.19
795.848	273.4
796.028	320.51
796.209	347.13
796.389	320.51
796.57	336.89
796.75	336.89
796.93	310.27
797.111	326.65
797.291	312.32
797.471	283.64
797.652	345.08
797.832	334.84
798.012	402.43
798.192	408.57
798.373	351.23
798.553	289.79
798.733	349.18
798.913	244.73
799.093	244.73
799.274	302.08
799.454	230.4
799.634	336.89
799.814	277.5
799.994	248.83
800.174	302.08
800.354	340.99
800.534	275.45
800.714	207.87
800.894	228.35
801.074	171.01
801.254	244.73
801.434	232.44
801.614	332.79
801.794	273.4
801.974	664.57
802.154	250.88
802.334	252.92
802.514	345.08
802.693	275.45
802.873	207.87
803.053	252.92
803.233	228.35
803.413	238.59
803.592	345.08
803.772	242.68
803.952	326.65
804.131	250.88
804.311	257.02
804.491	232.44
804.67	240.64
804.85	287.74
805.03	261.12
805.209	334.84
805.389	273.4
805.568	252.92
805.748	269.31
805.928	248.83
806.107	203.77
806.287	222.2
806.466	201.72
806.646	222.2
806.825	234.49
807.004	181.25
807.184	183.29
807.363	207.87
807.543	189.44
807.722	238.59
807.901	295.93
808.081	185.34
808.26	113.66
808.439	218.11
808.619	111.61
808.798	162.81
808.977	183.29
809.156	257.02
809.336	216.06
809.515	230.4
809.694	164.86
809.873	232.44
810.052	187.39
810.231	177.15
810.411	205.82
810.59	187.39
810.769	273.4
810.948	125.95
811.127	175.1
811.306	113.66
811.485	156.67
811.664	281.6
811.843	187.39
812.022	99.33
812.201	117.76
812.38	171.01
812.559	199.68
812.737	164.86
812.916	193.53
813.095	209.92
813.274	189.44
813.453	158.72
813.632	187.39
813.811	240.64
813.989	91.13
814.168	195.58
814.347	78.85
814.526	177.15
814.704	175.1
814.883	160.77
815.062	123.9
815.24	97.28
815.419	160.77
815.598	156.67
815.776	113.66
815.955	130.05
816.133	142.33
816.312	154.62
816.49	183.29
816.669	218.11
816.847	105.47
817.026	160.77
817.204	93.18
817.383	173.05
817.561	125.95
817.74	158.72
817.918	220.16
818.097	152.57
818.275	148.48
818.453	173.05
818.632	232.44
818.81	179.2
818.988	107.52
819.167	48.13
819.345	199.68
819.523	123.9
819.701	117.76
819.879	175.1
820.058	107.52
820.236	107.52
820.414	115.71
820.592	156.67
820.77	60.42
820.948	117.76
821.127	68.61
821.305	166.91
821.483	91.13
821.661	101.37
821.839	183.29
822.017	146.43
822.195	130.05
822.373	91.13
822.551	109.57
822.729	181.25
822.907	107.52
823.085	166.91
823.262	70.65
823.44	119.81
823.618	136.19
823.796	87.04
823.974	99.33
824.152	117.76
824.329	181.25
824.507	142.33
824.685	144.38
824.863	105.47
825.04	105.47
825.218	128
825.396	78.85
825.574	121.85
825.751	132.09
825.929	97.28
826.107	103.42
826.284	74.75
826.462	113.66
826.639	140.29
826.817	37.89
826.994	99.33
827.172	82.94
827.349	220.16
827.527	70.65
827.704	60.42
827.882	166.91
828.059	123.9
828.237	95.23
828.414	132.09
828.591	17.41
828.769	146.43
828.946	11.26
829.124	105.47
829.301	179.2
829.478	76.8
829.655	99.33
829.833	82.94
830.01	105.47
830.187	66.56
830.364	33.79
830.542	95.23
830.719	82.94
830.896	132.09
831.073	91.13
831.25	44.03
831.427	23.55
831.604	97.28
831.782	35.84
831.959	132.09
832.136	48.13
832.313	-1.02
832.49	68.61
832.667	97.28
832.844	7.17
833.021	70.65
833.198	60.42
833.374	72.7
833.551	99.33
833.728	78.85
833.905	54.27
834.082	68.61
834.259	87.04
834.436	78.85
834.612	31.74
834.789	72.7
834.966	121.85
835.143	99.33
835.319	60.42
835.496	60.42
835.673	95.23
835.85	119.81
836.026	80.89
836.203	123.9
836.38	64.51
836.556	99.33
836.733	80.89
836.909	105.47
837.086	117.76
837.262	-1.02
837.439	97.28
837.616	50.18
837.792	74.75
837.968	52.22
838.145	-5.12
838.321	-3.07
838.498	11.26
838.674	156.67
838.851	68.61
839.027	46.08
839.203	89.09
839.38	132.09
839.556	1.02
839.732	64.51
839.909	29.7
840.085	80.89
840.261	58.37
840.437	25.6
840.614	54.27
840.79	89.09
840.966	48.13
841.142	70.65
841.318	29.7
841.494	78.85
841.671	105.47
841.847	82.94
842.023	54.27
842.199	41.98
842.375	107.52
842.551	-41.98
842.727	-23.55
842.903	103.42
843.079	48.13
843.255	80.89
843.431	101.37
843.607	33.79
843.783	13.31
843.959	19.46
844.134	19.46
844.31	125.95
844.486	33.79
844.662	-15.36
844.838	15.36
845.013	70.65
845.189	3.07
845.365	27.65
845.541	23.55
845.716	62.46
845.892	31.74
846.068	50.18
846.244	3.07
846.419	105.47
846.595	66.56
846.77	54.27
846.946	62.46
847.122	-9.22
847.297	21.5
847.473	99.33
847.648	-5.12
847.824	113.66
847.999	-58.37
848.175	35.84
848.35	44.03
848.526	101.37
848.701	29.7
848.876	78.85
849.052	9.22
849.227	41.98
849.403	-5.12
849.578	66.56
849.753	-37.89
849.929	39.94
850.104	-5.12
850.279	37.89
850.454	60.42
850.63	37.89
850.805	33.79
850.98	19.46
851.155	103.42
851.33	56.32
851.505	-15.36
851.681	56.32
851.856	64.51
852.031	58.37
852.206	3.07
852.381	15.36
852.556	15.36
852.731	58.37
852.906	-31.74
853.081	27.65
853.256	19.46
853.431	68.61
853.606	-39.94
853.781	64.51
853.956	5.12
854.131	-33.79
854.305	41.98
854.48	25.6
854.655	37.89
854.83	60.42
855.005	44.03
855.18	101.37
855.354	23.55
855.529	9.22
855.704	-44.03
855.879	-5.12
856.053	27.65
856.228	27.65
856.403	-109.57
856.577	-19.46
856.752	-23.55
856.926	27.65
857.101	-29.7
857.276	-46.08
857.45	-11.26
857.625	27.65
857.799	21.5
857.974	52.22
858.148	37.89
858.323	-21.5
858.497	-3.07
858.672	1.02
858.846	-70.65
859.02	68.61
859.195	-5.12
859.369	37.89
859.543	-33.79
859.718	13.31
859.892	-21.5
860.066	41.98
860.241	-31.74
860.415	-82.94
860.589	-35.84
860.763	-39.94
860.938	-5.12
861.112	76.8
861.286	3.07
861.46	-29.7
861.634	29.7
861.808	23.55
861.982	13.31
862.157	-1.02
862.331	33.79
862.505	-52.22
862.679	-52.22
862.853	39.94
863.027	-41.98
863.201	25.6
863.375	-39.94
863.549	-44.03
863.722	27.65
863.896	3.07
864.07	17.41
864.244	-1.02
864.418	97.28
864.592	13.31
864.766	80.89
864.939	41.98
865.113	1.02
865.287	-1.02
865.461	15.36
865.634	-39.94
865.808	-27.65
865.982	-29.7
866.156	-29.7
866.329	-21.5
866.503	21.5
866.676	56.32
866.85	-29.7
867.024	-50.18
867.197	25.6
867.371	19.46
867.544	58.37
867.718	-46.08
867.891	-13.31
868.065	-5.12
868.238	19.46
868.412	-1.02
868.585	-25.6
868.759	27.65
868.932	15.36
869.105	-21.5
869.279	-17.41
869.452	-48.13
869.625	46.08
869.799	1.02
869.972	-29.7
870.145	-29.7
870.319	-25.6
870.492	-31.74
870.665	-13.31
870.838	-11.26
871.011	-62.46
871.185	-21.5
871.358	74.75
871.531	-9.22
871.704	-5.12
871.877	35.84
872.05	11.26
872.223	11.26
872.396	62.46
872.569	31.74
872.742	9.22
872.915	84.99
873.088	-7.17
873.261	-23.55
873.434	33.79
873.607	19.46
873.78	109.57
873.953	80.89
874.126	-17.41
874.299	41.98
874.471	44.03
874.644	64.51
874.817	-23.55
874.99	5.12
875.163	39.94
875.335	-39.94
875.508	60.42
875.681	23.55
875.853	27.65
876.026	-33.79
876.199	-101.37
876.371	-15.36
876.544	-25.6
876.717	-17.41
876.889	-41.98
877.062	37.89
877.234	7.17
877.407	27.65
877.579	9.22
877.752	-23.55
877.924	31.74
878.097	3.07
878.269	-29.7
878.442	-23.55
878.614	-50.18
878.786	-13.31
878.959	-25.6
879.131	-3.07
879.303	-68.61
879.476	48.13
879.648	-31.74
879.82	-13.31
879.993	3.07
880.165	15.36
880.337	-76.8
880.509	-9.22
880.681	-60.42
880.854	1.02
881.026	-3.07
881.198	-41.98
881.37	33.79
881.542	11.26
881.714	-66.56
881.886	7.17
882.058	-21.5
882.23	-66.56
882.402	19.46
882.574	11.26
882.746	-7.17
882.918	15.36
883.09	-35.84
883.262	19.46
883.434	-25.6
883.606	-7.17
883.778	-29.7
883.95	23.55
884.122	25.6
884.293	31.74
884.465	-31.74
884.637	9.22
884.809	33.79
884.98	-33.79
885.152	-62.46
885.324	1.02
885.496	-23.55
885.667	-33.79
885.839	-31.74
886.011	70.65
886.182	-33.79
886.354	19.46
886.525	-31.74
886.697	-23.55
886.869	-44.03
887.04	13.31
887.212	-3.07
887.383	-7.17
887.555	-66.56
887.726	-72.7
887.897	-13.31
888.069	17.41
888.24	3.07
888.412	-3.07
888.583	35.84
888.754	-5.12
888.926	-54.27
889.097	3.07
889.268	-58.37
889.44	1.02
889.611	-27.65
889.782	23.55
889.953	-66.56
890.125	3.07
890.296	-19.46
890.467	-1.02
890.638	-41.98
890.809	-7.17
890.98	-31.74
891.151	-5.12
891.323	-23.55
891.494	-17.41
891.665	-27.65
891.836	58.37
892.007	-89.09
892.178	-3.07
892.349	-13.31
892.52	-46.08
892.691	-99.33
892.862	-21.5
893.032	-56.32
893.203	-17.41
893.374	33.79
893.545	23.55
893.716	1.02
893.887	-33.79
894.057	-13.31
894.228	121.85
894.399	-5.12
894.57	56.32
894.74	23.55
894.911	7.17
895.082	-74.75
895.253	-5.12
895.423	13.31
895.594	31.74
895.764	9.22
895.935	-93.18
896.106	-19.46
896.276	-11.26
896.447	-44.03
896.617	-19.46
896.788	-78.85
896.958	48.13
897.129	-78.85
897.299	-5.12
897.47	-39.94
897.64	46.08
897.81	-5.12
897.981	48.13
898.151	-27.65
898.322	-46.08
898.492	-11.26
898.662	7.17
898.832	37.89
899.003	-35.84
899.173	15.36
899.343	-70.65
899.513	-21.5
