Data from USB4F104151__51__11-45-11-598.txt Node

Date: Fri Mar 14 11:45:11 EDT 2025
User: louis
Spectrometer: USB4F10415
Trigger mode: 4
Integration Time (sec): 2.000000E-2
Scans to average: 1
Electric dark correction enabled: true
Nonlinearity correction enabled: false
Boxcar width: 0
XAxis mode: Wavelengths
Number of Pixels in Spectrum: 3648
>>>>>Begin Spectral Data<<<<<
178.204	-122.2
178.424	-122.2
178.644	-122.2
178.864	-111.96
179.084	-116.05
179.304	-21.85
179.524	53.93
179.744	-42.32
179.964	4.78
180.184	39.59
180.404	4.78
180.624	-11.61
180.844	-79.19
181.064	70.31
181.283	4.78
181.503	-19.8
181.723	-3.41
181.943	-89.43
182.163	74.41
182.383	-15.7
182.602	49.83
182.822	21.16
183.042	23.21
183.262	17.07
183.482	23.21
183.701	55.98
183.921	0.68
184.141	-42.32
184.361	31.4
184.58	2.73
184.8	41.64
185.02	-40.28
185.239	25.26
185.459	66.22
185.679	-19.8
185.898	19.11
186.118	23.21
186.338	37.55
186.557	17.07
186.777	49.83
186.997	45.74
187.216	-19.8
187.436	41.64
187.655	19.11
187.875	62.12
188.095	-21.85
188.314	12.97
188.534	-36.18
188.753	-13.65
188.973	88.75
189.192	64.17
189.412	17.07
189.631	19.11
189.851	10.92
190.07	55.98
190.29	17.07
190.509	10.92
190.729	45.74
190.948	10.92
191.168	111.27
191.387	72.36
191.607	10.92
191.826	47.79
192.045	103.08
192.265	-23.89
192.484	27.31
192.704	2.73
192.923	-7.51
193.142	49.83
193.362	25.26
193.581	82.6
193.8	-11.61
194.02	88.75
194.239	31.4
194.458	-25.94
194.678	-1.37
194.897	37.55
195.116	84.65
195.335	51.88
195.555	64.17
195.774	-7.51
195.993	2.73
196.212	0.68
196.432	27.31
196.651	21.16
196.87	2.73
197.089	25.26
197.308	27.31
197.528	21.16
197.747	27.31
197.966	27.31
198.185	37.55
198.404	-17.75
198.623	45.74
198.842	-38.23
199.062	12.97
199.281	39.59
199.5	19.11
199.719	25.26
199.938	8.87
200.157	58.03
200.376	8.87
200.595	-25.94
200.814	49.83
201.033	41.64
201.252	-34.13
201.471	2.73
201.69	62.12
201.909	43.69
202.128	21.16
202.347	49.83
202.566	25.26
202.785	-15.7
203.004	12.97
203.223	19.11
203.442	6.83
203.661	-7.51
203.879	-44.37
204.098	25.26
204.317	-36.18
204.536	111.27
204.755	-34.13
204.974	49.83
205.193	-13.65
205.411	49.83
205.63	66.22
205.849	-3.41
206.068	-17.75
206.287	19.11
206.505	80.55
206.724	55.98
206.943	2.73
207.162	6.83
207.381	68.27
207.599	-40.28
207.818	58.03
208.037	62.12
208.255	47.79
208.474	-38.23
208.693	10.92
208.911	19.11
209.13	-44.37
209.349	45.74
209.567	2.73
209.786	31.4
210.005	6.83
210.223	4.78
210.442	19.11
210.661	0.68
210.879	31.4
211.098	-9.56
211.316	53.93
211.535	66.22
211.753	39.59
211.972	55.98
212.191	-1.37
212.409	15.02
212.628	-27.99
212.846	86.7
213.065	-3.41
213.283	6.83
213.502	94.89
213.72	10.92
213.938	39.59
214.157	115.37
214.375	23.21
214.594	-7.51
214.812	55.98
215.031	6.83
215.249	39.59
215.467	-11.61
215.686	-5.46
215.904	58.03
216.122	-13.65
216.341	17.07
216.559	39.59
216.778	80.55
216.996	33.45
217.214	29.35
217.432	6.83
217.651	-9.56
217.869	23.21
218.087	23.21
218.306	31.4
218.524	21.16
218.742	-30.04
218.96	23.21
219.179	17.07
219.397	35.5
219.615	72.36
219.833	29.35
220.051	12.97
220.27	96.94
220.488	68.27
220.706	68.27
220.924	8.87
221.142	35.5
221.36	29.35
221.578	17.07
221.796	2.73
222.015	55.98
222.233	6.83
222.451	80.55
222.669	119.46
222.887	70.31
223.105	-25.94
223.323	31.4
223.541	-23.89
223.759	-19.8
223.977	51.88
224.195	154.28
224.413	-21.85
224.631	47.79
224.849	-13.65
225.067	62.12
225.285	-32.08
225.503	94.89
225.721	51.88
225.939	12.97
226.157	-1.37
226.375	109.22
226.592	-25.94
226.81	49.83
227.028	21.16
227.246	84.65
227.464	12.97
227.682	45.74
227.9	60.07
228.117	43.69
228.335	47.79
228.553	121.51
228.771	51.88
228.989	92.84
229.206	-1.37
229.424	-19.8
229.642	35.5
229.86	15.02
230.077	107.18
230.295	27.31
230.513	23.21
230.731	80.55
230.948	2.73
231.166	23.21
231.384	12.97
231.601	51.88
231.819	80.55
232.037	-38.23
232.254	88.75
232.472	12.97
232.689	15.02
232.907	76.46
233.125	-25.94
233.342	47.79
233.56	21.16
233.777	-3.41
233.995	47.79
234.213	53.93
234.43	66.22
234.648	31.4
234.865	2.73
235.083	-5.46
235.3	-27.99
235.518	10.92
235.735	64.17
235.953	55.98
236.17	86.7
236.388	2.73
236.605	6.83
236.822	58.03
237.04	58.03
237.257	68.27
237.475	37.55
237.692	19.11
237.909	29.35
238.127	31.4
238.344	39.59
238.562	10.92
238.779	-34.13
238.996	94.89
239.214	64.17
239.431	0.68
239.648	-25.94
239.865	47.79
240.083	25.26
240.3	45.74
240.517	0.68
240.735	80.55
240.952	6.83
241.169	117.42
241.386	8.87
241.603	-40.28
241.821	21.16
242.038	58.03
242.255	43.69
242.472	-13.65
242.689	23.21
242.907	49.83
243.124	15.02
243.341	33.45
243.558	51.88
243.775	-34.13
243.992	-11.61
244.209	-9.56
244.426	33.45
244.643	-1.37
244.86	-13.65
245.078	94.89
245.295	4.78
245.512	-34.13
245.729	96.94
245.946	31.4
246.163	37.55
246.38	49.83
246.597	55.98
246.814	53.93
247.031	45.74
247.248	62.12
247.464	-1.37
247.681	-21.85
247.898	47.79
248.115	178.86
248.332	-44.37
248.549	94.89
248.766	49.83
248.983	-54.61
249.2	-66.9
249.417	58.03
249.633	37.55
249.85	58.03
250.067	43.69
250.284	68.27
250.501	31.4
250.717	62.12
250.934	-21.85
251.151	23.21
251.368	23.21
251.585	70.31
251.801	47.79
252.018	-42.32
252.235	88.75
252.451	-9.56
252.668	-19.8
252.885	70.31
253.102	47.79
253.318	39.59
253.535	94.89
253.752	-19.8
253.968	4.78
254.185	17.07
254.401	17.07
254.618	31.4
254.835	29.35
255.051	47.79
255.268	41.64
255.484	6.83
255.701	25.26
255.917	2.73
256.134	-42.32
256.351	15.02
256.567	-27.99
256.784	53.93
257	55.98
257.217	25.26
257.433	82.6
257.65	55.98
257.866	58.03
258.082	68.27
258.299	23.21
258.515	4.78
258.732	31.4
258.948	41.64
259.165	27.31
259.381	60.07
259.597	53.93
259.814	62.12
260.03	25.26
260.246	78.51
260.463	17.07
260.679	51.88
260.895	39.59
261.112	92.84
261.328	-17.75
261.544	-3.41
261.761	119.46
261.977	-40.28
262.193	53.93
262.409	43.69
262.626	25.26
262.842	19.11
263.058	17.07
263.274	25.26
263.49	17.07
263.707	-32.08
263.923	64.17
264.139	47.79
264.355	35.5
264.571	92.84
264.787	31.4
265.004	4.78
265.22	-32.08
265.436	31.4
265.652	23.21
265.868	49.83
266.084	49.83
266.3	35.5
266.516	-30.04
266.732	117.42
266.948	86.7
267.164	49.83
267.38	33.45
267.596	0.68
267.812	62.12
268.028	58.03
268.244	-5.46
268.46	25.26
268.676	-54.61
268.892	64.17
269.108	39.59
269.324	53.93
269.54	29.35
269.756	58.03
269.972	0.68
270.188	35.5
270.403	-19.8
270.619	90.79
270.835	64.17
271.051	31.4
271.267	-17.75
271.483	45.74
271.698	47.79
271.914	17.07
272.13	8.87
272.346	43.69
272.562	74.41
272.777	64.17
272.993	37.55
273.209	19.11
273.425	60.07
273.64	53.93
273.856	88.75
274.072	53.93
274.287	92.84
274.503	119.46
274.719	15.02
274.934	53.93
275.15	47.79
275.366	-3.41
275.581	45.74
275.797	-1.37
276.012	80.55
276.228	10.92
276.444	15.02
276.659	2.73
276.875	4.78
277.09	68.27
277.306	43.69
277.521	76.46
277.737	27.31
277.952	23.21
278.168	2.73
278.383	17.07
278.599	-5.46
278.814	19.11
279.03	55.98
279.245	43.69
279.461	-9.56
279.676	19.11
279.892	-52.56
280.107	68.27
280.322	37.55
280.538	60.07
280.753	6.83
280.969	62.12
281.184	-32.08
281.399	27.31
281.615	35.5
281.83	39.59
282.045	10.92
282.26	70.31
282.476	53.93
282.691	29.35
282.906	43.69
283.122	4.78
283.337	19.11
283.552	15.02
283.767	-58.71
283.983	33.45
284.198	-3.41
284.413	105.13
284.628	-5.46
284.843	19.11
285.058	45.74
285.274	-15.7
285.489	-27.99
285.704	17.07
285.919	23.21
286.134	43.69
286.349	-15.7
286.564	10.92
286.779	78.51
286.995	45.74
287.21	-23.89
287.425	45.74
287.64	17.07
287.855	29.35
288.07	-3.41
288.285	55.98
288.5	64.17
288.715	0.68
288.93	4.78
289.145	-46.42
289.36	53.93
289.575	-13.65
289.79	-34.13
290.004	-9.56
290.219	-3.41
290.434	33.45
290.649	31.4
290.864	78.51
291.079	84.65
291.294	129.7
291.509	-3.41
291.724	76.46
291.938	37.55
292.153	113.32
292.368	-32.08
292.583	90.79
292.798	19.11
293.012	62.12
293.227	6.83
293.442	-13.65
293.657	41.64
293.871	43.69
294.086	45.74
294.301	23.21
294.516	41.64
294.73	88.75
294.945	70.31
295.16	-27.99
295.374	2.73
295.589	47.79
295.804	23.21
296.018	29.35
296.233	39.59
296.447	64.17
296.662	49.83
296.877	70.31
297.091	60.07
297.306	111.27
297.52	31.4
297.735	19.11
297.949	-38.23
298.164	-15.7
298.378	31.4
298.593	-25.94
298.807	-34.13
299.022	-44.37
299.236	35.5
299.451	49.83
299.665	49.83
299.88	58.03
300.094	72.36
300.309	-32.08
300.523	23.21
300.737	33.45
300.952	68.27
301.166	66.22
301.381	23.21
301.595	80.55
301.809	68.27
302.024	6.83
302.238	17.07
302.452	10.92
302.667	80.55
302.881	68.27
303.095	72.36
303.309	-42.32
303.524	33.45
303.738	92.84
303.952	15.02
304.166	29.35
304.381	-21.85
304.595	96.94
304.809	2.73
305.023	66.22
305.237	-34.13
305.452	33.45
305.666	43.69
305.88	27.31
306.094	0.68
306.308	8.87
306.522	74.41
306.736	23.21
306.95	31.4
307.164	51.88
307.379	12.97
307.593	17.07
307.807	55.98
308.021	86.7
308.235	66.22
308.449	41.64
308.663	94.89
308.877	111.27
309.091	27.31
309.305	68.27
309.519	25.26
309.733	45.74
309.947	-7.51
310.161	8.87
310.374	127.66
310.588	64.17
310.802	-3.41
311.016	64.17
311.23	12.97
311.444	-17.75
311.658	-17.75
311.872	72.36
312.085	33.45
312.299	41.64
312.513	39.59
312.727	35.5
312.941	47.79
313.154	17.07
313.368	2.73
313.582	25.26
313.796	-19.8
314.009	55.98
314.223	23.21
314.437	19.11
314.651	15.02
314.864	17.07
315.078	21.16
315.292	72.36
315.505	78.51
315.719	60.07
315.933	6.83
316.146	21.16
316.36	-9.56
316.573	88.75
316.787	-1.37
317.001	-9.56
317.214	-15.7
317.428	90.79
317.641	76.46
317.855	31.4
318.068	12.97
318.282	27.31
318.495	84.65
318.709	43.69
318.922	-5.46
319.136	96.94
319.349	53.93
319.563	41.64
319.776	12.97
319.99	53.93
320.203	41.64
320.417	-7.51
320.63	53.93
320.843	15.02
321.057	-1.37
321.27	35.5
321.483	15.02
321.697	51.88
321.91	-13.65
322.124	-5.46
322.337	25.26
322.55	-11.61
322.763	10.92
322.977	19.11
323.19	-11.61
323.403	35.5
323.617	4.78
323.83	25.26
324.043	19.11
324.256	19.11
324.469	10.92
324.683	25.26
324.896	37.55
325.109	68.27
325.322	-30.04
325.535	27.31
325.748	-17.75
325.962	35.5
326.175	35.5
326.388	39.59
326.601	80.55
326.814	74.41
327.027	33.45
327.24	76.46
327.453	10.92
327.666	39.59
327.879	41.64
328.092	125.61
328.305	-7.51
328.518	121.51
328.731	39.59
328.944	-66.9
329.157	29.35
329.37	21.16
329.583	176.81
329.796	66.22
330.009	-7.51
330.222	70.31
330.435	23.21
330.648	76.46
330.861	31.4
331.073	109.22
331.286	68.27
331.499	58.03
331.712	96.94
331.925	23.21
332.138	55.98
332.35	27.31
332.563	41.64
332.776	33.45
332.989	-71
333.202	23.21
333.414	49.83
333.627	70.31
333.84	39.59
334.053	51.88
334.265	53.93
334.478	41.64
334.691	21.16
334.903	64.17
335.116	19.11
335.329	31.4
335.541	-54.61
335.754	78.51
335.966	17.07
336.179	98.99
336.392	76.46
336.604	29.35
336.817	55.98
337.029	51.88
337.242	-21.85
337.454	76.46
337.667	37.55
337.88	31.4
338.092	21.16
338.305	8.87
338.517	25.26
338.729	51.88
338.942	76.46
339.154	21.16
339.367	-3.41
339.579	72.36
339.792	53.93
340.004	76.46
340.217	-5.46
340.429	72.36
340.641	68.27
340.854	-9.56
341.066	76.46
341.278	49.83
341.491	-19.8
341.703	-21.85
341.915	17.07
342.128	25.26
342.34	37.55
342.552	133.8
342.764	62.12
342.977	41.64
343.189	66.22
343.401	41.64
343.613	-9.56
343.826	94.89
344.038	-34.13
344.25	33.45
344.462	31.4
344.674	80.55
344.886	41.64
345.099	82.6
345.311	92.84
345.523	8.87
345.735	-46.42
345.947	-3.41
346.159	35.5
346.371	55.98
346.583	-7.51
346.795	39.59
347.007	103.08
347.219	41.64
347.431	29.35
347.643	90.79
347.855	72.36
348.067	98.99
348.279	29.35
348.491	2.73
348.703	-27.99
348.915	72.36
349.127	29.35
349.339	47.79
349.551	76.46
349.763	17.07
349.975	4.78
350.187	53.93
350.399	-17.75
350.61	74.41
350.822	21.16
351.034	6.83
351.246	-5.46
351.458	23.21
351.669	55.98
351.881	29.35
352.093	121.51
352.305	43.69
352.517	76.46
352.728	23.21
352.94	39.59
353.152	39.59
353.363	2.73
353.575	39.59
353.787	129.7
353.999	66.22
354.21	88.75
354.422	12.97
354.633	35.5
354.845	-52.56
355.057	66.22
355.268	37.55
355.48	88.75
355.692	43.69
355.903	76.46
356.115	66.22
356.326	80.55
356.538	68.27
356.749	90.79
356.961	21.16
357.172	31.4
357.384	86.7
357.595	72.36
357.807	66.22
358.018	-3.41
358.23	-7.51
358.441	78.51
358.653	-21.85
358.864	4.78
359.075	-1.37
359.287	117.42
359.498	2.73
359.709	-3.41
359.921	62.12
360.132	64.17
360.344	58.03
360.555	27.31
360.766	55.98
360.977	35.5
361.189	86.7
361.4	68.27
361.611	86.7
361.823	47.79
362.034	17.07
362.245	62.12
362.456	10.92
362.667	23.21
362.879	0.68
363.09	47.79
363.301	84.65
363.512	6.83
363.723	60.07
363.935	37.55
364.146	39.59
364.357	45.74
364.568	23.21
364.779	33.45
364.99	23.21
365.201	31.4
365.412	51.88
365.623	51.88
365.834	103.08
366.045	27.31
366.256	133.8
366.467	23.21
366.678	-13.65
366.889	47.79
367.1	0.68
367.311	58.03
367.522	43.69
367.733	90.79
367.944	90.79
368.155	92.84
368.366	-19.8
368.577	119.46
368.788	31.4
368.999	6.83
369.209	51.88
369.42	55.98
369.631	72.36
369.842	-3.41
370.053	-58.71
370.264	37.55
370.474	-56.66
370.685	41.64
370.896	58.03
371.107	29.35
371.317	39.59
371.528	64.17
371.739	60.07
371.95	35.5
372.16	39.59
372.371	19.11
372.582	-19.8
372.792	31.4
373.003	12.97
373.214	51.88
373.424	88.75
373.635	45.74
373.846	154.28
374.056	25.26
374.267	88.75
374.477	39.59
374.688	-9.56
374.898	98.99
375.109	45.74
375.319	41.64
375.53	68.27
375.74	58.03
375.951	53.93
376.161	72.36
376.372	76.46
376.582	4.78
376.793	12.97
377.003	27.31
377.214	27.31
377.424	31.4
377.635	68.27
377.845	47.79
378.055	70.31
378.266	41.64
378.476	72.36
378.686	84.65
378.897	86.7
379.107	66.22
379.317	39.59
379.528	41.64
379.738	62.12
379.948	6.83
380.158	39.59
380.369	23.21
380.579	15.02
380.789	23.21
380.999	117.42
381.21	84.65
381.42	123.56
381.63	27.31
381.84	70.31
382.05	2.73
382.261	94.89
382.471	82.6
382.681	88.75
382.891	47.79
383.101	31.4
383.311	31.4
383.521	66.22
383.731	25.26
383.941	10.92
384.151	-5.46
384.361	47.79
384.571	146.09
384.781	35.5
384.991	84.65
385.201	111.27
385.411	43.69
385.621	41.64
385.831	60.07
386.041	123.56
386.251	39.59
386.461	62.12
386.671	-13.65
386.881	66.22
387.091	47.79
387.301	66.22
387.511	33.45
387.72	66.22
387.93	41.64
388.14	19.11
388.35	76.46
388.56	35.5
388.769	-3.41
388.979	76.46
389.189	41.64
389.399	72.36
389.609	180.9
389.818	31.4
390.028	15.02
390.238	60.07
390.447	31.4
390.657	101.03
390.867	74.41
391.076	31.4
391.286	12.97
391.496	78.51
391.705	27.31
391.915	76.46
392.125	111.27
392.334	94.89
392.544	88.75
392.753	19.11
392.963	82.6
393.172	60.07
393.382	84.65
393.591	78.51
393.801	4.78
394.01	58.03
394.22	80.55
394.429	96.94
394.639	127.66
394.848	12.97
395.058	64.17
395.267	88.75
395.477	105.13
395.686	115.37
395.895	101.03
396.105	131.75
396.314	111.27
396.524	135.85
396.733	4.78
396.942	68.27
397.152	105.13
397.361	96.94
397.57	64.17
397.78	62.12
397.989	144.04
398.198	107.18
398.407	64.17
398.617	51.88
398.826	121.51
399.035	43.69
399.244	51.88
399.453	49.83
399.663	127.66
399.872	137.9
400.081	127.66
400.29	76.46
400.499	121.51
400.708	162.47
400.917	70.31
401.127	123.56
401.336	66.22
401.545	160.42
401.754	133.8
401.963	121.51
402.172	68.27
402.381	60.07
402.59	17.07
402.799	117.42
403.008	107.18
403.217	123.56
403.426	160.42
403.635	195.24
403.844	201.38
404.053	178.86
404.262	133.8
404.471	129.7
404.68	111.27
404.888	84.65
405.097	180.9
405.306	156.33
405.515	193.19
405.724	119.46
405.933	152.23
406.142	158.38
406.35	180.9
406.559	160.42
406.768	150.18
406.977	146.09
407.185	217.77
407.394	199.34
407.603	101.03
407.812	158.38
408.02	207.53
408.229	213.67
408.438	301.73
408.646	228.01
408.855	180.9
409.064	219.82
409.272	195.24
409.481	318.12
409.69	127.66
409.898	301.73
410.107	283.3
410.315	363.17
410.524	348.84
410.733	373.41
410.941	301.73
411.15	314.02
411.358	400.04
411.567	363.17
411.775	443.04
411.984	430.76
412.192	453.28
412.401	410.28
412.609	504.48
412.818	424.61
413.026	393.89
413.234	484
413.443	580.26
413.651	559.78
413.86	596.64
414.068	606.88
414.276	621.22
414.485	717.47
414.693	633.5
414.901	619.17
415.11	740
415.318	635.55
415.526	789.15
415.734	799.39
415.943	801.44
416.151	823.97
416.359	776.86
416.567	909.98
416.776	912.03
416.984	975.52
417.192	959.13
417.4	928.41
417.608	1002.14
417.817	1039
418.025	1112.73
418.233	1153.69
418.441	1157.79
418.649	1165.98
418.857	1319.57
419.065	1225.37
419.273	1239.7
419.481	1354.39
419.689	1409.69
419.897	1495.7
420.105	1577.62
420.313	1538.71
420.521	1612.43
420.729	1639.06
420.937	1708.69
421.145	1882.77
421.353	1915.53
421.561	1966.73
421.769	2011.79
421.977	2015.88
422.185	1976.97
422.393	2073.23
422.601	2286.22
422.809	2214.54
423.017	2312.84
423.224	2415.24
423.432	2519.68
423.64	2484.87
423.848	2751.1
424.056	2626.18
424.263	2697.86
424.471	2812.54
424.679	2929.28
424.887	3078.78
425.094	3134.07
425.302	3170.94
425.51	3324.54
425.718	3342.97
425.925	3373.69
426.133	3564.15
426.341	3766.9
426.548	3861.1
426.756	3775.09
426.964	3922.54
427.171	4115.05
427.379	4211.31
427.586	4229.74
427.794	4608.61
428.001	4571.75
428.209	5005.92
428.417	4858.46
428.624	5085.79
428.832	5255.77
429.039	5249.63
429.247	5053.02
429.454	5739.09
429.662	5900.88
429.869	5597.78
430.076	6034
430.284	5806.67
430.491	6085.2
430.699	6457.93
430.906	6443.59
431.114	6351.43
431.321	6863.43
431.528	7027.26
431.736	7205.44
431.943	7619.13
432.15	7418.43
432.358	7486.01
432.565	7975.47
432.772	7987.76
432.979	8495.66
433.187	8469.03
433.394	8520.23
433.601	9050.66
433.808	9050.66
434.016	8946.21
434.223	9595.42
434.43	10068.5
434.637	9955.86
434.844	10463.75
435.052	10742.28
435.259	10547.72
435.466	10801.67
435.673	10455.56
435.88	11207.17
436.087	11672.06
436.294	12001.78
436.501	11618.81
436.708	11809.27
436.915	11950.58
437.122	12816.87
437.329	12704.23
437.537	13261.28
437.743	13576.67
437.95	13361.63
438.157	14178.77
438.364	14154.19
438.571	14457.29
438.778	14537.16
438.985	16044.47
439.192	15253.95
439.399	15851.96
439.606	15442.37
439.813	16161.2
440.02	17168.8
440.227	16877.99
440.433	16751.02
440.64	17385.89
440.847	17060.26
441.054	17476
441.261	18858.38
441.467	18506.13
441.674	18936.2
441.881	19966.33
442.088	19607.94
442.294	19497.35
442.501	20099.45
442.708	20472.18
442.914	21324.13
443.121	22186.33
443.328	21492.07
443.534	22892.88
443.741	22333.78
443.948	21999.96
444.154	23492.93
444.361	23365.96
444.568	23605.57
444.774	23490.88
444.981	24095.03
445.187	24570.16
445.394	25852.19
445.6	25569.57
445.807	27568.39
446.013	26413.34
446.22	27119.88
446.426	27930.88
446.633	28180.73
446.839	29620.45
447.046	28064
447.252	29536.49
447.459	29837.54
447.665	29602.02
447.871	30722.26
448.078	32043.2
448.284	30423.26
448.491	31844.55
448.697	32805.05
448.903	33276.08
449.11	33427.63
449.316	32594.11
449.522	33380.53
449.728	34314.4
449.935	34574.49
450.141	34343.07
450.347	35440.78
450.553	34427.04
450.76	34619.55
450.966	35676.3
451.172	35387.53
451.378	36450.43
451.584	35637.39
451.791	36427.9
451.997	36237.44
452.203	36618.36
452.409	36884.6
452.615	36903.03
452.821	35395.73
453.027	35029.14
453.233	36939.9
453.44	35356.82
453.646	36001.93
453.852	36225.15
454.058	36700.28
454.264	35631.24
454.47	36257.92
454.676	35219.6
454.882	36458.62
455.088	33099.95
455.294	34052.26
455.5	34406.56
455.705	34257.06
455.911	33691.82
456.117	32538.81
456.323	31998.15
456.529	30486.75
456.735	31766.73
456.941	31004.88
457.147	30544.09
457.352	29708.52
457.558	29186.29
457.764	29128.94
457.97	28938.48
458.176	28197.12
458.381	28276.99
458.587	26847.5
458.793	26855.7
458.999	25182.51
459.204	27101.45
459.41	26587.41
459.616	24488.24
459.821	24912.17
460.027	24680.75
460.233	24273.21
460.438	22802.77
460.644	23259.46
460.85	21999.96
461.055	21649.76
461.261	21682.53
461.466	20212.09
461.672	19513.73
461.878	20867.44
462.083	19501.44
462.289	19290.5
462.494	18983.31
462.7	18104.73
462.905	17889.69
463.111	18243.99
463.316	18143.64
463.522	17766.81
463.727	17973.66
463.932	17971.61
464.138	17811.87
464.343	17750.43
464.549	17226.15
464.754	18008.47
464.959	17523.1
465.165	17545.63
465.37	16918.95
465.575	16267.7
465.781	17252.77
465.986	17056.17
466.191	16662.96
466.397	16312.75
466.602	15460.8
466.807	16011.7
467.012	15960.5
467.218	15722.94
467.423	15718.84
467.628	15690.17
467.833	16288.18
468.038	15870.39
468.244	15407.55
468.449	15989.17
468.654	15493.57
468.859	15225.28
469.064	15149.51
469.269	14592.46
469.474	14868.94
469.679	15190.47
469.885	14531.02
470.09	14832.07
470.295	14940.61
470.5	14516.69
470.705	14549.45
470.91	14238.16
471.115	14111.19
471.32	14346.7
471.525	14025.17
471.73	13695.45
471.935	13654.49
472.139	13308.38
472.344	13421.02
472.549	13367.77
472.754	13216.22
472.959	13062.63
473.164	12630.51
473.369	12575.21
473.574	12900.84
473.778	12804.58
473.983	12526.06
474.188	12743.14
474.393	12095.99
474.598	12151.28
474.802	11936.24
475.007	11903.48
475.212	11893.24
475.417	11467.26
475.621	11489.79
475.826	11524.6
476.031	11385.34
476.235	11172.35
476.44	11512.31
476.645	11096.58
476.849	11078.15
477.054	10914.31
477.259	10650.12
477.463	10643.98
477.668	10557.96
477.872	10584.59
478.077	10402.32
478.282	10361.36
478.486	10168.85
478.691	10263.05
478.895	10146.32
479.1	10009.11
479.304	9906.71
479.509	9546.26
479.713	9875.99
479.918	9771.54
480.122	9407
480.326	9619.99
480.531	9613.85
480.735	9464.35
480.94	9497.11
481.144	9781.78
481.348	9378.33
481.553	9239.07
481.757	9239.07
481.961	9366.04
482.166	9581.08
482.37	9333.28
482.574	9095.71
482.778	9273.89
482.983	9255.45
483.187	9249.31
483.391	9445.91
483.595	9060.9
483.8	9185.82
484.004	9325.08
484.208	9458.2
484.412	9058.85
484.616	9255.45
484.821	9189.92
485.025	9200.16
485.229	9200.16
485.433	9290.27
485.637	9335.32
485.841	8962.59
486.045	9120.29
486.249	9282.08
486.453	9087.52
486.657	9183.77
486.861	9155.1
487.065	8919.59
487.269	9210.4
487.473	8935.97
487.677	9210.4
487.881	9345.56
488.085	9157.15
488.289	9040.42
488.493	9112.1
488.697	9241.12
488.901	9228.83
489.105	9398.81
489.309	9179.68
489.512	9210.4
489.716	9368.09
489.92	9300.51
490.124	9318.94
490.328	9542.17
490.531	9372.19
490.735	9476.63
490.939	9503.26
491.143	9445.91
491.346	9355.8
491.55	9554.46
491.754	9527.83
491.958	9640.47
492.161	9654.81
492.365	9775.64
492.569	9650.71
492.772	9566.74
492.976	9775.64
493.18	9540.12
493.383	9853.46
493.587	9798.17
493.79	9998.87
493.994	10062.35
494.197	10154.51
494.401	10234.38
494.605	10035.73
494.808	10273.29
495.012	10361.36
495.215	10418.7
495.419	10435.08
495.622	10443.28
495.825	10605.06
496.029	10592.78
496.232	10844.68
496.436	10764.81
496.639	11067.91
496.843	10875.4
497.046	11289.09
497.249	11123.2
497.453	11459.07
497.656	11295.23
497.859	11223.55
498.063	11620.86
498.266	11883
498.469	11694.58
498.673	11856.37
498.876	11889.14
499.079	12294.64
499.282	12214.77
499.485	12483.05
499.689	12536.3
499.892	12747.24
500.095	12640.75
500.298	13132.26
500.501	12829.16
500.705	13296.1
500.908	13435.36
501.111	13591
501.314	13693.4
501.517	13701.59
501.72	13914.58
501.923	14074.32
502.126	14146
502.329	14614.99
502.532	14629.32
502.735	14672.33
502.938	14922.18
503.141	14795.21
503.344	15149.51
503.547	15276.48
503.75	15565.25
503.953	15688.12
504.156	15841.72
504.359	16040.37
504.562	15952.31
504.765	16484.78
504.968	16363.95
505.17	16742.83
505.373	16554.41
505.576	17156.52
505.779	17078.69
505.982	17054.12
506.185	17365.41
506.387	17686.94
506.59	17822.11
506.793	18082.2
506.996	17971.61
507.198	18850.19
507.401	18348.43
507.604	18260.37
507.807	19009.93
508.009	18774.41
508.212	19108.23
508.415	19581.31
508.617	20072.82
508.82	19646.85
509.022	20044.15
509.225	20500.85
509.428	20363.64
509.63	20275.57
509.833	20521.33
510.035	21145.96
510.238	21098.86
510.44	21268.84
510.643	21672.29
510.845	21872.99
511.048	21868.89
511.25	22280.53
511.453	22278.49
511.655	22980.94
511.858	22665.55
512.06	22899.02
512.262	23107.91
512.465	23015.76
512.667	23578.95
512.87	23523.65
513.072	23781.7
513.274	24443.19
513.477	24310.07
513.679	24486.2
513.881	24684.85
514.084	24912.17
514.286	25356.58
514.488	25405.73
514.69	25907.49
514.893	25950.49
515.095	25733.41
515.297	26515.73
515.499	26497.3
515.701	26669.33
515.904	26870.03
516.106	27232.52
516.308	27437.32
516.51	28076.29
516.712	27621.64
516.914	27883.78
517.116	28463.35
517.318	28723.44
517.52	28872.95
517.722	28817.65
517.925	29337.83
518.127	29612.26
518.329	29665.51
518.531	29716.71
518.733	30128.35
518.935	30173.41
519.136	30499.03
519.338	30922.96
519.54	30931.15
519.742	31539.4
519.944	31795.4
520.146	31871.17
520.348	31785.16
520.55	32274.62
520.752	32350.4
520.954	33065.14
521.155	32364.73
521.357	33355.95
521.559	33556.65
521.761	34269.34
521.963	33368.24
522.164	33925.29
522.366	34136.23
522.568	34300.06
522.77	34361.5
522.971	35004.56
523.173	34676.89
523.375	35098.77
523.576	35387.53
523.778	35221.65
523.98	36044.93
524.181	36135.04
524.383	35942.53
524.584	36352.13
524.786	36636.8
524.988	36114.56
525.189	36714.62
525.391	36685.95
525.592	37019.77
525.794	36896.89
525.995	37572.72
526.197	37320.82
526.398	37740.65
526.6	37998.69
526.801	37693.55
527.003	37976.17
527.204	38445.15
527.406	38045.8
527.607	38365.28
527.808	38373.47
528.01	38254.69
528.211	38678.62
528.412	38889.56
528.614	39194.71
528.815	38789.21
529.016	39293.01
529.218	38985.82
529.419	39256.15
529.62	39473.23
529.822	39434.32
530.023	39583.82
530.224	39325.78
530.425	39362.64
530.626	39250
530.828	39348.31
531.029	40429.63
531.23	39344.21
531.431	39342.16
531.632	39952.46
531.833	40087.62
532.035	39792.72
532.236	40153.16
532.437	40319.04
532.638	39917.64
532.839	40362.05
533.04	40083.53
533.241	39977.03
533.442	40779.84
533.643	40423.49
533.844	40273.99
534.045	40214.6
534.246	39862.35
534.447	40738.88
534.648	40362.05
534.849	40511.55
535.05	40235.08
535.251	40372.29
535.451	40118.34
535.652	40173.64
535.853	40046.66
536.054	40765.5
536.255	40771.64
536.456	40087.62
536.657	41158.71
536.857	40603.71
537.058	40190.02
537.259	40413.25
537.46	40486.98
537.66	40314.95
537.861	40400.96
538.062	40394.82
538.263	40497.22
538.463	40085.58
538.664	40669.25
538.865	40622.14
539.065	40697.92
539.266	40290.37
539.466	40929.34
539.667	39878.73
539.868	40730.69
540.068	40540.22
540.269	39919.69
540.469	40501.31
540.67	40388.67
540.87	39934.03
541.071	40331.33
541.271	40347.72
541.472	40370.24
541.672	40044.62
541.873	39776.33
542.073	39770.19
542.274	40493.12
542.474	40247.36
542.675	40181.83
542.875	40693.82
543.075	40202.31
543.276	39987.27
543.476	40624.19
543.676	40206.41
543.877	40052.81
544.077	39964.74
544.277	40261.7
544.478	39780.43
544.678	40421.44
544.878	39856.2
545.078	40005.7
545.279	39538.77
545.479	39780.43
545.679	40237.12
545.879	40011.85
546.079	40028.23
546.28	39813.2
546.48	40020.04
546.68	40171.59
546.88	39813.2
547.08	40026.18
547.28	40032.33
547.48	40226.88
547.68	39800.91
547.88	39600.21
548.081	40245.32
548.281	39725.13
548.481	39870.54
548.681	40044.62
548.881	39692.36
549.081	39962.7
549.28	39905.35
549.48	40042.57
549.68	39778.38
549.88	40364.1
550.08	39626.83
550.28	40118.34
550.48	39647.31
550.68	40159.3
550.88	39551.06
551.08	39583.82
551.279	39618.64
551.479	39360.59
551.679	39616.59
551.879	39530.58
552.079	39387.22
552.278	39399.51
552.478	39313.49
552.678	39587.92
552.878	39663.69
553.077	39772.24
553.277	39604.3
553.477	39974.98
553.676	39155.8
553.876	39286.87
554.076	39358.55
554.275	39772.24
554.475	38899.8
554.674	39319.63
554.874	39485.52
555.074	39325.78
555.273	39497.81
555.473	39358.55
555.672	39075.93
555.872	39135.32
556.071	38649.95
556.271	39166.04
556.47	38867.03
556.67	38819.93
556.869	38897.75
557.068	39309.39
557.268	38561.89
557.467	38893.66
557.667	38658.14
557.866	38465.63
558.065	38768.73
558.265	38465.63
558.464	38451.3
558.663	38867.03
558.863	38113.38
559.062	38889.56
559.261	38191.2
559.461	38504.54
559.66	37822.57
559.859	38359.14
560.058	38049.89
560.258	38101.09
560.457	37675.12
560.656	38023.27
560.855	38062.18
561.054	38207.59
561.253	37634.16
561.453	37949.54
561.652	38015.08
561.851	38178.92
562.05	37558.38
562.249	37539.95
562.448	37886.06
562.647	37417.07
562.846	37593.2
563.045	37716.08
563.244	37052.53
563.443	37851.24
563.642	36937.85
563.841	37177.46
564.04	37066.87
564.239	37232.75
564.438	36722.81
564.637	37027.96
564.836	36675.71
565.035	36362.37
565.234	36966.52
565.432	36477.05
565.631	36786.3
565.83	36771.96
566.029	36550.78
566.228	36522.11
566.427	36302.98
566.625	36294.78
566.824	35776.65
567.023	36305.02
567.222	35704.97
567.42	36206.72
567.619	35971.21
567.818	35917.96
568.016	35803.27
568.215	35833.99
568.414	35686.54
568.612	35967.11
568.811	35465.36
569.01	35551.37
569.208	35315.86
569.407	35377.29
569.605	34683.03
569.804	35389.58
570.002	34975.89
570.201	35111.06
570.4	34605.21
570.598	34979.99
570.797	34869.4
570.995	34830.49
571.193	34750.62
571.392	34785.43
571.59	34285.73
571.789	34363.55
571.987	34351.26
572.186	34562.2
572.384	33730.73
572.582	34060.45
572.781	33865.89
572.979	33624.23
573.177	33743.02
573.376	33984.68
573.574	33865.89
573.772	33982.63
573.971	33554.6
574.169	33331.37
574.367	33255.6
574.565	33521.84
574.763	33169.58
574.962	32960.69
575.16	32764.09
575.358	33165.49
575.556	32653.5
575.754	33228.98
575.952	32626.87
576.151	33013.94
576.349	32405.69
576.547	32327.87
576.745	32489.66
576.943	32551.1
577.141	32551.1
577.339	32278.72
577.537	32243.9
577.735	32141.5
577.933	31854.79
578.131	32045.25
578.329	31949
578.527	31520.97
578.725	31811.78
578.923	31828.16
579.121	31310.03
579.319	31432.91
579.516	31670.47
579.714	31899.84
579.912	31391.95
580.11	31170.77
580.308	31338.7
580.506	30994.64
580.704	30853.33
580.901	30949.59
581.099	31146.19
581.297	31060.18
581.495	30460.12
581.692	30918.87
581.89	30474.46
582.088	30359.77
582.285	30324.96
582.483	30765.27
582.681	30478.55
582.878	30488.79
583.076	29821.16
583.274	30122.21
583.471	29896.93
583.669	29903.07
583.866	29917.41
584.064	30185.69
584.262	29403.37
584.459	29456.62
584.657	29534.44
584.854	29972.71
585.052	29163.76
585.249	29311.21
585.447	29452.52
585.644	28967.15
585.841	29364.46
586.039	29327.6
586.236	28569.85
586.434	28905.71
586.631	28324.09
586.828	28846.32
587.026	28596.47
587.223	28518.65
587.42	28575.99
587.618	28455.16
587.815	28102.91
588.012	28463.35
588.21	28018.94
588.407	28381.43
588.604	28147.97
588.801	27928.83
588.999	27965.7
589.196	27701.51
589.393	27785.47
589.59	27517.19
589.787	27308.3
589.984	27502.85
590.182	27506.95
590.379	27730.18
590.576	27107.6
590.773	27336.97
590.97	27253
591.167	27332.87
591.364	27185.42
591.561	27355.4
591.758	26923.28
591.955	26618.13
592.152	26798.35
592.349	26505.49
592.546	26829.07
592.743	26679.57
592.94	26122.52
593.137	26415.38
593.334	26687.76
593.531	25884.96
593.727	25985.31
593.924	26243.35
594.121	25882.91
594.318	26011.93
594.515	25491.75
594.712	25856.29
594.908	25581.86
595.105	25846.05
595.302	25760.03
595.499	25534.76
595.696	25467.17
595.892	25411.88
596.089	25262.38
596.286	25145.64
596.482	25270.57
596.679	25063.72
596.876	25051.44
597.072	24906.03
597.269	25088.3
597.466	24650.03
597.662	24676.66
597.859	24946.99
598.055	24551.73
598.252	24342.84
598.448	24535.35
598.645	24412.47
598.841	24170.81
599.038	24203.58
599.234	24312.12
599.431	23972.16
599.627	23759.17
599.824	24090.94
600.02	24043.84
600.217	24041.79
600.413	23710.02
600.609	23884.09
600.806	23712.06
601.002	23765.31
601.198	23652.67
601.395	23486.79
601.591	23390.53
601.787	23386.44
601.984	22913.36
602.18	23345.48
602.376	22919.5
602.572	23034.19
602.769	23265.61
602.965	22696.27
603.161	23107.91
603.357	22462.8
603.553	22376.79
603.75	22706.51
603.946	22456.66
604.142	22452.56
604.338	22092.12
604.534	22440.28
604.73	22350.17
604.926	22215
605.122	22327.64
605.318	21973.34
605.514	22004.06
605.71	21850.46
605.906	21778.78
606.102	21678.43
606.298	21735.77
606.494	21981.53
606.69	21553.51
606.886	21940.57
607.082	21160.3
607.278	22061.4
607.474	21201.26
607.67	21612.9
607.866	21305.7
608.062	21616.99
608.257	21045.61
608.453	21268.84
608.649	21162.34
608.845	21143.91
609.041	20939.12
609.236	20975.98
609.432	21016.94
609.628	20838.76
609.824	20726.13
610.019	20836.72
610.215	20910.44
610.411	21016.94
610.606	20744.56
610.802	20666.74
610.998	20457.84
611.193	20627.82
611.389	20719.98
611.584	20748.65
611.78	20400.5
611.976	20570.48
612.171	20605.3
612.367	20384.12
612.562	20214.13
612.758	20115.83
612.953	20001.15
613.149	20541.81
613.344	19964.28
613.539	20185.46
613.735	20015.48
613.93	20197.75
614.126	20193.65
614.321	20218.23
614.517	20003.19
614.712	19849.6
614.907	19872.12
615.103	19882.36
615.298	19896.7
615.493	19896.7
615.688	19638.65
615.884	20232.57
616.079	19548.54
616.274	19888.51
616.47	19589.5
616.665	19630.46
616.86	19575.17
617.055	19483.01
617.25	19409.28
617.445	19718.53
617.641	19163.53
617.836	19497.35
618.031	19136.9
618.226	19157.38
618.421	19333.51
618.616	19495.3
618.811	19194.25
619.006	18960.78
619.201	18872.71
619.396	18852.24
619.591	18839.95
619.786	19022.22
619.981	18467.22
620.176	18766.22
620.371	18106.77
620.566	18424.21
620.761	18108.82
620.956	18401.68
621.151	17924.51
621.346	18106.77
621.541	17686.94
621.735	18112.92
621.93	17977.75
622.125	17942.94
622.32	17627.55
622.515	17787.29
622.709	17578.4
622.904	17652.13
623.099	17213.86
623.294	17330.59
623.488	17285.54
623.683	17230.24
623.878	16933.29
624.072	17000.87
624.267	17025.45
624.462	16824.75
624.656	16591.28
624.851	16701.87
625.046	16523.69
625.24	16294.32
625.435	16290.23
625.629	16441.78
625.824	16146.87
626.018	16226.74
626.213	15688.12
626.407	16171.44
626.602	15724.99
626.796	16048.57
626.991	15911.35
627.185	15573.44
627.38	15587.77
627.574	15368.64
627.768	15421.89
627.963	15268.29
628.157	15118.79
628.352	15112.64
628.546	14967.24
628.74	15081.92
628.935	14688.71
629.129	15116.74
629.323	14479.82
629.517	14596.56
629.712	14412.24
629.906	14375.38
630.1	14315.98
630.294	14350.8
630.489	13949.4
630.683	14313.94
630.877	14186.96
631.071	14047.7
631.265	14150.1
631.459	13875.67
631.653	13683.16
631.848	13545.95
632.042	13562.33
632.236	13603.29
632.43	13408.73
632.624	13566.43
632.818	13375.97
633.012	13335.01
633.206	13369.82
633.4	13326.82
633.594	13027.81
633.788	13013.48
633.982	13150.69
634.176	12812.78
634.369	12925.41
634.563	12722.66
634.757	12749.29
634.951	12573.16
635.145	12657.13
635.339	12632.55
635.533	12448.24
635.726	12349.93
635.92	12188.14
636.114	12177.9
636.308	12161.52
636.501	12306.93
636.695	12083.7
636.889	11801.08
637.083	11874.81
637.276	11790.84
637.47	11756.02
637.664	11874.81
637.857	11901.43
638.051	11672.06
638.244	11549.18
638.438	11610.62
638.632	11500.03
638.825	11332.09
639.019	11411.96
639.212	11495.93
639.406	11139.58
639.599	11217.41
639.793	11246.08
639.986	11139.58
640.18	11213.31
640.373	11205.12
640.567	10746.37
640.76	10807.81
640.954	10705.42
641.147	10668.55
641.34	10695.18
641.534	10625.54
641.727	10684.94
641.92	10664.46
642.114	10492.43
642.307	10418.7
642.5	10473.99
642.694	10416.65
642.887	10246.67
643.08	10138.13
643.273	10113.55
643.467	10267.15
643.66	10056.21
643.853	9890.32
644.046	9857.56
644.239	10015.25
644.432	9957.91
644.626	9890.32
644.819	9566.74
645.012	9753.11
645.205	9802.26
645.398	9638.42
645.591	9497.11
645.784	9546.26
645.977	9351.71
646.17	9341.47
646.363	9200.16
646.556	9122.34
646.749	9243.17
646.942	9212.45
647.135	9095.71
647.328	9095.71
647.521	8987.17
647.714	8897.06
647.907	8960.55
648.099	8907.3
648.292	8858.15
648.485	8892.96
648.678	8751.65
648.871	8550.95
649.064	8544.81
649.256	8657.45
649.449	8745.51
649.642	8544.81
649.835	8335.92
650.027	8309.29
650.22	8397.35
650.413	8391.21
650.605	8530.47
650.798	8206.89
650.991	8350.25
651.183	8198.7
651.376	8124.97
651.568	8215.09
651.761	8059.44
651.954	8030.77
652.146	7993.9
652.339	7983.66
652.531	7987.76
652.724	7723.57
652.916	7782.96
653.109	7637.56
653.301	7711.28
653.494	7764.53
653.686	7649.85
653.879	7717.43
654.071	7731.76
654.263	7379.51
654.456	7533.11
654.648	7699
654.84	7422.52
655.033	7313.98
655.225	7277.12
655.417	7338.55
655.61	7291.45
655.802	7195.2
655.994	7129.66
656.186	7275.07
656.379	7105.09
656.571	7154.24
656.763	7154.24
656.955	6941.25
657.148	7055.93
657.34	7008.83
657.532	6955.58
657.724	6806.08
657.916	6822.47
658.108	6926.91
658.3	6918.72
658.492	6853.19
658.684	6545.99
658.876	6636.1
659.068	6627.91
659.26	6668.87
659.452	6566.47
659.644	6607.43
659.836	6427.21
660.028	6570.57
660.22	6441.54
660.412	6414.92
660.604	6212.17
660.796	6318.67
660.988	6263.37
661.18	6367.82
661.372	6238.8
661.563	6195.79
661.755	6070.86
661.947	6103.63
662.139	6064.72
662.331	6052.43
662.522	5919.31
662.714	6031.95
662.906	5913.17
663.097	6062.67
663.289	5933.65
663.481	5769.81
663.673	5880.4
663.864	5823.06
664.056	5778
664.247	5685.84
664.439	5743.19
664.631	5712.47
664.822	5567.06
665.014	5722.71
665.205	5724.76
665.397	5648.98
665.588	5700.18
665.78	5569.11
665.971	5644.88
666.163	5483.09
666.354	5450.33
666.546	5511.77
666.737	5419.61
666.929	5321.31
667.12	5390.94
667.311	5245.53
667.503	5319.26
667.694	5327.45
667.885	5212.76
668.077	5200.48
668.268	5198.43
668.459	5272.15
668.651	5227.1
668.842	4907.62
669.033	5085.79
669.224	5218.91
669.416	5192.28
669.607	5093.98
669.798	4946.53
669.989	5161.56
670.18	5053.02
670.371	5136.99
670.563	4889.18
670.754	4840.03
670.945	4921.95
671.136	4915.81
671.327	4729.44
671.518	4797.03
671.709	4921.95
671.9	4915.81
672.091	4803.17
672.282	4825.7
672.473	4794.98
672.664	4854.37
672.855	4659.81
673.046	4700.77
673.237	4655.72
673.428	4700.77
673.619	4545.13
673.809	4635.24
674	4754.02
674.191	4645.48
674.382	4598.37
674.573	4627.04
674.764	4397.67
674.954	4571.75
675.145	4473.45
675.336	4588.13
675.527	4430.44
675.717	4530.79
675.908	4305.51
676.099	4385.38
676.289	4485.73
676.48	4305.51
676.671	4395.62
676.861	4172.39
677.052	4379.24
677.243	4354.66
677.433	4332.14
677.624	4344.42
677.814	4395.62
678.005	4291.18
678.195	4356.71
678.386	4139.63
678.576	4248.17
678.767	4151.92
678.957	4260.46
679.148	4389.48
679.338	4166.25
679.529	4188.78
679.719	4313.7
679.909	4125.29
680.1	3992.17
680.29	4203.11
680.481	4162.16
680.671	3996.27
680.861	4022.89
681.052	4160.11
681.242	4035.18
681.432	4166.25
681.622	4043.37
681.813	4053.61
682.003	3955.31
682.193	3904.11
682.383	3875.44
682.573	4057.71
682.764	3871.34
682.954	3947.12
683.144	3891.82
683.334	4004.46
683.524	3951.21
683.714	3873.39
683.904	3744.37
684.094	3818.1
684.284	3848.82
684.474	3865.2
684.664	3879.54
684.854	3957.36
685.044	3826.29
685.234	3777.14
685.424	3803.76
685.614	3859.06
685.804	3816.05
685.994	3637.88
686.184	3656.31
686.374	3742.32
686.564	3654.26
686.753	3637.88
686.943	3631.73
687.133	3592.82
687.323	3631.73
687.513	3635.83
687.702	3619.44
687.892	3498.61
688.082	3609.2
688.272	3691.12
688.461	3543.67
688.651	3451.51
688.841	3508.85
689.03	3584.63
689.22	3498.61
689.41	3324.54
689.599	3535.48
689.789	3345.02
689.979	3404.41
690.168	3469.94
690.358	3371.64
690.547	3291.77
690.737	3355.26
690.926	3367.54
691.116	3299.96
691.305	3271.29
691.495	3166.84
691.684	3203.71
691.874	3246.71
692.063	3287.67
692.252	3187.32
692.442	3179.13
692.631	3148.41
692.82	3222.14
693.01	3101.31
693.199	3111.55
693.388	3050.11
693.578	3115.64
693.767	3115.64
693.956	2978.43
694.146	2949.76
694.335	3035.77
694.524	2912.89
694.713	2951.81
694.902	2974.33
695.092	3017.34
695.281	2978.43
695.47	2941.57
695.659	2982.53
695.848	2996.86
696.037	2873.98
696.226	2861.69
696.415	2953.85
696.604	2906.75
696.793	2882.17
696.982	2966.14
697.171	2939.52
697.36	2845.31
697.549	2966.14
697.738	2792.06
697.927	2908.8
698.116	2925.18
698.305	2796.16
698.494	2912.89
698.683	2884.22
698.872	2841.22
699.061	2835.07
699.25	2765.44
699.438	2759.3
699.627	2816.64
699.816	2882.17
700.005	2847.36
700.193	2796.16
700.382	2734.72
700.571	2923.13
700.76	2656.9
700.948	2673.28
701.137	2767.49
701.326	2804.35
701.514	2691.71
701.703	2775.68
701.892	2671.23
702.08	2783.87
702.269	2712.19
702.457	2757.25
702.646	2640.51
702.834	2620.03
703.023	2689.67
703.212	2792.06
703.4	2624.13
703.589	2722.43
703.777	2636.42
703.965	2675.33
704.154	2632.32
704.342	2601.6
704.531	2587.27
704.719	2626.18
704.907	2673.28
705.096	2556.55
705.284	2693.76
705.472	2712.19
705.661	2591.36
705.849	2624.13
706.037	2775.68
706.226	2693.76
706.414	2665.09
706.602	2640.51
706.79	2640.51
706.979	2542.21
707.167	2646.66
707.355	2558.6
707.543	2679.43
707.731	2706.05
707.919	2538.12
708.107	2665.09
708.296	2556.55
708.484	2585.22
708.672	2607.75
708.86	2536.07
709.048	2646.66
709.236	2556.55
709.424	2435.72
709.612	2572.93
709.8	2511.49
709.988	2464.39
710.176	2531.97
710.364	2572.93
710.551	2491.01
710.739	2480.77
710.927	2599.56
711.115	2572.93
711.303	2603.65
711.491	2501.25
711.679	2454.15
711.866	2609.79
712.054	2628.23
712.242	2398.85
712.43	2742.91
712.617	2552.45
712.805	2583.17
712.993	2488.96
713.181	2597.51
713.368	2581.12
713.556	2572.93
713.744	2394.76
713.931	2648.71
714.119	2558.6
714.306	2652.8
714.494	2579.08
714.682	2574.98
714.869	2531.97
715.057	2572.93
715.244	2445.96
715.432	2562.69
715.619	2527.88
715.807	2470.53
715.994	2531.97
716.182	2474.63
716.369	2417.29
716.556	2599.56
716.744	2556.55
716.931	2534.02
717.119	2591.36
717.306	2517.64
717.493	2429.57
717.681	2542.21
717.868	2581.12
718.055	2515.59
718.242	2554.5
718.43	2509.44
718.617	2558.6
718.804	2478.72
718.991	2636.42
719.179	2617.99
719.366	2554.5
719.553	2605.7
719.74	2550.4
719.927	2534.02
720.114	2476.68
720.301	2501.25
720.488	2542.21
720.676	2566.79
720.863	2564.74
721.05	2484.87
721.237	2441.86
721.424	2587.27
721.611	2550.4
721.798	2448.01
721.985	2407.05
722.172	2552.45
722.358	2464.39
722.545	2517.64
722.732	2439.81
722.919	2607.75
723.106	2507.4
723.293	2497.16
723.48	2448.01
723.667	2452.1
723.853	2552.45
724.04	2529.92
724.227	2474.63
724.414	2552.45
724.6	2439.81
724.787	2458.25
724.974	2613.89
725.161	2531.97
725.347	2505.35
725.534	2597.51
725.72	2527.88
725.907	2536.07
726.094	2548.36
726.28	2538.12
726.467	2540.16
726.653	2589.32
726.84	2542.21
727.027	2609.79
727.213	2368.13
727.4	2574.98
727.586	2544.26
727.773	2654.85
727.959	2419.33
728.145	2486.92
728.332	2536.07
728.518	2488.96
728.705	2644.61
728.891	2501.25
729.077	2597.51
729.264	2566.79
729.45	2472.58
729.636	2677.38
729.823	2456.2
730.009	2691.71
730.195	2558.6
730.382	2470.53
730.568	2548.36
730.754	2497.16
730.94	2511.49
731.126	2529.92
731.313	2622.08
731.499	2599.56
731.685	2574.98
731.871	2550.4
732.057	2529.92
732.243	2613.89
732.429	2568.84
732.615	2677.38
732.801	2630.27
732.987	2581.12
733.173	2503.3
733.359	2513.54
733.545	2566.79
733.731	2527.88
733.917	2574.98
734.103	2462.34
734.289	2605.7
734.475	2501.25
734.661	2622.08
734.847	2540.16
735.033	2548.36
735.219	2511.49
735.404	2550.4
735.59	2579.08
735.776	2689.67
735.962	2527.88
736.148	2601.6
736.333	2560.64
736.519	2472.58
736.705	2583.17
736.89	2536.07
737.076	2527.88
737.262	2597.51
737.447	2507.4
737.633	2550.4
737.819	2456.2
738.004	2562.69
738.19	2562.69
738.375	2716.29
738.561	2624.13
738.747	2521.73
738.932	2509.44
739.118	2546.31
739.303	2536.07
739.489	2513.54
739.674	2339.46
739.859	2407.05
740.045	2435.72
740.23	2562.69
740.416	2409.09
740.601	2556.55
740.786	2448.01
740.972	2468.48
741.157	2388.61
741.342	2437.77
741.528	2493.06
741.713	2531.97
741.898	2429.57
742.084	2419.33
742.269	2542.21
742.454	2427.53
742.639	2359.94
742.824	2458.25
743.01	2452.1
743.195	2427.53
743.38	2245.26
743.565	2415.24
743.75	2341.51
743.935	2312.84
744.12	2511.49
744.305	2269.83
744.49	2302.6
744.675	2273.93
744.86	2284.17
745.045	2366.09
745.23	2357.89
745.415	2314.89
745.6	2314.89
745.785	2306.7
745.97	2282.12
746.155	2318.98
746.34	2204.3
746.525	2333.32
746.71	2235.02
746.895	2185.87
747.079	2167.43
747.264	2198.15
747.449	2226.82
747.634	2171.53
747.819	2144.91
748.003	2136.71
748.188	2257.54
748.373	2110.09
748.557	2122.38
748.742	2069.13
748.927	2040.46
749.111	2136.71
749.296	2208.39
749.481	2009.74
749.665	2048.65
749.85	1974.92
750.034	2167.43
750.219	2046.6
750.404	1958.54
750.588	1952.4
750.773	1964.68
750.957	1987.21
751.141	1991.31
751.326	1901.2
751.51	1919.63
751.695	1890.96
751.879	1831.57
752.064	1919.63
752.248	1806.99
752.432	1946.25
752.617	1850
752.801	1708.69
752.985	1895.05
753.17	1747.6
753.354	1745.55
753.538	1874.57
753.722	1811.09
753.907	1716.88
754.091	1743.5
754.275	1788.56
754.459	1766.03
754.643	1628.82
754.828	1720.98
755.012	1661.59
755.196	1600.15
755.38	1665.68
755.564	1630.87
755.748	1622.67
755.932	1624.72
756.116	1649.3
756.3	1551
756.484	1530.52
756.668	1688.21
756.852	1618.58
757.036	1624.72
757.22	1483.41
757.404	1536.66
757.588	1501.84
757.772	1551
757.956	1444.5
758.14	1514.13
758.323	1526.42
758.507	1485.46
758.691	1464.98
758.875	1448.6
759.059	1516.18
759.242	1430.16
759.426	1473.17
759.61	1438.36
759.794	1378.97
759.977	1440.4
760.161	1417.88
760.345	1409.69
760.528	1440.4
760.712	1395.35
760.895	1370.77
761.079	1452.69
761.263	1280.66
761.446	1272.47
761.63	1385.11
761.813	1333.91
761.997	1319.57
762.18	1319.57
762.364	1346.2
762.547	1397.4
762.731	1299.09
762.914	1311.38
763.098	1258.14
763.281	1286.81
763.464	1280.66
763.648	1229.46
763.831	1264.28
764.015	1297.05
764.198	1317.53
764.381	1182.36
764.564	1176.22
764.748	1206.94
764.931	1260.18
765.114	1192.6
765.297	1239.7
765.481	1100.44
765.664	1188.5
765.847	1192.6
766.03	1307.29
766.213	1090.2
766.397	1163.93
766.58	1116.83
766.763	1157.79
766.946	1241.75
767.129	1184.41
767.312	1108.63
767.495	1141.4
767.678	1155.74
767.861	1196.7
768.044	1108.63
768.227	1153.69
768.41	1161.88
768.593	1170.07
768.776	1114.78
768.959	1163.93
769.142	1077.91
769.324	1082.01
769.507	1079.96
769.69	1069.72
769.873	1030.81
770.056	1071.77
770.239	1110.68
770.421	1088.15
770.604	1069.72
770.787	1016.48
770.97	975.52
771.152	969.37
771.335	1055.39
771.518	1047.19
771.7	1065.63
771.883	979.61
772.066	1073.82
772.248	996
772.431	1051.29
772.613	1057.43
772.796	1092.25
772.978	1059.48
773.161	909.98
773.343	901.79
773.526	987.8
773.708	983.71
773.891	924.32
774.073	936.6
774.256	912.03
774.438	1008.28
774.621	914.08
774.803	979.61
774.985	852.64
775.168	916.12
775.35	905.88
775.532	959.13
775.715	844.45
775.897	801.44
776.079	866.97
776.261	791.2
776.444	826.01
776.626	836.25
776.808	819.87
776.99	815.77
777.173	742.05
777.355	783.01
777.537	869.02
777.719	770.72
777.901	871.07
778.083	778.91
778.265	768.67
778.447	832.16
778.629	727.71
778.811	699.04
778.993	727.71
779.175	787.1
779.357	686.75
779.539	717.47
779.721	707.23
779.903	703.14
780.085	742.05
780.267	760.48
780.449	705.18
780.631	696.99
780.812	709.28
780.994	709.28
781.176	639.65
781.358	744.1
781.54	586.4
781.721	623.27
781.903	668.32
782.085	703.14
782.267	731.81
782.448	641.7
782.63	660.13
782.812	623.27
782.993	629.41
783.175	606.88
783.357	621.22
783.538	670.37
783.72	639.65
783.901	608.93
784.083	604.83
784.264	598.69
784.446	543.39
784.627	608.93
784.809	524.96
784.99	633.5
785.172	510.63
785.353	535.2
785.535	537.25
785.716	508.58
785.897	553.63
786.079	578.21
786.26	529.06
786.441	533.15
786.623	481.96
786.804	477.86
786.985	508.58
787.167	488.1
787.348	500.39
787.529	502.43
787.71	584.35
787.891	457.38
788.073	471.72
788.254	490.15
788.435	473.76
788.616	420.52
788.797	393.89
788.978	481.96
789.159	453.28
789.34	479.91
789.522	494.24
789.703	457.38
789.884	461.48
790.065	459.43
790.246	504.48
790.427	414.37
790.607	412.32
790.788	397.99
790.969	408.23
791.15	418.47
791.331	410.28
791.512	397.99
791.693	393.89
791.874	397.99
792.054	383.65
792.235	389.8
792.416	402.08
792.597	383.65
792.778	348.84
792.958	395.94
793.139	422.56
793.32	357.03
793.5	422.56
793.681	416.42
793.862	385.7
794.042	426.66
794.223	344.74
794.404	322.21
794.584	352.93
794.765	273.06
794.945	381.6
795.126	314.02
795.306	352.93
795.487	340.65
795.667	340.65
795.848	340.65
796.028	387.75
796.209	348.84
796.389	328.36
796.57	344.74
796.75	424.61
796.93	375.46
797.111	281.25
797.291	369.32
797.471	316.07
797.652	359.08
797.832	314.02
798.012	283.3
798.192	307.88
798.373	336.55
798.553	299.69
798.733	371.37
798.913	283.3
799.093	330.41
799.274	314.02
799.454	367.27
799.634	371.37
799.814	375.46
799.994	252.58
800.174	213.67
800.354	322.21
800.534	297.64
800.714	311.97
800.894	279.21
801.074	318.12
801.254	273.06
801.434	340.65
801.614	287.4
801.794	127.66
801.974	674.46
802.154	336.55
802.334	273.06
802.514	260.77
802.693	256.68
802.873	160.42
803.053	281.25
803.233	305.83
803.413	264.87
803.592	250.53
803.772	316.07
803.952	246.44
804.131	250.53
804.311	248.49
804.491	295.59
804.67	240.3
804.85	195.24
805.03	320.17
805.209	326.31
805.389	240.3
805.568	291.49
805.748	189.1
805.928	264.87
806.107	193.19
806.287	230.06
806.466	299.69
806.646	234.15
806.825	228.01
807.004	199.34
807.184	252.58
807.363	221.86
807.543	195.24
807.722	238.25
807.901	230.06
808.081	207.53
808.26	154.28
808.439	262.82
808.619	264.87
808.798	285.35
808.977	236.2
809.156	266.92
809.336	180.9
809.515	228.01
809.694	158.38
809.873	234.15
810.052	240.3
810.231	281.25
810.411	201.38
810.59	260.77
810.769	230.06
810.948	266.92
811.127	166.57
811.306	182.95
811.485	182.95
811.664	262.82
811.843	185
812.022	193.19
812.201	213.67
812.38	195.24
812.559	258.73
812.737	254.63
812.916	123.56
813.095	191.14
813.274	60.07
813.453	279.21
813.632	127.66
813.811	164.52
813.989	238.25
814.168	182.95
814.347	162.47
814.526	158.38
814.704	180.9
814.883	238.25
815.062	170.66
815.24	101.03
815.419	131.75
815.598	150.18
815.776	146.09
815.955	107.18
816.133	158.38
816.312	180.9
816.49	150.18
816.669	221.86
816.847	178.86
817.026	172.71
817.204	103.08
817.383	135.85
817.561	176.81
817.74	141.99
817.918	131.75
818.097	158.38
818.275	135.85
818.453	178.86
818.632	129.7
818.81	199.34
818.988	98.99
819.167	162.47
819.345	191.14
819.523	133.8
819.701	103.08
819.879	158.38
820.058	82.6
820.236	109.22
820.414	203.43
820.592	103.08
820.77	88.75
820.948	94.89
821.127	111.27
821.305	154.28
821.483	70.31
821.661	168.62
821.839	164.52
822.017	150.18
822.195	72.36
822.373	125.61
822.551	152.23
822.729	160.42
822.907	84.65
823.085	113.32
823.262	98.99
823.44	146.09
823.618	127.66
823.796	156.33
823.974	12.97
824.152	146.09
824.329	137.9
824.507	113.32
824.685	185
824.863	123.56
825.04	70.31
825.218	47.79
825.396	195.24
825.574	160.42
825.751	113.32
825.929	189.1
826.107	119.46
826.284	141.99
826.462	80.55
826.639	49.83
826.817	111.27
826.994	185
827.172	94.89
827.349	62.12
827.527	248.49
827.704	58.03
827.882	92.84
828.059	121.51
828.237	86.7
828.414	98.99
828.591	103.08
828.769	88.75
828.946	86.7
829.124	152.23
829.301	86.7
829.478	135.85
829.655	172.71
829.833	156.33
830.01	117.42
830.187	127.66
830.364	74.41
830.542	109.22
830.719	201.38
830.896	35.5
831.073	72.36
831.25	101.03
831.427	88.75
831.604	109.22
831.782	121.51
831.959	121.51
832.136	144.04
832.313	58.03
832.49	6.83
832.667	53.93
832.844	51.88
833.021	31.4
833.198	141.99
833.374	76.46
833.551	78.51
833.728	68.27
833.905	160.42
834.082	55.98
834.259	58.03
834.436	45.74
834.612	113.32
834.789	51.88
834.966	105.13
835.143	43.69
835.319	37.55
835.496	49.83
835.673	107.18
835.85	43.69
836.026	146.09
836.203	19.11
836.38	29.35
836.556	96.94
836.733	31.4
836.909	64.17
837.086	98.99
837.262	150.18
837.439	47.79
837.616	88.75
837.792	90.79
837.968	41.64
838.145	19.11
838.321	125.61
838.498	101.03
838.674	105.13
838.851	80.55
839.027	115.37
839.203	35.5
839.38	76.46
839.556	141.99
839.732	131.75
839.909	-13.65
840.085	53.93
840.261	29.35
840.437	45.74
840.614	-1.37
840.79	88.75
840.966	12.97
841.142	37.55
841.318	10.92
841.494	90.79
841.671	123.56
841.847	25.26
842.023	-3.41
842.199	133.8
842.375	51.88
842.551	29.35
842.727	15.02
842.903	51.88
843.079	43.69
843.255	78.51
843.431	90.79
843.607	90.79
843.783	115.37
843.959	113.32
844.134	66.22
844.31	76.46
844.486	-9.56
844.662	133.8
844.838	80.55
845.013	107.18
845.189	17.07
845.365	41.64
845.541	105.13
845.716	60.07
845.892	96.94
846.068	55.98
846.244	82.6
846.419	86.7
846.595	29.35
846.77	10.92
846.946	96.94
847.122	90.79
847.297	88.75
847.473	-3.41
847.648	90.79
847.824	88.75
847.999	41.64
848.175	90.79
848.35	129.7
848.526	-1.37
848.701	72.36
848.876	25.26
849.052	31.4
849.227	19.11
849.403	-7.51
849.578	29.35
849.753	31.4
849.929	-13.65
850.104	-13.65
850.279	64.17
850.454	45.74
850.63	92.84
850.805	62.12
850.98	98.99
851.155	60.07
851.33	72.36
851.505	-7.51
851.681	55.98
851.856	-42.32
852.031	70.31
852.206	-21.85
852.381	107.18
852.556	8.87
852.731	43.69
852.906	80.55
853.081	117.42
853.256	133.8
853.431	0.68
853.606	23.21
853.781	60.07
853.956	-13.65
854.131	76.46
854.305	-87.38
854.48	-60.76
854.655	10.92
854.83	27.31
855.005	68.27
855.18	51.88
855.354	31.4
855.529	15.02
855.704	123.56
855.879	68.27
856.053	15.02
856.228	70.31
856.403	55.98
856.577	31.4
856.752	-66.9
856.926	23.21
857.101	19.11
857.276	-17.75
857.45	-7.51
857.625	53.93
857.799	103.08
857.974	82.6
858.148	127.66
858.323	35.5
858.497	21.16
858.672	39.59
858.846	31.4
859.02	41.64
859.195	-23.89
859.369	27.31
859.543	21.16
859.718	37.55
859.892	49.83
860.066	76.46
860.241	53.93
860.415	45.74
860.589	31.4
860.763	15.02
860.938	39.59
861.112	66.22
861.286	31.4
861.46	33.45
861.634	-36.18
861.808	51.88
861.982	86.7
862.157	31.4
862.331	-50.52
862.505	51.88
862.679	-5.46
862.853	84.65
863.027	15.02
863.201	47.79
863.375	51.88
863.549	31.4
863.722	94.89
863.896	55.98
864.07	-13.65
864.244	0.68
864.418	12.97
864.592	10.92
864.766	-44.37
864.939	74.41
865.113	-38.23
865.287	55.98
865.461	41.64
865.634	45.74
865.808	-5.46
865.982	60.07
866.156	37.55
866.329	-25.94
866.503	-1.37
866.676	101.03
866.85	2.73
867.024	60.07
867.197	-44.37
867.371	47.79
867.544	23.21
867.718	21.16
867.891	25.26
868.065	78.51
868.238	49.83
868.412	6.83
868.585	33.45
868.759	64.17
868.932	-19.8
869.105	35.5
869.279	51.88
869.452	39.59
869.625	60.07
869.799	-38.23
869.972	-27.99
870.145	-15.7
870.319	33.45
870.492	78.51
870.665	-17.75
870.838	84.65
871.011	21.16
871.185	58.03
871.358	60.07
871.531	-83.28
871.704	21.16
871.877	17.07
872.05	23.21
872.223	-19.8
872.396	82.6
872.569	53.93
872.742	-36.18
872.915	70.31
873.088	47.79
873.261	-11.61
873.434	25.26
873.607	72.36
873.78	76.46
873.953	19.11
874.126	10.92
874.299	4.78
874.471	-52.56
874.644	27.31
874.817	49.83
874.99	96.94
875.163	6.83
875.335	68.27
875.508	37.55
875.681	21.16
875.853	33.45
876.026	-7.51
876.199	-11.61
876.371	64.17
876.544	39.59
876.717	74.41
876.889	-3.41
877.062	45.74
877.234	51.88
877.407	-25.94
877.579	-5.46
877.752	62.12
877.924	-52.56
878.097	43.69
878.269	60.07
878.442	2.73
878.614	-1.37
878.786	47.79
878.959	-25.94
879.131	90.79
879.303	2.73
879.476	58.03
879.648	51.88
879.82	-30.04
879.993	66.22
880.165	68.27
880.337	-15.7
880.509	68.27
880.681	-17.75
880.854	23.21
881.026	-36.18
881.198	78.51
881.37	-19.8
881.542	19.11
881.714	27.31
881.886	-17.75
882.058	64.17
882.23	27.31
882.402	4.78
882.574	55.98
882.746	41.64
882.918	12.97
883.09	90.79
883.262	21.16
883.434	-17.75
883.606	-25.94
883.778	-75.09
883.95	47.79
884.122	23.21
884.293	29.35
884.465	-40.28
884.637	70.31
884.809	19.11
884.98	62.12
885.152	64.17
885.324	12.97
885.496	37.55
885.667	6.83
885.839	51.88
886.011	66.22
886.182	2.73
886.354	43.69
886.525	-17.75
886.697	-21.85
886.869	-7.51
887.04	-13.65
887.212	49.83
887.383	-13.65
887.555	15.02
887.726	76.46
887.897	12.97
888.069	-11.61
888.24	66.22
888.412	60.07
888.583	-1.37
888.754	62.12
888.926	19.11
889.097	21.16
889.268	-15.7
889.44	15.02
889.611	17.07
889.782	-11.61
889.953	-36.18
890.125	72.36
890.296	45.74
890.467	-5.46
890.638	-1.37
890.809	4.78
890.98	37.55
891.151	-13.65
891.323	80.55
891.494	53.93
891.665	60.07
891.836	0.68
892.007	41.64
892.178	25.26
892.349	29.35
892.52	-3.41
892.691	12.97
892.862	-19.8
893.032	-17.75
893.203	41.64
893.374	-3.41
893.545	88.75
893.716	15.02
893.887	-5.46
894.057	51.88
894.228	-1.37
894.399	33.45
894.57	45.74
894.74	-79.19
894.911	0.68
895.082	-5.46
895.253	-13.65
895.423	-25.94
895.594	47.79
895.764	-54.61
895.935	39.59
896.106	10.92
896.276	4.78
896.447	6.83
896.617	19.11
896.788	-5.46
896.958	29.35
897.129	-13.65
897.299	2.73
897.47	80.55
897.64	94.89
897.81	15.02
897.981	12.97
898.151	-66.9
898.322	31.4
898.492	49.83
898.662	-7.51
898.832	27.31
899.003	-3.41
899.173	-40.28
899.343	-54.61
899.513	2.73
