Data from USB4F104151__67__11-45-25-129.txt Node

Date: Fri Mar 14 11:45:25 EDT 2025
User: louis
Spectrometer: USB4F10415
Trigger mode: 4
Integration Time (sec): 2.000000E-2
Scans to average: 1
Electric dark correction enabled: true
Nonlinearity correction enabled: false
Boxcar width: 0
XAxis mode: Wavelengths
Number of Pixels in Spectrum: 3648
>>>>>Begin Spectral Data<<<<<
178.204	-69.97
178.424	-69.97
178.644	-69.97
178.864	-127.32
179.084	-33.11
179.304	7.85
179.524	-49.49
179.744	3.75
179.964	52.91
180.184	-63.83
180.404	40.62
180.624	9.9
180.844	-47.44
181.064	-39.25
181.283	30.38
181.503	13.99
181.723	40.62
181.943	-2.39
182.163	59.05
182.383	-16.73
182.602	57
182.822	71.34
183.042	36.52
183.262	-69.97
183.482	5.8
183.701	34.47
183.921	-47.44
184.141	3.75
184.361	-4.44
184.58	26.28
184.8	48.81
185.02	-6.49
185.239	61.1
185.459	-16.73
185.679	-8.53
185.898	7.85
186.118	81.58
186.338	-35.16
186.557	83.63
186.777	3.75
186.997	-37.2
187.216	7.85
187.436	46.76
187.655	38.57
187.875	46.76
188.095	-8.53
188.314	28.33
188.534	81.58
188.753	-2.39
188.973	-10.58
189.192	22.19
189.412	40.62
189.631	-6.49
189.851	93.87
190.07	38.57
190.29	-22.87
190.509	118.44
190.729	50.86
190.948	-43.35
191.168	194.22
191.387	-8.53
191.607	24.23
191.826	13.99
192.045	26.28
192.265	-2.39
192.484	71.34
192.704	9.9
192.923	-8.53
193.142	16.04
193.362	-16.73
193.581	20.14
193.8	40.62
194.02	44.71
194.239	63.15
194.458	83.63
194.678	-65.88
194.897	34.47
195.116	22.19
195.335	3.75
195.555	18.09
195.774	-16.73
195.993	7.85
196.212	67.24
196.432	-33.11
196.651	38.57
196.87	-47.44
197.089	104.11
197.308	9.9
197.528	95.91
197.747	-18.77
197.966	61.1
198.185	-18.77
198.404	11.95
198.623	28.33
198.842	44.71
199.062	3.75
199.281	67.24
199.5	1.71
199.719	71.34
199.938	-2.39
200.157	38.57
200.376	63.15
200.595	40.62
200.814	48.81
201.033	-2.39
201.252	89.77
201.471	-4.44
201.69	22.19
201.909	50.86
202.128	-10.58
202.347	26.28
202.566	24.23
202.785	1.71
203.004	-0.34
203.223	54.95
203.442	24.23
203.661	-0.34
203.879	-47.44
204.098	42.67
204.317	102.06
204.536	22.19
204.755	114.34
204.974	3.75
205.193	48.81
205.411	89.77
205.63	28.33
205.849	32.43
206.068	11.95
206.287	-10.58
206.505	50.86
206.724	54.95
206.943	26.28
207.162	5.8
207.381	50.86
207.599	22.19
207.818	30.38
208.037	-0.34
208.255	32.43
208.474	71.34
208.693	-0.34
208.911	5.8
209.13	26.28
209.349	-8.53
209.567	-8.53
209.786	97.96
210.005	61.1
210.223	42.67
210.442	-10.58
210.661	1.71
210.879	1.71
211.098	32.43
211.316	89.77
211.535	22.19
211.753	16.04
211.972	22.19
212.191	34.47
212.409	7.85
212.628	-10.58
212.846	-20.82
213.065	46.76
213.283	65.19
213.502	38.57
213.72	18.09
213.938	5.8
214.157	30.38
214.375	-18.77
214.594	24.23
214.812	46.76
215.031	40.62
215.249	-10.58
215.467	36.52
215.686	1.71
215.904	50.86
216.122	-24.92
216.341	65.19
216.559	34.47
216.778	36.52
216.996	22.19
217.214	-55.64
217.432	22.19
217.651	59.05
217.869	34.47
218.087	3.75
218.306	18.09
218.524	30.38
218.742	3.75
218.96	36.52
219.179	-37.2
219.397	-31.06
219.615	34.47
219.833	73.39
220.051	-24.92
220.27	26.28
220.488	34.47
220.706	40.62
220.924	24.23
221.142	69.29
221.36	28.33
221.578	24.23
221.796	-4.44
222.015	28.33
222.233	16.04
222.451	54.95
222.669	44.71
222.887	7.85
223.105	32.43
223.323	9.9
223.541	3.75
223.759	67.24
223.977	5.8
224.195	34.47
224.413	1.71
224.631	-53.59
224.849	-29.01
225.067	42.67
225.285	32.43
225.503	7.85
225.721	-26.96
225.939	75.43
226.157	83.63
226.375	34.47
226.592	79.53
226.81	-12.63
227.028	-26.96
227.246	1.71
227.464	30.38
227.682	85.67
227.9	50.86
228.117	22.19
228.335	30.38
228.553	50.86
228.771	20.14
228.989	-4.44
229.206	-0.34
229.424	-41.3
229.642	52.91
229.86	-14.68
230.077	3.75
230.295	18.09
230.513	-6.49
230.731	-45.4
230.948	50.86
231.166	143.02
231.384	-6.49
231.601	-20.82
231.819	9.9
232.037	24.23
232.254	44.71
232.472	16.04
232.689	71.34
232.907	34.47
233.125	71.34
233.342	26.28
233.56	3.75
233.777	-2.39
233.995	-43.35
234.213	52.91
234.43	57
234.648	77.48
234.865	1.71
235.083	59.05
235.3	16.04
235.518	30.38
235.735	18.09
235.953	20.14
236.17	46.76
236.388	-18.77
236.605	-82.26
236.822	59.05
237.04	38.57
237.257	100.01
237.475	-84.31
237.692	26.28
237.909	46.76
238.127	71.34
238.344	7.85
238.562	13.99
238.779	-12.63
238.996	-39.25
239.214	3.75
239.431	36.52
239.648	-6.49
239.865	40.62
240.083	50.86
240.3	106.15
240.517	30.38
240.735	-0.34
240.952	44.71
241.169	69.29
241.386	-43.35
241.603	32.43
241.821	67.24
242.038	26.28
242.255	9.9
242.472	-45.4
242.689	48.81
242.907	59.05
243.124	24.23
243.341	61.1
243.558	75.43
243.775	32.43
243.992	30.38
244.209	61.1
244.426	100.01
244.643	-14.68
244.86	63.15
245.078	30.38
245.295	22.19
245.512	110.25
245.729	-14.68
245.946	-8.53
246.163	69.29
246.38	91.82
246.597	48.81
246.814	-18.77
247.031	1.71
247.248	97.96
247.464	54.95
247.681	34.47
247.898	61.1
248.115	87.72
248.332	-35.16
248.549	24.23
248.766	40.62
248.983	50.86
249.2	16.04
249.417	81.58
249.633	16.04
249.85	83.63
250.067	46.76
250.284	-20.82
250.501	-16.73
250.717	30.38
250.934	16.04
251.151	50.86
251.368	52.91
251.585	50.86
251.801	57
252.018	-0.34
252.235	-29.01
252.451	-18.77
252.668	7.85
252.885	57
253.102	40.62
253.318	89.77
253.535	52.91
253.752	54.95
253.968	1.71
254.185	9.9
254.401	63.15
254.618	16.04
254.835	61.1
255.051	57
255.268	1.71
255.484	28.33
255.701	-14.68
255.917	65.19
256.134	1.71
256.351	44.71
256.567	20.14
256.784	44.71
257	7.85
257.217	75.43
257.433	26.28
257.65	30.38
257.866	36.52
258.082	32.43
258.299	59.05
258.515	32.43
258.732	-26.96
258.948	-16.73
259.165	13.99
259.381	13.99
259.597	18.09
259.814	-26.96
260.03	-43.35
260.246	20.14
260.463	87.72
260.679	38.57
260.895	34.47
261.112	89.77
261.328	-2.39
261.544	20.14
261.761	81.58
261.977	114.34
262.193	30.38
262.409	28.33
262.626	36.52
262.842	34.47
263.058	22.19
263.274	28.33
263.49	9.9
263.707	71.34
263.923	22.19
264.139	7.85
264.355	50.86
264.571	67.24
264.787	69.29
265.004	57
265.22	-37.2
265.436	75.43
265.652	46.76
265.868	-4.44
266.084	22.19
266.3	-51.54
266.516	-8.53
266.732	32.43
266.948	-119.12
267.164	28.33
267.38	20.14
267.596	108.2
267.812	57
268.028	42.67
268.244	46.76
268.46	22.19
268.676	28.33
268.892	30.38
269.108	-0.34
269.324	52.91
269.54	-2.39
269.756	48.81
269.972	36.52
270.188	18.09
270.403	-74.07
270.619	11.95
270.835	34.47
271.051	11.95
271.267	5.8
271.483	75.43
271.698	69.29
271.914	-0.34
272.13	20.14
272.346	-26.96
272.562	-12.63
272.777	73.39
272.993	54.95
273.209	-14.68
273.425	20.14
273.64	26.28
273.856	3.75
274.072	46.76
274.287	20.14
274.503	32.43
274.719	38.57
274.934	73.39
275.15	13.99
275.366	-14.68
275.581	50.86
275.797	13.99
276.012	50.86
276.228	59.05
276.444	40.62
276.659	89.77
276.875	-4.44
277.09	-2.39
277.306	-6.49
277.521	95.91
277.737	108.2
277.952	20.14
278.168	77.48
278.383	83.63
278.599	3.75
278.814	50.86
279.03	32.43
279.245	38.57
279.461	32.43
279.676	1.71
279.892	-29.01
280.107	-29.01
280.322	-16.73
280.538	-8.53
280.753	1.71
280.969	71.34
281.184	50.86
281.399	32.43
281.615	73.39
281.83	32.43
282.045	42.67
282.26	42.67
282.476	75.43
282.691	61.1
282.906	44.71
283.122	110.25
283.337	-8.53
283.552	34.47
283.767	44.71
283.983	-69.97
284.198	-43.35
284.413	57
284.628	52.91
284.843	-88.4
285.058	54.95
285.274	50.86
285.489	22.19
285.704	57
285.919	26.28
286.134	-22.87
286.349	7.85
286.564	24.23
286.779	63.15
286.995	71.34
287.21	24.23
287.425	22.19
287.64	61.1
287.855	52.91
288.07	1.71
288.285	18.09
288.5	24.23
288.715	102.06
288.93	3.75
289.145	85.67
289.36	71.34
289.575	102.06
289.79	79.53
290.004	54.95
290.219	-31.06
290.434	32.43
290.649	18.09
290.864	13.99
291.079	59.05
291.294	48.81
291.509	11.95
291.724	-22.87
291.938	-37.2
292.153	52.91
292.368	-10.58
292.583	44.71
292.798	57
293.012	5.8
293.227	48.81
293.442	11.95
293.657	34.47
293.871	87.72
294.086	71.34
294.301	106.15
294.516	-10.58
294.73	75.43
294.945	1.71
295.16	110.25
295.374	30.38
295.589	79.53
295.804	11.95
296.018	28.33
296.233	73.39
296.447	24.23
296.662	-74.07
296.877	50.86
297.091	28.33
297.306	79.53
297.52	-35.16
297.735	97.96
297.949	24.23
298.164	22.19
298.378	77.48
298.593	9.9
298.807	57
299.022	73.39
299.236	97.96
299.451	-4.44
299.665	73.39
299.88	75.43
300.094	20.14
300.309	18.09
300.523	-0.34
300.737	38.57
300.952	34.47
301.166	-0.34
301.381	-22.87
301.595	85.67
301.809	11.95
302.024	54.95
302.238	50.86
302.452	75.43
302.667	48.81
302.881	77.48
303.095	40.62
303.309	28.33
303.524	48.81
303.738	95.91
303.952	-0.34
304.166	67.24
304.381	-20.82
304.595	-14.68
304.809	3.75
305.023	69.29
305.237	-24.92
305.452	5.8
305.666	46.76
305.88	44.71
306.094	79.53
306.308	16.04
306.522	16.04
306.736	32.43
306.95	106.15
307.164	77.48
307.379	38.57
307.593	22.19
307.807	3.75
308.021	42.67
308.235	57
308.449	42.67
308.663	44.71
308.877	138.92
309.091	102.06
309.305	48.81
309.519	-31.06
309.733	28.33
309.947	50.86
310.161	40.62
310.374	5.8
310.588	128.68
310.802	3.75
311.016	-16.73
311.23	1.71
311.444	79.53
311.658	-4.44
311.872	36.52
312.085	95.91
312.299	57
312.513	5.8
312.727	-41.3
312.941	61.1
313.154	38.57
313.368	16.04
313.582	18.09
313.796	24.23
314.009	-0.34
314.223	73.39
314.437	61.1
314.651	85.67
314.864	83.63
315.078	65.19
315.292	-10.58
315.505	93.87
315.719	65.19
315.933	118.44
316.146	5.8
316.36	81.58
316.573	32.43
316.787	40.62
317.001	36.52
317.214	50.86
317.428	16.04
317.641	34.47
317.855	59.05
318.068	-31.06
318.282	24.23
318.495	-8.53
318.709	87.72
318.922	-0.34
319.136	71.34
319.349	79.53
319.563	-26.96
319.776	-10.58
319.99	36.52
320.203	-26.96
320.417	-14.68
320.63	-37.2
320.843	7.85
321.057	59.05
321.27	97.96
321.483	89.77
321.697	9.9
321.91	-12.63
322.124	46.76
322.337	13.99
322.55	95.91
322.763	11.95
322.977	61.1
323.19	71.34
323.403	32.43
323.617	-20.82
323.83	145.06
324.043	24.23
324.256	30.38
324.469	16.04
324.683	48.81
324.896	81.58
325.109	7.85
325.322	-10.58
325.535	73.39
325.748	11.95
325.962	16.04
326.175	-24.92
326.388	57
326.601	85.67
326.814	44.71
327.027	13.99
327.24	69.29
327.453	7.85
327.666	63.15
327.879	7.85
328.092	28.33
328.305	-29.01
328.518	38.57
328.731	26.28
328.944	-2.39
329.157	52.91
329.37	16.04
329.583	20.14
329.796	61.1
330.009	126.63
330.222	24.23
330.435	61.1
330.648	87.72
330.861	44.71
331.073	18.09
331.286	30.38
331.499	100.01
331.712	9.9
331.925	48.81
332.138	36.52
332.35	-55.64
332.563	26.28
332.776	73.39
332.989	11.95
333.202	46.76
333.414	52.91
333.627	36.52
333.84	54.95
334.053	-4.44
334.265	44.71
334.478	18.09
334.691	65.19
334.903	3.75
335.116	13.99
335.329	71.34
335.541	57
335.754	42.67
335.966	44.71
336.179	65.19
336.392	20.14
336.604	59.05
336.817	57
337.029	77.48
337.242	13.99
337.454	16.04
337.667	81.58
337.88	5.8
338.092	61.1
338.305	32.43
338.517	44.71
338.729	59.05
338.942	-10.58
339.154	26.28
339.367	13.99
339.579	81.58
339.792	40.62
340.004	77.48
340.217	7.85
340.429	50.86
340.641	36.52
340.854	-16.73
341.066	32.43
341.278	138.92
341.491	89.77
341.703	93.87
341.915	-20.82
342.128	106.15
342.34	85.67
342.552	-20.82
342.764	11.95
342.977	44.71
343.189	-0.34
343.401	93.87
343.613	-2.39
343.826	28.33
344.038	83.63
344.25	-4.44
344.462	48.81
344.674	9.9
344.886	26.28
345.099	13.99
345.311	11.95
345.523	54.95
345.735	54.95
345.947	46.76
346.159	61.1
346.371	-8.53
346.583	52.91
346.795	36.52
347.007	-43.35
347.219	59.05
347.431	22.19
347.643	32.43
347.855	-10.58
348.067	65.19
348.279	42.67
348.491	1.71
348.703	59.05
348.915	24.23
349.127	-8.53
349.339	108.2
349.551	-8.53
349.763	-10.58
349.975	52.91
350.187	85.67
350.399	32.43
350.61	61.1
350.822	16.04
351.034	116.39
351.246	104.11
351.458	65.19
351.669	-6.49
351.881	87.72
352.093	32.43
352.305	30.38
352.517	44.71
352.728	16.04
352.94	-6.49
353.152	87.72
353.363	65.19
353.575	28.33
353.787	57
353.999	175.78
354.21	-22.87
354.422	7.85
354.633	75.43
354.845	59.05
355.057	7.85
355.268	16.04
355.48	-8.53
355.692	16.04
355.903	1.71
356.115	73.39
356.326	30.38
356.538	85.67
356.749	32.43
356.961	24.23
357.172	126.63
357.384	32.43
357.595	194.22
357.807	26.28
358.018	57
358.23	63.15
358.441	65.19
358.653	36.52
358.864	-20.82
359.075	28.33
359.287	89.77
359.498	7.85
359.709	57
359.921	11.95
360.132	67.24
360.344	83.63
360.555	48.81
360.766	79.53
360.977	-41.3
361.189	97.96
361.4	48.81
361.611	102.06
361.823	-14.68
362.034	34.47
362.245	34.47
362.456	67.24
362.667	69.29
362.879	128.68
363.09	22.19
363.301	73.39
363.512	24.23
363.723	9.9
363.935	7.85
364.146	77.48
364.357	38.57
364.568	42.67
364.779	-2.39
364.99	71.34
365.201	22.19
365.412	30.38
365.623	57
365.834	87.72
366.045	18.09
366.256	73.39
366.467	44.71
366.678	26.28
366.889	32.43
367.1	106.15
367.311	40.62
367.522	-12.63
367.733	79.53
367.944	77.48
368.155	54.95
368.366	102.06
368.577	-45.4
368.788	104.11
368.999	65.19
369.209	61.1
369.42	28.33
369.631	112.3
369.842	-72.02
370.053	24.23
370.264	36.52
370.474	44.71
370.685	44.71
370.896	18.09
371.107	-20.82
371.317	36.52
371.528	24.23
371.739	36.52
371.95	3.75
372.16	-8.53
372.371	-16.73
372.582	67.24
372.792	67.24
373.003	63.15
373.214	52.91
373.424	126.63
373.635	40.62
373.846	40.62
374.056	18.09
374.267	73.39
374.477	69.29
374.688	28.33
374.898	57
375.109	-20.82
375.319	24.23
375.53	28.33
375.74	38.57
375.951	3.75
376.161	63.15
376.372	85.67
376.582	130.73
376.793	7.85
377.003	30.38
377.214	24.23
377.424	61.1
377.635	77.48
377.845	7.85
378.055	85.67
378.266	65.19
378.476	93.87
378.686	-43.35
378.897	42.67
379.107	30.38
379.317	48.81
379.528	-24.92
379.738	179.88
379.948	1.71
380.158	28.33
380.369	40.62
380.579	106.15
380.789	-8.53
380.999	120.49
381.21	18.09
381.42	71.34
381.63	26.28
381.84	128.68
382.05	108.2
382.261	81.58
382.471	132.78
382.681	3.75
382.891	36.52
383.101	52.91
383.311	-20.82
383.521	-10.58
383.731	130.73
383.941	48.81
384.151	79.53
384.361	34.47
384.571	44.71
384.781	34.47
384.991	16.04
385.201	104.11
385.411	28.33
385.621	71.34
385.831	65.19
386.041	112.3
386.251	91.82
386.461	36.52
386.671	34.47
386.881	79.53
387.091	-20.82
387.301	61.1
387.511	57
387.72	61.1
387.93	112.3
388.14	57
388.35	61.1
388.56	124.58
388.769	112.3
388.979	50.86
389.189	44.71
389.399	63.15
389.609	50.86
389.818	122.54
390.028	54.95
390.238	44.71
390.447	93.87
390.657	34.47
390.867	75.43
391.076	81.58
391.286	134.82
391.496	40.62
391.705	46.76
391.915	120.49
392.125	73.39
392.334	75.43
392.544	20.14
392.753	77.48
392.963	151.21
393.172	46.76
393.382	73.39
393.591	52.91
393.801	26.28
394.01	200.36
394.22	40.62
394.429	44.71
394.639	36.52
394.848	89.77
395.058	57
395.267	79.53
395.477	138.92
395.686	167.59
395.895	140.97
396.105	186.02
396.314	108.2
396.524	106.15
396.733	177.83
396.942	112.3
397.152	93.87
397.361	138.92
397.57	106.15
397.78	32.43
397.989	81.58
398.198	83.63
398.407	91.82
398.617	93.87
398.826	118.44
399.035	97.96
399.244	128.68
399.453	145.06
399.663	57
399.872	59.05
400.081	179.88
400.29	122.54
400.499	128.68
400.708	138.92
400.917	138.92
401.127	167.59
401.336	145.06
401.545	143.02
401.754	52.91
401.963	188.07
402.172	108.2
402.381	114.34
402.59	157.35
402.799	157.35
403.008	81.58
403.217	112.3
403.426	214.7
403.635	171.69
403.844	167.59
404.053	151.21
404.262	208.55
404.471	204.46
404.68	208.55
404.888	132.78
405.097	196.26
405.306	130.73
405.515	128.68
405.724	208.55
405.933	210.6
406.142	200.36
406.35	149.16
406.559	208.55
406.768	173.74
406.977	220.84
407.185	177.83
407.394	245.41
407.603	214.7
407.812	263.85
408.02	331.43
408.229	274.09
408.438	272.04
408.646	241.32
408.855	239.27
409.064	276.13
409.272	288.42
409.481	345.77
409.69	282.28
409.898	329.38
410.107	306.85
410.315	374.44
410.524	370.34
410.733	456.36
410.941	339.62
411.15	374.44
411.358	431.78
411.567	532.13
411.775	448.16
411.984	523.94
412.192	472.74
412.401	462.5
412.609	503.46
412.818	612
413.026	575.14
413.234	550.56
413.443	564.9
413.651	669.34
413.86	593.57
414.068	683.68
414.276	745.12
414.485	724.64
414.693	720.54
414.901	837.28
415.11	784.03
415.318	859.81
415.526	831.13
415.734	992.92
415.943	849.57
416.151	1029.79
416.359	888.48
416.567	902.81
416.776	1052.31
416.984	1064.6
417.192	1169.05
417.4	1187.48
417.608	1068.7
417.817	1189.53
418.025	1347.22
418.233	1400.47
418.441	1289.88
418.649	1406.61
418.857	1463.96
419.065	1435.28
419.273	1445.52
419.481	1529.49
419.689	1752.72
419.897	1701.52
420.105	1891.98
420.313	1828.49
420.521	1883.79
420.729	1830.54
420.937	2023.05
421.145	1982.09
421.353	2166.41
421.561	2338.44
421.769	2277
421.977	2469.51
422.185	2401.93
422.393	2442.89
422.601	2576
422.809	2680.45
423.017	2604.67
423.224	2776.7
423.432	2764.42
423.64	2895.49
423.848	3057.28
424.056	3110.52
424.263	3362.42
424.471	3389.05
424.679	3397.24
424.887	3616.37
425.094	3657.33
425.302	3659.38
425.51	3749.49
425.718	3980.91
425.925	3997.29
426.133	4167.28
426.341	4505.19
426.548	4630.12
426.756	4609.64
426.964	4523.62
427.171	4841.06
427.379	4927.07
427.586	5234.27
427.794	5295.71
428.001	5512.79
428.209	5838.42
428.417	5811.79
428.624	6086.22
428.832	6200.91
429.039	5959.25
429.247	5992.02
429.454	6772.29
429.662	7136.83
429.869	6618.69
430.076	7169.6
430.284	6749.76
430.491	7368.25
430.699	7536.18
430.906	7622.2
431.114	7634.49
431.321	8072.75
431.528	8361.52
431.736	8664.61
431.943	9088.54
432.15	8885.8
432.358	8918.56
432.565	9426.46
432.772	9457.18
432.979	9969.17
433.187	9967.12
433.394	9991.7
433.601	10720.78
433.808	10860.04
434.016	10599.94
434.223	11077.12
434.43	12004.85
434.637	11589.11
434.844	12266.99
435.052	12631.53
435.259	12482.03
435.466	12539.37
435.673	12604.91
435.88	13444.57
436.087	14116.31
436.294	14142.93
436.501	13665.75
436.708	14063.06
436.915	14542.28
437.122	15142.34
437.329	15304.13
437.537	15547.84
437.743	16121.27
437.95	15734.2
438.157	16432.56
438.364	17208.74
438.571	17403.3
438.778	17165.73
438.985	18806.16
439.192	17839.51
439.399	18843.02
439.606	18288.02
439.813	19201.41
440.02	20286.84
440.227	19942.78
440.433	19709.31
440.64	20444.53
440.847	20372.85
441.054	20868.46
441.261	22177.11
441.467	22084.95
441.674	22504.79
441.881	23459.14
442.088	23326.02
442.294	22865.23
442.501	23698.75
442.708	23854.4
442.914	24935.73
443.121	25941.28
443.328	25179.43
443.534	27077.9
443.741	26129.69
443.948	25984.29
444.154	28157.18
444.361	27618.57
444.568	27694.34
444.774	27692.29
444.981	28413.18
445.187	28542.2
445.394	30493.91
445.6	29852.9
445.807	32752.82
446.013	31313.1
446.22	31976.64
446.426	33301.68
446.633	33561.77
446.839	34479.26
447.046	33266.86
447.252	34854.04
447.459	35124.37
447.665	34897.05
447.871	36181.12
448.078	37762.15
448.284	36080.77
448.491	37139.57
448.697	38761.56
448.903	39107.67
449.11	39142.49
449.316	38806.62
449.522	39220.31
449.728	40621.12
449.935	40322.12
450.141	40457.28
450.347	41786.41
450.553	40260.68
450.76	41206.84
450.966	42085.42
451.172	41919.53
451.378	42527.78
451.584	41978.92
451.791	42974.23
451.997	42435.62
452.203	43701.26
452.409	43236.37
452.615	43230.23
452.821	41845.8
453.027	41231.41
453.233	43475.99
453.44	41755.69
453.646	42146.86
453.852	42632.22
454.058	43426.84
454.264	41776.17
454.47	42701.86
454.676	41491.51
454.882	42390.56
455.088	39308.37
455.294	39955.53
455.5	40457.28
455.705	41034.81
455.911	39355.47
456.117	38720.6
456.323	38128.74
456.529	36189.31
456.735	37825.64
456.941	36891.77
457.147	36418.69
457.352	35017.88
457.558	34552.99
457.764	34718.87
457.97	34180.26
458.176	33326.25
458.381	33629.35
458.587	31861.96
458.793	32066.75
458.999	30149.85
459.204	32093.38
459.41	31540.43
459.616	29338.86
459.821	29349.1
460.027	29097.2
460.233	28677.37
460.438	27620.61
460.644	27569.41
460.85	26455.32
461.055	25836.83
461.261	25898.27
461.466	23946.56
461.672	23321.93
461.878	24796.46
462.083	23385.41
462.289	22822.22
462.494	22283.61
462.7	21699.94
462.905	21085.54
463.111	21824.86
463.316	21757.28
463.522	21198.18
463.727	21372.26
463.932	21288.29
464.138	20995.43
464.343	21120.36
464.549	20333.94
464.754	21355.88
464.959	21136.74
465.165	20634.99
465.37	19973.5
465.575	19578.24
465.781	20071.8
465.986	20321.65
466.191	19592.58
466.397	19101.06
466.602	18351.51
466.807	18906.51
467.012	18910.6
467.218	18847.12
467.423	18566.54
467.628	18859.4
467.833	19719.55
468.038	18533.78
468.244	18193.81
468.449	18851.21
468.654	18294.16
468.859	18349.46
469.064	18212.24
469.269	17474.98
469.474	17585.57
469.679	17989.02
469.885	17489.31
470.09	17606.05
470.295	17524.13
470.5	17057.19
470.705	17239.46
470.91	16981.42
471.115	16793
471.32	16817.58
471.525	16690.6
471.73	16422.32
471.935	16469.42
472.139	15961.53
472.344	16098.74
472.549	15877.56
472.754	15793.59
472.959	15273.41
473.164	15230.4
473.369	14802.38
473.574	15402.43
473.778	15048.13
473.983	15261.12
474.188	14929.35
474.393	14450.13
474.598	14491.09
474.802	14177.75
475.007	14149.07
475.212	14181.84
475.417	13784.54
475.621	13790.68
475.826	13692.38
476.031	13589.98
476.235	13266.4
476.44	13481.44
476.645	13092.32
476.849	13256.16
477.054	13018.6
477.259	13012.45
477.463	12891.62
477.668	12441.07
477.872	12637.67
478.077	12563.95
478.282	12088.82
478.486	12049.91
478.691	11912.69
478.895	11873.78
479.1	11748.86
479.304	11812.34
479.509	11486.72
479.713	11621.88
479.918	11531.77
480.122	11466.24
480.326	11595.26
480.531	11435.52
480.735	11382.27
480.94	11347.45
481.144	11523.58
481.348	10808.84
481.553	11183.62
481.757	11050.5
481.961	11044.35
482.166	11398.65
482.37	11105.79
482.574	11048.45
482.778	11163.14
482.983	11243.01
483.187	10935.81
483.391	11093.51
483.595	10939.91
483.8	10587.66
484.004	10937.86
484.208	11095.55
484.412	10921.48
484.616	11181.57
484.821	10921.48
485.025	10870.28
485.229	11111.94
485.433	10870.28
485.637	10876.42
485.841	10776.07
486.045	10720.78
486.249	10860.04
486.453	10657.29
486.657	10972.68
486.861	11021.83
487.065	10765.83
487.269	10888.71
487.473	10708.49
487.677	10872.32
487.881	10806.79
488.085	10888.71
488.289	10944
488.493	10817.03
488.697	11030.02
488.901	10991.11
489.105	11048.45
489.309	11103.75
489.512	11218.43
489.716	11044.35
489.92	11255.29
490.124	10935.81
490.328	11060.74
490.531	11187.71
490.735	11326.97
490.939	11261.44
491.143	11240.96
491.346	11173.38
491.55	11267.58
491.754	11218.43
491.958	11341.31
492.161	11427.32
492.365	11384.32
492.569	11492.86
492.772	11435.52
492.976	11533.82
493.18	11709.94
493.383	11726.33
493.587	11896.31
493.79	11865.59
493.994	11802.1
494.197	12109.3
494.401	12080.63
494.605	12221.94
494.808	12137.97
495.012	12391.92
495.215	12258.8
495.419	12627.43
495.622	12688.87
495.825	12572.14
496.029	12668.39
496.232	12740.07
496.436	12701.16
496.639	13385.18
496.843	12887.53
497.046	13270.5
497.249	13401.57
497.453	13413.85
497.656	13657.56
497.859	13745.62
498.063	13622.75
498.266	14175.7
498.469	14015.96
498.673	14194.13
498.876	14482.89
499.079	14603.72
499.282	14665.16
499.485	14939.59
499.689	15140.29
499.892	15300.03
500.095	15175.11
500.298	15697.34
500.501	15343.04
500.705	15596.99
500.908	16010.68
501.111	16149.94
501.314	15967.67
501.517	16682.41
501.72	16678.32
501.923	16270.77
502.126	17020.33
502.329	17380.77
502.532	16899.5
502.735	17427.87
502.938	17446.3
503.141	17751.45
503.344	18066.84
503.547	17939.86
503.75	18189.72
503.953	18701.71
504.156	18800.01
504.359	18849.16
504.562	18945.42
504.765	19627.39
504.968	19578.24
505.17	19938.68
505.373	19832.19
505.576	20407.67
505.779	20514.16
505.982	20749.68
506.185	21011.82
506.387	21007.72
506.59	21022.06
506.793	21765.47
506.996	21284.2
507.198	22246.74
507.401	22099.29
507.604	22254.94
507.807	22809.93
508.009	22777.17
508.212	23076.17
508.415	23213.38
508.617	23506.24
508.82	23334.21
509.022	23592.26
509.225	24347.96
509.428	24235.32
509.63	24626.48
509.833	24532.28
510.035	25419.05
510.238	25230.63
510.44	25578.79
510.643	25716
510.845	26035.49
511.048	25859.36
511.25	26449.18
511.453	26416.41
511.655	27245.83
511.858	26891.54
512.06	27256.07
512.262	27616.52
512.465	27282.7
512.667	28183.8
512.87	28595.45
513.072	28132.61
513.274	28992.75
513.477	29213.93
513.679	29394.15
513.881	30057.7
514.084	29918.43
514.286	29740.26
514.488	30301.4
514.69	30991.57
514.893	31388.88
515.095	31390.92
515.297	31483.08
515.499	31378.64
515.701	32296.13
515.904	32498.87
516.106	32376
516.308	32797.88
516.51	33025.2
516.712	33197.23
516.914	33846.44
517.116	34241.7
517.318	34247.84
517.52	34643.1
517.722	34383.01
517.925	34999.44
518.127	35298.45
518.329	35413.13
518.531	35212.43
518.733	35972.23
518.935	36138.12
519.136	36537.47
519.338	37237.87
519.54	37166.2
519.742	37274.74
519.944	37717.1
520.146	38472.8
520.348	38280.29
520.55	38394.98
520.752	38554.72
520.954	38949.98
521.155	38999.13
521.357	39820.36
521.559	40078.41
521.761	40485.95
521.963	40234.05
522.164	40686.65
522.366	40803.39
522.568	41137.21
522.77	41272.37
522.971	41905.2
523.173	41591.86
523.375	42353.7
523.576	41890.86
523.778	42030.12
523.98	42791.97
524.181	43215.9
524.383	42951.71
524.584	43615.25
524.786	43420.69
524.988	43303.96
525.189	43961.36
525.391	44370.95
525.592	44456.96
525.794	44497.92
525.995	44696.58
526.197	44766.21
526.398	44329.99
526.6	45427.7
526.801	45442.04
527.003	45294.58
527.204	45526
527.406	46437.35
527.607	46085.1
527.808	46021.61
528.01	45892.59
528.211	46101.48
528.412	46887.9
528.614	46676.96
528.815	47039.45
529.016	47264.73
529.218	46701.54
529.419	46595.04
529.62	47047.64
529.822	47096.8
530.023	46973.92
530.224	46650.34
530.425	47184.86
530.626	46908.38
530.828	47447
531.029	48411.59
531.23	47354.84
531.431	47391.7
531.632	47621.08
531.833	48356.3
532.035	47877.07
532.236	47987.66
532.437	48104.4
532.638	47952.85
532.839	48147.4
533.04	47993.81
533.241	47807.44
533.442	48573.38
533.643	48262.09
533.844	48255.95
534.045	48339.91
534.246	47944.66
534.447	48466.89
534.648	48245.71
534.849	48333.77
535.05	48241.61
535.251	48593.86
535.451	48077.77
535.652	48196.56
535.853	48350.15
536.054	48731.08
536.255	48634.82
536.456	47829.97
536.657	49013.69
536.857	48423.88
537.058	48024.53
537.259	49122.24
537.46	48862.15
537.66	48432.07
537.861	48575.43
538.062	48249.8
538.263	48763.84
538.463	48059.34
538.664	48534.47
538.865	48942.02
539.065	48747.46
539.266	48419.78
539.466	48708.55
539.667	47461.33
539.868	48483.27
540.068	48225.23
540.269	48376.78
540.469	48608.2
540.67	48169.93
540.87	48405.45
541.071	47889.36
541.271	48628.68
541.472	48260.04
541.672	48233.42
541.873	48198.6
542.073	48104.4
542.274	48894.91
542.474	47997.9
542.675	48026.57
542.875	48481.22
543.075	48397.26
543.276	48100.3
543.476	48524.23
543.676	47719.38
543.877	48161.74
544.077	47993.81
544.277	47915.98
544.478	47698.9
544.678	48305.1
544.878	48171.98
545.078	48270.28
545.279	47829.97
545.479	47903.7
545.679	47950.8
545.879	47913.94
546.079	48280.52
546.28	47995.85
546.48	47862.74
546.68	47928.27
546.88	48090.06
547.08	47758.29
547.28	47733.71
547.48	47416.28
547.68	47670.23
547.88	47582.16
548.081	48012.24
548.281	47848.4
548.481	47780.82
548.681	48534.47
548.881	47832.02
549.081	47825.87
549.28	47297.5
549.48	48450.5
549.68	47645.65
549.88	48438.22
550.08	47553.49
550.28	47928.27
550.48	47393.75
550.68	48180.17
550.88	47485.91
551.08	47621.08
551.279	47760.34
551.479	47330.26
551.679	47965.13
551.879	47244.25
552.079	48022.48
552.278	47371.22
552.478	47475.67
552.678	47621.08
552.878	48077.77
553.077	47498.2
553.277	47195.1
553.477	47827.92
553.676	46922.72
553.876	47145.95
554.076	47211.48
554.275	47057.88
554.475	46738.4
554.674	47311.83
554.874	47397.85
555.074	46924.77
555.273	47205.34
555.473	47588.31
555.672	47184.86
555.872	47143.9
556.071	47270.87
556.271	47152.09
556.47	47240.15
556.67	46588.9
556.869	47002.59
557.068	46457.83
557.268	46578.66
557.467	46531.56
557.667	46873.57
557.866	46568.42
558.065	46492.65
558.265	46293.99
558.464	46527.46
558.663	46947.29
558.863	45851.63
559.062	46582.76
559.261	45921.26
559.461	46476.26
559.66	46101.48
559.859	46035.95
560.058	46003.18
560.258	45890.54
560.457	45851.63
560.656	46130.15
560.855	45759.47
561.054	45818.86
561.253	45495.28
561.453	45515.76
561.652	45972.46
561.851	45605.87
562.05	45560.82
562.249	45167.61
562.448	45921.26
562.647	45220.86
562.846	45095.93
563.045	45106.17
563.244	44717.06
563.443	45204.47
563.642	44344.33
563.841	45036.54
564.04	44614.66
564.239	44874.75
564.438	44280.84
564.637	45014.01
564.836	44569.6
565.035	44045.32
565.234	44319.75
565.432	43686.93
565.631	44057.61
565.83	44540.93
566.029	44112.91
566.228	44246.02
566.427	43764.75
566.625	43275.29
566.824	43361.3
567.023	44233.74
567.222	42984.47
567.42	43844.62
567.619	43441.17
567.818	43406.36
568.016	43086.87
568.215	43383.83
568.414	43207.7
568.612	43066.39
568.811	42867.74
569.01	42871.84
569.208	42658.85
569.407	42877.98
569.605	42449.95
569.804	42400.8
570.002	42241.06
570.201	42501.15
570.4	42138.66
570.598	41892.91
570.797	41452.59
570.995	42019.88
571.193	41299
571.392	41929.77
571.59	41622.58
571.789	41370.68
571.987	41526.32
572.186	41626.67
572.384	41370.68
572.582	41284.66
572.781	41143.35
572.979	40782.91
573.177	40860.73
573.376	41253.94
573.574	40578.11
573.772	41004.09
573.971	40590.4
574.169	40506.43
574.367	40248.39
574.565	40539.2
574.763	40215.62
574.962	40150.09
575.16	39928.91
575.358	39869.51
575.556	39521.36
575.754	40014.92
575.952	39470.16
576.151	39715.92
576.349	39414.87
576.547	39365.71
576.745	39332.95
576.943	39519.31
577.141	39152.73
577.339	39208.02
577.537	38816.86
577.735	39115.86
577.933	38239.33
578.131	38646.88
578.329	38573.15
578.527	38163.56
578.725	38241.38
578.923	38354.02
579.121	37942.38
579.319	38411.36
579.516	38349.92
579.714	38265.95
579.912	37872.74
580.11	38032.49
580.308	37805.16
580.506	37483.63
580.704	37438.58
580.901	37887.08
581.099	37547.12
581.297	37172.34
581.495	37307.51
581.692	37475.44
581.89	36498.56
582.088	37037.17
582.285	36807.8
582.483	37143.67
582.681	36643.96
582.878	36408.45
583.076	36193.41
583.274	36832.38
583.471	35783.82
583.669	36353.15
583.866	35966.09
584.064	36314.24
584.262	35460.24
584.459	35976.33
584.657	35892.36
584.854	36084.87
585.052	35392.65
585.249	35493.01
585.447	35464.33
585.644	35155.09
585.841	35220.63
586.039	35458.19
586.236	34921.62
586.434	34639
586.631	34915.48
586.828	34843.8
587.026	34679.96
587.223	34731.16
587.42	34624.67
587.618	34581.66
587.815	33752.23
588.012	34051.24
588.21	34350.24
588.407	34256.03
588.604	34028.71
588.801	33756.33
588.999	33854.63
589.196	33979.56
589.393	33678.5
589.59	33498.28
589.787	33457.32
589.984	33338.54
590.182	33008.82
590.379	32986.29
590.576	32697.53
590.773	33068.21
590.97	32793.78
591.167	33131.7
591.364	32502.97
591.561	32832.69
591.758	32449.72
591.955	32253.12
592.152	32969.91
592.349	32271.55
592.546	32439.48
592.743	32214.21
592.94	31726.79
593.137	32083.14
593.334	32109.76
593.531	31515.85
593.727	31732.93
593.924	31753.41
594.121	31292.62
594.318	31524.04
594.515	31104.21
594.712	31214.8
594.908	30997.71
595.105	31347.92
595.302	31018.19
595.499	31204.56
595.696	30538.97
595.892	30391.51
596.089	30713.05
596.286	30715.09
596.482	30567.64
596.679	30584.02
596.876	30336.22
597.072	29947.11
597.269	30102.75
597.466	29877.47
597.662	29988.07
597.859	29861.09
598.055	29969.63
598.252	29539.56
598.448	29756.64
598.645	29703.4
598.841	29400.3
599.038	29373.67
599.234	29193.45
599.431	29093.1
599.627	29144.3
599.824	29209.84
600.02	28884.21
600.217	28781.81
600.413	28476.66
600.609	28407.03
600.806	28265.72
601.002	28474.62
601.198	28515.58
601.395	28341.5
601.591	28103.93
601.787	28241.15
601.984	28130.56
602.18	28452.09
602.376	28052.73
602.572	27755.78
602.769	27962.62
602.965	27641.09
603.161	27847.94
603.357	27565.32
603.553	27645.19
603.75	27645.19
603.946	27346.19
604.142	27262.22
604.338	26973.46
604.534	27206.92
604.73	26766.61
604.926	26909.97
605.122	26778.9
605.318	26975.5
605.514	26778.9
605.71	26336.54
605.906	26502.42
606.102	26539.29
606.298	26410.26
606.494	26547.48
606.69	26572.05
606.886	26293.53
607.082	26211.61
607.278	26602.77
607.474	26043.68
607.67	26459.41
607.866	25799.97
608.062	26012.96
608.257	25998.62
608.453	25877.79
608.649	26002.72
608.845	25605.41
609.041	25388.33
609.236	25703.71
609.432	25910.56
609.628	25462.05
609.824	25273.64
610.019	25402.66
610.215	25363.75
610.411	25292.07
610.606	25134.38
610.802	25578.79
610.998	25189.67
611.193	25074.99
611.389	24841.52
611.584	24898.86
611.78	24872.24
611.976	25077.04
612.171	24825.14
612.367	24692.02
612.562	25025.84
612.758	24335.67
612.953	24108.35
613.149	24958.25
613.344	24243.51
613.539	24747.31
613.735	24685.87
613.93	24728.88
614.126	24550.71
614.321	24671.54
614.517	24016.19
614.712	24294.71
614.907	24116.54
615.103	24302.9
615.298	24073.53
615.493	24356.15
615.688	23979.32
615.884	24169.79
616.079	24106.3
616.274	24036.67
616.47	24055.1
616.665	23817.54
616.86	23643.46
617.055	23276.87
617.25	23522.63
617.445	23682.37
617.641	23225.67
617.836	23649.6
618.031	23321.93
618.226	23430.47
618.421	23260.49
618.616	23596.35
618.811	23035.21
619.006	23293.26
619.201	22619.47
619.396	23031.12
619.591	22629.71
619.786	22941
619.981	22682.96
620.176	22744.4
620.371	22371.67
620.566	22609.23
620.761	22220.12
620.956	22381.91
621.151	22039.9
621.346	22299.99
621.541	21687.65
621.735	21761.37
621.93	21523.81
622.125	21755.23
622.32	21239.14
622.515	21738.85
622.709	21073.26
622.904	21321.06
623.099	21124.46
623.294	21144.94
623.488	21046.63
623.683	20819.31
623.878	20598.13
624.072	20675.95
624.267	20618.61
624.462	20485.49
624.656	20110.71
624.851	20284.79
625.046	20202.87
625.24	20084.09
625.435	20108.66
625.629	19705.21
625.824	19686.78
626.018	19602.82
626.213	19037.58
626.407	19467.65
626.602	19201.41
626.796	19129.73
626.991	19115.4
627.185	18814.35
627.38	18800.01
627.574	18691.47
627.768	18660.75
627.963	18562.45
628.157	18453.91
628.352	18359.7
628.546	18173.33
628.74	18345.36
628.935	17810.84
629.129	18226.58
629.323	17698.2
629.517	17868.19
629.712	17581.47
629.906	17456.54
630.1	17259.94
630.294	17302.95
630.489	17210.79
630.683	17524.13
630.877	16985.51
631.071	17323.43
631.265	17096.1
631.459	16919.98
631.653	16778.67
631.848	16655.79
632.042	16598.45
632.236	16772.52
632.43	16373.17
632.624	16743.85
632.818	16375.22
633.012	16084.41
633.206	15822.27
633.4	16092.6
633.594	15850.94
633.788	16008.63
633.982	15920.57
634.176	15707.58
634.369	15588.8
634.563	15517.12
634.757	15435.2
634.951	15711.67
635.145	15240.64
635.339	15285.7
635.533	15162.82
635.726	15185.35
635.92	14908.87
636.114	14835.14
636.308	14867.91
636.501	14792.14
636.695	14583.24
636.889	14675.4
637.083	14607.82
637.276	14566.86
637.47	14364.11
637.664	14161.36
637.857	14196.18
638.051	14484.94
638.244	14124.5
638.438	13970.9
638.632	14101.97
638.825	13723.1
639.019	13819.35
639.212	13768.15
639.406	13860.31
639.599	13471.2
639.793	13663.71
639.986	13460.96
640.18	13534.68
640.373	13598.17
640.567	13129.19
640.76	13342.18
640.954	12856.81
641.147	13196.77
641.34	13067.75
641.534	12684.78
641.727	12969.44
641.92	12998.12
642.114	12613.1
642.307	12760.55
642.5	12555.76
642.694	12510.7
642.887	12441.07
643.08	12748.26
643.273	12484.08
643.467	12324.33
643.66	12123.63
643.853	11951.6
644.046	12072.43
644.239	11888.12
644.432	11910.64
644.626	11945.46
644.819	11740.66
645.012	11863.54
645.205	11705.85
645.398	11644.41
645.591	11619.83
645.784	11585.02
645.977	11331.07
646.17	11296.25
646.363	11398.65
646.556	11177.47
646.749	11173.38
646.942	11312.64
647.135	11372.03
647.328	11130.37
647.521	11005.44
647.714	10849.8
647.907	10925.57
648.099	10915.33
648.292	10823.17
648.485	10737.16
648.678	10407.44
648.871	10511.88
649.064	10460.68
649.256	10546.7
649.449	10448.4
649.642	10350.09
649.835	10216.97
650.027	10389
650.22	10294.8
650.413	10120.72
650.605	10133.01
650.798	10116.62
650.991	9866.77
651.183	10059.28
651.376	9860.63
651.568	9850.39
651.761	9612.82
651.954	9743.89
652.146	9891.35
652.339	9659.93
652.531	9737.75
652.724	9616.92
652.916	9457.18
653.109	9532.95
653.301	9494.04
653.494	9344.54
653.686	9248.29
653.879	9358.88
654.071	9344.54
654.263	9252.38
654.456	8971.81
654.648	9100.83
654.84	8930.85
655.033	8926.75
655.225	8971.81
655.417	8850.98
655.61	8807.97
655.802	8916.51
655.994	8773.16
656.186	8781.35
656.379	8785.44
656.571	8687.14
656.763	8656.42
656.955	8580.65
657.148	8402.47
657.34	8582.7
657.532	8474.15
657.724	8312.36
657.916	8410.67
658.108	8298.03
658.3	8349.23
658.492	8181.29
658.684	8091.18
658.876	7992.88
659.068	8056.37
659.26	7976.5
659.452	7953.97
659.644	7902.77
659.836	7949.87
660.028	8023.6
660.22	7859.76
660.412	7827
660.604	7800.37
660.796	7781.94
660.988	7577.14
661.18	7773.75
661.372	7552.57
661.563	7571
661.755	7231.04
661.947	7525.94
662.139	7372.35
662.331	7405.11
662.522	7298.62
662.714	7235.13
662.906	7329.34
663.097	7183.93
663.289	7306.81
663.481	7296.57
663.673	7036.48
663.864	7106.11
664.056	7054.91
664.247	7173.69
664.439	6889.03
664.631	6876.74
664.822	6954.56
665.014	7163.45
665.205	6827.59
665.397	6823.49
665.588	6788.68
665.78	6852.16
665.971	6702.66
666.163	6518.34
666.354	6608.45
666.546	6717
666.737	6563.4
666.929	6512.2
667.12	6571.59
667.311	6430.28
667.503	6444.62
667.694	6391.37
667.885	6456.9
668.077	6372.94
668.268	6321.74
668.459	6192.72
668.651	6182.48
668.842	6315.59
669.033	6250.06
669.224	6241.87
669.416	6297.16
669.607	6196.81
669.798	6004.3
669.989	6112.85
670.18	6041.17
670.371	6032.97
670.563	5983.82
670.754	6032.97
670.945	5989.97
671.136	5836.37
671.327	5914.19
671.518	5908.05
671.709	5740.12
671.9	5840.47
672.091	5822.03
672.282	5824.08
672.473	5807.7
672.664	5707.35
672.855	5699.16
673.046	5617.24
673.237	5774.93
673.428	5617.24
673.619	5676.63
673.809	5443.16
674	5520.98
674.191	5645.91
674.382	5387.86
674.573	5525.08
674.764	5686.87
674.954	5422.68
675.145	5334.62
675.336	5334.62
675.527	5402.2
675.717	5346.91
675.908	5369.43
676.099	5363.29
676.289	5332.57
676.48	5351
676.671	5203.55
676.861	5250.65
677.052	5135.96
677.243	5232.22
677.433	5203.55
677.624	5240.41
677.814	5205.6
678.005	5203.55
678.195	5191.26
678.386	5127.77
678.576	5117.53
678.767	5150.3
678.957	5039.71
679.148	5019.23
679.338	5066.33
679.529	5027.42
679.719	5068.38
679.909	5013.09
680.1	4869.73
680.29	4939.36
680.481	4869.73
680.671	4830.82
680.861	4822.63
681.052	4957.79
681.242	4796
681.432	4894.3
681.622	4855.39
681.813	4720.23
682.003	4859.49
682.193	4646.5
682.383	4804.19
682.573	4834.91
682.764	4623.97
682.954	4757.09
683.144	4703.84
683.334	4623.97
683.524	4664.93
683.714	4796
683.904	4501.09
684.094	4628.07
684.284	4732.51
684.474	4515.43
684.664	4595.3
684.854	4609.64
685.044	4490.85
685.234	4566.63
685.424	4523.62
685.614	4574.82
685.804	4644.45
685.994	4490.85
686.184	4449.89
686.374	4470.37
686.564	4316.78
686.753	4558.44
686.943	4343.4
687.133	4296.3
687.323	4476.52
687.513	4238.95
687.702	4204.14
687.892	4318.82
688.082	4210.28
688.272	4144.75
688.461	4243.05
688.651	4429.42
688.841	4128.36
689.03	4353.64
689.22	4142.7
689.41	4085.36
689.599	4107.88
689.789	4169.32
689.979	4116.08
690.168	4140.65
690.358	3999.34
690.547	3991.15
690.737	4087.4
690.926	3942
691.116	3972.72
691.305	3958.38
691.495	3939.95
691.684	3915.37
691.874	3853.94
692.063	3804.78
692.252	3853.94
692.442	3835.5
692.631	3780.21
692.82	3866.22
693.01	3638.9
693.199	3788.4
693.388	3794.54
693.578	3896.94
693.767	3745.39
693.956	3829.36
694.146	3651.19
694.335	3638.9
694.524	3591.8
694.713	3673.71
694.902	3608.18
695.092	3683.95
695.281	3630.71
695.47	3616.37
695.659	3618.42
695.848	3452.53
696.037	3661.43
696.226	3587.7
696.415	3389.05
696.604	3665.52
696.793	3507.83
696.982	3563.12
697.171	3489.4
697.36	3466.87
697.549	3382.9
697.738	3477.11
697.927	3329.66
698.116	3532.4
698.305	3528.31
698.494	3440.25
698.683	3327.61
698.872	3387
699.061	3352.18
699.25	3407.48
699.438	3335.8
699.627	3337.85
699.816	3403.38
700.005	3333.75
700.193	3370.62
700.382	3325.56
700.571	3311.22
700.76	3387
700.948	3417.72
701.137	3366.52
701.326	3311.22
701.514	3229.31
701.703	3247.74
701.892	3178.11
702.08	3356.28
702.269	3319.42
702.457	3358.33
702.646	3196.54
702.834	3163.77
703.023	3188.35
703.212	3309.18
703.4	3323.51
703.589	3108.48
703.777	3329.66
703.965	3243.64
704.154	3335.8
704.342	3169.91
704.531	3239.55
704.719	3069.56
704.907	3278.46
705.096	3165.82
705.284	3274.36
705.472	3096.19
705.661	3227.26
705.849	3278.46
706.037	3106.43
706.226	3145.34
706.414	3192.44
706.602	3268.22
706.79	3303.03
706.979	3243.64
707.167	3184.25
707.355	3110.52
707.543	3047.04
707.731	3055.23
707.919	3212.92
708.107	3139.19
708.296	3030.65
708.484	3061.37
708.672	3014.27
708.86	3145.34
709.048	2958.97
709.236	3026.56
709.424	3112.57
709.612	3026.56
709.8	3042.94
709.988	3092.09
710.176	2995.84
710.364	3159.67
710.551	3006.08
710.739	3014.27
710.927	3122.81
711.115	3067.52
711.303	2977.41
711.491	3131
711.679	3071.61
711.866	3010.17
712.054	3249.79
712.242	2911.87
712.43	3010.17
712.617	2967.17
712.805	2954.88
712.993	3057.28
713.181	2969.21
713.368	3008.12
713.556	3083.9
713.744	2922.11
713.931	3018.36
714.119	2938.49
714.306	3085.95
714.494	2977.41
714.682	3081.85
714.869	2991.74
715.057	3120.76
715.244	2850.43
715.432	3100.28
715.619	2918.01
715.807	3010.17
715.994	3016.32
716.182	3024.51
716.369	2965.12
716.556	3028.6
716.744	2965.12
716.931	2973.31
717.119	3057.28
717.306	2963.07
717.493	2903.68
717.681	2961.02
717.868	2950.78
718.055	2977.41
718.242	2977.41
718.43	3047.04
718.617	3040.89
718.804	2893.44
718.991	2965.12
719.179	3065.47
719.366	2893.44
719.553	3137.15
719.74	2879.1
719.927	2997.88
720.114	2942.59
720.301	2954.88
720.488	2895.49
720.676	2928.25
720.863	2946.69
721.05	2840.19
721.237	2928.25
721.424	2969.21
721.611	2981.5
721.798	2776.7
721.985	2897.53
722.172	2848.38
722.358	2889.34
722.545	2915.97
722.732	2936.45
722.919	2965.12
723.106	2856.58
723.293	3006.08
723.48	2924.16
723.667	2803.33
723.853	2905.73
724.04	2893.44
724.227	2905.73
724.414	2809.47
724.6	2901.63
724.787	2918.01
724.974	2946.69
725.161	2846.34
725.347	2832
725.534	2928.25
725.72	2999.93
725.907	3016.32
726.094	3040.89
726.28	2799.23
726.467	2854.53
726.653	2958.97
726.84	2969.21
727.027	2981.5
727.213	2915.97
727.4	2875.01
727.586	2985.6
727.773	2811.52
727.959	2883.2
728.145	2944.64
728.332	2909.82
728.518	2911.87
728.705	2856.58
728.891	2942.59
729.077	2895.49
729.264	2832
729.45	2832
729.636	2975.36
729.823	2920.06
730.009	2784.9
730.195	2862.72
730.382	3001.98
730.568	2936.45
730.754	2928.25
730.94	2866.81
731.126	2872.96
731.313	2971.26
731.499	2971.26
731.685	2868.86
731.871	2834.05
732.057	2926.21
732.243	2920.06
732.429	2963.07
732.615	2936.45
732.801	2862.72
732.987	2801.28
733.173	2961.02
733.359	3012.22
733.545	2840.19
733.731	2897.53
733.917	2920.06
734.103	2875.01
734.289	2850.43
734.475	2737.79
734.661	2940.54
734.847	2809.47
735.033	2772.61
735.219	2891.39
735.404	2889.34
735.59	2979.45
735.776	2870.91
735.962	2842.24
736.148	3012.22
736.333	2809.47
736.519	2875.01
736.705	2780.8
736.89	2856.58
737.076	2877.05
737.262	2911.87
737.447	2879.1
737.633	2836.1
737.819	2838.14
738.004	2856.58
738.19	2715.27
738.375	2764.42
738.561	2860.67
738.747	2723.46
738.932	2731.65
739.118	2713.22
739.303	2748.03
739.489	2743.94
739.674	2745.98
739.859	2782.85
740.045	2801.28
740.23	2799.23
740.416	2707.07
740.601	2754.18
740.786	2692.74
740.972	2713.22
741.157	2664.07
741.342	2743.94
741.528	2688.64
741.713	2768.51
741.898	2702.98
742.084	2719.36
742.269	2731.65
742.454	2719.36
742.639	2700.93
742.824	2631.3
743.01	2731.65
743.195	2702.98
743.38	2588.29
743.565	2670.21
743.75	2567.81
743.935	2555.52
744.12	2547.33
744.305	2502.28
744.49	2559.62
744.675	2496.13
744.86	2580.1
745.045	2543.24
745.23	2485.89
745.415	2393.73
745.6	2569.86
745.785	2489.99
745.97	2438.79
746.155	2350.73
746.34	2465.41
746.525	2457.22
746.71	2479.75
746.895	2451.08
747.079	2403.97
747.264	2360.97
747.449	2360.97
747.634	2428.55
747.819	2320.01
748.003	2244.23
748.188	2299.53
748.373	2344.58
748.557	2262.66
748.742	2211.46
748.927	2178.7
749.111	2301.58
749.296	2178.7
749.481	2201.23
749.665	2289.29
749.85	2082.44
750.034	2197.13
750.219	2092.68
750.404	2121.35
750.588	2080.39
750.773	2082.44
750.957	2059.92
751.141	2082.44
751.326	2098.83
751.51	2123.4
751.695	2102.92
751.879	2072.2
752.064	2145.93
752.248	1990.28
752.432	1926.8
752.617	1902.22
752.801	1918.61
752.985	1900.17
753.17	1945.23
753.354	1967.76
753.538	1988.24
753.722	1900.17
753.907	1832.59
754.091	1767.06
754.275	1812.11
754.459	1750.67
754.643	1965.71
754.828	1781.39
755.012	1797.78
755.196	1844.88
755.38	1779.34
755.564	1851.02
755.748	1822.35
755.932	1771.15
756.116	1810.06
756.3	1810.06
756.484	1758.86
756.668	1769.1
756.852	1619.6
757.036	1705.62
757.22	1674.9
757.404	1779.34
757.588	1697.42
757.772	1681.04
757.956	1658.51
758.14	1648.27
758.323	1560.21
758.507	1605.27
758.691	1601.17
758.875	1625.75
759.059	1560.21
759.242	1488.53
759.426	1517.2
759.61	1595.03
759.794	1541.78
759.977	1484.44
760.161	1543.83
760.345	1457.81
760.528	1562.26
760.712	1511.06
760.895	1488.53
761.079	1486.48
761.263	1420.95
761.446	1365.65
761.63	1398.42
761.813	1586.83
761.997	1466
762.18	1398.42
762.364	1418.9
762.547	1392.28
762.731	1373.85
762.914	1445.52
763.098	1435.28
763.281	1382.04
763.464	1400.47
763.648	1443.48
763.831	1375.89
764.015	1296.02
764.198	1435.28
764.381	1414.81
764.564	1330.84
764.748	1367.7
764.931	1324.69
765.114	1455.76
765.297	1314.45
765.481	1357.46
765.664	1369.75
765.847	1203.86
766.03	1318.55
766.213	1244.82
766.397	1293.97
766.58	1175.19
766.763	1312.41
766.946	1140.38
767.129	1267.35
767.312	1183.38
767.495	1289.88
767.678	1257.11
767.861	1296.02
768.044	1248.92
768.227	1289.88
768.41	1175.19
768.593	1244.82
768.776	1283.74
768.959	1105.56
769.142	1271.45
769.324	1173.14
769.507	1152.67
769.69	1150.62
769.873	1226.39
770.056	1117.85
770.239	1085.08
770.421	1101.47
770.604	1150.62
770.787	1175.19
770.97	1175.19
771.152	1064.6
771.335	1072.79
771.518	1126.04
771.7	1007.26
771.883	1177.24
772.066	1064.6
772.248	994.97
772.431	1044.12
772.613	1093.27
772.796	966.3
772.978	1031.83
773.161	1064.6
773.343	980.64
773.526	1052.31
773.708	1031.83
773.891	1029.79
774.073	1027.74
774.256	1019.55
774.438	1019.55
774.621	962.2
774.803	978.59
774.985	966.3
775.168	1044.12
775.35	1060.51
775.532	925.34
775.715	902.81
775.897	988.83
776.079	878.24
776.261	919.2
776.444	853.66
776.626	917.15
776.808	951.96
776.99	839.33
777.173	884.38
777.355	863.9
777.537	949.92
777.719	732.83
777.901	775.84
778.083	859.81
778.265	822.94
778.447	851.61
778.629	808.61
778.811	806.56
778.993	888.48
779.175	824.99
779.357	853.66
779.539	841.37
779.721	868
779.903	792.22
780.085	767.65
780.267	859.81
780.449	769.69
780.631	724.64
780.812	681.63
780.994	763.55
781.176	724.64
781.358	829.09
781.54	706.21
781.721	704.16
781.903	698.02
782.085	618.15
782.267	749.22
782.448	732.83
782.63	644.77
782.812	577.19
782.993	728.74
783.175	728.74
783.357	677.54
783.538	642.72
783.72	646.82
783.901	618.15
784.083	630.43
784.264	671.39
784.446	652.96
784.627	640.67
784.809	663.2
784.99	616.1
785.172	620.19
785.353	603.81
785.535	583.33
785.716	648.86
785.897	650.91
786.079	571.04
786.26	532.13
786.441	560.8
786.623	554.66
786.804	501.41
786.985	560.8
787.167	609.95
787.348	663.2
787.529	519.84
787.71	548.51
787.891	544.42
788.073	444.07
788.254	530.08
788.435	556.71
788.616	558.75
788.797	521.89
788.978	482.98
789.159	452.26
789.34	495.27
789.522	521.89
789.703	474.79
789.884	466.6
790.065	568.99
790.246	444.07
790.427	581.28
790.607	464.55
790.788	544.42
790.969	505.51
791.15	560.8
791.331	472.74
791.512	407.2
791.693	425.64
791.874	448.16
792.054	411.3
792.235	470.69
792.416	394.92
792.597	321.19
792.778	306.85
792.958	462.5
793.139	437.92
793.32	413.35
793.5	392.87
793.681	409.25
793.862	399.01
794.042	399.01
794.223	390.82
794.404	419.49
794.584	384.68
794.765	378.53
794.945	376.48
795.126	380.58
795.306	480.93
795.487	321.19
795.667	437.92
795.848	403.11
796.028	407.2
796.209	427.68
796.389	382.63
796.57	417.44
796.75	415.4
796.93	419.49
797.111	378.53
797.291	376.48
797.471	265.89
797.652	403.11
797.832	286.37
798.012	364.2
798.192	325.29
798.373	315.05
798.553	366.25
798.733	372.39
798.913	327.33
799.093	388.77
799.274	374.44
799.454	345.77
799.634	374.44
799.814	392.87
799.994	353.96
800.174	321.19
800.354	331.43
800.534	302.76
800.714	339.62
800.894	267.94
801.074	362.15
801.254	257.7
801.434	310.95
801.614	288.42
801.794	310.95
801.974	745.12
802.154	282.28
802.334	269.99
802.514	302.76
802.693	306.85
802.873	261.8
803.053	286.37
803.233	321.19
803.413	302.76
803.592	306.85
803.772	269.99
803.952	278.18
804.131	251.56
804.311	360.1
804.491	224.94
804.67	276.13
804.85	263.85
805.03	263.85
805.209	278.18
805.389	335.53
805.568	235.18
805.748	259.75
805.928	286.37
806.107	257.7
806.287	218.79
806.466	220.84
806.646	276.13
806.825	204.46
807.004	253.61
807.184	251.56
807.363	286.37
807.543	239.27
807.722	274.09
807.901	272.04
808.081	296.61
808.26	249.51
808.439	249.51
808.619	239.27
808.798	229.03
808.977	204.46
809.156	190.12
809.336	222.89
809.515	267.94
809.694	220.84
809.873	171.69
810.052	245.41
810.231	290.47
810.411	198.31
810.59	304.81
810.769	200.36
810.948	231.08
811.127	169.64
811.306	282.28
811.485	179.88
811.664	243.37
811.843	212.65
812.022	198.31
812.201	190.12
812.38	229.03
812.559	218.79
812.737	237.22
812.916	196.26
813.095	206.5
813.274	226.98
813.453	231.08
813.632	210.6
813.811	190.12
813.989	171.69
814.168	224.94
814.347	81.58
814.526	181.93
814.704	183.98
814.883	257.7
815.062	132.78
815.24	245.41
815.419	169.64
815.598	130.73
815.776	171.69
815.955	171.69
816.133	128.68
816.312	165.54
816.49	163.5
816.669	151.21
816.847	140.97
817.026	192.17
817.204	249.51
817.383	151.21
817.561	175.78
817.74	241.32
817.918	95.91
818.097	134.82
818.275	126.63
818.453	186.02
818.632	204.46
818.81	126.63
818.988	138.92
819.167	140.97
819.345	118.44
819.523	157.35
819.701	186.02
819.879	136.87
820.058	169.64
820.236	159.4
820.414	210.6
820.592	188.07
820.77	171.69
820.948	138.92
821.127	130.73
821.305	153.26
821.483	151.21
821.661	122.54
821.839	175.78
822.017	177.83
822.195	161.45
822.373	163.5
822.551	91.82
822.729	122.54
822.907	97.96
823.085	130.73
823.262	126.63
823.44	106.15
823.618	186.02
823.796	186.02
823.974	18.09
824.152	77.48
824.329	153.26
824.507	173.74
824.685	151.21
824.863	100.01
825.04	100.01
825.218	63.15
825.396	122.54
825.574	157.35
825.751	151.21
825.929	161.45
826.107	65.19
826.284	48.81
826.462	95.91
826.639	32.43
826.817	145.06
826.994	134.82
827.172	128.68
827.349	151.21
827.527	102.06
827.704	116.39
827.882	163.5
828.059	93.87
828.237	9.9
828.414	171.69
828.591	122.54
828.769	75.43
828.946	167.59
829.124	65.19
829.301	143.02
829.478	165.54
829.655	81.58
829.833	126.63
830.01	104.11
830.187	149.16
830.364	140.97
830.542	108.2
830.719	97.96
830.896	149.16
831.073	85.67
831.25	34.47
831.427	114.34
831.604	59.05
831.782	134.82
831.959	91.82
832.136	134.82
832.313	120.49
832.49	44.71
832.667	104.11
832.844	44.71
833.021	124.58
833.198	110.25
833.374	138.92
833.551	169.64
833.728	59.05
833.905	110.25
834.082	85.67
834.259	46.76
834.436	147.11
834.612	132.78
834.789	95.91
834.966	87.72
835.143	122.54
835.319	177.83
835.496	93.87
835.673	132.78
835.85	54.95
836.026	75.43
836.203	188.07
836.38	52.91
836.556	54.95
836.733	63.15
836.909	30.38
837.086	11.95
837.262	50.86
837.439	20.14
837.616	69.29
837.792	143.02
837.968	59.05
838.145	95.91
838.321	165.54
838.498	-26.96
838.674	95.91
838.851	114.34
839.027	95.91
839.203	48.81
839.38	89.77
839.556	5.8
839.732	85.67
839.909	77.48
840.085	38.57
840.261	-26.96
840.437	57
840.614	95.91
840.79	190.12
840.966	95.91
841.142	11.95
841.318	69.29
841.494	48.81
841.671	50.86
841.847	71.34
842.023	52.91
842.199	32.43
842.375	100.01
842.551	61.1
842.727	89.77
842.903	116.39
843.079	59.05
843.255	61.1
843.431	73.39
843.607	54.95
843.783	54.95
843.959	136.87
844.134	87.72
844.31	93.87
844.486	-12.63
844.662	50.86
844.838	38.57
845.013	57
845.189	77.48
845.365	179.88
845.541	30.38
845.716	42.67
845.892	28.33
846.068	69.29
846.244	22.19
846.419	44.71
846.595	114.34
846.77	48.81
846.946	73.39
847.122	44.71
847.297	1.71
847.473	110.25
847.648	9.9
847.824	26.28
847.999	87.72
848.175	71.34
848.35	61.1
848.526	3.75
848.701	44.71
848.876	138.92
849.052	18.09
849.227	93.87
849.403	-45.4
849.578	44.71
849.753	-24.92
849.929	134.82
850.104	57
850.279	83.63
850.454	52.91
850.63	38.57
850.805	-6.49
850.98	20.14
851.155	13.99
851.33	50.86
851.505	40.62
851.681	-16.73
851.856	11.95
852.031	36.52
852.206	126.63
852.381	79.53
852.556	87.72
852.731	-2.39
852.906	40.62
853.081	48.81
853.256	-24.92
853.431	30.38
853.606	-0.34
853.781	-6.49
853.956	48.81
854.131	69.29
854.305	46.76
854.48	24.23
854.655	-8.53
854.83	100.01
855.005	18.09
855.18	46.76
855.354	-10.58
855.529	38.57
855.704	-26.96
855.879	87.72
856.053	1.71
856.228	7.85
856.403	7.85
856.577	93.87
856.752	40.62
856.926	116.39
857.101	1.71
857.276	34.47
857.45	20.14
857.625	104.11
857.799	-29.01
857.974	106.15
858.148	16.04
858.323	48.81
858.497	48.81
858.672	9.9
858.846	-18.77
859.02	3.75
859.195	-0.34
859.369	-20.82
859.543	-4.44
859.718	30.38
859.892	65.19
860.066	126.63
860.241	7.85
860.415	7.85
860.589	44.71
860.763	54.95
860.938	67.24
861.112	67.24
861.286	7.85
861.46	3.75
861.634	102.06
861.808	16.04
861.982	69.29
862.157	7.85
862.331	59.05
862.505	59.05
862.679	30.38
862.853	-18.77
863.027	73.39
863.201	50.86
863.375	59.05
863.549	-37.2
863.722	69.29
863.896	22.19
864.07	52.91
864.244	32.43
864.418	40.62
864.592	13.99
864.766	112.3
864.939	63.15
865.113	-20.82
865.287	85.67
865.461	54.95
865.634	22.19
865.808	11.95
865.982	-6.49
866.156	-37.2
866.329	-43.35
866.503	69.29
866.676	89.77
866.85	32.43
867.024	44.71
867.197	30.38
867.371	81.58
867.544	-16.73
867.718	11.95
867.891	52.91
868.065	11.95
868.238	3.75
868.412	54.95
868.585	46.76
868.759	52.91
868.932	40.62
869.105	85.67
869.279	-14.68
869.452	-41.3
869.625	32.43
869.799	26.28
869.972	-2.39
870.145	-33.11
870.319	20.14
870.492	36.52
870.665	-37.2
870.838	-16.73
871.011	-16.73
871.185	42.67
871.358	71.34
871.531	44.71
871.704	-49.49
871.877	20.14
872.05	42.67
872.223	-39.25
872.396	-6.49
872.569	-6.49
872.742	-2.39
872.915	13.99
873.088	9.9
873.261	69.29
873.434	20.14
873.607	-22.87
873.78	48.81
873.953	-4.44
874.126	63.15
874.299	1.71
874.471	63.15
874.644	73.39
874.817	61.1
874.99	104.11
875.163	-18.77
875.335	140.97
875.508	-8.53
875.681	-8.53
875.853	83.63
876.026	11.95
876.199	81.58
876.371	73.39
876.544	7.85
876.717	-12.63
876.889	11.95
877.062	22.19
877.234	1.71
877.407	-18.77
877.579	-10.58
877.752	36.52
877.924	-18.77
878.097	85.67
878.269	18.09
878.442	-10.58
878.614	-8.53
878.786	-8.53
878.959	-37.2
879.131	-10.58
879.303	69.29
879.476	57
879.648	-51.54
879.82	50.86
879.993	65.19
880.165	-31.06
880.337	-20.82
880.509	65.19
880.681	9.9
880.854	-39.25
881.026	42.67
881.198	32.43
881.37	-16.73
881.542	42.67
881.714	1.71
881.886	18.09
882.058	-31.06
882.23	9.9
882.402	-67.92
882.574	-18.77
882.746	36.52
882.918	11.95
883.09	104.11
883.262	13.99
883.434	22.19
883.606	-10.58
883.778	40.62
883.95	-31.06
884.122	28.33
884.293	16.04
884.465	-12.63
884.637	-24.92
884.809	-18.77
884.98	40.62
885.152	-10.58
885.324	57
885.496	1.71
885.667	-24.92
885.839	73.39
886.011	71.34
886.182	-2.39
886.354	-12.63
886.525	24.23
886.697	-14.68
886.869	-20.82
887.04	30.38
887.212	20.14
887.383	20.14
887.555	-61.78
887.726	65.19
887.897	-37.2
888.069	7.85
888.24	18.09
888.412	-26.96
888.583	-0.34
888.754	22.19
888.926	7.85
889.097	52.91
889.268	-57.68
889.44	5.8
889.611	-67.92
889.782	-18.77
889.953	-10.58
890.125	36.52
890.296	-4.44
890.467	5.8
890.638	-12.63
890.809	-14.68
890.98	-4.44
891.151	20.14
891.323	3.75
891.494	38.57
891.665	-2.39
891.836	11.95
892.007	-0.34
892.178	46.76
892.349	-72.02
892.52	-18.77
892.691	102.06
892.862	-24.92
893.032	46.76
893.203	1.71
893.374	-24.92
893.545	20.14
893.716	13.99
893.887	44.71
894.057	11.95
894.228	3.75
894.399	-0.34
894.57	-24.92
894.74	63.15
894.911	9.9
895.082	-6.49
895.253	-31.06
895.423	73.39
895.594	36.52
895.764	9.9
895.935	57
896.106	11.95
896.276	-24.92
896.447	48.81
896.617	9.9
896.788	-4.44
896.958	-20.82
897.129	3.75
897.299	-41.3
897.47	34.47
897.64	-20.82
897.81	20.14
897.981	1.71
898.151	-14.68
898.322	-14.68
898.492	-41.3
898.662	3.75
898.832	-16.73
899.003	69.29
899.173	69.29
899.343	-33.11
899.513	-33.11
