Data from USB4F104151__88__11-45-41-647.txt Node

Date: Fri Mar 14 11:45:41 EDT 2025
User: louis
Spectrometer: USB4F10415
Trigger mode: 4
Integration Time (sec): 2.000000E-2
Scans to average: 1
Electric dark correction enabled: true
Nonlinearity correction enabled: false
Boxcar width: 0
XAxis mode: Wavelengths
Number of Pixels in Spectrum: 3648
>>>>>Begin Spectral Data<<<<<
178.204	-90.79
178.424	-90.79
178.644	-90.79
178.864	-101.03
179.084	-68.27
179.304	44.37
179.524	-0.68
179.744	-35.5
179.964	-0.68
180.184	-31.4
180.404	-0.68
180.624	-6.83
180.844	27.99
181.064	42.32
181.283	3.41
181.503	-8.87
181.723	-33.45
181.943	5.46
182.163	42.32
182.383	-41.64
182.602	1.37
182.822	-47.79
183.042	-21.16
183.262	-6.83
183.482	9.56
183.701	-0.68
183.921	13.65
184.141	-35.5
184.361	7.51
184.58	9.56
184.8	71
185.02	25.94
185.239	21.85
185.459	-39.59
185.679	54.61
185.898	17.75
186.118	-8.87
186.338	-17.07
186.557	1.37
186.777	-29.35
186.997	1.37
187.216	42.32
187.436	38.23
187.655	17.75
187.875	68.95
188.095	48.47
188.314	17.75
188.534	101.72
188.753	-58.03
188.973	-33.45
189.192	21.85
189.412	-6.83
189.631	-39.59
189.851	17.75
190.07	-4.78
190.29	-53.93
190.509	-17.07
190.729	17.75
190.948	46.42
191.168	91.48
191.387	-2.73
191.607	-19.11
191.826	54.61
192.045	-23.21
192.265	60.76
192.484	-2.73
192.704	-6.83
192.923	9.56
193.142	52.56
193.362	-15.02
193.581	-25.26
193.8	15.7
194.02	9.56
194.239	-25.26
194.458	-49.83
194.678	-2.73
194.897	25.94
195.116	-23.21
195.335	11.61
195.555	3.41
195.774	34.13
195.993	54.61
196.212	17.75
196.432	-23.21
196.651	21.85
196.87	-2.73
197.089	83.28
197.308	54.61
197.528	38.23
197.747	-17.07
197.966	46.42
198.185	-35.5
198.404	46.42
198.623	-17.07
198.842	-2.73
199.062	-31.4
199.281	71
199.5	34.13
199.719	46.42
199.938	56.66
200.157	42.32
200.376	-25.26
200.595	-51.88
200.814	36.18
201.033	30.04
201.252	27.99
201.471	-17.07
201.69	11.61
201.909	-45.74
202.128	68.95
202.347	-23.21
202.566	13.65
202.785	42.32
203.004	-27.31
203.223	62.8
203.442	-53.93
203.661	-37.55
203.879	11.61
204.098	36.18
204.317	-29.35
204.536	44.37
204.755	-51.88
204.974	-35.5
205.193	5.46
205.411	32.08
205.63	-41.64
205.849	27.99
206.068	3.41
206.287	7.51
206.505	-8.87
206.724	-12.97
206.943	34.13
207.162	-2.73
207.381	58.71
207.599	-43.69
207.818	-31.4
208.037	-92.84
208.255	-58.03
208.474	-0.68
208.693	9.56
208.911	23.89
209.13	34.13
209.349	36.18
209.567	-27.31
209.786	17.75
210.005	107.86
210.223	-2.73
210.442	-17.07
210.661	30.04
210.879	15.7
211.098	44.37
211.316	-2.73
211.535	23.89
211.753	25.94
211.972	46.42
212.191	27.99
212.409	-4.78
212.628	-21.16
212.846	-8.87
213.065	7.51
213.283	50.52
213.502	-19.11
213.72	56.66
213.938	15.7
214.157	-21.16
214.375	32.08
214.594	30.04
214.812	-88.75
215.031	5.46
215.249	15.7
215.467	42.32
215.686	34.13
215.904	54.61
216.122	-12.97
216.341	50.52
216.559	-4.78
216.778	30.04
216.996	19.8
217.214	-0.68
217.432	52.56
217.651	-39.59
217.869	-25.26
218.087	17.75
218.306	-17.07
218.524	46.42
218.742	-12.97
218.96	27.99
219.179	7.51
219.397	-0.68
219.615	9.56
219.833	13.65
220.051	21.85
220.27	32.08
220.488	44.37
220.706	15.7
220.924	-6.83
221.142	-12.97
221.36	-37.55
221.578	-31.4
221.796	-10.92
222.015	-4.78
222.233	27.99
222.451	27.99
222.669	15.7
222.887	3.41
223.105	-41.64
223.323	-60.07
223.541	-6.83
223.759	5.46
223.977	7.51
224.195	15.7
224.413	9.56
224.631	38.23
224.849	44.37
225.067	-4.78
225.285	-21.16
225.503	46.42
225.721	-60.07
225.939	-17.07
226.157	-43.69
226.375	-17.07
226.592	46.42
226.81	50.52
227.028	-6.83
227.246	13.65
227.464	3.41
227.682	48.47
227.9	-29.35
228.117	32.08
228.335	-8.87
228.553	44.37
228.771	89.43
228.989	25.94
229.206	1.37
229.424	-10.92
229.642	34.13
229.86	64.85
230.077	-39.59
230.295	66.9
230.513	58.71
230.731	75.09
230.948	52.56
231.166	3.41
231.384	-43.69
231.601	32.08
231.819	50.52
232.037	36.18
232.254	-2.73
232.472	73.04
232.689	-6.83
232.907	-55.98
233.125	-0.68
233.342	-35.5
233.56	34.13
233.777	83.28
233.995	34.13
234.213	23.89
234.43	1.37
234.648	54.61
234.865	-41.64
235.083	42.32
235.3	-0.68
235.518	21.85
235.735	-6.83
235.953	38.23
236.17	91.48
236.388	48.47
236.605	-25.26
236.822	56.66
237.04	11.61
237.257	48.47
237.475	58.71
237.692	1.37
237.909	-33.45
238.127	1.37
238.344	52.56
238.562	-17.07
238.779	9.56
238.996	23.89
239.214	-19.11
239.431	19.8
239.648	17.75
239.865	23.89
240.083	54.61
240.3	77.14
240.517	-35.5
240.735	-33.45
240.952	38.23
241.169	40.28
241.386	-19.11
241.603	-53.93
241.821	17.75
242.038	-2.73
242.255	-17.07
242.472	34.13
242.689	21.85
242.907	36.18
243.124	7.51
243.341	15.7
243.558	17.75
243.775	-29.35
243.992	-6.83
244.209	44.37
244.426	-33.45
244.643	15.7
244.86	-72.36
245.078	1.37
245.295	34.13
245.512	68.95
245.729	-51.88
245.946	5.46
246.163	-10.92
246.38	36.18
246.597	44.37
246.814	-2.73
247.031	56.66
247.248	58.71
247.464	-8.87
247.681	7.51
247.898	-64.17
248.115	85.33
248.332	-2.73
248.549	30.04
248.766	-15.02
248.983	15.7
249.2	42.32
249.417	68.95
249.633	19.8
249.85	23.89
250.067	15.7
250.284	21.85
250.501	9.56
250.717	-4.78
250.934	23.89
251.151	15.7
251.368	56.66
251.585	38.23
251.801	-31.4
252.018	-80.55
252.235	11.61
252.451	91.48
252.668	-127.66
252.885	52.56
253.102	-25.26
253.318	36.18
253.535	-23.21
253.752	21.85
253.968	32.08
254.185	34.13
254.401	-27.31
254.618	-2.73
254.835	-64.17
255.051	77.14
255.268	38.23
255.484	-37.55
255.701	19.8
255.917	-31.4
256.134	-47.79
256.351	81.24
256.567	54.61
256.784	9.56
257	-62.12
257.217	23.89
257.433	-4.78
257.65	1.37
257.866	58.71
258.082	7.51
258.299	-0.68
258.515	68.95
258.732	-6.83
258.948	-33.45
259.165	25.94
259.381	-19.11
259.597	17.75
259.814	11.61
260.03	27.99
260.246	9.56
260.463	32.08
260.679	-37.55
260.895	17.75
261.112	-17.07
261.328	-31.4
261.544	13.65
261.761	105.81
261.977	-37.55
262.193	-17.07
262.409	5.46
262.626	-10.92
262.842	62.8
263.058	-17.07
263.274	77.14
263.49	38.23
263.707	-29.35
263.923	40.28
264.139	34.13
264.355	-27.31
264.571	79.19
264.787	17.75
265.004	5.46
265.22	17.75
265.436	40.28
265.652	-47.79
265.868	23.89
266.084	50.52
266.3	27.99
266.516	-27.31
266.732	9.56
266.948	44.37
267.164	-15.02
267.38	68.95
267.596	-19.11
267.812	30.04
268.028	48.47
268.244	40.28
268.46	58.71
268.676	64.85
268.892	64.85
269.108	-31.4
269.324	-10.92
269.54	34.13
269.756	99.67
269.972	-62.12
270.188	-2.73
270.403	66.9
270.619	15.7
270.835	-68.27
271.051	-21.16
271.267	-23.21
271.483	-31.4
271.698	-0.68
271.914	9.56
272.13	-90.79
272.346	5.46
272.562	54.61
272.777	-47.79
272.993	-80.55
273.209	5.46
273.425	15.7
273.64	-64.17
273.856	-4.78
274.072	-0.68
274.287	-17.07
274.503	-27.31
274.719	-39.59
274.934	13.65
275.15	-49.83
275.366	-8.87
275.581	-6.83
275.797	3.41
276.012	-6.83
276.228	3.41
276.444	32.08
276.659	36.18
276.875	23.89
277.09	32.08
277.306	81.24
277.521	-15.02
277.737	17.75
277.952	48.47
278.168	-2.73
278.383	27.99
278.599	15.7
278.814	-6.83
279.03	-8.87
279.245	5.46
279.461	-27.31
279.676	71
279.892	-15.02
280.107	30.04
280.322	-0.68
280.538	64.85
280.753	-58.03
280.969	73.04
281.184	-12.97
281.399	81.24
281.615	-17.07
281.83	64.85
282.045	-49.83
282.26	-47.79
282.476	-29.35
282.691	-0.68
282.906	-17.07
283.122	-35.5
283.337	23.89
283.552	13.65
283.767	1.37
283.983	30.04
284.198	75.09
284.413	50.52
284.628	13.65
284.843	-35.5
285.058	-78.51
285.274	40.28
285.489	-53.93
285.704	42.32
285.919	-72.36
286.134	36.18
286.349	-55.98
286.564	-0.68
286.779	95.57
286.995	-35.5
287.21	-39.59
287.425	13.65
287.64	9.56
287.855	-35.5
288.07	30.04
288.285	-31.4
288.5	50.52
288.715	46.42
288.93	5.46
289.145	-35.5
289.36	3.41
289.575	-2.73
289.79	15.7
290.004	-23.21
290.219	3.41
290.434	95.57
290.649	-29.35
290.864	1.37
291.079	-29.35
291.294	-21.16
291.509	56.66
291.724	5.46
291.938	-0.68
292.153	-39.59
292.368	-12.97
292.583	46.42
292.798	5.46
293.012	25.94
293.227	87.38
293.442	3.41
293.657	-15.02
293.871	27.99
294.086	-64.17
294.301	-21.16
294.516	-35.5
294.73	19.8
294.945	-27.31
295.16	83.28
295.374	-35.5
295.589	-19.11
295.804	-35.5
296.018	-49.83
296.233	32.08
296.447	-12.97
296.662	-39.59
296.877	25.94
297.091	-64.17
297.306	3.41
297.52	-96.94
297.735	56.66
297.949	52.56
298.164	15.7
298.378	5.46
298.593	-4.78
298.807	-53.93
299.022	42.32
299.236	42.32
299.451	54.61
299.665	48.47
299.88	-23.21
300.094	17.75
300.309	23.89
300.523	-8.87
300.737	50.52
300.952	-12.97
301.166	32.08
301.381	1.37
301.595	-10.92
301.809	42.32
302.024	-47.79
302.238	-105.13
302.452	21.85
302.667	42.32
302.881	-21.16
303.095	27.99
303.309	-6.83
303.524	21.85
303.738	-10.92
303.952	-45.74
304.166	32.08
304.381	-80.55
304.595	-17.07
304.809	3.41
305.023	38.23
305.237	46.42
305.452	60.76
305.666	38.23
305.88	-6.83
306.094	54.61
306.308	54.61
306.522	62.8
306.736	5.46
306.95	44.37
307.164	-4.78
307.379	1.37
307.593	34.13
307.807	-49.83
308.021	23.89
308.235	30.04
308.449	-37.55
308.663	5.46
308.877	83.28
309.091	66.9
309.305	-6.83
309.519	-60.07
309.733	40.28
309.947	-53.93
310.161	36.18
310.374	-43.69
310.588	40.28
310.802	23.89
311.016	3.41
311.23	-49.83
311.444	9.56
311.658	27.99
311.872	13.65
312.085	15.7
312.299	66.9
312.513	15.7
312.727	54.61
312.941	-15.02
313.154	-10.92
313.368	-25.26
313.582	7.51
313.796	5.46
314.009	15.7
314.223	-19.11
314.437	-35.5
314.651	-10.92
314.864	-43.69
315.078	-39.59
315.292	36.18
315.505	-60.07
315.719	64.85
315.933	-10.92
316.146	46.42
316.36	19.8
316.573	-10.92
316.787	15.7
317.001	48.47
317.214	-60.07
317.428	48.47
317.641	-19.11
317.855	-21.16
318.068	42.32
318.282	19.8
318.495	60.76
318.709	48.47
318.922	-19.11
319.136	-15.02
319.349	23.89
319.563	-35.5
319.776	30.04
319.99	-21.16
320.203	32.08
320.417	-45.74
320.63	-43.69
320.843	-39.59
321.057	3.41
321.27	-19.11
321.483	1.37
321.697	40.28
321.91	13.65
322.124	25.94
322.337	25.94
322.55	42.32
322.763	-19.11
322.977	-8.87
323.19	-29.35
323.403	38.23
323.617	-21.16
323.83	23.89
324.043	-29.35
324.256	23.89
324.469	-66.22
324.683	27.99
324.896	-27.31
325.109	-12.97
325.322	-23.21
325.535	-19.11
325.748	21.85
325.962	-49.83
326.175	-21.16
326.388	93.52
326.601	40.28
326.814	34.13
327.027	46.42
327.24	68.95
327.453	11.61
327.666	38.23
327.879	13.65
328.092	46.42
328.305	42.32
328.518	-17.07
328.731	-47.79
328.944	32.08
329.157	48.47
329.37	-60.07
329.583	38.23
329.796	58.71
330.009	-64.17
330.222	58.71
330.435	89.43
330.648	42.32
330.861	32.08
331.073	40.28
331.286	27.99
331.499	3.41
331.712	13.65
331.925	5.46
332.138	-4.78
332.35	36.18
332.563	-15.02
332.776	27.99
332.989	-0.68
333.202	3.41
333.414	56.66
333.627	-0.68
333.84	3.41
334.053	34.13
334.265	-17.07
334.478	-64.17
334.691	15.7
334.903	21.85
335.116	-29.35
335.329	40.28
335.541	-10.92
335.754	64.85
335.966	-27.31
336.179	5.46
336.392	66.9
336.604	-6.83
336.817	-2.73
337.029	-2.73
337.242	5.46
337.454	-4.78
337.667	42.32
337.88	81.24
338.092	50.52
338.305	48.47
338.517	-25.26
338.729	25.94
338.942	-19.11
339.154	-10.92
339.367	-33.45
339.579	3.41
339.792	-8.87
340.004	-19.11
340.217	-25.26
340.429	9.56
340.641	38.23
340.854	-8.87
341.066	38.23
341.278	13.65
341.491	-0.68
341.703	25.94
341.915	5.46
342.128	40.28
342.34	7.51
342.552	-43.69
342.764	34.13
342.977	15.7
343.189	7.51
343.401	17.75
343.613	-17.07
343.826	64.85
344.038	-17.07
344.25	62.8
344.462	71
344.674	124.24
344.886	-6.83
345.099	66.9
345.311	50.52
345.523	-64.17
345.735	-37.55
345.947	13.65
346.159	-55.98
346.371	48.47
346.583	5.46
346.795	-12.97
347.007	23.89
347.219	-12.97
347.431	30.04
347.643	58.71
347.855	-35.5
348.067	27.99
348.279	1.37
348.491	23.89
348.703	15.7
348.915	36.18
349.127	30.04
349.339	42.32
349.551	-37.55
349.763	-17.07
349.975	-0.68
350.187	56.66
350.399	54.61
350.61	-8.87
350.822	99.67
351.034	66.9
351.246	21.85
351.458	-4.78
351.669	5.46
351.881	-8.87
352.093	79.19
352.305	85.33
352.517	-23.21
352.728	44.37
352.94	36.18
353.152	17.75
353.363	-10.92
353.575	38.23
353.787	62.8
353.999	48.47
354.21	-41.64
354.422	42.32
354.633	17.75
354.845	-0.68
355.057	30.04
355.268	11.61
355.48	32.08
355.692	48.47
355.903	-8.87
356.115	-2.73
356.326	-88.75
356.538	-10.92
356.749	40.28
356.961	85.33
357.172	120.15
357.384	-23.21
357.595	56.66
357.807	-33.45
358.018	-23.21
358.23	-8.87
358.441	132.44
358.653	11.61
358.864	52.56
359.075	-51.88
359.287	-12.97
359.498	-0.68
359.709	46.42
359.921	-6.83
360.132	1.37
360.344	-19.11
360.555	-12.97
360.766	134.48
360.977	-8.87
361.189	40.28
361.4	-64.17
361.611	-12.97
361.823	-19.11
362.034	56.66
362.245	-19.11
362.456	11.61
362.667	17.75
362.879	-37.55
363.09	11.61
363.301	-29.35
363.512	99.67
363.723	40.28
363.935	-60.07
364.146	-31.4
364.357	-43.69
364.568	21.85
364.779	1.37
364.99	-31.4
365.201	32.08
365.412	58.71
365.623	-12.97
365.834	73.04
366.045	-23.21
366.256	17.75
366.467	34.13
366.678	111.96
366.889	62.8
367.1	-33.45
367.311	34.13
367.522	34.13
367.733	73.04
367.944	11.61
368.155	9.56
368.366	77.14
368.577	68.95
368.788	46.42
368.999	-37.55
369.209	1.37
369.42	17.75
369.631	62.8
369.842	-19.11
370.053	81.24
370.264	13.65
370.474	-33.45
370.685	34.13
370.896	50.52
371.107	64.85
371.317	23.89
371.528	64.85
371.739	5.46
371.95	13.65
372.16	5.46
372.371	-25.26
372.582	3.41
372.792	21.85
373.003	-33.45
373.214	-37.55
373.424	-39.59
373.635	32.08
373.846	44.37
374.056	-39.59
374.267	77.14
374.477	-43.69
374.688	5.46
374.898	42.32
375.109	11.61
375.319	-2.73
375.53	54.61
375.74	75.09
375.951	-12.97
376.161	42.32
376.372	-4.78
376.582	-31.4
376.793	46.42
377.003	89.43
377.214	-15.02
377.424	50.52
377.635	50.52
377.845	-0.68
378.055	-12.97
378.266	3.41
378.476	5.46
378.686	-6.83
378.897	32.08
379.107	-27.31
379.317	75.09
379.528	-43.69
379.738	-8.87
379.948	-21.16
380.158	42.32
380.369	13.65
380.579	85.33
380.789	1.37
380.999	46.42
381.21	-15.02
381.42	-4.78
381.63	17.75
381.84	-43.69
382.05	7.51
382.261	32.08
382.471	5.46
382.681	-8.87
382.891	34.13
383.101	34.13
383.311	19.8
383.521	34.13
383.731	38.23
383.941	46.42
384.151	-51.88
384.361	-10.92
384.571	-4.78
384.781	68.95
384.991	54.61
385.201	62.8
385.411	-25.26
385.621	5.46
385.831	-31.4
386.041	-60.07
386.251	25.94
386.461	97.62
386.671	75.09
386.881	62.8
387.091	11.61
387.301	23.89
387.511	19.8
387.72	38.23
387.93	79.19
388.14	-8.87
388.35	-41.64
388.56	34.13
388.769	23.89
388.979	81.24
389.189	34.13
389.399	9.56
389.609	-2.73
389.818	34.13
390.028	62.8
390.238	25.94
390.447	21.85
390.657	36.18
390.867	-31.4
391.076	52.56
391.286	15.7
391.496	7.51
391.705	17.75
391.915	42.32
392.125	40.28
392.334	-0.68
392.544	42.32
392.753	-4.78
392.963	-6.83
393.172	71
393.382	-8.87
393.591	50.52
393.801	-10.92
394.01	54.61
394.22	46.42
394.429	7.51
394.639	71
394.848	34.13
395.058	23.89
395.267	44.37
395.477	89.43
395.686	64.85
395.895	142.68
396.105	64.85
396.314	25.94
396.524	-2.73
396.733	25.94
396.942	68.95
397.152	34.13
397.361	11.61
397.57	15.7
397.78	52.56
397.989	58.71
398.198	95.57
398.407	58.71
398.617	27.99
398.826	36.18
399.035	48.47
399.244	23.89
399.453	-4.78
399.663	9.56
399.872	85.33
400.081	27.99
400.29	64.85
400.499	-49.83
400.708	-27.31
400.917	1.37
401.127	120.15
401.336	111.96
401.545	81.24
401.754	25.94
401.963	-21.16
402.172	-8.87
402.381	50.52
402.59	50.52
402.799	1.37
403.008	32.08
403.217	-10.92
403.426	1.37
403.635	48.47
403.844	68.95
404.053	62.8
404.262	79.19
404.471	30.04
404.68	81.24
404.888	140.63
405.097	66.9
405.306	17.75
405.515	83.28
405.724	71
405.933	68.95
406.142	87.38
406.35	60.76
406.559	83.28
406.768	150.87
406.977	54.61
407.185	32.08
407.394	52.56
407.603	95.57
407.812	62.8
408.02	116.05
408.229	144.72
408.438	118.1
408.646	66.9
408.855	144.72
409.064	157.01
409.272	99.67
409.481	81.24
409.69	138.58
409.898	95.57
410.107	144.72
410.315	183.63
410.524	83.28
410.733	142.68
410.941	193.87
411.15	169.3
411.358	183.63
411.567	189.78
411.775	167.25
411.984	202.07
412.192	204.11
412.401	171.35
412.609	251.22
412.818	167.25
413.026	236.88
413.234	181.59
413.443	257.36
413.651	197.97
413.86	288.08
414.068	320.85
414.276	337.23
414.485	247.12
414.693	333.14
414.901	302.42
415.11	314.7
415.318	310.61
415.526	351.57
415.734	324.94
415.943	443.73
416.151	372.05
416.359	372.05
416.567	404.82
416.776	417.1
416.984	394.58
417.192	453.97
417.4	390.48
417.608	462.16
417.817	468.3
418.025	568.65
418.233	585.04
418.441	542.03
418.649	570.7
418.857	576.84
419.065	613.71
419.273	576.84
419.481	669
419.689	644.43
419.897	734.54
420.105	765.26
420.313	722.25
420.521	765.26
420.729	748.87
420.937	722.25
421.145	908.62
421.353	771.4
421.561	1043.78
421.769	957.77
421.977	912.71
422.185	965.96
422.393	1043.78
422.601	1082.69
422.809	1041.73
423.017	1103.17
423.224	1148.23
423.432	1170.76
423.64	1158.47
423.848	1217.86
424.056	1197.38
424.263	1336.64
424.471	1359.17
424.679	1316.16
424.887	1332.55
425.094	1453.38
425.302	1414.46
425.51	1561.92
425.718	1580.35
425.925	1568.06
426.133	1586.49
426.341	1740.09
426.548	1744.19
426.756	1867.06
426.964	1828.15
427.171	1936.7
427.379	1924.41
427.586	2094.39
427.794	2008.37
428.001	2194.74
428.209	2270.51
428.417	2276.66
428.624	2450.74
428.832	2428.21
429.039	2411.82
429.247	2450.74
429.454	2559.28
429.662	2741.55
429.869	2676.01
430.076	2798.89
430.284	2620.72
430.491	2802.99
430.699	2966.82
430.906	2987.3
431.114	2999.59
431.321	3128.61
431.528	3296.55
431.736	3448.1
431.943	3394.85
432.15	3292.45
432.358	3511.58
432.565	3640.61
432.772	3679.52
432.979	3796.25
433.187	3972.38
433.394	3912.99
433.601	4195.61
433.808	4220.18
434.016	4162.84
434.223	4334.87
434.43	4584.72
434.637	4629.77
434.844	4687.12
435.052	4971.79
435.259	4928.78
435.466	4979.98
435.673	4949.26
435.88	5135.62
436.087	5387.52
436.294	5469.44
436.501	5252.36
436.708	5459.2
436.915	5577.98
437.122	6075.64
437.329	5846.27
437.537	5985.53
437.743	6163.7
437.95	6139.13
438.157	6362.36
438.364	6620.4
438.571	6614.26
438.778	6642.93
438.985	7361.77
439.192	6900.97
439.399	7218.41
439.606	7073
439.813	7466.21
440.02	7933.15
440.227	7953.63
440.433	7724.26
440.64	8187.1
440.847	7752.93
441.054	8256.73
441.261	8889.55
441.467	8482
441.674	8576.21
441.881	9000.14
442.088	9055.44
442.294	9071.82
442.501	9141.45
442.708	9358.53
442.914	9688.26
443.121	10048.7
443.328	9811.14
443.534	10185.91
443.741	10319.03
443.948	10106.04
444.154	10876.08
444.361	10831.02
444.568	10847.41
444.774	10781.87
444.981	11093.16
445.187	11494.57
445.394	11920.54
445.6	11662.5
445.807	12835.99
446.013	12205.21
446.22	12317.85
446.426	12952.72
446.633	12885.14
446.839	13614.21
447.046	13145.23
447.252	13550.73
447.459	13663.36
447.665	13587.59
447.871	14191.74
448.078	14886
448.284	14060.67
448.491	14505.08
448.697	15185.01
448.903	15342.7
449.11	15613.03
449.316	15215.73
449.522	15529.06
449.728	15905.89
449.935	15877.22
450.141	15602.79
450.347	16172.13
450.553	15922.27
450.76	15983.71
450.966	16534.62
451.172	16407.64
451.378	16821.33
451.584	16309.34
451.791	16878.68
451.997	16841.81
452.203	17245.26
452.409	16890.96
452.615	17120.34
452.821	16395.36
453.027	15948.9
453.233	17022.03
453.44	16323.68
453.646	16706.65
453.852	16794.71
454.058	16893.01
454.264	16346.2
454.47	16680.02
454.676	16249.95
454.882	17126.48
455.088	15445.1
455.294	15885.41
455.5	15918.18
455.705	15930.47
455.911	15332.46
456.117	15189.1
456.323	14965.87
456.529	14066.81
456.735	14695.54
456.941	14273.66
457.147	13952.13
457.352	13837.44
457.558	13612.17
457.764	13507.72
457.97	13290.63
458.176	13210.76
458.381	12926.1
458.587	12508.31
458.793	12520.6
458.999	11969.69
459.204	12530.84
459.41	12405.91
459.616	11457.7
459.821	11564.2
460.027	11474.09
460.233	11252.91
460.438	10734.77
460.644	10693.81
460.85	10114.24
461.055	10050.75
461.261	9956.54
461.466	9262.28
461.672	9147.59
461.878	9731.26
462.083	8971.47
462.289	8819.92
462.494	8854.73
462.7	8525.01
462.905	8207.58
463.111	8543.44
463.316	8451.28
463.522	8352.98
463.727	8142.04
463.932	8355.03
464.138	8131.8
464.343	8246.49
464.549	7959.77
464.754	8367.32
464.959	8060.12
465.165	8135.9
465.37	7812.32
465.575	7537.89
465.781	7820.51
465.986	8006.88
466.191	7529.7
466.397	7519.46
466.602	7083.24
466.807	7382.24
467.012	7220.46
467.218	7453.92
467.423	7138.54
467.628	7374.05
467.833	7767.26
468.038	7206.12
468.244	7177.45
468.449	7245.03
468.654	7183.59
468.859	7152.87
469.064	6982.89
469.269	6833.39
469.474	6966.51
469.679	6982.89
469.885	6704.37
470.09	6950.12
470.295	6843.63
470.5	6706.41
470.705	6812.91
470.91	6362.36
471.115	6481.14
471.32	6536.43
471.525	6483.19
471.73	6436.08
471.935	6278.39
472.139	6288.63
472.344	6132.98
472.549	6253.81
472.754	6137.08
472.959	6077.69
473.164	5803.26
473.369	5799.16
473.574	6059.26
473.778	5786.88
473.983	5854.46
474.188	5672.19
474.393	5668.09
474.598	5610.75
474.802	5580.03
475.007	5577.98
475.212	5645.57
475.417	5448.96
475.621	5274.88
475.826	5393.67
476.031	5213.45
476.235	5162.25
476.44	5342.47
476.645	5133.57
476.849	5121.29
477.054	5076.23
477.259	5061.9
477.463	4947.21
477.668	4844.81
477.872	5041.42
478.077	4822.28
478.282	4631.82
478.486	4590.86
478.691	4668.69
478.895	4668.69
479.1	4564.24
479.304	4592.91
479.509	4476.18
479.713	4463.89
479.918	4457.75
480.122	4394.26
480.326	4447.51
480.531	4467.99
480.735	4322.58
480.94	4377.87
481.144	4410.64
481.348	4353.3
481.553	4486.42
481.757	4056.34
481.961	4320.53
482.166	4322.58
482.37	4355.35
482.574	4289.81
482.778	4269.33
482.983	4349.2
483.187	4214.04
483.391	4349.2
483.595	4230.42
483.8	4130.07
484.004	4384.02
484.208	4332.82
484.412	4242.71
484.616	4404.5
484.821	4085.01
485.025	4257.04
485.229	4373.78
485.433	4154.65
485.637	4320.53
485.841	4326.68
486.045	4375.83
486.249	4347.15
486.453	4377.87
486.657	4209.94
486.861	4199.7
487.065	4193.56
487.269	4228.37
487.473	4146.45
487.677	4197.65
487.881	4242.71
488.085	4103.45
488.289	4252.95
488.493	4099.35
488.697	4367.63
488.901	4267.28
489.105	4187.41
489.309	4330.77
489.512	4308.24
489.716	4121.88
489.92	4371.73
490.124	4224.28
490.328	4476.18
490.531	4261.14
490.735	4459.79
490.939	4418.83
491.143	4492.56
491.346	4386.07
491.55	4341.01
491.754	4429.07
491.958	4578.58
492.161	4453.65
492.365	4392.21
492.569	4556.05
492.772	4420.88
492.976	4568.34
493.18	4637.97
493.383	4650.25
493.587	4568.34
493.79	4719.89
493.994	4576.53
494.197	4678.93
494.401	4701.45
494.605	4644.11
494.808	4730.13
495.012	4642.06
495.215	4732.17
495.419	4986.12
495.622	4746.51
495.825	4814.09
496.029	5092.62
496.232	5045.51
496.436	5061.9
496.639	5262.6
496.843	5057.8
497.046	5313.8
497.249	5344.52
497.453	5143.81
497.656	5328.13
497.859	5225.73
498.063	5338.37
498.266	5614.85
498.469	5410.05
498.673	5559.55
498.876	5592.32
499.079	5580.03
499.282	5616.9
499.485	5973.24
499.689	5778.69
499.892	6001.91
500.095	6063.35
500.298	5958.91
500.501	5942.52
500.705	6124.79
500.908	6169.85
501.111	6341.88
501.314	6401.27
501.517	6477.04
501.72	6458.61
501.923	6563.06
502.126	6620.4
502.329	6620.4
502.532	6853.87
502.735	6864.11
502.938	6950.12
503.141	6935.79
503.344	7034.09
503.547	6978.79
503.75	7320.81
503.953	7216.36
504.156	7255.27
504.359	7533.79
504.562	7591.14
504.765	7660.77
504.968	7746.78
505.17	7736.54
505.373	7965.92
505.576	7990.49
505.779	7978.2
505.982	8121.56
506.185	8365.27
506.387	8230.1
506.59	8330.45
506.793	8594.64
506.996	8479.96
507.198	8690.9
507.401	8733.9
507.604	8699.09
507.807	8985.8
508.009	8922.32
508.212	9139.4
508.415	9022.67
508.617	9231.56
508.82	9327.81
509.022	9211.08
509.225	9546.95
509.428	9776.32
509.63	9716.93
509.833	9704.64
510.035	10052.8
510.238	9895.1
510.44	10022.08
510.643	10077.37
510.845	10255.54
511.048	10290.36
511.25	10462.39
511.453	10347.7
511.655	10894.51
511.858	10857.65
512.06	10814.64
512.262	11011.25
512.465	11173.03
512.667	11478.18
512.87	11568.29
513.072	11500.71
513.274	11717.79
513.477	11703.46
513.679	11619.49
513.881	12027.04
514.084	12094.62
514.286	12192.92
514.488	12104.86
514.69	12668.05
514.893	12686.48
515.095	12911.76
515.297	12649.62
515.499	12754.07
515.701	12887.18
515.904	12893.33
516.106	13214.86
516.308	13397.13
516.51	13493.38
516.712	13393.03
516.914	13814.91
517.116	13882.5
517.318	14034.05
517.52	14013.57
517.722	14247.04
517.925	14328.95
518.127	14558.33
518.329	14613.62
518.531	14552.18
518.733	15103.09
518.935	15080.56
519.136	15340.65
519.338	15518.82
519.54	15354.99
519.742	15574.12
519.944	15924.32
520.146	16131.17
520.348	15889.51
520.55	16176.22
520.752	16469.08
520.954	16469.08
521.155	16401.5
521.357	16809.04
521.559	16911.44
521.761	17017.94
521.963	16835.67
522.164	17294.41
522.366	17531.98
522.568	17568.84
522.77	17497.16
522.971	17761.35
523.173	17923.14
523.375	18142.27
523.576	17953.86
523.778	18197.57
523.98	18369.6
524.181	18629.69
524.383	18472
524.584	18658.36
524.786	18850.87
524.988	18895.92
525.189	19113.01
525.391	19070
525.592	19369.01
525.794	19383.34
525.995	19813.41
526.197	19495.98
526.398	19881
526.6	19971.11
526.801	19639.34
527.003	20106.27
527.204	19995.68
527.406	20120.61
527.607	20161.57
527.808	20239.39
528.01	20423.71
528.211	20382.75
528.412	20900.89
528.614	20675.61
528.815	20673.56
529.016	20986.9
529.218	21087.25
529.419	20968.47
529.62	21201.94
529.822	21011.48
530.023	21109.78
530.224	21351.44
530.425	21283.86
530.626	21277.71
530.828	21431.31
531.029	21423.12
531.23	21339.15
531.431	21515.28
531.632	21615.63
531.833	21816.33
532.035	21632.01
532.236	21486.61
532.437	21939.21
532.638	21756.94
532.839	21744.65
533.04	21910.53
533.241	21470.22
533.442	22092.8
533.643	21939.21
533.844	21971.97
534.045	22127.62
534.246	21978.12
534.447	22342.66
534.648	21963.78
534.849	22266.88
535.05	21892.1
535.251	22141.96
535.451	21988.36
535.652	22152.2
535.853	22197.25
536.054	22184.96
536.255	22303.74
536.456	22277.12
536.657	22539.26
536.857	22268.93
537.058	22053.89
537.259	22359.04
537.46	22381.57
537.66	22154.24
537.861	22422.53
538.062	22045.7
538.263	22273.03
538.463	22017.03
538.664	22256.64
538.865	22541.31
539.065	22707.19
539.266	22131.72
539.466	22471.68
539.667	21920.77
539.868	22426.62
540.068	22449.15
540.269	22307.84
540.469	22440.96
540.67	22334.46
540.87	22361.09
541.071	22111.24
541.271	22027.27
541.472	22258.69
541.672	22101
541.873	22051.84
542.073	21928.97
542.274	22299.65
542.474	22160.39
542.675	21922.82
542.875	22606.84
543.075	22074.37
543.276	22014.98
543.476	22156.29
543.676	22387.71
543.877	22309.89
544.077	22248.45
544.277	22033.41
544.478	22217.73
544.678	22209.54
544.878	22260.74
545.078	22191.11
545.279	22004.74
545.479	22131.72
545.679	22273.03
545.879	22180.87
546.079	22156.29
546.28	21945.35
546.48	22008.84
546.68	22092.8
546.88	22268.93
547.08	22066.18
547.28	22096.9
547.48	21853.19
547.68	21830.66
547.88	21842.95
548.081	22350.85
548.281	22115.33
548.481	21947.4
548.681	22420.48
548.881	22092.8
549.081	22297.6
549.28	21785.61
549.48	22039.56
549.68	22244.35
549.88	22481.92
550.08	22019.08
550.28	22371.33
550.48	22127.62
550.68	22436.86
550.88	21888.01
551.08	22141.96
551.279	22174.72
551.479	21885.96
551.679	22346.75
551.879	21920.77
552.079	22268.93
552.278	21824.52
552.478	21982.21
552.678	21916.68
552.878	22383.62
553.077	21824.52
553.277	21814.28
553.477	22207.49
553.676	21980.17
553.876	21914.63
554.076	21984.26
554.275	21789.7
554.475	21603.34
554.674	21640.2
554.874	21769.23
555.074	21928.97
555.273	21703.69
555.473	21830.66
555.672	21439.5
555.872	21636.11
556.071	21679.11
556.271	22039.56
556.47	21740.55
556.67	21763.08
556.869	21449.74
557.068	21416.97
557.268	21502.99
557.467	21488.65
557.667	21261.33
557.866	21447.69
558.065	21351.44
558.265	21515.28
558.464	20915.22
558.663	21226.51
558.863	20935.7
559.062	21494.8
559.261	21134.35
559.461	21253.14
559.66	21122.07
559.859	21111.83
560.058	20868.12
560.258	20980.76
560.457	20923.41
560.656	20958.23
560.855	20724.76
561.054	20999.19
561.253	20784.15
561.453	20675.61
561.652	20700.19
561.851	20853.78
562.05	20556.83
562.249	20489.24
562.448	20409.37
562.647	20311.07
562.846	20468.76
563.045	20458.53
563.244	20266.02
563.443	20485.15
563.642	19962.92
563.841	20493.34
564.04	19782.7
564.239	20446.24
564.438	19762.22
564.637	19817.51
564.836	19897.38
565.035	19674.15
565.234	19885.09
565.432	19551.27
565.631	19555.37
565.83	19645.48
566.029	19551.27
566.228	19340.33
566.427	19565.61
566.625	19522.6
566.824	19141.68
567.023	19442.73
567.222	18994.23
567.42	19125.3
567.619	19145.78
567.818	19057.71
568.016	19022.9
568.215	19092.53
568.414	18510.91
568.612	19235.89
568.811	18930.74
569.01	18621.5
569.208	18459.71
569.407	18523.19
569.605	18279.49
569.804	18498.62
570.002	18203.71
570.201	18369.6
570.4	18168.9
570.598	18091.07
570.797	18058.31
570.995	18048.07
571.193	17509.45
571.392	18246.72
571.59	17708.1
571.789	17761.35
571.987	17943.62
572.186	17900.61
572.384	17681.48
572.582	17738.82
572.781	17638.47
572.979	17460.3
573.177	17816.65
573.376	17558.6
573.574	17448.01
573.772	17577.03
573.971	17118.29
574.169	17226.83
574.367	17171.54
574.565	17165.39
574.763	16962.64
574.962	17038.42
575.16	16694.36
575.358	16893.01
575.556	16528.47
575.754	16997.46
575.952	16618.58
576.151	16925.78
576.349	16565.34
576.547	16731.22
576.745	16487.51
576.943	16510.04
577.141	16368.73
577.339	15983.71
577.537	16395.36
577.735	16364.64
577.933	16147.55
578.131	16292.96
578.329	16059.49
578.527	15860.84
578.725	16024.67
578.923	15985.76
579.121	15909.99
579.319	15805.54
579.516	16174.17
579.714	15727.72
579.912	15543.4
580.11	15795.3
580.308	15594.6
580.506	15404.14
580.704	15559.78
580.901	15502.44
581.099	15510.63
581.297	15305.84
581.495	15363.18
581.692	15285.36
581.89	15221.87
582.088	15332.46
582.285	15209.58
582.483	15242.35
582.681	15035.5
582.878	14836.85
583.076	15074.42
583.274	14892.15
583.471	14664.82
583.669	14871.67
583.866	14783.6
584.064	14867.57
584.262	14417.02
584.459	14642.29
584.657	14498.94
584.854	14748.79
585.052	14513.27
585.249	14607.48
585.447	14500.98
585.644	14451.83
585.841	14396.54
586.039	14292.09
586.236	14386.3
586.434	14138.49
586.631	14224.51
586.828	14068.86
587.026	14134.4
587.223	13929.6
587.42	14068.86
587.618	13943.94
587.815	13735.04
588.012	14089.34
588.21	13831.3
588.407	13886.59
588.604	13816.96
588.801	13685.89
588.999	13560.97
589.196	13616.26
589.393	13685.89
589.59	13782.15
589.787	13659.27
589.984	13374.6
590.182	13325.45
590.379	13538.44
590.576	13335.69
590.773	13141.13
590.97	13180.04
591.167	13124.75
591.364	13106.32
591.561	13175.95
591.758	13245.58
591.955	13112.46
592.152	13288.59
592.349	12893.33
592.546	12872.85
592.743	13126.8
592.94	12672.15
593.137	12952.72
593.334	12911.76
593.531	12727.44
593.727	12905.62
593.924	12872.85
594.121	12428.44
594.318	12573.85
594.515	12770.45
594.712	12498.07
594.908	12379.29
595.105	12442.78
595.302	12385.43
595.499	12321.95
595.696	12332.19
595.892	12119.2
596.089	12254.36
596.286	12178.59
596.482	12106.91
596.679	12149.92
596.876	12018.85
597.072	12035.23
597.269	12192.92
597.466	12113.05
597.662	12135.58
597.859	11787.43
598.055	11912.35
598.252	11762.85
598.448	11840.67
598.645	11881.63
598.841	11601.06
599.038	11564.2
599.234	11834.53
599.431	11725.99
599.627	11648.16
599.824	11787.43
600.02	11547.81
600.217	11443.37
600.413	11664.55
600.609	11519.14
600.806	11324.58
601.002	11379.88
601.198	11027.63
601.395	11291.82
601.591	11269.29
601.787	11248.81
601.984	10931.37
602.18	11156.65
602.376	11226.28
602.572	10851.5
602.769	10949.81
602.965	10978.48
603.161	11023.53
603.357	11136.17
603.553	10857.65
603.75	10857.65
603.946	10802.35
604.142	10978.48
604.338	10663.09
604.534	10740.91
604.73	10667.19
604.926	10550.45
605.122	10742.96
605.318	10589.36
605.514	10419.38
605.71	10517.68
605.906	10568.88
606.102	10427.57
606.298	10351.8
606.494	10517.68
606.69	10618.04
606.886	10636.47
607.082	10220.73
607.278	10280.12
607.474	10265.78
607.67	10284.22
607.866	10247.35
608.062	10333.37
608.257	10214.59
608.453	10403
608.649	10278.07
608.845	9921.73
609.041	10009.79
609.236	10104
609.432	10048.7
609.628	9915.58
609.824	9960.64
610.019	10052.8
610.215	9850.05
610.411	9886.91
610.606	9884.86
610.802	10036.41
610.998	9788.61
611.193	10030.27
611.389	9850.05
611.584	9675.97
611.78	9809.09
611.976	9888.96
612.171	9983.17
612.367	9936.06
612.562	9434.31
612.758	9639.11
612.953	9436.36
613.149	9743.55
613.344	9405.64
613.539	9706.69
613.735	9563.33
613.93	9526.47
614.126	9528.52
614.321	9678.02
614.517	9321.67
614.712	9532.61
614.907	9297.1
615.103	9436.36
615.298	9448.65
615.493	9393.35
615.688	9417.93
615.884	9598.15
616.079	9452.74
616.274	9487.56
616.47	9194.7
616.665	9252.04
616.86	9243.85
617.055	9309.38
617.25	9221.32
617.445	9256.14
617.641	9063.63
617.836	9143.5
618.031	9069.77
618.226	9032.91
618.421	8979.66
618.616	8971.47
618.811	8828.11
619.006	9012.43
619.201	8932.56
619.396	8776.91
619.591	8729.81
619.786	8961.23
619.981	8623.31
620.176	8809.68
620.371	8518.87
620.566	8674.51
620.761	8494.29
620.956	8729.81
621.151	8678.61
621.346	8615.12
621.541	8475.86
621.735	8826.06
621.93	8283.35
622.125	8350.93
622.32	8193.24
622.515	8260.82
622.709	8318.17
622.904	8119.51
623.099	8195.29
623.294	8221.91
623.488	8137.95
623.683	8109.27
623.878	7929.05
624.072	7785.69
624.267	7904.48
624.462	7795.93
624.656	7679.2
624.851	7808.22
625.046	7777.5
625.24	7754.97
625.435	7695.58
625.629	7709.92
625.824	7589.09
626.018	7453.92
626.213	7421.16
626.407	7406.82
626.602	7242.98
626.796	7351.53
626.991	7486.69
627.185	7156.97
627.38	7314.66
627.574	7312.61
627.768	7226.6
627.963	6943.98
628.157	7032.04
628.352	7025.9
628.546	7066.86
628.74	7036.14
628.935	6814.96
629.129	7003.37
629.323	6993.13
629.517	6839.53
629.712	6876.4
629.906	7077.1
630.1	6806.77
630.294	6821.1
630.489	6481.14
630.683	6784.24
630.877	6497.52
631.071	6606.06
631.265	6538.48
631.459	6419.7
631.653	6552.82
631.848	6505.71
632.042	6229.24
632.236	6358.26
632.43	6397.17
632.624	6419.7
632.818	6477.04
633.012	6284.53
633.206	6094.07
633.4	6290.68
633.594	6120.7
633.788	6055.16
633.982	6124.79
634.176	6130.94
634.369	5870.84
634.563	5928.19
634.757	5936.38
634.951	5958.91
635.145	5958.91
635.339	5905.66
635.533	5971.19
635.726	5971.19
635.92	5688.57
636.114	5760.25
636.308	5731.58
636.501	5752.06
636.695	5637.38
636.889	5625.09
637.083	5532.93
637.276	5315.84
637.47	5571.84
637.664	5451.01
637.857	5590.27
638.051	5569.79
638.244	5455.11
638.438	5481.73
638.632	5201.16
638.825	5516.55
639.019	5242.12
639.212	5346.56
639.406	5121.29
639.599	5162.25
639.793	5186.82
639.986	5053.7
640.18	5188.87
640.373	5063.94
640.567	5117.19
640.76	4955.4
640.954	5125.38
641.147	4959.5
641.34	4943.11
641.534	4799.76
641.727	4916.49
641.92	4861.2
642.114	4785.42
642.307	4818.19
642.5	4844.81
642.694	4674.83
642.887	4719.89
643.08	4781.32
643.273	4703.5
643.467	4777.23
643.66	4629.77
643.853	4431.12
644.046	4726.03
644.239	4510.99
644.432	4506.9
644.626	4461.84
644.819	4562.19
645.012	4570.38
645.205	4574.48
645.398	4433.17
645.591	4381.97
645.784	4445.46
645.977	4474.13
646.17	4306.2
646.363	4318.48
646.556	4087.06
646.749	4085.01
646.942	4328.72
647.135	4138.26
647.328	4203.8
647.521	4107.54
647.714	4234.52
647.907	4078.87
648.099	4044.06
648.292	4056.34
648.485	4142.36
648.678	4011.29
648.871	4054.3
649.064	4068.63
649.256	4013.34
649.449	4042.01
649.642	3984.66
649.835	4031.77
650.027	3745.05
650.22	3935.51
650.413	3788.06
650.605	3929.37
650.798	3851.55
650.991	3861.79
651.183	3872.03
651.376	3738.91
651.568	3816.73
651.761	3777.82
651.954	3683.61
652.146	3661.09
652.339	3687.71
652.531	3745.05
652.724	3659.04
652.916	3585.31
653.109	3450.14
653.301	3616.03
653.494	3544.35
653.686	3521.82
653.879	3648.8
654.071	3513.63
654.263	3409.19
654.456	3456.29
654.648	3470.62
654.84	3611.93
655.033	3409.19
655.225	3454.24
655.417	3355.94
655.61	3362.08
655.802	3321.12
655.994	3290.4
656.186	3329.31
656.379	3323.17
656.571	3310.88
656.763	3249.44
656.955	3333.41
657.148	3286.31
657.34	3345.7
657.532	3175.72
657.724	3179.81
657.916	3222.82
658.108	3159.33
658.3	3140.9
658.492	3022.12
658.684	3228.96
658.876	3101.99
659.068	3085.61
659.26	3013.93
659.452	3003.69
659.644	3034.41
659.836	2983.21
660.028	2975.02
660.22	3040.55
660.412	2956.58
660.604	2911.53
660.796	2884.91
660.988	2932.01
661.18	2964.78
661.372	2843.95
661.563	2858.28
661.755	2923.82
661.947	2897.19
662.139	2923.82
662.331	2817.32
662.522	2768.17
662.714	2776.36
662.906	2878.76
663.097	2757.93
663.289	2577.71
663.481	2673.96
663.673	2850.09
663.864	2792.75
664.056	2835.75
664.247	2729.26
664.439	2628.91
664.631	2903.34
664.822	2753.84
665.014	2759.98
665.205	2768.17
665.397	2753.84
665.588	2622.77
665.78	2647.34
665.971	2563.37
666.163	2628.91
666.354	2749.74
666.546	2698.54
666.737	2620.72
666.929	2655.53
667.12	2612.53
667.311	2532.65
667.503	2540.85
667.694	2528.56
667.885	2540.85
668.077	2454.83
668.268	2514.22
668.459	2471.22
668.651	2370.87
668.842	2372.91
669.033	2397.49
669.224	2442.54
669.416	2567.47
669.607	2477.36
669.798	2442.54
669.989	2407.73
670.18	2424.11
670.371	2430.26
670.563	2329.91
670.754	2360.63
670.945	2350.39
671.136	2385.2
671.327	2438.45
671.518	2450.74
671.709	2401.58
671.9	2448.69
672.091	2379.06
672.282	2448.69
672.473	2245.94
672.664	2362.67
672.855	2362.67
673.046	2389.3
673.237	2286.9
673.428	2366.77
673.619	2342.19
673.809	2315.57
674	2323.76
674.191	2338.1
674.382	2383.15
674.573	2192.69
674.764	2362.67
674.954	2409.78
675.145	2334
675.336	2340.15
675.527	2184.5
675.717	2428.21
675.908	2303.28
676.099	2252.08
676.289	2295.09
676.48	2327.86
676.671	2211.12
676.861	2209.08
677.052	2204.98
677.243	2260.27
677.433	2266.42
677.624	2268.47
677.814	2260.27
678.005	2338.1
678.195	2266.42
678.386	2164.02
678.576	2276.66
678.767	2188.6
678.957	2274.61
679.148	2297.14
679.338	2204.98
679.529	2243.89
679.719	2151.73
679.909	2307.38
680.1	2295.09
680.29	2235.7
680.481	2127.16
680.671	2327.86
680.861	2233.65
681.052	2299.19
681.242	2204.98
681.432	2286.9
681.622	2317.62
681.813	2192.69
682.003	2190.64
682.193	2178.36
682.383	2211.12
682.573	2157.88
682.764	2118.96
682.954	2313.52
683.144	2186.55
683.334	2276.66
683.524	2155.83
683.714	2239.8
683.904	2155.83
684.094	2241.84
684.284	2190.64
684.474	2202.93
684.664	2297.14
684.854	2307.38
685.044	2129.2
685.234	2250.03
685.424	2147.64
685.614	2202.93
685.804	2204.98
685.994	2114.87
686.184	2166.07
686.374	2184.5
686.564	2051.38
686.753	2178.36
686.943	2190.64
687.133	2172.21
687.323	2069.81
687.513	2196.79
687.702	2096.44
687.892	2004.28
688.082	2073.91
688.272	1991.99
688.461	2102.58
688.651	1998.13
688.841	2067.77
689.03	2055.48
689.22	1981.75
689.41	2086.2
689.599	1983.8
689.789	2065.72
689.979	2065.72
690.168	2024.76
690.358	1889.59
690.547	2024.76
690.737	2006.33
690.926	1826.11
691.116	1926.46
691.305	1991.99
691.495	1938.74
691.684	1860.92
691.874	2012.47
692.063	1885.5
692.252	1951.03
692.442	1887.54
692.631	1822.01
692.82	1834.3
693.01	1793.34
693.199	1758.52
693.388	1770.81
693.578	1871.16
693.767	1905.98
693.956	1901.88
694.146	1850.68
694.335	1860.92
694.524	1764.67
694.713	1944.89
694.902	1815.87
695.092	1860.92
695.281	1781.05
695.47	1781.05
695.659	1860.92
695.848	1721.66
696.037	1799.48
696.226	1824.06
696.415	1676.6
696.604	1873.21
696.793	1819.96
696.982	1748.28
697.171	1799.48
697.36	1742.14
697.549	1828.15
697.738	1826.11
697.927	1795.39
698.116	1715.52
698.305	1807.67
698.494	1615.16
698.683	1748.28
698.872	1701.18
699.061	1740.09
699.25	1709.37
699.438	1709.37
699.627	1791.29
699.816	1824.06
700.005	1733.95
700.193	1760.57
700.382	1678.65
700.571	1670.46
700.76	1797.43
700.948	1762.62
701.137	1799.48
701.326	1873.21
701.514	1832.25
701.703	1735.99
701.892	1678.65
702.08	1756.47
702.269	1766.71
702.457	1682.75
702.646	1699.13
702.834	1750.33
703.023	1791.29
703.212	1764.67
703.4	1844.54
703.589	1688.89
703.777	1914.17
703.965	1725.75
704.154	1781.05
704.342	1727.8
704.531	1774.91
704.719	1822.01
704.907	1838.39
705.096	1729.85
705.284	1752.38
705.472	1770.81
705.661	1842.49
705.849	1795.39
706.037	1779
706.226	1834.3
706.414	1865.02
706.602	1793.34
706.79	1842.49
706.979	1731.9
707.167	1807.67
707.355	1844.54
707.543	1819.96
707.731	1834.3
707.919	1858.87
708.107	1819.96
708.296	1856.82
708.484	1875.26
708.672	1758.52
708.86	1787.19
709.048	1760.57
709.236	1879.35
709.424	1832.25
709.612	1807.67
709.8	1844.54
709.988	1803.58
710.176	1889.59
710.364	1936.7
710.551	1903.93
710.739	1832.25
710.927	1946.94
711.115	1813.82
711.303	1795.39
711.491	1805.63
711.679	1826.11
711.866	1824.06
712.054	1977.66
712.242	1989.94
712.43	1971.51
712.617	1881.4
712.805	1893.69
712.993	1856.82
713.181	1891.64
713.368	1813.82
713.556	1838.39
713.744	1938.74
713.931	1965.37
714.119	1824.06
714.306	1961.27
714.494	1776.95
714.682	1889.59
714.869	1846.59
715.057	2030.9
715.244	1934.65
715.432	2043.19
715.619	1936.7
715.807	1940.79
715.994	1948.98
716.182	1955.13
716.369	1953.08
716.556	1944.89
716.744	1973.56
716.931	1930.55
717.119	1953.08
717.306	1987.89
717.493	1832.25
717.681	2000.18
717.868	1991.99
718.055	2008.37
718.242	1961.27
718.43	1924.41
718.617	1987.89
718.804	1948.98
718.991	1981.75
719.179	1930.55
719.366	1957.18
719.553	1981.75
719.74	1922.36
719.927	2080.05
720.114	2032.95
720.301	2069.81
720.488	2157.88
720.676	2057.53
720.863	2084.15
721.05	2014.52
721.237	2082.1
721.424	2067.77
721.611	2043.19
721.798	2000.18
721.985	1998.13
722.172	2073.91
722.358	2080.05
722.545	2096.44
722.732	1985.85
722.919	2147.64
723.106	2125.11
723.293	2123.06
723.48	2114.87
723.667	2037.05
723.853	2014.52
724.04	2069.81
724.227	2024.76
724.414	2135.35
724.6	2080.05
724.787	2108.73
724.974	2112.82
725.161	2065.72
725.347	2123.06
725.534	2196.79
725.72	2164.02
725.907	2164.02
726.094	2188.6
726.28	2020.66
726.467	2290.99
726.653	2090.29
726.84	2110.77
727.027	2186.55
727.213	2078.01
727.4	2194.74
727.586	2186.55
727.773	2131.25
727.959	2143.54
728.145	2196.79
728.332	2106.68
728.518	2164.02
728.705	2225.46
728.891	2127.16
729.077	2135.35
729.264	2121.01
729.45	2219.32
729.636	2188.6
729.823	2239.8
730.009	2229.56
730.195	2166.07
730.382	2174.26
730.568	2213.17
730.754	2274.61
730.94	2317.62
731.126	2254.13
731.313	2258.23
731.499	2153.78
731.685	2223.41
731.871	2217.27
732.057	2188.6
732.243	2176.31
732.429	2250.03
732.615	2270.51
732.801	2157.88
732.987	2141.49
733.173	2295.09
733.359	2196.79
733.545	2209.08
733.731	2149.68
733.917	2321.71
734.103	2213.17
734.289	2274.61
734.475	2190.64
734.661	2288.95
734.847	2243.89
735.033	2270.51
735.219	2319.67
735.404	2262.32
735.59	2184.5
735.776	2151.73
735.962	2342.19
736.148	2422.06
736.333	2223.41
736.519	2237.75
736.705	2311.47
736.89	2258.23
737.076	2303.28
737.262	2176.31
737.447	2290.99
737.633	2178.36
737.819	2188.6
738.004	2243.89
738.19	2233.65
738.375	2194.74
738.561	2290.99
738.747	2200.88
738.932	2114.87
739.118	2204.98
739.303	2245.94
739.489	2268.47
739.674	2135.35
739.859	2149.68
740.045	2209.08
740.23	2233.65
740.416	2123.06
740.601	2207.03
740.786	2219.32
740.972	2225.46
741.157	2159.92
741.342	2086.2
741.528	2045.24
741.713	2270.51
741.898	2170.16
742.084	2176.31
742.269	2172.21
742.454	2272.56
742.639	2121.01
742.824	2149.68
743.01	2184.5
743.195	2075.96
743.38	2182.45
743.565	2233.65
743.75	2172.21
743.935	2084.15
744.12	2094.39
744.305	2084.15
744.49	1914.17
744.675	2174.26
744.86	2043.19
745.045	2157.88
745.23	2125.11
745.415	2059.57
745.6	2073.91
745.785	2049.33
745.97	2053.43
746.155	1981.75
746.34	1920.31
746.525	1946.94
746.71	1996.09
746.895	2004.28
747.079	1916.22
747.264	1869.11
747.449	2043.19
747.634	1930.55
747.819	1963.32
748.003	2010.42
748.188	1938.74
748.373	1832.25
748.557	1914.17
748.742	1815.87
748.927	1924.41
749.111	1842.49
749.296	1752.38
749.481	1862.97
749.665	1684.8
749.85	1813.82
750.034	1819.96
750.219	1758.52
750.404	1733.95
750.588	1805.63
750.773	1678.65
750.957	1643.84
751.141	1733.95
751.326	1703.23
751.51	1654.08
751.695	1652.03
751.879	1697.08
752.064	1690.94
752.248	1715.52
752.432	1580.35
752.617	1652.03
752.801	1516.86
752.985	1713.47
753.17	1660.22
753.354	1623.36
753.538	1631.55
753.722	1473.85
753.907	1537.34
754.091	1529.15
754.275	1527.1
754.459	1447.23
754.643	1469.76
754.828	1482.05
755.012	1527.1
755.196	1387.84
755.38	1445.18
755.564	1334.59
755.748	1363.26
755.932	1492.29
756.116	1512.77
756.3	1379.65
756.484	1492.29
756.668	1359.17
756.852	1385.79
757.036	1463.61
757.22	1332.55
757.404	1379.65
757.588	1285.44
757.772	1310.02
757.956	1379.65
758.14	1248.58
758.323	1307.97
758.507	1285.44
758.691	1295.68
758.875	1299.78
759.059	1346.88
759.242	1334.59
759.426	1314.11
759.61	1301.83
759.794	1252.67
759.977	1248.58
760.161	1342.78
760.345	1293.63
760.528	1211.71
760.712	1322.31
760.895	1234.24
761.079	1193.28
761.263	1236.29
761.446	1258.82
761.63	1228.1
761.813	1140.04
761.997	1121.6
762.18	1113.41
762.364	1094.98
762.547	1183.04
762.731	1183.04
762.914	1097.03
763.098	1105.22
763.281	1123.65
763.464	1144.13
763.648	1246.53
763.831	1137.99
764.015	1056.07
764.198	976.2
764.381	1131.84
764.564	1013.06
764.748	1017.16
764.931	1049.93
765.114	1015.11
765.297	1133.89
765.481	1000.77
765.664	1060.17
765.847	1185.09
766.03	994.63
766.213	1103.17
766.397	963.91
766.58	1117.51
766.763	1058.12
766.946	1008.97
767.129	1002.82
767.312	1082.69
767.495	1023.3
767.678	998.73
767.861	1060.17
768.044	888.14
768.227	970.05
768.41	937.29
768.593	939.34
768.776	976.2
768.959	972.1
769.142	884.04
769.324	963.91
769.507	1000.77
769.69	953.67
769.873	1033.54
770.056	957.77
770.239	947.53
770.421	1023.3
770.604	939.34
770.787	937.29
770.97	945.48
771.152	892.23
771.335	838.98
771.518	931.14
771.7	900.42
771.883	916.81
772.066	841.03
772.248	849.22
772.431	900.42
772.613	845.13
772.796	812.36
772.978	861.51
773.161	851.27
773.343	720.2
773.526	785.74
773.708	787.79
773.891	810.31
774.073	744.78
774.256	816.46
774.438	816.46
774.621	800.07
774.803	810.31
774.985	716.11
775.168	767.31
775.35	810.31
775.532	724.3
775.715	783.69
775.897	769.35
776.079	843.08
776.261	736.59
776.444	697.67
776.626	687.43
776.808	673.1
776.99	693.58
777.173	617.8
777.355	671.05
777.537	722.25
777.719	646.48
777.901	660.81
778.083	609.61
778.265	640.33
778.447	699.72
778.629	679.24
778.811	687.43
778.993	673.1
779.175	630.09
779.357	611.66
779.539	617.8
779.721	546.12
779.903	617.8
780.085	550.22
780.267	701.77
780.449	615.76
780.631	570.7
780.812	558.41
780.994	630.09
781.176	582.99
781.358	558.41
781.54	531.79
781.721	556.36
781.903	542.03
782.085	539.98
782.267	593.23
782.448	527.69
782.63	568.65
782.812	562.51
782.993	501.07
783.175	474.45
783.357	421.2
783.538	517.45
783.72	546.12
783.901	517.45
784.083	562.51
784.264	439.63
784.446	468.3
784.627	499.02
784.809	427.34
784.99	429.39
785.172	544.08
785.353	542.03
785.535	427.34
785.716	486.73
785.897	384.34
786.079	439.63
786.26	509.26
786.441	480.59
786.623	419.15
786.804	513.36
786.985	394.58
787.167	468.3
787.348	341.33
787.529	363.86
787.71	421.2
787.891	494.93
788.073	378.19
788.254	349.52
788.435	400.72
788.616	431.44
788.797	329.04
788.978	431.44
789.159	382.29
789.34	378.19
789.522	384.34
789.703	331.09
789.884	415.05
790.065	400.72
790.246	423.25
790.427	320.85
790.607	410.96
790.788	390.48
790.969	259.41
791.15	400.72
791.331	318.8
791.512	370
791.693	329.04
791.874	351.57
792.054	337.23
792.235	394.58
792.416	300.37
792.597	302.42
792.778	306.51
792.958	271.7
793.139	296.27
793.32	318.8
793.5	243.03
793.681	367.95
793.862	384.34
794.042	365.9
794.223	279.89
794.404	304.46
794.584	267.6
794.765	281.94
794.945	324.94
795.126	322.9
795.306	279.89
795.487	290.13
795.667	255.31
795.848	320.85
796.028	265.55
796.209	259.41
796.389	261.46
796.57	329.04
796.75	300.37
796.93	283.98
797.111	279.89
797.291	236.88
797.471	300.37
797.652	269.65
797.832	197.97
798.012	292.18
798.192	234.83
798.373	251.22
798.553	163.15
798.733	189.78
798.913	339.28
799.093	273.75
799.274	220.5
799.454	210.26
799.634	173.39
799.814	236.88
799.994	204.11
800.174	245.07
800.354	216.4
800.534	220.5
800.714	290.13
800.894	236.88
801.074	261.46
801.254	218.45
801.434	232.79
801.614	181.59
801.794	230.74
801.974	595.28
802.154	267.6
802.334	275.79
802.514	206.16
802.693	134.48
802.873	220.5
803.053	212.31
803.233	148.82
803.413	165.2
803.592	230.74
803.772	140.63
803.952	152.91
804.131	142.68
804.311	202.07
804.491	281.94
804.67	255.31
804.85	269.65
805.03	146.77
805.209	238.93
805.389	165.2
805.568	191.83
805.748	202.07
805.928	214.35
806.107	234.83
806.287	144.72
806.466	226.64
806.646	132.44
806.825	173.39
807.004	195.92
807.184	189.78
807.363	200.02
807.543	142.68
807.722	169.3
807.901	103.76
808.081	238.93
808.26	99.67
808.439	181.59
808.619	105.81
808.798	142.68
808.977	193.87
809.156	154.96
809.336	191.83
809.515	228.69
809.694	144.72
809.873	226.64
810.052	208.21
810.231	128.34
810.411	146.77
810.59	224.59
810.769	154.96
810.948	118.1
811.127	152.91
811.306	163.15
811.485	189.78
811.664	175.44
811.843	232.79
812.022	161.11
812.201	114
812.38	101.72
812.559	101.72
812.737	183.63
812.916	171.35
813.095	150.87
813.274	114
813.453	197.97
813.632	126.29
813.811	142.68
813.989	81.24
814.168	148.82
814.347	124.24
814.526	124.24
814.704	150.87
814.883	150.87
815.062	52.56
815.24	128.34
815.419	71
815.598	154.96
815.776	109.91
815.955	114
816.133	179.54
816.312	204.11
816.49	79.19
816.669	120.15
816.847	169.3
817.026	183.63
817.204	85.33
817.383	152.91
817.561	157.01
817.74	62.8
817.918	120.15
818.097	150.87
818.275	93.52
818.453	154.96
818.632	124.24
818.81	134.48
818.988	68.95
819.167	122.2
819.345	97.62
819.523	152.91
819.701	132.44
819.879	173.39
820.058	93.52
820.236	136.53
820.414	91.48
820.592	118.1
820.77	77.14
820.948	91.48
821.127	140.63
821.305	105.81
821.483	111.96
821.661	124.24
821.839	120.15
822.017	25.94
822.195	128.34
822.373	146.77
822.551	105.81
822.729	140.63
822.907	87.38
823.085	152.91
823.262	114
823.44	138.58
823.618	83.28
823.796	105.81
823.974	97.62
824.152	66.9
824.329	148.82
824.507	128.34
824.685	99.67
824.863	21.85
825.04	81.24
825.218	165.2
825.396	3.41
825.574	85.33
825.751	109.91
825.929	87.38
826.107	97.62
826.284	93.52
826.462	165.2
826.639	120.15
826.817	50.52
826.994	142.68
827.172	91.48
827.349	46.42
827.527	83.28
827.704	58.71
827.882	58.71
828.059	40.28
828.237	114
828.414	58.71
828.591	11.61
828.769	15.7
828.946	95.57
829.124	95.57
829.301	50.52
829.478	120.15
829.655	91.48
829.833	46.42
830.01	34.13
830.187	60.76
830.364	105.81
830.542	107.86
830.719	169.3
830.896	68.95
831.073	42.32
831.25	71
831.427	54.61
831.604	83.28
831.782	25.94
831.959	75.09
832.136	87.38
832.313	83.28
832.49	38.23
832.667	138.58
832.844	1.37
833.021	134.48
833.198	73.04
833.374	-2.73
833.551	40.28
833.728	103.76
833.905	50.52
834.082	68.95
834.259	9.56
834.436	58.71
834.612	40.28
834.789	79.19
834.966	83.28
835.143	114
835.319	-45.74
835.496	150.87
835.673	38.23
835.85	81.24
836.026	154.96
836.203	75.09
836.38	27.99
836.556	56.66
836.733	15.7
836.909	19.8
837.086	77.14
837.262	46.42
837.439	25.94
837.616	27.99
837.792	87.38
837.968	52.56
838.145	30.04
838.321	46.42
838.498	58.71
838.674	148.82
838.851	-6.83
839.027	7.51
839.203	50.52
839.38	71
839.556	1.37
839.732	40.28
839.909	71
840.085	52.56
840.261	73.04
840.437	42.32
840.614	50.52
840.79	116.05
840.966	48.47
841.142	85.33
841.318	54.61
841.494	40.28
841.671	75.09
841.847	-33.45
842.023	56.66
842.199	11.61
842.375	23.89
842.551	-4.78
842.727	7.51
842.903	130.39
843.079	11.61
843.255	79.19
843.431	-0.68
843.607	58.71
843.783	75.09
843.959	79.19
844.134	-15.02
844.31	38.23
844.486	-45.74
844.662	9.56
844.838	-19.11
845.013	25.94
845.189	48.47
845.365	21.85
845.541	21.85
845.716	21.85
845.892	42.32
846.068	32.08
846.244	-15.02
846.419	3.41
846.595	1.37
846.77	23.89
846.946	99.67
847.122	50.52
847.297	40.28
847.473	58.71
847.648	87.38
847.824	91.48
847.999	17.75
848.175	60.76
848.35	60.76
848.526	68.95
848.701	44.37
848.876	103.76
849.052	66.9
849.227	5.46
849.403	34.13
849.578	36.18
849.753	50.52
849.929	71
850.104	-23.21
850.279	23.89
850.454	-10.92
850.63	7.51
850.805	19.8
850.98	42.32
851.155	-15.02
851.33	48.47
851.505	7.51
851.681	-25.26
851.856	-80.55
852.031	77.14
852.206	46.42
852.381	-17.07
852.556	54.61
852.731	38.23
852.906	-31.4
853.081	60.76
853.256	42.32
853.431	34.13
853.606	85.33
853.781	15.7
853.956	50.52
854.131	56.66
854.305	11.61
854.48	9.56
854.655	62.8
854.83	15.7
855.005	15.7
855.18	58.71
855.354	32.08
855.529	40.28
855.704	23.89
855.879	54.61
856.053	-6.83
856.228	73.04
856.403	32.08
856.577	32.08
856.752	50.52
856.926	27.99
857.101	5.46
857.276	34.13
857.45	120.15
857.625	75.09
857.799	23.89
857.974	34.13
858.148	15.7
858.323	17.75
858.497	25.94
858.672	-15.02
858.846	36.18
859.02	-53.93
859.195	-29.35
859.369	5.46
859.543	19.8
859.718	30.04
859.892	46.42
860.066	-55.98
860.241	-35.5
860.415	64.85
860.589	-49.83
860.763	13.65
860.938	-6.83
861.112	66.9
861.286	-23.21
861.46	15.7
861.634	-35.5
861.808	-41.64
861.982	21.85
862.157	15.7
862.331	21.85
862.505	-39.59
862.679	-27.31
862.853	17.75
863.027	-15.02
863.201	-12.97
863.375	21.85
863.549	66.9
863.722	15.7
863.896	17.75
864.07	19.8
864.244	73.04
864.418	36.18
864.592	5.46
864.766	48.47
864.939	-8.87
865.113	54.61
865.287	5.46
865.461	-51.88
865.634	15.7
865.808	75.09
865.982	-8.87
866.156	-0.68
866.329	27.99
866.503	7.51
866.676	64.85
866.85	-31.4
867.024	66.9
867.197	50.52
867.371	-8.87
867.544	-60.07
867.718	-51.88
867.891	58.71
868.065	42.32
868.238	-21.16
868.412	75.09
868.585	21.85
868.759	23.89
868.932	-25.26
869.105	-19.11
869.279	93.52
869.452	-25.26
869.625	1.37
869.799	32.08
869.972	-101.03
870.145	-17.07
870.319	-39.59
870.492	-17.07
870.665	-33.45
870.838	13.65
871.011	7.51
871.185	36.18
871.358	-76.46
871.531	1.37
871.704	-10.92
871.877	52.56
872.05	-21.16
872.223	-49.83
872.396	17.75
872.569	17.75
872.742	-33.45
872.915	-4.78
873.088	11.61
873.261	-15.02
873.434	-19.11
873.607	40.28
873.78	68.95
873.953	17.75
874.126	-62.12
874.299	34.13
874.471	-64.17
874.644	38.23
874.817	23.89
874.99	44.37
875.163	-33.45
875.335	73.04
875.508	-58.03
875.681	38.23
875.853	-47.79
876.026	-12.97
876.199	56.66
876.371	42.32
876.544	-51.88
876.717	-21.16
876.889	-92.84
877.062	75.09
877.234	-78.51
877.407	-45.74
877.579	30.04
877.752	62.8
877.924	-49.83
878.097	-10.92
878.269	40.28
878.442	-35.5
878.614	-10.92
878.786	27.99
878.959	36.18
879.131	-29.35
879.303	-41.64
879.476	44.37
879.648	83.28
879.82	71
879.993	-25.26
880.165	-17.07
880.337	21.85
880.509	15.7
880.681	-49.83
880.854	-35.5
881.026	-10.92
881.198	32.08
881.37	-131.75
881.542	-0.68
881.714	-33.45
881.886	-10.92
882.058	1.37
882.23	19.8
882.402	7.51
882.574	-4.78
882.746	46.42
882.918	-12.97
883.09	-33.45
883.262	-4.78
883.434	46.42
883.606	34.13
883.778	-10.92
883.95	-0.68
884.122	-35.5
884.293	-15.02
884.465	-47.79
884.637	48.47
884.809	-39.59
884.98	38.23
885.152	-4.78
885.324	-21.16
885.496	-17.07
885.667	-17.07
885.839	17.75
886.011	1.37
886.182	17.75
886.354	38.23
886.525	-45.74
886.697	15.7
886.869	-123.56
887.04	32.08
887.212	-4.78
887.383	21.85
887.555	-27.31
887.726	58.71
887.897	5.46
888.069	-78.51
888.24	-45.74
888.412	9.56
888.583	64.85
888.754	9.56
888.926	-68.27
889.097	19.8
889.268	-31.4
889.44	-78.51
889.611	-43.69
889.782	-6.83
889.953	-15.02
890.125	-23.21
890.296	-64.17
890.467	-2.73
890.638	13.65
890.809	11.61
890.98	-41.64
891.151	-53.93
891.323	101.72
891.494	11.61
891.665	-8.87
891.836	21.85
892.007	-21.16
892.178	-25.26
892.349	46.42
892.52	50.52
892.691	-17.07
892.862	54.61
893.032	-115.37
893.203	-41.64
893.374	-98.99
893.545	62.8
893.716	-58.03
893.887	-21.16
894.057	-4.78
894.228	-2.73
894.399	7.51
894.57	-21.16
894.74	-4.78
894.911	-53.93
895.082	15.7
895.253	64.85
895.423	1.37
895.594	34.13
895.764	-45.74
895.935	1.37
896.106	-47.79
896.276	-19.11
896.447	-29.35
896.617	9.56
896.788	-23.21
896.958	9.56
897.129	-8.87
897.299	17.75
897.47	25.94
897.64	17.75
897.81	-53.93
897.981	15.7
898.151	-27.31
898.322	1.37
898.492	9.56
898.662	7.51
898.832	-74.41
899.003	21.85
899.173	-0.68
899.343	-137.9
899.513	-80.55
