Data from USB4F104151__64__11-45-19-477.txt Node

Date: Fri Mar 14 11:45:19 EDT 2025
User: louis
Spectrometer: USB4F10415
Trigger mode: 4
Integration Time (sec): 2.000000E-2
Scans to average: 1
Electric dark correction enabled: true
Nonlinearity correction enabled: false
Boxcar width: 0
XAxis mode: Wavelengths
Number of Pixels in Spectrum: 3648
>>>>>Begin Spectral Data<<<<<
178.204	-52.74
178.424	-52.74
178.644	-52.74
178.864	-99.84
179.084	-46.59
179.304	12.8
179.524	14.85
179.744	0.51
179.964	23.04
180.184	10.75
180.404	-15.87
180.624	-1.54
180.844	-15.87
181.064	-11.78
181.283	39.42
181.503	-91.65
181.723	35.33
181.943	-11.78
182.163	-34.3
182.383	37.38
182.602	37.38
182.822	72.19
183.042	82.43
183.262	20.99
183.482	-3.58
183.701	80.38
183.921	-19.97
184.141	37.38
184.361	55.81
184.58	-52.74
184.8	90.62
185.02	55.81
185.239	33.28
185.459	-44.54
185.679	102.91
185.898	0.51
186.118	53.76
186.338	68.09
186.557	96.77
186.777	43.52
186.997	39.42
187.216	66.05
187.436	92.67
187.655	-19.97
187.875	-32.26
188.095	41.47
188.314	8.7
188.534	-34.3
188.753	33.28
188.973	8.7
189.192	37.38
189.412	-32.26
189.631	-34.3
189.851	10.75
190.07	64
190.29	47.62
190.509	-28.16
190.729	66.05
190.948	78.33
191.168	121.34
191.387	115.2
191.607	33.28
191.826	-65.02
192.045	-17.92
192.265	104.96
192.484	-38.4
192.704	76.29
192.923	25.09
193.142	74.24
193.362	-28.16
193.581	64
193.8	8.7
194.02	47.62
194.239	-22.02
194.458	-17.92
194.678	18.94
194.897	121.34
195.116	45.57
195.335	-28.16
195.555	4.61
195.774	-9.73
195.993	45.57
196.212	25.09
196.432	-13.82
196.651	33.28
196.87	-13.82
197.089	27.14
197.308	64
197.528	-11.78
197.747	25.09
197.966	20.99
198.185	18.94
198.404	-11.78
198.623	-42.5
198.842	98.81
199.062	68.09
199.281	0.51
199.5	-36.35
199.719	39.42
199.938	47.62
200.157	20.99
200.376	10.75
200.595	72.19
200.814	4.61
201.033	8.7
201.252	70.14
201.471	43.52
201.69	68.09
201.909	-11.78
202.128	47.62
202.347	8.7
202.566	70.14
202.785	74.24
203.004	-40.45
203.223	31.23
203.442	68.09
203.661	-13.82
203.879	31.23
204.098	68.09
204.317	47.62
204.536	8.7
204.755	23.04
204.974	29.18
205.193	-13.82
205.411	64
205.63	70.14
205.849	33.28
206.068	20.99
206.287	-17.92
206.505	104.96
206.724	51.71
206.943	98.81
207.162	4.61
207.381	-7.68
207.599	45.57
207.818	33.28
208.037	8.7
208.255	57.86
208.474	37.38
208.693	37.38
208.911	-13.82
209.13	0.51
209.349	-1.54
209.567	14.85
209.786	14.85
210.005	47.62
210.223	31.23
210.442	117.25
210.661	-30.21
210.879	72.19
211.098	23.04
211.316	0.51
211.535	37.38
211.753	18.94
211.972	49.66
212.191	14.85
212.409	72.19
212.628	70.14
212.846	-28.16
213.065	66.05
213.283	0.51
213.502	39.42
213.72	33.28
213.938	39.42
214.157	-75.26
214.375	68.09
214.594	66.05
214.812	39.42
215.031	23.04
215.249	49.66
215.467	47.62
215.686	33.28
215.904	61.95
216.122	2.56
216.341	64
216.559	61.95
216.778	59.9
216.996	35.33
217.214	78.33
217.432	-13.82
217.651	41.47
217.869	33.28
218.087	-46.59
218.306	20.99
218.524	2.56
218.742	68.09
218.96	51.71
219.179	25.09
219.397	-1.54
219.615	125.44
219.833	45.57
220.051	25.09
220.27	92.67
220.488	-32.26
220.706	25.09
220.924	-40.45
221.142	37.38
221.36	6.66
221.578	4.61
221.796	92.67
222.015	66.05
222.233	20.99
222.451	66.05
222.669	31.23
222.887	27.14
223.105	25.09
223.323	12.8
223.541	70.14
223.759	74.24
223.977	0.51
224.195	-11.78
224.413	14.85
224.631	-48.64
224.849	-11.78
225.067	29.18
225.285	-44.54
225.503	-11.78
225.721	-17.92
225.939	117.25
226.157	39.42
226.375	64
226.592	57.86
226.81	31.23
227.028	100.86
227.246	18.94
227.464	16.9
227.682	-28.16
227.9	45.57
228.117	74.24
228.335	12.8
228.553	29.18
228.771	12.8
228.989	2.56
229.206	53.76
229.424	-26.11
229.642	-13.82
229.86	0.51
230.077	-17.92
230.295	88.57
230.513	6.66
230.731	0.51
230.948	27.14
231.166	35.33
231.384	41.47
231.601	57.86
231.819	66.05
232.037	4.61
232.254	18.94
232.472	-9.73
232.689	31.23
232.907	35.33
233.125	-38.4
233.342	20.99
233.56	84.48
233.777	2.56
233.995	-15.87
234.213	70.14
234.43	90.62
234.648	6.66
234.865	49.66
235.083	10.75
235.3	31.23
235.518	47.62
235.735	-11.78
235.953	-3.58
236.17	55.81
236.388	27.14
236.605	70.14
236.822	33.28
237.04	18.94
237.257	47.62
237.475	29.18
237.692	41.47
237.909	16.9
238.127	37.38
238.344	29.18
238.562	68.09
238.779	39.42
238.996	-13.82
239.214	49.66
239.431	33.28
239.648	84.48
239.865	20.99
240.083	25.09
240.3	-44.54
240.517	66.05
240.735	-1.54
240.952	41.47
241.169	64
241.386	51.71
241.603	33.28
241.821	20.99
242.038	41.47
242.255	33.28
242.472	-44.54
242.689	12.8
242.907	102.91
243.124	16.9
243.341	86.53
243.558	20.99
243.775	59.9
243.992	37.38
244.209	37.38
244.426	33.28
244.643	14.85
244.86	39.42
245.078	31.23
245.295	68.09
245.512	82.43
245.729	43.52
245.946	80.38
246.163	-28.16
246.38	-15.87
246.597	-3.58
246.814	94.72
247.031	-11.78
247.248	107.01
247.464	18.94
247.681	37.38
247.898	-46.59
248.115	25.09
248.332	12.8
248.549	61.95
248.766	98.81
248.983	10.75
249.2	-24.06
249.417	64
249.633	-52.74
249.85	47.62
250.067	86.53
250.284	-17.92
250.501	111.1
250.717	41.47
250.934	18.94
251.151	47.62
251.368	57.86
251.585	53.76
251.801	18.94
252.018	78.33
252.235	29.18
252.451	20.99
252.668	45.57
252.885	109.05
253.102	33.28
253.318	20.99
253.535	-34.3
253.752	12.8
253.968	92.67
254.185	-5.63
254.401	-13.82
254.618	68.09
254.835	14.85
255.051	82.43
255.268	23.04
255.484	31.23
255.701	92.67
255.917	78.33
256.134	45.57
256.351	82.43
256.567	45.57
256.784	59.9
257	-9.73
257.217	74.24
257.433	27.14
257.65	37.38
257.866	29.18
258.082	-15.87
258.299	51.71
258.515	51.71
258.732	61.95
258.948	4.61
259.165	14.85
259.381	-44.54
259.597	8.7
259.814	37.38
260.03	41.47
260.246	47.62
260.463	41.47
260.679	-9.73
260.895	0.51
261.112	14.85
261.328	27.14
261.544	0.51
261.761	23.04
261.977	53.76
262.193	-30.21
262.409	78.33
262.626	23.04
262.842	59.9
263.058	35.33
263.274	64
263.49	59.9
263.707	0.51
263.923	61.95
264.139	-32.26
264.355	70.14
264.571	90.62
264.787	51.71
265.004	35.33
265.22	0.51
265.436	-19.97
265.652	4.61
265.868	16.9
266.084	0.51
266.3	20.99
266.516	96.77
266.732	31.23
266.948	4.61
267.164	27.14
267.38	39.42
267.596	64
267.812	53.76
268.028	-3.58
268.244	39.42
268.46	27.14
268.676	18.94
268.892	125.44
269.108	-1.54
269.324	-17.92
269.54	94.72
269.756	45.57
269.972	-7.68
270.188	61.95
270.403	-9.73
270.619	2.56
270.835	33.28
271.051	-11.78
271.267	27.14
271.483	-83.45
271.698	98.81
271.914	-17.92
272.13	57.86
272.346	-7.68
272.562	-40.45
272.777	59.9
272.993	-3.58
273.209	61.95
273.425	37.38
273.64	10.75
273.856	76.29
274.072	-1.54
274.287	37.38
274.503	16.9
274.719	20.99
274.934	12.8
275.15	8.7
275.366	25.09
275.581	43.52
275.797	39.42
276.012	-13.82
276.228	70.14
276.444	20.99
276.659	64
276.875	20.99
277.09	12.8
277.306	-13.82
277.521	33.28
277.737	37.38
277.952	66.05
278.168	-42.5
278.383	-7.68
278.599	35.33
278.814	90.62
279.03	-28.16
279.245	55.81
279.461	31.23
279.676	61.95
279.892	86.53
280.107	82.43
280.322	12.8
280.538	123.39
280.753	-50.69
280.969	25.09
281.184	33.28
281.399	45.57
281.615	0.51
281.83	68.09
282.045	45.57
282.26	33.28
282.476	57.86
282.691	90.62
282.906	39.42
283.122	41.47
283.337	25.09
283.552	33.28
283.767	-32.26
283.983	88.57
284.198	35.33
284.413	-3.58
284.628	12.8
284.843	66.05
285.058	12.8
285.274	39.42
285.489	29.18
285.704	33.28
285.919	84.48
286.134	29.18
286.349	41.47
286.564	-19.97
286.779	6.66
286.995	72.19
287.21	-24.06
287.425	109.05
287.64	-5.63
287.855	16.9
288.07	-28.16
288.285	39.42
288.5	41.47
288.715	72.19
288.93	41.47
289.145	39.42
289.36	12.8
289.575	102.91
289.79	20.99
290.004	76.29
290.219	102.91
290.434	12.8
290.649	8.7
290.864	35.33
291.079	4.61
291.294	111.1
291.509	0.51
291.724	37.38
291.938	12.8
292.153	31.23
292.368	49.66
292.583	64
292.798	59.9
293.012	96.77
293.227	64
293.442	70.14
293.657	23.04
293.871	-17.92
294.086	16.9
294.301	61.95
294.516	31.23
294.73	14.85
294.945	41.47
295.16	29.18
295.374	80.38
295.589	119.29
295.804	31.23
296.018	23.04
296.233	104.96
296.447	82.43
296.662	-1.54
296.877	-28.16
297.091	147.97
297.306	29.18
297.52	6.66
297.735	23.04
297.949	20.99
298.164	39.42
298.378	23.04
298.593	12.8
298.807	27.14
299.022	90.62
299.236	59.9
299.451	23.04
299.665	64
299.88	18.94
300.094	117.25
300.309	-26.11
300.523	2.56
300.737	35.33
300.952	64
301.166	74.24
301.381	-22.02
301.595	-26.11
301.809	2.56
302.024	16.9
302.238	20.99
302.452	-9.73
302.667	33.28
302.881	94.72
303.095	86.53
303.309	82.43
303.524	59.9
303.738	53.76
303.952	43.52
304.166	49.66
304.381	8.7
304.595	100.86
304.809	-9.73
305.023	37.38
305.237	29.18
305.452	51.71
305.666	31.23
305.88	-11.78
306.094	74.24
306.308	31.23
306.522	64
306.736	86.53
306.95	74.24
307.164	47.62
307.379	49.66
307.593	115.2
307.807	66.05
308.021	45.57
308.235	35.33
308.449	-19.97
308.663	16.9
308.877	25.09
309.091	47.62
309.305	55.81
309.519	10.75
309.733	92.67
309.947	-44.54
310.161	51.71
310.374	29.18
310.588	94.72
310.802	18.94
311.016	66.05
311.23	27.14
311.444	18.94
311.658	80.38
311.872	98.81
312.085	57.86
312.299	86.53
312.513	55.81
312.727	55.81
312.941	18.94
313.154	84.48
313.368	10.75
313.582	37.38
313.796	57.86
314.009	47.62
314.223	53.76
314.437	74.24
314.651	55.81
314.864	33.28
315.078	16.9
315.292	4.61
315.505	55.81
315.719	29.18
315.933	25.09
316.146	59.9
316.36	-24.06
316.573	41.47
316.787	61.95
317.001	14.85
317.214	31.23
317.428	23.04
317.641	-11.78
317.855	4.61
318.068	31.23
318.282	74.24
318.495	29.18
318.709	94.72
318.922	-13.82
319.136	16.9
319.349	33.28
319.563	53.76
319.776	84.48
319.99	-9.73
320.203	25.09
320.417	35.33
320.63	16.9
320.843	59.9
321.057	29.18
321.27	16.9
321.483	-38.4
321.697	127.49
321.91	2.56
322.124	51.71
322.337	49.66
322.55	78.33
322.763	70.14
322.977	25.09
323.19	-9.73
323.403	29.18
323.617	-34.3
323.83	37.38
324.043	31.23
324.256	39.42
324.469	45.57
324.683	117.25
324.896	-50.69
325.109	31.23
325.322	6.66
325.535	37.38
325.748	94.72
325.962	47.62
326.175	29.18
326.388	4.61
326.601	33.28
326.814	14.85
327.027	53.76
327.24	27.14
327.453	-9.73
327.666	23.04
327.879	47.62
328.092	10.75
328.305	49.66
328.518	16.9
328.731	-36.35
328.944	49.66
329.157	121.34
329.37	-15.87
329.583	8.7
329.796	74.24
330.009	47.62
330.222	-15.87
330.435	-11.78
330.648	37.38
330.861	55.81
331.073	64
331.286	80.38
331.499	66.05
331.712	59.9
331.925	-9.73
332.138	51.71
332.35	53.76
332.563	2.56
332.776	115.2
332.989	-11.78
333.202	37.38
333.414	47.62
333.627	-11.78
333.84	74.24
334.053	-15.87
334.265	-34.3
334.478	53.76
334.691	-13.82
334.903	61.95
335.116	-44.54
335.329	37.38
335.541	2.56
335.754	82.43
335.966	27.14
336.179	66.05
336.392	51.71
336.604	6.66
336.817	51.71
337.029	53.76
337.242	55.81
337.454	51.71
337.667	27.14
337.88	12.8
338.092	43.52
338.305	29.18
338.517	-15.87
338.729	61.95
338.942	100.86
339.154	55.81
339.367	2.56
339.579	61.95
339.792	29.18
340.004	86.53
340.217	76.29
340.429	109.05
340.641	18.94
340.854	61.95
341.066	49.66
341.278	104.96
341.491	64
341.703	57.86
341.915	29.18
342.128	74.24
342.34	68.09
342.552	-3.58
342.764	68.09
342.977	72.19
343.189	20.99
343.401	12.8
343.613	55.81
343.826	61.95
344.038	53.76
344.25	14.85
344.462	27.14
344.674	64
344.886	33.28
345.099	-95.74
345.311	2.56
345.523	-15.87
345.735	57.86
345.947	86.53
346.159	82.43
346.371	20.99
346.583	14.85
346.795	47.62
347.007	25.09
347.219	64
347.431	49.66
347.643	47.62
347.855	16.9
348.067	127.49
348.279	55.81
348.491	92.67
348.703	18.94
348.915	109.05
349.127	70.14
349.339	74.24
349.551	39.42
349.763	147.97
349.975	16.9
350.187	66.05
350.399	51.71
350.61	39.42
350.822	20.99
351.034	51.71
351.246	-11.78
351.458	96.77
351.669	72.19
351.881	23.04
352.093	82.43
352.305	117.25
352.517	49.66
352.728	76.29
352.94	49.66
353.152	47.62
353.363	25.09
353.575	27.14
353.787	66.05
353.999	84.48
354.21	35.33
354.422	39.42
354.633	2.56
354.845	53.76
355.057	39.42
355.268	100.86
355.48	84.48
355.692	14.85
355.903	8.7
356.115	-24.06
356.326	25.09
356.538	-1.54
356.749	18.94
356.961	43.52
357.172	68.09
357.384	12.8
357.595	98.81
357.807	80.38
358.018	43.52
358.23	119.29
358.441	55.81
358.653	80.38
358.864	66.05
359.075	78.33
359.287	53.76
359.498	16.9
359.709	55.81
359.921	104.96
360.132	23.04
360.344	49.66
360.555	80.38
360.766	33.28
360.977	2.56
361.189	51.71
361.4	-34.3
361.611	129.53
361.823	2.56
362.034	82.43
362.245	8.7
362.456	45.57
362.667	-15.87
362.879	76.29
363.09	47.62
363.301	47.62
363.512	162.3
363.723	104.96
363.935	43.52
364.146	47.62
364.357	35.33
364.568	-32.26
364.779	43.52
364.99	55.81
365.201	47.62
365.412	16.9
365.623	72.19
365.834	86.53
366.045	14.85
366.256	10.75
366.467	74.24
366.678	76.29
366.889	-5.63
367.1	43.52
367.311	47.62
367.522	39.42
367.733	51.71
367.944	51.71
368.155	61.95
368.366	45.57
368.577	-48.64
368.788	86.53
368.999	55.81
369.209	0.51
369.42	123.39
369.631	133.63
369.842	70.14
370.053	68.09
370.264	37.38
370.474	109.05
370.685	49.66
370.896	111.1
371.107	55.81
371.317	0.51
371.528	82.43
371.739	41.47
371.95	61.95
372.16	39.42
372.371	43.52
372.582	39.42
372.792	70.14
373.003	47.62
373.214	66.05
373.424	86.53
373.635	16.9
373.846	68.09
374.056	16.9
374.267	78.33
374.477	27.14
374.688	37.38
374.898	35.33
375.109	35.33
375.319	6.66
375.53	94.72
375.74	12.8
375.951	80.38
376.161	121.34
376.372	86.53
376.582	76.29
376.793	51.71
377.003	29.18
377.214	18.94
377.424	119.29
377.635	86.53
377.845	18.94
378.055	111.1
378.266	59.9
378.476	35.33
378.686	23.04
378.897	64
379.107	98.81
379.317	70.14
379.528	72.19
379.738	-11.78
379.948	123.39
380.158	86.53
380.369	61.95
380.579	-19.97
380.789	31.23
380.999	100.86
381.21	0.51
381.42	125.44
381.63	-11.78
381.84	76.29
382.05	33.28
382.261	98.81
382.471	55.81
382.681	16.9
382.891	70.14
383.101	4.61
383.311	37.38
383.521	47.62
383.731	70.14
383.941	66.05
384.151	12.8
384.361	25.09
384.571	74.24
384.781	20.99
384.991	66.05
385.201	102.91
385.411	33.28
385.621	117.25
385.831	47.62
386.041	143.87
386.251	39.42
386.461	96.77
386.671	-13.82
386.881	25.09
387.091	0.51
387.301	51.71
387.511	57.86
387.72	49.66
387.93	178.69
388.14	47.62
388.35	18.94
388.56	59.9
388.769	31.23
388.979	64
389.189	39.42
389.399	55.81
389.609	76.29
389.818	39.42
390.028	55.81
390.238	6.66
390.447	57.86
390.657	59.9
390.867	115.2
391.076	84.48
391.286	33.28
391.496	35.33
391.705	127.49
391.915	41.47
392.125	107.01
392.334	119.29
392.544	94.72
392.753	107.01
392.963	61.95
393.172	82.43
393.382	55.81
393.591	98.81
393.801	41.47
394.01	78.33
394.22	102.91
394.429	14.85
394.639	72.19
394.848	76.29
395.058	137.73
395.267	115.2
395.477	109.05
395.686	57.86
395.895	121.34
396.105	154.11
396.314	88.57
396.524	76.29
396.733	51.71
396.942	100.86
397.152	147.97
397.361	82.43
397.57	102.91
397.78	100.86
397.989	74.24
398.198	111.1
398.407	139.77
398.617	92.67
398.826	78.33
399.035	133.63
399.244	64
399.453	180.73
399.663	86.53
399.872	209.4
400.081	55.81
400.29	133.63
400.499	119.29
400.708	182.78
400.917	123.39
401.127	123.39
401.336	133.63
401.545	127.49
401.754	223.74
401.963	180.73
402.172	88.57
402.381	162.3
402.59	143.87
402.799	92.67
403.008	133.63
403.217	180.73
403.426	156.16
403.635	158.21
403.844	119.29
404.053	162.3
404.262	135.68
404.471	160.25
404.68	188.93
404.888	168.45
405.097	143.87
405.306	86.53
405.515	199.16
405.724	231.93
405.933	186.88
406.142	205.31
406.35	205.31
406.559	193.02
406.768	266.75
406.977	291.32
407.185	197.12
407.394	145.92
407.603	178.69
407.812	229.88
408.02	195.07
408.229	244.22
408.438	291.32
408.646	254.46
408.855	301.56
409.064	276.99
409.272	279.04
409.481	256.51
409.69	336.38
409.898	307.71
410.107	375.29
410.315	358.91
410.524	352.76
410.733	354.81
410.941	367.1
411.15	397.82
411.358	408.06
411.567	393.72
411.775	440.83
411.984	387.58
412.192	479.74
412.401	418.3
412.609	567.8
412.818	475.64
413.026	512.5
413.234	465.4
413.443	530.94
413.651	524.79
413.86	541.18
414.068	690.68
414.276	659.96
414.485	633.33
414.693	731.64
414.901	680.44
415.11	737.78
415.318	780.79
415.526	868.85
415.734	827.89
415.943	821.75
416.151	883.19
416.359	874.99
416.567	940.53
416.776	1008.11
416.984	1034.74
417.192	1069.55
417.4	1049.07
417.608	1018.35
417.817	1171.95
418.025	1147.37
418.233	1219.05
418.441	1282.54
418.649	1253.87
418.857	1335.79
419.065	1389.03
419.273	1372.65
419.481	1380.84
419.689	1483.24
419.897	1645.03
420.105	1538.54
420.313	1561.06
420.521	1745.38
420.729	1817.06
420.937	1815.01
421.145	1882.6
421.353	1956.32
421.561	2068.96
421.769	2038.24
421.977	2210.27
422.185	2124.26
422.393	2316.76
422.601	2443.74
422.809	2363.87
423.017	2515.42
423.224	2486.75
423.432	2591.19
423.64	2611.67
423.848	2802.13
424.056	2908.63
424.263	2914.77
424.471	2920.92
424.679	3158.48
424.887	3076.56
425.094	3291.6
425.302	3463.63
425.51	3498.44
425.718	3527.11
425.925	3602.89
426.133	3756.49
426.341	3969.48
426.548	4194.75
426.756	4110.79
426.964	4190.66
427.171	4391.36
427.379	4630.97
427.586	4549.05
427.794	4858.29
428.001	5054.9
428.209	5198.26
428.417	5083.57
428.624	5319.09
428.832	5458.35
429.039	5542.32
429.247	5548.46
429.454	5976.48
429.662	6298.02
429.869	6066.6
430.076	6324.64
430.284	6273.44
430.491	6445.47
430.699	6881.69
430.906	6986.13
431.114	6853.02
431.321	7340.43
431.528	7483.79
431.736	7682.44
431.943	8276.35
432.15	7981.45
432.358	8057.22
432.565	8401.28
432.772	8356.22
432.979	8817.02
433.187	8925.56
433.394	9007.48
433.601	9625.97
433.808	9609.58
434.016	9677.16
434.223	10178.92
434.43	10666.33
434.637	10570.08
434.844	11049.3
435.052	11569.49
435.259	11272.53
435.466	11389.27
435.673	11407.7
435.88	11927.88
436.087	12853.56
436.294	12702.01
436.501	12298.56
436.708	12597.57
436.915	13082.94
437.122	13642.03
437.329	13631.79
437.537	13908.27
437.743	14264.61
437.95	14100.78
438.157	14807.33
438.364	15343.89
438.571	15290.65
438.778	15571.22
438.985	16896.25
439.192	16064.78
439.399	16720.13
439.606	16216.33
439.813	16945.41
440.02	18331.88
440.227	18073.84
440.433	17801.46
440.64	18606.31
440.847	18092.27
441.054	18804.96
441.261	19863.76
441.467	20097.23
441.674	20150.48
441.881	21129.41
442.088	20629.7
442.294	20601.03
442.501	21244.09
442.708	21655.73
442.914	22470.83
443.121	23212.19
443.328	22577.32
443.534	24254.61
443.741	23500.95
443.948	23316.64
444.154	25243.77
444.361	24768.65
444.568	24993.92
444.774	25194.62
444.981	25364.6
445.187	26099.83
445.394	27478.11
445.6	26888.29
445.807	29308.99
446.013	28196.95
446.22	28483.66
446.426	29808.7
446.633	30083.12
446.839	31010.85
447.046	30007.35
447.252	31502.37
447.459	31676.44
447.665	31342.63
447.871	32751.63
448.078	34293.75
448.284	32753.68
448.491	33486.85
448.697	34701.29
448.903	35467.23
449.11	34983.91
449.316	34926.57
449.522	35588.06
449.728	36616.15
449.935	36483.03
450.141	36833.23
450.347	37326.79
450.553	36315.09
450.76	36515.79
450.966	37930.94
451.172	37672.9
451.378	38387.64
451.584	37642.18
451.791	38571.96
451.997	38852.53
452.203	39249.83
452.409	39368.62
452.615	39126.95
452.821	37283.78
453.027	37304.26
453.233	39249.83
453.44	37728.19
453.646	37820.35
453.852	38152.12
454.058	38913.97
454.264	37427.14
454.47	38549.43
454.676	37683.14
454.882	38809.52
455.088	35598.3
455.294	36378.58
455.5	36335.57
455.705	36933.58
455.911	35620.83
456.117	34654.19
456.323	34222.07
456.529	32530.45
456.735	33783.8
456.941	32923.66
457.147	32380.95
457.352	31762.46
457.558	31516.7
457.764	31258.66
457.97	30918.7
458.176	30085.17
458.381	29927.48
458.587	28821.58
458.793	28624.97
458.999	27123.81
459.204	28870.73
459.41	28205.14
459.616	26443.88
459.821	26646.63
460.027	26361.97
460.233	25671.8
460.438	24389.77
460.644	24957.06
460.85	23505.05
461.055	23459.99
461.261	23189.66
461.466	21424.31
461.672	21070.01
461.878	22317.23
462.083	20801.73
462.289	20394.18
462.494	20402.38
462.7	19304.67
462.905	18872.54
463.111	19312.86
463.316	19699.92
463.522	19376.34
463.727	19046.62
463.932	19134.68
464.138	18815.2
464.343	19206.36
464.549	18338.02
464.754	18809.06
464.959	18995.42
465.165	18616.55
465.37	17938.67
465.575	17555.7
465.781	18327.78
465.986	18280.68
466.191	17588.47
466.397	17176.83
466.602	16464.13
466.807	17076.48
467.012	17133.82
467.218	17088.76
467.423	16666.88
467.628	16857.34
467.833	17774.83
468.038	17031.42
468.244	16320.77
468.449	17211.64
468.654	16376.07
468.859	16140.55
469.064	16064.78
469.269	15626.51
469.474	15931.66
469.679	16099.59
469.885	15870.22
470.09	15939.85
470.295	15825.17
470.5	15245.59
470.705	15325.46
470.91	15063.32
471.115	14993.69
471.32	15106.33
471.525	15048.99
471.73	14764.32
471.935	14467.36
472.139	14086.44
472.344	14602.53
472.549	14117.16
472.754	14160.17
472.959	13685.04
473.164	13467.95
473.369	13355.32
473.574	13924.65
473.778	13543.73
473.983	13676.85
474.188	13447.47
474.393	12939.58
474.598	13072.7
474.802	13062.46
475.007	12777.79
475.212	13048.12
475.417	12380.48
475.621	12366.15
475.826	12360
476.031	12087.62
476.235	11827.53
476.44	12083.53
476.645	11782.48
476.849	11860.3
477.054	11759.95
477.259	11555.15
477.463	11534.67
477.668	11262.29
477.872	11245.91
478.077	11225.43
478.282	10877.27
478.486	10936.67
478.691	10922.33
478.895	10778.97
479.1	10748.25
479.304	10604.89
479.509	10269.03
479.713	10821.98
479.918	10328.42
480.122	10142.05
480.326	10512.74
480.531	10174.82
480.735	10254.69
480.94	9816.43
481.144	10391.91
481.348	9804.14
481.553	10037.61
481.757	9607.53
481.961	10080.61
482.166	10103.14
482.37	9906.54
482.574	9783.66
482.778	9869.67
482.983	10121.57
483.187	9986.41
483.391	10027.37
483.595	9730.41
483.8	9738.6
484.004	9802.09
484.208	9961.83
484.412	9945.45
484.616	9945.45
484.821	9959.78
485.025	9613.68
485.229	9939.3
485.433	9961.83
485.637	9857.39
485.841	9763.18
486.045	9683.31
486.249	9970.02
486.453	9646.44
486.657	9869.67
486.861	9902.44
487.065	9562.48
487.269	9810.28
487.473	9763.18
487.677	9894.25
487.881	10021.22
488.085	9865.58
488.289	9953.64
488.493	9951.59
488.697	9912.68
488.901	9879.91
489.105	9939.3
489.309	9994.6
489.512	10137.96
489.716	9894.25
489.92	9931.11
490.124	9894.25
490.328	10066.28
490.531	9879.91
490.735	10150.25
490.939	9988.46
491.143	10260.84
491.346	9947.5
491.55	10154.34
491.754	10035.56
491.958	10305.89
492.161	10131.81
492.365	10234.21
492.569	10363.23
492.772	10348.9
492.976	10537.31
493.18	10477.92
493.383	10713.44
493.587	10903.9
493.79	10916.19
493.994	10502.5
494.197	10690.91
494.401	10924.38
494.605	10778.97
494.808	11209.04
495.012	11012.44
495.215	11145.56
495.419	11250
495.622	11174.23
495.825	11342.16
496.029	11385.17
496.232	11800.91
496.436	11708.75
496.639	11958.6
496.843	11698.51
497.046	12106.06
497.249	12030.28
497.453	12079.43
497.656	12376.39
497.859	12388.67
498.063	12620.1
498.266	12566.85
498.469	12663.1
498.673	12826.94
498.876	12953.91
499.079	13107.51
499.282	13177.14
499.485	13451.57
499.689	13521.2
499.892	13738.29
500.095	13609.26
500.298	14231.85
500.501	13642.03
500.705	14084.39
500.908	14485.79
501.111	14528.8
501.314	14866.72
501.517	14663.97
501.72	15100.19
501.923	15100.19
502.126	15347.99
502.329	15397.14
502.532	15593.75
502.735	15530.26
502.938	16236.81
503.141	16097.55
503.344	16161.03
503.547	16175.37
503.75	16429.32
503.953	16677.12
504.156	16890.11
504.359	16906.49
504.562	17363.19
504.765	17283.32
504.968	17563.89
505.17	17852.66
505.373	17838.32
505.576	18170.09
505.779	18585.83
505.982	18538.73
506.185	18938.08
506.387	19036.38
506.59	19134.68
506.793	19335.38
506.996	19323.1
507.198	20220.11
507.401	19812.56
507.604	19708.12
507.807	20342.99
508.009	20793.54
508.212	20672.71
508.415	20598.98
508.617	21110.97
508.82	21299.39
509.022	20936.9
509.225	21584.05
509.428	21844.15
509.63	22028.46
509.833	21833.91
510.035	22618.28
510.238	22761.64
510.44	22669.48
510.643	22991.01
510.845	23167.13
511.048	23310.49
511.25	23617.69
511.453	23746.71
511.655	24682.63
511.858	24266.89
512.06	24854.66
512.262	24957.06
512.465	24690.82
512.667	25397.37
512.87	25540.73
513.072	25440.38
513.274	26148.98
513.477	26278
513.679	26349.68
513.881	26476.65
514.084	26880.1
514.286	26765.42
514.488	27152.48
514.69	28141.65
514.893	28080.21
515.095	28186.71
515.297	28278.86
515.499	28553.29
515.701	29091.91
515.904	28958.79
516.106	29296.7
516.308	29636.67
516.51	29831.22
516.712	29767.74
516.914	30418.99
517.116	30560.3
517.318	30447.66
517.52	31014.95
517.722	31213.6
517.925	31567.9
518.127	31983.64
518.329	32397.33
518.531	31868.95
518.733	32618.51
518.935	32747.53
519.136	33044.49
519.338	33026.06
519.54	33015.82
519.742	33527.81
519.944	33808.38
520.146	34480.11
520.348	34762.73
520.55	34973.67
520.752	34871.28
520.954	35493.86
521.155	35080.17
521.357	35803.1
521.559	36319.19
521.761	36437.97
521.963	36349.91
522.164	36433.88
522.366	36726.74
522.568	37216.2
522.77	37173.19
522.971	37814.21
523.173	37230.54
523.375	38221.75
523.576	38084.54
523.778	38188.99
523.98	38662.07
524.181	38262.71
524.383	38680.5
524.584	39186.35
524.786	39098.28
524.988	39096.24
525.189	39503.78
525.391	39835.55
525.592	40036.25
525.794	40056.73
525.995	39925.66
526.197	40462.23
526.398	40624.02
526.6	40849.3
526.801	40925.07
527.003	41152.4
527.204	41217.93
527.406	41506.69
527.607	41469.83
527.808	41596.81
528.01	41166.73
528.211	41625.48
528.412	42526.58
528.614	41852.8
528.815	42438.52
529.016	42960.75
529.218	42014.59
529.419	42477.43
529.62	42305.4
529.822	42495.86
530.023	42469.24
530.224	42387.32
530.425	42686.32
530.626	42434.42
530.828	42508.15
531.029	43304.81
531.23	42620.79
531.431	42825.59
531.632	43233.13
531.833	43042.67
532.035	43272.04
532.236	42921.84
532.437	43345.77
532.638	42784.63
532.839	43470.7
533.04	43550.57
533.241	43288.43
533.442	43632.49
533.643	43356.01
533.844	43247.47
534.045	44025.7
534.246	43065.2
534.447	43796.32
534.648	43511.66
534.849	43933.54
535.05	43380.59
535.251	43632.49
535.451	43427.69
535.652	43917.15
535.853	43296.62
536.054	43765.6
536.255	44050.27
536.456	43257.71
536.657	44062.56
536.857	43464.55
537.058	43018.1
537.259	43827.04
537.46	43788.13
537.66	43552.62
537.861	44019.55
538.062	43689.83
538.263	43945.83
538.463	43726.69
538.664	43517.8
538.865	43970.4
539.065	43814.76
539.266	43282.28
539.466	43980.64
539.667	43222.89
539.868	43947.87
540.068	43468.65
540.269	43439.98
540.469	44279.64
540.67	43503.46
540.87	43235.18
541.071	43523.94
541.271	43734.88
541.472	43368.3
541.672	43159.41
541.873	43364.2
542.073	42964.85
542.274	43712.36
542.474	43534.18
542.675	42977.14
542.875	43634.53
543.075	43595.62
543.276	42934.13
543.476	43679.59
543.676	43034.48
543.877	43255.66
544.077	43509.61
544.277	43308.91
544.478	43374.44
544.678	43274.09
544.878	43251.56
545.078	43818.85
545.279	43321.19
545.479	43009.9
545.679	43255.66
545.879	43173.74
546.079	43050.86
546.28	43298.67
546.48	42938.22
546.68	43284.33
546.88	43784.04
547.08	42995.57
547.28	43046.77
547.48	42684.28
547.68	42874.74
547.88	42792.82
548.081	43437.93
548.281	43386.73
548.481	42774.39
548.681	43282.28
548.881	43089.77
549.081	42782.58
549.28	42911.6
549.48	43220.84
549.68	43267.95
549.88	43476.84
550.08	42979.18
550.28	43194.22
550.48	43089.77
550.68	43114.35
550.88	42721.14
551.08	43157.36
551.279	43292.52
551.479	42448.76
551.679	42981.23
551.879	42839.92
552.079	43112.3
552.278	42590.07
552.478	42887.03
552.678	42551.16
552.878	42792.82
553.077	42682.23
553.277	42585.97
553.477	43263.85
553.676	42434.42
553.876	42686.32
554.076	42436.47
554.275	42082.17
554.475	42192.76
554.674	42821.49
554.874	42205.05
555.074	42510.2
555.273	42225.53
555.473	42731.38
555.672	42174.33
555.872	42495.86
556.071	42479.48
556.271	42309.5
556.47	42028.93
556.67	41781.12
556.869	42090.37
557.068	42252.16
557.268	41684.87
557.467	42170.24
557.667	42127.23
557.866	42078.08
558.065	41836.42
558.265	41756.55
558.464	41369.48
558.663	42024.83
558.863	41166.73
559.062	42067.84
559.261	41314.19
559.461	42248.06
559.66	41349
559.859	41396.1
560.058	41230.22
560.258	41363.34
560.457	40607.64
560.656	41076.62
560.855	41387.91
561.054	40830.86
561.253	40972.17
561.453	41289.61
561.652	40947.6
561.851	41162.64
562.05	40464.28
562.249	40730.51
562.448	40994.7
562.647	40376.22
562.846	40896.4
563.045	40523.67
563.244	40124.32
563.443	40683.41
563.642	40165.28
563.841	40658.84
564.04	40185.75
564.239	40781.71
564.438	40132.51
564.637	40429.46
564.836	40118.17
565.035	39632.8
565.234	40069.02
565.432	39817.12
565.631	39364.52
565.83	39532.45
566.029	39489.45
566.228	39493.54
566.427	39536.55
566.625	39552.93
566.824	38721.46
567.023	39258.02
567.222	38571.96
567.42	39493.54
567.619	39045.04
567.818	38913.97
568.016	39196.59
568.215	38983.6
568.414	38369.21
568.612	38643.63
568.811	38596.53
569.01	38840.24
569.208	38188.99
569.407	38508.47
569.605	38487.99
569.804	38578.1
570.002	37953.47
570.201	37945.28
570.4	37879.74
570.598	37937.09
570.797	37435.33
570.995	37828.54
571.193	36888.53
571.392	37441.48
571.59	37066.7
571.789	37216.2
571.987	37091.27
572.186	36995.02
572.384	37160.9
572.582	37375.94
572.781	37105.61
572.979	36767.69
573.177	36454.36
573.376	36980.68
573.574	36241.37
573.772	36579.28
573.971	36851.66
574.169	36118.49
574.367	36102.11
574.565	36655.06
574.763	36272.09
574.962	35745.76
575.16	35633.12
575.358	35852.25
575.556	35616.74
575.754	36016.09
575.952	35399.65
576.151	35866.59
576.349	35319.78
576.547	35354.6
576.745	35018.73
576.943	35641.31
577.141	35149.8
577.339	35248.1
577.537	35170.28
577.735	35014.63
577.933	34881.52
578.131	35229.67
578.329	34678.77
578.527	34281.46
578.725	34351.09
578.923	34631.66
579.121	34326.52
579.319	34138.1
579.516	34351.09
579.714	34002.94
579.912	33953.79
580.11	33925.11
580.308	33828.86
580.506	34072.57
580.704	33222.66
580.901	33732.61
581.099	34011.13
581.297	33568.77
581.495	33513.47
581.692	33581.06
581.89	33134.6
582.088	33148.93
582.285	33167.37
582.483	33480.71
582.681	33132.55
582.878	32892.94
583.076	32372.75
583.274	32985.1
583.471	32593.93
583.669	32311.31
583.866	32380.95
584.064	32679.95
584.262	32253.97
584.459	32360.47
584.657	32268.31
584.854	32272.4
585.052	31776.8
585.249	32151.57
585.447	31881.24
585.644	31494.18
585.841	31739.93
586.039	31875.1
586.236	31199.27
586.434	31506.46
586.631	31152.16
586.828	31399.97
587.026	31299.62
587.223	30982.18
587.42	30922.79
587.618	31121.45
587.815	30529.58
588.012	30830.63
588.21	30967.85
588.407	30849.07
588.604	30427.18
588.801	30433.33
588.999	30654.51
589.196	30404.66
589.393	30418.99
589.59	30353.46
589.787	30134.32
589.984	29943.86
590.182	29542.46
590.379	30249.01
590.576	29507.65
590.773	29622.33
590.97	29642.81
591.167	29696.06
591.364	29182.02
591.561	29628.48
591.758	28774.47
591.955	29001.8
592.152	29888.57
592.349	29218.88
592.546	29108.29
592.743	28667.98
592.94	28469.33
593.137	28538.96
593.334	28780.62
593.531	28399.69
593.727	28579.92
593.924	28674.12
594.121	27936.85
594.318	28221.52
594.515	28260.43
594.712	28510.28
594.908	28143.7
595.105	27852.89
595.302	27676.76
595.499	27846.74
595.696	27674.71
595.892	27740.25
596.089	27480.16
596.286	27570.27
596.482	27261.02
596.679	27514.97
596.876	27357.28
597.072	27037.8
597.269	27431.01
597.466	27119.71
597.662	27099.23
597.859	27074.66
598.055	26644.59
598.252	26566.76
598.448	26759.27
598.645	26597.48
598.841	26351.73
599.038	26411.12
599.234	26548.33
599.431	25987.19
599.627	26046.58
599.824	26331.25
600.02	26011.76
600.217	26243.18
600.413	25723
600.609	25639.03
600.806	25616.51
601.002	25858.17
601.198	25665.66
601.395	25165.95
601.591	25378.94
601.787	25546.87
601.984	24967.3
602.18	25593.98
602.376	25424
602.572	25067.65
602.769	25163.9
602.965	24891.52
603.161	24909.96
603.357	24959.11
603.553	24545.42
603.75	24938.63
603.946	24526.99
604.142	24656.01
604.338	24287.37
604.534	24316.04
604.73	24172.69
604.926	24082.58
605.122	24330.38
605.318	23937.17
605.514	23928.98
605.71	24119.44
605.906	23845.01
606.102	23947.41
606.298	23875.73
606.494	23451.8
606.69	23672.98
606.886	23814.29
607.082	23421.08
607.278	23648.41
607.474	23152.8
607.67	23361.69
607.866	23120.03
608.062	23410.84
608.257	23132.32
608.453	22968.48
608.649	22948
608.845	22796.45
609.041	22941.86
609.236	22810.79
609.432	22821.03
609.628	22661.29
609.824	22896.8
610.019	22935.71
610.215	22743.2
610.411	22685.86
610.606	22544.55
610.802	22589.61
610.998	22251.69
611.193	22624.42
611.389	22470.83
611.584	22804.64
611.78	22165.68
611.976	22204.59
612.171	22292.65
612.367	22513.83
612.562	22284.46
612.758	22159.53
612.953	22085.81
613.149	22483.11
613.344	21868.72
613.539	22298.8
613.735	22114.48
613.93	21971.12
614.126	21620.92
614.321	22118.57
614.517	21903.54
614.712	21618.87
614.907	21723.32
615.103	21745.84
615.298	21448.89
615.493	21594.29
615.688	21430.46
615.884	21973.17
616.079	21321.91
616.274	21600.44
616.47	21442.74
616.665	21469.37
616.86	21463.22
617.055	21422.27
617.25	21049.53
617.445	21295.29
617.641	21053.63
617.836	21020.86
618.031	20979.9
618.226	21287.1
618.421	21037.25
618.616	21133.5
618.811	20785.35
619.006	20611.27
619.201	20467.91
619.396	20594.89
619.591	19996.88
619.786	20668.61
619.981	20199.63
620.176	20484.3
620.371	19894.48
620.566	20207.82
620.761	20232.4
620.956	20142.28
621.151	19570.9
621.346	19874
621.541	19499.22
621.735	19527.89
621.93	19681.49
622.125	19329.24
622.32	19128.54
622.515	19087.58
622.709	19093.72
622.904	19306.71
623.099	18841.82
623.294	19069.15
623.488	18962.65
623.683	18964.7
623.878	18487.53
624.072	18583.78
624.267	18454.76
624.462	18456.81
624.656	18131.18
624.851	18176.23
625.046	18139.37
625.24	18002.16
625.435	17797.36
625.629	17711.35
625.824	17445.11
626.018	17905.9
626.213	17148.15
626.407	17381.62
626.602	17271.03
626.796	17326.33
626.991	17434.87
627.185	16963.84
627.38	16892.16
627.574	17123.58
627.768	16552.2
627.963	16566.53
628.157	16701.7
628.352	16666.88
628.546	16181.51
628.74	16206.09
628.935	16400.65
629.129	16271.62
629.323	15778.06
629.517	16154.89
629.712	15784.21
629.906	15993.1
630.1	15675.66
630.294	15569.17
630.489	15620.37
630.683	15620.37
630.877	15378.71
631.071	15347.99
631.265	15276.31
631.459	15046.94
631.653	14895.39
631.848	15083.8
632.042	14696.74
632.236	15032.6
632.43	14688.54
632.624	14883.1
632.818	14338.34
633.012	14348.58
633.206	14270.76
633.4	14305.57
633.594	14164.26
633.788	14315.81
633.982	14242.09
634.176	14051.63
634.369	14076.2
634.563	14158.12
634.757	14051.63
634.951	13869.36
635.145	13762.86
635.339	13994.28
635.533	13486.39
635.726	13705.52
635.92	13406.52
636.114	13394.23
636.308	13312.31
636.501	13222.2
636.695	13267.25
636.889	12966.2
637.083	12933.43
637.276	13171
637.47	12915
637.664	12831.04
637.857	12968.25
638.051	12601.66
638.244	12630.34
638.438	12607.81
638.632	12484.93
638.825	12435.78
639.019	12480.83
639.212	12521.79
639.406	12235.08
639.599	12298.56
639.793	12259.65
639.986	12038.47
640.18	12034.38
640.373	12040.52
640.567	12024.14
640.76	11997.51
640.954	11735.37
641.147	11592.02
641.34	11704.65
641.534	11630.93
641.727	11626.83
641.92	11395.41
642.114	11405.65
642.307	11422.03
642.5	11381.07
642.694	11139.41
642.887	11082.07
643.08	11163.99
643.273	11219.28
643.467	11108.69
643.66	11037.02
643.853	11104.6
644.046	10824.03
644.239	10729.82
644.432	10613.09
644.626	10625.37
644.819	10631.52
645.012	10680.67
645.205	10783.07
645.398	10551.65
645.591	10473.82
645.784	10389.86
645.977	10191.2
646.17	10396
646.363	10266.98
646.556	10060.13
646.749	10082.66
646.942	10135.91
647.135	9920.87
647.328	9935.21
647.521	9953.64
647.714	9845.1
647.907	9851.24
648.099	9974.12
648.292	9650.54
648.485	9711.98
648.678	9515.37
648.871	9505.13
649.064	9699.69
649.256	9476.46
649.449	9505.13
649.642	9417.07
649.835	9435.5
650.027	9169.27
650.22	9197.94
650.413	9130.36
650.605	9238.9
650.798	9171.32
650.991	8886.65
651.183	9079.16
651.376	8769.91
651.568	9013.62
651.761	8622.46
651.954	8917.37
652.146	8665.47
652.339	8817.02
652.531	8634.75
652.724	8542.59
652.916	8739.19
653.109	8614.27
653.301	8358.27
653.494	8432
653.686	8227.2
653.879	8542.59
654.071	8225.15
654.263	8378.75
654.456	8419.71
654.648	8419.71
654.84	8241.54
655.033	8104.32
655.225	8153.48
655.417	8020.36
655.61	7924.1
655.802	8130.95
655.994	7762.31
656.186	7829.9
656.379	7858.57
656.571	7661.96
656.763	7651.72
656.955	7588.24
657.148	7696.78
657.34	7635.34
657.532	7596.43
657.724	7707.02
657.916	7545.23
658.108	7639.44
658.3	7281.04
658.492	7354.77
658.684	7276.94
658.876	7502.22
659.068	7207.31
659.26	7195.03
659.452	7324.05
659.644	7303.57
659.836	7256.47
660.028	7276.94
660.22	7178.64
660.412	7207.31
660.604	6922.65
660.796	6914.45
660.988	6930.84
661.18	6828.44
661.372	6906.26
661.563	6697.37
661.755	6891.93
661.947	6779.29
662.139	6767
662.331	6744.47
662.522	6537.63
662.714	6551.96
662.906	6570.4
663.097	6695.32
663.289	6533.53
663.481	6513.05
663.673	6601.12
663.864	6410.65
664.056	6367.65
664.247	6384.03
664.439	6257.06
664.631	6330.78
664.822	6121.89
665.014	6209.95
665.205	6152.61
665.397	6168.99
665.588	6177.19
665.78	6042.02
665.971	6138.27
666.163	6156.71
666.354	5902.76
666.546	5999.01
666.737	5863.85
666.929	6021.54
667.12	5884.33
667.311	5845.41
667.503	5867.94
667.694	5861.8
667.885	5759.4
668.077	5763.5
668.268	5712.3
668.459	5812.65
668.651	5765.54
668.842	5562.8
669.033	5714.34
669.224	5499.31
669.416	5511.6
669.607	5636.52
669.798	5513.64
669.989	5648.81
670.18	5583.27
670.371	5456.3
670.563	5310.89
670.754	5288.37
670.945	5421.49
671.136	5444.01
671.327	5319.09
671.518	5321.13
671.709	5294.51
671.9	5417.39
672.091	5259.7
672.282	5231.02
672.473	5171.63
672.664	5085.62
672.855	5188.02
673.046	5165.49
673.237	5124.53
673.428	5116.34
673.619	5095.86
673.809	5161.39
674	5188.02
674.191	4995.51
674.382	4950.45
674.573	5022.13
674.764	4936.12
674.954	5048.75
675.145	4852.15
675.336	5007.8
675.527	4835.77
675.717	4858.29
675.908	4889.01
676.099	4876.73
676.289	4831.67
676.48	4788.66
676.671	4698.55
676.861	4700.6
677.052	4731.32
677.243	4747.7
677.433	4590.01
677.624	4772.28
677.814	4645.31
678.005	4800.95
678.195	4655.54
678.386	4704.7
678.576	4577.72
678.767	4561.34
678.957	4643.26
679.148	4585.91
679.338	4618.68
679.529	4479.42
679.719	4549.05
679.909	4491.71
680.1	4526.52
680.29	4508.09
680.481	4487.61
680.671	4520.38
680.861	4592.06
681.052	4477.37
681.242	4532.67
681.432	4542.91
681.622	4553.15
681.813	4489.66
682.003	4321.73
682.193	4329.92
682.383	4305.34
682.573	4555.19
682.764	4538.81
682.954	4301.25
683.144	4379.07
683.334	4202.94
683.524	4256.19
683.714	4258.24
683.904	4307.39
684.094	4317.63
684.284	4118.98
684.474	4211.14
684.664	4178.37
684.854	4264.38
685.044	4311.49
685.234	4057.54
685.424	4094.4
685.614	4104.64
685.804	4026.82
685.994	4086.21
686.184	4043.2
686.374	4135.36
686.564	4100.55
686.753	4026.82
686.943	3936.71
687.133	3973.57
687.323	3899.84
687.513	4002.24
687.702	4030.91
687.892	3932.61
688.082	3807.69
688.272	3946.95
688.461	3844.55
688.651	3852.74
688.841	3793.35
689.03	3723.72
689.22	3764.68
689.41	3643.85
689.599	3754.44
689.789	3793.35
689.979	3678.66
690.168	3596.75
690.358	3664.33
690.547	3625.42
690.737	3768.77
690.926	3713.48
691.116	3477.96
691.305	3586.51
691.495	3637.7
691.684	3520.97
691.874	3525.07
692.063	3549.64
692.252	3447.24
692.442	3592.65
692.631	3547.59
692.82	3574.22
693.01	3375.56
693.199	3391.95
693.388	3379.66
693.578	3371.47
693.767	3385.8
693.956	3482.06
694.146	3303.89
694.335	3350.99
694.524	3260.88
694.713	3201.49
694.902	3320.27
695.092	3383.76
695.281	3271.12
695.47	3240.4
695.659	3314.13
695.848	3246.54
696.037	3181.01
696.226	3191.25
696.415	3162.58
696.604	3113.42
696.793	3066.32
696.982	3207.63
697.171	3187.15
697.36	3279.31
697.549	3129.81
697.738	3140.05
697.927	3101.14
698.116	3264.97
698.305	3086.8
698.494	3156.43
698.683	3078.61
698.872	3117.52
699.061	3092.94
699.25	2965.97
699.438	2904.53
699.627	3168.72
699.816	3062.23
700.005	3084.75
700.193	2929.11
700.382	3109.33
700.571	2912.72
700.76	2992.59
700.948	2847.19
701.137	3054.03
701.326	2957.78
701.514	3008.98
701.703	2970.07
701.892	2890.2
702.08	2925.01
702.269	2974.16
702.457	2779.61
702.646	2843.09
702.834	2810.33
703.023	2945.49
703.212	2947.54
703.4	2976.21
703.589	3033.55
703.777	2927.06
703.965	2869.72
704.154	2873.81
704.342	2990.55
704.531	2847.19
704.719	2898.39
704.907	2892.24
705.096	2851.28
705.284	2730.45
705.472	2882
705.661	2916.82
705.849	2824.66
706.037	2871.76
706.226	2945.49
706.414	2879.96
706.602	2810.33
706.79	2812.37
706.979	2865.62
707.167	2873.81
707.355	2884.05
707.543	2839
707.731	2855.38
707.919	2742.74
708.107	2892.24
708.296	2861.52
708.484	2830.8
708.672	2929.11
708.86	2777.56
709.048	2820.56
709.236	2816.47
709.424	2839
709.612	2800.09
709.8	2808.28
709.988	2871.76
710.176	2738.65
710.364	2709.97
710.551	2806.23
710.739	2718.17
710.927	2687.45
711.115	2640.34
711.303	2841.04
711.491	2882
711.679	2732.5
711.866	2832.85
712.054	2752.98
712.242	2765.27
712.43	2742.74
712.617	2759.13
712.805	2791.89
712.993	2734.55
713.181	2654.68
713.368	2877.91
713.556	2683.35
713.744	2648.54
713.931	2777.56
714.119	2685.4
714.306	2726.36
714.494	2675.16
714.682	2757.08
714.869	2671.06
715.057	2746.84
715.244	2578.9
715.432	2759.13
715.619	2759.13
715.807	2660.82
715.994	2718.17
716.182	2767.32
716.369	2689.49
716.556	2697.69
716.744	2775.51
716.931	2669.02
717.119	2703.83
717.306	2695.64
717.493	2828.76
717.681	2849.24
717.868	2814.42
718.055	2687.45
718.242	2626.01
718.43	2832.85
718.617	2785.75
718.804	2793.94
718.991	2701.78
719.179	2712.02
719.366	2826.71
719.553	2654.68
719.74	2755.03
719.927	2724.31
720.114	2701.78
720.301	2701.78
720.488	2789.85
720.676	2728.41
720.863	2687.45
721.05	2695.64
721.237	2779.61
721.424	2642.39
721.611	2640.34
721.798	2580.95
721.985	2707.93
722.172	2664.92
722.358	2689.49
722.545	2888.15
722.732	2769.37
722.919	2779.61
723.106	2691.54
723.293	2669.02
723.48	2689.49
723.667	2781.65
723.853	2761.17
724.04	2802.13
724.227	2595.29
724.414	2677.21
724.6	2597.34
724.787	2724.31
724.974	2660.82
725.161	2703.83
725.347	2623.96
725.534	2718.17
725.72	2673.11
725.907	2593.24
726.094	2720.21
726.28	2773.46
726.467	2521.56
726.653	2791.89
726.84	2656.73
727.027	2812.37
727.213	2718.17
727.4	2673.11
727.586	2716.12
727.773	2810.33
727.959	2570.71
728.145	2697.69
728.332	2644.44
728.518	2646.49
728.705	2638.3
728.891	2726.36
729.077	2683.35
729.264	2640.34
729.45	2707.93
729.636	2849.24
729.823	2589.14
730.009	2759.13
730.195	2718.17
730.382	2687.45
730.568	2681.3
730.754	2681.3
730.94	2626.01
731.126	2714.07
731.313	2677.21
731.499	2736.6
731.685	2709.97
731.871	2699.73
732.057	2777.56
732.243	2666.97
732.429	2726.36
732.615	2628.06
732.801	2619.86
732.987	2707.93
733.173	2685.4
733.359	2699.73
733.545	2556.38
733.731	2724.31
733.917	2707.93
734.103	2765.27
734.289	2722.26
734.475	2595.29
734.661	2761.17
734.847	2603.48
735.033	2669.02
735.219	2648.54
735.404	2630.1
735.59	2574.81
735.776	2681.3
735.962	2697.69
736.148	2742.74
736.333	2660.82
736.519	2558.42
736.705	2669.02
736.89	2748.89
737.076	2632.15
737.262	2714.07
737.447	2701.78
737.633	2638.3
737.819	2523.61
738.004	2707.93
738.19	2701.78
738.375	2599.38
738.561	2748.89
738.747	2709.97
738.932	2558.42
739.118	2707.93
739.303	2535.9
739.489	2607.58
739.674	2748.89
739.859	2619.86
740.045	2585.05
740.23	2689.49
740.416	2496.99
740.601	2583
740.786	2501.08
740.972	2517.47
741.157	2535.9
741.342	2525.66
741.528	2425.31
741.713	2537.95
741.898	2564.57
742.084	2548.19
742.269	2499.03
742.454	2509.27
742.639	2443.74
742.824	2482.65
743.01	2494.94
743.195	2499.03
743.38	2458.07
743.565	2447.83
743.75	2556.38
743.935	2357.72
744.12	2353.63
744.305	2425.31
744.49	2486.75
744.675	2351.58
744.86	2359.77
745.045	2359.77
745.23	2378.2
745.415	2345.44
745.6	2390.49
745.785	2341.34
745.97	2413.02
746.155	2269.66
746.34	2257.37
746.525	2343.39
746.71	2429.4
746.895	2273.76
747.079	2310.62
747.264	2216.41
747.449	2284
747.634	2324.96
747.819	2234.85
748.003	2136.54
748.188	2216.41
748.373	2171.36
748.557	2187.74
748.742	2152.93
748.927	2210.27
749.111	2142.69
749.296	2089.44
749.481	2075.1
749.665	2116.06
749.85	2003.43
750.034	2003.43
750.219	1987.04
750.404	2017.76
750.588	2071.01
750.773	2118.11
750.957	2075.1
751.141	1950.18
751.326	1997.28
751.51	2001.38
751.695	2007.52
751.879	1907.17
752.064	1905.12
752.248	1864.16
752.432	1888.74
752.617	1939.94
752.801	1860.07
752.985	2025.95
753.17	1909.22
753.354	1778.15
753.538	1831.4
753.722	1726.95
753.907	1933.79
754.091	1737.19
754.275	1919.46
754.459	1757.67
754.643	1704.42
754.828	1737.19
755.012	1819.11
755.196	1722.85
755.38	1714.66
755.564	1733.09
755.748	1614.31
755.932	1720.81
756.116	1626.6
756.3	1628.65
756.484	1585.64
756.668	1702.37
756.852	1538.54
757.036	1587.69
757.22	1702.37
757.404	1559.02
757.588	1589.74
757.772	1520.1
757.956	1612.26
758.14	1462.76
758.323	1499.63
758.507	1520.1
758.691	1544.68
758.875	1446.38
759.059	1436.14
759.242	1479.15
759.426	1569.26
759.61	1460.71
759.794	1442.28
759.977	1444.33
760.161	1489.39
760.345	1483.24
760.528	1442.28
760.712	1386.99
760.895	1401.32
761.079	1327.6
761.263	1360.36
761.446	1368.56
761.63	1364.46
761.813	1423.85
761.997	1356.27
762.18	1323.5
762.364	1429.99
762.547	1286.64
762.731	1423.85
762.914	1204.72
763.098	1325.55
763.281	1339.88
763.464	1276.4
763.648	1276.4
763.831	1298.92
764.015	1296.88
764.198	1348.08
764.381	1278.44
764.564	1356.27
764.748	1309.16
764.931	1331.69
765.114	1298.92
765.297	1210.86
765.481	1241.58
765.664	1227.25
765.847	1139.18
766.03	1184.24
766.213	1194.48
766.397	1231.34
766.58	1137.13
766.763	1196.53
766.946	1171.95
767.129	1194.48
767.312	1151.47
767.495	1255.92
767.678	1231.34
767.861	1221.1
768.044	1163.76
768.227	1182.19
768.41	1202.67
768.593	1042.93
768.776	1245.68
768.959	1210.86
769.142	1212.91
769.324	1098.22
769.507	1257.96
769.69	1155.57
769.873	1104.37
770.056	1128.94
770.239	1151.47
770.421	1116.65
770.604	989.68
770.787	1141.23
770.97	1032.69
771.152	1030.64
771.335	1114.61
771.518	958.96
771.7	1042.93
771.883	1040.88
772.066	1081.84
772.248	1006.06
772.431	1071.6
772.613	1026.54
772.796	1010.16
772.978	1047.02
773.161	1038.83
773.343	991.73
773.526	967.15
773.708	965.11
773.891	985.58
774.073	1014.26
774.256	952.82
774.438	965.11
774.621	1010.16
774.803	887.28
774.985	915.95
775.168	893.43
775.35	874.99
775.532	942.58
775.715	926.19
775.897	883.19
776.079	877.04
776.261	864.75
776.444	942.58
776.626	877.04
776.808	760.31
776.99	844.28
777.173	838.13
777.355	834.04
777.537	879.09
777.719	795.12
777.901	831.99
778.083	791.03
778.265	705.01
778.447	872.95
778.629	782.84
778.811	795.12
778.993	797.17
779.175	801.27
779.357	727.54
779.539	770.55
779.721	768.5
779.903	788.98
780.085	743.92
780.267	688.63
780.449	809.46
780.631	793.08
780.812	743.92
780.994	694.77
781.176	758.26
781.358	745.97
781.54	692.73
781.721	762.36
781.903	764.4
782.085	727.54
782.267	715.25
782.448	647.67
782.63	696.82
782.812	692.73
782.993	762.36
783.175	596.47
783.357	604.66
783.538	649.72
783.72	592.37
783.901	594.42
784.083	604.66
784.264	592.37
784.446	623.09
784.627	610.81
784.809	610.81
784.99	578.04
785.172	653.81
785.353	551.42
785.535	594.42
785.716	575.99
785.897	526.84
786.079	680.44
786.26	487.93
786.441	590.33
786.623	557.56
786.804	512.5
786.985	541.18
787.167	500.22
787.348	537.08
787.529	498.17
787.71	575.99
787.891	496.12
788.073	489.98
788.254	520.7
788.435	430.59
788.616	551.42
788.797	453.11
788.978	498.17
789.159	502.26
789.34	526.84
789.522	385.53
789.703	524.79
789.884	483.83
790.065	512.5
790.246	494.07
790.427	426.49
790.607	489.98
790.788	479.74
790.969	487.93
791.15	406.01
791.331	424.44
791.512	438.78
791.693	406.01
791.874	414.2
792.054	453.11
792.235	410.11
792.416	393.72
792.597	401.91
792.778	442.87
792.958	430.59
793.139	414.2
793.32	358.91
793.5	389.63
793.681	434.68
793.862	412.15
794.042	344.57
794.223	328.19
794.404	391.67
794.584	336.38
794.765	434.68
794.945	389.63
795.126	389.63
795.306	387.58
795.487	375.29
795.667	371.19
795.848	340.47
796.028	330.23
796.209	307.71
796.389	387.58
796.57	385.53
796.75	334.33
796.93	369.15
797.111	250.36
797.291	322.04
797.471	289.28
797.652	299.52
797.832	326.14
798.012	307.71
798.192	334.33
798.373	360.95
798.553	283.13
798.733	356.86
798.913	260.6
799.093	381.43
799.274	338.43
799.454	383.48
799.634	317.95
799.814	344.57
799.994	313.85
800.174	272.89
800.354	332.28
800.534	299.52
800.714	336.38
800.894	315.9
801.074	233.98
801.254	274.94
801.434	338.43
801.614	266.75
801.794	266.75
801.974	668.15
802.154	369.15
802.334	252.41
802.514	311.8
802.693	303.61
802.873	266.75
803.053	293.37
803.233	299.52
803.413	227.84
803.592	313.85
803.772	291.32
803.952	254.46
804.131	225.79
804.311	172.54
804.491	197.12
804.67	250.36
804.85	240.12
805.03	299.52
805.209	344.57
805.389	287.23
805.568	299.52
805.748	166.4
805.928	250.36
806.107	268.8
806.287	266.75
806.466	217.6
806.646	342.52
806.825	229.88
807.004	246.27
807.184	209.4
807.363	311.8
807.543	213.5
807.722	233.98
807.901	229.88
808.081	260.6
808.26	184.83
808.439	252.41
808.619	231.93
808.798	283.13
808.977	197.12
809.156	207.36
809.336	211.45
809.515	244.22
809.694	199.16
809.873	137.73
810.052	172.54
810.231	215.55
810.411	213.5
810.59	233.98
810.769	270.84
810.948	211.45
811.127	223.74
811.306	180.73
811.485	211.45
811.664	145.92
811.843	231.93
812.022	129.53
812.201	186.88
812.38	242.17
812.559	225.79
812.737	227.84
812.916	227.84
813.095	199.16
813.274	176.64
813.453	186.88
813.632	168.45
813.811	217.6
813.989	188.93
814.168	236.03
814.347	182.78
814.526	197.12
814.704	213.5
814.883	164.35
815.062	176.64
815.24	158.21
815.419	178.69
815.598	176.64
815.776	178.69
815.955	166.4
816.133	107.01
816.312	211.45
816.49	123.39
816.669	217.6
816.847	217.6
817.026	135.68
817.204	166.4
817.383	115.2
817.561	164.35
817.74	186.88
817.918	203.26
818.097	209.4
818.275	180.73
818.453	215.55
818.632	203.26
818.81	98.81
818.988	170.49
819.167	115.2
819.345	131.58
819.523	143.87
819.701	215.55
819.879	184.83
820.058	80.38
820.236	147.97
820.414	127.49
820.592	113.15
820.77	98.81
820.948	131.58
821.127	90.62
821.305	174.59
821.483	221.69
821.661	201.21
821.839	107.01
822.017	117.25
822.195	43.52
822.373	123.39
822.551	164.35
822.729	197.12
822.907	72.19
823.085	72.19
823.262	123.39
823.44	154.11
823.618	80.38
823.796	133.63
823.974	111.1
824.152	141.82
824.329	88.57
824.507	147.97
824.685	98.81
824.863	141.82
825.04	115.2
825.218	135.68
825.396	80.38
825.574	133.63
825.751	129.53
825.929	82.43
826.107	64
826.284	109.05
826.462	152.06
826.639	100.86
826.817	115.2
826.994	121.34
827.172	168.45
827.349	211.45
827.527	98.81
827.704	76.29
827.882	184.83
828.059	119.29
828.237	66.05
828.414	78.33
828.591	66.05
828.769	141.82
828.946	94.72
829.124	94.72
829.301	166.4
829.478	61.95
829.655	92.67
829.833	150.01
830.01	64
830.187	207.36
830.364	25.09
830.542	88.57
830.719	129.53
830.896	96.77
831.073	180.73
831.25	66.05
831.427	100.86
831.604	92.67
831.782	131.58
831.959	201.21
832.136	74.24
832.313	100.86
832.49	68.09
832.667	119.29
832.844	104.96
833.021	180.73
833.198	64
833.374	72.19
833.551	92.67
833.728	10.75
833.905	84.48
834.082	27.14
834.259	127.49
834.436	133.63
834.612	111.1
834.789	98.81
834.966	98.81
835.143	92.67
835.319	162.3
835.496	100.86
835.673	131.58
835.85	80.38
836.026	107.01
836.203	162.3
836.38	141.82
836.556	107.01
836.733	84.48
836.909	115.2
837.086	12.8
837.262	-1.54
837.439	49.66
837.616	45.57
837.792	57.86
837.968	78.33
838.145	96.77
838.321	78.33
838.498	107.01
838.674	18.94
838.851	74.24
839.027	10.75
839.203	82.43
839.38	113.15
839.556	33.28
839.732	154.11
839.909	121.34
840.085	70.14
840.261	121.34
840.437	35.33
840.614	35.33
840.79	113.15
840.966	57.86
841.142	55.81
841.318	-28.16
841.494	84.48
841.671	45.57
841.847	12.8
842.023	64
842.199	33.28
842.375	100.86
842.551	66.05
842.727	39.42
842.903	121.34
843.079	16.9
843.255	51.71
843.431	25.09
843.607	61.95
843.783	70.14
843.959	102.91
844.134	55.81
844.31	92.67
844.486	70.14
844.662	27.14
844.838	14.85
845.013	113.15
845.189	47.62
845.365	43.52
845.541	57.86
845.716	78.33
845.892	76.29
846.068	-7.68
846.244	66.05
846.419	47.62
846.595	82.43
846.77	72.19
846.946	49.66
847.122	-3.58
847.297	80.38
847.473	70.14
847.648	45.57
847.824	133.63
847.999	33.28
848.175	23.04
848.35	80.38
848.526	94.72
848.701	57.86
848.876	70.14
849.052	49.66
849.227	41.47
849.403	31.23
849.578	88.57
849.753	90.62
849.929	35.33
850.104	123.39
850.279	41.47
850.454	82.43
850.63	10.75
850.805	59.9
850.98	123.39
851.155	-44.54
851.33	68.09
851.505	57.86
851.681	55.81
851.856	16.9
852.031	70.14
852.206	59.9
852.381	-83.45
852.556	-44.54
852.731	123.39
852.906	53.76
853.081	49.66
853.256	68.09
853.431	35.33
853.606	6.66
853.781	-17.92
853.956	66.05
854.131	78.33
854.305	49.66
854.48	35.33
854.655	76.29
854.83	-9.73
855.005	20.99
855.18	115.2
855.354	6.66
855.529	59.9
855.704	57.86
855.879	100.86
856.053	82.43
856.228	115.2
856.403	-11.78
856.577	39.42
856.752	-36.35
856.926	64
857.101	109.05
857.276	88.57
857.45	64
857.625	53.76
857.799	20.99
857.974	66.05
858.148	16.9
858.323	64
858.497	33.28
858.672	68.09
858.846	-3.58
859.02	104.96
859.195	45.57
859.369	84.48
859.543	70.14
859.718	-1.54
859.892	51.71
860.066	61.95
860.241	35.33
860.415	86.53
860.589	39.42
860.763	25.09
860.938	-7.68
861.112	-1.54
861.286	8.7
861.46	29.18
861.634	-54.78
861.808	47.62
861.982	102.91
862.157	31.23
862.331	72.19
862.505	35.33
862.679	12.8
862.853	14.85
863.027	64
863.201	109.05
863.375	-28.16
863.549	125.44
863.722	-22.02
863.896	35.33
864.07	25.09
864.244	143.87
864.418	31.23
864.592	47.62
864.766	-1.54
864.939	135.68
865.113	66.05
865.287	61.95
865.461	59.9
865.634	14.85
865.808	39.42
865.982	92.67
866.156	39.42
866.329	47.62
866.503	76.29
866.676	64
866.85	125.44
867.024	33.28
867.197	78.33
867.371	68.09
867.544	125.44
867.718	-13.82
867.891	64
868.065	39.42
868.238	41.47
868.412	64
868.585	-9.73
868.759	84.48
868.932	12.8
869.105	25.09
869.279	25.09
869.452	104.96
869.625	18.94
869.799	-60.93
869.972	-5.63
870.145	-19.97
870.319	88.57
870.492	-7.68
870.665	64
870.838	8.7
871.011	64
871.185	-1.54
871.358	0.51
871.531	100.86
871.704	-40.45
871.877	53.76
872.05	4.61
872.223	23.04
872.396	2.56
872.569	16.9
872.742	4.61
872.915	-28.16
873.088	-34.3
873.261	-5.63
873.434	41.47
873.607	-5.63
873.78	96.77
873.953	41.47
874.126	-11.78
874.299	-52.74
874.471	64
874.644	33.28
874.817	61.95
874.99	90.62
875.163	41.47
875.335	8.7
875.508	31.23
875.681	4.61
875.853	33.28
876.026	-38.4
876.199	23.04
876.371	43.52
876.544	-19.97
876.717	70.14
876.889	0.51
877.062	-9.73
877.234	53.76
877.407	-19.97
877.579	14.85
877.752	-28.16
877.924	-1.54
878.097	-42.5
878.269	-15.87
878.442	41.47
878.614	33.28
878.786	-36.35
878.959	37.38
879.131	8.7
879.303	-83.45
879.476	20.99
879.648	43.52
879.82	66.05
879.993	53.76
880.165	29.18
880.337	86.53
880.509	10.75
880.681	0.51
880.854	27.14
881.026	-22.02
881.198	92.67
881.37	25.09
881.542	49.66
881.714	-11.78
881.886	10.75
882.058	0.51
882.23	-9.73
882.402	16.9
882.574	100.86
882.746	2.56
882.918	47.62
883.09	4.61
883.262	4.61
883.434	68.09
883.606	-3.58
883.778	49.66
883.95	49.66
884.122	-48.64
884.293	55.81
884.465	70.14
884.637	39.42
884.809	0.51
884.98	-38.4
885.152	16.9
885.324	57.86
885.496	33.28
885.667	72.19
885.839	-1.54
886.011	90.62
886.182	33.28
886.354	33.28
886.525	2.56
886.697	59.9
886.869	14.85
887.04	20.99
887.212	-15.87
887.383	16.9
887.555	29.18
887.726	-34.3
887.897	-3.58
888.069	47.62
888.24	6.66
888.412	16.9
888.583	12.8
888.754	29.18
888.926	4.61
889.097	31.23
889.268	-11.78
889.44	31.23
889.611	37.38
889.782	51.71
889.953	16.9
890.125	-9.73
890.296	53.76
890.467	70.14
890.638	74.24
890.809	33.28
890.98	25.09
891.151	-114.17
891.323	53.76
891.494	-28.16
891.665	25.09
891.836	-44.54
892.007	45.57
892.178	-28.16
892.349	33.28
892.52	10.75
892.691	57.86
892.862	31.23
893.032	-1.54
893.203	20.99
893.374	41.47
893.545	-15.87
893.716	25.09
893.887	51.71
894.057	27.14
894.228	8.7
894.399	25.09
894.57	94.72
894.74	-9.73
894.911	2.56
895.082	-73.21
895.253	-7.68
895.423	-15.87
895.594	76.29
895.764	23.04
895.935	-13.82
896.106	23.04
896.276	-1.54
896.447	45.57
896.617	-26.11
896.788	20.99
896.958	23.04
897.129	0.51
897.299	61.95
897.47	88.57
897.64	98.81
897.81	4.61
897.981	-9.73
898.151	-19.97
898.322	-5.63
898.492	-77.31
898.662	-24.06
898.832	-1.54
899.003	-19.97
899.173	23.04
899.343	66.05
899.513	-32.26
