Data from USB4F104151__80__11-45-33-827.txt Node

Date: Fri Mar 14 11:45:33 EDT 2025
User: louis
Spectrometer: USB4F10415
Trigger mode: 4
Integration Time (sec): 2.000000E-2
Scans to average: 1
Electric dark correction enabled: true
Nonlinearity correction enabled: false
Boxcar width: 0
XAxis mode: Wavelengths
Number of Pixels in Spectrum: 3648
>>>>>Begin Spectral Data<<<<<
178.204	-93.35
178.424	-93.35
178.644	-93.35
178.864	-36.01
179.084	-58.54
179.304	-40.11
179.524	25.43
179.744	-50.35
179.964	-1.19
180.184	-7.34
180.404	13.14
180.624	-29.87
180.844	-23.72
181.064	0.85
181.283	29.52
181.503	39.76
181.723	43.86
181.943	43.86
182.163	64.34
182.383	41.81
182.602	127.83
182.822	115.54
183.042	21.33
183.262	7
183.482	33.62
183.701	-5.29
183.921	31.57
184.141	39.76
184.361	-38.06
184.58	43.86
184.8	35.67
185.02	35.67
185.239	80.72
185.459	11.09
185.679	66.39
185.898	-25.77
186.118	50
186.338	21.33
186.557	33.62
186.777	31.57
186.997	35.67
187.216	29.52
187.436	31.57
187.655	19.29
187.875	62.29
188.095	39.76
188.314	113.49
188.534	80.72
188.753	43.86
188.973	27.48
189.192	27.48
189.412	-3.24
189.631	80.72
189.851	52.05
190.07	-9.39
190.29	-11.43
190.509	35.67
190.729	72.53
190.948	68.44
191.168	113.49
191.387	113.49
191.607	15.19
191.826	25.43
192.045	60.24
192.265	7
192.484	29.52
192.704	-21.67
192.923	41.81
193.142	23.38
193.362	66.39
193.581	121.68
193.8	74.58
194.02	33.62
194.239	64.34
194.458	33.62
194.678	37.72
194.897	41.81
195.116	101.2
195.335	103.25
195.555	111.44
195.774	11.09
195.993	66.39
196.212	13.14
196.432	62.29
196.651	37.72
196.87	50
197.089	76.63
197.308	121.68
197.528	123.73
197.747	31.57
197.966	68.44
198.185	45.91
198.404	93.01
198.623	-27.82
198.842	86.87
199.062	39.76
199.281	60.24
199.5	56.15
199.719	95.06
199.938	72.53
200.157	50
200.376	-17.58
200.595	23.38
200.814	52.05
201.033	45.91
201.252	72.53
201.471	15.19
201.69	93.01
201.909	107.35
202.128	105.3
202.347	84.82
202.566	47.96
202.785	-3.24
203.004	68.44
203.223	133.97
203.442	9.05
203.661	17.24
203.879	41.81
204.098	60.24
204.317	19.29
204.536	45.91
204.755	-36.01
204.974	68.44
205.193	27.48
205.411	-3.24
205.63	37.72
205.849	9.05
206.068	111.44
206.287	99.16
206.505	95.06
206.724	31.57
206.943	52.05
207.162	2.9
207.381	66.39
207.599	47.96
207.818	-5.29
208.037	86.87
208.255	33.62
208.474	97.11
208.693	119.64
208.911	74.58
209.13	76.63
209.349	115.54
209.567	25.43
209.786	99.16
210.005	45.91
210.223	31.57
210.442	-29.87
210.661	23.38
210.879	111.44
211.098	107.35
211.316	2.9
211.535	88.92
211.753	78.68
211.972	152.4
212.191	31.57
212.409	-36.01
212.628	66.39
212.846	105.3
213.065	70.48
213.283	0.85
213.502	97.11
213.72	45.91
213.938	62.29
214.157	54.1
214.375	90.96
214.594	66.39
214.812	90.96
215.031	41.81
215.249	88.92
215.467	56.15
215.686	80.72
215.904	50
216.122	82.77
216.341	56.15
216.559	27.48
216.778	74.58
216.996	60.24
217.214	29.52
217.432	27.48
217.651	25.43
217.869	56.15
218.087	41.81
218.306	-3.24
218.524	33.62
218.742	-9.39
218.96	33.62
219.179	33.62
219.397	29.52
219.615	76.63
219.833	52.05
220.051	33.62
220.27	60.24
220.488	72.53
220.706	78.68
220.924	11.09
221.142	54.1
221.36	0.85
221.578	31.57
221.796	86.87
222.015	105.3
222.233	39.76
222.451	103.25
222.669	66.39
222.887	82.77
223.105	27.48
223.323	113.49
223.541	23.38
223.759	133.97
223.977	72.53
224.195	111.44
224.413	47.96
224.631	58.2
224.849	62.29
225.067	150.36
225.285	11.09
225.503	68.44
225.721	-33.96
225.939	78.68
226.157	-1.19
226.375	125.78
226.592	0.85
226.81	-19.63
227.028	23.38
227.246	131.92
227.464	107.35
227.682	70.48
227.9	93.01
228.117	68.44
228.335	129.88
228.553	56.15
228.771	45.91
228.989	90.96
229.206	39.76
229.424	37.72
229.642	47.96
229.86	13.14
230.077	56.15
230.295	56.15
230.513	35.67
230.731	45.91
230.948	74.58
231.166	15.19
231.384	93.01
231.601	54.1
231.819	70.48
232.037	9.05
232.254	7
232.472	17.24
232.689	43.86
232.907	56.15
233.125	64.34
233.342	45.91
233.56	84.82
233.777	19.29
233.995	86.87
234.213	-5.29
234.43	60.24
234.648	43.86
234.865	-5.29
235.083	160.59
235.3	21.33
235.518	21.33
235.735	74.58
235.953	39.76
236.17	2.9
236.388	68.44
236.605	121.68
236.822	142.16
237.04	27.48
237.257	43.86
237.475	23.38
237.692	17.24
237.909	119.64
238.127	52.05
238.344	47.96
238.562	68.44
238.779	86.87
238.996	29.52
239.214	68.44
239.431	27.48
239.648	-3.24
239.865	25.43
240.083	90.96
240.3	-3.24
240.517	25.43
240.735	60.24
240.952	127.83
241.169	95.06
241.386	41.81
241.603	90.96
241.821	7
242.038	-46.25
242.255	15.19
242.472	60.24
242.689	47.96
242.907	27.48
243.124	45.91
243.341	50
243.558	82.77
243.775	-15.53
243.992	64.34
244.209	54.1
244.426	123.73
244.643	90.96
244.86	58.2
245.078	119.64
245.295	-29.87
245.512	50
245.729	35.67
245.946	52.05
246.163	13.14
246.38	58.2
246.597	93.01
246.814	19.29
247.031	31.57
247.248	56.15
247.464	60.24
247.681	43.86
247.898	54.1
248.115	90.96
248.332	43.86
248.549	107.35
248.766	23.38
248.983	17.24
249.2	19.29
249.417	64.34
249.633	72.53
249.85	39.76
250.067	72.53
250.284	-62.63
250.501	123.73
250.717	62.29
250.934	72.53
251.151	33.62
251.368	60.24
251.585	29.52
251.801	84.82
252.018	52.05
252.235	84.82
252.451	78.68
252.668	64.34
252.885	107.35
253.102	45.91
253.318	54.1
253.535	54.1
253.752	31.57
253.968	109.4
254.185	74.58
254.401	74.58
254.618	23.38
254.835	54.1
255.051	152.4
255.268	19.29
255.484	62.29
255.701	113.49
255.917	29.52
256.134	11.09
256.351	35.67
256.567	31.57
256.784	-19.63
257	33.62
257.217	99.16
257.433	52.05
257.65	56.15
257.866	35.67
258.082	21.33
258.299	47.96
258.515	66.39
258.732	70.48
258.948	45.91
259.165	29.52
259.381	29.52
259.597	60.24
259.814	45.91
260.03	74.58
260.246	88.92
260.463	82.77
260.679	31.57
260.895	13.14
261.112	52.05
261.328	107.35
261.544	4.95
261.761	90.96
261.977	33.62
262.193	19.29
262.409	47.96
262.626	56.15
262.842	66.39
263.058	56.15
263.274	-21.67
263.49	11.09
263.707	93.01
263.923	66.39
264.139	9.05
264.355	93.01
264.571	88.92
264.787	72.53
265.004	58.2
265.22	82.77
265.436	41.81
265.652	9.05
265.868	27.48
266.084	43.86
266.3	17.24
266.516	23.38
266.732	39.76
266.948	15.19
267.164	70.48
267.38	78.68
267.596	29.52
267.812	105.3
268.028	54.1
268.244	62.29
268.46	68.44
268.676	31.57
268.892	31.57
269.108	-5.29
269.324	50
269.54	-21.67
269.756	101.2
269.972	76.63
270.188	97.11
270.403	4.95
270.619	-1.19
270.835	56.15
271.051	-15.53
271.267	-1.19
271.483	88.92
271.698	43.86
271.914	119.64
272.13	47.96
272.346	76.63
272.562	4.95
272.777	103.25
272.993	27.48
273.209	39.76
273.425	97.11
273.64	19.29
273.856	99.16
274.072	72.53
274.287	9.05
274.503	29.52
274.719	111.44
274.934	50
275.15	-11.43
275.366	-1.19
275.581	68.44
275.797	64.34
276.012	84.82
276.228	86.87
276.444	17.24
276.659	64.34
276.875	68.44
277.09	86.87
277.306	56.15
277.521	70.48
277.737	90.96
277.952	90.96
278.168	80.72
278.383	74.58
278.599	41.81
278.814	54.1
279.03	41.81
279.245	-3.24
279.461	45.91
279.676	140.12
279.892	68.44
280.107	19.29
280.322	15.19
280.538	35.67
280.753	109.4
280.969	88.92
281.184	17.24
281.399	60.24
281.615	127.83
281.83	47.96
282.045	50
282.26	45.91
282.476	84.82
282.691	138.07
282.906	27.48
283.122	72.53
283.337	90.96
283.552	60.24
283.767	25.43
283.983	80.72
284.198	9.05
284.413	121.68
284.628	74.58
284.843	90.96
285.058	56.15
285.274	95.06
285.489	25.43
285.704	13.14
285.919	25.43
286.134	80.72
286.349	64.34
286.564	23.38
286.779	68.44
286.995	62.29
287.21	105.3
287.425	27.48
287.64	-3.24
287.855	80.72
288.07	17.24
288.285	50
288.5	41.81
288.715	60.24
288.93	109.4
289.145	66.39
289.36	54.1
289.575	80.72
289.79	66.39
290.004	39.76
290.219	80.72
290.434	29.52
290.649	70.48
290.864	19.29
291.079	133.97
291.294	150.36
291.509	19.29
291.724	109.4
291.938	66.39
292.153	39.76
292.368	58.2
292.583	80.72
292.798	31.57
293.012	95.06
293.227	72.53
293.442	82.77
293.657	4.95
293.871	76.63
294.086	11.09
294.301	88.92
294.516	90.96
294.73	125.78
294.945	27.48
295.16	39.76
295.374	111.44
295.589	115.54
295.804	54.1
296.018	19.29
296.233	56.15
296.447	72.53
296.662	21.33
296.877	101.2
297.091	66.39
297.306	60.24
297.52	-54.44
297.735	21.33
297.949	76.63
298.164	27.48
298.378	109.4
298.593	41.81
298.807	60.24
299.022	47.96
299.236	107.35
299.451	13.14
299.665	103.25
299.88	33.62
300.094	27.48
300.309	-9.39
300.523	47.96
300.737	101.2
300.952	2.9
301.166	62.29
301.381	82.77
301.595	78.68
301.809	58.2
302.024	13.14
302.238	54.1
302.452	97.11
302.667	31.57
302.881	39.76
303.095	105.3
303.309	117.59
303.524	9.05
303.738	107.35
303.952	54.1
304.166	97.11
304.381	4.95
304.595	115.54
304.809	17.24
305.023	27.48
305.237	74.58
305.452	76.63
305.666	37.72
305.88	47.96
306.094	60.24
306.308	99.16
306.522	95.06
306.736	66.39
306.95	33.62
307.164	52.05
307.379	95.06
307.593	146.26
307.807	27.48
308.021	19.29
308.235	17.24
308.449	41.81
308.663	121.68
308.877	150.36
309.091	60.24
309.305	90.96
309.519	23.38
309.733	23.38
309.947	17.24
310.161	56.15
310.374	72.53
310.588	45.91
310.802	66.39
311.016	95.06
311.23	56.15
311.444	111.44
311.658	37.72
311.872	86.87
312.085	31.57
312.299	80.72
312.513	93.01
312.727	-13.48
312.941	-25.77
313.154	72.53
313.368	23.38
313.582	117.59
313.796	68.44
314.009	56.15
314.223	88.92
314.437	109.4
314.651	76.63
314.864	52.05
315.078	78.68
315.292	23.38
315.505	23.38
315.719	99.16
315.933	76.63
316.146	45.91
316.36	41.81
316.573	66.39
316.787	90.96
317.001	70.48
317.214	39.76
317.428	19.29
317.641	19.29
317.855	76.63
318.068	13.14
318.282	76.63
318.495	168.79
318.709	41.81
318.922	58.2
319.136	123.73
319.349	64.34
319.563	101.2
319.776	119.64
319.99	37.72
320.203	60.24
320.417	43.86
320.63	138.07
320.843	52.05
321.057	52.05
321.27	88.92
321.483	60.24
321.697	117.59
321.91	35.67
322.124	74.58
322.337	13.14
322.55	54.1
322.763	97.11
322.977	78.68
323.19	76.63
323.403	133.97
323.617	47.96
323.83	156.5
324.043	66.39
324.256	82.77
324.469	7
324.683	127.83
324.896	47.96
325.109	125.78
325.322	25.43
325.535	15.19
325.748	33.62
325.962	9.05
326.175	113.49
326.388	19.29
326.601	21.33
326.814	45.91
327.027	35.67
327.24	117.59
327.453	97.11
327.666	47.96
327.879	19.29
328.092	82.77
328.305	78.68
328.518	150.36
328.731	125.78
328.944	80.72
329.157	136.02
329.37	43.86
329.583	144.21
329.796	78.68
330.009	-11.43
330.222	138.07
330.435	47.96
330.648	47.96
330.861	60.24
331.073	27.48
331.286	86.87
331.499	160.59
331.712	60.24
331.925	52.05
332.138	54.1
332.35	82.77
332.563	43.86
332.776	148.31
332.989	52.05
333.202	13.14
333.414	103.25
333.627	0.85
333.84	54.1
334.053	78.68
334.265	76.63
334.478	45.91
334.691	29.52
334.903	127.83
335.116	47.96
335.329	41.81
335.541	31.57
335.754	56.15
335.966	64.34
336.179	2.9
336.392	127.83
336.604	25.43
336.817	90.96
337.029	66.39
337.242	56.15
337.454	76.63
337.667	31.57
337.88	9.05
338.092	62.29
338.305	9.05
338.517	93.01
338.729	109.4
338.942	86.87
339.154	64.34
339.367	17.24
339.579	84.82
339.792	52.05
340.004	58.2
340.217	27.48
340.429	88.92
340.641	76.63
340.854	95.06
341.066	74.58
341.278	64.34
341.491	78.68
341.703	68.44
341.915	9.05
342.128	97.11
342.34	15.19
342.552	78.68
342.764	72.53
342.977	144.21
343.189	39.76
343.401	103.25
343.613	-11.43
343.826	66.39
344.038	17.24
344.25	84.82
344.462	76.63
344.674	50
344.886	90.96
345.099	78.68
345.311	23.38
345.523	84.82
345.735	-13.48
345.947	109.4
346.159	76.63
346.371	56.15
346.583	-7.34
346.795	90.96
347.007	62.29
347.219	29.52
347.431	52.05
347.643	68.44
347.855	80.72
348.067	58.2
348.279	74.58
348.491	64.34
348.703	56.15
348.915	125.78
349.127	43.86
349.339	101.2
349.551	-25.77
349.763	31.57
349.975	97.11
350.187	78.68
350.399	19.29
350.61	76.63
350.822	35.67
351.034	115.54
351.246	72.53
351.458	-9.39
351.669	125.78
351.881	86.87
352.093	80.72
352.305	54.1
352.517	70.48
352.728	31.57
352.94	70.48
353.152	95.06
353.363	105.3
353.575	72.53
353.787	97.11
353.999	43.86
354.21	133.97
354.422	29.52
354.633	95.06
354.845	15.19
355.057	68.44
355.268	84.82
355.48	123.73
355.692	86.87
355.903	105.3
356.115	21.33
356.326	72.53
356.538	99.16
356.749	93.01
356.961	113.49
357.172	56.15
357.384	111.44
357.595	93.01
357.807	84.82
358.018	54.1
358.23	56.15
358.441	115.54
358.653	68.44
358.864	86.87
359.075	115.54
359.287	35.67
359.498	101.2
359.709	70.48
359.921	86.87
360.132	111.44
360.344	144.21
360.555	113.49
360.766	88.92
360.977	52.05
361.189	72.53
361.4	78.68
361.611	97.11
361.823	72.53
362.034	54.1
362.245	35.67
362.456	33.62
362.667	29.52
362.879	25.43
363.09	101.2
363.301	95.06
363.512	35.67
363.723	88.92
363.935	76.63
364.146	78.68
364.357	11.09
364.568	97.11
364.779	82.77
364.99	72.53
365.201	7
365.412	109.4
365.623	11.09
365.834	113.49
366.045	31.57
366.256	99.16
366.467	74.58
366.678	80.72
366.889	52.05
367.1	35.67
367.311	52.05
367.522	97.11
367.733	99.16
367.944	138.07
368.155	97.11
368.366	15.19
368.577	111.44
368.788	45.91
368.999	105.3
369.209	78.68
369.42	144.21
369.631	144.21
369.842	76.63
370.053	78.68
370.264	140.12
370.474	68.44
370.685	58.2
370.896	95.06
371.107	74.58
371.317	58.2
371.528	62.29
371.739	54.1
371.95	121.68
372.16	15.19
372.371	50
372.582	56.15
372.792	56.15
373.003	105.3
373.214	58.2
373.424	107.35
373.635	19.29
373.846	109.4
374.056	45.91
374.267	56.15
374.477	90.96
374.688	37.72
374.898	78.68
375.109	43.86
375.319	33.62
375.53	111.44
375.74	68.44
375.951	25.43
376.161	84.82
376.372	88.92
376.582	64.34
376.793	105.3
377.003	109.4
377.214	138.07
377.424	93.01
377.635	78.68
377.845	4.95
378.055	109.4
378.266	84.82
378.476	150.36
378.686	129.88
378.897	47.96
379.107	99.16
379.317	62.29
379.528	47.96
379.738	121.68
379.948	37.72
380.158	80.72
380.369	19.29
380.579	60.24
380.789	117.59
380.999	66.39
381.21	45.91
381.42	84.82
381.63	64.34
381.84	111.44
382.05	88.92
382.261	125.78
382.471	144.21
382.681	80.72
382.891	19.29
383.101	72.53
383.311	58.2
383.521	119.64
383.731	88.92
383.941	86.87
384.151	76.63
384.361	35.67
384.571	60.24
384.781	129.88
384.991	105.3
385.201	185.17
385.411	101.2
385.621	54.1
385.831	58.2
386.041	107.35
386.251	60.24
386.461	56.15
386.671	127.83
386.881	90.96
387.091	72.53
387.301	105.3
387.511	95.06
387.72	68.44
387.93	33.62
388.14	27.48
388.35	164.69
388.56	127.83
388.769	84.82
388.979	56.15
389.189	154.45
389.399	121.68
389.609	60.24
389.818	117.59
390.028	-15.53
390.238	101.2
390.447	140.12
390.657	185.17
390.867	66.39
391.076	33.62
391.286	80.72
391.496	103.25
391.705	99.16
391.915	142.16
392.125	68.44
392.334	74.58
392.544	101.2
392.753	140.12
392.963	93.01
393.172	117.59
393.382	68.44
393.591	56.15
393.801	23.38
394.01	84.82
394.22	152.4
394.429	95.06
394.639	111.44
394.848	133.97
395.058	-7.34
395.267	131.92
395.477	146.26
395.686	78.68
395.895	140.12
396.105	121.68
396.314	95.06
396.524	125.78
396.733	138.07
396.942	111.44
397.152	138.07
397.361	142.16
397.57	154.45
397.78	168.79
397.989	88.92
398.198	88.92
398.407	138.07
398.617	80.72
398.826	111.44
399.035	23.38
399.244	162.64
399.453	95.06
399.663	129.88
399.872	133.97
400.081	72.53
400.29	144.21
400.499	140.12
400.708	68.44
400.917	140.12
401.127	148.31
401.336	93.01
401.545	222.03
401.754	168.79
401.963	107.35
402.172	179.03
402.381	80.72
402.59	209.75
402.799	150.36
403.008	156.5
403.217	179.03
403.426	144.21
403.635	140.12
403.844	158.55
404.053	154.45
404.262	99.16
404.471	209.75
404.68	183.12
404.888	119.64
405.097	195.41
405.306	183.12
405.515	140.12
405.724	232.27
405.933	219.99
406.142	197.46
406.35	226.13
406.559	183.12
406.768	187.22
406.977	328.53
407.185	258.9
407.394	187.22
407.603	265.04
407.812	242.51
408.02	248.66
408.229	252.75
408.438	240.47
408.646	219.99
408.855	269.14
409.064	328.53
409.272	369.49
409.481	344.91
409.69	359.25
409.898	279.38
410.107	369.49
410.315	416.59
410.524	367.44
410.733	365.39
410.941	371.54
411.15	359.25
411.358	457.55
411.567	480.08
411.775	392.02
411.984	498.51
412.192	559.95
412.401	510.8
412.609	486.22
412.818	607.05
413.026	562
413.234	582.48
413.443	596.81
413.651	621.39
413.86	584.52
414.068	662.35
414.276	731.98
414.485	664.4
414.693	725.83
414.901	783.18
415.11	793.42
415.318	697.16
415.526	828.23
415.734	799.56
415.943	840.52
416.151	924.49
416.359	852.81
416.567	942.92
416.776	934.73
416.984	1012.55
417.192	1055.56
417.4	1024.84
417.608	1131.33
417.817	1225.54
418.025	1190.72
418.233	1293.12
418.441	1264.45
418.649	1379.14
418.857	1366.85
419.065	1432.38
419.273	1442.62
419.481	1491.77
419.689	1502.01
419.897	1612.6
420.105	1628.99
420.313	1684.28
420.521	1813.31
420.729	1712.96
420.937	1895.22
421.145	1897.27
421.353	2032.44
421.561	2044.73
421.769	2097.97
421.977	2339.63
422.185	2243.38
422.393	2306.87
422.601	2511.66
422.809	2511.66
423.017	2427.7
423.224	2667.31
423.432	2816.81
423.64	2593.58
423.848	2974.5
424.056	2880.3
424.263	2949.93
424.471	3042.09
424.679	3138.34
424.887	3304.23
425.094	3484.45
425.302	3482.4
425.51	3433.25
425.718	3691.29
425.925	3629.85
426.133	3922.71
426.341	4129.56
426.548	4162.33
426.756	4299.54
426.964	4281.11
427.171	4596.5
427.379	4772.62
427.586	4756.24
427.794	4746
428.001	5257.99
428.209	5315.33
428.417	5440.26
428.624	5677.82
428.832	5683.97
429.039	5696.25
429.247	5622.53
429.454	6042.36
429.662	6490.87
429.869	6030.07
430.076	6611.7
430.284	6384.37
430.491	6613.74
430.699	7060.2
430.906	7029.48
431.114	7103.21
431.321	7627.49
431.528	7594.72
431.736	7932.64
431.943	8395.48
432.15	8133.34
432.358	8436.44
432.565	8690.38
432.772	8567.51
432.979	9116.36
433.187	9233.1
433.394	9134.79
433.601	9818.82
433.808	9683.65
434.016	9974.46
434.223	10150.59
434.43	11045.55
434.637	10939.05
434.844	11391.66
435.052	11496.1
435.259	11520.68
435.466	11748
435.673	11352.74
435.88	12350.1
436.087	13032.08
436.294	13066.89
436.501	12825.23
436.708	13052.56
436.915	13337.23
437.122	13683.33
437.329	14025.34
437.537	14418.55
437.743	14633.59
437.95	14586.49
438.157	15342.19
438.364	15610.47
438.571	15598.18
438.778	15864.42
438.985	17150.54
439.192	16597.59
439.399	17019.47
439.606	16675.41
439.813	17912.39
440.02	18641.46
440.227	18258.49
440.433	18446.91
440.64	18661.94
440.847	18764.34
441.054	19178.03
441.261	20351.52
441.467	19874.34
441.674	20879.89
441.881	21246.48
442.088	21305.87
442.294	21258.77
442.501	21727.75
442.708	22055.43
442.914	23159.28
443.121	23984.62
443.328	23460.34
443.534	24908.25
443.741	24334.82
443.948	23863.79
444.154	25772.49
444.361	25792.97
444.568	25803.21
444.774	25575.89
444.981	26155.46
445.187	26866.11
445.394	27701.68
445.6	27607.47
445.807	30060.94
446.013	28705.18
446.22	29315.48
446.426	30411.14
446.633	31029.63
446.839	31973.74
447.046	30396.81
447.252	32702.82
447.459	32330.09
447.665	32194.92
447.871	33161.56
448.078	34924.86
448.284	33239.39
448.491	34369.86
448.697	35746.1
448.903	36192.56
449.11	36303.15
449.316	35602.74
449.522	36317.48
449.728	37298.46
449.935	37849.36
450.141	37445.91
450.347	38310.16
450.553	37151.01
450.76	37466.39
450.966	39049.47
451.172	38318.35
451.378	39583.99
451.584	38844.68
451.791	39839.99
451.997	39428.35
452.203	40018.16
452.409	40274.16
452.615	40067.31
452.821	38689.03
453.027	37806.36
453.233	40085.75
453.44	38615.3
453.646	39100.67
453.852	39323.9
454.058	39923.96
454.264	38627.59
454.47	39596.28
454.676	38770.95
454.882	39586.04
455.088	36417.83
455.294	36800.8
455.5	37450.01
455.705	37669.14
455.911	36383.02
456.117	35701.04
456.323	34904.38
456.529	33354.07
456.735	34939.2
456.941	33640.79
457.147	33247.58
457.352	32371.05
457.558	32086.38
457.764	32278.89
457.97	31498.61
458.176	30839.17
458.381	30810.5
458.587	29112.73
458.793	29507.99
458.999	28273.06
459.204	29823.37
459.41	28879.26
459.616	26923.45
459.821	27201.97
460.027	27019.71
460.233	26130.89
460.438	25448.91
460.644	25500.11
460.85	24150.5
461.055	23837.16
461.261	23902.7
461.466	22239.75
461.672	21246.48
461.878	22936.06
462.083	21441.04
462.289	21051.92
462.494	20646.43
462.7	19862.05
462.905	19561
463.111	19853.86
463.316	20181.54
463.522	19393.07
463.727	19489.32
463.932	19743.27
464.138	19163.7
464.343	19644.97
464.549	18864.69
464.754	19468.84
464.959	19345.97
465.165	19016.24
465.37	18254.4
465.575	17828.42
465.781	18430.52
465.986	18584.12
466.191	18082.37
466.397	17627.72
466.602	16943.7
466.807	17744.45
467.012	17412.68
467.218	17371.72
467.423	17441.36
467.628	17238.61
467.833	18061.89
468.038	17416.78
468.244	16943.7
468.449	17494.6
468.654	16943.7
468.859	16669.27
469.064	16915.03
469.269	16142.94
469.474	16171.61
469.679	16704.09
469.885	16171.61
470.09	16351.84
470.295	16116.32
470.5	15794.79
470.705	15909.47
470.91	15544.94
471.115	15487.59
471.32	15710.82
471.525	15526.5
471.73	15114.86
471.935	15006.32
472.139	14443.13
472.344	14699.13
472.549	14731.89
472.754	14674.55
472.959	14371.45
473.164	13777.54
473.369	13777.54
473.574	14011.01
473.778	14330.49
473.983	13879.94
474.188	13886.08
474.393	13202.06
474.598	13304.46
474.802	13087.37
475.007	13187.72
475.212	13073.04
475.417	12470.94
475.621	12567.19
475.826	12632.72
476.031	12464.79
476.235	12139.16
476.44	12370.58
476.645	11969.18
476.849	12153.5
477.054	11860.64
477.259	11786.91
477.463	11907.74
477.668	11403.94
477.872	11520.68
478.077	11661.99
478.282	11379.37
478.486	11260.59
478.691	11186.86
478.895	10930.86
479.1	11086.51
479.304	10994.35
479.509	10681.01
479.713	10826.42
479.918	10472.12
480.122	10422.97
480.326	10498.74
480.531	10635.96
480.735	10533.56
480.94	10195.64
481.144	10756.79
481.348	10482.36
481.553	10236.6
481.757	9939.65
481.961	10400.44
482.166	10506.93
482.37	10287.8
482.574	10044.09
482.778	10097.34
482.983	10420.92
483.187	10236.6
483.391	10128.06
483.595	10160.83
483.8	9970.37
484.004	10066.62
484.208	10144.44
484.412	10156.73
484.616	10087.1
484.821	10048.19
485.025	9894.59
485.229	10121.91
485.433	9939.65
485.637	10140.35
485.841	9886.4
486.045	9915.07
486.249	9986.75
486.453	10083
486.657	10187.45
486.861	10181.31
487.065	9714.37
487.269	10083
487.473	9917.12
487.677	10261.18
487.881	10232.51
488.085	9996.99
488.289	10242.75
488.493	10187.45
488.697	10033.85
488.901	10244.79
489.105	10207.93
489.309	10248.89
489.512	10054.33
489.716	10091.2
489.92	10248.89
490.124	10236.6
490.328	10359.48
490.531	10324.66
490.735	10298.04
490.939	10521.27
491.143	10154.68
491.346	10418.87
491.55	10539.7
491.754	10431.16
491.958	10627.76
492.161	10384.05
492.365	10746.55
492.569	10713.78
492.772	10721.97
492.976	11002.54
493.18	10721.97
493.383	10969.77
493.587	10951.34
493.79	11139.76
493.994	10726.07
494.197	11203.24
494.401	11231.91
494.605	11145.9
494.808	11178.67
495.012	11459.24
495.215	11258.54
495.419	11543.21
495.622	11461.29
495.825	11623.08
496.029	11612.84
496.232	11821.73
496.436	11848.35
496.639	12012.19
496.843	12006.05
497.046	12112.54
497.249	12528.28
497.453	12710.55
497.656	12642.96
497.859	12794.51
498.063	12593.81
498.266	12911.25
498.469	12935.82
498.673	13343.37
498.876	13476.49
499.079	13431.43
499.282	13333.13
499.485	14105.21
499.689	13849.22
499.892	13798.02
500.095	14178.94
500.298	14430.84
500.501	14316.15
500.705	14807.67
500.908	14920.31
501.111	15057.52
501.314	14854.77
501.517	15002.22
501.72	15348.33
501.923	15241.84
502.126	15682.15
502.329	15778.4
502.532	15968.87
502.735	16290.4
502.938	16419.42
503.141	16826.96
503.344	16814.68
503.547	16798.29
503.75	17052.24
503.953	17238.61
504.156	17394.25
504.359	17453.64
504.562	17455.69
504.765	17840.71
504.968	18344.51
505.17	18504.25
505.373	18461.24
505.576	18891.32
505.779	18954.8
505.982	18991.67
506.185	19448.36
506.387	19300.91
506.59	19642.92
506.793	19980.84
506.996	19980.84
507.198	20671
507.401	20474.4
507.604	20744.73
507.807	20965.91
508.009	21330.45
508.212	21094.93
508.415	21146.13
508.617	21615.12
508.82	22028.81
509.022	21955.08
509.225	22489.6
509.428	22643.2
509.63	22604.28
509.833	22802.94
510.035	23407.09
510.238	23656.94
510.44	23599.6
510.643	23951.85
510.845	24287.71
511.048	24191.46
511.25	24619.49
511.453	24558.05
511.655	25518.54
511.858	25084.37
512.06	25442.77
512.262	25706.96
512.465	25457.1
512.667	26227.14
512.87	26466.75
513.072	26333.64
513.274	26845.63
513.477	27046.33
513.679	27404.72
513.881	27468.21
514.084	27943.34
514.286	28156.33
514.488	28152.23
514.69	29047.19
514.893	28899.74
515.095	29176.22
515.297	29563.28
515.499	29544.85
515.701	29718.93
515.904	30534.02
516.106	30327.17
516.308	30460.29
516.51	31105.4
516.712	30765.44
516.914	31719.79
517.116	31807.86
517.318	31799.66
517.52	32024.94
517.722	32289.13
517.925	32874.85
518.127	32942.43
518.329	33067.36
518.531	33446.23
518.733	34109.77
518.935	34466.12
519.136	33849.68
519.338	34423.11
519.54	34916.67
519.742	35164.48
519.944	35012.93
520.146	35848.5
520.348	35819.83
520.55	35737.91
520.752	35944.75
520.954	36860.19
521.155	36622.63
521.357	37335.32
521.559	37472.54
521.761	38517
521.963	37943.57
522.164	38226.19
522.366	38023.44
522.568	38662.41
522.77	39299.33
522.971	39606.52
523.173	38697.22
523.375	39616.76
523.576	39821.56
523.778	39960.82
523.98	40313.07
524.181	40394.99
524.383	40577.26
524.584	41177.31
524.786	41337.05
524.988	40765.67
525.189	41703.64
525.391	41947.35
525.592	41951.45
525.794	42365.13
525.995	42303.7
526.197	42346.7
526.398	42453.2
526.6	42655.95
526.801	42823.88
527.003	43423.93
527.204	43067.59
527.406	43280.58
527.607	43337.92
527.808	43954.36
528.01	43008.2
528.211	43897.02
528.412	44265.65
528.614	44185.78
528.815	44556.46
529.016	44935.34
529.218	44226.74
529.419	44658.86
529.62	44789.93
529.822	44507.31
530.023	44718.25
530.224	45002.92
530.425	45437.09
530.626	44810.41
530.828	44712.11
531.029	45670.56
531.23	45432.99
531.431	44966.06
531.632	45363.36
531.833	45551.77
532.035	45551.77
532.236	45875.35
532.437	45639.84
532.638	45355.17
532.839	45891.74
533.04	45809.82
533.241	45519.01
533.442	45957.27
533.643	45635.74
533.844	46117.01
534.045	45879.45
534.246	45457.57
534.447	46465.17
534.648	46252.18
534.849	45891.74
535.05	46020.76
535.251	46102.68
535.451	45910.17
535.652	46321.81
535.853	45940.89
536.054	45783.19
536.255	46033.05
536.456	45435.04
536.657	46542.99
536.857	46178.45
537.058	45645.98
537.259	46499.98
537.46	46041.24
537.66	45846.68
537.861	46420.11
538.062	45965.46
538.263	46534.8
538.463	46080.15
538.664	46133.4
538.865	46117.01
539.065	46200.98
539.266	45938.84
539.466	46399.63
539.667	45408.42
539.868	46229.65
540.068	46143.64
540.269	45895.83
540.469	46311.57
540.67	46215.32
540.87	46076.05
541.071	46426.26
541.271	46358.67
541.472	46082.2
541.672	46239.89
541.873	45754.52
542.073	45383.84
542.274	46399.63
542.474	45994.14
542.675	45555.87
542.875	46342.29
543.075	46377.11
543.276	45435.04
543.476	46231.7
543.676	45785.24
543.877	46309.52
544.077	46104.73
544.277	45830.3
544.478	45908.12
544.678	46385.3
544.878	46026.9
545.078	45928.6
545.279	45762.72
545.479	45424.8
545.679	45457.57
545.879	46141.59
546.079	45836.44
546.28	45412.51
546.48	45166.76
546.68	45740.19
546.88	45738.14
547.08	45594.78
547.28	45879.45
547.48	45312.16
547.68	45871.26
547.88	45289.63
548.081	46221.46
548.281	45551.77
548.481	45254.82
548.681	45795.48
548.881	45766.81
549.081	45850.78
549.28	45473.95
549.48	45674.65
549.68	45330.59
549.88	45965.46
550.08	45267.11
550.28	45562.01
550.48	45455.52
550.68	46092.44
550.88	45224.1
551.08	45297.83
551.279	45359.27
551.479	45392.03
551.679	45449.38
551.879	45371.55
552.079	45645.98
552.278	45326.5
552.478	45314.21
552.678	45285.54
552.878	45699.23
553.077	45142.18
553.277	44613.8
553.477	45476
553.676	45023.4
553.876	45215.91
554.076	44658.86
554.275	45117.6
554.475	44871.85
554.674	44669.1
554.874	45236.39
555.074	44708.01
555.273	45162.66
555.473	45545.63
555.672	44800.17
555.872	45174.95
556.071	44544.17
556.271	45035.69
556.47	44402.86
556.67	44419.25
556.869	44400.82
557.068	44591.28
557.268	44464.3
557.467	44499.12
557.667	44386.48
557.866	44427.44
558.065	44265.65
558.265	43741.37
558.464	43825.34
558.663	44486.83
558.863	43542.72
559.062	44357.81
559.261	43671.74
559.461	44359.86
559.66	43348.16
559.859	44032.18
560.058	43608.25
560.258	43925.69
560.457	43311.3
560.656	43813.05
560.855	43776.19
561.054	43301.06
561.253	42688.71
561.453	43194.56
561.652	43421.89
561.851	43212.99
562.05	42852.55
562.249	42862.79
562.448	43096.26
562.647	43114.69
562.846	43049.16
563.045	42555.6
563.244	42467.53
563.443	43049.16
563.642	42246.35
563.841	42643.66
564.04	42004.69
564.239	42471.63
564.438	42250.45
564.637	42164.43
564.836	42338.51
565.035	41767.13
565.234	42008.79
565.432	41453.79
565.631	41482.46
565.83	41576.67
566.029	41443.55
566.228	41666.78
566.427	41533.66
566.625	40859.88
566.824	40949.99
567.023	41427.17
567.222	40777.96
567.42	41136.35
567.619	40945.89
567.818	40710.38
568.016	40800.49
568.215	41298.14
568.414	40888.55
568.612	40851.69
568.811	40433.9
569.01	40573.16
569.208	39864.57
569.407	40456.43
569.605	39772.41
569.804	40268.01
570.002	39850.23
570.201	40009.97
570.4	39760.12
570.598	39889.14
570.797	39178.5
570.995	39737.59
571.193	39135.49
571.392	39594.23
571.59	39088.38
571.789	39444.73
571.987	38809.86
572.186	39039.23
572.384	38744.33
572.582	38801.67
572.781	38928.64
572.979	38648.07
573.177	38469.9
573.376	38736.13
573.574	38179.09
573.772	38351.12
573.971	38230.29
574.169	37830.93
574.367	37769.49
574.565	37677.33
574.763	37642.52
574.962	37732.63
575.16	37261.6
575.358	37294.36
575.556	37230.88
575.754	37716.25
575.952	37032.22
576.151	37157.15
576.349	36905.25
576.547	36870.43
576.745	36890.91
576.943	36679.97
577.141	37058.85
577.339	36593.96
577.537	36380.97
577.735	37019.94
577.933	35819.83
578.131	36733.22
578.329	36278.57
578.527	35963.18
578.725	35725.62
578.923	36139.31
579.121	35541.3
579.319	35645.75
579.516	35600.69
579.714	35889.46
579.912	35533.11
580.11	35307.83
580.308	35385.66
580.506	35225.92
580.704	35002.69
580.901	35221.82
581.099	35115.33
581.297	34877.76
581.495	34898.24
581.692	35051.84
581.89	34591.05
582.088	34859.33
582.285	34584.9
582.483	34730.31
582.681	34752.84
582.878	34320.71
583.076	33982.8
583.274	34429.26
583.471	33855.82
583.669	33988.94
583.866	33585.49
584.064	33915.22
584.262	33401.18
584.459	34040.14
584.657	33237.34
584.854	33663.32
585.052	33298.78
585.249	33651.03
585.447	33380.7
585.644	32973.15
585.841	32827.74
586.039	32969.05
586.236	32563.56
586.434	32661.86
586.631	32491.88
586.828	32747.87
587.026	32391.53
587.223	32113
587.42	31963.5
587.618	32412.01
587.815	31838.58
588.012	31840.62
588.21	31977.84
588.407	31932.78
588.604	31598.96
588.801	31183.23
588.999	31211.9
589.196	31443.32
589.393	31510.9
589.59	31490.42
589.787	30978.43
589.984	30863.74
590.182	30730.62
590.379	31197.56
590.576	30642.56
590.773	30886.27
590.97	30925.18
591.167	30783.87
591.364	30075.27
591.561	30294.41
591.758	30275.98
591.955	30370.18
592.152	30607.75
592.349	30065.03
592.546	30228.87
592.743	29919.63
592.94	29831.57
593.137	29745.55
593.334	29981.07
593.531	29452.69
593.727	29794.7
593.924	29501.84
594.121	29610.39
594.318	29645.2
594.515	29139.35
594.712	29415.83
594.908	29036.95
595.105	29200.79
595.302	28787.1
595.499	28909.98
595.696	28660.13
595.892	28557.73
596.089	28649.89
596.286	28660.13
596.482	28668.32
596.679	27980.2
596.876	28555.68
597.072	27883.95
597.269	28197.29
597.466	27730.35
597.662	27795.89
597.859	27924.91
598.055	27883.95
598.252	27615.66
598.448	27716.01
598.645	27765.17
598.841	27423.15
599.038	27552.18
599.234	27589.04
599.431	27158.97
599.627	26876.35
599.824	26845.63
600.02	26814.91
600.217	27611.57
600.413	26911.16
600.609	26902.97
600.806	26556.86
601.002	26808.76
601.198	26204.61
601.395	26272.2
601.591	26216.9
601.787	26603.97
601.984	26268.1
602.18	26282.44
602.376	25993.67
602.572	26061.26
602.769	25924.04
602.965	25672.14
603.161	25860.55
603.357	25594.32
603.553	25565.65
603.75	25940.43
603.946	25450.96
604.142	25704.91
604.338	24951.26
604.534	25360.85
604.73	25399.76
604.926	24998.36
605.122	24850.91
605.318	25016.79
605.514	24871.39
605.71	24840.67
605.906	24605.15
606.102	24777.18
606.298	24748.51
606.494	24609.25
606.69	24488.42
606.886	24574.43
607.082	24136.17
607.278	24553.95
607.474	24170.98
607.67	24306.15
607.866	23880.17
608.062	24213.99
608.257	24285.67
608.453	24084.97
608.649	23874.03
608.845	23679.47
609.041	23892.46
609.236	23904.74
609.432	23740.91
609.628	23806.44
609.824	23513.58
610.019	23613.93
610.215	23343.6
610.411	23577.07
610.606	23271.92
610.802	23634.41
610.998	23704.04
611.193	23351.79
611.389	23175.67
611.584	23144.95
611.78	23298.55
611.976	23208.44
612.171	23304.69
612.367	22962.68
612.562	22665.72
612.758	22684.16
612.953	22661.63
613.149	22958.58
613.344	22893.05
613.539	23083.51
613.735	22659.58
613.93	22409.73
614.126	22710.78
614.321	22673.92
614.517	22501.89
614.712	22596.09
614.907	22446.59
615.103	22501.89
615.298	22196.74
615.493	22635
615.688	22182.4
615.884	22917.62
616.079	22202.88
616.274	22417.92
616.47	22321.66
616.665	22053.38
616.86	21996.04
617.055	22172.16
617.25	22098.44
617.445	21940.74
617.641	21871.11
617.836	21637.64
618.031	21533.2
618.226	22073.86
618.421	21563.92
618.616	21781
618.811	21228.05
619.006	21666.31
619.201	21393.93
619.396	21314.06
619.591	21072.4
619.786	21275.15
619.981	20955.67
620.176	21305.87
620.371	20705.82
620.566	20541.98
620.761	20660.76
620.956	20797.98
621.151	20634.14
621.346	20333.09
621.541	20251.17
621.735	20490.78
621.93	19986.98
622.125	20054.56
622.32	19896.87
622.515	19780.14
622.709	19675.69
622.904	19808.81
623.099	19524.14
623.294	19874.34
623.488	19462.7
623.683	19231.28
623.878	19008.05
624.072	19092.02
624.267	19102.26
624.462	18989.62
624.656	18795.06
624.851	18868.79
625.046	18559.55
625.24	18573.88
625.435	18483.77
625.629	18444.86
625.824	18164.29
626.018	18481.72
626.213	17660.49
626.407	18045.51
626.602	17717.83
626.796	17912.39
626.991	17803.85
627.185	17535.56
627.38	17760.84
627.574	17453.64
627.768	17205.84
627.963	17218.13
628.157	17003.09
628.352	17093.2
628.546	16751.19
628.74	16857.68
628.935	16556.63
629.129	16822.87
629.323	16208.48
629.517	16544.34
629.712	16208.48
629.906	16220.77
630.1	16317.02
630.294	16226.91
630.489	15858.28
630.683	16114.27
630.877	15938.15
631.071	15614.57
631.265	15671.91
631.459	15594.09
631.653	15702.63
631.848	15698.53
632.042	15043.18
632.236	15274.6
632.43	15172.21
632.624	15129.2
632.818	14936.69
633.012	14955.12
633.206	14750.32
633.4	14832.24
633.594	14678.65
633.788	14905.97
633.982	14383.74
634.176	14547.58
634.369	14408.31
634.563	14475.9
634.757	14381.69
634.951	14563.96
635.145	14199.42
635.339	14236.28
635.533	14133.89
635.726	14185.08
635.92	13595.27
636.114	13929.09
636.308	13800.07
636.501	13597.32
636.695	13615.75
636.889	13625.99
637.083	13556.36
637.276	13318.79
637.47	13306.51
637.664	13257.36
637.857	13161.1
638.051	13404.81
638.244	12831.38
638.438	12978.83
638.632	12935.82
638.825	13058.7
639.019	12790.42
639.212	12724.88
639.406	12833.43
639.599	12595.86
639.793	12622.48
639.986	12470.94
640.18	12405.4
640.373	12083.87
640.567	12235.42
640.76	12350.1
640.954	12057.25
641.147	12288.67
641.34	12247.71
641.534	11745.95
641.727	11821.73
641.92	11856.54
642.114	11592.36
642.307	11696.8
642.5	11637.41
642.694	11625.12
642.887	11752.1
643.08	11741.86
643.273	11453.09
643.467	11264.68
643.66	11129.52
643.853	11358.89
644.046	11098.8
644.239	11119.28
644.432	11012.78
644.626	11178.67
644.819	11027.12
645.012	10969.77
645.205	10865.33
645.398	10955.44
645.591	10652.34
645.784	10795.7
645.977	10627.76
646.17	10453.69
646.363	10521.27
646.556	10535.6
646.749	10480.31
646.942	10500.79
647.135	10504.89
647.328	10212.03
647.521	10154.68
647.714	10160.83
647.907	10064.57
648.099	10076.86
648.292	9978.56
648.485	10095.29
648.678	9894.59
648.871	9892.54
649.064	9872.06
649.256	9966.27
649.449	9767.62
649.642	9765.57
649.835	9597.63
650.027	9562.82
650.22	9466.56
650.413	9505.48
650.605	9517.76
650.798	9462.47
650.991	9319.11
651.183	9292.49
651.376	9114.31
651.568	9192.14
651.761	9331.4
651.954	9036.49
652.146	9038.54
652.339	8950.48
652.531	8874.7
652.724	8827.6
652.916	8860.37
653.109	8805.07
653.301	8760.02
653.494	8768.21
653.686	8372.95
653.879	8663.76
654.071	8559.31
654.263	8544.98
654.456	8463.06
654.648	8393.43
654.84	8168.15
655.033	8432.34
655.225	8245.98
655.417	8354.52
655.61	8278.74
655.802	8170.2
655.994	8166.1
656.186	8198.87
656.379	8129.24
656.571	8006.36
656.763	8028.89
656.955	7936.73
657.148	7873.25
657.34	7813.85
657.532	7772.89
657.724	7690.98
657.916	7631.58
658.108	7613.15
658.3	7635.68
658.492	7473.89
658.684	7475.94
658.876	7537.38
659.068	7482.08
659.26	7408.36
659.452	7342.82
659.644	7312.1
659.836	7301.86
660.028	7389.92
660.22	7221.99
660.412	7160.55
660.604	7011.05
660.796	7080.68
660.988	7199.46
661.18	7201.51
661.372	6990.57
661.563	7205.61
661.755	6986.47
661.947	6916.84
662.139	6929.13
662.331	6783.73
662.522	6666.99
662.714	6730.48
662.906	6781.68
663.097	6648.56
663.289	6591.22
663.481	6630.13
663.673	6648.56
663.864	6556.4
664.056	6458.1
664.247	6546.16
664.439	6431.48
664.631	6427.38
664.822	6472.43
665.014	6638.32
665.205	6359.8
665.397	6300.41
665.588	6329.08
665.78	6290.17
665.971	6187.77
666.163	6355.7
666.354	6191.86
666.546	6105.85
666.737	6109.94
666.929	6085.37
667.12	6152.95
667.311	6091.51
667.503	5835.52
667.694	6034.17
667.885	5954.3
668.077	5882.62
668.268	5757.69
668.459	5892.86
668.651	5860.09
668.842	5708.54
669.033	5839.61
669.224	5702.4
669.416	5872.38
669.607	5864.19
669.798	5788.41
669.989	5526.27
670.18	5622.53
670.371	5784.32
670.563	5556.99
670.754	5704.45
670.945	5626.62
671.136	5432.07
671.327	5458.69
671.518	5434.11
671.709	5501.7
671.9	5407.49
672.091	5405.44
672.282	5458.69
672.473	5315.33
672.664	5335.81
672.855	5366.53
673.046	5282.56
673.237	5262.09
673.428	5329.67
673.619	5268.23
673.809	5241.61
674	5169.93
674.191	5225.22
674.382	5112.58
674.573	5241.61
674.764	5075.72
674.954	5159.69
675.145	5022.47
675.336	4991.75
675.527	5034.76
675.717	5206.79
675.908	5032.71
676.099	4834.06
676.289	4918.03
676.48	4881.16
676.671	4885.26
676.861	4862.73
677.052	4883.21
677.243	4915.98
677.433	4838.16
677.624	4821.77
677.814	4750.09
678.005	4975.37
678.195	4729.61
678.386	4782.86
678.576	4856.59
678.767	4889.35
678.957	4729.61
679.148	4752.14
679.338	4774.67
679.529	4698.89
679.719	4731.66
679.909	4829.96
680.1	4592.4
680.29	4641.55
680.481	4739.85
680.671	4573.97
680.861	4461.33
681.052	4801.29
681.242	4537.1
681.432	4680.46
681.622	4537.1
681.813	4596.5
682.003	4432.66
682.193	4584.21
682.383	4746
682.573	4676.37
682.764	4545.3
682.954	4473.62
683.144	4371.22
683.334	4375.31
683.524	4391.7
683.714	4387.6
683.904	4426.51
684.094	4440.85
684.284	4311.83
684.474	4360.98
684.664	4272.92
684.854	4238.1
685.044	4311.83
685.234	4395.79
685.424	4338.45
685.614	4279.06
685.804	4240.15
685.994	4317.97
686.184	4283.16
686.374	4266.77
686.564	4170.52
686.753	4223.76
686.943	4147.99
687.133	4238.1
687.323	4180.76
687.513	4008.73
687.702	3943.19
687.892	4025.11
688.082	4029.21
688.272	4043.54
688.461	4055.83
688.651	3961.62
688.841	4072.22
689.03	3953.43
689.22	3910.43
689.41	3914.52
689.599	3965.72
689.789	3978.01
689.979	3836.7
690.168	3867.42
690.358	3828.51
690.547	3828.51
690.737	3842.84
690.926	3789.6
691.116	3674.91
691.305	3836.7
691.495	3611.42
691.684	3828.51
691.874	3683.1
692.063	3744.54
692.252	3799.84
692.442	3623.71
692.631	3621.66
692.82	3646.24
693.01	3517.22
693.199	3648.29
693.388	3533.6
693.578	3595.04
693.767	3437.34
693.956	3543.84
694.146	3535.65
694.335	3484.45
694.524	3332.9
694.713	3515.17
694.902	3547.94
695.092	3541.79
695.281	3388.19
695.47	3398.43
695.659	3359.52
695.848	3353.38
696.037	3445.54
696.226	3502.88
696.415	3402.53
696.604	3398.43
696.793	3300.13
696.982	3328.8
697.171	3353.38
697.36	3408.67
697.549	3259.17
697.738	3312.42
697.927	3390.24
698.116	3279.65
698.305	3218.21
698.494	3226.4
698.683	3232.55
698.872	3273.51
699.061	3160.87
699.25	3218.21
699.438	3234.6
699.627	3386.15
699.816	3179.3
700.005	3255.08
700.193	3173.16
700.382	3355.43
700.571	3197.73
700.76	3281.7
700.948	3281.7
701.137	3207.97
701.326	3171.11
701.514	3089.19
701.703	3275.56
701.892	3187.49
702.08	3156.77
702.269	3167.01
702.457	3195.68
702.646	3158.82
702.834	3130.15
703.023	3195.68
703.212	3042.09
703.4	3138.34
703.589	3160.87
703.777	3140.39
703.965	3023.66
704.154	3033.9
704.342	3025.7
704.531	3253.03
704.719	3158.82
704.907	3136.29
705.096	3124.01
705.284	3205.92
705.472	3025.7
705.661	3187.49
705.849	2997.03
706.037	3128.1
706.226	2997.03
706.414	3003.18
706.602	3105.57
706.79	3007.27
706.979	2915.11
707.167	3175.2
707.355	3027.75
707.543	3085.09
707.731	3023.66
707.919	2911.02
708.107	3007.27
708.296	3101.48
708.484	2972.46
708.672	3029.8
708.86	2917.16
709.048	3058.47
709.236	2945.83
709.424	2988.84
709.612	3085.09
709.8	3099.43
709.988	3081
710.176	3005.22
710.364	3076.9
710.551	2974.5
710.739	2970.41
710.927	3013.42
711.115	3005.22
711.303	2988.84
711.491	2951.98
711.679	2980.65
711.866	2919.21
712.054	3105.57
712.242	2997.03
712.43	2933.54
712.617	3050.28
712.805	3027.75
712.993	3035.94
713.181	3062.57
713.368	3035.94
713.556	3046.18
713.744	2890.54
713.931	3048.23
714.119	2868.01
714.306	2984.74
714.494	2892.59
714.682	2939.69
714.869	2853.67
715.057	2978.6
715.244	3029.8
715.432	2990.89
715.619	3074.85
715.807	2994.98
715.994	2921.26
716.182	2880.3
716.369	2919.21
716.556	2771.76
716.744	2843.43
716.931	2949.93
717.119	2960.17
717.306	2956.07
717.493	2855.72
717.681	2994.98
717.868	2845.48
718.055	2911.02
718.242	3087.14
718.43	3017.51
718.617	2769.71
718.804	2833.19
718.991	2951.98
719.179	3009.32
719.366	2908.97
719.553	2943.78
719.74	2798.38
719.927	2929.45
720.114	2835.24
720.301	2808.62
720.488	2898.73
720.676	2818.86
720.863	2845.48
721.05	2927.4
721.237	2843.43
721.424	2822.95
721.611	2734.89
721.798	2825
721.985	2947.88
722.172	2849.58
722.358	2855.72
722.545	2894.63
722.732	2870.06
722.919	2966.31
723.106	2872.11
723.293	2745.13
723.48	2798.38
723.667	2802.47
723.853	2810.67
724.04	2958.12
724.227	2865.96
724.414	2784.04
724.6	2812.71
724.787	2775.85
724.974	2874.15
725.161	2870.06
725.347	2786.09
725.534	2816.81
725.72	2859.82
725.907	2829.1
726.094	2831.15
726.28	2818.86
726.467	2863.91
726.653	2878.25
726.84	2847.53
727.027	2812.71
727.213	2755.37
727.4	2683.69
727.586	2775.85
727.773	2874.15
727.959	2919.21
728.145	2841.39
728.332	2661.16
728.518	2878.25
728.705	2818.86
728.891	2816.81
729.077	2845.48
729.264	2806.57
729.45	2790.19
729.636	2880.3
729.823	2874.15
730.009	3013.42
730.195	2790.19
730.382	2833.19
730.568	2755.37
730.754	2773.8
730.94	2792.23
731.126	2904.87
731.313	2806.57
731.499	2771.76
731.685	2880.3
731.871	2837.29
732.057	2868.01
732.243	2753.32
732.429	2788.14
732.615	2831.15
732.801	2829.1
732.987	2755.37
733.173	2788.14
733.359	2743.08
733.545	2896.68
733.731	2716.46
733.917	2831.15
734.103	2892.59
734.289	2888.49
734.475	2691.88
734.661	2751.28
734.847	2741.04
735.033	2753.32
735.219	2880.3
735.404	2849.58
735.59	2900.78
735.776	2722.6
735.962	2806.57
736.148	2671.4
736.333	2841.39
736.519	2587.44
736.705	2818.86
736.89	2726.7
737.076	2786.09
737.262	2790.19
737.447	2640.69
737.633	2759.47
737.819	2671.4
738.004	2804.52
738.19	2646.83
738.375	2704.17
738.561	2552.62
738.747	2763.56
738.932	2609.97
739.118	2730.8
739.303	2761.52
739.489	2616.11
739.674	2693.93
739.859	2679.6
740.045	2663.21
740.23	2650.92
740.416	2540.33
740.601	2741.04
740.786	2616.11
740.972	2638.64
741.157	2575.15
741.342	2595.63
741.528	2550.57
741.713	2632.49
741.898	2564.91
742.084	2579.25
742.269	2491.18
742.454	2478.9
742.639	2607.92
742.824	2571.05
743.01	2759.47
743.195	2550.57
743.38	2499.38
743.565	2599.73
743.75	2575.15
743.935	2526
744.12	2745.13
744.305	2505.52
744.49	2399.02
744.675	2546.48
744.86	2333.49
745.045	2384.69
745.23	2485.04
745.415	2450.22
745.6	2376.5
745.785	2333.49
745.97	2431.79
746.155	2356.02
746.34	2274.1
746.525	2263.86
746.71	2394.93
746.895	2329.39
747.079	2292.53
747.264	2229.04
747.449	2216.76
747.634	2300.72
747.819	2222.9
748.003	2212.66
748.188	2323.25
748.373	2237.24
748.557	2202.42
748.742	2245.43
748.927	2208.56
749.111	2257.71
749.296	2149.17
749.481	2183.99
749.665	2091.83
749.85	2022.2
750.034	2186.04
750.219	2155.32
750.404	2095.93
750.588	2079.54
750.773	2120.5
750.957	2001.72
751.141	1979.19
751.326	2018.1
751.51	2063.16
751.695	2036.53
751.879	1966.9
752.064	2005.81
752.248	1981.24
752.432	1936.18
752.617	1932.09
752.801	1915.7
752.985	1944.38
753.17	1866.55
753.354	1854.27
753.538	1860.41
753.722	1841.98
753.907	1839.93
754.091	1887.03
754.275	1766.2
754.459	1805.11
754.643	1760.06
754.828	1747.77
755.012	1729.34
755.196	1743.67
755.38	1672
755.564	1651.52
755.748	1700.67
755.932	1676.09
756.116	1661.76
756.3	1659.71
756.484	1696.57
756.668	1530.69
756.852	1676.09
757.036	1727.29
757.22	1585.98
757.404	1622.84
757.588	1608.51
757.772	1579.84
757.956	1557.31
758.14	1641.28
758.323	1530.69
758.507	1622.84
758.691	1569.6
758.875	1491.77
759.059	1426.24
759.242	1549.12
759.426	1413.95
759.61	1512.25
759.794	1430.34
759.977	1454.91
760.161	1432.38
760.345	1606.46
760.528	1483.58
760.712	1428.29
760.895	1454.91
761.079	1387.33
761.263	1397.57
761.446	1446.72
761.63	1413.95
761.813	1446.72
761.997	1413.95
762.18	1397.57
762.364	1389.38
762.547	1334.08
762.731	1262.4
762.914	1411.9
763.098	1350.46
763.281	1276.74
763.464	1350.46
763.648	1280.83
763.831	1409.86
764.015	1291.07
764.198	1297.22
764.381	1346.37
764.564	1323.84
764.748	1268.55
764.931	1309.51
765.114	1233.73
765.297	1272.64
765.481	1143.62
765.664	1319.75
765.847	1223.49
766.03	1184.58
766.213	1219.39
766.397	1237.83
766.58	1178.44
766.763	1256.26
766.946	1184.58
767.129	1286.98
767.312	1196.87
767.495	1192.77
767.678	1139.52
767.861	1166.15
768.044	1106.76
768.227	1237.83
768.41	1135.43
768.593	1190.72
768.776	1108.8
768.959	1221.44
769.142	1227.59
769.324	1121.09
769.507	1076.04
769.69	1071.94
769.873	1119.04
770.056	1114.95
770.239	1147.72
770.421	1090.37
770.604	1119.04
770.787	1180.48
770.97	983.88
771.152	1121.09
771.335	1117
771.518	1041.22
771.7	1139.52
771.883	1088.32
772.066	957.25
772.248	1039.17
772.431	1076.04
772.613	1063.75
772.796	1016.65
772.978	1059.65
773.161	1018.69
773.343	955.21
773.526	904.01
773.708	947.01
773.891	928.58
774.073	1000.26
774.256	873.29
774.438	1002.31
774.621	926.54
774.803	957.25
774.985	918.34
775.168	850.76
775.35	1010.5
775.532	928.58
775.715	934.73
775.897	990.02
776.079	889.67
776.261	998.21
776.444	930.63
776.626	994.12
776.808	918.34
776.99	811.85
777.173	914.25
777.355	871.24
777.537	820.04
777.719	901.96
777.901	879.43
778.083	815.94
778.265	828.23
778.447	828.23
778.629	805.71
778.811	738.12
778.993	789.32
779.175	789.32
779.357	742.22
779.539	711.5
779.721	844.62
779.903	803.66
780.085	830.28
780.267	756.55
780.449	748.36
780.631	707.4
780.812	754.51
780.994	750.41
781.176	693.07
781.358	695.11
781.54	666.44
781.721	748.36
781.903	643.92
782.085	668.49
782.267	699.21
782.448	729.93
782.63	678.73
782.812	748.36
782.993	762.7
783.175	611.15
783.357	686.92
783.538	686.92
783.72	623.44
783.901	670.54
784.083	672.59
784.264	645.96
784.446	654.16
784.627	643.92
784.809	645.96
784.99	592.72
785.172	559.95
785.353	564.04
785.535	621.39
785.716	547.66
785.897	576.33
786.079	527.18
786.26	576.33
786.441	660.3
786.623	455.5
786.804	535.37
786.985	527.18
787.167	584.52
787.348	521.04
787.529	590.67
787.71	547.66
787.891	422.73
788.073	533.33
788.254	541.52
788.435	602.96
788.616	541.52
788.797	478.03
788.978	531.28
789.159	490.32
789.34	502.61
789.522	371.54
789.703	486.22
789.884	465.74
790.065	488.27
790.246	506.7
790.427	533.33
790.607	529.23
790.788	457.55
790.969	430.93
791.15	463.69
791.331	469.84
791.512	465.74
791.693	461.65
791.874	394.06
792.054	478.03
792.235	523.09
792.416	449.36
792.597	377.68
792.778	428.88
792.958	402.26
793.139	385.87
793.32	459.6
793.5	432.97
793.681	475.98
793.862	463.69
794.042	449.36
794.223	394.06
794.404	400.21
794.584	367.44
794.765	424.78
794.945	420.69
795.126	443.21
795.306	326.48
795.487	361.3
795.667	392.02
795.848	453.45
796.028	353.1
796.209	349.01
796.389	408.4
796.57	308.05
796.75	344.91
796.93	406.35
797.111	344.91
797.291	414.54
797.471	314.19
797.652	408.4
797.832	344.91
798.012	392.02
798.192	406.35
798.373	303.95
798.553	338.77
798.733	381.78
798.913	334.67
799.093	369.49
799.274	285.52
799.454	349.01
799.634	310.1
799.814	389.97
799.994	361.3
800.174	322.38
800.354	357.2
800.534	303.95
800.714	330.58
800.894	365.39
801.074	394.06
801.254	385.87
801.434	353.1
801.614	314.19
801.794	226.13
801.974	668.49
802.154	267.09
802.334	375.63
802.514	256.85
802.693	416.59
802.873	262.99
803.053	334.67
803.233	318.29
803.413	277.33
803.592	224.08
803.772	275.28
803.952	262.99
804.131	260.95
804.311	299.86
804.491	267.09
804.67	289.62
804.85	293.71
805.03	363.34
805.209	260.95
805.389	301.9
805.568	283.47
805.748	262.99
805.928	254.8
806.107	297.81
806.287	179.03
806.466	269.14
806.646	260.95
806.825	318.29
807.004	254.8
807.184	279.38
807.363	238.42
807.543	248.66
807.722	303.95
807.901	308.05
808.081	289.62
808.26	248.66
808.439	289.62
808.619	248.66
808.798	232.27
808.977	285.52
809.156	275.28
809.336	183.12
809.515	187.22
809.694	205.65
809.873	236.37
810.052	256.85
810.231	244.56
810.411	154.45
810.59	250.71
810.769	205.65
810.948	291.66
811.127	207.7
811.306	215.89
811.485	224.08
811.664	285.52
811.843	205.65
812.022	148.31
812.201	211.79
812.38	213.84
812.559	219.99
812.737	187.22
812.916	185.17
813.095	189.27
813.274	246.61
813.453	285.52
813.632	240.47
813.811	308.05
813.989	215.89
814.168	140.12
814.347	197.46
814.526	199.51
814.704	148.31
814.883	174.93
815.062	289.62
815.24	215.89
815.419	150.36
815.598	162.64
815.776	226.13
815.955	170.83
816.133	183.12
816.312	215.89
816.49	142.16
816.669	209.75
816.847	168.79
817.026	199.51
817.204	148.31
817.383	209.75
817.561	219.99
817.74	224.08
817.918	172.88
818.097	211.79
818.275	162.64
818.453	193.36
818.632	176.98
818.81	181.07
818.988	209.75
819.167	168.79
819.345	101.2
819.523	164.69
819.701	150.36
819.879	195.41
820.058	150.36
820.236	199.51
820.414	211.79
820.592	162.64
820.77	189.27
820.948	201.55
821.127	211.79
821.305	156.5
821.483	168.79
821.661	185.17
821.839	179.03
822.017	136.02
822.195	62.29
822.373	207.7
822.551	121.68
822.729	209.75
822.907	129.88
823.085	195.41
823.262	129.88
823.44	195.41
823.618	168.79
823.796	170.83
823.974	115.54
824.152	181.07
824.329	150.36
824.507	144.21
824.685	185.17
824.863	115.54
825.04	138.07
825.218	84.82
825.396	113.49
825.574	201.55
825.751	105.3
825.929	205.65
826.107	125.78
826.284	54.1
826.462	195.41
826.639	148.31
826.817	35.67
826.994	219.99
827.172	88.92
827.349	201.55
827.527	197.46
827.704	115.54
827.882	101.2
828.059	168.79
828.237	189.27
828.414	193.36
828.591	76.63
828.769	60.24
828.946	101.2
829.124	162.64
829.301	117.59
829.478	148.31
829.655	193.36
829.833	158.55
830.01	86.87
830.187	136.02
830.364	129.88
830.542	129.88
830.719	144.21
830.896	179.03
831.073	115.54
831.25	150.36
831.427	191.31
831.604	123.73
831.782	97.11
831.959	129.88
832.136	142.16
832.313	78.68
832.49	90.96
832.667	146.26
832.844	125.78
833.021	119.64
833.198	125.78
833.374	164.69
833.551	150.36
833.728	95.06
833.905	99.16
834.082	54.1
834.259	119.64
834.436	168.79
834.612	103.25
834.789	86.87
834.966	66.39
835.143	66.39
835.319	37.72
835.496	125.78
835.673	207.7
835.85	138.07
836.026	154.45
836.203	152.4
836.38	-1.19
836.556	191.31
836.733	82.77
836.909	148.31
837.086	62.29
837.262	74.58
837.439	158.55
837.616	129.88
837.792	39.76
837.968	99.16
838.145	47.96
838.321	133.97
838.498	117.59
838.674	129.88
838.851	72.53
839.027	136.02
839.203	84.82
839.38	39.76
839.556	47.96
839.732	119.64
839.909	146.26
840.085	121.68
840.261	99.16
840.437	60.24
840.614	103.25
840.79	144.21
840.966	70.48
841.142	162.64
841.318	105.3
841.494	54.1
841.671	154.45
841.847	60.24
842.023	74.58
842.199	150.36
842.375	58.2
842.551	76.63
842.727	54.1
842.903	115.54
843.079	-5.29
843.255	156.5
843.431	60.24
843.607	93.01
843.783	117.59
843.959	62.29
844.134	62.29
844.31	121.68
844.486	29.52
844.662	62.29
844.838	121.68
845.013	62.29
845.189	76.63
845.365	125.78
845.541	76.63
845.716	90.96
845.892	84.82
846.068	72.53
846.244	52.05
846.419	138.07
846.595	56.15
846.77	27.48
846.946	162.64
847.122	50
847.297	111.44
847.473	95.06
847.648	-7.34
847.824	138.07
847.999	70.48
848.175	58.2
848.35	103.25
848.526	82.77
848.701	25.43
848.876	113.49
849.052	136.02
849.227	105.3
849.403	60.24
849.578	95.06
849.753	47.96
849.929	58.2
850.104	52.05
850.279	74.58
850.454	13.14
850.63	93.01
850.805	37.72
850.98	-38.06
851.155	43.86
851.33	54.1
851.505	113.49
851.681	158.55
851.856	62.29
852.031	70.48
852.206	129.88
852.381	146.26
852.556	-13.48
852.731	76.63
852.906	60.24
853.081	111.44
853.256	52.05
853.431	146.26
853.606	-7.34
853.781	15.19
853.956	76.63
854.131	15.19
854.305	45.91
854.48	29.52
854.655	97.11
854.83	0.85
855.005	64.34
855.18	25.43
855.354	13.14
855.529	64.34
855.704	41.81
855.879	52.05
856.053	11.09
856.228	43.86
856.403	-9.39
856.577	86.87
856.752	-38.06
856.926	72.53
857.101	105.3
857.276	74.58
857.45	58.2
857.625	62.29
857.799	58.2
857.974	109.4
858.148	-9.39
858.323	131.92
858.497	60.24
858.672	60.24
858.846	13.14
859.02	70.48
859.195	72.53
859.369	103.25
859.543	2.9
859.718	68.44
859.892	43.86
860.066	35.67
860.241	21.33
860.415	27.48
860.589	21.33
860.763	84.82
860.938	45.91
861.112	80.72
861.286	62.29
861.46	105.3
861.634	113.49
861.808	127.83
861.982	52.05
862.157	41.81
862.331	99.16
862.505	0.85
862.679	66.39
862.853	68.44
863.027	76.63
863.201	127.83
863.375	52.05
863.549	11.09
863.722	101.2
863.896	142.16
864.07	9.05
864.244	45.91
864.418	21.33
864.592	52.05
864.766	17.24
864.939	-9.39
865.113	23.38
865.287	-5.29
865.461	41.81
865.634	39.76
865.808	66.39
865.982	105.3
866.156	52.05
866.329	97.11
866.503	56.15
866.676	140.12
866.85	11.09
867.024	76.63
867.197	60.24
867.371	41.81
867.544	72.53
867.718	60.24
867.891	76.63
868.065	103.25
868.238	64.34
868.412	37.72
868.585	9.05
868.759	90.96
868.932	-7.34
869.105	-19.63
869.279	13.14
869.452	74.58
869.625	64.34
869.799	27.48
869.972	78.68
870.145	-17.58
870.319	82.77
870.492	17.24
870.665	35.67
870.838	54.1
871.011	82.77
871.185	74.58
871.358	72.53
871.531	52.05
871.704	119.64
871.877	90.96
872.05	9.05
872.223	11.09
872.396	62.29
872.569	66.39
872.742	4.95
872.915	39.76
873.088	-17.58
873.261	45.91
873.434	-7.34
873.607	72.53
873.78	47.96
873.953	45.91
874.126	70.48
874.299	80.72
874.471	111.44
874.644	25.43
874.817	47.96
874.99	62.29
875.163	17.24
875.335	103.25
875.508	50
875.681	84.82
875.853	70.48
876.026	-25.77
876.199	72.53
876.371	82.77
876.544	19.29
876.717	84.82
876.889	123.73
877.062	39.76
877.234	76.63
877.407	56.15
877.579	78.68
877.752	76.63
877.924	23.38
878.097	84.82
878.269	2.9
878.442	64.34
878.614	23.38
878.786	41.81
878.959	9.05
879.131	60.24
879.303	4.95
879.476	105.3
879.648	29.52
879.82	93.01
879.993	31.57
880.165	17.24
880.337	-5.29
880.509	138.07
880.681	15.19
880.854	17.24
881.026	66.39
881.198	-5.29
881.37	-5.29
881.542	17.24
881.714	88.92
881.886	78.68
882.058	23.38
882.23	7
882.402	7
882.574	43.86
882.746	0.85
882.918	27.48
883.09	43.86
883.262	103.25
883.434	25.43
883.606	68.44
883.778	2.9
883.95	25.43
884.122	13.14
884.293	90.96
884.465	19.29
884.637	19.29
884.809	56.15
884.98	62.29
885.152	29.52
885.324	33.62
885.496	-48.3
885.667	39.76
885.839	64.34
886.011	146.26
886.182	43.86
886.354	66.39
886.525	-40.11
886.697	136.02
886.869	39.76
887.04	2.9
887.212	33.62
887.383	43.86
887.555	17.24
887.726	80.72
887.897	11.09
888.069	13.14
888.24	56.15
888.412	76.63
888.583	33.62
888.754	-1.19
888.926	21.33
889.097	68.44
889.268	2.9
889.44	9.05
889.611	29.52
889.782	-13.48
889.953	-23.72
890.125	52.05
890.296	62.29
890.467	37.72
890.638	-38.06
890.809	74.58
890.98	76.63
891.151	103.25
891.323	-1.19
891.494	43.86
891.665	66.39
891.836	39.76
892.007	-11.43
892.178	11.09
892.349	23.38
892.52	50
892.691	43.86
892.862	64.34
893.032	52.05
893.203	33.62
893.374	56.15
893.545	23.38
893.716	-13.48
893.887	101.2
894.057	37.72
894.228	43.86
894.399	72.53
894.57	66.39
894.74	45.91
894.911	-25.77
895.082	27.48
895.253	97.11
895.423	70.48
895.594	88.92
895.764	60.24
895.935	29.52
896.106	109.4
896.276	27.48
896.447	-19.63
896.617	21.33
896.788	-70.83
896.958	56.15
897.129	56.15
897.299	19.29
897.47	11.09
897.64	45.91
897.81	2.9
897.981	23.38
898.151	82.77
898.322	2.9
898.492	23.38
898.662	-33.96
898.832	35.67
899.003	29.52
899.173	68.44
899.343	43.86
899.513	117.59
