Data from USB4F104151__40__11-45-03-710.txt Node

Date: Fri Mar 14 11:45:03 EDT 2025
User: louis
Spectrometer: USB4F10415
Trigger mode: 4
Integration Time (sec): 2.000000E-2
Scans to average: 1
Electric dark correction enabled: true
Nonlinearity correction enabled: false
Boxcar width: 0
XAxis mode: Wavelengths
Number of Pixels in Spectrum: 3648
>>>>>Begin Spectral Data<<<<<
178.204	-78.85
178.424	-78.85
178.644	-78.85
178.864	-93.18
179.084	-50.18
179.304	9.22
179.524	27.65
179.744	-31.74
179.964	31.74
180.184	7.17
180.404	-27.65
180.624	-27.65
180.844	1.02
181.064	-11.26
181.283	-48.13
181.503	7.17
181.723	62.46
181.943	1.02
182.163	15.36
182.383	41.98
182.602	41.98
182.822	27.65
183.042	-11.26
183.262	-31.74
183.482	-9.22
183.701	35.84
183.921	60.42
184.141	97.28
184.361	60.42
184.58	44.03
184.8	-3.07
185.02	74.75
185.239	66.56
185.459	48.13
185.679	-3.07
185.898	25.6
186.118	-9.22
186.338	-23.55
186.557	15.36
186.777	-37.89
186.997	3.07
187.216	35.84
187.436	7.17
187.655	11.26
187.875	68.61
188.095	68.61
188.314	-13.31
188.534	7.17
188.753	33.79
188.973	52.22
189.192	93.18
189.412	-37.89
189.631	25.6
189.851	-17.41
190.07	82.94
190.29	-5.12
190.509	35.84
190.729	9.22
190.948	80.89
191.168	66.56
191.387	138.24
191.607	-37.89
191.826	82.94
192.045	21.5
192.265	11.26
192.484	3.07
192.704	13.31
192.923	33.79
193.142	58.37
193.362	-3.07
193.581	87.04
193.8	46.08
194.02	41.98
194.239	27.65
194.458	48.13
194.678	17.41
194.897	33.79
195.116	17.41
195.335	11.26
195.555	31.74
195.774	33.79
195.993	21.5
196.212	19.46
196.432	9.22
196.651	44.03
196.87	-27.65
197.089	50.18
197.308	21.5
197.528	82.94
197.747	-15.36
197.966	74.75
198.185	123.9
198.404	50.18
198.623	46.08
198.842	78.85
199.062	19.46
199.281	78.85
199.5	-9.22
199.719	62.46
199.938	72.7
200.157	91.13
200.376	19.46
200.595	23.55
200.814	27.65
201.033	58.37
201.252	19.46
201.471	33.79
201.69	68.61
201.909	33.79
202.128	5.12
202.347	56.32
202.566	13.31
202.785	33.79
203.004	-3.07
203.223	74.75
203.442	37.89
203.661	72.7
203.879	3.07
204.098	41.98
204.317	-3.07
204.536	70.65
204.755	35.84
204.974	91.13
205.193	41.98
205.411	21.5
205.63	21.5
205.849	-11.26
206.068	3.07
206.287	-19.46
206.505	48.13
206.724	44.03
206.943	-54.27
207.162	-21.5
207.381	52.22
207.599	33.79
207.818	44.03
208.037	-5.12
208.255	-31.74
208.474	56.32
208.693	95.23
208.911	56.32
209.13	44.03
209.349	13.31
209.567	-13.31
209.786	68.61
210.005	56.32
210.223	1.02
210.442	19.46
210.661	31.74
210.879	52.22
211.098	19.46
211.316	-5.12
211.535	-9.22
211.753	87.04
211.972	-37.89
212.191	-1.02
212.409	29.7
212.628	68.61
212.846	3.07
213.065	80.89
213.283	130.05
213.502	-29.7
213.72	74.75
213.938	19.46
214.157	-1.02
214.375	78.85
214.594	27.65
214.812	58.37
215.031	60.42
215.249	29.7
215.467	3.07
215.686	25.6
215.904	115.71
216.122	-31.74
216.341	72.7
216.559	11.26
216.778	44.03
216.996	68.61
217.214	66.56
217.432	11.26
217.651	93.18
217.869	21.5
218.087	31.74
218.306	35.84
218.524	107.52
218.742	46.08
218.96	-15.36
219.179	50.18
219.397	78.85
219.615	89.09
219.833	-44.03
220.051	19.46
220.27	125.95
220.488	-15.36
220.706	17.41
220.924	-31.74
221.142	48.13
221.36	58.37
221.578	76.8
221.796	-56.32
222.015	91.13
222.233	-17.41
222.451	35.84
222.669	17.41
222.887	91.13
223.105	-35.84
223.323	-31.74
223.541	37.89
223.759	107.52
223.977	-39.94
224.195	117.76
224.413	17.41
224.631	58.37
224.849	44.03
225.067	95.23
225.285	-87.04
225.503	-27.65
225.721	37.89
225.939	-19.46
226.157	54.27
226.375	44.03
226.592	33.79
226.81	17.41
227.028	13.31
227.246	125.95
227.464	37.89
227.682	-37.89
227.9	9.22
228.117	7.17
228.335	35.84
228.553	25.6
228.771	46.08
228.989	58.37
229.206	-11.26
229.424	-3.07
229.642	7.17
229.86	125.95
230.077	115.71
230.295	-19.46
230.513	54.27
230.731	-31.74
230.948	35.84
231.166	-3.07
231.384	7.17
231.601	87.04
231.819	60.42
232.037	44.03
232.254	-56.32
232.472	15.36
232.689	58.37
232.907	87.04
233.125	74.75
233.342	39.94
233.56	-15.36
233.777	23.55
233.995	27.65
234.213	113.66
234.43	19.46
234.648	60.42
234.865	-37.89
235.083	-33.79
235.3	74.75
235.518	64.51
235.735	25.6
235.953	117.76
236.17	70.65
236.388	21.5
236.605	87.04
236.822	66.56
237.04	21.5
237.257	3.07
237.475	-17.41
237.692	-58.37
237.909	44.03
238.127	91.13
238.344	52.22
238.562	25.6
238.779	48.13
238.996	50.18
239.214	-52.22
239.431	72.7
239.648	25.6
239.865	39.94
240.083	9.22
240.3	56.32
240.517	25.6
240.735	33.79
240.952	50.18
241.169	54.27
241.386	80.89
241.603	-13.31
241.821	5.12
242.038	119.81
242.255	-15.36
242.472	46.08
242.689	82.94
242.907	52.22
243.124	-3.07
243.341	119.81
243.558	37.89
243.775	-52.22
243.992	-19.46
244.209	3.07
244.426	29.7
244.643	31.74
244.86	-33.79
245.078	-41.98
245.295	109.57
245.512	13.31
245.729	44.03
245.946	-37.89
246.163	91.13
246.38	31.74
246.597	31.74
246.814	68.61
247.031	-48.13
247.248	39.94
247.464	-29.7
247.681	11.26
247.898	56.32
248.115	128
248.332	70.65
248.549	44.03
248.766	39.94
248.983	17.41
249.2	-19.46
249.417	58.37
249.633	-3.07
249.85	74.75
250.067	44.03
250.284	5.12
250.501	-41.98
250.717	52.22
250.934	-13.31
251.151	46.08
251.368	-66.56
251.585	29.7
251.801	54.27
252.018	60.42
252.235	72.7
252.451	-11.26
252.668	97.28
252.885	113.66
253.102	37.89
253.318	58.37
253.535	-17.41
253.752	1.02
253.968	113.66
254.185	-68.61
254.401	15.36
254.618	60.42
254.835	54.27
255.051	72.7
255.268	17.41
255.484	113.66
255.701	11.26
255.917	93.18
256.134	27.65
256.351	27.65
256.567	119.81
256.784	93.18
257	27.65
257.217	31.74
257.433	35.84
257.65	70.65
257.866	-13.31
258.082	-33.79
258.299	-7.17
258.515	25.6
258.732	44.03
258.948	-48.13
259.165	13.31
259.381	58.37
259.597	5.12
259.814	9.22
260.03	68.61
260.246	15.36
260.463	52.22
260.679	-5.12
260.895	-35.84
261.112	39.94
261.328	58.37
261.544	46.08
261.761	62.46
261.977	54.27
262.193	3.07
262.409	87.04
262.626	15.36
262.842	11.26
263.058	-17.41
263.274	11.26
263.49	84.99
263.707	5.12
263.923	29.7
264.139	-11.26
264.355	44.03
264.571	-7.17
264.787	66.56
265.004	66.56
265.22	23.55
265.436	35.84
265.652	25.6
265.868	21.5
266.084	23.55
266.3	25.6
266.516	-15.36
266.732	31.74
266.948	-64.51
267.164	111.61
267.38	27.65
267.596	27.65
267.812	138.24
268.028	17.41
268.244	-25.6
268.46	82.94
268.676	9.22
268.892	84.99
269.108	7.17
269.324	25.6
269.54	76.8
269.756	84.99
269.972	37.89
270.188	74.75
270.403	-39.94
270.619	48.13
270.835	37.89
271.051	-23.55
271.267	76.8
271.483	-13.31
271.698	-3.07
271.914	52.22
272.13	9.22
272.346	60.42
272.562	68.61
272.777	78.85
272.993	62.46
273.209	-13.31
273.425	87.04
273.64	9.22
273.856	72.7
274.072	3.07
274.287	29.7
274.503	52.22
274.719	23.55
274.934	52.22
275.15	52.22
275.366	11.26
275.581	31.74
275.797	41.98
276.012	-48.13
276.228	46.08
276.444	64.51
276.659	23.55
276.875	48.13
277.09	64.51
277.306	37.89
277.521	21.5
277.737	68.61
277.952	44.03
278.168	17.41
278.383	-11.26
278.599	39.94
278.814	109.57
279.03	13.31
279.245	101.37
279.461	101.37
279.676	121.85
279.892	41.98
280.107	13.31
280.322	7.17
280.538	64.51
280.753	35.84
280.969	64.51
281.184	58.37
281.399	29.7
281.615	68.61
281.83	60.42
282.045	27.65
282.26	-1.02
282.476	70.65
282.691	95.23
282.906	48.13
283.122	23.55
283.337	72.7
283.552	31.74
283.767	52.22
283.983	21.5
284.198	13.31
284.413	19.46
284.628	5.12
284.843	33.79
285.058	78.85
285.274	25.6
285.489	-13.31
285.704	39.94
285.919	41.98
286.134	33.79
286.349	29.7
286.564	44.03
286.779	115.71
286.995	48.13
287.21	58.37
287.425	-13.31
287.64	29.7
287.855	44.03
288.07	-27.65
288.285	46.08
288.5	66.56
288.715	9.22
288.93	11.26
289.145	107.52
289.36	21.5
289.575	70.65
289.79	25.6
290.004	56.32
290.219	29.7
290.434	-11.26
290.649	-3.07
290.864	54.27
291.079	17.41
291.294	39.94
291.509	99.33
291.724	15.36
291.938	52.22
292.153	29.7
292.368	5.12
292.583	3.07
292.798	31.74
293.012	99.33
293.227	62.46
293.442	-48.13
293.657	3.07
293.871	101.37
294.086	-25.6
294.301	89.09
294.516	37.89
294.73	60.42
294.945	29.7
295.16	50.18
295.374	58.37
295.589	-1.02
295.804	-27.65
296.018	48.13
296.233	103.42
296.447	41.98
296.662	62.46
296.877	70.65
297.091	-33.79
297.306	82.94
297.52	35.84
297.735	9.22
297.949	64.51
298.164	-3.07
298.378	11.26
298.593	7.17
298.807	78.85
299.022	66.56
299.236	113.66
299.451	29.7
299.665	60.42
299.88	31.74
300.094	82.94
300.309	29.7
300.523	48.13
300.737	60.42
300.952	76.8
301.166	82.94
301.381	41.98
301.595	60.42
301.809	25.6
302.024	-9.22
302.238	39.94
302.452	25.6
302.667	44.03
302.881	60.42
303.095	82.94
303.309	-31.74
303.524	-9.22
303.738	64.51
303.952	-54.27
304.166	70.65
304.381	70.65
304.595	41.98
304.809	39.94
305.023	23.55
305.237	-23.55
305.452	-13.31
305.666	44.03
305.88	80.89
306.094	27.65
306.308	19.46
306.522	39.94
306.736	25.6
306.95	109.57
307.164	84.99
307.379	46.08
307.593	107.52
307.807	93.18
308.021	76.8
308.235	91.13
308.449	35.84
308.663	23.55
308.877	119.81
309.091	91.13
309.305	123.9
309.519	91.13
309.733	15.36
309.947	-46.08
310.161	115.71
310.374	44.03
310.588	119.81
310.802	-13.31
311.016	60.42
311.23	99.33
311.444	52.22
311.658	29.7
311.872	64.51
312.085	-21.5
312.299	33.79
312.513	27.65
312.727	31.74
312.941	15.36
313.154	31.74
313.368	74.75
313.582	46.08
313.796	-19.46
314.009	9.22
314.223	-13.31
314.437	37.89
314.651	95.23
314.864	35.84
315.078	80.89
315.292	-7.17
315.505	56.32
315.719	95.23
315.933	60.42
316.146	68.61
316.36	19.46
316.573	72.7
316.787	50.18
317.001	58.37
317.214	72.7
317.428	33.79
317.641	132.09
317.855	29.7
318.068	103.42
318.282	74.75
318.495	17.41
318.709	11.26
318.922	21.5
319.136	80.89
319.349	119.81
319.563	-23.55
319.776	29.7
319.99	5.12
320.203	39.94
320.417	54.27
320.63	31.74
320.843	138.24
321.057	-29.7
321.27	-35.84
321.483	52.22
321.697	1.02
321.91	7.17
322.124	-17.41
322.337	27.65
322.55	-3.07
322.763	-21.5
322.977	101.37
323.19	48.13
323.403	19.46
323.617	68.61
323.83	35.84
324.043	78.85
324.256	56.32
324.469	95.23
324.683	44.03
324.896	64.51
325.109	62.46
325.322	31.74
325.535	78.85
325.748	1.02
325.962	19.46
326.175	89.09
326.388	84.99
326.601	76.8
326.814	72.7
327.027	17.41
327.24	117.76
327.453	-5.12
327.666	29.7
327.879	107.52
328.092	25.6
328.305	-5.12
328.518	54.27
328.731	-39.94
328.944	-5.12
329.157	46.08
329.37	29.7
329.583	9.22
329.796	21.5
330.009	50.18
330.222	105.47
330.435	35.84
330.648	95.23
330.861	19.46
331.073	62.46
331.286	19.46
331.499	138.24
331.712	72.7
331.925	35.84
332.138	95.23
332.35	70.65
332.563	48.13
332.776	46.08
332.989	25.6
333.202	37.89
333.414	-25.6
333.627	37.89
333.84	95.23
334.053	39.94
334.265	54.27
334.478	103.42
334.691	70.65
334.903	72.7
335.116	-17.41
335.329	91.13
335.541	56.32
335.754	46.08
335.966	68.61
336.179	56.32
336.392	46.08
336.604	76.8
336.817	21.5
337.029	74.75
337.242	-3.07
337.454	50.18
337.667	46.08
337.88	115.71
338.092	68.61
338.305	13.31
338.517	80.89
338.729	13.31
338.942	13.31
339.154	3.07
339.367	74.75
339.579	-5.12
339.792	29.7
340.004	78.85
340.217	58.37
340.429	35.84
340.641	-3.07
340.854	82.94
341.066	11.26
341.278	101.37
341.491	44.03
341.703	123.9
341.915	64.51
342.128	134.14
342.34	39.94
342.552	41.98
342.764	-19.46
342.977	107.52
343.189	48.13
343.401	78.85
343.613	-7.17
343.826	87.04
344.038	37.89
344.25	56.32
344.462	76.8
344.674	50.18
344.886	39.94
345.099	48.13
345.311	101.37
345.523	58.37
345.735	27.65
345.947	5.12
346.159	46.08
346.371	44.03
346.583	11.26
346.795	80.89
347.007	25.6
347.219	19.46
347.431	19.46
347.643	44.03
347.855	60.42
348.067	60.42
348.279	11.26
348.491	56.32
348.703	15.36
348.915	-3.07
349.127	80.89
349.339	33.79
349.551	7.17
349.763	46.08
349.975	82.94
350.187	41.98
350.399	-9.22
350.61	74.75
350.822	5.12
351.034	27.65
351.246	54.27
351.458	33.79
351.669	27.65
351.881	136.19
352.093	60.42
352.305	-3.07
352.517	103.42
352.728	56.32
352.94	64.51
353.152	111.61
353.363	60.42
353.575	5.12
353.787	107.52
353.999	35.84
354.21	29.7
354.422	168.96
354.633	3.07
354.845	21.5
355.057	25.6
355.268	72.7
355.48	27.65
355.692	7.17
355.903	3.07
356.115	50.18
356.326	19.46
356.538	64.51
356.749	-7.17
356.961	76.8
357.172	48.13
357.384	119.81
357.595	39.94
357.807	95.23
358.018	9.22
358.23	19.46
358.441	56.32
358.653	89.09
358.864	91.13
359.075	37.89
359.287	21.5
359.498	62.46
359.709	17.41
359.921	99.33
360.132	70.65
360.344	-3.07
360.555	35.84
360.766	-33.79
360.977	125.95
361.189	99.33
361.4	68.61
361.611	74.75
361.823	125.95
362.034	31.74
362.245	-15.36
362.456	113.66
362.667	15.36
362.879	11.26
363.09	70.65
363.301	95.23
363.512	37.89
363.723	62.46
363.935	25.6
364.146	91.13
364.357	29.7
364.568	48.13
364.779	33.79
364.99	31.74
365.201	31.74
365.412	134.14
365.623	105.47
365.834	74.75
366.045	64.51
366.256	27.65
366.467	41.98
366.678	33.79
366.889	35.84
367.1	60.42
367.311	70.65
367.522	97.28
367.733	123.9
367.944	52.22
368.155	37.89
368.366	84.99
368.577	70.65
368.788	39.94
368.999	41.98
369.209	142.33
369.42	78.85
369.631	115.71
369.842	21.5
370.053	-1.02
370.264	113.66
370.474	117.76
370.685	52.22
370.896	39.94
371.107	87.04
371.317	56.32
371.528	70.65
371.739	91.13
371.95	21.5
372.16	31.74
372.371	-3.07
372.582	99.33
372.792	78.85
373.003	84.99
373.214	-5.12
373.424	33.79
373.635	-27.65
373.846	56.32
374.056	44.03
374.267	123.9
374.477	107.52
374.688	44.03
374.898	39.94
375.109	48.13
375.319	201.72
375.53	58.37
375.74	15.36
375.951	58.37
376.161	44.03
376.372	70.65
376.582	39.94
376.793	72.7
377.003	58.37
377.214	95.23
377.424	113.66
377.635	41.98
377.845	-29.7
378.055	91.13
378.266	41.98
378.476	62.46
378.686	93.18
378.897	64.51
379.107	84.99
379.317	78.85
379.528	56.32
379.738	109.57
379.948	78.85
380.158	105.47
380.369	23.55
380.579	31.74
380.789	25.6
380.999	74.75
381.21	84.99
381.42	46.08
381.63	107.52
381.84	70.65
382.05	33.79
382.261	99.33
382.471	64.51
382.681	93.18
382.891	58.37
383.101	91.13
383.311	46.08
383.521	5.12
383.731	121.85
383.941	103.42
384.151	111.61
384.361	48.13
384.571	41.98
384.781	58.37
384.991	207.87
385.201	132.09
385.411	54.27
385.621	89.09
385.831	19.46
386.041	56.32
386.251	13.31
386.461	89.09
386.671	58.37
386.881	-9.22
387.091	87.04
387.301	54.27
387.511	101.37
387.72	101.37
387.93	82.94
388.14	93.18
388.35	-5.12
388.56	87.04
388.769	101.37
388.979	97.28
389.189	66.56
389.399	76.8
389.609	150.53
389.818	103.42
390.028	123.9
390.238	107.52
390.447	87.04
390.657	56.32
390.867	95.23
391.076	76.8
391.286	76.8
391.496	39.94
391.705	70.65
391.915	107.52
392.125	99.33
392.334	103.42
392.544	48.13
392.753	101.37
392.963	74.75
393.172	23.55
393.382	62.46
393.591	119.81
393.801	5.12
394.01	64.51
394.22	103.42
394.429	107.52
394.639	58.37
394.848	175.1
395.058	70.65
395.267	152.57
395.477	95.23
395.686	179.2
395.895	50.18
396.105	130.05
396.314	74.75
396.524	111.61
396.733	50.18
396.942	158.72
397.152	152.57
397.361	136.19
397.57	148.48
397.78	99.33
397.989	140.29
398.198	117.76
398.407	80.89
398.617	50.18
398.826	80.89
399.035	64.51
399.244	130.05
399.453	164.86
399.663	121.85
399.872	164.86
400.081	103.42
400.29	97.28
400.499	123.9
400.708	99.33
400.917	44.03
401.127	121.85
401.336	115.71
401.545	117.76
401.754	154.62
401.963	134.14
402.172	111.61
402.381	173.05
402.59	183.29
402.799	168.96
403.008	220.16
403.217	107.52
403.426	130.05
403.635	148.48
403.844	160.77
404.053	222.2
404.262	199.68
404.471	177.15
404.68	144.38
404.888	148.48
405.097	175.1
405.306	166.91
405.515	125.95
405.724	228.35
405.933	297.98
406.142	254.97
406.35	228.35
406.559	168.96
406.768	115.71
406.977	254.97
407.185	226.3
407.394	269.31
407.603	259.07
407.812	181.25
408.02	236.54
408.229	261.12
408.438	203.77
408.646	209.92
408.855	269.31
409.064	291.84
409.272	328.7
409.481	310.27
409.69	310.27
409.898	396.28
410.107	390.14
410.315	326.65
410.524	351.23
410.733	435.19
410.941	244.73
411.15	418.81
411.358	420.86
411.567	506.87
411.775	478.2
411.984	422.91
412.192	449.53
412.401	459.77
412.609	498.68
412.818	623.61
413.026	570.36
413.234	570.36
413.443	586.74
413.651	611.32
413.86	607.22
414.068	639.99
414.276	693.24
414.485	670.71
414.693	717.81
414.901	824.31
415.11	885.75
415.318	803.83
415.526	773.11
415.734	754.68
415.943	889.84
416.151	979.95
416.359	941.04
416.567	969.71
416.776	1070.06
416.984	1041.39
417.192	1119.21
417.4	1123.31
417.608	1133.55
417.817	1137.65
418.025	1264.62
418.233	1397.74
418.441	1268.72
418.649	1332.2
418.857	1479.66
419.065	1401.83
419.273	1428.46
419.481	1551.34
419.689	1567.72
419.897	1696.74
420.105	1760.23
420.313	1786.85
420.521	1819.62
420.729	1754.09
420.937	1885.16
421.145	2063.33
421.353	2094.05
421.561	2102.24
421.769	2139.1
421.977	2259.93
422.185	2218.97
422.393	2462.68
422.601	2538.46
422.809	2405.34
423.017	2544.6
423.224	2720.73
423.432	2835.41
423.64	2837.46
423.848	2894.8
424.056	2939.86
424.263	3175.38
424.471	3105.74
424.679	3154.9
424.887	3394.51
425.094	3486.67
425.302	3560.39
425.51	3574.73
425.718	3832.77
425.925	3935.17
426.133	3949.51
426.341	4090.82
426.548	4219.84
426.756	4193.22
426.964	4350.91
427.171	4580.28
427.379	4729.78
427.586	4813.75
427.794	5079.99
428.001	5110.71
428.209	5272.5
428.417	5241.78
428.624	5706.66
428.832	5694.38
429.039	5663.66
429.247	5751.72
429.454	6202.27
429.662	6849.43
429.869	6306.72
430.076	6706.07
430.284	6474.65
430.491	6779.8
430.699	7054.23
430.906	7195.54
431.114	7228.31
431.321	7465.87
431.528	7846.79
431.736	8127.36
431.943	8555.39
432.15	8156.04
432.358	8393.6
432.565	8850.3
432.772	8692.6
432.979	9251.7
433.187	9575.28
433.394	9403.25
433.601	10115.94
433.808	10242.92
434.016	10001.26
434.223	10605.41
434.43	11289.43
434.637	10859.35
434.844	11604.81
435.052	11649.87
435.259	11893.58
435.466	12032.84
435.673	11791.18
435.88	12661.57
436.087	13058.87
436.294	13212.47
436.501	12929.85
436.708	13083.45
436.915	13763.37
437.122	14246.69
437.329	14258.98
437.537	14717.73
437.743	14916.38
437.95	14805.79
438.157	15569.68
438.364	16130.83
438.571	15932.17
438.778	16222.98
438.985	17449.72
439.192	16919.29
439.399	17574.64
439.606	17228.54
439.813	17947.37
440.02	18858.72
440.227	18918.11
440.433	18367.21
440.64	19296.99
440.847	19094.24
441.054	19704.53
441.261	20914.88
441.467	20746.95
441.674	21328.57
441.881	21914.29
442.088	21652.15
442.294	21590.71
442.501	22209.2
442.708	22526.63
442.914	23272.09
443.121	24388.24
443.328	23585.43
443.534	25731.7
443.741	24797.83
443.948	24359.56
444.154	26184.3
444.361	25764.47
444.568	25791.09
444.774	25985.65
444.981	26454.64
445.187	27171.43
445.394	28375.63
445.6	28314.19
445.807	30622.25
446.013	29583.93
446.22	30294.58
446.426	31312.42
446.633	31488.54
446.839	32524.82
447.046	31042.09
447.252	32629.26
447.459	32848.39
447.665	32746
447.871	34298.36
448.078	35764.7
448.284	33956.35
448.491	34681.33
448.697	36198.87
448.903	36889.04
449.11	36970.96
449.316	36215.26
449.522	37028.3
449.728	38148.54
449.935	38396.34
450.141	38267.32
450.347	39098.8
450.553	38205.88
450.76	38705.59
450.966	39381.42
451.172	39475.62
451.378	40405.4
451.584	39897.5
451.791	40270.23
451.997	40219.03
452.203	40960.4
452.409	41202.06
452.615	40747.41
452.821	38992.3
453.027	38674.87
453.233	41048.46
453.44	39379.37
453.646	39547.3
453.852	39704.99
454.058	40546.71
454.264	39498.15
454.47	40290.71
454.676	39442.85
454.882	40124.83
455.088	37292.49
455.294	37654.98
455.5	38044.09
455.705	38422.97
455.911	37263.82
456.117	36237.78
456.323	35709.41
456.529	33933.82
456.735	35619.3
456.941	34609.65
457.147	34169.33
457.352	33219.08
457.558	32848.39
457.764	32825.87
457.97	32225.81
458.176	31504.93
458.381	31603.23
458.587	29923.9
458.793	30020.15
458.999	28183.12
459.204	30214.71
459.41	29557.31
459.616	27304.54
459.821	27630.17
460.027	27599.45
460.233	26868.33
460.438	25780.85
460.644	25791.09
460.85	24746.63
461.055	24451.72
461.261	24263.31
461.466	22516.39
461.672	21662.39
461.878	23411.35
462.083	21662.39
462.289	21381.82
462.494	21164.73
462.7	19929.81
462.905	19665.62
463.111	20200.14
463.316	20628.17
463.522	20097.74
463.727	19935.95
463.932	20093.65
464.138	19872.46
464.343	20081.36
464.549	19450.58
464.754	20112.08
464.959	19700.44
465.165	19460.82
465.37	18856.67
465.575	18375.4
465.781	18969.31
465.986	19327.71
466.191	18287.34
466.397	17955.57
466.602	17253.11
466.807	17984.24
467.012	17799.92
467.218	17552.12
467.423	17619.7
467.628	17443.57
467.833	18588.39
468.038	17613.56
468.244	17046.27
468.449	17718
468.654	17277.69
468.859	17036.03
469.064	17089.28
469.269	16544.52
469.474	16491.27
469.679	17107.71
469.885	16438.02
470.09	16671.49
470.295	16587.52
470.5	16059.15
470.705	16270.09
470.91	16016.14
471.115	15530.77
471.32	16007.95
471.525	15473.43
471.73	15303.45
471.935	15420.18
472.139	14736.16
472.344	15201.05
472.549	15053.59
472.754	14990.11
472.959	14674.72
473.164	14140.2
473.369	13824.81
473.574	14555.94
473.778	14482.21
473.983	14301.99
474.188	14211.88
474.393	13325.11
474.598	13542.19
474.802	13415.22
475.007	13329.2
475.212	13343.54
475.417	12821.31
475.621	12868.41
475.826	12780.35
476.031	12616.51
476.235	12399.43
476.44	12499.78
476.645	12354.37
476.849	12286.79
477.054	12362.56
477.259	12104.52
477.463	12131.14
477.668	11658.06
477.872	11901.77
478.077	11735.88
478.282	11490.13
478.486	11397.97
478.691	11307.86
478.895	11197.27
479.1	11203.41
479.304	11428.69
479.509	10955.61
479.713	11115.35
479.918	10724.19
480.122	10613.6
480.326	10830.68
480.531	10916.7
480.735	10591.07
480.94	10500.96
481.144	10963.8
481.348	10333.03
481.553	10302.31
481.757	10212.2
481.961	10541.92
482.166	10519.39
482.37	10572.64
482.574	10292.07
482.778	10404.71
482.983	10554.21
483.187	10269.54
483.391	10464.1
483.595	10226.53
483.8	10158.95
484.004	10335.07
484.208	10277.73
484.412	10281.83
484.616	10224.48
484.821	10347.36
485.025	10117.99
485.229	10527.58
485.433	10054.5
485.637	10400.61
485.841	10009.45
486.045	10408.8
486.249	10298.21
486.453	10197.86
486.657	10402.66
486.861	10199.91
487.065	9948.01
487.269	10490.72
487.473	10038.12
487.677	10398.56
487.881	10322.79
488.085	10242.92
488.289	10269.54
488.493	10169.19
488.697	10410.85
488.901	10464.1
489.105	10199.91
489.309	10652.51
489.512	10416.99
489.716	10361.7
489.92	10451.81
490.124	10365.79
490.328	10609.5
490.531	10500.96
490.735	10316.64
490.939	10576.73
491.143	10359.65
491.346	10564.45
491.55	10593.12
491.754	10730.33
491.958	10625.89
492.161	10750.81
492.365	10769.24
492.569	10806.11
492.772	10779.48
492.976	11006.81
493.18	10896.22
493.383	11146.07
493.587	11080.53
493.79	11170.65
493.994	11051.86
494.197	11242.32
494.401	11371.35
494.605	11334.48
494.808	11514.7
495.012	11735.88
495.215	11430.74
495.419	11834.19
495.622	11584.34
495.825	11965.26
496.029	11893.58
496.232	12118.86
496.436	12067.66
496.639	12395.33
496.843	12168.01
497.046	12290.88
497.249	12481.35
497.453	12702.53
497.656	12755.77
497.859	12723.01
498.063	12882.75
498.266	13329.2
498.469	13267.77
498.673	13378.36
498.876	13634.35
499.079	13828.91
499.282	13589.3
499.485	13921.07
499.689	14115.62
499.892	14275.37
500.095	14320.42
500.298	14555.94
500.501	14492.45
500.705	14873.37
500.908	15018.78
501.111	14842.65
501.314	15397.65
501.517	15303.45
501.72	15702.8
501.923	15598.35
502.126	15919.89
502.329	16261.9
502.532	16409.35
502.735	16345.86
502.938	16567.04
503.141	16591.62
503.344	16984.83
503.547	17083.13
503.75	17365.75
503.953	17670.9
504.156	17507.06
504.359	17515.25
504.562	18143.98
504.765	18273
504.968	18393.83
505.17	18676.45
505.373	18772.71
505.576	18834.14
505.779	19262.17
505.982	19405.53
506.185	19880.66
506.387	19487.45
506.59	19706.58
506.793	20515.53
506.996	20314.83
507.198	20898.5
507.401	20728.52
507.604	20927.17
507.807	21113.53
508.009	21408.44
508.212	21365.43
508.415	21856.95
508.617	22012.59
508.82	22028.98
509.022	22086.32
509.225	22882.98
509.428	22901.41
509.63	23093.92
509.833	23376.54
510.035	23765.65
510.238	23712.41
510.44	24009.36
510.643	24023.7
510.845	24205.97
511.048	24154.77
511.25	24801.93
511.453	24820.36
511.655	25924.21
511.858	25483.9
512.06	25574.01
512.262	25821.81
512.465	25682.55
512.667	26272.37
512.87	26448.49
513.072	26595.95
513.274	26892.9
513.477	27214.43
513.679	27599.45
513.881	27890.26
514.084	27751
514.286	28240.47
514.488	28516.94
514.69	29428.29
514.893	29532.73
515.095	28940.87
515.297	29452.86
515.499	29905.46
515.701	29866.55
515.904	30550.57
516.106	30716.46
516.308	30929.45
516.51	31130.15
516.712	30947.88
516.914	31576.61
517.116	31877.66
517.318	31728.16
517.52	32279.06
517.722	32344.59
517.925	32635.41
518.127	33477.12
518.329	33208.84
518.531	33286.66
518.733	34025.98
518.935	34318.84
519.136	34292.21
519.338	34861.55
519.54	34703.85
519.742	35105.26
519.944	35084.78
520.146	35854.81
520.348	35701.22
520.55	36127.19
520.752	36190.68
520.954	36663.76
521.155	36837.84
521.357	37050.83
521.559	37536.2
521.761	37857.73
521.963	37630.4
522.164	37671.36
522.366	38093.24
522.568	38650.29
522.77	38730.16
522.971	39000.49
523.173	38371.77
523.375	39221.67
523.576	39342.5
523.778	39596.45
523.98	40163.74
524.181	39946.65
524.383	39907.74
524.584	40380.82
524.786	40462.74
524.988	40470.93
525.189	41128.33
525.391	41290.12
525.592	41765.25
525.794	41867.65
525.995	41316.75
526.197	41902.46
526.398	42068.35
526.6	41904.51
526.801	42508.66
527.003	42686.84
527.204	42289.53
527.406	43057.52
527.607	42901.87
527.808	43213.16
528.01	42473.85
528.211	43024.75
528.412	43751.78
528.614	43397.48
528.815	43428.2
529.016	44179.81
529.218	43700.58
529.419	43637.09
529.62	44065.12
529.822	43958.63
530.023	44220.77
530.224	44171.61
530.425	43837.8
530.626	43741.54
530.828	43823.46
531.029	44699.99
531.23	44362.08
531.431	44579.16
531.632	44534.1
531.833	44613.98
532.035	44575.06
532.236	44788.05
532.437	44892.5
532.638	44616.02
532.839	44968.27
533.04	44931.41
533.241	44058.98
533.442	45304.14
533.643	44824.92
533.844	45050.19
534.045	44874.07
534.246	45099.34
534.447	44990.8
534.648	44833.11
534.849	45197.65
535.05	44970.32
535.251	44855.64
535.451	45046.1
535.652	44986.71
535.853	45164.88
536.054	45302.09
536.255	45222.22
536.456	44689.75
536.657	45873.48
536.857	45211.98
537.058	44853.59
537.259	45560.14
537.46	45467.98
537.66	44906.83
537.861	45242.7
538.062	45173.07
538.263	45021.52
538.463	44896.59
538.664	45019.47
538.865	44984.66
539.065	45259.09
539.266	45039.95
539.466	45775.17
539.667	45029.71
539.868	45496.65
540.068	45484.36
540.269	44677.46
540.469	45320.52
540.67	44550.49
540.87	44990.8
541.071	44527.96
541.271	45390.16
541.472	45103.44
541.672	44489.05
541.873	45011.28
542.073	44558.68
542.274	45046.1
542.474	44788.05
542.675	44693.85
542.875	45093.2
543.075	45023.57
543.276	44224.86
543.476	45074.77
543.676	44706.13
543.877	44661.08
544.077	45101.39
544.277	44890.45
544.478	44816.72
544.678	44829.01
544.878	44949.84
545.078	44812.63
545.279	44673.37
545.479	44788.05
545.679	44706.13
545.879	44433.75
546.079	44679.51
546.28	44726.61
546.48	44167.52
546.68	44732.76
546.88	44798.29
547.08	44530.01
547.28	44546.39
547.48	44407.13
547.68	44525.91
547.88	44441.95
548.081	44616.02
548.281	44839.25
548.481	44474.71
548.681	44704.09
548.881	44362.08
549.081	44280.16
549.28	44280.16
549.48	44861.78
549.68	44235.1
549.88	44675.41
550.08	44237.15
550.28	44357.98
550.48	44347.74
550.68	44720.47
550.88	44093.79
551.08	44398.94
551.279	44292.44
551.479	43964.77
551.679	44312.92
551.879	43854.18
552.079	44407.13
552.278	44351.84
552.478	44142.94
552.678	43786.6
552.878	44423.51
553.077	43950.43
553.277	43862.37
553.477	44392.79
553.676	43864.42
553.876	44151.13
554.076	43919.71
554.275	43428.2
554.475	43649.38
554.674	44038.5
554.874	43706.73
555.074	43508.07
555.273	43956.58
555.473	43944.29
555.672	43546.98
555.872	43622.76
556.071	43845.99
556.271	43864.42
556.47	43223.4
556.67	43377
556.869	43327.85
557.068	43661.67
557.268	43137.39
557.467	43231.6
557.667	43198.83
557.866	42680.69
558.065	42932.59
558.265	43336.04
558.464	43108.72
558.663	43473.26
558.863	43055.47
559.062	43764.07
559.261	42811.76
559.461	43286.89
559.66	42699.12
559.859	42858.87
560.058	42420.6
560.258	42713.46
560.457	42459.51
560.656	42791.28
560.855	42436.98
561.054	42377.59
561.253	42273.15
561.453	42379.64
561.652	42430.84
561.851	42547.57
562.05	42164.6
562.249	41941.38
562.448	42365.31
562.647	42326.39
562.846	41830.79
563.045	42244.48
563.244	41433.48
563.443	42463.61
563.642	41564.55
563.841	41408.9
564.04	41664.9
564.239	41867.65
564.438	41173.39
564.637	41527.69
564.836	41576.84
565.035	40892.82
565.234	41339.27
565.432	40851.86
565.631	40978.83
565.83	41023.89
566.029	40577.43
566.228	41126.28
566.427	40784.27
566.625	40425.88
566.824	40589.72
567.023	40882.58
567.222	40157.6
567.42	40688.02
567.619	40157.6
567.818	40151.45
568.016	40440.21
568.215	40518.04
568.414	39963.04
568.612	40413.59
568.811	39889.31
569.01	39831.97
569.208	39633.32
569.407	39741.86
569.605	38988.21
569.804	39782.82
570.002	39473.57
570.201	39455.14
570.4	39238.06
570.598	39100.84
570.797	38951.34
570.995	39319.98
571.193	38506.93
571.392	38773.17
571.59	38615.47
571.789	39090.6
571.987	38623.67
572.186	38195.64
572.384	38492.6
572.582	38767.02
572.781	38846.9
572.979	37880.25
573.177	38037.95
573.376	38361.53
573.574	37976.51
573.772	37953.98
573.971	37652.93
574.169	37724.61
574.367	37333.45
574.565	37396.93
574.763	37503.43
574.962	37181.9
575.16	37022.16
575.358	37378.5
575.556	36616.66
575.754	37210.57
575.952	36774.35
576.151	37341.64
576.349	36432.34
576.547	36764.11
576.745	36714.96
576.943	36829.65
577.141	36303.32
577.339	36805.07
577.537	36153.82
577.735	36250.07
577.933	35908.06
578.131	36364.76
578.329	35695.07
578.527	35619.3
578.725	35871.2
578.923	35955.16
579.121	35359.2
579.319	35590.62
579.516	35746.27
579.714	35535.33
579.912	35363.3
580.11	35498.47
580.308	35449.32
580.506	35092.97
580.704	34617.84
580.901	35027.43
581.099	34918.89
581.297	34697.71
581.495	34587.12
581.692	34935.27
581.89	34298.36
582.088	34767.34
582.285	34417.14
582.483	34253.3
582.681	34363.89
582.878	34187.77
583.076	33708.54
583.274	34329.08
583.471	33880.57
583.669	33833.47
583.866	33726.97
584.064	33888.76
584.262	33479.17
584.459	33690.11
584.657	33176.07
584.854	33823.23
585.052	33004.04
585.249	33372.67
585.447	33403.39
585.644	32821.77
585.841	32907.79
586.039	33032.71
586.236	32686.61
586.434	32406.03
586.631	32842.25
586.828	32619.02
587.026	32528.91
587.223	32373.27
587.42	32203.28
587.618	32262.68
587.815	32039.45
588.012	32035.35
588.21	31816.22
588.407	31881.75
588.604	31955.48
588.801	31871.51
588.999	31732.25
589.196	31214.12
589.393	31410.72
589.59	31156.77
589.787	31224.36
589.984	31052.33
590.182	30675.5
590.379	31445.54
590.576	30634.54
590.773	30779.95
590.97	30794.28
591.167	30853.67
591.364	30014.01
591.561	30751.27
591.758	30165.56
591.955	30452.27
592.152	30423.6
592.349	30165.56
592.546	30138.93
592.743	30296.63
592.94	29694.52
593.137	29927.99
593.334	29837.88
593.531	29334.08
593.727	29784.63
593.924	29622.84
594.121	29352.51
594.318	29678.14
594.515	29241.92
594.712	29438.53
594.908	29016.65
595.105	29280.83
595.302	28824.14
595.499	28822.09
595.696	28654.15
595.892	28594.76
596.089	28834.38
596.286	28408.4
596.482	28281.42
596.679	28414.54
596.876	28205.65
597.072	28056.15
597.269	28578.38
597.466	27943.51
597.662	27785.82
597.859	28179.03
598.055	27949.65
598.252	27820.63
598.448	27742.81
598.645	27535.96
598.841	27531.87
599.038	27681.37
599.234	27587.16
599.431	27296.35
599.627	27148.9
599.824	27175.52
600.02	26942.05
600.217	27069.03
600.413	26837.61
600.609	26626.67
600.806	26471.02
601.002	26931.81
601.198	26778.22
601.395	26358.38
601.591	26034.8
601.787	26360.43
601.984	26210.93
602.18	26387.05
602.376	25879.16
602.572	26182.26
602.769	26172.02
602.965	25903.73
603.161	25635.45
603.357	25690.74
603.553	25354.88
603.75	25686.65
603.946	25621.11
604.142	25447.04
604.338	25168.51
604.534	25488
604.73	24924.8
604.926	25361.02
605.122	25268.86
605.318	24955.52
605.514	24908.42
605.71	24760.97
605.906	24844.93
606.102	24820.36
606.298	24564.36
606.494	24547.98
606.69	24681.1
606.886	24547.98
607.082	24191.63
607.278	24570.51
607.474	24273.55
607.67	24558.22
607.866	24341.13
608.062	24412.81
608.257	24294.03
608.453	23986.83
608.649	23863.96
608.845	23831.19
609.041	23931.54
609.236	24216.21
609.432	23845.52
609.628	23990.93
609.824	24015.51
610.019	23620.25
610.215	23698.07
610.411	23550.62
610.606	23372.44
610.802	23669.4
610.998	23661.21
611.193	23669.4
611.389	23245.47
611.584	23130.78
611.78	23134.88
611.976	23329.44
612.171	23253.66
612.367	23444.12
612.562	22928.03
612.758	22678.18
612.953	22934.18
613.149	23089.82
613.344	22749.86
613.539	23523.99
613.735	22977.19
613.93	22938.27
614.126	22663.85
614.321	23089.82
614.517	22465.19
614.712	22557.35
614.907	22657.7
615.103	22665.89
615.298	22397.61
615.493	22866.6
615.688	22424.23
615.884	22799.01
616.079	22518.44
616.274	22297.26
616.47	22178.48
616.665	22524.58
616.86	22227.63
617.055	22436.52
617.25	22098.61
617.445	22147.76
617.641	21922.48
617.836	22166.19
618.031	21463.74
618.226	22041.26
618.421	21981.87
618.616	21627.57
618.811	21650.1
619.006	22061.74
619.201	21504.7
619.396	21635.77
619.591	21291.71
619.786	21412.54
619.981	20896.45
620.176	21347
620.371	20847.3
620.566	20961.98
620.761	20634.31
620.956	20826.82
621.151	20611.78
621.346	20660.93
621.541	20359.88
621.735	20437.7
621.93	20021.97
622.125	20443.85
622.32	20157.13
622.515	20165.32
622.709	19864.27
622.904	19792.59
623.099	19817.17
623.294	19823.31
623.488	19710.68
623.683	19813.07
623.878	19258.07
624.072	19481.3
624.267	19370.71
624.462	19016.41
624.656	18862.82
624.851	19104.48
625.046	18701.03
625.24	18483.94
625.435	18385.64
625.629	18584.29
625.824	18326.25
626.018	18244.33
626.213	18092.78
626.407	18250.47
626.602	17887.98
626.796	18043.63
626.991	18064.11
627.185	17906.41
627.38	17535.73
627.574	17650.42
627.768	17208.06
627.963	17216.25
628.157	17294.07
628.352	17527.54
628.546	17076.99
628.74	17138.43
628.935	16628.48
629.129	16775.94
629.323	16622.34
629.517	16622.34
629.712	16554.76
629.906	16583.43
630.1	16079.63
630.294	16171.79
630.489	16270.09
630.683	16270.09
630.877	15956.75
631.071	16038.67
631.265	16165.64
631.459	15680.27
631.653	15686.42
631.848	15792.91
632.042	15667.98
632.236	15485.72
632.43	15354.65
632.624	15364.89
632.818	14965.53
633.012	15348.5
633.206	15108.89
633.4	15246.1
633.594	15102.75
633.788	14875.42
633.982	14668.58
634.176	14711.58
634.369	14566.18
634.563	14437.16
634.757	14506.79
634.951	14557.99
635.145	14435.11
635.339	14445.35
635.533	14252.84
635.726	14127.91
635.92	14056.23
636.114	14050.09
636.308	14115.62
636.501	13833
636.695	13777.71
636.889	13638.45
637.083	13681.46
637.276	13339.44
637.47	13488.95
637.664	13574.96
637.857	13478.71
638.051	13341.49
638.244	13198.13
638.438	13288.25
638.632	13069.11
638.825	12997.43
639.019	12792.64
639.212	12919.61
639.406	12788.54
639.599	12723.01
639.793	12809.02
639.986	12553.02
640.18	12655.42
640.373	12485.44
640.567	12516.16
640.76	12587.84
640.954	12294.98
641.147	12022.6
641.34	12440.39
641.534	12059.46
641.727	12202.82
641.92	11795.28
642.114	11803.47
642.307	11838.28
642.5	11893.58
642.694	11504.46
642.887	11680.59
643.08	11678.54
643.273	11621.2
643.467	11465.55
643.66	11606.86
643.853	11469.65
644.046	11135.83
644.239	11391.83
644.432	11199.32
644.626	11232.08
644.819	11039.58
645.012	11017.05
645.205	11082.58
645.398	11035.48
645.591	11023.19
645.784	10756.96
645.977	10941.27
646.17	10867.55
646.363	10713.95
646.556	10498.91
646.749	10548.06
646.942	10427.23
647.135	10482.53
647.328	10691.42
647.521	10322.79
647.714	10210.15
647.907	10347.36
648.099	10199.91
648.292	10191.72
648.485	10179.43
648.678	9997.16
648.871	10031.97
649.064	9884.52
649.256	9962.34
649.449	9997.16
649.642	9888.62
649.835	9669.48
650.027	9479.02
650.22	9548.65
650.413	9655.15
650.605	9614.19
650.798	9479.02
650.991	9290.61
651.183	9556.85
651.376	9331.57
651.568	9202.55
651.761	9382.77
651.954	9196.4
652.146	9161.59
652.339	9085.81
652.531	9116.53
652.724	9102.2
652.916	8706.94
653.109	8737.66
653.301	8833.91
653.494	8895.35
653.686	8803.19
653.879	8647.55
654.071	8784.76
654.263	8723.32
654.456	8610.68
654.648	8555.39
654.84	8373.12
655.033	8442.75
655.225	8571.77
655.417	8442.75
655.61	8360.83
655.802	8348.54
655.994	8201.09
656.186	8303.49
656.379	8166.28
656.571	8196.99
656.763	7881.61
656.955	8024.97
657.148	7934.85
657.34	8100.74
657.532	7910.28
657.724	7822.22
657.916	7992.2
658.108	7809.93
658.3	7793.55
658.492	7838.6
658.684	7670.67
658.876	7744.39
659.068	7476.11
659.26	7330.7
659.452	7365.52
659.644	7502.73
659.836	7308.18
660.028	7408.53
660.22	7289.74
660.412	7390.1
660.604	7281.55
660.796	7375.76
660.988	7347.09
661.18	7177.11
661.372	7111.57
661.563	7193.49
661.755	6960.02
661.947	7105.43
662.139	6921.11
662.331	7041.94
662.522	6820.76
662.714	6867.86
662.906	6986.65
663.097	6882.2
663.289	7005.08
663.481	6867.86
663.673	6804.38
663.864	6638.49
664.056	6450.08
664.247	6661.02
664.439	6591.39
664.631	6556.57
664.822	6593.44
665.014	6591.39
665.205	6484.89
665.397	6435.74
665.588	6468.51
665.78	6339.49
665.971	6282.14
666.163	6167.46
666.354	6308.77
666.546	6392.73
666.737	6200.23
666.929	6247.33
667.12	6120.35
667.311	6140.83
667.503	6114.21
667.694	6235.04
667.885	6003.62
668.077	5977
668.268	6044.58
668.459	5927.85
668.651	5933.99
668.842	6087.59
669.033	5831.59
669.224	5835.69
669.416	5800.87
669.607	5940.13
669.798	5772.2
669.989	5884.84
670.18	5667.75
670.371	5688.23
670.563	5804.97
670.754	5614.51
670.945	5694.38
671.136	5577.64
671.327	5682.09
671.518	5483.44
671.709	5485.48
671.9	5567.4
672.091	5456.81
672.282	5436.33
672.473	5436.33
672.664	5462.96
672.855	5311.41
673.046	5458.86
673.237	5366.7
673.428	5168.05
673.619	5217.2
673.809	5237.68
674	5487.53
674.191	5274.54
674.382	5170.1
674.573	5233.58
674.764	5247.92
674.954	5155.76
675.145	5096.37
675.336	5139.38
675.527	5020.6
675.717	5120.95
675.908	5079.99
676.099	5176.24
676.289	5045.17
676.48	5000.12
676.671	5151.67
676.861	4977.59
677.052	4959.16
677.243	4916.15
677.433	4944.82
677.624	4977.59
677.814	4742.07
678.005	4930.48
678.195	4811.7
678.386	4727.74
678.576	4811.7
678.767	4770.74
678.957	4772.79
679.148	4752.31
679.338	4877.24
679.529	4797.37
679.719	4793.27
679.909	4852.66
680.1	4647.87
680.29	4578.23
680.481	4641.72
680.671	4703.16
680.861	4768.7
681.052	4727.74
681.242	4651.96
681.432	4580.28
681.622	4586.43
681.813	4547.51
682.003	4553.66
682.193	4594.62
682.383	4559.8
682.573	4436.92
682.764	4422.59
682.954	4496.32
683.144	4527.03
683.334	4410.3
683.524	4436.92
683.714	4490.17
683.904	4400.06
684.094	4455.36
684.284	4359.1
684.474	4469.69
684.664	4303.81
684.854	4307.9
685.044	4344.77
685.234	4338.62
685.424	4287.42
685.614	4355.01
685.804	4361.15
685.994	4260.8
686.184	4305.85
686.374	4205.5
686.564	4096.96
686.753	4230.08
686.943	4180.93
687.133	4090.82
687.323	4248.51
687.513	4148.16
687.702	3955.65
687.892	4078.53
688.082	4111.3
688.272	4027.33
688.461	3888.07
688.651	3875.78
688.841	3994.56
689.03	3881.92
689.22	3867.59
689.41	4033.47
689.599	3955.65
689.789	3904.45
689.979	4056
690.168	4064.19
690.358	3713.99
690.547	3826.63
690.737	3726.28
690.926	3863.49
691.116	3722.18
691.305	3851.21
691.495	3703.75
691.684	3591.11
691.874	3728.33
692.063	3564.49
692.252	3738.57
692.442	3701.7
692.631	3742.66
692.82	3568.59
693.01	3646.41
693.199	3562.44
693.388	3533.77
693.578	3677.13
693.767	3544.01
693.956	3525.58
694.146	3433.42
694.335	3490.76
694.524	3478.47
694.713	3470.28
694.902	3333.07
695.092	3376.08
695.281	3353.55
695.47	3384.27
695.659	3267.53
695.848	3316.69
696.037	3328.97
696.226	3238.86
696.415	3255.25
696.604	3269.58
696.793	3326.93
696.982	3300.3
697.171	3279.82
697.36	3267.53
697.549	3228.62
697.738	3202
697.927	3253.2
698.116	3296.21
698.305	3083.22
698.494	3226.57
698.683	3138.51
698.872	3273.68
699.061	3273.68
699.25	3087.31
699.438	3326.93
699.627	3148.75
699.816	3101.65
700.005	3115.98
700.193	3017.68
700.382	3019.73
700.571	3113.94
700.76	3091.41
700.948	3011.54
701.137	3109.84
701.326	3081.17
701.514	3072.98
701.703	3111.89
701.892	3011.54
702.08	3050.45
702.269	3042.26
702.457	3124.18
702.646	3101.65
702.834	3083.22
703.023	3075.03
703.212	2943.96
703.4	2970.58
703.589	2939.86
703.777	3025.87
703.965	2943.96
704.154	2960.34
704.342	2810.84
704.531	2900.95
704.719	2894.8
704.907	2954.19
705.096	3124.18
705.284	2972.63
705.472	2905.04
705.661	2892.76
705.849	2933.72
706.037	2882.52
706.226	2776.02
706.414	2816.98
706.602	2857.94
706.79	2931.67
706.979	2810.84
707.167	2816.98
707.355	2937.81
707.543	2864.08
707.731	2847.7
707.919	2888.66
708.107	2849.75
708.296	2886.61
708.484	2931.67
708.672	2872.28
708.86	2851.8
709.048	2829.27
709.236	2892.76
709.424	3015.63
709.612	2882.52
709.8	2796.5
709.988	2991.06
710.176	2982.87
710.364	2831.32
710.551	2921.43
710.739	2857.94
710.927	2913.24
711.115	2907.09
711.303	2872.28
711.491	2843.6
711.679	2851.8
711.866	2720.73
712.054	2788.31
712.242	2845.65
712.43	2943.96
712.617	2864.08
712.805	2855.89
712.993	2780.12
713.181	2835.41
713.368	2857.94
713.556	2935.76
713.744	2843.6
713.931	2909.14
714.119	2704.34
714.306	2837.46
714.494	2874.32
714.682	2761.69
714.869	2816.98
715.057	2827.22
715.244	2821.08
715.432	2806.74
715.619	2790.36
715.807	2806.74
715.994	2759.64
716.182	2790.36
716.369	2839.51
716.556	2808.79
716.744	2810.84
716.931	2747.35
717.119	2704.34
717.306	2808.79
717.493	2823.12
717.681	2843.6
717.868	2737.11
718.055	2862.04
718.242	2761.69
718.43	2747.35
718.617	2794.45
718.804	2681.82
718.991	2884.56
719.179	2700.25
719.366	2743.25
719.553	2759.64
719.74	2712.53
719.927	2864.08
720.114	2769.88
720.301	2745.3
720.488	2814.93
720.676	2771.93
720.863	2673.62
721.05	2798.55
721.237	2651.1
721.424	2671.58
721.611	2810.84
721.798	2690.01
721.985	2685.91
722.172	2751.45
722.358	2642.9
722.545	2696.15
722.732	2718.68
722.919	2806.74
723.106	2841.56
723.293	2702.29
723.48	2782.17
723.667	2612.18
723.853	2739.16
724.04	2718.68
724.227	2720.73
724.414	2737.11
724.6	2808.79
724.787	2739.16
724.974	2839.51
725.161	2663.38
725.347	2757.59
725.534	2683.86
725.72	2603.99
725.907	2700.25
726.094	2829.27
726.28	2704.34
726.467	2698.2
726.653	2739.16
726.84	2704.34
727.027	2941.91
727.213	2673.62
727.4	2751.45
727.586	2704.34
727.773	2802.65
727.959	2790.36
728.145	2794.45
728.332	2739.16
728.518	2755.54
728.705	2839.51
728.891	2706.39
729.077	2872.28
729.264	2773.97
729.45	2603.99
729.636	2888.66
729.823	2671.58
730.009	2814.93
730.195	2685.91
730.382	2708.44
730.568	2677.72
730.754	2788.31
730.94	2831.32
731.126	2767.83
731.313	2706.39
731.499	2827.22
731.685	2739.16
731.871	2794.45
732.057	2825.17
732.243	2821.08
732.429	2794.45
732.615	2665.43
732.801	2665.43
732.987	2690.01
733.173	2829.27
733.359	2806.74
733.545	2763.73
733.731	2706.39
733.917	2857.94
734.103	2864.08
734.289	2870.23
734.475	2741.21
734.661	2857.94
734.847	2819.03
735.033	2722.77
735.219	2792.41
735.404	2778.07
735.59	2741.21
735.776	2644.95
735.962	2712.53
736.148	2700.25
736.333	2800.6
736.519	2794.45
736.705	2610.14
736.89	2823.12
737.076	2745.3
737.262	2716.63
737.447	2608.09
737.633	2696.15
737.819	2702.29
738.004	2812.89
738.19	2683.86
738.375	2767.83
738.561	2733.01
738.747	2733.01
738.932	2649.05
739.118	2862.04
739.303	2632.66
739.489	2560.98
739.674	2614.23
739.859	2552.79
740.045	2737.11
740.23	2649.05
740.416	2665.43
740.601	2692.05
740.786	2708.44
740.972	2655.19
741.157	2634.71
741.342	2567.13
741.528	2540.51
741.713	2583.51
741.898	2663.38
742.084	2661.34
742.269	2515.93
742.454	2618.33
742.639	2483.16
742.824	2479.07
743.01	2487.26
743.195	2618.33
743.38	2534.36
743.565	2626.52
743.75	2581.46
743.935	2497.5
744.12	2530.27
744.305	2530.27
744.49	2479.07
744.675	2440.15
744.86	2522.07
745.045	2466.78
745.23	2460.63
745.415	2509.79
745.6	2538.46
745.785	2417.63
745.97	2399.2
746.155	2450.39
746.34	2417.63
746.525	2401.24
746.71	2470.87
746.895	2321.37
747.079	2311.13
747.264	2296.8
747.449	2261.98
747.634	2317.28
747.819	2286.56
748.003	2243.55
748.188	2356.19
748.373	2180.06
748.557	2270.17
748.742	2139.1
748.927	2161.63
749.111	2139.1
749.296	2239.45
749.481	2137.06
749.665	2079.71
749.85	2137.06
750.034	2079.71
750.219	2077.66
750.404	2075.62
750.588	2194.4
750.773	1967.07
750.957	2059.23
751.141	2003.94
751.326	1887.2
751.51	2118.62
751.695	2042.85
751.879	1997.79
752.064	2016.23
752.248	1993.7
752.432	2092
752.617	2089.95
752.801	1907.68
752.985	1969.12
753.17	1940.45
753.354	1891.3
753.538	1926.11
753.722	1879.01
753.907	1827.81
754.091	1809.38
754.275	1670.12
754.459	1909.73
754.643	1809.38
754.828	1704.93
755.012	1856.48
755.196	1706.98
755.38	1749.99
755.564	1756.13
755.748	1709.03
755.932	1836
756.116	1739.75
756.3	1653.73
756.484	1641.45
756.668	1659.88
756.852	1600.49
757.036	1604.58
757.22	1627.11
757.404	1588.2
757.588	1534.95
757.772	1661.93
757.956	1616.87
758.14	1543.14
758.323	1612.78
758.507	1575.91
758.691	1606.63
758.875	1532.9
759.059	1629.16
759.242	1555.43
759.426	1573.86
759.61	1491.95
759.794	1475.56
759.977	1582.06
760.161	1530.86
760.345	1487.85
760.528	1520.62
760.712	1479.66
760.895	1401.83
761.079	1491.95
761.263	1287.15
761.446	1397.74
761.63	1461.23
761.813	1475.56
761.997	1354.73
762.18	1477.61
762.364	1358.83
762.547	1301.48
762.731	1512.42
762.914	1428.46
763.098	1395.69
763.281	1371.12
763.464	1473.51
763.648	1295.34
763.831	1438.7
764.015	1311.72
764.198	1315.82
764.381	1360.88
764.564	1254.38
764.748	1328.11
764.931	1346.54
765.114	1250.28
765.297	1352.68
765.481	1252.33
765.664	1260.52
765.847	1227.76
766.03	1188.85
766.213	1205.23
766.397	1256.43
766.58	1188.85
766.763	1309.68
766.946	1170.41
767.129	1221.61
767.312	1252.33
767.495	1225.71
767.678	1219.57
767.861	1180.65
768.044	1211.37
768.227	1254.38
768.41	1252.33
768.593	1158.13
768.776	1164.27
768.959	1250.28
769.142	1156.08
769.324	1231.85
769.507	1221.61
769.69	1078.26
769.873	1102.83
770.056	1176.56
770.239	1086.45
770.421	1100.78
770.604	1121.26
770.787	1029.1
770.97	1121.26
771.152	1121.26
771.335	1082.35
771.518	1113.07
771.7	1078.26
771.883	1133.55
772.066	1078.26
772.248	986.1
772.431	965.62
772.613	1041.39
772.796	1065.97
772.978	1010.67
773.161	1037.3
773.343	1029.1
773.526	982
773.708	967.67
773.891	1154.03
774.073	988.14
774.256	955.38
774.438	1012.72
774.621	1041.39
774.803	984.05
774.985	955.38
775.168	951.28
775.35	928.75
775.532	883.7
775.715	828.4
775.897	934.9
776.079	852.98
776.261	955.38
776.444	877.55
776.626	883.7
776.808	871.41
776.99	936.95
777.173	826.36
777.355	779.25
777.537	891.89
777.719	926.71
777.901	816.12
778.083	773.11
778.265	766.96
778.447	828.4
778.629	801.78
778.811	764.92
778.993	834.55
779.175	801.78
779.357	809.97
779.539	758.77
779.721	816.12
779.903	836.6
780.085	773.11
780.267	775.16
780.449	719.86
780.631	754.68
780.812	742.39
780.994	818.16
781.176	658.42
781.358	793.59
781.54	662.52
781.721	732.15
781.903	680.95
782.085	713.72
782.267	754.68
782.448	623.61
782.63	646.13
782.812	685.05
782.993	648.18
783.175	607.22
783.357	644.09
783.538	627.7
783.72	656.37
783.901	615.41
784.083	672.76
784.264	617.46
784.446	556.02
784.627	549.88
784.809	699.38
784.99	627.7
785.172	566.26
785.353	644.09
785.535	639.99
785.716	570.36
785.897	543.74
786.079	603.13
786.26	541.69
786.441	570.36
786.623	525.3
786.804	596.98
786.985	623.61
787.167	537.59
787.348	537.59
787.529	578.55
787.71	531.45
787.891	525.3
788.073	486.39
788.254	547.83
788.435	521.21
788.616	574.46
788.797	418.81
788.978	572.41
789.159	531.45
789.34	441.34
789.522	435.19
789.703	474.1
789.884	476.15
790.065	482.3
790.246	537.59
790.427	429.05
790.607	498.68
790.788	455.67
790.969	459.77
791.15	453.63
791.331	470.01
791.512	445.43
791.693	463.86
791.874	486.39
792.054	383.99
792.235	357.37
792.416	467.96
792.597	453.63
792.778	523.26
792.958	355.32
793.139	429.05
793.32	435.19
793.5	381.95
793.681	441.34
793.862	447.48
794.042	492.54
794.223	459.77
794.404	365.56
794.584	379.9
794.765	388.09
794.945	332.79
795.126	431.1
795.306	353.27
795.487	383.99
795.667	400.38
795.848	361.47
796.028	336.89
796.209	447.48
796.389	363.51
796.57	361.47
796.75	273.4
796.93	314.36
797.111	312.32
797.291	338.94
797.471	345.08
797.652	375.8
797.832	349.18
798.012	332.79
798.192	390.14
798.373	254.97
798.553	289.79
798.733	392.19
798.913	322.56
799.093	322.56
799.274	377.85
799.454	300.03
799.634	418.81
799.814	336.89
799.994	326.65
800.174	300.03
800.354	343.03
800.534	308.22
800.714	326.65
800.894	314.36
801.074	302.08
801.254	254.97
801.434	283.64
801.614	283.64
801.794	287.74
801.974	594.93
802.154	300.03
802.334	351.23
802.514	289.79
802.693	254.97
802.873	244.73
803.053	287.74
803.233	283.64
803.413	318.46
803.592	222.2
803.772	322.56
803.952	271.36
804.131	281.6
804.311	324.6
804.491	328.7
804.67	291.84
804.85	304.12
805.03	265.21
805.209	300.03
805.389	269.31
805.568	203.77
805.748	209.92
805.928	197.63
806.107	259.07
806.287	236.54
806.466	261.12
806.646	158.72
806.825	220.16
807.004	228.35
807.184	242.68
807.363	343.03
807.543	322.56
807.722	304.12
807.901	254.97
808.081	257.02
808.26	228.35
808.439	201.72
808.619	175.1
808.798	209.92
808.977	287.74
809.156	254.97
809.336	302.08
809.515	252.92
809.694	240.64
809.873	263.16
810.052	205.82
810.231	322.56
810.411	197.63
810.59	214.01
810.769	263.16
810.948	300.03
811.127	222.2
811.306	254.97
811.485	197.63
811.664	289.79
811.843	205.82
812.022	144.38
812.201	144.38
812.38	179.2
812.559	242.68
812.737	232.44
812.916	142.33
813.095	244.73
813.274	250.88
813.453	224.25
813.632	232.44
813.811	222.2
813.989	193.53
814.168	197.63
814.347	195.58
814.526	297.98
814.704	263.16
814.883	144.38
815.062	105.47
815.24	193.53
815.419	154.62
815.598	203.77
815.776	195.58
815.955	173.05
816.133	160.77
816.312	189.44
816.49	158.72
816.669	197.63
816.847	175.1
817.026	171.01
817.204	123.9
817.383	193.53
817.561	128
817.74	197.63
817.918	185.34
818.097	205.82
818.275	93.18
818.453	115.71
818.632	168.96
818.81	232.44
818.988	101.37
819.167	187.39
819.345	144.38
819.523	154.62
819.701	154.62
819.879	148.48
820.058	177.15
820.236	119.81
820.414	164.86
820.592	111.61
820.77	191.49
820.948	177.15
821.127	140.29
821.305	201.72
821.483	101.37
821.661	136.19
821.839	162.81
822.017	99.33
822.195	177.15
822.373	136.19
822.551	175.1
822.729	175.1
822.907	142.33
823.085	84.99
823.262	160.77
823.44	119.81
823.618	168.96
823.796	121.85
823.974	113.66
824.152	97.28
824.329	138.24
824.507	95.23
824.685	105.47
824.863	150.53
825.04	185.34
825.218	134.14
825.396	187.39
825.574	164.86
825.751	148.48
825.929	91.13
826.107	121.85
826.284	115.71
826.462	148.48
826.639	181.25
826.817	121.85
826.994	62.46
827.172	95.23
827.349	48.13
827.527	134.14
827.704	107.52
827.882	128
828.059	109.57
828.237	109.57
828.414	82.94
828.591	103.42
828.769	148.48
828.946	37.89
829.124	164.86
829.301	99.33
829.478	156.67
829.655	111.61
829.833	95.23
830.01	111.61
830.187	115.71
830.364	70.65
830.542	78.85
830.719	148.48
830.896	119.81
831.073	48.13
831.25	111.61
831.427	158.72
831.604	205.82
831.782	173.05
831.959	66.56
832.136	82.94
832.313	95.23
832.49	82.94
832.667	78.85
832.844	-35.84
833.021	103.42
833.198	70.65
833.374	58.37
833.551	154.62
833.728	74.75
833.905	52.22
834.082	41.98
834.259	121.85
834.436	50.18
834.612	35.84
834.789	66.56
834.966	35.84
835.143	82.94
835.319	48.13
835.496	56.32
835.673	113.66
835.85	72.7
836.026	121.85
836.203	214.01
836.38	41.98
836.556	156.67
836.733	115.71
836.909	171.01
837.086	29.7
837.262	136.19
837.439	117.76
837.616	117.76
837.792	103.42
837.968	113.66
838.145	44.03
838.321	56.32
838.498	66.56
838.674	62.46
838.851	109.57
839.027	134.14
839.203	82.94
839.38	109.57
839.556	125.95
839.732	95.23
839.909	93.18
840.085	62.46
840.261	84.99
840.437	107.52
840.614	95.23
840.79	107.52
840.966	80.89
841.142	72.7
841.318	99.33
841.494	80.89
841.671	82.94
841.847	19.46
842.023	3.07
842.199	70.65
842.375	125.95
842.551	15.36
842.727	64.51
842.903	91.13
843.079	109.57
843.255	25.6
843.431	37.89
843.607	87.04
843.783	35.84
843.959	72.7
844.134	48.13
844.31	121.85
844.486	101.37
844.662	23.55
844.838	76.8
845.013	72.7
845.189	95.23
845.365	156.67
845.541	156.67
845.716	111.61
845.892	64.51
846.068	37.89
846.244	41.98
846.419	25.6
846.595	29.7
846.77	46.08
846.946	191.49
847.122	66.56
847.297	138.24
847.473	35.84
847.648	39.94
847.824	66.56
847.999	58.37
848.175	7.17
848.35	84.99
848.526	39.94
848.701	60.42
848.876	70.65
849.052	48.13
849.227	66.56
849.403	107.52
849.578	113.66
849.753	31.74
849.929	50.18
850.104	99.33
850.279	91.13
850.454	17.41
850.63	5.12
850.805	54.27
850.98	76.8
851.155	48.13
851.33	9.22
851.505	-29.7
851.681	74.75
851.856	-11.26
852.031	-23.55
852.206	41.98
852.381	70.65
852.556	46.08
852.731	21.5
852.906	89.09
853.081	25.6
853.256	33.79
853.431	64.51
853.606	78.85
853.781	15.36
853.956	-13.31
854.131	64.51
854.305	84.99
854.48	91.13
854.655	-23.55
854.83	25.6
855.005	50.18
855.18	52.22
855.354	-52.22
855.529	46.08
855.704	113.66
855.879	25.6
856.053	-29.7
856.228	44.03
856.403	89.09
856.577	93.18
856.752	54.27
856.926	50.18
857.101	72.7
857.276	46.08
857.45	72.7
857.625	91.13
857.799	48.13
857.974	46.08
858.148	46.08
858.323	23.55
858.497	48.13
858.672	29.7
858.846	-13.31
859.02	25.6
859.195	46.08
859.369	-3.07
859.543	-54.27
859.718	17.41
859.892	31.74
860.066	74.75
860.241	82.94
860.415	60.42
860.589	99.33
860.763	13.31
860.938	29.7
861.112	62.46
861.286	-23.55
861.46	48.13
861.634	7.17
861.808	25.6
861.982	13.31
862.157	60.42
862.331	25.6
862.505	5.12
862.679	15.36
862.853	103.42
863.027	7.17
863.201	62.46
863.375	25.6
863.549	56.32
863.722	1.02
863.896	35.84
864.07	11.26
864.244	37.89
864.418	44.03
864.592	-31.74
864.766	7.17
864.939	-29.7
865.113	-29.7
865.287	68.61
865.461	119.81
865.634	68.61
865.808	5.12
865.982	-46.08
866.156	5.12
866.329	-41.98
866.503	80.89
866.676	5.12
866.85	-27.65
867.024	-23.55
867.197	37.89
867.371	52.22
867.544	41.98
867.718	29.7
867.891	60.42
868.065	52.22
868.238	70.65
868.412	23.55
868.585	62.46
868.759	25.6
868.932	58.37
869.105	5.12
869.279	56.32
869.452	56.32
869.625	74.75
869.799	11.26
869.972	97.28
870.145	-7.17
870.319	-25.6
870.492	74.75
870.665	19.46
870.838	44.03
871.011	-44.03
871.185	5.12
871.358	-7.17
871.531	-15.36
871.704	-68.61
871.877	-17.41
872.05	-7.17
872.223	-9.22
872.396	-9.22
872.569	31.74
872.742	-27.65
872.915	19.46
873.088	-41.98
873.261	23.55
873.434	-11.26
873.607	19.46
873.78	74.75
873.953	70.65
874.126	11.26
874.299	54.27
874.471	5.12
874.644	60.42
874.817	-17.41
874.99	87.04
875.163	31.74
875.335	70.65
875.508	-9.22
875.681	54.27
875.853	35.84
876.026	99.33
876.199	27.65
876.371	7.17
876.544	15.36
876.717	25.6
876.889	-29.7
877.062	-1.02
877.234	64.51
877.407	82.94
877.579	54.27
877.752	58.37
877.924	5.12
878.097	-15.36
878.269	60.42
878.442	29.7
878.614	7.17
878.786	25.6
878.959	-35.84
879.131	5.12
879.303	23.55
879.476	-27.65
879.648	-31.74
879.82	23.55
879.993	-29.7
880.165	17.41
880.337	5.12
880.509	35.84
880.681	11.26
880.854	7.17
881.026	25.6
881.198	27.65
881.37	21.5
881.542	58.37
881.714	-44.03
881.886	29.7
882.058	70.65
882.23	39.94
882.402	35.84
882.574	52.22
882.746	13.31
882.918	15.36
883.09	-17.41
883.262	5.12
883.434	78.85
883.606	33.79
883.778	44.03
883.95	99.33
884.122	-29.7
884.293	17.41
884.465	-11.26
884.637	7.17
884.809	-44.03
884.98	13.31
885.152	70.65
885.324	41.98
885.496	-11.26
885.667	101.37
885.839	-1.02
886.011	-11.26
886.182	-80.89
886.354	48.13
886.525	76.8
886.697	29.7
886.869	68.61
887.04	64.51
887.212	62.46
887.383	121.85
887.555	46.08
887.726	-31.74
887.897	27.65
888.069	21.5
888.24	46.08
888.412	-62.46
888.583	-13.31
888.754	41.98
888.926	-39.94
889.097	3.07
889.268	-5.12
889.44	46.08
889.611	33.79
889.782	-5.12
889.953	-35.84
890.125	-25.6
890.296	-13.31
890.467	52.22
890.638	21.5
890.809	-9.22
890.98	-60.42
891.151	23.55
891.323	41.98
891.494	1.02
891.665	25.6
891.836	-15.36
892.007	31.74
892.178	33.79
892.349	-5.12
892.52	-9.22
892.691	27.65
892.862	7.17
893.032	23.55
893.203	-3.07
893.374	-46.08
893.545	62.46
893.716	72.7
893.887	31.74
894.057	29.7
894.228	15.36
894.399	1.02
894.57	58.37
894.74	-82.94
894.911	17.41
895.082	7.17
895.253	-52.22
895.423	21.5
895.594	56.32
895.764	-5.12
895.935	3.07
896.106	-39.94
896.276	-29.7
896.447	54.27
896.617	-31.74
896.788	-3.07
896.958	37.89
897.129	-37.89
897.299	7.17
897.47	64.51
897.64	-50.18
897.81	21.5
897.981	70.65
898.151	13.31
898.322	31.74
898.492	21.5
898.662	-9.22
898.832	31.74
899.003	-78.85
899.173	62.46
899.343	9.22
899.513	23.55
