Data from USB4F104151__30__11-44-52-512.txt Node

Date: Fri Mar 14 11:44:52 EDT 2025
User: louis
Spectrometer: USB4F10415
Trigger mode: 4
Integration Time (sec): 2.000000E-2
Scans to average: 1
Electric dark correction enabled: true
Nonlinearity correction enabled: false
Boxcar width: 0
XAxis mode: Wavelengths
Number of Pixels in Spectrum: 3648
>>>>>Begin Spectral Data<<<<<
178.204	-69.8
178.424	-69.8
178.644	-69.8
178.864	-102.57
179.084	-100.52
179.304	-0.17
179.524	26.45
179.744	1.88
179.964	-55.47
180.184	-6.31
180.404	-2.22
180.624	20.31
180.844	18.26
181.064	-34.99
181.283	18.26
181.503	-37.03
181.723	51.03
181.943	-20.65
182.163	57.17
182.383	10.07
182.602	14.17
182.822	-10.41
183.042	48.98
183.262	24.4
183.482	-4.27
183.701	40.79
183.921	-55.47
184.141	-34.99
184.361	-14.51
184.58	63.32
184.8	34.64
185.02	-18.6
185.239	32.6
185.459	28.5
185.679	87.89
185.898	24.4
186.118	42.84
186.338	34.64
186.557	-10.41
186.777	46.93
186.997	59.22
187.216	83.8
187.436	34.64
187.655	65.36
187.875	42.84
188.095	-14.51
188.314	-14.51
188.534	96.08
188.753	-8.36
188.973	12.12
189.192	87.89
189.412	-4.27
189.631	65.36
189.851	14.17
190.07	10.07
190.29	-8.36
190.509	32.6
190.729	36.69
190.948	96.08
191.168	104.28
191.387	116.56
191.607	3.93
191.826	55.12
192.045	20.31
192.265	-26.79
192.484	85.84
192.704	61.27
192.923	118.61
193.142	53.08
193.362	18.26
193.581	69.46
193.8	-16.55
194.02	30.55
194.239	55.12
194.458	26.45
194.678	-59.56
194.897	65.36
195.116	59.22
195.335	38.74
195.555	-24.75
195.774	-4.27
195.993	5.97
196.212	28.5
196.432	8.02
196.651	124.76
196.87	65.36
197.089	67.41
197.308	-0.17
197.528	151.38
197.747	-14.51
197.966	5.97
198.185	42.84
198.404	-6.31
198.623	16.21
198.842	61.27
199.062	53.08
199.281	55.12
199.5	51.03
199.719	61.27
199.938	40.79
200.157	91.99
200.376	28.5
200.595	8.02
200.814	-24.75
201.033	-26.79
201.252	24.4
201.471	87.89
201.69	69.46
201.909	59.22
202.128	20.31
202.347	71.51
202.566	-28.84
202.785	-18.6
203.004	-14.51
203.223	87.89
203.442	71.51
203.661	12.12
203.879	34.64
204.098	38.74
204.317	38.74
204.536	28.5
204.755	26.45
204.974	-2.22
205.193	10.07
205.411	91.99
205.63	34.64
205.849	36.69
206.068	3.93
206.287	-12.46
206.505	51.03
206.724	71.51
206.943	-8.36
207.162	71.51
207.381	44.88
207.599	-10.41
207.818	30.55
208.037	-24.75
208.255	-4.27
208.474	55.12
208.693	18.26
208.911	28.5
209.13	44.88
209.349	96.08
209.567	96.08
209.786	48.98
210.005	96.08
210.223	40.79
210.442	-51.37
210.661	42.84
210.879	18.26
211.098	12.12
211.316	55.12
211.535	38.74
211.753	67.41
211.972	-2.22
212.191	3.93
212.409	48.98
212.628	14.17
212.846	-32.94
213.065	-2.22
213.283	96.08
213.502	24.4
213.72	-26.79
213.938	-45.23
214.157	20.31
214.375	46.93
214.594	-16.55
214.812	51.03
215.031	-55.47
215.249	40.79
215.467	14.17
215.686	-26.79
215.904	55.12
216.122	42.84
216.341	104.28
216.559	91.99
216.778	-0.17
216.996	81.75
217.214	40.79
217.432	-73.9
217.651	48.98
217.869	40.79
218.087	83.8
218.306	5.97
218.524	75.6
218.742	-16.55
218.96	57.17
219.179	-32.94
219.397	22.36
219.615	143.19
219.833	-30.89
220.051	30.55
220.27	32.6
220.488	-53.42
220.706	-63.66
220.924	3.93
221.142	-16.55
221.36	32.6
221.578	20.31
221.796	20.31
222.015	-6.31
222.233	36.69
222.451	94.04
222.669	46.93
222.887	71.51
223.105	79.7
223.323	55.12
223.541	3.93
223.759	-26.79
223.977	44.88
224.195	34.64
224.413	10.07
224.631	5.97
224.849	59.22
225.067	91.99
225.285	40.79
225.503	32.6
225.721	32.6
225.939	30.55
226.157	8.02
226.375	28.5
226.592	75.6
226.81	40.79
227.028	75.6
227.246	118.61
227.464	48.98
227.682	14.17
227.9	28.5
228.117	63.32
228.335	-22.7
228.553	10.07
228.771	34.64
228.989	53.08
229.206	-2.22
229.424	24.4
229.642	-37.03
229.86	-4.27
230.077	3.93
230.295	16.21
230.513	100.18
230.731	59.22
230.948	42.84
231.166	59.22
231.384	-71.85
231.601	53.08
231.819	89.94
232.037	34.64
232.254	-20.65
232.472	32.6
232.689	24.4
232.907	34.64
233.125	-16.55
233.342	10.07
233.56	71.51
233.777	94.04
233.995	42.84
234.213	73.56
234.43	67.41
234.648	28.5
234.865	46.93
235.083	63.32
235.3	-22.7
235.518	46.93
235.735	26.45
235.953	69.46
236.17	5.97
236.388	22.36
236.605	22.36
236.822	73.56
237.04	44.88
237.257	77.65
237.475	8.02
237.692	10.07
237.909	85.84
238.127	71.51
238.344	124.76
238.562	108.37
238.779	-10.41
238.996	-26.79
239.214	1.88
239.431	-37.03
239.648	89.94
239.865	20.31
240.083	67.41
240.3	57.17
240.517	85.84
240.735	-30.89
240.952	42.84
241.169	63.32
241.386	10.07
241.603	46.93
241.821	12.12
242.038	85.84
242.255	12.12
242.472	40.79
242.689	65.36
242.907	46.93
243.124	44.88
243.341	-4.27
243.558	-6.31
243.775	81.75
243.992	36.69
244.209	30.55
244.426	42.84
244.643	65.36
244.86	-14.51
245.078	5.97
245.295	3.93
245.512	46.93
245.729	30.55
245.946	44.88
246.163	61.27
246.38	-4.27
246.597	-6.31
246.814	38.74
247.031	12.12
247.248	-6.31
247.464	12.12
247.681	-32.94
247.898	-4.27
248.115	91.99
248.332	-30.89
248.549	16.21
248.766	77.65
248.983	85.84
249.2	44.88
249.417	44.88
249.633	-26.79
249.85	73.56
250.067	-30.89
250.284	26.45
250.501	53.08
250.717	55.12
250.934	-4.27
251.151	-22.7
251.368	55.12
251.585	-6.31
251.801	-51.37
252.018	38.74
252.235	63.32
252.451	1.88
252.668	-6.31
252.885	55.12
253.102	10.07
253.318	110.42
253.535	20.31
253.752	-0.17
253.968	5.97
254.185	1.88
254.401	3.93
254.618	16.21
254.835	5.97
255.051	69.46
255.268	26.45
255.484	61.27
255.701	20.31
255.917	69.46
256.134	-32.94
256.351	40.79
256.567	46.93
256.784	96.08
257	-37.03
257.217	120.66
257.433	36.69
257.65	36.69
257.866	63.32
258.082	48.98
258.299	-2.22
258.515	20.31
258.732	22.36
258.948	5.97
259.165	38.74
259.381	36.69
259.597	59.22
259.814	59.22
260.03	10.07
260.246	71.51
260.463	14.17
260.679	102.23
260.895	61.27
261.112	32.6
261.328	42.84
261.544	8.02
261.761	106.32
261.977	96.08
262.193	96.08
262.409	91.99
262.626	5.97
262.842	14.17
263.058	42.84
263.274	104.28
263.49	10.07
263.707	18.26
263.923	59.22
264.139	22.36
264.355	28.5
264.571	100.18
264.787	-26.79
265.004	28.5
265.22	36.69
265.436	69.46
265.652	-30.89
265.868	42.84
266.084	26.45
266.3	-18.6
266.516	-0.17
266.732	-0.17
266.948	81.75
267.164	28.5
267.38	108.37
267.596	55.12
267.812	26.45
268.028	26.45
268.244	12.12
268.46	30.55
268.676	-6.31
268.892	57.17
269.108	-2.22
269.324	8.02
269.54	30.55
269.756	63.32
269.972	42.84
270.188	46.93
270.403	-32.94
270.619	-24.75
270.835	3.93
271.051	-22.7
271.267	-34.99
271.483	63.32
271.698	20.31
271.914	42.84
272.13	38.74
272.346	69.46
272.562	46.93
272.777	1.88
272.993	10.07
273.209	-8.36
273.425	71.51
273.64	155.47
273.856	12.12
274.072	14.17
274.287	34.64
274.503	14.17
274.719	3.93
274.934	-43.18
275.15	14.17
275.366	-16.55
275.581	-10.41
275.797	10.07
276.012	40.79
276.228	59.22
276.444	79.7
276.659	44.88
276.875	28.5
277.09	14.17
277.306	18.26
277.521	85.84
277.737	-10.41
277.952	85.84
278.168	100.18
278.383	87.89
278.599	-16.55
278.814	42.84
279.03	-18.6
279.245	61.27
279.461	83.8
279.676	1.88
279.892	18.26
280.107	42.84
280.322	67.41
280.538	57.17
280.753	-0.17
280.969	-20.65
281.184	14.17
281.399	73.56
281.615	-0.17
281.83	132.95
282.045	51.03
282.26	32.6
282.476	96.08
282.691	98.13
282.906	34.64
283.122	63.32
283.337	-67.75
283.552	83.8
283.767	-22.7
283.983	81.75
284.198	46.93
284.413	28.5
284.628	44.88
284.843	51.03
285.058	10.07
285.274	1.88
285.489	3.93
285.704	30.55
285.919	20.31
286.134	22.36
286.349	-43.18
286.564	65.36
286.779	18.26
286.995	18.26
287.21	32.6
287.425	10.07
287.64	26.45
287.855	40.79
288.07	51.03
288.285	77.65
288.5	-4.27
288.715	89.94
288.93	32.6
289.145	79.7
289.36	40.79
289.575	20.31
289.79	24.4
290.004	61.27
290.219	14.17
290.434	40.79
290.649	44.88
290.864	12.12
291.079	63.32
291.294	100.18
291.509	63.32
291.724	75.6
291.938	87.89
292.153	73.56
292.368	26.45
292.583	40.79
292.798	63.32
293.012	63.32
293.227	-39.08
293.442	38.74
293.657	-10.41
293.871	61.27
294.086	69.46
294.301	85.84
294.516	44.88
294.73	12.12
294.945	5.97
295.16	51.03
295.374	59.22
295.589	8.02
295.804	-43.18
296.018	-22.7
296.233	-47.27
296.447	-16.55
296.662	-4.27
296.877	130.9
297.091	69.46
297.306	-0.17
297.52	26.45
297.735	79.7
297.949	5.97
298.164	5.97
298.378	79.7
298.593	-12.46
298.807	10.07
299.022	-49.32
299.236	73.56
299.451	100.18
299.665	12.12
299.88	48.98
300.094	-34.99
300.309	73.56
300.523	-12.46
300.737	30.55
300.952	46.93
301.166	-12.46
301.381	44.88
301.595	71.51
301.809	36.69
302.024	14.17
302.238	42.84
302.452	20.31
302.667	30.55
302.881	100.18
303.095	59.22
303.309	120.66
303.524	12.12
303.738	16.21
303.952	55.12
304.166	53.08
304.381	-16.55
304.595	28.5
304.809	53.08
305.023	24.4
305.237	75.6
305.452	100.18
305.666	91.99
305.88	16.21
306.094	46.93
306.308	-47.27
306.522	20.31
306.736	-2.22
306.95	91.99
307.164	118.61
307.379	20.31
307.593	34.64
307.807	32.6
308.021	57.17
308.235	5.97
308.449	8.02
308.663	3.93
308.877	89.94
309.091	63.32
309.305	63.32
309.519	57.17
309.733	14.17
309.947	42.84
310.161	108.37
310.374	135
310.588	71.51
310.802	89.94
311.016	24.4
311.23	12.12
311.444	83.8
311.658	32.6
311.872	59.22
312.085	48.98
312.299	116.56
312.513	32.6
312.727	87.89
312.941	20.31
313.154	83.8
313.368	-41.13
313.582	63.32
313.796	55.12
314.009	91.99
314.223	57.17
314.437	59.22
314.651	71.51
314.864	20.31
315.078	-2.22
315.292	-2.22
315.505	44.88
315.719	69.46
315.933	85.84
316.146	14.17
316.36	28.5
316.573	44.88
316.787	71.51
317.001	139.09
317.214	73.56
317.428	65.36
317.641	1.88
317.855	61.27
318.068	102.23
318.282	55.12
318.495	18.26
318.709	59.22
318.922	22.36
319.136	73.56
319.349	26.45
319.563	34.64
319.776	55.12
319.99	34.64
320.203	-22.7
320.417	-41.13
320.63	61.27
320.843	77.65
321.057	36.69
321.27	40.79
321.483	85.84
321.697	114.52
321.91	63.32
322.124	61.27
322.337	83.8
322.55	-12.46
322.763	38.74
322.977	36.69
323.19	1.88
323.403	77.65
323.617	-26.79
323.83	100.18
324.043	34.64
324.256	28.5
324.469	-16.55
324.683	48.98
324.896	34.64
325.109	108.37
325.322	34.64
325.535	77.65
325.748	91.99
325.962	-10.41
326.175	22.36
326.388	65.36
326.601	38.74
326.814	75.6
327.027	44.88
327.24	-22.7
327.453	51.03
327.666	18.26
327.879	-22.7
328.092	87.89
328.305	69.46
328.518	3.93
328.731	-34.99
328.944	71.51
329.157	71.51
329.37	40.79
329.583	10.07
329.796	57.17
330.009	-32.94
330.222	-18.6
330.435	42.84
330.648	26.45
330.861	5.97
331.073	36.69
331.286	59.22
331.499	57.17
331.712	-14.51
331.925	26.45
332.138	112.47
332.35	59.22
332.563	14.17
332.776	46.93
332.989	12.12
333.202	24.4
333.414	34.64
333.627	59.22
333.84	8.02
334.053	-30.89
334.265	5.97
334.478	38.74
334.691	116.56
334.903	38.74
335.116	79.7
335.329	-8.36
335.541	100.18
335.754	42.84
335.966	-24.75
336.179	36.69
336.392	40.79
336.604	34.64
336.817	106.32
337.029	34.64
337.242	69.46
337.454	108.37
337.667	73.56
337.88	149.33
338.092	118.61
338.305	53.08
338.517	53.08
338.729	71.51
338.942	46.93
339.154	14.17
339.367	-14.51
339.579	42.84
339.792	-71.85
340.004	91.99
340.217	128.85
340.429	48.98
340.641	1.88
340.854	89.94
341.066	57.17
341.278	67.41
341.491	55.12
341.703	67.41
341.915	22.36
342.128	61.27
342.34	40.79
342.552	55.12
342.764	8.02
342.977	24.4
343.189	3.93
343.401	44.88
343.613	55.12
343.826	79.7
344.038	87.89
344.25	98.13
344.462	59.22
344.674	24.4
344.886	3.93
345.099	65.36
345.311	108.37
345.523	59.22
345.735	-32.94
345.947	85.84
346.159	-12.46
346.371	44.88
346.583	53.08
346.795	89.94
347.007	28.5
347.219	132.95
347.431	22.36
347.643	20.31
347.855	89.94
348.067	55.12
348.279	57.17
348.491	26.45
348.703	59.22
348.915	38.74
349.127	-10.41
349.339	55.12
349.551	55.12
349.763	20.31
349.975	40.79
350.187	55.12
350.399	91.99
350.61	30.55
350.822	8.02
351.034	40.79
351.246	81.75
351.458	1.88
351.669	53.08
351.881	53.08
352.093	1.88
352.305	34.64
352.517	94.04
352.728	102.23
352.94	26.45
353.152	71.51
353.363	1.88
353.575	94.04
353.787	14.17
353.999	57.17
354.21	5.97
354.422	69.46
354.633	14.17
354.845	-20.65
355.057	42.84
355.268	38.74
355.48	139.09
355.692	-2.22
355.903	46.93
356.115	48.98
356.326	46.93
356.538	110.42
356.749	42.84
356.961	79.7
357.172	51.03
357.384	3.93
357.595	30.55
357.807	3.93
358.018	36.69
358.23	118.61
358.441	73.56
358.653	55.12
358.864	-10.41
359.075	53.08
359.287	18.26
359.498	44.88
359.709	48.98
359.921	79.7
360.132	55.12
360.344	77.65
360.555	8.02
360.766	65.36
360.977	61.27
361.189	85.84
361.4	32.6
361.611	73.56
361.823	38.74
362.034	-22.7
362.245	48.98
362.456	63.32
362.667	61.27
362.879	85.84
363.09	-18.6
363.301	67.41
363.512	59.22
363.723	110.42
363.935	3.93
364.146	91.99
364.357	10.07
364.568	118.61
364.779	20.31
364.99	130.9
365.201	141.14
365.412	79.7
365.623	32.6
365.834	89.94
366.045	48.98
366.256	12.12
366.467	79.7
366.678	42.84
366.889	-6.31
367.1	65.36
367.311	22.36
367.522	-34.99
367.733	67.41
367.944	61.27
368.155	8.02
368.366	91.99
368.577	30.55
368.788	67.41
368.999	3.93
369.209	91.99
369.42	94.04
369.631	32.6
369.842	32.6
370.053	40.79
370.264	87.89
370.474	40.79
370.685	89.94
370.896	16.21
371.107	42.84
371.317	81.75
371.528	-22.7
371.739	73.56
371.95	36.69
372.16	67.41
372.371	83.8
372.582	42.84
372.792	102.23
373.003	98.13
373.214	34.64
373.424	59.22
373.635	3.93
373.846	94.04
374.056	87.89
374.267	61.27
374.477	38.74
374.688	61.27
374.898	18.26
375.109	104.28
375.319	120.66
375.53	153.43
375.74	59.22
375.951	3.93
376.161	-8.36
376.372	87.89
376.582	16.21
376.793	85.84
377.003	5.97
377.214	34.64
377.424	69.46
377.635	-6.31
377.845	36.69
378.055	46.93
378.266	104.28
378.476	55.12
378.686	83.8
378.897	18.26
379.107	77.65
379.317	149.33
379.528	42.84
379.738	122.71
379.948	8.02
380.158	77.65
380.369	79.7
380.579	61.27
380.789	46.93
380.999	59.22
381.21	51.03
381.42	89.94
381.63	34.64
381.84	-10.41
382.05	26.45
382.261	104.28
382.471	10.07
382.681	83.8
382.891	102.23
383.101	89.94
383.311	1.88
383.521	69.46
383.731	51.03
383.941	87.89
384.151	5.97
384.361	81.75
384.571	63.32
384.781	100.18
384.991	51.03
385.201	75.6
385.411	26.45
385.621	81.75
385.831	83.8
386.041	106.32
386.251	81.75
386.461	106.32
386.671	51.03
386.881	10.07
387.091	24.4
387.301	118.61
387.511	12.12
387.72	61.27
387.93	110.42
388.14	24.4
388.35	57.17
388.56	67.41
388.769	108.37
388.979	55.12
389.189	94.04
389.399	32.6
389.609	108.37
389.818	108.37
390.028	63.32
390.238	75.6
390.447	42.84
390.657	83.8
390.867	94.04
391.076	145.24
391.286	32.6
391.496	89.94
391.705	51.03
391.915	51.03
392.125	106.32
392.334	10.07
392.544	32.6
392.753	94.04
392.963	75.6
393.172	122.71
393.382	100.18
393.591	100.18
393.801	63.32
394.01	159.57
394.22	46.93
394.429	18.26
394.639	91.99
394.848	98.13
395.058	91.99
395.267	20.31
395.477	38.74
395.686	120.66
395.895	141.14
396.105	180.05
396.314	67.41
396.524	20.31
396.733	118.61
396.942	171.86
397.152	137.04
397.361	128.85
397.57	100.18
397.78	91.99
397.989	61.27
398.198	147.28
398.407	104.28
398.617	98.13
398.826	100.18
399.035	173.91
399.244	178
399.453	98.13
399.663	139.09
399.872	79.7
400.081	96.08
400.29	114.52
400.499	116.56
400.708	77.65
400.917	67.41
401.127	175.95
401.336	149.33
401.545	175.95
401.754	124.76
401.963	182.1
402.172	83.8
402.381	79.7
402.59	128.85
402.799	173.91
403.008	132.95
403.217	186.19
403.426	126.8
403.635	143.19
403.844	163.67
404.053	126.8
404.262	139.09
404.471	128.85
404.68	116.56
404.888	155.47
405.097	85.84
405.306	132.95
405.515	210.77
405.724	89.94
405.933	128.85
406.142	182.1
406.35	296.78
406.559	243.54
406.768	149.33
406.977	212.82
407.185	229.2
407.394	210.77
407.603	186.19
407.812	272.21
408.02	302.93
408.229	225.11
408.438	235.35
408.646	214.87
408.855	311.12
409.064	259.92
409.272	216.91
409.481	356.18
409.69	321.36
409.898	364.37
410.107	323.41
410.315	360.27
410.524	350.03
410.733	300.88
410.941	366.42
411.15	429.9
411.358	393.04
411.567	386.9
411.775	386.9
411.984	421.71
412.192	522.06
412.401	427.85
412.609	563.02
412.818	477.01
413.026	417.61
413.234	534.35
413.443	597.84
413.651	610.12
413.86	610.12
414.068	622.41
414.276	671.56
414.485	636.75
414.693	700.23
414.901	708.43
415.11	759.63
415.318	669.52
415.526	769.87
415.734	757.58
415.943	769.87
416.151	827.21
416.359	886.6
416.567	878.41
416.776	886.6
416.984	941.89
417.192	1001.29
417.4	1042.25
417.608	1091.4
417.817	1066.82
418.025	1146.69
418.233	1173.32
418.441	1146.69
418.649	1228.61
418.857	1324.87
419.065	1326.91
419.273	1345.34
419.481	1345.34
419.689	1478.46
419.897	1550.14
420.105	1587.01
420.313	1638.2
420.521	1611.58
420.729	1736.51
420.937	1777.47
421.145	1771.32
421.353	1996.6
421.561	1963.83
421.769	2025.27
421.977	2099
422.185	2043.7
422.393	2295.6
422.601	2223.92
422.809	2365.23
423.017	2463.54
423.224	2539.31
423.432	2451.25
423.64	2567.98
423.848	2754.35
424.056	2766.64
424.263	3036.97
424.471	2809.64
424.679	2803.5
424.887	3118.89
425.094	3305.25
425.302	3331.87
425.51	3417.89
425.718	3456.8
425.925	3487.52
426.133	3680.03
426.341	3780.38
426.548	4112.15
426.756	4101.91
426.964	4079.38
427.171	4261.65
427.379	4390.67
427.586	4482.83
427.794	4669.2
428.001	4945.67
428.209	5154.57
428.417	4982.54
428.624	5285.64
428.832	5379.84
429.039	5168.9
429.247	5259.01
429.454	5777.15
429.662	6221.56
429.869	5768.96
430.076	6176.5
430.284	5797.63
430.491	6143.74
430.699	6680.3
430.906	6545.14
431.114	6739.69
431.321	6895.34
431.528	7202.54
431.736	7595.75
431.943	7849.69
432.15	7501.54
432.358	7683.81
432.565	8201.94
432.772	8144.6
432.979	8627.92
433.187	8636.11
433.394	8883.92
433.601	9404.1
433.808	9512.64
434.016	9365.19
434.223	9764.54
434.43	10313.4
434.637	10327.74
434.844	10819.25
435.052	10901.17
435.259	10843.82
435.466	11083.44
435.673	10847.92
435.88	11587.24
436.087	12109.47
436.294	12115.61
436.501	11902.62
436.708	12351.13
436.915	12627.6
437.122	13047.44
437.329	13049.49
437.537	13575.81
437.743	13868.67
437.95	13651.59
438.157	14349.95
438.364	14784.12
438.571	14681.72
438.778	15025.78
438.985	16418.39
439.192	15763.04
439.399	16051.81
439.606	15861.35
439.813	16528.99
440.02	17516.11
440.227	17376.84
440.433	17196.62
440.64	17919.56
440.847	17552.97
441.054	18019.91
441.261	19353.13
441.467	19121.71
441.674	19461.68
441.881	20074.02
442.088	19904.04
442.294	19609.13
442.501	20493.85
442.708	20880.92
442.914	21704.2
443.121	22281.73
443.328	21974.53
443.534	23657.96
443.741	22937.08
443.948	22531.58
444.154	24413.66
444.361	23989.74
444.568	24143.33
444.774	24298.98
444.981	24274.4
445.187	25185.75
445.394	26256.84
445.6	25837
445.807	28593.57
446.013	27209.14
446.22	27592.11
446.426	28667.3
446.633	29273.49
446.839	30039.43
447.046	28648.86
447.252	29994.38
447.459	30504.32
447.665	30211.46
447.871	31645.04
448.078	32863.58
448.284	31518.07
448.491	32279.91
448.697	33701.2
448.903	33654.1
449.11	34082.13
449.316	33629.52
449.522	34073.93
449.728	35259.71
449.935	35415.35
450.141	35114.3
450.347	35970.35
450.553	35028.29
450.76	35505.46
450.966	36470.06
451.172	35700.02
451.378	37047.58
451.584	36410.67
451.791	37299.48
451.997	37055.78
452.203	37821.72
452.409	37887.25
452.615	37815.57
452.821	36066.61
453.027	36021.55
453.233	37756.18
453.44	36277.55
453.646	36637.99
453.852	36594.98
454.058	37750.04
454.264	36332.84
454.47	37229.85
454.676	36248.88
454.882	37453.08
455.088	34225.48
455.294	34383.18
455.5	35278.14
455.705	35865.91
455.911	34032.97
456.117	33510.74
456.323	32896.35
456.529	31544.69
456.735	32650.6
456.941	31860.08
457.147	31022.46
457.352	30059.91
457.558	29724.05
457.764	29883.79
457.97	29500.82
458.176	28724.64
458.381	29007.26
458.587	27706.8
458.793	27364.79
458.999	25808.33
459.204	28100.01
459.41	27067.83
459.616	25460.18
459.821	25664.97
460.027	25077.21
460.233	24632.8
460.438	23492.08
460.644	23821.8
460.85	22578.68
461.055	22085.12
461.261	22115.84
461.466	20706.84
461.672	19996.2
461.878	21321.23
462.083	19893.8
462.289	19781.16
462.494	19457.58
462.7	18617.91
462.905	17970.76
463.111	18900.53
463.316	18703.93
463.522	18300.48
463.727	18280
463.932	18130.5
464.138	18024
464.343	18019.91
464.549	17530.44
464.754	18404.92
464.959	18179.65
465.165	18007.62
465.37	17077.84
465.575	16739.93
465.781	17595.98
465.986	17487.43
466.191	16823.89
466.397	16504.41
466.602	16123.49
466.807	16361.05
467.012	16412.25
467.218	16250.46
467.423	15914.59
467.628	16148.06
467.833	16922.2
468.038	16334.43
468.244	15662.69
468.449	15928.93
468.654	16041.57
468.859	15574.63
469.064	15638.12
469.269	15111.79
469.474	14988.91
469.679	15552.1
469.885	15009.39
470.09	15021.68
470.295	14894.71
470.5	14685.81
470.705	14855.79
470.91	14354.04
471.115	14308.99
471.32	14423.67
471.525	14718.58
471.73	14079.61
471.935	13952.64
472.139	13452.94
472.344	13606.53
472.549	13612.68
472.754	13371.02
472.959	13155.98
473.164	12893.84
473.369	12834.45
473.574	13297.29
473.778	13180.56
473.983	12877.46
474.188	12840.59
474.393	12203.68
474.598	12566.17
474.802	12218.01
475.007	12187.29
475.212	12478.1
475.417	11884.19
475.621	11730.59
475.826	11984.54
476.031	11681.44
476.235	11284.14
476.44	11435.69
476.645	11361.96
476.849	11206.31
477.054	11185.83
477.259	11036.33
477.463	11165.35
477.668	10653.36
477.872	11038.38
478.077	10540.72
478.282	10372.79
478.486	10364.6
478.691	10135.23
478.895	10331.83
479.1	10147.51
479.304	10049.21
479.509	10098.36
479.713	10100.41
479.918	9686.72
480.122	9725.63
480.326	9920.19
480.531	9885.37
480.735	9500.36
480.94	9434.82
481.144	10018.49
481.348	9338.57
481.553	9739.97
481.757	9330.37
481.961	9406.15
482.166	9686.72
482.37	9670.34
482.574	9326.28
482.778	9426.63
482.983	9707.2
483.187	9490.12
483.391	9520.84
483.595	9406.15
483.8	9205.45
484.004	9488.07
484.208	9637.57
484.412	9295.56
484.616	9490.12
484.821	9369.29
485.025	9035.47
485.229	9606.85
485.433	9291.46
485.637	9350.85
485.841	9361.09
486.045	9256.65
486.249	9533.12
486.453	9207.5
486.657	9428.68
486.861	9344.71
487.065	9160.39
487.269	9213.64
487.473	9125.58
487.677	9440.97
487.881	9490.12
488.085	9209.54
488.289	9440.97
488.493	9205.45
488.697	9385.67
488.901	9481.92
489.105	9414.34
489.309	9541.32
489.512	9348.81
489.716	9467.59
489.92	9559.75
490.124	9469.64
490.328	9492.16
490.531	9422.53
490.735	9731.78
490.939	9625.28
491.143	9428.68
491.346	9615.04
491.55	9742.02
491.754	9856.7
491.958	9754.3
492.161	9541.32
492.365	9965.25
492.569	9907.9
492.772	9787.07
492.976	9924.29
493.18	10055.36
493.383	10124.99
493.587	10178.23
493.79	10055.36
493.994	10227.39
494.197	10124.99
494.401	10335.93
494.605	10370.74
494.808	10610.36
495.012	10464.95
495.215	10522.29
495.419	10526.39
495.622	10731.19
495.825	10641.07
496.029	10940.08
496.232	10825.39
496.436	11026.09
496.639	11384.49
496.843	11355.82
497.046	11396.78
497.249	11462.31
497.453	11486.89
497.656	11548.33
497.859	11746.98
498.063	12033.69
498.266	12351.13
498.469	12072.61
498.673	12175
498.876	12199.58
499.079	12646.04
499.282	12549.78
499.485	12904.08
499.689	12668.56
499.892	12897.94
500.095	13022.86
500.298	13377.16
500.501	13133.45
500.705	13504.14
500.908	13770.37
501.111	13651.59
501.314	14130.81
501.517	13958.78
501.72	14515.83
501.923	14409.34
502.126	14624.37
502.329	14913.14
502.532	14763.64
502.735	14880.37
502.938	15103.6
503.141	15341.16
503.344	15650.41
503.547	15482.47
503.75	15742.57
503.953	16043.62
504.156	16275.04
504.359	16283.23
504.562	16402.01
504.765	17004.11
504.968	16827.99
505.17	17000.02
505.373	16961.11
505.576	17268.3
505.779	17712.71
505.982	17522.25
506.185	17886.79
506.387	17907.27
506.59	17897.03
506.793	18435.64
506.996	18226.75
507.198	19029.55
507.401	18867.77
507.604	19039.79
507.807	19516.97
508.009	19682.86
508.212	19559.98
508.415	19861.03
508.617	20289.06
508.82	20180.51
509.022	20157.99
509.225	20803.1
509.428	20792.86
509.63	21075.48
509.833	20794.9
510.035	21544.46
510.238	21650.95
510.44	21530.12
510.643	22042.12
510.845	22373.89
511.048	22052.36
511.25	22539.77
511.453	22457.85
511.655	23438.83
511.858	23098.87
512.06	23356.91
512.262	23459.31
512.465	23786.99
512.667	24151.52
512.87	24255.97
513.072	24565.21
513.274	24464.86
513.477	24913.37
513.679	25142.74
513.881	25329.11
514.084	25597.39
514.286	25656.78
514.488	25783.76
514.69	26373.57
514.893	26447.3
515.095	26496.45
515.297	26918.33
515.499	26926.52
515.701	27458.99
515.904	27526.58
516.106	27440.56
516.308	28097.96
516.51	28534.18
516.712	28153.26
516.914	28630.43
517.116	28704.16
517.318	28964.25
517.52	29402.52
517.722	29486.48
517.925	29549.97
518.127	29982.09
518.329	30471.56
518.531	30111.11
518.733	30764.42
518.935	30745.98
519.136	30823.81
519.338	31485.3
519.54	31495.54
519.742	31683.95
519.944	31626.61
520.146	32660.83
520.348	32644.45
520.55	32501.09
520.752	32603.49
520.954	33416.54
521.155	33054.04
521.357	33338.71
521.559	33731.92
521.761	34438.47
521.963	34409.8
522.164	34397.51
522.366	34598.21
522.568	34893.12
522.77	34467.14
522.971	35605.81
523.173	35398.97
523.375	35718.45
523.576	35648.82
523.778	35919.15
523.98	35845.43
524.181	36136.24
524.383	36205.87
524.584	36564.26
524.786	36664.61
524.988	36635.94
525.189	37268.76
525.391	37399.83
525.592	37639.45
525.794	37745.94
525.995	37846.29
526.197	37319.96
526.398	38309.13
526.6	37969.17
526.801	38458.63
527.003	38685.96
527.204	38640.9
527.406	38812.93
527.607	38640.9
527.808	39091.46
528.01	38571.27
528.211	38771.97
528.412	39496.95
528.614	39429.37
528.815	39380.22
529.016	39611.64
529.218	39408.89
529.419	39845.11
529.62	39650.55
529.822	39595.26
530.023	40070.39
530.224	39998.71
530.425	39894.26
530.626	39750.9
530.828	39609.59
531.029	40832.23
531.23	40047.86
531.431	40557.8
531.632	40307.95
531.833	40598.76
532.035	40264.94
532.236	40781.03
532.437	40955.11
532.638	40113.39
532.839	40561.9
533.04	40764.65
533.241	39816.44
533.442	41053.41
533.643	40527.08
533.844	41041.12
534.045	40619.24
534.246	39873.78
534.447	40981.73
534.648	40647.91
534.849	40656.1
535.05	40293.61
535.251	41102.56
535.451	40846.57
535.652	40975.59
535.853	40887.53
536.054	41131.23
536.255	41047.27
536.456	40506.6
536.657	41133.28
536.857	40512.75
537.058	40697.06
537.259	41200.86
537.46	40938.72
537.66	40416.49
537.861	40889.57
538.062	40690.92
538.263	40727.78
538.463	40873.19
538.664	40609
538.865	41039.08
539.065	41057.51
539.266	40375.53
539.466	41229.54
539.667	40254.7
539.868	40994.02
540.068	40760.55
540.269	40697.06
540.469	40766.7
540.67	40594.67
540.87	40768.74
541.071	40664.3
541.271	40611.05
541.472	40426.73
541.672	40619.24
541.873	40496.36
542.073	40248.56
542.274	40543.47
542.474	40490.22
542.675	40373.49
542.875	41008.36
543.075	40738.02
543.276	40271.09
543.476	41084.13
543.676	40021.23
543.877	40555.75
544.077	40492.27
544.277	40457.45
544.478	40289.52
544.678	40746.22
544.878	40336.62
545.078	40729.83
545.279	40045.81
545.479	40113.39
545.679	40373.49
545.879	40246.51
546.079	40312.05
546.28	40121.59
546.48	40295.66
546.68	40391.92
546.88	40283.37
547.08	40154.35
547.28	40576.23
547.48	40094.96
547.68	40563.95
547.88	40076.53
548.081	40301.81
548.281	40168.69
548.481	40244.46
548.681	40713.45
548.881	40322.29
549.081	40103.15
549.28	40398.06
549.48	40451.31
549.68	40178.93
549.88	40428.78
550.08	39759.09
550.28	40434.92
550.48	40199.41
550.68	40266.99
550.88	39746.81
551.08	39869.68
551.279	40420.59
551.479	39666.94
551.679	40551.66
551.879	39855.35
552.079	39910.64
552.278	39617.78
552.478	40082.67
552.678	39836.92
552.878	40166.64
553.077	39877.88
553.277	39791.86
553.477	40164.59
553.676	39679.22
553.876	39582.97
554.076	39965.94
554.275	39474.43
554.475	39326.97
554.674	39826.68
554.874	39609.59
555.074	39558.39
555.273	39718.14
555.473	39652.6
555.672	39253.25
555.872	39257.34
556.071	39394.56
556.271	39546.11
556.47	39298.3
556.67	39183.62
556.869	38864.13
557.068	39470.33
557.268	39089.41
557.467	39062.79
557.667	38946.05
557.866	39197.95
558.065	39075.07
558.265	38745.35
558.464	38796.55
558.663	39009.54
558.863	38329.61
559.062	39187.71
559.261	38350.09
559.461	39007.49
559.66	38634.76
559.859	38829.32
560.058	38458.63
560.258	38618.38
560.457	38280.46
560.656	38454.54
560.855	38157.58
561.054	38597.9
561.253	38081.81
561.453	38188.3
561.652	38235.41
561.851	38372.62
562.05	37960.98
562.249	37772.56
562.448	38278.41
562.647	38133.01
562.846	37555.48
563.045	38296.84
563.244	37586.2
563.443	38083.86
563.642	37485.85
563.841	37797.14
564.04	37362.97
564.239	37780.76
564.438	37397.79
564.637	37707.03
564.836	37610.78
565.035	37010.72
565.234	37289.24
565.432	36881.7
565.631	37031.2
565.83	37010.72
566.029	36904.23
566.228	37043.49
566.427	36228.4
566.625	36543.78
566.824	36304.17
567.023	36699.43
567.222	35941.68
567.42	36476.2
567.619	36293.93
567.818	36060.46
568.016	35761.46
568.215	36322.6
568.414	36025.65
568.612	36486.44
568.811	35913.01
569.01	36078.89
569.208	35843.38
569.407	35829.04
569.605	35274.04
569.804	35783.99
570.002	35315
570.201	35296.57
570.4	35001.66
570.598	35462.46
570.797	35016
570.995	34819.39
571.193	34858.31
571.392	35335.48
571.59	34684.23
571.789	34979.14
571.987	34696.52
572.186	34303.31
572.384	34282.83
572.582	34495.81
572.781	34344.27
572.979	33559.89
573.177	34321.74
573.376	34202.96
573.574	33873.23
573.772	34364.74
573.971	33996.11
574.169	33797.46
574.367	33410.39
574.565	33680.72
574.763	33838.42
574.962	33400.15
575.16	33201.5
575.358	33258.84
575.556	33160.54
575.754	33588.56
575.952	32869.73
576.151	33467.73
576.349	32759.14
576.547	32449.89
576.745	33305.95
576.943	33131.87
577.141	32599.4
577.339	32712.03
577.537	32558.44
577.735	32556.39
577.933	32292.2
578.131	32345.45
578.329	32281.96
578.527	31683.95
578.725	32046.44
578.923	32261.48
579.121	31991.15
579.319	31796.59
579.516	32173.42
579.714	31954.29
579.912	31815.02
580.11	31575.41
580.308	31411.57
580.506	31440.25
580.704	31018.36
580.901	31468.92
581.099	31333.75
581.297	31018.36
581.495	31120.76
581.692	31262.07
581.89	30727.55
582.088	31001.98
582.285	30414.21
582.483	30934.4
582.681	30715.26
582.878	30371.21
583.076	30299.53
583.274	30502.28
583.471	30014.86
583.669	30227.85
583.866	30145.93
584.064	30193.03
584.262	29799.82
584.459	30084.49
584.657	29920.65
584.854	30190.98
585.052	29425.04
585.249	29984.14
585.447	29769.1
585.644	29490.58
585.841	29545.87
586.039	29818.25
586.236	28980.64
586.434	29627.79
586.631	29287.83
586.828	29185.43
587.026	28880.28
587.223	29011.35
587.42	29068.7
587.618	28790.17
587.815	28214.69
588.012	28300.71
588.21	28433.83
588.407	28530.08
588.604	28573.09
588.801	28427.68
588.999	28374.44
589.196	28198.31
589.393	28108.2
589.59	28093.86
589.787	27850.16
589.984	27841.96
590.182	27266.49
590.379	27964.84
590.576	27420.08
590.773	27678.13
590.97	26901.95
591.167	27719.09
591.364	27119.03
591.561	27180.47
591.758	27131.32
591.955	27448.75
592.152	27418.03
592.349	27055.54
592.546	26983.87
592.743	27125.18
592.94	26258.88
593.137	26850.75
593.334	26871.23
593.531	26138.05
593.727	26570.18
593.924	26514.88
594.121	26236.36
594.318	26430.91
594.515	26131.91
594.712	26492.35
594.908	26119.62
595.105	25961.93
595.302	25697.74
595.499	25886.15
595.696	25816.52
595.892	25492.94
596.089	25773.52
596.286	25439.7
596.482	25380.31
596.679	25402.83
596.876	25503.18
597.072	24997.34
597.269	25284.05
597.466	25103.83
597.662	25107.93
597.859	25062.87
598.055	24896.99
598.252	24989.14
598.448	24651.23
598.645	24612.32
598.841	24552.93
599.038	24786.4
599.234	24585.69
599.431	24360.42
599.627	24368.61
599.824	24526.3
600.02	23834.09
600.217	24532.45
600.413	23852.52
600.609	23825.9
600.806	23907.82
601.002	24215.01
601.198	23741.93
601.395	23414.26
601.591	23346.67
601.787	23533.04
601.984	23156.21
602.18	23862.76
602.376	23287.28
602.572	23236.08
602.769	23277.04
602.965	22973.94
603.161	23119.35
603.357	23111.16
603.553	23137.78
603.75	22775.29
603.946	22613.5
604.142	22803.96
604.338	22515.2
604.534	22562.3
604.73	22373.89
604.926	22605.31
605.122	22853.11
605.318	22173.19
605.514	22167.04
605.71	21935.62
605.906	22003.21
606.102	21999.11
606.298	21958.15
606.494	22330.88
606.69	21743.11
606.886	22271.49
607.082	21892.62
607.278	21747.21
607.474	21673.48
607.67	22005.25
607.866	21474.83
608.062	21792.26
608.257	21650.95
608.453	21745.16
608.649	21605.9
608.845	21263.89
609.041	21243.41
609.236	21399.05
609.432	21167.63
609.628	21036.56
609.824	21098
610.019	20975.13
610.215	21110.29
610.411	21118.48
610.606	20833.82
610.802	20944.41
610.998	20893.21
611.193	20987.41
611.389	20563.48
611.584	20741.66
611.78	20651.55
611.976	20682.27
612.171	20586.01
612.367	20778.52
612.562	20405.79
612.758	20409.89
612.953	20450.85
613.149	20755.99
613.344	20114.98
613.539	20811.29
613.735	19920.42
613.93	20348.45
614.126	20227.62
614.321	20291.1
614.517	20239.9
614.712	20209.18
614.907	19863.08
615.103	20282.91
615.298	19813.93
615.493	20379.17
615.688	19809.83
615.884	20385.31
616.079	19861.03
616.274	19818.02
616.47	19994.15
616.665	19695.14
616.86	19476.01
617.055	19414.57
617.25	19736.1
617.445	20108.83
617.641	19379.76
617.836	19408.43
618.031	19113.52
618.226	19383.85
618.421	19244.59
618.616	19521.07
618.811	19064.37
619.006	19236.4
619.201	18925.11
619.396	19033.65
619.591	18822.71
619.786	19119.67
619.981	18665.02
620.176	18878.01
620.371	18439.74
620.566	18353.73
620.761	18497.08
620.956	18447.93
621.151	18603.58
621.346	18163.26
621.541	18204.22
621.735	18146.88
621.93	17942.08
622.125	17770.05
622.32	17765.96
622.515	17899.08
622.709	17598.02
622.904	17442.38
623.099	17677.9
623.294	17489.48
623.488	17317.45
623.683	17378.89
623.878	16914
624.072	17092.18
624.267	16911.96
624.462	16832.08
624.656	16383.58
624.851	16862.8
625.046	16762.45
625.24	16416.35
625.435	16469.59
625.629	16186.97
625.824	16287.32
626.018	16080.48
626.213	16033.38
626.407	16137.82
626.602	15881.83
626.796	15865.44
626.991	15814.24
627.185	15935.07
627.38	15677.03
627.574	15666.79
627.768	15449.71
627.963	15367.79
628.157	15119.98
628.352	15040.11
628.546	15054.45
628.74	15199.85
628.935	14863.99
629.129	14855.79
629.323	14630.52
629.517	14669.43
629.712	14589.56
629.906	14831.22
630.1	14196.35
630.294	14401.15
630.489	14110.33
630.683	14304.89
630.877	13889.15
631.071	13932.16
631.265	14067.33
631.459	14116.48
631.653	13981.31
631.848	14048.89
632.042	13737.6
632.236	13866.63
632.43	13565.57
632.624	13573.77
632.818	13667.97
633.012	13409.93
633.206	13344.39
633.4	13508.23
633.594	12973.71
633.788	13209.23
633.982	13190.8
634.176	13088.4
634.369	13076.11
634.563	12971.66
634.757	12596.89
634.951	12848.79
635.145	12809.87
635.339	12676.76
635.533	12803.73
635.726	12549.78
635.92	12502.68
636.114	12508.82
636.308	12263.07
636.501	12246.68
636.695	12353.18
636.889	12027.55
637.083	11937.44
637.276	12066.46
637.47	11904.67
637.664	11806.37
637.857	12191.39
638.051	11966.11
638.244	11832.99
638.438	11613.86
638.632	11509.41
638.825	11757.22
639.019	11427.49
639.212	11396.78
639.406	11339.43
639.599	11316.9
639.793	11155.12
639.986	11183.79
640.18	11071.15
640.373	11243.18
640.567	10899.12
640.76	10948.27
640.954	10866.35
641.147	10811.06
641.34	10858.16
641.534	10567.35
641.727	10589.88
641.92	10702.51
642.114	10514.1
642.307	10520.24
642.5	10522.29
642.694	10297.02
642.887	10274.49
643.08	10278.58
643.273	10397.37
643.467	10174.14
643.66	10186.43
643.853	10028.73
644.046	10100.41
644.239	10077.88
644.432	9879.23
644.626	9975.49
644.819	9674.43
645.012	9686.72
645.205	9744.06
645.398	9809.6
645.591	9625.28
645.784	9563.84
645.977	9361.09
646.17	9440.97
646.363	9385.67
646.556	9096.91
646.749	9350.85
646.942	9457.35
647.135	9129.67
647.328	9209.54
647.521	9397.96
647.714	8963.79
647.907	8974.03
648.099	8808.14
648.292	8947.4
648.485	8859.34
648.678	8861.39
648.871	8877.77
649.064	8654.55
649.256	8666.83
649.449	8642.26
649.642	8486.61
649.835	8638.16
650.027	8613.59
650.22	8478.42
650.413	8429.27
650.605	8486.61
650.798	8482.52
650.991	8105.69
651.183	8330.97
651.376	8255.19
651.568	8083.16
651.761	8126.17
651.954	8195.8
652.146	8023.77
652.339	8152.79
652.531	8054.49
652.724	8021.72
652.916	8060.63
653.109	7960.28
653.301	7859.93
653.494	7841.5
653.686	7812.83
653.879	7843.55
654.071	7605.99
654.263	7575.27
654.456	7562.98
654.648	7648.99
654.84	7278.31
655.033	7632.61
655.225	7479.01
655.417	7374.56
655.61	7415.52
655.802	7515.87
655.994	7249.64
656.186	7370.47
656.379	7202.54
656.571	7270.12
656.763	7077.61
656.955	7163.62
657.148	7171.82
657.34	6835.95
657.532	6967.02
657.724	6962.92
657.916	6971.11
658.108	7022.31
658.3	6921.96
658.492	6794.99
658.684	6682.35
658.876	6805.23
659.068	6711.02
659.26	6592.24
659.452	6653.68
659.644	6479.6
659.836	6442.74
660.028	6594.29
660.22	6495.99
660.412	6514.42
660.604	6412.02
660.796	6383.35
660.988	6321.91
661.18	6342.39
661.372	6233.85
661.563	6217.46
661.755	6135.54
661.947	6242.04
662.139	6319.86
662.331	6184.69
662.522	6180.6
662.714	6280.95
662.906	5840.64
663.097	5971.71
663.289	6076.15
663.481	5922.55
663.673	6014.71
663.864	5910.27
664.056	5781.25
664.247	5951.23
664.439	5885.69
664.631	5687.04
664.822	5828.35
665.014	5738.24
665.205	5691.13
665.397	5584.64
665.588	5576.45
665.78	5619.46
665.971	5590.78
666.163	5476.1
666.354	5539.58
666.546	5533.44
666.737	5342.98
666.929	5445.38
667.12	5496.58
667.311	5467.91
667.503	5369.6
667.694	5334.79
667.885	5271.3
668.077	5265.16
668.268	5299.97
668.459	5281.54
668.651	5142.28
668.842	5222.15
669.033	5347.08
669.224	5158.66
669.416	5213.96
669.607	5236.49
669.798	5244.68
669.989	5246.73
670.18	5023.5
670.371	5084.94
670.563	5005.06
670.754	4873.99
670.945	4953.87
671.136	5084.94
671.327	4873.99
671.518	4865.8
671.709	4761.36
671.9	5015.3
672.091	4777.74
672.282	4857.61
672.473	4828.94
672.664	4716.3
672.855	4790.03
673.046	4794.12
673.237	4777.74
673.428	4779.79
673.619	4634.38
673.809	4503.31
674	4628.24
674.191	4529.94
674.382	4435.73
674.573	4683.53
674.764	4640.53
674.954	4615.95
675.145	4536.08
675.336	4638.48
675.527	4527.89
675.717	4515.6
675.908	4419.35
676.099	4593.42
676.289	4445.97
676.48	4491.02
676.671	4364.05
676.861	4335.38
677.052	4425.49
677.243	4259.6
677.433	4251.41
677.624	4415.25
677.814	4388.63
678.005	4339.48
678.195	4351.76
678.386	4179.73
678.576	4116.25
678.767	4331.28
678.957	4159.25
679.148	4202.26
679.338	4179.73
679.529	4202.26
679.719	4200.21
679.909	4239.12
680.1	4171.54
680.29	4169.49
680.481	4134.68
680.671	4108.05
680.861	4077.34
681.052	4050.71
681.242	3979.03
681.432	4134.68
681.622	4019.99
681.813	4054.81
682.003	4056.86
682.193	4046.62
682.383	4128.53
682.573	4065.05
682.764	4005.66
682.954	4097.81
683.144	4069.14
683.334	3882.78
683.524	3835.67
683.714	4017.94
683.904	3911.45
684.094	3909.4
684.284	3864.35
684.474	3979.03
684.664	3788.57
684.854	3798.81
685.044	3964.7
685.234	3823.39
685.424	3737.37
685.614	3897.11
685.804	3751.71
685.994	3761.95
686.184	3827.48
686.374	3757.85
686.564	3784.48
686.753	3751.71
686.943	3856.15
687.133	3770.14
687.323	3700.51
687.513	3684.13
687.702	3702.56
687.892	3598.11
688.082	3542.82
688.272	3630.88
688.461	3514.14
688.651	3696.41
688.841	3464.99
689.03	3577.63
689.22	3462.94
689.41	3555.1
689.599	3544.86
689.789	3481.38
689.979	3446.56
690.168	3378.98
690.358	3346.21
690.547	3272.48
690.737	3385.12
690.926	3321.63
691.116	3272.48
691.305	3313.44
691.495	3188.52
691.684	3229.48
691.874	3354.4
692.063	3348.26
692.252	3073.83
692.442	3211.04
692.631	3153.7
692.82	3239.72
693.01	3165.99
693.199	3180.32
693.388	3034.92
693.578	3018.54
693.767	3047.21
693.956	3077.93
694.146	3120.93
694.335	3131.17
694.524	3047.21
694.713	3002.15
694.902	3006.25
695.092	3108.65
695.281	2932.52
695.47	3008.3
695.659	2950.95
695.848	2866.99
696.037	2991.91
696.226	2930.47
696.415	2889.51
696.604	2803.5
696.793	2940.71
696.982	2854.7
697.171	2905.9
697.36	2840.36
697.549	2770.73
697.738	2764.59
697.927	2840.36
698.116	2793.26
698.305	2838.31
698.494	2866.99
698.683	2873.13
698.872	2735.92
699.061	2766.64
699.25	2746.16
699.438	2762.54
699.627	2758.44
699.816	2807.59
700.005	2774.83
700.193	2760.49
700.382	2737.96
700.571	2813.74
700.76	2776.87
700.948	2746.16
701.137	2660.14
701.326	2737.96
701.514	2676.52
701.703	2692.91
701.892	2637.61
702.08	2764.59
702.269	2668.33
702.457	2721.58
702.646	2651.95
702.834	2633.52
703.023	2658.09
703.212	2680.62
703.4	2668.33
703.589	2694.96
703.777	2690.86
703.965	2555.69
704.154	2688.81
704.342	2680.62
704.531	2697
704.719	2649.9
704.907	2664.24
705.096	2670.38
705.284	2576.17
705.472	2672.43
705.661	2598.7
705.849	2633.52
706.037	2561.84
706.226	2684.72
706.414	2670.38
706.602	2570.03
706.79	2649.9
706.979	2604.85
707.167	2559.79
707.355	2615.09
707.543	2436.91
707.731	2584.37
707.919	2582.32
708.107	2524.97
708.296	2660.14
708.484	2582.32
708.672	2682.67
708.86	2580.27
709.048	2535.21
709.236	2496.3
709.424	2543.41
709.612	2586.41
709.8	2567.98
709.988	2567.98
710.176	2545.45
710.364	2524.97
710.551	2545.45
710.739	2508.59
710.927	2475.82
711.115	2531.12
711.303	2553.65
711.491	2547.5
711.679	2486.06
711.866	2527.02
712.054	2635.57
712.242	2408.24
712.43	2543.41
712.617	2674.48
712.805	2559.79
712.993	2621.23
713.181	2576.17
713.368	2522.93
713.556	2498.35
713.744	2494.26
713.931	2516.78
714.119	2373.43
714.306	2467.63
714.494	2504.5
714.682	2527.02
714.869	2481.97
715.057	2463.54
715.244	2537.26
715.432	2420.53
715.619	2539.31
715.807	2533.17
715.994	2463.54
716.182	2555.69
716.369	2643.76
716.556	2398
716.744	2475.82
716.931	2488.11
717.119	2469.68
717.306	2391.86
717.493	2535.21
717.681	2516.78
717.868	2594.61
718.055	2524.97
718.242	2441.01
718.43	2488.11
718.617	2453.3
718.804	2535.21
718.991	2553.65
719.179	2504.5
719.366	2486.06
719.553	2412.34
719.74	2541.36
719.927	2375.47
720.114	2410.29
720.301	2455.34
720.488	2465.58
720.676	2547.5
720.863	2490.16
721.05	2506.54
721.237	2443.06
721.424	2293.55
721.611	2567.98
721.798	2451.25
721.985	2512.69
722.172	2506.54
722.358	2541.36
722.545	2467.63
722.732	2441.01
722.919	2533.17
723.106	2434.86
723.293	2506.54
723.48	2529.07
723.667	2580.27
723.853	2398
724.04	2547.5
724.227	2477.87
724.414	2514.73
724.6	2471.73
724.787	2471.73
724.974	2479.92
725.161	2504.5
725.347	2369.33
725.534	2348.85
725.72	2459.44
725.907	2484.02
726.094	2508.59
726.28	2500.4
726.467	2426.67
726.653	2582.32
726.84	2486.06
727.027	2434.86
727.213	2367.28
727.4	2400.05
727.586	2477.87
727.773	2467.63
727.959	2494.26
728.145	2537.26
728.332	2494.26
728.518	2477.87
728.705	2567.98
728.891	2389.81
729.077	2535.21
729.264	2516.78
729.45	2518.83
729.636	2488.11
729.823	2541.36
730.009	2557.74
730.195	2570.03
730.382	2604.85
730.568	2594.61
730.754	2400.05
730.94	2629.42
731.126	2527.02
731.313	2608.94
731.499	2459.44
731.685	2533.17
731.871	2414.38
732.057	2537.26
732.243	2602.8
732.429	2529.07
732.615	2488.11
732.801	2504.5
732.987	2553.65
733.173	2461.49
733.359	2500.4
733.545	2502.45
733.731	2473.78
733.917	2627.37
734.103	2590.51
734.289	2490.16
734.475	2494.26
734.661	2469.68
734.847	2543.41
735.033	2555.69
735.219	2459.44
735.404	2477.87
735.59	2592.56
735.776	2584.37
735.962	2594.61
736.148	2471.73
736.333	2498.35
736.519	2477.87
736.705	2481.97
736.89	2514.73
737.076	2496.3
737.262	2475.82
737.447	2490.16
737.633	2547.5
737.819	2602.8
738.004	2326.32
738.19	2441.01
738.375	2373.43
738.561	2608.94
738.747	2541.36
738.932	2316.08
739.118	2490.16
739.303	2393.9
739.489	2481.97
739.674	2404.14
739.859	2533.17
740.045	2414.38
740.23	2475.82
740.416	2449.2
740.601	2524.97
740.786	2563.89
740.972	2414.38
741.157	2369.33
741.342	2402.1
741.528	2432.82
741.713	2465.58
741.898	2350.9
742.084	2389.81
742.269	2451.25
742.454	2375.47
742.639	2408.24
742.824	2375.47
743.01	2344.75
743.195	2479.92
743.38	2400.05
743.565	2305.84
743.75	2311.99
743.935	2266.93
744.12	2379.57
744.305	2225.97
744.49	2221.88
744.675	2193.2
744.86	2207.54
745.045	2260.79
745.23	2201.4
745.415	2254.64
745.6	2217.78
745.785	2193.2
745.97	2230.07
746.155	2080.57
746.34	2307.89
746.525	2142
746.71	2160.44
746.895	2152.24
747.079	2078.52
747.264	2109.24
747.449	2182.96
747.634	2215.73
747.819	2107.19
748.003	2166.58
748.188	2047.8
748.373	2053.94
748.557	2115.38
748.742	2076.47
748.927	2113.33
749.111	2008.89
749.296	2109.24
749.481	2008.89
749.665	1963.83
749.85	2045.75
750.034	1959.74
750.219	1947.45
750.404	1996.6
750.588	1922.87
750.773	1822.52
750.957	1961.78
751.141	1931.06
751.326	1912.63
751.51	1914.68
751.695	1861.43
751.879	1812.28
752.064	1969.98
752.248	1838.91
752.432	1799.99
752.617	1779.51
752.801	1853.24
752.985	1900.34
753.17	1818.43
753.354	1875.77
753.538	1840.95
753.722	1769.27
753.907	1662.78
754.091	1681.21
754.275	1697.6
754.459	1668.92
754.643	1630.01
754.828	1713.98
755.012	1681.21
755.196	1681.21
755.38	1646.4
755.564	1650.49
755.748	1599.29
755.932	1570.62
756.116	1554.24
756.3	1630.01
756.484	1552.19
756.668	1584.96
756.852	1550.14
757.036	1599.29
757.22	1572.67
757.404	1408.83
757.588	1500.99
757.772	1513.28
757.956	1474.37
758.14	1513.28
758.323	1488.7
758.507	1417.02
758.691	1431.36
758.875	1523.52
759.059	1396.54
759.242	1441.6
759.426	1369.92
759.61	1380.16
759.794	1441.6
759.977	1427.26
760.161	1341.25
760.345	1367.87
760.528	1337.15
760.712	1288
760.895	1355.58
761.079	1371.97
761.263	1292.1
761.446	1294.15
761.63	1292.1
761.813	1343.3
761.997	1304.39
762.18	1357.63
762.364	1224.51
762.547	1298.24
762.731	1228.61
762.914	1283.91
763.098	1341.25
763.281	1171.27
763.464	1324.87
763.648	1214.27
763.831	1201.99
764.015	1294.15
764.198	1220.42
764.381	1222.47
764.564	1220.42
764.748	1244.99
764.931	1228.61
765.114	1175.36
765.297	1111.88
765.481	1111.88
765.664	1158.98
765.847	1128.26
766.03	1167.17
766.213	1210.18
766.397	1220.42
766.58	1122.12
766.763	1197.89
766.946	1138.5
767.129	1072.96
767.312	1189.7
767.495	1038.15
767.678	1079.11
767.861	1185.6
768.044	1150.79
768.227	1113.92
768.41	1070.92
768.593	1060.68
768.776	1089.35
768.959	1036.1
769.142	1140.55
769.324	1130.31
769.507	1032.01
769.69	1032.01
769.873	1118.02
770.056	1181.51
770.239	1083.2
770.421	993.09
770.604	1128.26
770.787	1009.48
770.97	1066.82
771.152	1009.48
771.335	1083.2
771.518	972.61
771.7	1021.77
771.883	982.85
772.066	984.9
772.248	980.81
772.431	1042.25
772.613	929.61
772.796	1079.11
772.978	999.24
773.161	972.61
773.343	915.27
773.526	907.08
773.708	894.79
773.891	917.32
774.073	855.88
774.256	919.37
774.438	896.84
774.621	937.8
774.803	972.61
774.985	823.11
775.168	927.56
775.35	862.02
775.532	909.13
775.715	798.54
775.897	857.93
776.079	884.55
776.261	827.21
776.444	878.41
776.626	773.96
776.808	759.63
776.99	776.01
777.173	839.5
777.355	859.98
777.537	823.11
777.719	808.78
777.901	733
778.083	819.02
778.265	800.59
778.447	751.43
778.629	708.43
778.811	790.35
778.993	696.14
779.175	751.43
779.357	800.59
779.539	708.43
779.721	698.19
779.903	651.08
780.085	708.43
780.267	726.86
780.449	724.81
780.631	751.43
780.812	665.42
780.994	700.23
781.176	671.56
781.358	673.61
781.54	628.56
781.721	655.18
781.903	728.91
782.085	599.88
782.267	628.56
782.448	655.18
782.63	651.08
782.812	628.56
782.993	612.17
783.175	595.79
783.357	644.94
783.538	636.75
783.72	612.17
783.901	677.71
784.083	534.35
784.264	626.51
784.446	522.06
784.627	585.55
784.809	565.07
784.99	515.92
785.172	587.6
785.353	567.12
785.535	587.6
785.716	501.58
785.897	530.25
786.079	567.12
786.26	575.31
786.441	507.73
786.623	452.43
786.804	528.21
786.985	497.49
787.167	522.06
787.348	530.25
787.529	466.77
787.71	546.64
787.891	458.57
788.073	513.87
788.254	487.25
788.435	446.29
788.616	456.53
788.797	448.33
788.978	401.23
789.159	401.23
789.34	499.53
789.522	464.72
789.703	407.38
789.884	339.79
790.065	436.05
790.246	511.82
790.427	431.95
790.607	503.63
790.788	411.47
790.969	501.58
791.15	415.57
791.331	370.51
791.512	421.71
791.693	343.89
791.874	417.61
792.054	421.71
792.235	431.95
792.416	429.9
792.597	436.05
792.778	388.94
792.958	339.79
793.139	364.37
793.32	390.99
793.5	425.81
793.681	364.37
793.862	409.42
794.042	401.23
794.223	286.54
794.404	429.9
794.584	333.65
794.765	337.74
794.945	386.9
795.126	329.55
795.306	409.42
795.487	327.5
795.667	436.05
795.848	368.46
796.028	366.42
796.209	436.05
796.389	386.9
796.57	339.79
796.75	397.14
796.93	354.13
797.111	259.92
797.291	337.74
797.471	366.42
797.652	380.75
797.832	360.27
798.012	225.11
798.192	321.36
798.373	304.98
798.553	276.31
798.733	288.59
798.913	286.54
799.093	337.74
799.274	298.83
799.454	393.04
799.634	313.17
799.814	331.6
799.994	296.78
800.174	321.36
800.354	309.07
800.534	261.97
800.714	296.78
800.894	319.31
801.074	259.92
801.254	286.54
801.434	286.54
801.614	331.6
801.794	309.07
801.974	718.67
802.154	323.41
802.334	272.21
802.514	288.59
802.693	270.16
802.873	323.41
803.053	315.22
803.233	333.65
803.413	337.74
803.592	229.2
803.772	239.44
803.952	311.12
804.131	188.24
804.311	229.2
804.491	300.88
804.67	292.69
804.85	225.11
805.03	196.43
805.209	233.3
805.389	212.82
805.568	268.11
805.748	223.06
805.928	304.98
806.107	190.29
806.287	182.1
806.466	300.88
806.646	237.39
806.825	200.53
807.004	276.31
807.184	161.62
807.363	253.78
807.543	223.06
807.722	194.39
807.901	296.78
808.081	241.49
808.26	210.77
808.439	261.97
808.619	229.2
808.798	276.31
808.977	223.06
809.156	137.04
809.336	190.29
809.515	216.91
809.694	229.2
809.873	157.52
810.052	196.43
810.231	227.15
810.411	198.48
810.59	225.11
810.769	161.62
810.948	202.58
811.127	145.24
811.306	192.34
811.485	202.58
811.664	229.2
811.843	184.15
812.022	206.67
812.201	100.18
812.38	200.53
812.559	124.76
812.737	178
812.916	94.04
813.095	214.87
813.274	173.91
813.453	206.67
813.632	200.53
813.811	198.48
813.989	155.47
814.168	206.67
814.347	184.15
814.526	157.52
814.704	204.63
814.883	243.54
815.062	196.43
815.24	173.91
815.419	180.05
815.598	194.39
815.776	112.47
815.955	126.8
816.133	81.75
816.312	178
816.49	141.14
816.669	161.62
816.847	132.95
817.026	153.43
817.204	132.95
817.383	118.61
817.561	116.56
817.74	218.96
817.918	89.94
818.097	118.61
818.275	155.47
818.453	182.1
818.632	182.1
818.81	169.81
818.988	73.56
819.167	159.57
819.345	235.35
819.523	165.71
819.701	83.8
819.879	257.87
820.058	116.56
820.236	91.99
820.414	130.9
820.592	194.39
820.77	143.19
820.948	167.76
821.127	145.24
821.305	178
821.483	114.52
821.661	147.28
821.839	128.85
822.017	112.47
822.195	149.33
822.373	132.95
822.551	108.37
822.729	114.52
822.907	91.99
823.085	67.41
823.262	173.91
823.44	149.33
823.618	98.13
823.796	141.14
823.974	145.24
824.152	79.7
824.329	57.17
824.507	122.71
824.685	114.52
824.863	163.67
825.04	149.33
825.218	48.98
825.396	130.9
825.574	163.67
825.751	81.75
825.929	184.15
826.107	130.9
826.284	126.8
826.462	89.94
826.639	151.38
826.817	106.32
826.994	149.33
827.172	65.36
827.349	184.15
827.527	71.51
827.704	94.04
827.882	137.04
828.059	75.6
828.237	114.52
828.414	51.03
828.591	61.27
828.769	157.52
828.946	114.52
829.124	83.8
829.301	110.42
829.478	75.6
829.655	96.08
829.833	110.42
830.01	118.61
830.187	155.47
830.364	147.28
830.542	96.08
830.719	194.39
830.896	139.09
831.073	104.28
831.25	110.42
831.427	139.09
831.604	38.74
831.782	16.21
831.959	153.43
832.136	126.8
832.313	171.86
832.49	96.08
832.667	169.81
832.844	61.27
833.021	81.75
833.198	173.91
833.374	77.65
833.551	59.22
833.728	26.45
833.905	65.36
834.082	44.88
834.259	94.04
834.436	55.12
834.612	55.12
834.789	75.6
834.966	135
835.143	77.65
835.319	153.43
835.496	116.56
835.673	143.19
835.85	122.71
836.026	51.03
836.203	165.71
836.38	132.95
836.556	83.8
836.733	83.8
836.909	110.42
837.086	122.71
837.262	132.95
837.439	98.13
837.616	91.99
837.792	98.13
837.968	30.55
838.145	28.5
838.321	94.04
838.498	-26.79
838.674	87.89
838.851	-2.22
839.027	124.76
839.203	77.65
839.38	126.8
839.556	75.6
839.732	112.47
839.909	44.88
840.085	132.95
840.261	53.08
840.437	75.6
840.614	69.46
840.79	83.8
840.966	28.5
841.142	167.76
841.318	128.85
841.494	81.75
841.671	96.08
841.847	48.98
842.023	81.75
842.199	85.84
842.375	24.4
842.551	106.32
842.727	5.97
842.903	61.27
843.079	116.56
843.255	26.45
843.431	67.41
843.607	61.27
843.783	116.56
843.959	102.23
844.134	14.17
844.31	67.41
844.486	46.93
844.662	77.65
844.838	65.36
845.013	22.36
845.189	85.84
845.365	20.31
845.541	-0.17
845.716	118.61
845.892	59.22
846.068	18.26
846.244	-28.84
846.419	63.32
846.595	-34.99
846.77	40.79
846.946	153.43
847.122	46.93
847.297	40.79
847.473	30.55
847.648	112.47
847.824	34.64
847.999	-26.79
848.175	40.79
848.35	10.07
848.526	55.12
848.701	5.97
848.876	112.47
849.052	36.69
849.227	26.45
849.403	38.74
849.578	112.47
849.753	5.97
849.929	32.6
850.104	100.18
850.279	63.32
850.454	51.03
850.63	128.85
850.805	102.23
850.98	36.69
851.155	18.26
851.33	36.69
851.505	69.46
851.681	79.7
851.856	48.98
852.031	55.12
852.206	108.37
852.381	71.51
852.556	24.4
852.731	87.89
852.906	71.51
853.081	44.88
853.256	85.84
853.431	96.08
853.606	48.98
853.781	32.6
853.956	32.6
854.131	63.32
854.305	-61.61
854.48	61.27
854.655	46.93
854.83	42.84
855.005	36.69
855.18	79.7
855.354	40.79
855.529	67.41
855.704	-22.7
855.879	114.52
856.053	59.22
856.228	28.5
856.403	44.88
856.577	67.41
856.752	-14.51
856.926	40.79
857.101	18.26
857.276	57.17
857.45	12.12
857.625	53.08
857.799	51.03
857.974	-0.17
858.148	89.94
858.323	89.94
858.497	10.07
858.672	-2.22
858.846	30.55
859.02	18.26
859.195	3.93
859.369	-2.22
859.543	10.07
859.718	-20.65
859.892	91.99
860.066	-22.7
860.241	51.03
860.415	24.4
860.589	-51.37
860.763	44.88
860.938	-2.22
861.112	-43.18
861.286	-8.36
861.46	87.89
861.634	-8.36
861.808	40.79
861.982	36.69
862.157	65.36
862.331	-2.22
862.505	-12.46
862.679	-10.41
862.853	14.17
863.027	-20.65
863.201	28.5
863.375	-45.23
863.549	42.84
863.722	-6.31
863.896	51.03
864.07	42.84
864.244	53.08
864.418	67.41
864.592	32.6
864.766	10.07
864.939	55.12
865.113	32.6
865.287	55.12
865.461	-47.27
865.634	8.02
865.808	46.93
865.982	51.03
866.156	36.69
866.329	28.5
866.503	104.28
866.676	8.02
866.85	12.12
867.024	-4.27
867.197	53.08
867.371	14.17
867.544	79.7
867.718	10.07
867.891	67.41
868.065	44.88
868.238	10.07
868.412	73.56
868.585	1.88
868.759	30.55
868.932	63.32
869.105	-49.32
869.279	8.02
869.452	16.21
869.625	-0.17
869.799	-39.08
869.972	5.97
870.145	-2.22
870.319	32.6
870.492	22.36
870.665	-0.17
870.838	5.97
871.011	26.45
871.185	-65.71
871.358	51.03
871.531	83.8
871.704	-4.27
871.877	-8.36
872.05	81.75
872.223	44.88
872.396	16.21
872.569	63.32
872.742	38.74
872.915	71.51
873.088	3.93
873.261	51.03
873.434	22.36
873.607	-8.36
873.78	42.84
873.953	-65.71
874.126	-22.7
874.299	46.93
874.471	46.93
874.644	120.66
874.817	-14.51
874.99	65.36
875.163	8.02
875.335	-37.03
875.508	-12.46
875.681	-34.99
875.853	44.88
876.026	55.12
876.199	65.36
876.371	42.84
876.544	12.12
876.717	42.84
876.889	1.88
877.062	118.61
877.234	-53.42
877.407	67.41
877.579	22.36
877.752	36.69
877.924	32.6
878.097	34.64
878.269	59.22
878.442	61.27
878.614	-43.18
878.786	10.07
878.959	16.21
879.131	18.26
879.303	-37.03
879.476	22.36
879.648	24.4
879.82	-16.55
879.993	18.26
880.165	-37.03
880.337	-22.7
880.509	53.08
880.681	-20.65
880.854	-4.27
881.026	-2.22
881.198	48.98
881.37	-43.18
881.542	65.36
881.714	63.32
881.886	32.6
882.058	36.69
882.23	14.17
882.402	-51.37
882.574	8.02
882.746	16.21
882.918	16.21
883.09	32.6
883.262	-20.65
883.434	28.5
883.606	57.17
883.778	16.21
883.95	-8.36
884.122	-0.17
884.293	10.07
884.465	26.45
884.637	65.36
884.809	42.84
884.98	30.55
885.152	-2.22
885.324	30.55
885.496	-71.85
885.667	10.07
885.839	-6.31
886.011	34.64
886.182	110.42
886.354	40.79
886.525	42.84
886.697	89.94
886.869	-30.89
887.04	20.31
887.212	-4.27
887.383	65.36
887.555	24.4
887.726	22.36
887.897	12.12
888.069	26.45
888.24	20.31
888.412	5.97
888.583	53.08
888.754	75.6
888.926	34.64
889.097	-16.55
889.268	-2.22
889.44	36.69
889.611	-53.42
889.782	-26.79
889.953	-6.31
890.125	75.6
890.296	1.88
890.467	-34.99
890.638	-4.27
890.809	-2.22
890.98	8.02
891.151	57.17
891.323	120.66
891.494	-0.17
891.665	-24.75
891.836	-0.17
892.007	-30.89
892.178	-39.08
892.349	-47.27
892.52	30.55
892.691	63.32
892.862	65.36
893.032	-57.51
893.203	26.45
893.374	18.26
893.545	46.93
893.716	30.55
893.887	-4.27
894.057	24.4
894.228	-0.17
894.399	61.27
894.57	32.6
894.74	40.79
894.911	30.55
895.082	24.4
895.253	36.69
895.423	5.97
895.594	106.32
895.764	1.88
895.935	-75.95
896.106	48.98
896.276	42.84
896.447	59.22
896.617	-24.75
896.788	-12.46
896.958	10.07
897.129	18.26
897.299	81.75
897.47	44.88
897.64	65.36
897.81	44.88
897.981	16.21
898.151	-2.22
898.322	-0.17
898.492	-24.75
898.662	5.97
898.832	-8.36
899.003	91.99
899.173	-20.65
899.343	24.4
899.513	-37.03
