Data from USB4F104151__94__11-45-45-326.txt Node

Date: Fri Mar 14 11:45:45 EDT 2025
User: louis
Spectrometer: USB4F10415
Trigger mode: 4
Integration Time (sec): 2.000000E-2
Scans to average: 1
Electric dark correction enabled: true
Nonlinearity correction enabled: false
Boxcar width: 0
XAxis mode: Wavelengths
Number of Pixels in Spectrum: 3648
>>>>>Begin Spectral Data<<<<<
178.204	-93.01
178.424	-93.01
178.644	-93.01
178.864	-66.39
179.084	-86.87
179.304	-43.86
179.524	-58.2
179.744	-7
179.964	-0.85
180.184	-7
180.404	-27.48
180.624	7.34
180.844	68.78
181.064	50.35
181.283	-0.85
181.503	13.48
181.723	5.29
181.943	-27.48
182.163	101.55
182.383	-27.48
182.602	7.34
182.822	38.06
183.042	101.55
183.262	-95.06
183.482	54.44
183.701	-31.57
183.921	50.35
184.141	-7
184.361	146.6
184.58	-7
184.8	36.01
185.02	23.72
185.239	58.54
185.459	44.2
185.679	85.16
185.898	-9.05
186.118	85.16
186.338	-39.76
186.557	40.11
186.777	-2.9
186.997	44.2
187.216	23.72
187.436	29.87
187.655	-35.67
187.875	3.24
188.095	-11.09
188.314	-17.24
188.534	74.92
188.753	3.24
188.973	3.24
189.192	107.69
189.412	62.63
189.631	-21.33
189.851	17.58
190.07	44.2
190.29	-13.14
190.509	-11.09
190.729	5.29
190.948	-31.57
191.168	99.5
191.387	-21.33
191.607	-4.95
191.826	-62.29
192.045	1.19
192.265	38.06
192.484	33.96
192.704	7.34
192.923	11.43
193.142	31.91
193.362	76.97
193.581	83.11
193.8	81.07
194.02	99.5
194.239	-2.9
194.458	9.39
194.678	-17.24
194.897	44.2
195.116	-9.05
195.335	38.06
195.555	21.67
195.774	-9.05
195.993	74.92
196.212	-31.57
196.432	-0.85
196.651	99.5
196.87	5.29
197.089	50.35
197.308	-11.09
197.528	-0.85
197.747	13.48
197.966	44.2
198.185	5.29
198.404	60.59
198.623	-50
198.842	52.39
199.062	52.39
199.281	3.24
199.5	48.3
199.719	46.25
199.938	64.68
200.157	13.48
200.376	-25.43
200.595	99.5
200.814	17.58
201.033	38.06
201.252	44.2
201.471	3.24
201.69	-13.14
201.909	25.77
202.128	68.78
202.347	60.59
202.566	40.11
202.785	15.53
203.004	13.48
203.223	87.21
203.442	-47.96
203.661	-23.38
203.879	27.82
204.098	17.58
204.317	83.11
204.536	58.54
204.755	-33.62
204.974	40.11
205.193	17.58
205.411	60.59
205.63	33.96
205.849	9.39
206.068	13.48
206.287	33.96
206.505	72.87
206.724	-19.29
206.943	1.19
207.162	44.2
207.381	-50
207.599	38.06
207.818	-37.72
208.037	-27.48
208.255	-37.72
208.474	11.43
208.693	60.59
208.911	17.58
209.13	13.48
209.349	-31.57
209.567	21.67
209.786	-4.95
210.005	19.63
210.223	-0.85
210.442	38.06
210.661	40.11
210.879	1.19
211.098	-23.38
211.316	-86.87
211.535	-19.29
211.753	-11.09
211.972	27.82
212.191	42.15
212.409	-7
212.628	33.96
212.846	33.96
213.065	13.48
213.283	105.64
213.502	-15.19
213.72	-66.39
213.938	-58.2
214.157	15.53
214.375	5.29
214.594	-0.85
214.812	81.07
215.031	-23.38
215.249	27.82
215.467	33.96
215.686	44.2
215.904	101.55
216.122	5.29
216.341	64.68
216.559	-58.2
216.778	31.91
216.996	-0.85
217.214	72.87
217.432	50.35
217.651	-41.81
217.869	15.53
218.087	17.58
218.306	9.39
218.524	33.96
218.742	-15.19
218.96	29.87
219.179	11.43
219.397	44.2
219.615	81.07
219.833	15.53
220.051	-21.33
220.27	72.87
220.488	5.29
220.706	42.15
220.924	27.82
221.142	3.24
221.36	33.96
221.578	1.19
221.796	-68.44
222.015	-0.85
222.233	-39.76
222.451	79.02
222.669	13.48
222.887	25.77
223.105	-58.2
223.323	52.39
223.541	31.91
223.759	7.34
223.977	44.2
224.195	56.49
224.413	-37.72
224.631	66.73
224.849	25.77
225.067	44.2
225.285	36.01
225.503	-15.19
225.721	-41.81
225.939	52.39
226.157	-29.52
226.375	62.63
226.592	-45.91
226.81	5.29
227.028	38.06
227.246	105.64
227.464	-13.14
227.682	1.19
227.9	-4.95
228.117	25.77
228.335	-4.95
228.553	5.29
228.771	3.24
228.989	-9.05
229.206	17.58
229.424	33.96
229.642	-25.43
229.86	-0.85
230.077	54.44
230.295	-29.52
230.513	76.97
230.731	40.11
230.948	40.11
231.166	48.3
231.384	-19.29
231.601	-9.05
231.819	38.06
232.037	48.3
232.254	-31.57
232.472	66.73
232.689	-9.05
232.907	60.59
233.125	42.15
233.342	23.72
233.56	87.21
233.777	46.25
233.995	74.92
234.213	101.55
234.43	79.02
234.648	19.63
234.865	15.53
235.083	58.54
235.3	-9.05
235.518	-39.76
235.735	-31.57
235.953	13.48
236.17	58.54
236.388	-50
236.605	13.48
236.822	21.67
237.04	1.19
237.257	25.77
237.475	13.48
237.692	42.15
237.909	109.74
238.127	11.43
238.344	3.24
238.562	58.54
238.779	13.48
238.996	-7
239.214	-27.48
239.431	-41.81
239.648	-2.9
239.865	79.02
240.083	27.82
240.3	-37.72
240.517	-9.05
240.735	-21.33
240.952	27.82
241.169	74.92
241.386	27.82
241.603	46.25
241.821	-39.76
242.038	7.34
242.255	83.11
242.472	-76.63
242.689	-31.57
242.907	46.25
243.124	-13.14
243.341	52.39
243.558	-45.91
243.775	5.29
243.992	-25.43
244.209	40.11
244.426	25.77
244.643	56.49
244.86	-4.95
245.078	42.15
245.295	25.77
245.512	9.39
245.729	54.44
245.946	58.54
246.163	85.16
246.38	9.39
246.597	19.63
246.814	25.77
247.031	68.78
247.248	13.48
247.464	-31.57
247.681	38.06
247.898	40.11
248.115	31.91
248.332	21.67
248.549	36.01
248.766	3.24
248.983	68.78
249.2	-72.53
249.417	38.06
249.633	-50
249.85	27.82
250.067	-64.34
250.284	64.68
250.501	27.82
250.717	-35.67
250.934	-2.9
251.151	23.72
251.368	64.68
251.585	44.2
251.801	-11.09
252.018	-52.05
252.235	3.24
252.451	-2.9
252.668	85.16
252.885	-4.95
253.102	-0.85
253.318	29.87
253.535	15.53
253.752	3.24
253.968	31.91
254.185	29.87
254.401	-58.2
254.618	-13.14
254.835	-39.76
255.051	42.15
255.268	17.58
255.484	-13.14
255.701	33.96
255.917	25.77
256.134	-21.33
256.351	19.63
256.567	-2.9
256.784	54.44
257	-43.86
257.217	23.72
257.433	5.29
257.65	23.72
257.866	56.49
258.082	36.01
258.299	9.39
258.515	13.48
258.732	42.15
258.948	17.58
259.165	-31.57
259.381	44.2
259.597	89.26
259.814	11.43
260.03	1.19
260.246	-54.1
260.463	79.02
260.679	-23.38
260.895	-7
261.112	23.72
261.328	13.48
261.544	29.87
261.761	23.72
261.977	-2.9
262.193	44.2
262.409	-58.2
262.626	40.11
262.842	23.72
263.058	9.39
263.274	7.34
263.49	25.77
263.707	64.68
263.923	5.29
264.139	-45.91
264.355	25.77
264.571	19.63
264.787	13.48
265.004	46.25
265.22	-86.87
265.436	23.72
265.652	15.53
265.868	50.35
266.084	-2.9
266.3	-17.24
266.516	-27.48
266.732	-19.29
266.948	-74.58
267.164	58.54
267.38	3.24
267.596	25.77
267.812	42.15
268.028	3.24
268.244	64.68
268.46	-35.67
268.676	29.87
268.892	-2.9
269.108	-74.58
269.324	-37.72
269.54	-39.76
269.756	101.55
269.972	-58.2
270.188	66.73
270.403	17.58
270.619	-13.14
270.835	-27.48
271.051	21.67
271.267	11.43
271.483	19.63
271.698	31.91
271.914	52.39
272.13	111.78
272.346	23.72
272.562	-2.9
272.777	-54.1
272.993	60.59
273.209	-39.76
273.425	-4.95
273.64	-2.9
273.856	40.11
274.072	19.63
274.287	-47.96
274.503	76.97
274.719	11.43
274.934	25.77
275.15	33.96
275.366	42.15
275.581	31.91
275.797	50.35
276.012	-21.33
276.228	-27.48
276.444	-33.62
276.659	60.59
276.875	1.19
277.09	-62.29
277.306	23.72
277.521	85.16
277.737	-11.09
277.952	27.82
278.168	33.96
278.383	38.06
278.599	36.01
278.814	109.74
279.03	19.63
279.245	56.49
279.461	-9.05
279.676	85.16
279.892	-19.29
280.107	19.63
280.322	-23.38
280.538	-23.38
280.753	48.3
280.969	27.82
281.184	-9.05
281.399	-31.57
281.615	-50
281.83	5.29
282.045	3.24
282.26	9.39
282.476	58.54
282.691	33.96
282.906	54.44
283.122	56.49
283.337	-15.19
283.552	122.02
283.767	-41.81
283.983	15.53
284.198	17.58
284.413	56.49
284.628	-35.67
284.843	-23.38
285.058	58.54
285.274	23.72
285.489	83.11
285.704	72.87
285.919	-2.9
286.134	-60.24
286.349	25.77
286.564	9.39
286.779	87.21
286.995	-27.48
287.21	-9.05
287.425	58.54
287.64	-19.29
287.855	7.34
288.07	-7
288.285	36.01
288.5	54.44
288.715	33.96
288.93	13.48
289.145	-17.24
289.36	-0.85
289.575	-15.19
289.79	46.25
290.004	-37.72
290.219	-7
290.434	44.2
290.649	48.3
290.864	15.53
291.079	27.82
291.294	-13.14
291.509	-7
291.724	29.87
291.938	-66.39
292.153	29.87
292.368	25.77
292.583	-7
292.798	-56.15
293.012	-7
293.227	-25.43
293.442	46.25
293.657	81.07
293.871	48.3
294.086	36.01
294.301	132.26
294.516	-29.52
294.73	-9.05
294.945	44.2
295.16	-35.67
295.374	111.78
295.589	15.53
295.804	40.11
296.018	58.54
296.233	17.58
296.447	-31.57
296.662	-31.57
296.877	21.67
297.091	-35.67
297.306	27.82
297.52	119.98
297.735	25.77
297.949	29.87
298.164	21.67
298.378	3.24
298.593	-15.19
298.807	29.87
299.022	60.59
299.236	-19.29
299.451	-19.29
299.665	19.63
299.88	58.54
300.094	17.58
300.309	29.87
300.523	9.39
300.737	-7
300.952	23.72
301.166	-2.9
301.381	13.48
301.595	-17.24
301.809	36.01
302.024	29.87
302.238	-27.48
302.452	23.72
302.667	25.77
302.881	19.63
303.095	-2.9
303.309	79.02
303.524	9.39
303.738	27.82
303.952	21.67
304.166	-4.95
304.381	58.54
304.595	95.4
304.809	-105.3
305.023	36.01
305.237	9.39
305.452	13.48
305.666	60.59
305.88	29.87
306.094	-50
306.308	46.25
306.522	36.01
306.736	-74.58
306.95	11.43
307.164	-39.76
307.379	-13.14
307.593	3.24
307.807	56.49
308.021	74.92
308.235	13.48
308.449	-4.95
308.663	-21.33
308.877	68.78
309.091	29.87
309.305	1.19
309.519	29.87
309.733	21.67
309.947	-19.29
310.161	-19.29
310.374	15.53
310.588	27.82
310.802	19.63
311.016	48.3
311.23	70.83
311.444	29.87
311.658	21.67
311.872	58.54
312.085	-0.85
312.299	36.01
312.513	70.83
312.727	91.31
312.941	1.19
313.154	42.15
313.368	3.24
313.582	1.19
313.796	52.39
314.009	87.21
314.223	56.49
314.437	-74.58
314.651	5.29
314.864	89.26
315.078	25.77
315.292	58.54
315.505	21.67
315.719	36.01
315.933	62.63
316.146	64.68
316.36	-33.62
316.573	107.69
316.787	50.35
317.001	46.25
317.214	11.43
317.428	68.78
317.641	-19.29
317.855	66.73
318.068	31.91
318.282	17.58
318.495	25.77
318.709	97.45
318.922	-33.62
319.136	13.48
319.349	64.68
319.563	-0.85
319.776	42.15
319.99	-11.09
320.203	19.63
320.417	-4.95
320.63	68.78
320.843	89.26
321.057	21.67
321.27	23.72
321.483	-4.95
321.697	29.87
321.91	81.07
322.124	-11.09
322.337	62.63
322.55	15.53
322.763	-21.33
322.977	7.34
323.19	-50
323.403	-15.19
323.617	17.58
323.83	83.11
324.043	-33.62
324.256	-15.19
324.469	-33.62
324.683	-39.76
324.896	5.29
325.109	38.06
325.322	-33.62
325.535	52.39
325.748	-41.81
325.962	7.34
326.175	13.48
326.388	15.53
326.601	17.58
326.814	-39.76
327.027	-7
327.24	62.63
327.453	79.02
327.666	21.67
327.879	85.16
328.092	48.3
328.305	-7
328.518	23.72
328.731	17.58
328.944	5.29
329.157	54.44
329.37	-7
329.583	25.77
329.796	21.67
330.009	52.39
330.222	33.96
330.435	-17.24
330.648	62.63
330.861	-80.72
331.073	-0.85
331.286	19.63
331.499	74.92
331.712	-9.05
331.925	91.31
332.138	42.15
332.35	15.53
332.563	-11.09
332.776	40.11
332.989	13.48
333.202	42.15
333.414	-7
333.627	87.21
333.84	44.2
334.053	-23.38
334.265	42.15
334.478	-43.86
334.691	-11.09
334.903	-21.33
335.116	66.73
335.329	-2.9
335.541	70.83
335.754	48.3
335.966	-11.09
336.179	-4.95
336.392	-0.85
336.604	23.72
336.817	54.44
337.029	52.39
337.242	-39.76
337.454	54.44
337.667	-33.62
337.88	21.67
338.092	42.15
338.305	70.83
338.517	5.29
338.729	56.49
338.942	23.72
339.154	15.53
339.367	-64.34
339.579	-11.09
339.792	-56.15
340.004	9.39
340.217	11.43
340.429	50.35
340.641	27.82
340.854	-21.33
341.066	64.68
341.278	27.82
341.491	42.15
341.703	25.77
341.915	-0.85
342.128	66.73
342.34	46.25
342.552	25.77
342.764	33.96
342.977	5.29
343.189	60.59
343.401	36.01
343.613	13.48
343.826	-19.29
344.038	33.96
344.25	76.97
344.462	81.07
344.674	56.49
344.886	-82.77
345.099	21.67
345.311	68.78
345.523	-47.96
345.735	74.92
345.947	87.21
346.159	46.25
346.371	25.77
346.583	11.43
346.795	58.54
347.007	-29.52
347.219	60.59
347.431	11.43
347.643	62.63
347.855	7.34
348.067	31.91
348.279	31.91
348.491	-35.67
348.703	17.58
348.915	64.68
349.127	5.29
349.339	33.96
349.551	-52.05
349.763	48.3
349.975	5.29
350.187	72.87
350.399	9.39
350.61	13.48
350.822	9.39
351.034	33.96
351.246	31.91
351.458	58.54
351.669	46.25
351.881	54.44
352.093	5.29
352.305	58.54
352.517	27.82
352.728	48.3
352.94	33.96
353.152	5.29
353.363	11.43
353.575	33.96
353.787	79.02
353.999	33.96
354.21	1.19
354.422	109.74
354.633	62.63
354.845	42.15
355.057	27.82
355.268	52.39
355.48	29.87
355.692	25.77
355.903	74.92
356.115	66.73
356.326	42.15
356.538	58.54
356.749	105.64
356.961	42.15
357.172	60.59
357.384	-11.09
357.595	3.24
357.807	54.44
358.018	70.83
358.23	-4.95
358.441	27.82
358.653	-17.24
358.864	76.97
359.075	66.73
359.287	17.58
359.498	-29.52
359.709	7.34
359.921	89.26
360.132	62.63
360.344	40.11
360.555	-17.24
360.766	46.25
360.977	-31.57
361.189	93.35
361.4	23.72
361.611	11.43
361.823	40.11
362.034	-43.86
362.245	1.19
362.456	-17.24
362.667	46.25
362.879	1.19
363.09	7.34
363.301	-0.85
363.512	19.63
363.723	17.58
363.935	40.11
364.146	60.59
364.357	-43.86
364.568	23.72
364.779	31.91
364.99	44.2
365.201	3.24
365.412	31.91
365.623	60.59
365.834	36.01
366.045	17.58
366.256	62.63
366.467	46.25
366.678	23.72
366.889	15.53
367.1	68.78
367.311	9.39
367.522	-4.95
367.733	-2.9
367.944	79.02
368.155	15.53
368.366	9.39
368.577	58.54
368.788	-17.24
368.999	31.91
369.209	-9.05
369.42	87.21
369.631	99.5
369.842	-35.67
370.053	-21.33
370.264	36.01
370.474	5.29
370.685	76.97
370.896	17.58
371.107	38.06
371.317	25.77
371.528	3.24
371.739	119.98
371.95	33.96
372.16	48.3
372.371	-23.38
372.582	-29.52
372.792	27.82
373.003	-11.09
373.214	-11.09
373.424	60.59
373.635	33.96
373.846	15.53
374.056	42.15
374.267	68.78
374.477	58.54
374.688	13.48
374.898	-13.14
375.109	-13.14
375.319	44.2
375.53	29.87
375.74	25.77
375.951	42.15
376.161	-2.9
376.372	58.54
376.582	-9.05
376.793	-2.9
377.003	-11.09
377.214	9.39
377.424	52.39
377.635	7.34
377.845	15.53
378.055	-23.38
378.266	50.35
378.476	54.44
378.686	-0.85
378.897	25.77
379.107	13.48
379.317	52.39
379.528	79.02
379.738	50.35
379.948	-9.05
380.158	93.35
380.369	52.39
380.579	-21.33
380.789	-72.53
380.999	111.78
381.21	7.34
381.42	46.25
381.63	-4.95
381.84	5.29
382.05	-9.05
382.261	68.78
382.471	83.11
382.681	40.11
382.891	62.63
383.101	107.69
383.311	-0.85
383.521	15.53
383.731	38.06
383.941	58.54
384.151	1.19
384.361	27.82
384.571	42.15
384.781	13.48
384.991	27.82
385.201	66.73
385.411	79.02
385.621	70.83
385.831	31.91
386.041	7.34
386.251	-15.19
386.461	11.43
386.671	33.96
386.881	27.82
387.091	-2.9
387.301	42.15
387.511	17.58
387.72	64.68
387.93	38.06
388.14	19.63
388.35	46.25
388.56	62.63
388.769	74.92
388.979	33.96
389.189	-31.57
389.399	52.39
389.609	66.73
389.818	54.44
390.028	72.87
390.238	54.44
390.447	99.5
390.657	52.39
390.867	33.96
391.076	-23.38
391.286	11.43
391.496	13.48
391.705	36.01
391.915	91.31
392.125	95.4
392.334	58.54
392.544	58.54
392.753	109.74
392.963	-11.09
393.172	-2.9
393.382	40.11
393.591	81.07
393.801	7.34
394.01	33.96
394.22	36.01
394.429	95.4
394.639	17.58
394.848	89.26
395.058	33.96
395.267	115.88
395.477	74.92
395.686	64.68
395.895	33.96
396.105	40.11
396.314	109.74
396.524	101.55
396.733	17.58
396.942	103.59
397.152	-21.33
397.361	33.96
397.57	62.63
397.78	62.63
397.989	74.92
398.198	122.02
398.407	29.87
398.617	93.35
398.826	9.39
399.035	62.63
399.244	46.25
399.453	83.11
399.663	15.53
399.872	91.31
400.081	29.87
400.29	58.54
400.499	93.35
400.708	132.26
400.917	42.15
401.127	38.06
401.336	142.5
401.545	124.07
401.754	83.11
401.963	56.49
402.172	25.77
402.381	25.77
402.59	46.25
402.799	97.45
403.008	31.91
403.217	122.02
403.426	54.44
403.635	124.07
403.844	87.21
404.053	11.43
404.262	79.02
404.471	95.4
404.68	-4.95
404.888	52.39
405.097	64.68
405.306	113.83
405.515	117.93
405.724	50.35
405.933	107.69
406.142	113.83
406.35	148.65
406.559	142.5
406.768	70.83
406.977	197.8
407.185	134.31
407.394	93.35
407.603	122.02
407.812	160.94
408.02	97.45
408.229	130.22
408.438	175.27
408.646	144.55
408.855	132.26
409.064	169.13
409.272	134.31
409.481	203.94
409.69	154.79
409.898	177.32
410.107	191.66
410.315	201.9
410.524	234.66
410.733	218.28
410.941	224.42
411.15	187.56
411.358	287.91
411.567	341.16
411.775	273.57
411.984	253.09
412.192	253.09
412.401	337.06
412.609	222.38
412.818	304.29
413.026	316.58
413.234	330.92
413.443	144.55
413.651	318.63
413.86	328.87
414.068	375.97
414.276	394.4
414.485	412.84
414.693	437.41
414.901	402.6
415.11	449.7
415.318	382.12
415.526	449.7
415.734	435.36
415.943	492.71
416.151	552.1
416.359	541.86
416.567	574.63
416.776	566.43
416.984	597.15
417.192	556.19
417.4	644.26
417.608	650.4
417.817	631.97
418.025	654.5
418.233	734.37
418.441	752.8
418.649	773.28
418.857	799.9
419.065	849.05
419.273	754.85
419.481	779.42
419.689	951.45
419.897	912.54
420.105	965.79
420.313	978.08
420.521	965.79
420.729	1045.66
420.937	1111.19
421.145	1047.71
421.353	1098.91
421.561	1221.78
421.769	1262.74
421.977	1205.4
422.185	1213.59
422.393	1346.71
422.601	1506.45
422.809	1494.16
423.017	1477.78
423.224	1457.3
423.432	1412.25
423.64	1612.95
423.848	1668.24
424.056	1676.43
424.263	1838.22
424.471	1698.96
424.679	1772.69
424.887	1895.57
425.094	1991.82
425.302	2043.02
425.51	2061.45
425.718	2069.64
425.925	2122.89
426.133	2184.33
426.341	2278.54
426.548	2509.96
426.756	2397.32
426.964	2475.14
427.171	2622.59
427.379	2659.46
427.586	2813.06
427.794	2956.41
428.001	2892.93
428.209	3249.27
428.417	3036.28
428.624	3355.77
428.832	3300.47
429.039	3306.62
429.247	3304.57
429.454	3544.18
429.662	3892.34
429.869	3507.32
430.076	3691.63
430.284	3515.51
430.491	3941.49
430.699	4109.42
430.906	4131.95
431.114	4084.84
431.321	4295.79
431.528	4375.66
431.736	4625.51
431.943	4934.75
432.15	4691.04
432.358	4732
432.565	4992.09
432.772	4901.98
432.979	5205.08
433.187	5383.26
433.394	5368.92
433.601	5745.75
433.808	5680.21
434.016	5805.14
434.223	6026.32
434.43	6315.08
434.637	6122.57
434.844	6485.06
435.052	6548.55
435.259	6650.95
435.466	6718.53
435.673	6460.49
435.88	7083.07
436.087	7463.99
436.294	7484.47
436.501	7347.26
436.708	7461.94
436.915	7646.26
437.122	8205.36
437.329	7953.46
437.537	8342.57
437.743	8426.54
437.95	8309.8
438.157	8924.19
438.364	8850.47
438.571	9059.36
438.778	9184.29
438.985	9835.54
439.192	9593.88
439.399	9819.16
439.606	9675.8
439.813	10009.62
440.02	10820.61
440.227	10456.08
440.433	10460.17
440.64	10824.71
440.847	10802.18
441.054	11037.7
441.261	11566.07
441.467	11627.51
441.674	11793.4
441.881	12442.6
442.088	12284.91
442.294	12131.31
442.501	12512.24
442.708	12891.11
442.914	13272.03
443.121	13683.67
443.328	13331.42
443.534	14345.17
443.741	13911
443.948	13763.54
444.154	14650.32
444.361	14580.68
444.568	14848.97
444.774	15016.9
444.981	14834.63
445.187	15510.46
445.394	16163.76
445.6	15920.06
445.807	17333.15
446.013	16915.37
446.22	17050.53
446.426	17402.79
446.633	17621.92
446.839	18199.44
447.046	17716.12
447.252	18496.4
447.459	18602.89
447.665	18721.68
447.871	19370.88
448.078	20333.43
448.284	19291.01
448.491	19876.73
448.697	20636.53
448.903	20913
449.11	20888.43
449.316	20738.93
449.522	21044.07
449.728	21775.2
449.935	21685.09
450.141	21568.35
450.347	22233.94
450.553	21635.94
450.76	21990.24
450.966	22506.32
451.172	22313.81
451.378	22721.36
451.584	22256.47
451.791	23057.23
451.997	22694.74
452.203	23176.01
452.409	23092.04
452.615	23315.27
452.821	22004.57
453.027	22467.41
453.233	23259.98
453.44	22438.74
453.646	22704.98
453.852	22747.98
454.058	23155.53
454.264	22362.97
454.47	22846.29
454.676	22141.78
454.882	23184.2
455.088	20861.8
455.294	21365.6
455.5	21664.61
455.705	21990.24
455.911	21007.21
456.117	20573.04
456.323	20532.08
456.529	19172.23
456.735	20202.36
456.941	19768.19
457.147	19383.17
457.352	18584.46
457.558	18426.77
457.764	18576.27
457.97	18221.97
458.176	18058.14
458.381	17853.34
458.587	16993.19
458.793	17210.28
458.999	15967.16
459.204	17324.96
459.41	16733.1
459.616	15543.23
459.821	15596.48
460.027	15530.94
460.233	15268.8
460.438	14582.73
460.644	14525.39
460.85	14029.78
461.055	13767.64
461.261	13902.81
461.466	12684.27
461.672	12284.91
461.878	13501.4
462.083	12475.37
462.289	12393.45
462.494	11928.56
462.7	11623.42
462.905	11156.48
463.111	11598.84
463.316	11647.99
463.522	11308.03
463.727	11301.89
463.932	11602.94
464.138	11260.93
464.343	11379.71
464.549	10945.54
464.754	11256.83
464.959	11289.6
465.165	11092.99
465.37	10548.23
465.575	10415.12
465.781	10816.52
465.986	10654.73
466.191	10456.08
466.397	10265.61
466.602	9931.8
466.807	10198.03
467.012	9982.99
467.218	10048.53
467.423	9679.89
467.628	10081.3
467.833	10476.55
468.038	9915.41
468.244	9659.42
468.449	10144.78
468.654	9813.01
468.859	9727
469.064	9630.74
469.269	9323.55
469.474	9350.17
469.679	9473.05
469.885	9188.38
470.09	9270.3
470.295	9423.9
470.5	9026.59
470.705	9204.77
470.91	8838.18
471.115	8737.83
471.32	8905.76
471.525	8799.27
471.73	8602.66
471.935	8637.48
472.139	8287.28
472.344	8715.3
472.549	8545.32
472.754	8395.82
472.959	8059.95
473.164	7912.5
473.369	8027.18
473.574	8213.55
473.778	8025.14
473.983	7945.27
474.188	7824.44
474.393	7500.86
474.598	7806
474.802	7730.23
475.007	7443.51
475.212	7558.2
475.417	7468.09
475.621	7234.62
475.826	7265.34
476.031	7103.55
476.235	7046.21
476.44	7246.91
476.645	6962.24
476.849	7056.45
477.054	7113.79
477.259	6890.56
477.463	6732.87
477.668	6736.96
477.872	6595.65
478.077	6644.81
478.282	6386.76
478.486	6425.67
478.691	6390.86
478.895	6374.47
479.1	6480.97
479.304	6196.3
479.509	6229.07
479.713	6259.79
479.918	6104.14
480.122	5936.21
480.326	6120.53
480.531	6059.09
480.735	6114.38
480.94	6030.41
481.144	6091.85
481.348	5856.34
481.553	5872.72
481.757	5928.02
481.961	5872.72
482.166	5932.11
482.37	5811.28
482.574	5889.1
482.778	5909.58
482.983	6108.24
483.187	5819.47
483.391	5825.62
483.595	5731.41
483.8	5825.62
484.004	5846.1
484.208	5928.02
484.412	5985.36
484.616	6057.04
484.821	5862.48
485.025	5743.7
485.229	6048.85
485.433	5667.92
485.637	5776.47
485.841	5710.93
486.045	5774.42
486.249	5897.3
486.453	5784.66
486.657	5706.84
486.861	5837.91
487.065	5448.79
487.269	5758.03
487.473	5655.64
487.677	5784.66
487.881	5958.74
488.085	5801.04
488.289	5790.8
488.493	5678.16
488.697	5854.29
488.901	5903.44
489.105	5766.23
489.309	5848.15
489.512	5807.19
489.716	5993.55
489.92	5823.57
490.124	5842
490.328	6079.57
490.531	5827.67
490.735	5844.05
490.939	6038.61
491.143	5854.29
491.346	5852.24
491.55	6194.25
491.754	5940.3
491.958	6116.43
492.161	5903.44
492.365	6110.29
492.569	6079.57
492.772	6042.7
492.976	6161.48
493.18	6157.39
493.383	6399.05
493.587	6218.83
493.79	6327.37
493.994	6229.07
494.197	6452.3
494.401	6353.99
494.605	6456.39
494.808	6388.81
495.012	6616.13
495.215	6446.15
495.419	6599.75
495.622	6691.91
495.825	6593.61
496.029	6642.76
496.232	6679.62
496.436	6943.81
496.639	7013.44
496.843	6956.1
497.046	7216.19
497.249	7240.76
497.453	7296.06
497.656	7283.77
497.859	7234.62
498.063	7365.69
498.266	7459.9
498.469	7478.33
498.673	7701.56
498.876	7433.27
499.079	7879.73
499.282	7834.68
499.485	7992.37
499.689	8027.18
499.892	7865.39
500.095	8064.05
500.298	8440.87
500.501	8154.16
500.705	8250.41
500.908	8584.23
501.111	8668.2
501.314	8705.06
501.517	8977.44
501.72	8852.52
501.923	8860.71
502.126	9036.83
502.329	9085.98
502.532	9280.54
502.735	9358.36
502.938	9688.09
503.141	9731.09
503.344	9645.08
503.547	9683.99
503.75	9872.4
503.953	10019.86
504.156	10114.06
504.359	10359.82
504.562	10185.74
504.765	10380.3
504.968	10564.62
505.17	10757.13
505.373	10693.64
505.576	10834.95
505.779	10998.79
505.982	10890.24
506.185	11330.56
506.387	11285.5
506.59	11213.82
506.793	11555.83
506.996	11643.9
507.198	12006.39
507.401	11774.97
507.604	12086.26
507.807	12256.24
508.009	12411.89
508.212	12381.17
508.415	12612.59
508.617	12651.5
508.82	12782.57
509.022	12768.23
509.225	13136.87
509.428	13091.81
509.63	13456.35
509.833	13464.54
510.035	13556.7
510.238	13444.06
510.44	13943.77
510.643	13874.13
510.845	13974.49
511.048	14052.31
511.25	14289.87
511.453	14263.25
511.655	15002.57
511.858	14773.19
512.06	14797.77
512.262	14984.13
512.465	15166.4
512.667	15289.28
512.87	15375.3
513.072	15672.25
513.274	15928.25
513.477	15934.39
513.679	15760.31
513.881	16063.41
514.084	16444.34
514.286	16470.96
514.488	16763.82
514.69	17101.73
514.893	16845.74
515.095	17161.12
515.297	17312.67
515.499	17327.01
515.701	17478.56
515.904	17793.95
516.106	18054.04
516.308	17810.33
516.51	18238.36
516.712	18248.6
516.914	18647.95
517.116	18938.76
517.318	18928.52
517.52	18862.99
517.722	19129.22
517.925	19590.02
518.127	19698.56
518.329	19903.35
518.531	19831.68
518.733	19899.26
518.935	20620.14
519.136	20384.63
519.338	20751.21
519.54	20835.18
519.742	20958.06
519.944	21052.27
520.146	21324.65
520.348	21619.55
520.55	21754.72
520.752	21695.33
520.954	22229.85
521.155	22100.83
521.357	22432.6
521.559	22938.44
521.761	22948.68
521.963	22848.33
522.164	23305.03
522.366	23167.82
522.568	23362.37
522.77	23548.74
522.971	23829.31
523.173	23843.65
523.375	24271.67
523.576	24173.37
523.778	24218.43
523.98	24486.71
524.181	25123.63
524.383	24494.9
524.584	25238.31
524.786	25121.58
524.988	25125.68
525.189	25703.2
525.391	25408.29
525.592	25703.2
525.794	26030.88
525.995	25783.07
526.197	25805.6
526.398	26014.49
526.6	26170.14
526.801	26456.85
527.003	26350.36
527.204	26366.74
527.406	26983.18
527.607	26489.62
527.808	26866.45
528.01	26540.82
528.211	26989.33
528.412	27634.44
528.614	27183.88
528.815	27462.41
529.016	27656.96
529.218	27704.07
529.419	27573
529.62	27728.64
529.822	27902.72
530.023	27771.65
530.224	27951.87
530.425	27822.85
530.626	27820.8
530.828	27802.37
531.029	28695.28
531.23	28191.48
531.431	28289.79
531.632	28465.91
531.833	28433.14
532.035	28570.36
532.236	28812.02
532.437	28683
532.638	28578.55
532.839	28902.13
533.04	28648.18
533.241	28289.79
533.442	29197.04
533.643	28805.88
533.844	28736.24
534.045	29041.39
534.246	28570.36
534.447	29194.99
534.648	28486.39
534.849	28932.85
535.05	28633.85
535.251	29022.96
535.451	28541.69
535.652	29129.45
535.853	28785.4
536.054	29080.3
536.255	29287.15
536.456	28791.54
536.657	29518.57
536.857	29008.62
537.058	28953.33
537.259	29324.01
537.46	29213.42
537.66	28685.04
537.861	29240.04
538.062	29080.3
538.263	29166.32
538.463	29238
538.664	28955.38
538.865	29248.24
539.065	29655.78
539.266	29123.31
539.466	29395.69
539.667	29059.82
539.868	29340.39
540.068	29252.33
540.269	29147.89
540.469	29405.93
540.67	29377.26
540.87	29022.96
541.071	29084.4
541.271	29332.2
541.472	29291.24
541.672	28814.07
541.873	28830.45
542.073	28773.11
542.274	29383.4
542.474	29180.65
542.675	28779.25
542.875	29383.4
543.075	29330.16
543.276	28631.8
543.476	29072.11
543.676	28951.28
543.877	29295.34
544.077	29326.06
544.277	29176.56
544.478	29469.42
544.678	29266.67
544.878	29229.8
545.078	28777.2
545.279	29031.15
545.479	28904.18
545.679	28859.12
545.879	28785.4
546.079	29223.66
546.28	28566.26
546.48	28887.79
546.68	29387.5
546.88	28775.16
547.08	29154.03
547.28	28930.8
547.48	28721.91
547.68	28863.22
547.88	28529.4
548.081	28642.04
548.281	28807.92
548.481	28736.24
548.681	29475.56
548.881	28637.94
549.081	29104.88
549.28	28717.81
549.48	28947.18
549.68	28656.37
549.88	29197.04
550.08	28639.99
550.28	28842.74
550.48	28705.52
550.68	29016.82
550.88	29027.06
551.08	28955.38
551.279	29164.27
551.479	28537.59
551.679	28814.07
551.879	28549.88
552.079	28752.63
552.278	28699.38
552.478	28721.91
552.678	28945.14
552.878	28500.73
553.077	28701.43
553.277	28297.98
553.477	29113.07
553.676	28386.04
553.876	28861.17
554.076	28572.41
554.275	28742.39
554.475	28349.18
554.674	28574.45
554.874	28805.88
555.074	28326.65
555.273	28394.23
555.473	28324.6
555.672	28357.37
555.872	28605.17
556.071	28529.4
556.271	28308.22
556.47	28060.41
556.67	28054.27
556.869	27970.3
557.068	28281.6
557.268	27548.42
557.467	28177.15
557.667	27968.26
557.866	28175.1
558.065	27814.66
558.265	27587.33
558.464	27765.51
558.663	28107.52
558.863	27601.67
559.062	27947.78
559.261	27419.4
559.461	28093.18
559.66	27317
559.859	27659.01
560.058	27355.91
560.258	27233.04
560.457	27419.4
560.656	27847.43
560.855	27382.54
561.054	27362.06
561.253	27290.38
561.453	27114.25
561.652	27112.2
561.851	27194.12
562.05	26913.55
562.249	26997.52
562.448	27317
562.647	26780.43
562.846	26907.41
563.045	26538.77
563.244	26465.05
563.443	26884.88
563.642	26381.08
563.841	26794.77
564.04	26104.6
564.239	26577.69
564.438	26118.94
564.637	26606.36
564.836	26186.52
565.035	26051.36
565.234	25848.61
565.432	26039.07
565.631	25766.69
565.83	26028.83
566.029	25877.28
566.228	25705.25
566.427	25991.97
566.625	25580.32
566.824	25240.36
567.023	25537.32
567.222	25015.08
567.42	25654.05
567.619	25377.58
567.818	25344.81
568.016	25211.69
568.215	25365.29
568.414	24978.22
568.612	25178.92
568.811	25033.52
569.01	25037.61
569.208	24814.38
569.407	25008.94
569.605	24609.59
569.804	24783.66
570.002	24271.67
570.201	24662.83
570.4	23991.1
570.598	24216.38
570.797	23948.09
570.995	24038.2
571.193	23878.46
571.392	24208.19
571.59	23722.82
571.789	23984.96
571.987	23831.36
572.186	23651.14
572.384	23640.9
572.582	23845.69
572.781	23497.54
572.979	23321.41
573.177	23356.23
573.376	23544.64
573.574	23534.4
573.772	23255.88
573.971	22895.44
574.169	22850.38
574.367	23059.27
574.565	23298.89
574.763	23006.03
574.962	22659.92
575.16	22756.18
575.358	22823.76
575.556	22485.84
575.754	22827.85
575.952	22328.15
576.151	22688.59
576.349	22260.57
576.547	22410.07
576.745	22537.04
576.943	22125.4
577.141	22115.16
577.339	22152.02
577.537	22156.12
577.735	21810.01
577.933	21836.64
578.131	21830.49
578.329	21672.8
578.527	21670.75
578.725	21666.66
578.923	21697.38
579.121	21672.8
579.319	21293.93
579.516	21410.66
579.714	21246.82
579.912	21093.22
580.11	20884.33
580.308	21025.64
580.506	21074.79
580.704	20712.3
580.901	20945.77
581.099	20829.04
581.297	20564.85
581.495	20597.62
581.692	20882.28
581.89	20585.33
582.088	20913
582.285	20335.48
582.483	20757.36
582.681	20591.47
582.878	20575.09
583.076	20050.81
583.274	20542.32
583.471	20247.41
583.669	20259.7
583.866	19622.78
584.064	19956.6
584.262	19694.46
584.459	19729.28
584.657	19927.93
584.854	20050.81
585.052	19751.81
585.249	19612.54
585.447	19544.96
585.644	19313.54
585.841	19686.27
586.039	19559.3
586.236	19354.5
586.434	19354.5
586.631	19520.38
586.828	19301.25
587.026	19178.37
587.223	19045.26
587.42	19100.55
587.618	19098.5
587.815	18926.47
588.012	18748.3
588.21	18803.6
588.407	19020.68
588.604	18561.94
588.801	18699.15
588.999	18523.02
589.196	18754.44
589.393	18678.67
589.59	18430.87
589.787	18387.86
589.984	18541.46
590.182	17990.55
590.379	18307.99
590.576	17990.55
590.773	18025.37
590.97	17925.02
591.167	18097.05
591.364	17918.87
591.561	17830.81
591.758	17830.81
591.955	17898.39
592.152	18105.24
592.349	17732.51
592.546	17568.67
592.743	17707.93
592.94	17306.53
593.137	17544.09
593.334	17507.23
593.531	17163.17
593.727	17253.28
593.924	17427.36
594.121	16939.94
594.318	17220.52
594.515	17025.96
594.712	17195.94
594.908	16909.22
595.105	17357.73
595.302	17103.78
595.499	17054.63
595.696	17011.62
595.892	16382.9
596.089	16868.27
596.286	16876.46
596.482	16700.33
596.679	16909.22
596.876	16518.06
597.072	16458.67
597.269	16436.14
597.466	16374.7
597.662	16268.21
597.859	16395.18
598.055	16454.58
598.252	16262.07
598.448	16257.97
598.645	16161.72
598.841	15877.05
599.038	15934.39
599.234	16257.97
599.431	15737.79
599.627	15850.42
599.824	15993.78
600.02	15731.64
600.217	15670.2
600.413	15690.68
600.609	15578.04
600.806	15563.71
601.002	15715.26
601.198	15410.11
601.395	15295.43
601.591	15332.29
601.787	15297.47
601.984	15219.65
602.18	15414.21
602.376	15283.14
602.572	15268.8
602.769	15258.56
602.965	15107.01
603.161	14939.08
603.357	14992.33
603.553	14914.5
603.75	15021
603.946	14928.84
604.142	14943.17
604.338	14552.01
604.534	14961.61
604.73	14599.12
604.926	14545.87
605.122	14619.6
605.318	14379.98
605.514	14373.84
605.71	14357.46
605.906	14302.16
606.102	14478.29
606.298	14425.04
606.494	14308.3
606.69	14304.21
606.886	14214.1
607.082	14132.18
607.278	14308.3
607.474	14257.11
607.67	13913.05
607.866	13796.31
608.062	14144.47
608.257	13863.9
608.453	13968.34
608.649	13769.69
608.845	13874.13
609.041	13833.18
609.236	13980.63
609.432	13706.2
609.628	13601.76
609.824	13884.37
610.019	13632.47
610.215	13818.84
610.411	13712.35
610.606	13546.46
610.802	13571.04
610.998	13437.92
611.193	13460.45
611.389	13616.09
611.584	13288.42
611.78	13300.7
611.976	13429.73
612.171	13308.9
612.367	13276.13
612.562	13278.18
612.758	13165.54
612.953	13104.1
613.149	13179.87
613.344	12825.57
613.539	13061.09
613.735	12923.88
613.93	13321.18
614.126	13177.83
614.321	13310.94
614.517	13102.05
614.712	12973.03
614.907	12919.78
615.103	13044.71
615.298	12891.11
615.493	12960.74
615.688	12694.5
615.884	13061.09
616.079	12708.84
616.274	12708.84
616.47	13011.94
616.665	12782.57
616.86	12887.01
617.055	12694.5
617.25	12502
617.445	12608.49
617.641	12553.2
617.836	12712.94
618.031	12352.49
618.226	12491.76
618.421	12364.78
618.616	12465.13
618.811	12182.51
619.006	12311.53
619.201	12180.46
619.396	12307.44
619.591	11854.84
619.786	12309.49
619.981	12100.59
620.176	12096.5
620.371	11811.83
620.566	12004.34
620.761	12039.15
620.956	11875.32
621.151	11572.22
621.346	11715.58
621.541	11719.67
621.735	11666.42
621.93	11265.02
622.125	11721.72
622.32	11371.52
622.515	11437.05
622.709	11369.47
622.904	11066.37
623.099	11267.07
623.294	11379.71
623.488	11127.81
623.683	11062.27
623.878	11041.79
624.072	10902.53
624.267	11025.41
624.462	10880
624.656	10712.07
624.851	10570.76
625.046	10595.34
625.24	10744.84
625.435	10486.79
625.629	10736.65
625.824	10456.08
626.018	10494.99
626.213	9890.84
626.407	10177.55
626.602	10167.31
626.796	10136.59
626.991	10136.59
627.185	10105.87
627.38	9939.99
627.574	9845.78
627.768	9874.45
627.963	9907.22
628.157	9946.13
628.352	9638.94
628.546	9765.91
628.74	9694.23
628.935	9595.93
629.129	9557.02
629.323	9245.73
629.517	9301.02
629.712	9368.6
629.906	9448.47
630.1	9313.31
630.294	9278.49
630.489	9051.17
630.683	9331.74
630.877	9022.5
631.071	8924.19
631.265	8907.81
631.459	8799.27
631.653	8895.52
631.848	8887.33
632.042	9004.07
632.236	8829.99
632.43	8705.06
632.624	8598.57
632.818	8537.13
633.012	8557.61
633.206	8399.91
633.4	8725.54
633.594	8365.1
633.788	8371.24
633.982	8496.17
634.176	8447.02
634.369	8418.35
634.563	8334.38
634.757	7998.51
634.951	8301.61
635.145	8203.31
635.339	8195.12
635.533	8082.48
635.726	7980.08
635.92	7900.21
636.114	7855.15
636.308	7797.81
636.501	7861.3
636.695	7855.15
636.889	7664.69
637.083	7670.84
637.276	7580.73
637.47	7717.94
637.664	7558.2
637.857	7480.38
638.051	7527.48
638.244	7390.27
638.438	7386.17
638.632	7302.2
638.825	7175.23
639.019	7345.21
639.212	7298.11
639.406	7150.65
639.599	7140.41
639.793	7175.23
639.986	6937.66
640.18	7052.35
640.373	7003.2
640.567	6923.33
640.76	6878.27
640.954	6933.57
641.147	6863.94
641.34	6753.35
641.534	6829.12
641.727	6659.14
641.92	6691.91
642.114	6657.09
642.307	6597.7
642.5	6616.13
642.694	6591.56
642.887	6401.1
643.08	6653
643.273	6507.59
643.467	6440.01
643.66	6403.14
643.853	6298.7
644.046	6323.27
644.239	6464.58
644.432	6206.54
644.626	6358.09
644.819	6128.72
645.012	6020.17
645.205	6214.73
645.398	6128.72
645.591	5968.98
645.784	6065.23
645.977	5966.93
646.17	5983.31
646.363	6034.51
646.556	5782.61
646.749	5782.61
646.942	5784.66
647.135	5897.3
647.328	5676.12
647.521	5629.01
647.714	5712.98
647.907	5743.7
648.099	5586.01
648.292	5733.46
648.485	5758.03
648.678	5647.44
648.871	5610.58
649.064	5469.27
649.256	5381.21
649.449	5368.92
649.642	5430.36
649.835	5543
650.027	5528.66
650.22	5446.74
650.413	5289.05
650.605	5368.92
650.798	5205.08
650.991	5069.92
651.183	5233.75
651.376	5243.99
651.568	5104.73
651.761	5104.73
651.954	5198.94
652.146	5102.68
652.339	5094.49
652.531	5051.49
652.724	5047.39
652.916	4854.88
653.109	4975.71
653.301	4992.09
653.494	4895.84
653.686	4801.63
653.879	4871.26
654.071	4910.18
654.263	4828.26
654.456	4772.96
654.648	4820.07
654.84	4834.4
655.033	4723.81
655.225	4742.24
655.417	4654.18
655.61	4602.98
655.802	4666.47
655.994	4664.42
656.186	4707.43
656.379	4607.08
656.571	4531.3
656.763	4562.02
656.955	4355.18
657.148	4590.69
657.34	4461.67
657.532	4299.88
657.724	4383.85
657.916	4465.77
658.108	4424.81
658.3	4179.05
658.492	4215.91
658.684	4293.74
658.876	4238.44
659.068	4152.43
659.26	4254.83
659.452	4287.59
659.644	4179.05
659.836	4099.18
660.028	4168.81
660.22	4035.69
660.412	4195.43
660.604	4158.57
660.796	4162.67
660.988	3974.25
661.18	4052.08
661.372	3906.67
661.563	3935.34
661.755	4054.12
661.947	3878
662.139	3878
662.331	3898.48
662.522	3828.85
662.714	3878
662.906	3785.84
663.097	3763.31
663.289	3794.03
663.481	3681.39
663.673	3527.8
663.864	3734.64
664.056	3759.22
664.247	3728.5
664.439	3824.75
664.631	3751.03
664.822	3579
665.014	3679.35
665.205	3564.66
665.397	3642.48
665.588	3638.39
665.78	3560.56
665.971	3562.61
666.163	3595.38
666.354	3564.66
666.546	3544.18
666.737	3380.34
666.929	3468.41
667.12	3523.7
667.311	3476.6
667.503	3511.41
667.694	3587.19
667.885	3470.45
668.077	3298.42
668.268	3492.98
668.459	3308.66
668.651	3298.42
668.842	3372.15
669.033	3269.75
669.224	3392.63
669.416	3394.68
669.607	3208.31
669.798	3384.44
669.989	3253.37
670.18	3241.08
670.371	3335.29
670.563	3243.13
670.754	3355.77
670.945	3140.73
671.136	3210.36
671.327	3105.92
671.518	3112.06
671.709	3308.66
671.9	3124.35
672.091	3284.09
672.282	3212.41
672.473	3130.49
672.664	3269.75
672.855	3200.12
673.046	3134.59
673.237	3202.17
673.428	3136.63
673.619	3193.98
673.809	3087.48
674	3118.2
674.191	3021.95
674.382	3153.02
674.573	3073.15
674.764	3189.88
674.954	3064.96
675.145	3091.58
675.336	3062.91
675.527	2966.65
675.717	3130.49
675.908	3007.61
676.099	3011.71
676.289	2983.04
676.48	2933.89
676.671	2882.69
676.861	3009.66
677.052	2927.74
677.243	2950.27
677.433	2937.98
677.624	3093.63
677.814	2956.41
678.005	3036.28
678.195	2933.89
678.386	2870.4
678.576	3101.82
678.767	2907.26
678.957	2894.97
679.148	2903.17
679.338	2897.02
679.529	2927.74
679.719	3032.19
679.909	3005.56
680.1	2845.82
680.29	2966.65
680.481	2862.21
680.671	2870.4
680.861	2849.92
681.052	2978.94
681.242	2819.2
681.432	2962.56
681.622	2909.31
681.813	2835.58
682.003	2890.88
682.193	2899.07
682.383	2950.27
682.573	2874.49
682.764	2968.7
682.954	2772.1
683.144	2886.78
683.334	2825.34
683.524	2798.72
683.714	2657.41
683.904	2880.64
684.094	2745.47
684.284	2999.42
684.474	2790.53
684.664	2827.39
684.854	2761.86
685.044	2696.32
685.234	2702.47
685.424	2856.06
685.614	2731.14
685.804	2684.03
685.994	2722.95
686.184	2778.24
686.374	2663.55
686.564	2692.23
686.753	2655.36
686.943	2651.27
687.133	2796.67
687.323	2747.52
687.513	2700.42
687.702	2796.67
687.892	2569.35
688.082	2720.9
688.272	2727.04
688.461	2608.26
688.651	2630.79
688.841	2647.17
689.03	2638.98
689.22	2577.54
689.41	2655.36
689.599	2694.27
689.789	2690.18
689.979	2602.11
690.168	2456.71
690.358	2538.63
690.547	2450.57
690.737	2516.1
690.926	2385.03
691.116	2491.52
691.305	2557.06
691.495	2471.04
691.684	2378.89
691.874	2423.94
692.063	2471.04
692.252	2477.19
692.442	2413.7
692.631	2393.22
692.82	2352.26
693.01	2487.43
693.199	2303.11
693.388	2249.86
693.578	2294.92
693.767	2376.84
693.956	2313.35
694.146	2333.83
694.335	2317.45
694.524	2221.19
694.713	2278.54
694.902	2382.98
695.092	2374.79
695.281	2352.26
695.47	2083.98
695.659	2282.63
695.848	2251.91
696.037	2327.69
696.226	2331.78
696.415	2288.78
696.604	2321.54
696.793	2231.43
696.982	2231.43
697.171	2243.72
697.36	2296.97
697.549	2204.81
697.738	2169.99
697.927	2176.14
698.116	2204.81
698.305	2192.52
698.494	2241.67
698.683	2215.05
698.872	2241.67
699.061	2196.62
699.25	2155.66
699.438	2126.99
699.627	2159.75
699.816	2256.01
700.005	2282.63
700.193	2186.38
700.382	2372.74
700.571	2256.01
700.76	2219.14
700.948	2190.47
701.137	2270.34
701.326	2151.56
701.514	2129.03
701.703	2182.28
701.892	2139.27
702.08	2190.47
702.269	2102.41
702.457	2274.44
702.646	2264.2
702.834	2172.04
703.023	2245.77
703.212	2190.47
703.4	2094.22
703.589	2151.56
703.777	2139.27
703.965	2088.07
704.154	2299.02
704.342	2235.53
704.531	2249.86
704.719	2106.51
704.907	2270.34
705.096	2186.38
705.284	2296.97
705.472	2303.11
705.661	2260.1
705.849	2165.9
706.037	2227.34
706.226	2292.87
706.414	2229.38
706.602	2151.56
706.79	2268.3
706.979	2286.73
707.167	2249.86
707.355	2262.15
707.543	2225.29
707.731	2329.74
707.919	2264.2
708.107	2233.48
708.296	2241.67
708.484	2208.9
708.672	2227.34
708.86	2204.81
709.048	2278.54
709.236	2317.45
709.424	2116.75
709.612	2161.8
709.8	2126.99
709.988	2176.14
710.176	2282.63
710.364	2215.05
710.551	2241.67
710.739	2229.38
710.927	2210.95
711.115	2200.71
711.303	2206.86
711.491	2299.02
711.679	2321.54
711.866	2251.91
712.054	2333.83
712.242	2200.71
712.43	2407.56
712.617	2241.67
712.805	2227.34
712.993	2307.21
713.181	2315.4
713.368	2239.62
713.556	2311.3
713.744	2276.49
713.931	2331.78
714.119	2245.77
714.306	2194.57
714.494	2256.01
714.682	2256.01
714.869	2176.14
715.057	2231.43
715.244	2272.39
715.432	2258.06
715.619	2479.24
715.807	2319.5
715.994	2309.26
716.182	2305.16
716.369	2313.35
716.556	2278.54
716.744	2249.86
716.931	2225.29
717.119	2243.72
717.306	2292.87
717.493	2294.92
717.681	2325.64
717.868	2303.11
718.055	2296.97
718.242	2225.29
718.43	2323.59
718.617	2290.82
718.804	2286.73
718.991	2356.36
719.179	2299.02
719.366	2264.2
719.553	2272.39
719.74	2256.01
719.927	2366.6
720.114	2280.58
720.301	2286.73
720.488	2399.37
720.676	2253.96
720.863	2315.4
721.05	2339.97
721.237	2411.65
721.424	2243.72
721.611	2366.6
721.798	2372.74
721.985	2225.29
722.172	2382.98
722.358	2342.02
722.545	2442.37
722.732	2413.7
722.919	2323.59
723.106	2321.54
723.293	2241.67
723.48	2333.83
723.667	2354.31
723.853	2325.64
724.04	2417.8
724.227	2321.54
724.414	2376.84
724.6	2296.97
724.787	2329.74
724.974	2299.02
725.161	2206.86
725.347	2395.27
725.534	2421.89
725.72	2440.33
725.907	2450.57
726.094	2346.12
726.28	2335.88
726.467	2432.13
726.653	2362.5
726.84	2282.63
727.027	2440.33
727.213	2329.74
727.4	2489.48
727.586	2403.46
727.773	2393.22
727.959	2294.92
728.145	2421.89
728.332	2278.54
728.518	2446.47
728.705	2557.06
728.891	2485.38
729.077	2415.75
729.264	2350.21
729.45	2399.37
729.636	2417.8
729.823	2356.36
730.009	2417.8
730.195	2350.21
730.382	2505.86
730.568	2303.11
730.754	2462.85
730.94	2462.85
731.126	2434.18
731.313	2462.85
731.499	2432.13
731.685	2479.24
731.871	2452.61
732.057	2350.21
732.243	2333.83
732.429	2274.44
732.615	2516.1
732.801	2299.02
732.987	2405.51
733.173	2407.56
733.359	2438.28
733.545	2444.42
733.731	2423.94
733.917	2446.47
734.103	2473.09
734.289	2448.52
734.475	2477.19
734.661	2434.18
734.847	2462.85
735.033	2444.42
735.219	2356.36
735.404	2471.04
735.59	2407.56
735.776	2495.62
735.962	2430.09
736.148	2409.61
736.333	2421.89
736.519	2389.13
736.705	2491.52
736.89	2409.61
737.076	2354.31
737.262	2428.04
737.447	2454.66
737.633	2362.5
737.819	2358.41
738.004	2417.8
738.19	2411.65
738.375	2446.47
738.561	2401.41
738.747	2409.61
738.932	2454.66
739.118	2428.04
739.303	2350.21
739.489	2280.58
739.674	2296.97
739.859	2399.37
740.045	2335.88
740.23	2411.65
740.416	2188.43
740.601	2407.56
740.786	2292.87
740.972	2346.12
741.157	2272.39
741.342	2290.82
741.528	2219.14
741.713	2389.13
741.898	2278.54
742.084	2313.35
742.269	2307.21
742.454	2397.32
742.639	2229.38
742.824	2317.45
743.01	2288.78
743.195	2331.78
743.38	2217.1
743.565	2135.18
743.75	2331.78
743.935	2116.75
744.12	2169.99
744.305	2274.44
744.49	2208.9
744.675	2206.86
744.86	2165.9
745.045	2184.33
745.23	2180.23
745.415	2149.51
745.6	2198.67
745.785	2198.67
745.97	2188.43
746.155	2131.08
746.34	2024.59
746.525	2045.07
746.71	2073.74
746.895	2094.22
747.079	2094.22
747.264	1991.82
747.449	2026.64
747.634	1995.92
747.819	2061.45
748.003	1985.68
748.188	2032.78
748.373	2040.97
748.557	1905.81
748.742	2014.35
748.927	1946.76
749.111	1946.76
749.296	1961.1
749.481	1950.86
749.665	1959.05
749.85	1961.1
750.034	1856.65
750.219	1772.69
750.404	1848.46
750.588	1811.6
750.773	1764.5
750.957	1758.35
751.141	1864.85
751.326	1918.09
751.51	1756.3
751.695	1772.69
751.879	1658
752.064	1774.74
752.248	1731.73
752.432	1825.93
752.617	1791.12
752.801	1660.05
752.985	1787.02
753.17	1744.02
753.354	1719.44
753.538	1733.78
753.722	1680.53
753.907	1664.15
754.091	1629.33
754.275	1701.01
754.459	1588.37
754.643	1664.15
754.828	1672.34
755.012	1664.15
755.196	1635.47
755.38	1498.26
755.564	1537.17
755.748	1528.98
755.932	1590.42
756.116	1557.65
756.3	1528.98
756.484	1555.6
756.668	1563.79
756.852	1408.15
757.036	1449.11
757.22	1430.68
757.404	1449.11
757.588	1406.1
757.772	1420.44
757.956	1367.19
758.14	1402.01
758.323	1420.44
758.507	1438.87
758.691	1440.92
758.875	1367.19
759.059	1387.67
759.242	1457.3
759.426	1346.71
759.61	1338.52
759.794	1301.65
759.977	1322.13
760.161	1315.99
760.345	1289.37
760.528	1305.75
760.712	1277.08
760.895	1295.51
761.079	1250.46
761.263	1279.13
761.446	1285.27
761.63	1242.26
761.813	1232.02
761.997	1193.11
762.18	1236.12
762.364	1184.92
762.547	1254.55
762.731	1213.59
762.914	1229.98
763.098	1178.78
763.281	1285.27
763.464	1211.54
763.648	1143.96
763.831	1107.1
764.015	1123.48
764.198	1115.29
764.381	1059.99
764.564	1049.75
764.748	1174.68
764.931	1107.1
765.114	1111.19
765.297	1193.11
765.481	1070.23
765.664	1082.52
765.847	959.64
766.03	1191.06
766.213	1062.04
766.397	1072.28
766.58	996.51
766.763	1109.15
766.946	1100.95
767.129	1117.34
767.312	1049.75
767.495	982.17
767.678	1057.95
767.861	1064.09
768.044	1031.32
768.227	963.74
768.41	1041.56
768.593	1094.81
768.776	998.56
768.959	1090.71
769.142	1010.84
769.324	994.46
769.507	986.27
769.69	978.08
769.873	945.31
770.056	1000.6
770.239	943.26
770.421	1043.61
770.604	996.51
770.787	980.12
770.97	947.36
771.152	955.55
771.335	922.78
771.518	912.54
771.7	990.36
771.883	935.07
772.066	953.5
772.248	875.68
772.431	976.03
772.613	943.26
772.796	885.92
772.978	930.97
773.161	898.2
773.343	916.64
773.526	873.63
773.708	890.01
773.891	804
774.073	822.43
774.256	810.14
774.438	953.5
774.621	717.98
774.803	840.86
774.985	828.57
775.168	742.56
775.35	867.49
775.532	941.21
775.715	793.76
775.897	752.8
776.079	709.79
776.261	765.09
776.444	767.13
776.626	746.66
776.808	771.23
776.99	777.37
777.173	787.61
777.355	650.4
777.537	699.55
777.719	795.81
777.901	756.9
778.083	740.51
778.265	572.58
778.447	693.41
778.629	691.36
778.811	738.46
778.993	640.16
779.175	670.88
779.357	711.84
779.539	599.2
779.721	736.42
779.903	677.02
780.085	654.5
780.267	701.6
780.449	685.22
780.631	642.21
780.812	646.3
780.994	523.43
781.176	617.63
781.358	529.57
781.54	613.54
781.721	701.6
781.903	601.25
782.085	560.29
782.267	533.67
782.448	562.34
782.63	670.88
782.812	556.19
782.993	627.87
783.175	640.16
783.357	572.58
783.538	515.23
783.72	627.87
783.901	521.38
784.083	591.01
784.264	591.01
784.446	537.76
784.627	474.28
784.809	490.66
784.99	529.57
785.172	480.42
785.353	517.28
785.535	496.8
785.716	492.71
785.897	586.91
786.079	560.29
786.26	531.62
786.441	511.14
786.623	453.8
786.804	388.26
786.985	480.42
787.167	441.51
787.348	425.12
787.529	525.47
787.71	519.33
787.891	482.47
788.073	464.04
788.254	459.94
788.435	421.03
788.616	439.46
788.797	386.21
788.978	451.75
789.159	423.08
789.34	519.33
789.522	445.6
789.703	453.8
789.884	375.97
790.065	398.5
790.246	453.8
790.427	425.12
790.607	455.84
790.788	406.69
790.969	398.5
791.15	361.64
791.331	386.21
791.512	353.45
791.693	365.73
791.874	416.93
792.054	361.64
792.235	451.75
792.416	345.25
792.597	296.1
792.778	363.69
792.958	343.21
793.139	396.45
793.32	406.69
793.5	298.15
793.681	316.58
793.862	353.45
794.042	316.58
794.223	246.95
794.404	373.92
794.584	302.25
794.765	347.3
794.945	318.63
795.126	330.92
795.306	386.21
795.487	343.21
795.667	277.67
795.848	345.25
796.028	361.64
796.209	263.33
796.389	318.63
796.57	300.2
796.75	298.15
796.93	330.92
797.111	218.28
797.291	298.15
797.471	287.91
797.652	347.3
797.832	345.25
798.012	345.25
798.192	246.95
798.373	339.11
798.553	296.1
798.733	308.39
798.913	249
799.093	279.72
799.274	255.14
799.454	343.21
799.634	277.67
799.814	324.77
799.994	271.53
800.174	341.16
800.354	203.94
800.534	193.7
800.714	285.86
800.894	224.42
801.074	238.76
801.254	302.25
801.434	294.05
801.614	220.33
801.794	267.43
801.974	775.33
802.154	173.22
802.334	234.66
802.514	212.14
802.693	296.1
802.873	171.18
803.053	281.77
803.233	269.48
803.413	220.33
803.592	208.04
803.772	228.52
803.952	216.23
804.131	255.14
804.311	269.48
804.491	242.85
804.67	251.05
804.85	253.09
805.03	218.28
805.209	210.09
805.389	203.94
805.568	175.27
805.748	144.55
805.928	263.33
806.107	238.76
806.287	222.38
806.466	216.23
806.646	187.56
806.825	171.18
807.004	156.84
807.184	230.57
807.363	185.51
807.543	122.02
807.722	150.7
807.901	216.23
808.081	251.05
808.26	212.14
808.439	208.04
808.619	232.62
808.798	214.18
808.977	115.88
809.156	253.09
809.336	230.57
809.515	167.08
809.694	187.56
809.873	232.62
810.052	201.9
810.231	259.24
810.411	185.51
810.59	154.79
810.769	197.8
810.948	136.36
811.127	210.09
811.306	189.61
811.485	158.89
811.664	230.57
811.843	115.88
812.022	124.07
812.201	165.03
812.38	117.93
812.559	148.65
812.737	126.12
812.916	58.54
813.095	134.31
813.274	148.65
813.453	177.32
813.632	105.64
813.811	142.5
813.989	93.35
814.168	144.55
814.347	167.08
814.526	244.9
814.704	185.51
814.883	179.37
815.062	185.51
815.24	152.74
815.419	111.78
815.598	189.61
815.776	113.83
815.955	179.37
816.133	107.69
816.312	171.18
816.49	111.78
816.669	113.83
816.847	87.21
817.026	107.69
817.204	54.44
817.383	189.61
817.561	140.46
817.74	146.6
817.918	154.79
818.097	171.18
818.275	93.35
818.453	148.65
818.632	130.22
818.81	144.55
818.988	76.97
819.167	89.26
819.345	124.07
819.523	74.92
819.701	150.7
819.879	107.69
820.058	208.04
820.236	148.65
820.414	109.74
820.592	85.16
820.77	128.17
820.948	105.64
821.127	160.94
821.305	156.84
821.483	29.87
821.661	191.66
821.839	62.63
822.017	62.63
822.195	183.46
822.373	91.31
822.551	87.21
822.729	113.83
822.907	181.42
823.085	187.56
823.262	64.68
823.44	85.16
823.618	111.78
823.796	83.11
823.974	46.25
824.152	85.16
824.329	91.31
824.507	136.36
824.685	132.26
824.863	60.59
825.04	124.07
825.218	124.07
825.396	148.65
825.574	134.31
825.751	38.06
825.929	152.74
826.107	64.68
826.284	136.36
826.462	56.49
826.639	154.79
826.817	83.11
826.994	122.02
827.172	74.92
827.349	105.64
827.527	191.66
827.704	76.97
827.882	154.79
828.059	128.17
828.237	132.26
828.414	68.78
828.591	46.25
828.769	107.69
828.946	146.6
829.124	87.21
829.301	64.68
829.478	162.98
829.655	58.54
829.833	111.78
830.01	122.02
830.187	103.59
830.364	87.21
830.542	89.26
830.719	122.02
830.896	115.88
831.073	15.53
831.25	76.97
831.427	144.55
831.604	93.35
831.782	150.7
831.959	103.59
832.136	83.11
832.313	115.88
832.49	87.21
832.667	101.55
832.844	107.69
833.021	99.5
833.198	83.11
833.374	3.24
833.551	132.26
833.728	46.25
833.905	101.55
834.082	79.02
834.259	103.59
834.436	58.54
834.612	122.02
834.789	142.5
834.966	56.49
835.143	72.87
835.319	17.58
835.496	56.49
835.673	74.92
835.85	132.26
836.026	64.68
836.203	36.01
836.38	58.54
836.556	36.01
836.733	23.72
836.909	74.92
837.086	-2.9
837.262	95.4
837.439	60.59
837.616	87.21
837.792	42.15
837.968	138.41
838.145	107.69
838.321	93.35
838.498	74.92
838.674	68.78
838.851	21.67
839.027	23.72
839.203	93.35
839.38	62.63
839.556	124.07
839.732	81.07
839.909	50.35
840.085	99.5
840.261	93.35
840.437	85.16
840.614	21.67
840.79	62.63
840.966	83.11
841.142	66.73
841.318	31.91
841.494	107.69
841.671	87.21
841.847	7.34
842.023	46.25
842.199	31.91
842.375	60.59
842.551	9.39
842.727	42.15
842.903	-9.05
843.079	66.73
843.255	128.17
843.431	72.87
843.607	11.43
843.783	42.15
843.959	79.02
844.134	-13.14
844.31	97.45
844.486	-50
844.662	81.07
844.838	62.63
845.013	-7
845.189	60.59
845.365	103.59
845.541	-2.9
845.716	-9.05
845.892	109.74
846.068	31.91
846.244	33.96
846.419	62.63
846.595	13.48
846.77	25.77
846.946	72.87
847.122	50.35
847.297	5.29
847.473	27.82
847.648	-33.62
847.824	56.49
847.999	17.58
848.175	48.3
848.35	66.73
848.526	68.78
848.701	27.82
848.876	33.96
849.052	72.87
849.227	105.64
849.403	56.49
849.578	-19.29
849.753	-41.81
849.929	25.77
850.104	52.39
850.279	5.29
850.454	-19.29
850.63	19.63
850.805	13.48
850.98	89.26
851.155	74.92
851.33	56.49
851.505	31.91
851.681	97.45
851.856	56.49
852.031	76.97
852.206	40.11
852.381	19.63
852.556	81.07
852.731	62.63
852.906	58.54
853.081	46.25
853.256	-7
853.431	-39.76
853.606	23.72
853.781	-31.57
853.956	-39.76
854.131	60.59
854.305	-54.1
854.48	56.49
854.655	7.34
854.83	-2.9
855.005	-74.58
855.18	60.59
855.354	5.29
855.529	109.74
855.704	-7
855.879	50.35
856.053	72.87
856.228	54.44
856.403	9.39
856.577	52.39
856.752	-11.09
856.926	21.67
857.101	-19.29
857.276	21.67
857.45	42.15
857.625	29.87
857.799	29.87
857.974	-23.38
858.148	44.2
858.323	83.11
858.497	99.5
858.672	25.77
858.846	62.63
859.02	50.35
859.195	29.87
859.369	29.87
859.543	17.58
859.718	-0.85
859.892	54.44
860.066	81.07
860.241	33.96
860.415	27.82
860.589	-45.91
860.763	40.11
860.938	44.2
861.112	27.82
861.286	81.07
861.46	-19.29
861.634	9.39
861.808	72.87
861.982	38.06
862.157	-25.43
862.331	44.2
862.505	31.91
862.679	-23.38
862.853	74.92
863.027	-9.05
863.201	27.82
863.375	-23.38
863.549	-2.9
863.722	-15.19
863.896	29.87
864.07	46.25
864.244	46.25
864.418	-21.33
864.592	17.58
864.766	23.72
864.939	33.96
865.113	-19.29
865.287	107.69
865.461	-52.05
865.634	60.59
865.808	-21.33
865.982	58.54
866.156	-43.86
866.329	-58.2
866.503	17.58
866.676	29.87
866.85	25.77
867.024	54.44
867.197	54.44
867.371	83.11
867.544	19.63
867.718	72.87
867.891	74.92
868.065	7.34
868.238	3.24
868.412	93.35
868.585	17.58
868.759	-11.09
868.932	19.63
869.105	70.83
869.279	-58.2
869.452	-35.67
869.625	-41.81
869.799	-39.76
869.972	-25.43
870.145	9.39
870.319	-13.14
870.492	9.39
870.665	-17.24
870.838	5.29
871.011	-19.29
871.185	44.2
871.358	-23.38
871.531	-66.39
871.704	-43.86
871.877	58.54
872.05	38.06
872.223	-0.85
872.396	-37.72
872.569	29.87
872.742	17.58
872.915	33.96
873.088	74.92
873.261	68.78
873.434	-0.85
873.607	70.83
873.78	15.53
873.953	29.87
874.126	-43.86
874.299	-4.95
874.471	29.87
874.644	-13.14
874.817	58.54
874.99	27.82
875.163	-9.05
875.335	1.19
875.508	-9.05
875.681	33.96
875.853	-9.05
876.026	13.48
876.199	-23.38
876.371	11.43
876.544	-17.24
876.717	-13.14
876.889	5.29
877.062	3.24
877.234	25.77
877.407	-4.95
877.579	9.39
877.752	5.29
877.924	36.01
878.097	91.31
878.269	31.91
878.442	33.96
878.614	66.73
878.786	54.44
878.959	-4.95
879.131	44.2
879.303	-2.9
879.476	-45.91
879.648	9.39
879.82	-23.38
879.993	1.19
880.165	-23.38
880.337	42.15
880.509	-54.1
880.681	-41.81
880.854	44.2
881.026	33.96
881.198	15.53
881.37	-19.29
881.542	21.67
881.714	5.29
881.886	-2.9
882.058	23.72
882.23	-15.19
882.402	-2.9
882.574	52.39
882.746	-17.24
882.918	23.72
883.09	36.01
883.262	74.92
883.434	-27.48
883.606	21.67
883.778	25.77
883.95	36.01
884.122	46.25
884.293	87.21
884.465	-43.86
884.637	9.39
884.809	58.54
884.98	29.87
885.152	3.24
885.324	-2.9
885.496	-56.15
885.667	-45.91
885.839	-0.85
886.011	79.02
886.182	9.39
886.354	36.01
886.525	19.63
886.697	21.67
886.869	-4.95
887.04	40.11
887.212	-17.24
887.383	56.49
887.555	15.53
887.726	-11.09
887.897	54.44
888.069	46.25
888.24	15.53
888.412	-17.24
888.583	-2.9
888.754	58.54
888.926	-13.14
889.097	-60.24
889.268	-37.72
889.44	74.92
889.611	17.58
889.782	-58.2
889.953	64.68
890.125	-47.96
890.296	42.15
890.467	60.59
890.638	23.72
890.809	-43.86
890.98	-60.24
891.151	17.58
891.323	93.35
891.494	17.58
891.665	7.34
891.836	17.58
892.007	36.01
892.178	-74.58
892.349	58.54
892.52	23.72
892.691	1.19
892.862	-103.25
893.032	40.11
893.203	-11.09
893.374	-76.63
893.545	-9.05
893.716	-31.57
893.887	31.91
894.057	-29.52
894.228	-0.85
894.399	5.29
894.57	-7
894.74	-7
894.911	54.44
895.082	-0.85
895.253	-23.38
895.423	-4.95
895.594	27.82
895.764	-27.48
895.935	-43.86
896.106	-47.96
896.276	-35.67
896.447	36.01
896.617	19.63
896.788	-27.48
896.958	-29.52
897.129	-25.43
897.299	-9.05
897.47	-19.29
897.64	54.44
897.81	25.77
897.981	40.11
898.151	31.91
898.322	-15.19
898.492	-50
898.662	-54.1
898.832	-43.86
899.003	-7
899.173	-19.29
899.343	15.53
899.513	-41.81
