Data from USB4F104151__70__11-45-27-388.txt Node

Date: Fri Mar 14 11:45:27 EDT 2025
User: louis
Spectrometer: USB4F10415
Trigger mode: 4
Integration Time (sec): 2.000000E-2
Scans to average: 1
Electric dark correction enabled: true
Nonlinearity correction enabled: false
Boxcar width: 0
XAxis mode: Wavelengths
Number of Pixels in Spectrum: 3648
>>>>>Begin Spectral Data<<<<<
178.204	-79.19
178.424	-79.19
178.644	-79.19
178.864	-79.19
179.084	-103.76
179.304	29.35
179.524	-5.46
179.744	-17.75
179.964	15.02
180.184	8.87
180.404	49.83
180.624	-19.8
180.844	-36.18
181.064	21.16
181.283	-46.42
181.503	-34.13
181.723	35.5
181.943	23.21
182.163	84.65
182.383	8.87
182.602	4.78
182.822	29.35
183.042	-17.75
183.262	23.21
183.482	2.73
183.701	-7.51
183.921	39.59
184.141	-27.99
184.361	31.4
184.58	21.16
184.8	-38.23
185.02	2.73
185.239	27.31
185.459	70.31
185.679	6.83
185.898	-23.89
186.118	86.7
186.338	60.07
186.557	-30.04
186.777	-19.8
186.997	15.02
187.216	-15.7
187.436	-44.37
187.655	-5.46
187.875	66.22
188.095	-11.61
188.314	-11.61
188.534	51.88
188.753	76.46
188.973	43.69
189.192	92.84
189.412	-38.23
189.631	-56.66
189.851	10.92
190.07	80.55
190.29	4.78
190.509	-23.89
190.729	23.21
190.948	53.93
191.168	86.7
191.387	-23.89
191.607	0.68
191.826	-36.18
192.045	88.75
192.265	-15.7
192.484	6.83
192.704	12.97
192.923	17.07
193.142	41.64
193.362	12.97
193.581	12.97
193.8	31.4
194.02	92.84
194.239	-9.56
194.458	51.88
194.678	72.36
194.897	37.55
195.116	-17.75
195.335	8.87
195.555	-11.61
195.774	35.5
195.993	47.79
196.212	-27.99
196.432	-15.7
196.651	6.83
196.87	8.87
197.089	2.73
197.308	-11.61
197.528	29.35
197.747	39.59
197.966	25.26
198.185	53.93
198.404	-23.89
198.623	17.07
198.842	0.68
199.062	53.93
199.281	109.22
199.5	-48.47
199.719	17.07
199.938	-60.76
200.157	31.4
200.376	53.93
200.595	-58.71
200.814	-25.94
201.033	-5.46
201.252	76.46
201.471	35.5
201.69	15.02
201.909	76.46
202.128	55.98
202.347	92.84
202.566	-3.41
202.785	33.45
203.004	35.5
203.223	98.99
203.442	-7.51
203.661	19.11
203.879	23.21
204.098	27.31
204.317	6.83
204.536	10.92
204.755	-7.51
204.974	82.6
205.193	-19.8
205.411	45.74
205.63	37.55
205.849	0.68
206.068	8.87
206.287	51.88
206.505	25.26
206.724	64.17
206.943	0.68
207.162	-9.56
207.381	49.83
207.599	-21.85
207.818	21.16
208.037	12.97
208.255	-21.85
208.474	-58.71
208.693	31.4
208.911	4.78
209.13	-5.46
209.349	-5.46
209.567	51.88
209.786	39.59
210.005	82.6
210.223	43.69
210.442	-79.19
210.661	68.27
210.879	-46.42
211.098	37.55
211.316	37.55
211.535	43.69
211.753	37.55
211.972	-1.37
212.191	43.69
212.409	-19.8
212.628	35.5
212.846	-19.8
213.065	45.74
213.283	31.4
213.502	-1.37
213.72	-58.71
213.938	15.02
214.157	27.31
214.375	12.97
214.594	6.83
214.812	27.31
215.031	8.87
215.249	4.78
215.467	0.68
215.686	-56.66
215.904	-44.37
216.122	60.07
216.341	8.87
216.559	25.26
216.778	37.55
216.996	-64.85
217.214	62.12
217.432	0.68
217.651	-13.65
217.869	41.64
218.087	17.07
218.306	58.03
218.524	12.97
218.742	-5.46
218.96	10.92
219.179	60.07
219.397	31.4
219.615	51.88
219.833	68.27
220.051	15.02
220.27	21.16
220.488	6.83
220.706	49.83
220.924	12.97
221.142	-7.51
221.36	37.55
221.578	15.02
221.796	0.68
222.015	2.73
222.233	51.88
222.451	23.21
222.669	-50.52
222.887	4.78
223.105	27.31
223.323	2.73
223.541	-32.08
223.759	31.4
223.977	84.65
224.195	12.97
224.413	29.35
224.631	-11.61
224.849	47.79
225.067	-15.7
225.285	53.93
225.503	19.11
225.721	4.78
225.939	-19.8
226.157	-15.7
226.375	45.74
226.592	51.88
226.81	12.97
227.028	51.88
227.246	39.59
227.464	21.16
227.682	53.93
227.9	-27.99
228.117	66.22
228.335	8.87
228.553	39.59
228.771	-25.94
228.989	21.16
229.206	47.79
229.424	37.55
229.642	62.12
229.86	-25.94
230.077	68.27
230.295	-42.32
230.513	53.93
230.731	94.89
230.948	64.17
231.166	47.79
231.384	12.97
231.601	27.31
231.819	78.51
232.037	-17.75
232.254	-11.61
232.472	29.35
232.689	-36.18
232.907	39.59
233.125	55.98
233.342	21.16
233.56	-15.7
233.777	33.45
233.995	-5.46
234.213	53.93
234.43	27.31
234.648	53.93
234.865	-34.13
235.083	6.83
235.3	-5.46
235.518	25.26
235.735	74.41
235.953	19.11
236.17	33.45
236.388	-13.65
236.605	62.12
236.822	12.97
237.04	72.36
237.257	96.94
237.475	103.08
237.692	64.17
237.909	-9.56
238.127	10.92
238.344	27.31
238.562	74.41
238.779	-58.71
238.996	-85.33
239.214	74.41
239.431	31.4
239.648	-21.85
239.865	121.51
240.083	29.35
240.3	4.78
240.517	55.98
240.735	45.74
240.952	51.88
241.169	35.5
241.386	64.17
241.603	-15.7
241.821	17.07
242.038	45.74
242.255	-118.1
242.472	35.5
242.689	15.02
242.907	15.02
243.124	31.4
243.341	105.13
243.558	55.98
243.775	31.4
243.992	-52.56
244.209	82.6
244.426	117.42
244.643	12.97
244.86	29.35
245.078	39.59
245.295	-1.37
245.512	15.02
245.729	-1.37
245.946	47.79
246.163	43.69
246.38	2.73
246.597	29.35
246.814	-25.94
247.031	64.17
247.248	-3.41
247.464	58.03
247.681	45.74
247.898	12.97
248.115	62.12
248.332	-7.51
248.549	-5.46
248.766	29.35
248.983	23.21
249.2	49.83
249.417	-13.65
249.633	27.31
249.85	29.35
250.067	49.83
250.284	-66.9
250.501	107.18
250.717	-17.75
250.934	51.88
251.151	-9.56
251.368	55.98
251.585	35.5
251.801	6.83
252.018	19.11
252.235	21.16
252.451	21.16
252.668	31.4
252.885	39.59
253.102	-50.52
253.318	64.17
253.535	15.02
253.752	19.11
253.968	4.78
254.185	27.31
254.401	12.97
254.618	8.87
254.835	-75.09
255.051	29.35
255.268	-30.04
255.484	17.07
255.701	-21.85
255.917	-46.42
256.134	55.98
256.351	0.68
256.567	25.26
256.784	21.16
257	33.45
257.217	19.11
257.433	-7.51
257.65	49.83
257.866	23.21
258.082	31.4
258.299	-19.8
258.515	0.68
258.732	35.5
258.948	19.11
259.165	-7.51
259.381	62.12
259.597	55.98
259.814	12.97
260.03	84.65
260.246	-42.32
260.463	41.64
260.679	94.89
260.895	47.79
261.112	41.64
261.328	33.45
261.544	21.16
261.761	96.94
261.977	-23.89
262.193	-30.04
262.409	29.35
262.626	-48.47
262.842	53.93
263.058	19.11
263.274	-21.85
263.49	45.74
263.707	27.31
263.923	49.83
264.139	47.79
264.355	21.16
264.571	29.35
264.787	-7.51
265.004	113.32
265.22	94.89
265.436	96.94
265.652	-11.61
265.868	72.36
266.084	55.98
266.3	74.41
266.516	47.79
266.732	-30.04
266.948	49.83
267.164	17.07
267.38	41.64
267.596	-5.46
267.812	96.94
268.028	12.97
268.244	60.07
268.46	23.21
268.676	4.78
268.892	113.32
269.108	-30.04
269.324	21.16
269.54	33.45
269.756	74.41
269.972	-27.99
270.188	-13.65
270.403	21.16
270.619	29.35
270.835	-1.37
271.051	-32.08
271.267	-7.51
271.483	-23.89
271.698	125.61
271.914	41.64
272.13	35.5
272.346	4.78
272.562	41.64
272.777	96.94
272.993	33.45
273.209	-15.7
273.425	49.83
273.64	2.73
273.856	66.22
274.072	-64.85
274.287	64.17
274.503	37.55
274.719	-68.95
274.934	29.35
275.15	0.68
275.366	-15.7
275.581	80.55
275.797	-11.61
276.012	58.03
276.228	76.46
276.444	41.64
276.659	92.84
276.875	-13.65
277.09	2.73
277.306	47.79
277.521	25.26
277.737	76.46
277.952	70.31
278.168	45.74
278.383	-25.94
278.599	-9.56
278.814	25.26
279.03	15.02
279.245	74.41
279.461	-15.7
279.676	35.5
279.892	33.45
280.107	35.5
280.322	37.55
280.538	25.26
280.753	25.26
280.969	64.17
281.184	-58.71
281.399	76.46
281.615	-7.51
281.83	68.27
282.045	43.69
282.26	60.07
282.476	-44.37
282.691	70.31
282.906	-17.75
283.122	58.03
283.337	43.69
283.552	53.93
283.767	-7.51
283.983	15.02
284.198	4.78
284.413	33.45
284.628	-40.28
284.843	25.26
285.058	58.03
285.274	-3.41
285.489	-36.18
285.704	92.84
285.919	-13.65
286.134	4.78
286.349	-1.37
286.564	-36.18
286.779	55.98
286.995	-23.89
287.21	-13.65
287.425	6.83
287.64	19.11
287.855	78.51
288.07	-30.04
288.285	49.83
288.5	70.31
288.715	12.97
288.93	35.5
289.145	41.64
289.36	8.87
289.575	47.79
289.79	-19.8
290.004	90.79
290.219	12.97
290.434	-5.46
290.649	21.16
290.864	37.55
291.079	12.97
291.294	12.97
291.509	12.97
291.724	27.31
291.938	76.46
292.153	66.22
292.368	101.03
292.583	8.87
292.798	137.9
293.012	39.59
293.227	17.07
293.442	55.98
293.657	-30.04
293.871	82.6
294.086	33.45
294.301	-40.28
294.516	86.7
294.73	98.99
294.945	27.31
295.16	-7.51
295.374	43.69
295.589	74.41
295.804	-21.85
296.018	-15.7
296.233	105.13
296.447	8.87
296.662	39.59
296.877	-9.56
297.091	-32.08
297.306	12.97
297.52	10.92
297.735	-42.32
297.949	90.79
298.164	45.74
298.378	39.59
298.593	-66.9
298.807	-32.08
299.022	-42.32
299.236	80.55
299.451	70.31
299.665	58.03
299.88	60.07
300.094	-34.13
300.309	-25.94
300.523	-3.41
300.737	21.16
300.952	19.11
301.166	45.74
301.381	58.03
301.595	123.56
301.809	82.6
302.024	53.93
302.238	-66.9
302.452	-1.37
302.667	55.98
302.881	6.83
303.095	21.16
303.309	41.64
303.524	88.75
303.738	-9.56
303.952	-23.89
304.166	80.55
304.381	-27.99
304.595	115.37
304.809	4.78
305.023	19.11
305.237	31.4
305.452	21.16
305.666	49.83
305.88	43.69
306.094	74.41
306.308	86.7
306.522	37.55
306.736	23.21
306.95	8.87
307.164	35.5
307.379	41.64
307.593	4.78
307.807	-7.51
308.021	12.97
308.235	86.7
308.449	88.75
308.663	35.5
308.877	-9.56
309.091	29.35
309.305	-19.8
309.519	-52.56
309.733	101.03
309.947	45.74
310.161	86.7
310.374	-27.99
310.588	47.79
310.802	66.22
311.016	12.97
311.23	58.03
311.444	10.92
311.658	62.12
311.872	70.31
312.085	21.16
312.299	2.73
312.513	66.22
312.727	-25.94
312.941	-36.18
313.154	41.64
313.368	-5.46
313.582	96.94
313.796	-7.51
314.009	33.45
314.223	35.5
314.437	51.88
314.651	35.5
314.864	74.41
315.078	17.07
315.292	-64.85
315.505	15.02
315.719	45.74
315.933	-11.61
316.146	49.83
316.36	12.97
316.573	51.88
316.787	47.79
317.001	-1.37
317.214	6.83
317.428	6.83
317.641	6.83
317.855	49.83
318.068	15.02
318.282	60.07
318.495	78.51
318.709	35.5
318.922	-19.8
319.136	10.92
319.349	-9.56
319.563	17.07
319.776	-64.85
319.99	58.03
320.203	123.56
320.417	-7.51
320.63	0.68
320.843	41.64
321.057	76.46
321.27	23.21
321.483	-40.28
321.697	68.27
321.91	23.21
322.124	12.97
322.337	23.21
322.55	103.08
322.763	17.07
322.977	33.45
323.19	43.69
323.403	53.93
323.617	31.4
323.83	6.83
324.043	10.92
324.256	113.32
324.469	62.12
324.683	55.98
324.896	35.5
325.109	51.88
325.322	-9.56
325.535	25.26
325.748	47.79
325.962	-42.32
326.175	47.79
326.388	10.92
326.601	119.46
326.814	58.03
327.027	-23.89
327.24	60.07
327.453	-9.56
327.666	78.51
327.879	84.65
328.092	12.97
328.305	74.41
328.518	-3.41
328.731	25.26
328.944	2.73
329.157	-7.51
329.37	-11.61
329.583	17.07
329.796	4.78
330.009	8.87
330.222	-1.37
330.435	70.31
330.648	49.83
330.861	29.35
331.073	60.07
331.286	90.79
331.499	-11.61
331.712	6.83
331.925	90.79
332.138	131.75
332.35	49.83
332.563	49.83
332.776	37.55
332.989	-27.99
333.202	0.68
333.414	-19.8
333.627	19.11
333.84	37.55
334.053	49.83
334.265	33.45
334.478	37.55
334.691	68.27
334.903	27.31
335.116	49.83
335.329	33.45
335.541	31.4
335.754	6.83
335.966	49.83
336.179	29.35
336.392	2.73
336.604	53.93
336.817	58.03
337.029	-7.51
337.242	66.22
337.454	-46.42
337.667	-5.46
337.88	45.74
338.092	64.17
338.305	121.51
338.517	-32.08
338.729	60.07
338.942	94.89
339.154	-3.41
339.367	109.22
339.579	53.93
339.792	-5.46
340.004	82.6
340.217	-27.99
340.429	53.93
340.641	0.68
340.854	58.03
341.066	10.92
341.278	41.64
341.491	101.03
341.703	43.69
341.915	-15.7
342.128	-5.46
342.34	25.26
342.552	94.89
342.764	19.11
342.977	-30.04
343.189	-19.8
343.401	10.92
343.613	23.21
343.826	55.98
344.038	-56.66
344.25	17.07
344.462	43.69
344.674	-13.65
344.886	0.68
345.099	41.64
345.311	68.27
345.523	19.11
345.735	68.27
345.947	47.79
346.159	19.11
346.371	17.07
346.583	70.31
346.795	90.79
347.007	58.03
347.219	64.17
347.431	53.93
347.643	21.16
347.855	74.41
348.067	96.94
348.279	19.11
348.491	6.83
348.703	55.98
348.915	58.03
349.127	41.64
349.339	62.12
349.551	49.83
349.763	27.31
349.975	6.83
350.187	10.92
350.399	6.83
350.61	62.12
350.822	66.22
351.034	68.27
351.246	33.45
351.458	113.32
351.669	-13.65
351.881	-13.65
352.093	10.92
352.305	103.08
352.517	8.87
352.728	76.46
352.94	70.31
353.152	-5.46
353.363	33.45
353.575	51.88
353.787	29.35
353.999	6.83
354.21	-7.51
354.422	53.93
354.633	70.31
354.845	29.35
355.057	86.7
355.268	12.97
355.48	82.6
355.692	-1.37
355.903	-17.75
356.115	19.11
356.326	25.26
356.538	62.12
356.749	80.55
356.961	107.18
357.172	51.88
357.384	82.6
357.595	66.22
357.807	-42.32
358.018	31.4
358.23	76.46
358.441	111.27
358.653	41.64
358.864	43.69
359.075	35.5
359.287	92.84
359.498	72.36
359.709	37.55
359.921	70.31
360.132	25.26
360.344	68.27
360.555	8.87
360.766	62.12
360.977	-13.65
361.189	37.55
361.4	51.88
361.611	74.41
361.823	55.98
362.034	70.31
362.245	15.02
362.456	103.08
362.667	70.31
362.879	23.21
363.09	88.75
363.301	-38.23
363.512	74.41
363.723	66.22
363.935	51.88
364.146	41.64
364.357	80.55
364.568	53.93
364.779	-3.41
364.99	31.4
365.201	2.73
365.412	62.12
365.623	25.26
365.834	-1.37
366.045	111.27
366.256	41.64
366.467	72.36
366.678	0.68
366.889	-13.65
367.1	31.4
367.311	64.17
367.522	31.4
367.733	-15.7
367.944	68.27
368.155	45.74
368.366	55.98
368.577	107.18
368.788	80.55
368.999	39.59
369.209	53.93
369.42	92.84
369.631	58.03
369.842	64.17
370.053	-17.75
370.264	55.98
370.474	-11.61
370.685	107.18
370.896	10.92
371.107	62.12
371.317	64.17
371.528	119.46
371.739	119.46
371.95	51.88
372.16	53.93
372.371	41.64
372.582	103.08
372.792	98.99
373.003	25.26
373.214	29.35
373.424	-17.75
373.635	31.4
373.846	76.46
374.056	19.11
374.267	47.79
374.477	23.21
374.688	58.03
374.898	-11.61
375.109	51.88
375.319	51.88
375.53	53.93
375.74	60.07
375.951	37.55
376.161	15.02
376.372	129.7
376.582	35.5
376.793	-38.23
377.003	31.4
377.214	17.07
377.424	88.75
377.635	-25.94
377.845	53.93
378.055	101.03
378.266	62.12
378.476	-58.71
378.686	17.07
378.897	72.36
379.107	82.6
379.317	-15.7
379.528	33.45
379.738	78.51
379.948	41.64
380.158	10.92
380.369	19.11
380.579	90.79
380.789	45.74
380.999	47.79
381.21	45.74
381.42	162.47
381.63	-5.46
381.84	58.03
382.05	64.17
382.261	41.64
382.471	86.7
382.681	41.64
382.891	78.51
383.101	58.03
383.311	4.78
383.521	53.93
383.731	72.36
383.941	51.88
384.151	49.83
384.361	105.13
384.571	103.08
384.781	111.27
384.991	74.41
385.201	66.22
385.411	-25.94
385.621	105.13
385.831	41.64
386.041	8.87
386.251	58.03
386.461	90.79
386.671	4.78
386.881	49.83
387.091	21.16
387.301	76.46
387.511	2.73
387.72	135.85
387.93	60.07
388.14	115.37
388.35	27.31
388.56	45.74
388.769	39.59
388.979	60.07
389.189	78.51
389.399	117.42
389.609	88.75
389.818	39.59
390.028	-19.8
390.238	45.74
390.447	27.31
390.657	193.19
390.867	53.93
391.076	55.98
391.286	76.46
391.496	2.73
391.705	23.21
391.915	109.22
392.125	115.37
392.334	49.83
392.544	105.13
392.753	53.93
392.963	49.83
393.172	96.94
393.382	80.55
393.591	76.46
393.801	8.87
394.01	92.84
394.22	195.24
394.429	72.36
394.639	33.45
394.848	84.65
395.058	78.51
395.267	55.98
395.477	119.46
395.686	115.37
395.895	80.55
396.105	86.7
396.314	62.12
396.524	72.36
396.733	82.6
396.942	103.08
397.152	94.89
397.361	166.57
397.57	60.07
397.78	90.79
397.989	96.94
398.198	121.51
398.407	107.18
398.617	41.64
398.826	96.94
399.035	148.14
399.244	58.03
399.453	135.85
399.663	76.46
399.872	84.65
400.081	-23.89
400.29	113.32
400.499	148.14
400.708	135.85
400.917	25.26
401.127	21.16
401.336	70.31
401.545	94.89
401.754	107.18
401.963	35.5
402.172	152.23
402.381	86.7
402.59	72.36
402.799	90.79
403.008	66.22
403.217	113.32
403.426	72.36
403.635	103.08
403.844	86.7
404.053	123.56
404.262	84.65
404.471	197.29
404.68	127.66
404.888	121.51
405.097	94.89
405.306	146.09
405.515	111.27
405.724	172.71
405.933	148.14
406.142	137.9
406.35	213.67
406.559	209.58
406.768	148.14
406.977	244.39
407.185	133.8
407.394	295.59
407.603	158.38
407.812	168.62
408.02	291.49
408.229	207.53
408.438	223.91
408.646	168.62
408.855	228.01
409.064	260.77
409.272	230.06
409.481	248.49
409.69	225.96
409.898	260.77
410.107	295.59
410.315	244.39
410.524	295.59
410.733	225.96
410.941	283.3
411.15	359.08
411.358	406.18
411.567	314.02
411.775	352.93
411.984	490.15
412.192	400.04
412.401	471.72
412.609	488.1
412.818	457.38
413.026	488.1
413.234	484
413.443	471.72
413.651	496.29
413.86	545.44
414.068	518.82
414.276	582.31
414.485	524.96
414.693	629.41
414.901	627.36
415.11	600.74
415.318	664.22
415.526	635.55
415.734	631.46
415.943	735.9
416.151	750.24
416.359	815.77
416.567	828.06
416.776	793.25
416.984	869.02
417.192	934.56
417.4	928.41
417.608	934.56
417.817	1012.38
418.025	1004.19
418.233	1108.63
418.441	1053.34
418.649	1174.17
418.857	1286.81
419.065	1307.29
419.273	1184.41
419.481	1208.98
419.689	1376.92
419.897	1356.44
420.105	1372.82
420.313	1444.5
420.521	1600.15
420.729	1458.84
420.937	1585.81
421.145	1606.29
421.353	1727.12
421.561	1839.76
421.769	1794.7
421.977	1847.95
422.185	1909.39
422.393	1991.31
422.601	2237.06
422.809	2163.34
423.017	2134.67
423.224	2222.73
423.432	2333.32
423.64	2333.32
423.848	2585.22
424.056	2331.27
424.263	2620.03
424.471	2718.34
424.679	2693.76
424.887	2804.35
425.094	2857.6
425.302	2865.79
425.51	3136.12
425.718	3109.5
425.925	3183.23
426.133	3265.14
426.341	3607.16
426.548	3687.03
426.756	3666.55
426.964	3689.07
427.171	3869.3
427.379	4000.37
427.586	4000.37
427.794	4221.55
428.001	4387.43
428.209	4620.9
428.417	4452.97
428.624	4913.76
428.832	4979.29
429.039	4749.92
429.247	4801.12
429.454	5300.83
429.662	5517.91
429.869	5278.3
430.076	5550.68
430.284	5552.73
430.491	5659.22
430.699	5956.18
430.906	5900.88
431.114	6201.93
431.321	6316.62
431.528	6601.29
431.736	6971.97
431.943	7205.44
432.15	7100.99
432.358	7121.47
432.565	7406.14
432.772	7408.19
432.979	7922.23
433.187	7998
433.394	7944.75
433.601	8352.3
433.808	8550.95
434.016	8567.34
434.223	8874.53
434.43	9220.64
434.637	9198.11
434.844	9808.41
435.052	9943.57
435.259	9929.24
435.466	10039.83
435.673	10170.9
435.88	10787.33
436.087	11022.85
436.294	11153.92
436.501	10844.68
436.708	11248.13
436.915	11448.83
437.122	11801.08
437.329	12007.92
437.537	12290.54
437.743	12448.24
437.95	12431.85
438.157	13087.2
438.364	13568.48
438.571	13355.49
438.778	13656.54
438.985	15034.82
439.192	14248.4
439.399	14715.34
439.606	14125.52
439.813	15313.35
440.02	16259.51
440.227	15765.95
440.433	15780.28
440.64	16288.18
440.847	16210.36
441.054	16320.95
441.261	17510.82
441.467	17228.2
441.674	17848.73
441.881	18276.76
442.088	18592.14
442.294	18323.86
442.501	18794.89
442.708	18911.63
442.914	19718.53
443.121	20425.08
443.328	20148.6
443.534	21389.67
443.741	21039.47
443.948	20752.75
444.154	22296.92
444.361	21686.62
444.568	22200.66
444.774	22167.9
444.981	22264.15
445.187	23112.01
445.394	23955.77
445.6	23513.41
445.807	26085.66
446.013	24824.11
446.22	25270.57
446.426	26200.35
446.633	26730.77
446.839	27410.7
447.046	26153.24
447.252	27715.84
447.459	27631.88
447.665	27848.96
447.871	28991.73
448.078	30286.04
448.284	28729.59
448.491	29591.78
448.697	30847.19
448.903	31158.48
449.11	31006.93
449.316	30630.1
449.522	31338.7
449.728	32098.5
449.935	32354.49
450.141	32221.37
450.347	33235.12
450.553	32037.06
450.76	32735.42
450.966	33718.44
451.172	33239.22
451.378	34066.59
451.584	33347.76
451.791	34236.58
451.997	34250.91
452.203	35137.68
452.409	34427.04
452.615	34547.87
452.821	33435.82
453.027	32706.74
453.233	34670.75
453.44	32962.74
453.646	33734.82
453.852	33872.04
454.058	34384.03
454.264	32929.97
454.47	33718.44
454.676	33130.67
454.882	34359.45
455.088	31262.93
455.294	31992
455.5	32469.18
455.705	32383.16
455.911	31281.36
456.117	30845.14
456.323	30290.14
456.529	28940.53
456.735	30140.64
456.941	29317.36
457.147	28713.2
457.352	28035.33
457.558	27832.58
457.764	27410.7
457.97	26966.29
458.176	26761.49
458.381	26304.79
458.587	25129.26
458.793	25102.64
458.999	23773.5
459.204	25516.33
459.41	24793.39
459.616	23140.68
459.821	23118.15
460.027	23183.69
460.233	22403.41
460.438	21543.27
460.644	21799.26
460.85	20748.65
461.055	20517.23
461.261	20314.48
461.466	18813.32
461.672	18516.37
461.878	19589.5
462.083	17973.66
462.289	17906.07
462.494	17605.02
462.7	17168.8
462.905	16587.18
463.111	17082.79
463.316	17346.98
463.522	16757.16
463.727	16802.22
463.932	16888.23
464.138	16685.48
464.343	16587.18
464.549	16130.48
464.754	16828.84
464.959	16785.83
465.165	16550.32
465.37	16073.14
465.575	15382.98
465.781	15970.74
465.986	16308.66
466.191	15483.33
466.397	15165.89
466.602	14428.62
466.807	14989.77
467.012	15073.73
467.218	15036.87
467.423	14813.64
467.628	14899.66
467.833	15759.8
468.038	14846.41
468.244	14498.25
468.449	15022.53
468.654	14539.21
468.859	14502.35
469.064	14578.12
469.269	13912.53
469.474	13830.62
469.679	14113.24
469.885	13740.5
470.09	13973.97
470.295	13904.34
470.5	13765.08
470.705	13666.78
470.91	13199.84
471.115	13232.61
471.32	13429.21
471.525	12999.14
471.73	13181.41
471.935	13124.07
472.139	12474.86
472.344	12616.17
472.549	12661.23
472.754	12317.17
472.959	12173.81
473.164	12095.99
473.369	11762.17
473.574	12231.15
473.778	12177.9
473.983	11690.49
474.188	11756.02
474.393	11321.85
474.598	11524.6
474.802	11196.93
475.007	11284.99
475.212	11317.76
475.417	10555.91
475.621	10736.13
475.826	10967.56
476.031	10643.98
476.235	10646.02
476.44	10551.82
476.645	10461.71
476.849	10478.09
477.054	10244.62
477.259	10154.51
477.463	10228.24
477.668	9669.14
477.872	9966.1
478.077	9800.21
478.282	9650.71
478.486	9464.35
478.691	9425.43
478.895	9329.18
479.1	9304.6
479.304	9185.82
479.509	9208.35
479.713	9323.04
479.918	9222.69
480.122	9026.08
480.326	8976.93
480.531	9239.07
480.735	8925.73
480.94	8774.18
481.144	9460.25
481.348	8837.67
481.553	9060.9
481.757	8614.44
481.961	8765.99
482.166	9017.89
482.37	8825.38
482.574	8718.89
482.778	8682.02
482.983	8901.15
483.187	8778.28
483.391	8727.08
483.595	8745.51
483.8	8491.56
484.004	8561.19
484.208	8792.61
484.412	8714.79
484.616	8737.32
484.821	8702.5
485.025	8479.27
485.229	8765.99
485.433	8784.42
485.637	8837.67
485.841	8540.71
486.045	8573.48
486.249	8698.41
486.453	8450.6
486.657	8573.48
486.861	8745.51
487.065	8598.06
487.269	8565.29
487.473	8432.17
487.677	8667.69
487.881	8653.35
488.085	8538.66
488.289	8854.05
488.493	8675.88
488.697	8690.21
488.901	8663.59
489.105	8792.61
489.309	8706.6
489.512	8690.21
489.716	8792.61
489.92	8786.47
490.124	8636.97
490.328	8831.52
490.531	8536.62
490.735	8847.91
490.939	9015.84
491.143	8868.39
491.346	8794.66
491.55	9185.82
491.754	9083.42
491.958	8989.22
492.161	9181.73
492.365	9161.25
492.569	9153.06
492.772	9011.75
492.976	9171.49
493.18	9370.14
493.383	9226.78
493.587	9355.8
493.79	9325.08
493.994	9407
494.197	9482.78
494.401	9562.65
494.605	9617.94
494.808	9701.91
495.012	9810.45
495.215	9859.6
495.419	9814.55
495.622	9730.58
495.825	10007.06
496.029	9957.91
496.232	10424.84
496.436	10232.33
496.639	10336.78
496.843	10310.16
497.046	10549.77
497.249	10545.67
497.453	10703.37
497.656	10959.36
497.859	10777.09
498.063	10979.84
498.266	11317.76
498.469	11080.19
498.673	11213.31
498.876	11575.8
499.079	11342.33
499.282	11483.64
499.485	11747.83
499.689	11966.96
499.892	11993.59
500.095	11903.48
500.298	12114.42
500.501	12487.15
500.705	12636.65
500.908	12532.2
501.111	12794.34
501.314	12952.04
501.517	13277.66
501.72	13468.13
501.923	13089.25
502.126	13529.56
502.329	13656.54
502.532	13615.58
502.735	13756.89
502.938	14035.41
503.141	14303.7
503.344	14383.57
503.547	14447.05
503.75	14731.72
503.953	14864.84
504.156	15102.4
504.359	15231.43
504.562	15215.04
504.765	15413.7
504.968	15780.28
505.17	15747.51
505.373	15976.89
505.576	16239.03
505.779	16357.81
505.982	16351.67
506.185	16624.04
506.387	16875.95
506.59	16722.35
506.793	17385.89
506.996	17193.38
507.198	17699.23
507.401	17414.56
507.604	17826.2
507.807	18135.45
508.009	18168.21
508.212	18397.59
508.415	18532.75
508.617	18770.32
508.82	18647.44
509.022	18762.12
509.225	19265.92
509.428	19454.34
509.63	19485.06
509.833	19810.68
510.035	20324.72
510.238	19927.42
510.44	20431.22
510.643	20355.44
510.845	20799.85
511.048	20586.86
511.25	21174.63
511.453	21176.68
511.655	21877.08
511.858	21520.74
512.06	21799.26
512.262	21879.13
512.465	22079.83
512.667	22597.97
512.87	22851.92
513.072	22606.16
513.274	23251.27
513.477	23083.34
513.679	23656.77
513.881	23970.11
514.084	23660.87
514.286	24064.32
514.488	24170.81
514.69	24652.08
514.893	24662.32
515.095	25053.48
515.297	25104.68
515.499	25231.66
515.701	25485.61
515.904	26022.17
516.106	26218.78
516.308	26280.22
516.51	26460.44
516.712	26444.06
516.914	26863.89
517.116	27232.52
517.318	27509
517.52	27777.28
517.722	27511.05
517.925	28008.7
518.127	28324.09
518.329	28707.06
518.531	28297.47
518.733	29063.41
518.935	29309.16
519.136	29364.46
519.338	29755.62
519.54	29710.57
519.742	30322.91
519.944	30048.48
520.146	30916.82
520.348	31090.9
520.55	31162.58
520.752	31437
520.954	31496.39
521.155	31516.87
521.357	31975.62
521.559	32463.04
521.761	32684.22
521.963	32526.52
522.164	32864.44
522.366	32694.46
522.568	33235.12
522.77	33407.15
522.971	34058.4
523.173	33652.91
523.375	34097.31
523.576	33853.61
523.778	34093.22
523.98	34566.3
524.181	35078.29
524.383	35158.16
524.584	35008.66
524.786	35012.76
524.988	35473.55
525.189	35735.69
525.391	36071.56
525.592	36276.35
525.794	36485.25
525.995	36276.35
526.197	36528.25
526.398	36587.64
526.6	36872.31
526.801	36841.59
527.003	37415.02
527.204	36808.82
527.406	37283.95
527.607	37224.56
527.808	37757.03
528.01	36896.89
528.211	37564.53
528.412	38408.29
528.614	38318.18
528.815	38053.99
529.016	38381.66
529.218	38086.76
529.419	38037.61
529.62	38303.84
529.822	38508.64
530.023	38508.64
530.224	38838.36
530.425	38791.26
530.626	38410.34
530.828	38150.24
531.029	39032.92
531.23	38961.24
531.431	38713.44
531.632	39073.88
531.833	39239.76
532.035	38864.99
532.236	39114.84
532.437	39632.97
532.638	39055.45
532.839	39512.14
533.04	39880.78
533.241	39016.54
533.442	40263.75
533.643	39620.69
533.844	39653.45
534.045	39974.98
534.246	39108.69
534.447	40147.01
534.648	39557.2
534.849	39800.91
535.05	39362.64
535.251	39598.16
535.451	40017.99
535.652	39899.21
535.853	39837.77
536.054	39882.83
536.255	39891.02
536.456	39635.02
536.657	40441.92
536.857	39845.96
537.058	39997.51
537.259	40050.76
537.46	39780.43
537.66	39559.25
537.861	39616.59
538.062	39745.61
538.263	40265.8
538.463	39635.02
538.664	39651.41
538.865	39493.71
539.065	40005.7
539.266	39483.47
539.466	39831.63
539.667	39475.28
539.868	40212.55
540.068	39602.25
540.269	39942.22
540.469	39809.1
540.67	39589.97
540.87	40226.88
541.071	39694.41
541.271	40298.56
541.472	39788.62
541.672	39325.78
541.873	39266.39
542.073	39686.22
542.274	39481.42
542.474	39671.89
542.675	39227.48
542.875	39989.32
543.075	39657.55
543.276	38944.86
543.476	40083.53
543.676	39641.17
543.877	39557.2
544.077	39936.07
544.277	39706.7
544.478	39706.7
544.678	39604.3
544.878	39526.48
545.078	39557.2
545.279	39549.01
545.479	39520.34
545.679	39489.62
545.879	39602.25
546.079	39495.76
546.28	39274.58
546.48	39364.69
546.68	39700.56
546.88	39936.07
547.08	39755.85
547.28	39802.96
547.48	39364.69
547.68	39770.19
547.88	39321.68
548.081	39839.82
548.281	39135.32
548.481	39403.6
548.681	39346.26
548.881	39471.18
549.081	39317.59
549.28	39032.92
549.48	39698.51
549.68	38938.71
549.88	39467.09
550.08	39075.93
550.28	39376.98
550.48	39135.32
550.68	39651.41
550.88	39297.11
551.08	39262.29
551.279	39483.47
551.479	39452.75
551.679	39084.12
551.879	39047.25
552.079	39270.48
552.278	38946.9
552.478	39145.56
552.678	38846.55
552.878	39438.42
553.077	39055.45
553.277	38883.42
553.477	39557.2
553.676	38848.6
553.876	39196.76
554.076	39071.83
554.275	38719.58
554.475	38391.9
554.674	39200.85
554.874	38807.64
555.074	38647.9
555.273	38961.24
555.473	39151.7
555.672	38840.41
555.872	38393.95
556.071	38645.85
556.271	38817.88
556.47	38420.58
556.67	38434.91
556.869	38221.92
557.068	38654.04
557.268	37914.73
557.467	38307.94
557.667	38226.02
557.866	38097
558.065	38465.63
558.265	37859.43
558.464	37904.49
558.663	38482.02
558.863	37810.28
559.062	38103.14
559.261	37658.73
559.461	38332.51
559.66	37570.67
559.859	37980.26
560.058	37681.26
560.258	37316.72
560.457	37415.02
560.656	38076.52
560.855	37474.41
561.054	37681.26
561.253	37329.01
561.453	37582.96
561.652	37515.37
561.851	37505.13
562.05	37462.13
562.249	36898.94
562.448	37644.4
562.647	37122.16
562.846	37132.4
563.045	37263.47
563.244	36409.47
563.443	37283.95
563.642	36262.02
563.841	37195.89
564.04	36505.73
564.239	36657.28
564.438	36327.55
564.637	36341.89
564.836	36442.24
565.035	35715.21
565.234	36219.01
565.432	36393.09
565.631	36112.52
565.83	35944.58
566.029	35823.75
566.228	36147.33
566.427	35776.65
566.625	35600.52
566.824	35195.03
567.023	35696.78
567.222	35090.58
567.42	35231.89
567.619	35156.11
567.818	35471.5
568.016	35143.83
568.215	35326.1
568.414	35023
568.612	35412.11
568.811	35084.44
569.01	35133.59
569.208	34328.73
569.407	34943.13
569.605	34146.47
569.804	34986.13
570.002	34087.07
570.201	34599.07
570.4	34003.11
570.598	33853.61
570.797	33753.26
570.995	34005.16
571.193	33804.45
571.392	34117.79
571.59	33730.73
571.789	33908.9
571.987	33562.79
572.186	33497.26
572.384	33269.93
572.582	33484.97
572.781	33478.83
572.979	32927.92
573.177	33097.91
573.376	33480.88
573.574	32645.3
573.772	32970.93
573.971	32428.22
574.169	32680.12
574.367	32590.01
574.565	32753.85
574.763	32078.02
574.962	32590.01
575.16	32131.26
575.358	32438.46
575.556	32250.05
575.754	32489.66
575.952	31772.87
576.151	32465.08
576.349	31529.16
576.547	31985.86
576.745	31582.41
576.943	31791.3
577.141	31910.08
577.339	31787.21
577.537	31676.62
577.735	31367.37
577.933	31320.27
578.131	31234.25
578.329	31320.27
578.527	30890.2
578.725	30959.83
578.923	30961.87
579.121	30652.63
579.319	30607.58
579.516	30853.33
579.714	30619.86
579.912	30658.77
580.11	30558.42
580.308	30382.3
580.506	30628.06
580.704	29970.66
580.901	30177.5
581.099	30462.17
581.297	29706.47
581.495	29812.96
581.692	29892.83
581.89	29702.37
582.088	29997.28
582.285	29249.77
582.483	29802.72
582.681	29778.15
582.878	29444.33
583.076	28887.28
583.274	29323.5
583.471	29178.09
583.669	29202.67
583.866	28958.96
584.064	29049.07
584.262	28725.49
584.459	28829.94
584.657	28750.07
584.854	29006.06
585.052	28578.04
585.249	28619
585.447	28901.62
585.644	28145.92
585.841	28635.38
586.039	28700.92
586.236	28051.71
586.434	27810.05
586.631	27951.36
586.828	28055.81
587.026	27889.92
587.223	27730.18
587.42	27605.25
587.618	28061.95
587.815	27447.56
588.012	27478.28
588.21	27379.98
588.407	27519.24
588.604	27210
588.801	27097.36
588.999	26945.81
589.196	27269.39
589.393	27117.84
589.59	26925.33
589.787	27095.31
589.984	26837.27
590.182	26581.27
590.379	26827.03
590.576	26300.7
590.773	26335.51
590.97	26190.11
591.167	26695.96
591.364	25934.11
591.561	25997.6
591.758	25901.34
591.955	25917.73
592.152	26267.93
592.349	25645.35
592.546	25786.66
592.743	25819.42
592.94	25332.01
593.137	25452.84
593.334	25606.44
593.531	25321.77
593.727	25379.11
593.924	25481.51
594.121	25235.75
594.318	25260.33
594.515	24664.37
594.712	25014.57
594.908	25018.67
595.105	24518.96
595.302	24848.69
595.499	24719.67
595.696	24734
595.892	24561.97
596.089	24750.38
596.286	24641.84
596.482	24396.09
596.679	24475.96
596.876	24365.37
597.072	24181.05
597.269	24181.05
597.466	23978.3
597.662	24068.41
597.859	24097.08
598.055	24209.72
598.252	23839.04
598.448	23460.16
598.645	23540.04
598.841	23404.87
599.038	23359.81
599.234	23470.4
599.431	23103.82
599.627	23097.67
599.824	23157.07
600.02	23224.65
600.217	23193.93
600.413	23185.74
600.609	22925.64
600.806	23058.76
601.002	22790.48
601.198	22645.07
601.395	22759.76
601.591	22565.2
601.787	22804.81
601.984	22542.67
602.18	22473.04
602.376	22331.73
602.572	22079.83
602.769	21948.76
602.965	22206.81
603.161	22221.14
603.357	21907.8
603.553	22049.11
603.75	22096.22
603.946	21635.42
604.142	21838.17
604.338	21662.05
604.534	21922.14
604.73	21629.28
604.926	21352.8
605.122	21647.71
605.318	21432.68
605.514	21178.73
605.71	21258.6
605.906	21102.95
606.102	20984.17
606.298	21231.97
606.494	20928.88
606.69	21186.92
606.886	21059.95
607.082	20816.24
607.278	20853.1
607.474	20875.63
607.67	20633.97
607.866	20679.02
608.062	20687.22
608.257	20576.62
608.453	20486.51
608.649	20621.68
608.845	20425.08
609.041	20402.55
609.236	20472.18
609.432	20253.05
609.628	20332.92
609.824	20095.35
610.019	19988.86
610.215	20361.59
610.411	20154.74
610.606	20078.97
610.802	20177.27
610.998	20058.49
611.193	20003.19
611.389	20025.72
611.584	19855.74
611.78	19917.18
611.976	19808.64
612.171	19771.77
612.367	19612.03
612.562	19765.63
612.758	19411.33
612.953	19505.54
613.149	19739.01
613.344	19407.23
613.539	19906.94
613.735	19595.65
613.93	19532.16
614.126	19403.14
614.321	19489.15
614.517	19163.53
614.712	19257.73
614.907	19208.58
615.103	19380.61
615.298	19177.86
615.493	19370.37
615.688	19097.99
615.884	19177.86
616.079	18827.66
616.274	19274.12
616.47	18975.11
616.665	18966.92
616.86	18788.75
617.055	19036.55
617.25	18526.61
617.445	18956.68
617.641	18868.62
617.836	18698.64
618.031	18469.26
618.226	18821.52
618.421	18364.82
618.616	18692.49
618.811	17990.04
619.006	18436.5
619.201	18164.12
619.396	18391.44
619.591	17973.66
619.786	18035.1
619.981	18012.57
620.176	17959.32
620.371	17838.49
620.566	18086.29
620.761	17643.93
620.956	17762.72
621.151	17336.74
621.346	17779.1
621.541	17267.11
621.735	17414.56
621.93	17209.76
622.125	17414.56
622.32	17090.98
622.515	17115.56
622.709	16730.54
622.904	16957.86
623.099	16697.77
623.294	16988.58
623.488	16476.59
623.683	16773.55
623.878	16388.53
624.072	16433.58
624.267	16247.22
624.462	16124.34
624.656	16054.71
624.851	16134.58
625.046	16052.66
625.24	16013.75
625.435	15456.7
625.629	15700.41
625.824	15550.91
626.018	15651.26
626.213	15145.41
626.407	15358.4
626.602	14920.14
626.796	15290.82
626.991	15262.15
627.185	14985.67
627.38	14897.61
627.574	14918.09
627.768	14879.18
627.963	14854.6
628.157	14453.2
628.352	14696.91
628.546	14287.31
628.74	14561.74
628.935	14219.73
629.129	14217.68
629.323	14076.37
629.517	14053.84
629.712	13939.16
629.906	14189.01
630.1	13685.21
630.294	13912.53
630.489	13763.03
630.683	13740.5
630.877	13230.56
631.071	13478.36
631.265	13672.92
631.459	13486.56
631.653	13173.22
631.848	13310.43
632.042	13119.97
632.236	13240.8
632.43	13095.39
632.624	12954.08
632.818	12630.51
633.012	12853.73
633.206	12818.92
633.4	13068.77
633.594	12603.88
633.788	12556.78
633.982	12583.4
634.176	12575.21
634.369	12511.72
634.563	12300.78
634.757	12282.35
634.951	12231.15
635.145	12110.32
635.339	12122.61
635.533	12177.9
635.726	11866.61
635.92	11731.45
636.114	11893.24
636.308	11766.26
636.501	11635.19
636.695	11655.67
636.889	11602.43
637.083	11516.41
637.276	11379.2
637.47	11371.01
637.664	11215.36
637.857	11411.96
638.051	11213.31
638.244	11078.15
638.438	11198.98
638.632	11106.82
638.825	11090.43
639.019	10994.18
639.212	10910.21
639.406	10781.19
639.599	10781.19
639.793	10713.61
639.986	10465.8
640.18	10603.02
640.373	10699.27
640.567	10428.94
640.76	10580.49
640.954	10410.51
641.147	10387.98
641.34	10291.73
641.534	10326.54
641.727	10295.82
641.92	10252.81
642.114	9984.53
642.307	10037.78
642.5	10052.11
642.694	9761.3
642.887	10007.06
643.08	10066.45
643.273	9843.22
643.467	9675.29
643.66	9703.96
643.853	9701.91
644.046	9685.53
644.239	9484.83
644.432	9441.82
644.626	9345.56
644.819	9517.59
645.012	9460.25
645.205	9224.73
645.398	9183.77
645.591	9296.41
645.784	9177.63
645.977	9097.76
646.17	9298.46
646.363	8987.17
646.556	8821.28
646.749	9017.89
646.942	9038.37
647.135	8630.82
647.328	8755.75
647.521	8639.01
647.714	8411.69
647.907	8774.18
648.099	8620.58
648.292	8682.02
648.485	8452.65
648.678	8380.97
648.871	8362.54
649.064	8360.49
649.256	8319.53
649.449	8290.86
649.642	8231.47
649.835	8165.93
650.027	8182.32
650.22	8057.39
650.413	8137.26
650.605	8202.8
650.798	7952.95
650.991	7701.05
651.183	7873.07
651.376	7936.56
651.568	7860.79
651.761	7717.43
651.954	7825.97
652.146	7713.33
652.339	7717.43
652.531	7574.07
652.724	7629.37
652.916	7453.24
653.109	7752.24
653.301	7504.44
653.494	7467.58
653.686	7412.28
653.879	7279.16
654.071	7264.83
654.263	7344.7
654.456	7209.53
654.648	7369.27
654.84	7164.48
655.033	7215.68
655.225	6986.3
655.417	6881.86
655.61	7037.5
655.802	6976.06
655.994	6783.56
656.186	6957.63
656.379	6941.25
656.571	6931.01
656.763	6744.64
656.955	6873.67
657.148	6765.12
657.34	6795.84
657.532	6740.55
657.724	6509.13
657.916	6550.09
658.108	6672.96
658.3	6605.38
658.492	6390.35
658.684	6435.4
658.876	6517.32
659.068	6527.56
659.26	6242.89
659.452	6431.3
659.644	6294.09
659.836	6152.78
660.028	6277.71
660.22	6124.11
660.412	6275.66
660.604	6138.44
660.796	6050.38
660.988	6134.35
661.18	6095.44
661.372	5888.59
661.563	6003.28
661.755	6017.61
661.947	5937.74
662.139	6079.05
662.331	5898.83
662.522	5874.26
662.714	5810.77
662.906	5802.58
663.097	5796.43
663.289	5823.06
663.481	5694.04
663.673	5816.91
663.864	5669.46
664.056	5556.82
664.247	5782.1
664.439	5493.33
664.631	5591.64
664.822	5536.34
665.014	5530.2
665.205	5493.33
665.397	5485.14
665.588	5522.01
665.78	5317.21
665.971	5372.5
666.163	5483.09
666.354	5259.87
666.546	5218.91
666.737	5206.62
666.929	5173.85
667.12	5104.22
667.311	5223
667.503	5157.47
667.694	5122.65
667.885	4940.38
668.077	5161.56
668.268	5124.7
668.459	5124.7
668.651	5038.69
668.842	5098.08
669.033	4928.1
669.224	4862.56
669.416	4878.94
669.607	4893.28
669.798	4844.13
669.989	4883.04
670.18	4897.38
670.371	4729.44
670.563	4776.55
670.754	4837.98
670.945	4829.79
671.136	4690.53
671.327	4745.83
671.518	4627.04
671.709	4768.35
671.9	4704.87
672.091	4620.9
672.282	4635.24
672.473	4700.77
672.664	4530.79
672.855	4522.6
673.046	4553.32
673.237	4581.99
673.428	4528.74
673.619	4563.56
673.809	4502.12
674	4504.17
674.191	4465.25
674.382	4444.77
674.573	4481.64
674.764	4516.45
674.954	4282.99
675.145	4272.75
675.336	4199.02
675.527	4344.42
675.717	4358.76
675.908	4416.1
676.099	4309.61
676.289	4242.03
676.48	4321.9
676.671	4285.03
676.861	4330.09
677.052	4254.31
677.243	4364.9
677.433	4162.16
677.624	4149.87
677.814	4014.7
678.005	4145.77
678.195	4248.17
678.386	4250.22
678.576	4147.82
678.767	4123.24
678.957	4207.21
679.148	4113
679.338	4153.96
679.529	4133.48
679.719	3988.08
679.909	4147.82
680.1	4088.43
680.29	4065.9
680.481	4117.1
680.671	3928.69
680.861	3953.26
681.052	4070
681.242	4031.09
681.432	4020.85
681.622	3990.13
681.813	3930.73
682.003	3836.53
682.193	3971.69
682.383	4037.23
682.573	3897.97
682.764	3803.76
682.954	3940.97
683.144	4024.94
683.334	3936.88
683.524	3881.58
683.714	3867.25
683.904	3963.5
684.094	3891.82
684.284	3842.67
684.474	3895.92
684.664	3844.72
684.854	3781.23
685.044	3693.17
685.234	3654.26
685.424	3793.52
685.614	3658.35
685.804	3703.41
685.994	3689.07
686.184	3676.79
686.374	3691.12
686.564	3637.88
686.753	3613.3
686.943	3582.58
687.133	3613.3
687.323	3625.59
687.513	3574.39
687.702	3539.57
687.892	3553.91
688.082	3373.69
688.272	3484.28
688.461	3459.7
688.651	3502.71
688.841	3357.3
689.03	3453.56
689.22	3467.89
689.41	3486.33
689.599	3467.89
689.789	3508.85
689.979	3279.48
690.168	3435.13
690.358	3291.77
690.547	3283.58
690.737	3347.06
690.926	3187.32
691.116	3277.43
691.305	3371.64
691.495	3142.27
691.684	3152.51
691.874	3213.95
692.063	3037.82
692.252	3199.61
692.442	3377.78
692.631	3091.07
692.82	3181.18
693.01	3156.6
693.199	3207.8
693.388	3111.55
693.578	3113.6
693.767	2994.81
693.956	2962.05
694.146	3078.78
694.335	3019.39
694.524	3089.02
694.713	3117.69
694.902	3000.96
695.092	3003
695.281	2978.43
695.47	2822.78
695.659	2957.95
695.848	2964.09
696.037	3025.53
696.226	2943.61
696.415	2902.65
696.604	3050.11
696.793	2912.89
696.982	2966.14
697.171	2916.99
697.36	2906.75
697.549	2929.28
697.738	2878.08
697.927	2828.93
698.116	2927.23
698.305	2726.53
698.494	2912.89
698.683	2937.47
698.872	2857.6
699.061	2790.02
699.25	2808.45
699.438	2808.45
699.627	2843.26
699.816	2890.37
700.005	2794.11
700.193	2835.07
700.382	2847.36
700.571	2747.01
700.76	2810.5
700.948	2941.57
701.137	2742.91
701.326	2744.96
701.514	2740.86
701.703	2878.08
701.892	2718.34
702.08	2847.36
702.269	2785.92
702.457	2781.82
702.646	2783.87
702.834	2747.01
703.023	2845.31
703.212	2845.31
703.4	2714.24
703.589	2890.37
703.777	2785.92
703.965	2820.74
704.154	2761.34
704.342	2706.05
704.531	2841.22
704.719	2683.52
704.907	2841.22
705.096	2699.91
705.284	2622.08
705.472	2761.34
705.661	2790.02
705.849	2769.54
706.037	2744.96
706.226	2620.03
706.414	2663.04
706.602	2804.35
706.79	2685.57
706.979	2704
707.167	2755.2
707.355	2904.7
707.543	2765.44
707.731	2667.14
707.919	2828.93
708.107	2753.15
708.296	2722.43
708.484	2699.91
708.672	2699.91
708.86	2677.38
709.048	2634.37
709.236	2693.76
709.424	2710.15
709.612	2781.82
709.8	2742.91
709.988	2744.96
710.176	2630.27
710.364	2794.11
710.551	2724.48
710.739	2730.62
710.927	2802.3
711.115	2822.78
711.303	2599.55
711.491	2687.62
711.679	2683.52
711.866	2751.1
712.054	2695.81
712.242	2595.46
712.43	2722.43
712.617	2560.64
712.805	2734.72
712.993	2654.85
713.181	2550.4
713.368	2704
713.556	2730.62
713.744	2579.08
713.931	2693.76
714.119	2638.47
714.306	2583.17
714.494	2585.22
714.682	2507.4
714.869	2605.7
715.057	2636.42
715.244	2572.93
715.432	2615.94
715.619	2769.54
715.807	2687.62
715.994	2617.99
716.182	2609.79
716.369	2669.19
716.556	2677.38
716.744	2706.05
716.931	2626.18
717.119	2683.52
717.306	2673.28
717.493	2722.43
717.681	2673.28
717.868	2710.15
718.055	2695.81
718.242	2640.51
718.43	2785.92
718.617	2673.28
718.804	2818.69
718.991	2617.99
719.179	2609.79
719.366	2472.58
719.553	2677.38
719.74	2628.23
719.927	2687.62
720.114	2687.62
720.301	2636.42
720.488	2601.6
720.676	2683.52
720.863	2458.25
721.05	2673.28
721.237	2566.79
721.424	2730.62
721.611	2656.9
721.798	2656.9
721.985	2617.99
722.172	2607.75
722.358	2642.56
722.545	2695.81
722.732	2609.79
722.919	2665.09
723.106	2550.4
723.293	2597.51
723.48	2515.59
723.667	2562.69
723.853	2581.12
724.04	2787.97
724.227	2579.08
724.414	2658.95
724.6	2583.17
724.787	2679.43
724.974	2747.01
725.161	2675.33
725.347	2652.8
725.534	2685.57
725.72	2833.02
725.907	2634.37
726.094	2595.46
726.28	2587.27
726.467	2646.66
726.653	2646.66
726.84	2679.43
727.027	2800.26
727.213	2654.85
727.4	2640.51
727.586	2732.67
727.773	2658.95
727.959	2691.71
728.145	2646.66
728.332	2601.6
728.518	2587.27
728.705	2617.99
728.891	2609.79
729.077	2704
729.264	2609.79
729.45	2613.89
729.636	2531.97
729.823	2691.71
730.009	2683.52
730.195	2771.58
730.382	2536.07
730.568	2663.04
730.754	2650.75
730.94	2615.94
731.126	2613.89
731.313	2734.72
731.499	2656.9
731.685	2675.33
731.871	2701.95
732.057	2781.82
732.243	2724.48
732.429	2693.76
732.615	2763.39
732.801	2654.85
732.987	2716.29
733.173	2693.76
733.359	2644.61
733.545	2724.48
733.731	2708.1
733.917	2617.99
734.103	2740.86
734.289	2677.38
734.475	2534.02
734.661	2781.82
734.847	2765.44
735.033	2593.41
735.219	2677.38
735.404	2738.82
735.59	2669.19
735.776	2599.55
735.962	2697.86
736.148	2816.64
736.333	2751.1
736.519	2556.55
736.705	2601.6
736.89	2515.59
737.076	2581.12
737.262	2685.57
737.447	2734.72
737.633	2603.65
737.819	2540.16
738.004	2620.03
738.19	2577.03
738.375	2589.32
738.561	2747.01
738.747	2605.7
738.932	2665.09
739.118	2527.88
739.303	2591.36
739.489	2405
739.674	2611.84
739.859	2531.97
740.045	2562.69
740.23	2589.32
740.416	2620.03
740.601	2630.27
740.786	2564.74
740.972	2488.96
741.157	2626.18
741.342	2554.5
741.528	2474.63
741.713	2499.2
741.898	2603.65
742.084	2486.92
742.269	2431.62
742.454	2536.07
742.639	2519.68
742.824	2478.72
743.01	2478.72
743.195	2605.7
743.38	2480.77
743.565	2378.37
743.75	2405
743.935	2353.8
744.12	2521.73
744.305	2335.37
744.49	2392.71
744.675	2476.68
744.86	2318.98
745.045	2361.99
745.23	2355.85
745.415	2388.61
745.6	2314.89
745.785	2359.94
745.97	2411.14
746.155	2304.65
746.34	2286.22
746.525	2361.99
746.71	2275.98
746.895	2220.68
747.079	2296.46
747.264	2308.74
747.449	2185.87
747.634	2314.89
747.819	2312.84
748.003	2118.28
748.188	2214.54
748.373	2095.75
748.557	2310.79
748.742	2282.12
748.927	2159.24
749.111	2042.51
749.296	2134.67
749.481	2138.76
749.665	1890.96
749.85	2085.51
750.034	2110.09
750.219	2007.69
750.404	2019.98
750.588	2101.9
750.773	1983.12
750.957	2067.08
751.141	1952.4
751.326	2032.27
751.51	1946.25
751.695	1864.33
751.879	1852.05
752.064	1991.31
752.248	1843.85
752.432	1893.01
752.617	1942.16
752.801	1915.53
752.985	1827.47
753.17	1837.71
753.354	1847.95
753.538	1831.57
753.722	1835.66
753.907	1811.09
754.091	1774.22
754.275	1829.52
754.459	1784.46
754.643	1669.78
754.828	1788.56
755.012	1751.7
755.196	1708.69
755.38	1712.78
755.564	1651.35
755.748	1618.58
755.932	1589.91
756.116	1618.58
756.3	1714.83
756.484	1620.63
756.668	1659.54
756.852	1538.71
757.036	1663.63
757.22	1594
757.404	1643.15
757.588	1653.39
757.772	1579.67
757.956	1565.33
758.14	1481.36
758.323	1405.59
758.507	1473.17
758.691	1499.8
758.875	1417.88
759.059	1536.66
759.242	1471.12
759.426	1501.84
759.61	1417.88
759.794	1462.93
759.977	1444.5
760.161	1485.46
760.345	1467.03
760.528	1444.5
760.712	1352.34
760.895	1393.3
761.079	1374.87
761.263	1383.06
761.446	1376.92
761.63	1391.25
761.813	1432.21
761.997	1413.78
762.18	1364.63
762.364	1297.05
762.547	1309.33
762.731	1278.62
762.914	1407.64
763.098	1399.45
763.281	1245.85
763.464	1292.95
763.648	1247.9
763.831	1319.57
764.015	1258.14
764.198	1282.71
764.381	1282.71
764.564	1297.05
764.748	1278.62
764.931	1309.33
765.114	1194.65
765.297	1254.04
765.481	1241.75
765.664	1159.83
765.847	1270.42
766.03	1225.37
766.213	1200.79
766.397	1180.31
766.58	1125.02
766.763	1254.04
766.946	1192.6
767.129	1211.03
767.312	1112.73
767.495	1159.83
767.678	1188.5
767.861	1159.83
768.044	1151.64
768.227	1217.18
768.41	996
768.593	1135.26
768.776	1139.35
768.959	1051.29
769.142	1049.24
769.324	1149.59
769.507	1079.96
769.69	1022.62
769.873	1016.48
770.056	1131.16
770.239	1133.21
770.421	1120.92
770.604	1084.06
770.787	938.65
770.97	1047.19
771.152	1036.95
771.335	1108.63
771.518	1010.33
771.7	1008.28
771.883	1088.15
772.066	993.95
772.248	1041.05
772.431	1041.05
772.613	1094.3
772.796	1000.09
772.978	1022.62
773.161	998.04
773.343	936.6
773.526	864.93
773.708	938.65
773.891	940.7
774.073	955.04
774.256	989.85
774.438	889.5
774.621	912.03
774.803	1022.62
774.985	828.06
775.168	963.23
775.35	901.79
775.532	936.6
775.715	897.69
775.897	817.82
776.079	909.98
776.261	819.87
776.444	823.97
776.626	885.41
776.808	869.02
776.99	801.44
777.173	836.25
777.355	887.45
777.537	813.73
777.719	785.05
777.901	793.25
778.083	778.91
778.265	733.86
778.447	877.21
778.629	764.57
778.811	848.54
778.993	711.33
779.175	703.14
779.357	746.14
779.539	705.18
779.721	737.95
779.903	725.66
780.085	766.62
780.267	668.32
780.449	688.8
780.631	690.85
780.812	699.04
780.994	707.23
781.176	678.56
781.358	613.03
781.54	676.51
781.721	649.89
781.903	703.14
782.085	613.03
782.267	633.5
782.448	672.42
782.63	686.75
782.812	666.27
782.993	641.7
783.175	651.94
783.357	586.4
783.538	735.9
783.72	590.5
783.901	623.27
784.083	670.37
784.264	549.54
784.446	592.55
784.627	641.7
784.809	594.59
784.99	572.07
785.172	594.59
785.353	582.31
785.535	602.79
785.716	590.5
785.897	600.74
786.079	586.4
786.26	443.04
786.441	500.39
786.623	457.38
786.804	533.15
786.985	461.48
787.167	504.48
787.348	539.3
787.529	477.86
787.71	590.5
787.891	490.15
788.073	430.76
788.254	494.24
788.435	516.77
788.616	467.62
788.797	461.48
788.978	443.04
789.159	418.47
789.34	475.81
789.522	424.61
789.703	397.99
789.884	422.56
790.065	449.19
790.246	434.85
790.427	459.43
790.607	463.52
790.788	414.37
790.969	453.28
791.15	445.09
791.331	428.71
791.512	441
791.693	379.56
791.874	320.17
792.054	410.28
792.235	479.91
792.416	408.23
792.597	369.32
792.778	361.13
792.958	283.3
793.139	422.56
793.32	365.22
793.5	383.65
793.681	424.61
793.862	381.6
794.042	373.41
794.223	295.59
794.404	344.74
794.584	295.59
794.765	330.41
794.945	299.69
795.126	340.65
795.306	453.28
795.487	373.41
795.667	301.73
795.848	371.36
796.028	352.93
796.209	342.69
796.389	324.26
796.57	354.98
796.75	287.4
796.93	350.89
797.111	357.03
797.291	393.89
797.471	336.55
797.652	371.36
797.832	295.59
798.012	365.22
798.192	379.56
798.373	328.36
798.553	336.55
798.733	344.74
798.913	314.02
799.093	283.3
799.274	307.88
799.454	352.93
799.634	324.26
799.814	311.97
799.994	260.77
800.174	291.49
800.354	330.41
800.534	252.58
800.714	385.7
800.894	303.78
801.074	271.01
801.254	379.56
801.434	293.54
801.614	242.34
801.794	303.78
801.974	709.28
802.154	332.45
802.334	277.16
802.514	279.21
802.693	275.11
802.873	266.92
803.053	320.17
803.233	252.58
803.413	336.55
803.592	293.54
803.772	273.06
803.952	279.21
804.131	221.86
804.311	209.58
804.491	291.49
804.67	238.25
804.85	303.78
805.03	279.21
805.209	260.77
805.389	238.25
805.568	273.06
805.748	195.24
805.928	303.78
806.107	279.21
806.287	234.15
806.466	236.2
806.646	203.43
806.825	166.57
807.004	195.24
807.184	314.02
807.363	248.49
807.543	152.23
807.722	277.16
807.901	217.77
808.081	205.48
808.26	178.86
808.439	234.15
808.619	279.21
808.798	185
808.977	123.56
809.156	217.77
809.336	191.14
809.515	209.58
809.694	221.86
809.873	271.01
810.052	201.38
810.231	232.1
810.411	281.25
810.59	195.24
810.769	164.52
810.948	174.76
811.127	135.85
811.306	154.28
811.485	217.77
811.664	154.28
811.843	170.66
812.022	182.95
812.201	119.46
812.38	209.58
812.559	189.1
812.737	172.71
812.916	164.52
813.095	135.85
813.274	258.73
813.453	207.53
813.632	262.82
813.811	203.43
813.989	176.81
814.168	191.14
814.347	182.95
814.526	228.01
814.704	250.53
814.883	185
815.062	131.75
815.24	174.76
815.419	166.57
815.598	185
815.776	103.08
815.955	109.22
816.133	199.34
816.312	176.81
816.49	187.05
816.669	213.67
816.847	170.66
817.026	113.32
817.204	113.32
817.383	123.56
817.561	211.62
817.74	150.18
817.918	166.57
818.097	187.05
818.275	92.84
818.453	238.25
818.632	96.94
818.81	139.94
818.988	168.62
819.167	127.66
819.345	139.94
819.523	156.33
819.701	144.04
819.879	223.91
820.058	146.09
820.236	133.8
820.414	135.85
820.592	162.47
820.77	101.03
820.948	148.14
821.127	176.81
821.305	166.57
821.483	86.7
821.661	219.82
821.839	113.32
822.017	131.75
822.195	152.23
822.373	201.38
822.551	127.66
822.729	133.8
822.907	131.75
823.085	117.42
823.262	115.37
823.44	131.75
823.618	105.13
823.796	152.23
823.974	127.66
824.152	111.27
824.329	92.84
824.507	125.61
824.685	139.94
824.863	152.23
825.04	90.79
825.218	137.9
825.396	90.79
825.574	121.51
825.751	152.23
825.929	105.13
826.107	162.47
826.284	152.23
826.462	113.32
826.639	115.37
826.817	86.7
826.994	156.33
827.172	62.12
827.349	121.51
827.527	33.45
827.704	123.56
827.882	92.84
828.059	172.71
828.237	29.35
828.414	123.56
828.591	21.16
828.769	178.86
828.946	172.71
829.124	139.94
829.301	133.8
829.478	82.6
829.655	107.18
829.833	43.69
830.01	31.4
830.187	94.89
830.364	170.66
830.542	86.7
830.719	62.12
830.896	82.6
831.073	94.89
831.25	111.27
831.427	203.43
831.604	107.18
831.782	135.85
831.959	137.9
832.136	64.17
832.313	117.42
832.49	72.36
832.667	141.99
832.844	68.27
833.021	101.03
833.198	94.89
833.374	80.55
833.551	152.23
833.728	49.83
833.905	55.98
834.082	68.27
834.259	74.41
834.436	94.89
834.612	94.89
834.789	62.12
834.966	23.21
835.143	41.64
835.319	47.79
835.496	86.7
835.673	53.93
835.85	51.88
836.026	80.55
836.203	74.41
836.38	105.13
836.556	45.74
836.733	115.37
836.909	111.27
837.086	90.79
837.262	96.94
837.439	80.55
837.616	150.18
837.792	35.5
837.968	90.79
838.145	76.46
838.321	113.32
838.498	103.08
838.674	12.97
838.851	47.79
839.027	74.41
839.203	-17.75
839.38	62.12
839.556	-9.56
839.732	107.18
839.909	-3.41
840.085	111.27
840.261	27.31
840.437	-7.51
840.614	121.51
840.79	68.27
840.966	68.27
841.142	121.51
841.318	66.22
841.494	70.31
841.671	103.08
841.847	105.13
842.023	55.98
842.199	53.93
842.375	111.27
842.551	21.16
842.727	68.27
842.903	6.83
843.079	127.66
843.255	125.61
843.431	-1.37
843.607	113.32
843.783	66.22
843.959	58.03
844.134	25.26
844.31	129.7
844.486	72.36
844.662	80.55
844.838	17.07
845.013	80.55
845.189	72.36
845.365	51.88
845.541	33.45
845.716	66.22
845.892	45.74
846.068	-7.51
846.244	45.74
846.419	82.6
846.595	31.4
846.77	101.03
846.946	53.93
847.122	62.12
847.297	23.21
847.473	74.41
847.648	51.88
847.824	37.55
847.999	33.45
848.175	2.73
848.35	43.69
848.526	27.31
848.701	21.16
848.876	51.88
849.052	82.6
849.227	23.21
849.403	-25.94
849.578	47.79
849.753	35.5
849.929	8.87
850.104	8.87
850.279	23.21
850.454	96.94
850.63	82.6
850.805	35.5
850.98	-3.41
851.155	60.07
851.33	35.5
851.505	-3.41
851.681	47.79
851.856	88.75
852.031	105.13
852.206	21.16
852.381	101.03
852.556	68.27
852.731	31.4
852.906	-23.89
853.081	107.18
853.256	90.79
853.431	17.07
853.606	19.11
853.781	25.26
853.956	-40.28
854.131	78.51
854.305	8.87
854.48	41.64
854.655	37.55
854.83	-116.05
855.005	51.88
855.18	117.42
855.354	94.89
855.529	60.07
855.704	-15.7
855.879	43.69
856.053	33.45
856.228	64.17
856.403	41.64
856.577	45.74
856.752	64.17
856.926	31.4
857.101	82.6
857.276	-62.8
857.45	2.73
857.625	137.9
857.799	68.27
857.974	82.6
858.148	17.07
858.323	23.21
858.497	92.84
858.672	45.74
858.846	35.5
859.02	111.27
859.195	60.07
859.369	12.97
859.543	8.87
859.718	12.97
859.892	58.03
860.066	10.92
860.241	12.97
860.415	21.16
860.589	55.98
860.763	60.07
860.938	76.46
861.112	25.26
861.286	2.73
861.46	19.11
861.634	2.73
861.808	121.51
861.982	2.73
862.157	60.07
862.331	-21.85
862.505	0.68
862.679	-23.89
862.853	25.26
863.027	78.51
863.201	66.22
863.375	29.35
863.549	-25.94
863.722	25.26
863.896	25.26
864.07	6.83
864.244	109.22
864.418	-36.18
864.592	-68.95
864.766	0.68
864.939	74.41
865.113	39.59
865.287	35.5
865.461	90.79
865.634	-5.46
865.808	37.55
865.982	29.35
866.156	45.74
866.329	-42.32
866.503	92.84
866.676	23.21
866.85	55.98
867.024	37.55
867.197	29.35
867.371	-19.8
867.544	58.03
867.718	-19.8
867.891	10.92
868.065	41.64
868.238	-3.41
868.412	115.37
868.585	23.21
868.759	8.87
868.932	-50.52
869.105	55.98
869.279	-15.7
869.452	58.03
869.625	25.26
869.799	2.73
869.972	-13.65
870.145	-46.42
870.319	58.03
870.492	-34.13
870.665	-27.99
870.838	-36.18
871.011	-25.94
871.185	29.35
871.358	41.64
871.531	12.97
871.704	-9.56
871.877	-11.61
872.05	-7.51
872.223	107.18
872.396	47.79
872.569	-38.23
872.742	-19.8
872.915	51.88
873.088	-19.8
873.261	-3.41
873.434	103.08
873.607	74.41
873.78	60.07
873.953	-44.37
874.126	10.92
874.299	35.5
874.471	-23.89
874.644	4.78
874.817	94.89
874.99	66.22
875.163	-9.56
875.335	12.97
875.508	27.31
875.681	19.11
875.853	10.92
876.026	6.83
876.199	70.31
876.371	-30.04
876.544	43.69
876.717	31.4
876.889	23.21
877.062	-13.65
877.234	-9.56
877.407	-9.56
877.579	-13.65
877.752	-40.28
877.924	25.26
878.097	-21.85
878.269	25.26
878.442	0.68
878.614	-23.89
878.786	8.87
878.959	74.41
879.131	-19.8
879.303	-3.41
879.476	-62.8
879.648	-9.56
879.82	27.31
879.993	51.88
880.165	4.78
880.337	-7.51
880.509	68.27
880.681	31.4
880.854	-7.51
881.026	-1.37
881.198	41.64
881.37	-7.51
881.542	10.92
881.714	53.93
881.886	-27.99
882.058	4.78
882.23	8.87
882.402	17.07
882.574	41.64
882.746	21.16
882.918	55.98
883.09	-15.7
883.262	-17.75
883.434	10.92
883.606	-40.28
883.778	25.26
883.95	47.79
884.122	-58.71
884.293	68.27
884.465	53.93
884.637	25.26
884.809	-17.75
884.98	27.31
885.152	8.87
885.324	19.11
885.496	-75.09
885.667	-23.89
885.839	-7.51
886.011	35.5
886.182	-15.7
886.354	72.36
886.525	19.11
886.697	66.22
886.869	0.68
887.04	-13.65
887.212	45.74
887.383	-36.18
887.555	0.68
887.726	-7.51
887.897	-9.56
888.069	-21.85
888.24	23.21
888.412	-56.66
888.583	25.26
888.754	41.64
888.926	-34.13
889.097	15.02
889.268	0.68
889.44	29.35
889.611	-27.99
889.782	45.74
889.953	-36.18
890.125	-11.61
890.296	-38.23
890.467	62.12
890.638	-3.41
890.809	-36.18
890.98	-15.7
891.151	17.07
891.323	-7.51
891.494	74.41
891.665	-32.08
891.836	31.4
892.007	-62.8
892.178	-3.41
892.349	33.45
892.52	37.55
892.691	-32.08
892.862	-9.56
893.032	-32.08
893.203	-36.18
893.374	23.21
893.545	-1.37
893.716	-3.41
893.887	6.83
894.057	64.17
894.228	45.74
894.399	-34.13
894.57	53.93
894.74	8.87
894.911	45.74
895.082	-23.89
895.253	-105.81
895.423	43.69
895.594	88.75
895.764	47.79
895.935	-15.7
896.106	4.78
896.276	4.78
896.447	-40.28
896.617	-19.8
896.788	-1.37
896.958	-32.08
897.129	21.16
897.299	-66.9
897.47	55.98
897.64	51.88
897.81	51.88
897.981	35.5
898.151	-17.75
898.322	15.02
898.492	-1.37
898.662	2.73
898.832	47.79
899.003	-5.46
899.173	15.02
899.343	33.45
899.513	-56.66
