Data from USB4F104151__75__12-54-40-265.txt Node

Date: Fri Mar 14 12:54:40 EDT 2025
User: louis
Spectrometer: USB4F10415
Trigger mode: 4
Integration Time (sec): 1.000000E-2
Scans to average: 1
Electric dark correction enabled: true
Nonlinearity correction enabled: false
Boxcar width: 0
XAxis mode: Wavelengths
Number of Pixels in Spectrum: 3648
>>>>>Begin Spectral Data<<<<<
178.204	-43.01
178.424	-43.01
178.644	-43.01
178.864	-96.25
179.084	-26.62
179.304	38.91
179.524	-43.01
179.744	10.24
179.964	36.86
180.184	-16.38
180.404	16.38
180.624	32.77
180.844	-16.38
181.064	-12.29
181.283	-28.67
181.503	-36.86
181.723	18.43
181.943	-26.62
182.163	14.34
182.383	26.62
182.602	24.58
182.822	-34.82
183.042	36.86
183.262	-43.01
183.482	30.72
183.701	-34.82
183.921	-4.1
184.141	8.19
184.361	-30.72
184.58	20.48
184.8	8.19
185.02	12.29
185.239	43.01
185.459	4.1
185.679	79.87
185.898	51.2
186.118	-24.58
186.338	-20.48
186.557	67.58
186.777	-22.53
186.997	38.91
187.216	38.91
187.436	-16.38
187.655	75.77
187.875	110.59
188.095	-77.82
188.314	47.1
188.534	26.62
188.753	98.3
188.973	24.58
189.192	63.49
189.412	-10.24
189.631	-8.19
189.851	-34.82
190.07	24.58
190.29	-2.05
190.509	45.06
190.729	-20.48
190.948	14.34
191.168	83.97
191.387	10.24
191.607	-38.91
191.826	-2.05
192.045	-26.62
192.265	20.48
192.484	43.01
192.704	30.72
192.923	-6.14
193.142	-16.38
193.362	-8.19
193.581	0
193.8	-18.43
194.02	47.1
194.239	-12.29
194.458	-16.38
194.678	-53.25
194.897	-2.05
195.116	63.49
195.335	30.72
195.555	-12.29
195.774	47.1
195.993	6.14
196.212	22.53
196.432	14.34
196.651	8.19
196.87	24.58
197.089	-12.29
197.308	77.82
197.528	-20.48
197.747	32.77
197.966	-36.86
198.185	26.62
198.404	34.82
198.623	-30.72
198.842	38.91
199.062	34.82
199.281	49.15
199.5	-8.19
199.719	-38.91
199.938	-14.34
200.157	30.72
200.376	-38.91
200.595	18.43
200.814	20.48
201.033	22.53
201.252	-38.91
201.471	-73.73
201.69	-40.96
201.909	0
202.128	-63.49
202.347	-28.67
202.566	4.1
202.785	38.91
203.004	-10.24
203.223	34.82
203.442	106.49
203.661	32.77
203.879	-43.01
204.098	88.06
204.317	75.77
204.536	20.48
204.755	6.14
204.974	67.58
205.193	71.68
205.411	38.91
205.63	86.01
205.849	71.68
206.068	-34.82
206.287	10.24
206.505	0
206.724	8.19
206.943	-14.34
207.162	59.39
207.381	-10.24
207.599	12.29
207.818	-26.62
208.037	22.53
208.255	-28.67
208.474	36.86
208.693	-55.3
208.911	-63.49
209.13	24.58
209.349	63.49
209.567	-28.67
209.786	47.1
210.005	32.77
210.223	22.53
210.442	53.25
210.661	-65.54
210.879	-12.29
211.098	55.3
211.316	-36.86
211.535	-18.43
211.753	-12.29
211.972	14.34
212.191	-8.19
212.409	6.14
212.628	10.24
212.846	43.01
213.065	22.53
213.283	63.49
213.502	43.01
213.72	20.48
213.938	8.19
214.157	67.58
214.375	-18.43
214.594	-8.19
214.812	73.73
215.031	-40.96
215.249	14.34
215.467	16.38
215.686	63.49
215.904	-22.53
216.122	32.77
216.341	-53.25
216.559	-24.58
216.778	47.1
216.996	59.39
217.214	-22.53
217.432	2.05
217.651	-47.1
217.869	-30.72
218.087	49.15
218.306	-22.53
218.524	16.38
218.742	-40.96
218.96	26.62
219.179	-16.38
219.397	10.24
219.615	79.87
219.833	49.15
220.051	-30.72
220.27	32.77
220.488	2.05
220.706	-6.14
220.924	49.15
221.142	10.24
221.36	-53.25
221.578	38.91
221.796	30.72
222.015	10.24
222.233	51.2
222.451	12.29
222.669	10.24
222.887	112.64
223.105	-26.62
223.323	26.62
223.541	-20.48
223.759	6.14
223.977	88.06
224.195	47.1
224.413	-49.15
224.631	0
224.849	34.82
225.067	61.44
225.285	18.43
225.503	43.01
225.721	34.82
225.939	67.58
226.157	-75.77
226.375	55.3
226.592	-30.72
226.81	6.14
227.028	-32.77
227.246	32.77
227.464	-10.24
227.682	22.53
227.9	-26.62
228.117	-28.67
228.335	2.05
228.553	8.19
228.771	79.87
228.989	20.48
229.206	43.01
229.424	43.01
229.642	-38.91
229.86	4.1
230.077	10.24
230.295	36.86
230.513	32.77
230.731	28.67
230.948	43.01
231.166	8.19
231.384	43.01
231.601	12.29
231.819	18.43
232.037	-43.01
232.254	-34.82
232.472	28.67
232.689	18.43
232.907	18.43
233.125	-59.39
233.342	-30.72
233.56	16.38
233.777	40.96
233.995	-14.34
234.213	18.43
234.43	-22.53
234.648	106.49
234.865	14.34
235.083	10.24
235.3	16.38
235.518	-4.1
235.735	-30.72
235.953	-4.1
236.17	-16.38
236.388	-55.3
236.605	-32.77
236.822	20.48
237.04	-14.34
237.257	16.38
237.475	4.1
237.692	4.1
237.909	12.29
238.127	-28.67
238.344	-12.29
238.562	40.96
238.779	-59.39
238.996	20.48
239.214	-18.43
239.431	65.53
239.648	-22.53
239.865	28.67
240.083	-2.05
240.3	-2.05
240.517	40.96
240.735	67.58
240.952	40.96
241.169	69.63
241.386	12.29
241.603	18.43
241.821	-43.01
242.038	49.15
242.255	2.05
242.472	-32.77
242.689	40.96
242.907	55.3
243.124	18.43
243.341	77.82
243.558	57.34
243.775	26.62
243.992	4.1
244.209	-10.24
244.426	51.2
244.643	26.62
244.86	79.87
245.078	92.16
245.295	-14.34
245.512	12.29
245.729	-49.15
245.946	71.68
246.163	-16.38
246.38	2.05
246.597	36.86
246.814	83.97
247.031	45.06
247.248	2.05
247.464	2.05
247.681	77.82
247.898	18.43
248.115	-63.49
248.332	-18.43
248.549	30.72
248.766	22.53
248.983	63.49
249.2	-26.62
249.417	40.96
249.633	32.77
249.85	57.34
250.067	-6.14
250.284	-36.86
250.501	26.62
250.717	-28.67
250.934	38.91
251.151	49.15
251.368	-20.48
251.585	49.15
251.801	-63.49
252.018	6.14
252.235	-43.01
252.451	55.3
252.668	-57.34
252.885	6.14
253.102	57.34
253.318	-14.34
253.535	81.92
253.752	47.1
253.968	12.29
254.185	-45.06
254.401	59.39
254.618	36.86
254.835	96.25
255.051	43.01
255.268	-10.24
255.484	98.3
255.701	-4.1
255.917	20.48
256.134	-2.05
256.351	24.58
256.567	71.68
256.784	98.3
257	-59.39
257.217	28.67
257.433	49.15
257.65	61.44
257.866	6.14
258.082	-20.48
258.299	30.72
258.515	47.1
258.732	12.29
258.948	14.34
259.165	47.1
259.381	73.73
259.597	-4.1
259.814	-61.44
260.03	81.92
260.246	-34.82
260.463	30.72
260.679	38.91
260.895	16.38
261.112	63.49
261.328	12.29
261.544	-18.43
261.761	104.45
261.977	4.1
262.193	6.14
262.409	-47.1
262.626	-4.1
262.842	88.06
263.058	45.06
263.274	2.05
263.49	-49.15
263.707	100.35
263.923	-45.06
264.139	61.44
264.355	-32.77
264.571	32.77
264.787	-18.43
265.004	38.91
265.22	8.19
265.436	36.86
265.652	51.2
265.868	43.01
266.084	-45.06
266.3	-10.24
266.516	-22.53
266.732	-20.48
266.948	59.39
267.164	98.3
267.38	-28.67
267.596	-40.96
267.812	53.25
268.028	32.77
268.244	26.62
268.46	0
268.676	-16.38
268.892	22.53
269.108	51.2
269.324	-2.05
269.54	-24.58
269.756	-8.19
269.972	43.01
270.188	65.53
270.403	-26.62
270.619	51.2
270.835	63.49
271.051	20.48
271.267	67.58
271.483	18.43
271.698	-32.77
271.914	22.53
272.13	16.38
272.346	24.58
272.562	-36.86
272.777	57.34
272.993	-12.29
273.209	118.78
273.425	26.62
273.64	30.72
273.856	2.05
274.072	6.14
274.287	47.1
274.503	65.53
274.719	63.49
274.934	38.91
275.15	-34.82
275.366	-2.05
275.581	-14.34
275.797	34.82
276.012	43.01
276.228	-22.53
276.444	-18.43
276.659	43.01
276.875	-36.86
277.09	55.3
277.306	0
277.521	65.53
277.737	43.01
277.952	10.24
278.168	-2.05
278.383	12.29
278.599	59.39
278.814	-14.34
279.03	36.86
279.245	112.64
279.461	-6.14
279.676	32.77
279.892	-20.48
280.107	6.14
280.322	-8.19
280.538	16.38
280.753	83.97
280.969	77.82
281.184	-26.62
281.399	30.72
281.615	77.82
281.83	112.64
282.045	47.1
282.26	-26.62
282.476	30.72
282.691	28.67
282.906	43.01
283.122	53.25
283.337	-47.1
283.552	-8.19
283.767	-10.24
283.983	0
284.198	-40.96
284.413	-67.58
284.628	-51.2
284.843	61.44
285.058	6.14
285.274	32.77
285.489	-38.91
285.704	-6.14
285.919	45.06
286.134	-22.53
286.349	-69.63
286.564	0
286.779	30.72
286.995	-34.82
287.21	-6.14
287.425	20.48
287.64	22.53
287.855	24.58
288.07	-16.38
288.285	-14.34
288.5	4.1
288.715	51.2
288.93	40.96
289.145	-75.77
289.36	8.19
289.575	40.96
289.79	24.58
290.004	63.49
290.219	49.15
290.434	51.2
290.649	55.3
290.864	6.14
291.079	-67.58
291.294	-43.01
291.509	-8.19
291.724	47.1
291.938	-12.29
292.153	83.97
292.368	-47.1
292.583	-28.67
292.798	-49.15
293.012	47.1
293.227	65.53
293.442	-49.15
293.657	22.53
293.871	16.38
294.086	22.53
294.301	57.34
294.516	40.96
294.73	36.86
294.945	30.72
295.16	-32.77
295.374	43.01
295.589	43.01
295.804	-22.53
296.018	16.38
296.233	14.34
296.447	-2.05
296.662	4.1
296.877	-67.58
297.091	32.77
297.306	24.58
297.52	12.29
297.735	18.43
297.949	12.29
298.164	30.72
298.378	14.34
298.593	73.73
298.807	45.06
299.022	-51.2
299.236	6.14
299.451	10.24
299.665	-10.24
299.88	20.48
300.094	0
300.309	-24.58
300.523	49.15
300.737	55.3
300.952	-6.14
301.166	14.34
301.381	43.01
301.595	-34.82
301.809	0
302.024	69.63
302.238	-79.87
302.452	40.96
302.667	40.96
302.881	-10.24
303.095	6.14
303.309	75.77
303.524	24.58
303.738	-12.29
303.952	-4.1
304.166	30.72
304.381	-28.67
304.595	28.67
304.809	-30.72
305.023	30.72
305.237	-8.19
305.452	-6.14
305.666	16.38
305.88	65.53
306.094	67.58
306.308	-14.34
306.522	-40.96
306.736	0
306.95	55.3
307.164	6.14
307.379	10.24
307.593	67.58
307.807	20.48
308.021	-6.14
308.235	63.49
308.449	20.48
308.663	-16.38
308.877	16.38
309.091	49.15
309.305	77.82
309.519	-10.24
309.733	24.58
309.947	-18.43
310.161	-73.73
310.374	18.43
310.588	61.44
310.802	45.06
311.016	-26.62
311.23	-12.29
311.444	6.14
311.658	24.58
311.872	18.43
312.085	16.38
312.299	75.77
312.513	73.73
312.727	14.34
312.941	-30.72
313.154	43.01
313.368	6.14
313.582	32.77
313.796	-16.38
314.009	-4.1
314.223	34.82
314.437	8.19
314.651	-22.53
314.864	16.38
315.078	16.38
315.292	96.25
315.505	14.34
315.719	-8.19
315.933	-38.91
316.146	26.62
316.36	22.53
316.573	49.15
316.787	6.14
317.001	57.34
317.214	49.15
317.428	96.25
317.641	-10.24
317.855	12.29
318.068	61.44
318.282	32.77
318.495	53.25
318.709	22.53
318.922	24.58
319.136	108.54
319.349	8.19
319.563	-22.53
319.776	18.43
319.99	61.44
320.203	36.86
320.417	-43.01
320.63	77.82
320.843	2.05
321.057	63.49
321.27	18.43
321.483	-14.34
321.697	36.86
321.91	-18.43
322.124	8.19
322.337	20.48
322.55	51.2
322.763	-51.2
322.977	36.86
323.19	28.67
323.403	32.77
323.617	-22.53
323.83	14.34
324.043	38.91
324.256	26.62
324.469	-30.72
324.683	26.62
324.896	-20.48
325.109	-10.24
325.322	-2.05
325.535	45.06
325.748	16.38
325.962	26.62
326.175	30.72
326.388	43.01
326.601	53.25
326.814	-24.58
327.027	32.77
327.24	49.15
327.453	57.34
327.666	-75.77
327.879	32.77
328.092	6.14
328.305	-47.1
328.518	47.1
328.731	24.58
328.944	96.25
329.157	22.53
329.37	-8.19
329.583	67.58
329.796	-12.29
330.009	40.96
330.222	-30.72
330.435	16.38
330.648	-10.24
330.861	22.53
331.073	0
331.286	8.19
331.499	43.01
331.712	-61.44
331.925	6.14
332.138	16.38
332.35	-8.19
332.563	8.19
332.776	59.39
332.989	-20.48
333.202	-2.05
333.414	-6.14
333.627	-18.43
333.84	-40.96
334.053	14.34
334.265	-2.05
334.478	67.58
334.691	0
334.903	26.62
335.116	-36.86
335.329	116.73
335.541	-16.38
335.754	20.48
335.966	-28.67
336.179	-55.3
336.392	-20.48
336.604	51.2
336.817	26.62
337.029	14.34
337.242	16.38
337.454	-28.67
337.667	4.1
337.88	12.29
338.092	34.82
338.305	-47.1
338.517	-26.62
338.729	36.86
338.942	-28.67
339.154	40.96
339.367	47.1
339.579	24.58
339.792	49.15
340.004	38.91
340.217	-16.38
340.429	51.2
340.641	30.72
340.854	-12.29
341.066	49.15
341.278	20.48
341.491	53.25
341.703	24.58
341.915	-8.19
342.128	32.77
342.34	53.25
342.552	10.24
342.764	14.34
342.977	-26.62
343.189	16.38
343.401	49.15
343.613	34.82
343.826	14.34
344.038	8.19
344.25	28.67
344.462	-24.58
344.674	65.53
344.886	-43.01
345.099	-24.58
345.311	18.43
345.523	32.77
345.735	-22.53
345.947	-20.48
346.159	51.2
346.371	6.14
346.583	16.38
346.795	38.91
347.007	71.68
347.219	30.72
347.431	8.19
347.643	69.63
347.855	-2.05
348.067	88.06
348.279	-67.58
348.491	120.83
348.703	49.15
348.915	-10.24
349.127	-10.24
349.339	-59.39
349.551	73.73
349.763	73.73
349.975	-69.63
350.187	45.06
350.399	36.86
350.61	30.72
350.822	-26.62
351.034	32.77
351.246	-16.38
351.458	49.15
351.669	-32.77
351.881	47.1
352.093	65.53
352.305	30.72
352.517	69.63
352.728	43.01
352.94	-36.86
353.152	26.62
353.363	2.05
353.575	26.62
353.787	34.82
353.999	-14.34
354.21	38.91
354.422	34.82
354.633	-14.34
354.845	67.58
355.057	61.44
355.268	2.05
355.48	45.06
355.692	-24.58
355.903	-22.53
356.115	96.25
356.326	45.06
356.538	14.34
356.749	6.14
356.961	49.15
357.172	-26.62
357.384	77.82
357.595	53.25
357.807	14.34
358.018	57.34
358.23	61.44
358.441	43.01
358.653	75.77
358.864	-6.14
359.075	20.48
359.287	38.91
359.498	22.53
359.709	67.58
359.921	22.53
360.132	55.3
360.344	49.15
360.555	6.14
360.766	-12.29
360.977	-18.43
361.189	40.96
361.4	-71.68
361.611	22.53
361.823	59.39
362.034	32.77
362.245	-32.77
362.456	34.82
362.667	24.58
362.879	2.05
363.09	40.96
363.301	32.77
363.512	4.1
363.723	38.91
363.935	59.39
364.146	36.86
364.357	32.77
364.568	79.87
364.779	-12.29
364.99	-16.38
365.201	-2.05
365.412	65.53
365.623	-24.58
365.834	61.44
366.045	4.1
366.256	26.62
366.467	47.1
366.678	79.87
366.889	-8.19
367.1	14.34
367.311	43.01
367.522	75.77
367.733	-16.38
367.944	69.63
368.155	38.91
368.366	51.2
368.577	-69.63
368.788	-10.24
368.999	24.58
369.209	18.43
369.42	53.25
369.631	55.3
369.842	43.01
370.053	-36.86
370.264	0
370.474	-18.43
370.685	43.01
370.896	10.24
371.107	40.96
371.317	36.86
371.528	-12.29
371.739	47.1
371.95	-43.01
372.16	-32.77
372.371	-4.1
372.582	-32.77
372.792	53.25
373.003	45.06
373.214	63.49
373.424	0
373.635	2.05
373.846	26.62
374.056	8.19
374.267	-8.19
374.477	81.92
374.688	45.06
374.898	-6.14
375.109	16.38
375.319	4.1
375.53	-4.1
375.74	-14.34
375.951	-63.49
376.161	65.53
376.372	-6.14
376.582	-51.2
376.793	67.58
377.003	22.53
377.214	43.01
377.424	55.3
377.635	55.3
377.845	45.06
378.055	30.72
378.266	10.24
378.476	79.87
378.686	32.77
378.897	-26.62
379.107	-20.48
379.317	12.29
379.528	-32.77
379.738	51.2
379.948	-30.72
380.158	55.3
380.369	45.06
380.579	12.29
380.789	51.2
380.999	40.96
381.21	49.15
381.42	10.24
381.63	-8.19
381.84	45.06
382.05	47.1
382.261	131.07
382.471	63.49
382.681	4.1
382.891	28.67
383.101	4.1
383.311	47.1
383.521	-51.2
383.731	-49.15
383.941	28.67
384.151	47.1
384.361	6.14
384.571	6.14
384.781	34.82
384.991	57.34
385.201	-34.82
385.411	34.82
385.621	-26.62
385.831	4.1
386.041	28.67
386.251	40.96
386.461	65.53
386.671	47.1
386.881	73.73
387.091	12.29
387.301	-30.72
387.511	28.67
387.72	38.91
387.93	22.53
388.14	-2.05
388.35	16.38
388.56	51.2
388.769	16.38
388.979	36.86
389.189	16.38
389.399	26.62
389.609	49.15
389.818	51.2
390.028	43.01
390.238	-2.05
390.447	40.96
390.657	55.3
390.867	-26.62
391.076	-24.58
391.286	-51.2
391.496	-18.43
391.705	26.62
391.915	92.16
392.125	47.1
392.334	-6.14
392.544	108.54
392.753	28.67
392.963	20.48
393.172	83.97
393.382	36.86
393.591	47.1
393.801	38.91
394.01	79.87
394.22	55.3
394.429	43.01
394.639	-18.43
394.848	59.39
395.058	8.19
395.267	61.44
395.477	24.58
395.686	32.77
395.895	0
396.105	22.53
396.314	-20.48
396.524	32.77
396.733	0
396.942	32.77
397.152	102.4
397.361	8.19
397.57	22.53
397.78	61.44
397.989	73.73
398.198	49.15
398.407	-2.05
398.617	43.01
398.826	12.29
399.035	100.35
399.244	45.06
399.453	65.53
399.663	40.96
399.872	61.44
400.081	-4.1
400.29	63.49
400.499	61.44
400.708	161.79
400.917	43.01
401.127	-6.14
401.336	77.82
401.545	112.64
401.754	63.49
401.963	53.25
402.172	81.92
402.381	26.62
402.59	24.58
402.799	6.14
403.008	43.01
403.217	24.58
403.426	14.34
403.635	-8.19
403.844	77.82
404.053	38.91
404.262	53.25
404.471	108.54
404.68	100.35
404.888	73.73
405.097	51.2
405.306	43.01
405.515	61.44
405.724	63.49
405.933	38.91
406.142	32.77
406.35	51.2
406.559	43.01
406.768	131.07
406.977	73.73
407.185	61.44
407.394	81.92
407.603	126.97
407.812	81.92
408.02	36.86
408.229	55.3
408.438	51.2
408.646	63.49
408.855	34.82
409.064	112.64
409.272	102.4
409.481	96.25
409.69	131.07
409.898	75.77
410.107	184.32
410.315	176.13
410.524	100.35
410.733	118.78
410.941	67.58
411.15	100.35
411.358	147.45
411.567	131.07
411.775	204.8
411.984	251.9
412.192	223.23
412.401	165.89
412.609	202.75
412.818	260.09
413.026	163.84
413.234	190.46
413.443	145.41
413.651	212.99
413.86	215.04
414.068	301.05
414.276	229.37
414.485	282.62
414.693	350.2
414.901	317.44
415.11	327.67
415.318	329.72
415.526	327.67
415.734	290.81
415.943	344.06
416.151	385.02
416.359	317.44
416.567	403.45
416.776	356.35
416.984	401.4
417.192	378.87
417.4	481.27
417.608	557.05
417.817	483.32
418.025	483.32
418.233	518.14
418.441	561.14
418.649	501.75
418.857	557.05
419.065	626.68
419.273	557.05
419.481	598.01
419.689	573.43
419.897	655.35
420.105	663.54
420.313	673.78
420.521	733.17
420.729	782.32
420.937	784.37
421.145	798.71
421.353	782.32
421.561	825.33
421.769	913.39
421.977	937.97
422.185	921.59
422.393	1013.74
422.601	1001.46
422.809	1017.84
423.017	1001.46
423.224	942.07
423.432	1075.18
423.64	1091.57
423.848	1259.5
424.056	1196.01
424.263	1325.04
424.471	1286.12
424.679	1202.16
424.887	1396.71
425.094	1357.8
425.302	1388.52
425.51	1458.15
425.718	1542.12
425.925	1441.77
426.133	1593.32
426.341	1578.98
426.548	1748.97
426.756	1748.97
426.964	1816.55
427.171	1871.84
427.379	1832.93
427.586	1978.34
427.794	1992.67
428.001	2107.36
428.209	2297.82
428.417	2176.99
428.624	2279.39
428.832	2176.99
429.039	2267.1
429.247	2269.15
429.454	2559.96
429.662	2621.4
429.869	2598.87
430.076	2596.82
430.284	2584.54
430.491	2666.46
430.699	2904.02
430.906	2756.57
431.114	2856.92
431.321	2971.6
431.528	3129.3
431.736	3286.99
431.943	3442.64
432.15	3268.56
432.358	3338.19
432.565	3534.79
432.772	3538.89
432.979	3702.73
433.187	3743.69
433.394	3829.7
433.601	4009.92
433.808	4042.69
434.016	4022.21
434.223	4163.52
434.43	4396.99
434.637	4368.32
434.844	4528.06
435.052	4745.14
435.259	4796.34
435.466	4829.11
435.673	4763.58
435.88	4894.65
436.087	5332.91
436.294	5269.42
436.501	5232.56
436.708	5406.64
436.915	5408.69
437.122	5685.16
437.329	5758.89
437.537	5777.32
437.743	5830.57
437.95	6109.09
438.157	6143.91
438.364	6477.73
438.571	6420.38
438.778	6635.42
438.985	7014.29
439.192	6899.61
439.399	6979.48
439.606	7018.39
439.813	7133.08
440.02	7581.58
440.227	7636.88
440.433	7436.17
440.64	7614.35
440.847	7628.68
441.054	7864.2
441.261	8478.59
441.467	8408.96
441.674	8337.28
441.881	8746.87
442.088	8650.62
442.294	8634.24
442.501	8920.95
442.708	9092.98
442.914	9557.87
443.121	9891.69
443.328	9764.72
443.534	10221.41
443.741	9998.18
443.948	9822.06
444.154	10667.87
444.361	10499.94
444.568	10663.77
444.774	10661.73
444.981	10714.97
445.187	11093.85
445.394	11347.79
445.6	11239.25
445.807	12650.3
446.013	11792.2
446.22	12193.61
446.426	12695.36
446.633	12746.56
446.839	13223.73
447.046	12574.53
447.252	13252.41
447.459	13322.04
447.665	13588.27
447.871	14081.83
448.078	14798.62
448.284	13932.33
448.491	14423.84
448.697	14640.93
448.903	14980.89
449.11	15146.78
449.316	14651.17
449.522	15220.5
449.728	15480.6
449.935	16037.64
450.141	16004.88
450.347	16240.39
450.553	15566.61
450.76	15888.14
450.966	16211.72
451.172	16183.05
451.378	16471.81
451.584	16197.38
451.791	16506.63
451.997	16357.13
452.203	16967.42
452.409	16928.51
452.615	16799.49
452.821	16135.95
453.027	15871.76
453.233	17051.39
453.44	16252.68
453.646	16154.38
453.852	16439.05
454.058	16738.05
454.264	16269.06
454.47	16686.85
454.676	16064.27
454.882	16787.2
455.088	15279.89
455.294	15644.43
455.5	15626
455.705	15849.23
455.911	15376.15
456.117	14917.4
456.323	14894.88
456.529	13958.95
456.735	14620.45
456.941	14405.41
457.147	14016.3
457.352	13467.44
457.558	13602.61
457.764	13461.3
457.97	13117.24
458.176	12973.88
458.381	12838.72
458.587	12345.16
458.793	12441.41
458.999	11415.38
459.204	12087.11
459.41	12080.97
459.616	11382.61
459.821	11337.56
460.027	11339.6
460.233	10958.68
460.438	10477.41
460.644	10534.75
460.85	10082.15
461.055	10155.88
461.261	10057.57
461.466	8949.62
461.672	8988.53
461.878	9613.17
462.083	8906.62
462.289	8667
462.494	8554.37
462.7	8167.3
462.905	7962.5
463.111	8120.2
463.316	8423.3
463.522	8009.61
463.727	8138.63
463.932	8183.68
464.138	8075.14
464.343	8157.06
464.549	8095.62
464.754	8271.75
464.959	8085.38
465.165	8036.23
465.37	7622.54
465.575	7591.82
465.781	7968.65
465.986	7952.26
466.191	7659.4
466.397	7440.27
466.602	7133.08
466.807	7327.63
467.012	7485.33
467.218	7296.91
467.423	7348.11
467.628	7397.26
467.833	7460.75
468.038	7178.13
468.244	7063.44
468.449	7374.74
468.654	7104.4
468.859	7081.88
469.064	6956.95
469.269	6727.58
469.474	6969.24
469.679	6901.65
469.885	6678.43
470.09	6805.4
470.295	6846.36
470.5	6576.03
470.705	6715.29
470.91	6543.26
471.115	6684.57
471.32	6678.43
471.525	6485.92
471.73	6465.44
471.935	6313.89
472.139	6172.58
472.344	6191.01
472.549	6236.06
472.754	6129.57
472.959	6094.75
473.164	5726.12
473.369	5793.7
473.574	5971.88
473.778	5740.46
473.983	5861.29
474.188	5785.51
474.393	5707.69
474.598	5787.56
474.802	5541.8
475.007	5623.72
475.212	5529.52
475.417	5408.69
475.621	5277.62
475.826	5359.53
476.031	5261.23
476.235	4997.04
476.44	5154.74
476.645	5138.35
476.849	5019.57
477.054	5023.67
477.259	5035.96
477.463	4974.52
477.668	4894.65
477.872	4968.37
478.077	4839.35
478.282	4880.31
478.486	4767.67
478.691	4702.14
478.895	4614.07
479.1	4816.82
479.304	4642.75
479.509	4552.63
479.713	4749.24
479.918	4444.09
480.122	4431.8
480.326	4448.19
480.531	4515.77
480.735	4427.71
480.94	4333.5
481.144	4462.52
481.348	4440
481.553	4382.65
481.757	4241.34
481.961	4419.52
482.166	4343.74
482.37	4302.78
482.574	4278.21
482.778	4288.45
482.983	4429.76
483.187	4210.62
483.391	4339.65
483.595	4200.38
483.8	4100.03
484.004	4333.5
484.208	4317.12
484.412	4364.22
484.616	4251.58
484.821	4235.2
485.025	4425.66
485.229	4360.13
485.433	4188.1
485.637	4288.45
485.841	4253.63
486.045	4204.48
486.249	4444.09
486.453	4276.16
486.657	4220.86
486.861	4249.54
487.065	4218.82
487.269	4306.88
487.473	4171.71
487.677	4286.4
487.881	4378.56
488.085	4290.49
488.289	4458.43
488.493	4208.58
488.697	4493.24
488.901	4267.97
489.105	4368.32
489.309	4276.16
489.512	4419.52
489.716	4364.22
489.92	4388.8
490.124	4378.56
490.328	4437.95
490.531	4358.08
490.735	4546.49
490.939	4339.65
491.143	4456.38
491.346	4579.26
491.55	4573.11
491.754	4509.63
491.958	4579.26
492.161	4532.15
492.365	4489.15
492.569	4638.65
492.772	4558.78
492.976	4630.46
493.18	4652.98
493.383	4724.66
493.587	4560.83
493.79	4773.82
493.994	4792.25
494.197	4851.64
494.401	4958.13
494.605	4700.09
494.808	4997.04
495.012	4847.54
495.215	4937.65
495.419	4937.65
495.622	4943.8
495.825	5087.15
496.029	5001.14
496.232	5177.26
496.436	5058.48
496.639	5273.52
496.843	5193.65
497.046	5304.24
497.249	5388.21
497.453	5429.17
497.656	5412.78
497.859	5554.09
498.063	5574.57
498.266	5631.91
498.469	5818.28
498.673	5672.87
498.876	5795.75
499.079	5883.81
499.282	5939.11
499.485	6119.33
499.689	5906.34
499.892	6061.99
500.095	6289.31
500.298	6274.98
500.501	6119.33
500.705	6371.23
500.908	6580.12
501.111	6475.68
501.314	6565.79
501.517	6635.42
501.72	6645.66
501.923	6741.91
502.126	6944.66
502.329	7124.88
502.532	6956.95
502.735	7114.64
502.938	7135.12
503.141	7210.9
503.344	7427.98
503.547	7368.59
503.75	7382.93
503.953	7669.64
504.156	7833.48
504.359	7774.09
504.562	7765.9
504.765	8054.66
504.968	8009.61
505.17	7956.36
505.373	8189.83
505.576	8445.82
505.779	8140.68
505.982	8648.57
506.185	8679.29
506.387	8566.65
506.59	8669.05
506.793	8865.66
506.996	8861.56
507.198	9158.52
507.401	9082.74
507.604	9133.94
507.807	9172.85
508.009	9394.03
508.212	9369.46
508.415	9576.3
508.617	9488.24
508.82	9717.61
509.022	9592.69
509.225	10071.91
509.428	10022.76
509.63	10176.36
509.833	10059.62
510.035	10415.97
510.238	10477.41
510.44	10563.42
510.643	10688.35
510.845	10631.01
511.048	10735.45
511.25	10950.49
511.453	11016.02
511.655	11499.34
511.858	11110.23
512.06	11439.95
512.262	11429.71
512.465	11360.08
512.667	11548.5
512.87	11673.42
513.072	11614.03
513.274	11966.28
513.477	12044.1
513.679	12181.32
513.881	12318.53
514.084	12547.9
514.286	12525.38
514.488	12543.81
514.69	13070.14
514.893	12846.91
515.095	13080.38
515.297	13412.15
515.499	13250.36
515.701	13322.04
515.904	13440.82
516.106	13463.35
516.308	13745.97
516.51	13993.77
516.712	14044.97
516.914	14024.49
517.116	14122.79
517.318	14360.36
517.52	14546.72
517.722	14278.44
517.925	14706.46
518.127	15132.44
518.329	14968.6
518.531	14952.22
518.733	15376.15
518.935	15447.83
519.136	15490.84
519.338	15517.46
519.54	15283.99
519.742	15466.26
519.944	15775.5
520.146	15822.61
520.348	15886.09
520.55	16088.84
520.752	16252.68
520.954	16711.42
521.155	16377.61
521.357	16615.17
521.559	16928.51
521.761	16860.93
521.963	17028.86
522.164	17049.34
522.366	17055.48
522.568	17084.16
522.77	17383.16
522.971	17569.52
523.173	17594.1
523.375	17569.52
523.576	17764.08
523.778	17583.86
523.98	17739.51
524.181	17917.68
524.383	17946.35
524.584	18292.46
524.786	18099.95
524.988	18339.56
525.189	18271.98
525.391	18700
525.592	18411.24
525.794	18544.36
525.995	18650.85
526.197	18865.89
526.398	18806.5
526.6	18796.26
526.801	19005.15
527.003	19181.28
527.204	19113.69
527.406	19058.4
527.607	19111.64
527.808	19168.99
528.01	19019.49
528.211	19220.19
528.412	19592.92
528.614	19455.7
528.815	19646.16
529.016	19754.71
529.218	19570.39
529.419	19599.06
529.62	19635.92
529.822	19580.63
530.023	19762.9
530.224	19732.18
530.425	19764.95
530.626	19621.59
530.828	19830.48
531.029	19990.22
531.23	19689.17
531.431	19840.72
531.632	19863.25
531.833	19969.74
532.035	20059.85
532.236	19883.73
532.437	20129.48
532.638	19863.25
532.839	20000.46
533.04	19947.22
533.241	20094.67
533.442	20438.73
533.643	20354.76
533.844	20154.06
534.045	20158.16
534.246	19865.3
534.447	19996.37
534.648	19949.26
534.849	20278.99
535.05	20029.13
535.251	20188.88
535.451	19982.03
535.652	20166.35
535.853	20201.16
536.054	20016.85
536.255	20264.65
536.456	19986.13
536.657	20195.02
536.857	19996.37
537.058	19920.59
537.259	20195.02
537.46	19977.94
537.66	20330.19
537.861	20068.05
538.062	19762.9
538.263	20078.29
538.463	20117.2
538.664	20027.09
538.865	19891.92
539.065	20223.69
539.266	20219.6
539.466	20055.76
539.667	19850.96
539.868	20262.6
540.068	19867.34
540.269	19947.22
540.469	20037.33
540.67	19853.01
540.87	19994.32
541.071	20045.52
541.271	20074.19
541.472	19955.41
541.672	19871.44
541.873	19871.44
542.073	19746.51
542.274	20115.15
542.474	20022.99
542.675	19986.13
542.875	19859.15
543.075	19842.77
543.276	19742.42
543.476	19973.84
543.676	20078.29
543.877	20068.05
544.077	20008.65
544.277	20086.48
544.478	19812.05
544.678	19842.77
544.878	20188.88
545.078	19908.3
545.279	19648.21
545.479	19846.87
545.679	20215.5
545.879	19789.52
546.079	19805.91
546.28	19766.99
546.48	19846.87
546.68	19848.91
546.88	20018.89
547.08	19558.1
547.28	19961.55
547.48	19742.42
547.68	19906.26
547.88	19623.64
548.081	19924.69
548.281	19820.24
548.481	19736.27
548.681	19771.09
548.881	19914.45
549.081	19814.1
549.28	20063.95
549.48	19738.32
549.68	19746.51
549.88	19902.16
550.08	19558.1
550.28	19863.25
550.48	19637.97
550.68	19914.45
550.88	19664.6
551.08	19773.14
551.279	19830.48
551.479	19605.2
551.679	19781.33
551.879	19723.99
552.079	19830.48
552.278	19941.07
552.478	19601.11
552.678	19674.84
552.878	19721.94
553.077	19662.55
553.277	19570.39
553.477	19623.64
553.676	19410.65
553.876	19623.64
554.076	19611.35
554.275	19584.73
554.475	19642.07
554.674	19480.28
554.874	19875.54
555.074	19371.74
555.273	19500.76
555.473	19359.45
555.672	19334.87
555.872	19203.8
556.071	19255
556.271	19613.4
556.47	19197.66
556.67	19437.27
556.869	19168.99
557.068	19447.51
557.268	19259.1
557.467	19269.34
557.667	19351.26
557.866	19375.83
558.065	19109.6
558.265	19357.4
558.464	19279.58
558.663	18915.04
558.863	18960.09
559.062	19220.19
559.261	18781.92
559.461	19330.78
559.66	18988.77
559.859	19316.44
560.058	19007.2
560.258	19166.94
560.457	18722.53
560.656	19211.99
560.855	18953.95
561.054	19220.19
561.253	19080.92
561.453	18951.9
561.652	19082.97
561.851	18847.46
562.05	18837.22
562.249	18708.19
562.448	18990.81
562.647	18931.42
562.846	18661.09
563.045	18806.5
563.244	18697.95
563.443	19005.15
563.642	18536.17
563.841	18695.91
564.04	18616.04
564.239	18747.11
564.438	18589.41
564.637	18448.1
564.836	18628.32
565.035	18159.34
565.234	18380.52
565.432	18484.97
565.631	18331.37
565.83	18673.38
566.029	18374.38
566.228	18468.58
566.427	18357.99
566.625	18093.8
566.824	18054.89
567.023	18196.2
567.222	17794.8
567.42	18362.09
567.619	18036.46
567.818	18099.95
568.016	18061.04
568.215	18349.8
568.414	18026.22
568.612	18245.35
568.811	18237.16
569.01	18087.66
569.208	17696.5
569.407	18020.08
569.605	17585.91
569.804	17983.21
570.002	17759.98
570.201	17925.87
570.4	17710.83
570.598	17692.4
570.797	17467.13
570.995	17802.99
571.193	17254.14
571.392	17647.35
571.59	17362.68
571.789	17561.33
571.987	17510.13
572.186	17549.04
572.384	17215.23
572.582	17442.55
572.781	17442.55
572.979	17022.72
573.177	17200.89
573.376	17217.27
573.574	17182.46
573.772	17133.31
573.971	17037.05
574.169	17022.72
574.367	16987.9
574.565	17235.7
574.763	17114.87
574.962	17125.11
575.16	16621.31
575.358	16918.27
575.556	16508.68
575.754	16727.81
575.952	16609.03
576.151	16568.07
576.349	16359.17
576.547	16609.03
576.745	16668.42
576.943	16490.24
577.141	16361.22
577.339	16447.24
577.537	16307.98
577.735	16334.6
577.933	16496.39
578.131	16430.85
578.329	16238.34
578.527	16203.53
578.725	16088.84
578.923	16252.68
579.121	15882
579.319	15953.68
579.516	16291.59
579.714	15908.62
579.912	16017.16
580.11	16045.84
580.308	15857.42
580.506	16131.85
580.704	15863.57
580.901	15752.98
581.099	15976.2
581.297	15959.82
581.495	15742.74
581.692	15748.88
581.89	15646.48
582.088	15609.62
582.285	15593.23
582.483	15726.35
582.681	15501.08
582.878	15312.66
583.076	15312.66
583.274	15564.56
583.471	15234.84
583.669	15210.26
583.866	15224.6
584.064	15103.77
584.262	15079.19
584.459	14997.28
584.657	15179.54
584.854	15128.35
585.052	14921.5
585.249	15308.57
585.447	14819.1
585.644	14968.6
585.841	14765.85
586.039	14946.08
586.236	14759.71
586.434	14765.85
586.631	14638.88
586.828	14536.48
587.026	14497.57
587.223	14722.85
587.42	14767.9
587.618	14882.59
587.815	14409.51
588.012	14446.37
588.21	14518.05
588.407	14526.24
588.604	14087.98
588.801	14343.97
588.999	14384.93
589.196	14501.67
589.393	14481.19
589.59	14401.32
589.787	14057.26
589.984	14200.62
590.182	13737.77
590.379	14120.74
590.576	13881.13
590.773	14354.21
590.97	13831.98
591.167	13684.53
591.364	13725.49
591.561	14057.26
591.758	13831.98
591.955	14006.06
592.152	13772.59
592.349	13522.74
592.546	13666.1
592.743	13688.62
592.94	13424.44
593.137	13739.82
593.334	13432.63
593.531	13328.18
593.727	13416.24
593.924	13592.37
594.121	13322.04
594.318	13111.1
594.515	13164.34
594.712	13696.82
594.908	13076.28
595.105	13139.77
595.302	13109.05
595.499	13449.01
595.696	13025.08
595.892	13143.86
596.089	13152.06
596.286	13006.65
596.482	12871.48
596.679	13023.03
596.876	13084.47
597.072	12797.76
597.269	12924.73
597.466	12781.37
597.662	12543.81
597.859	12711.74
598.055	12685.12
598.252	12633.92
598.448	12635.97
598.645	12590.91
598.841	12386.11
599.038	12568.38
599.234	12615.49
599.431	12193.61
599.627	12265.28
599.824	12437.31
600.02	12146.5
600.217	12377.92
600.413	12275.52
600.609	12197.7
600.806	12281.67
601.002	12023.62
601.198	12148.55
601.395	12040.01
601.591	12105.54
601.787	12140.36
601.984	12019.53
602.18	11941.71
602.376	11921.23
602.572	11898.7
602.769	11667.28
602.965	11845.45
603.161	11878.22
603.357	11587.41
603.553	11980.62
603.75	11698
603.946	11587.41
604.142	11767.63
604.338	11290.45
604.534	11421.52
604.73	11423.57
604.926	11448.15
605.122	11388.75
605.318	11382.61
605.514	11190.1
605.71	11167.57
605.906	11450.19
606.102	11110.23
606.298	11241.3
606.494	11106.13
606.69	11028.31
606.886	11362.13
607.082	11159.38
607.278	11360.08
607.474	10962.78
607.67	11034.46
607.866	10975.06
608.062	10973.02
608.257	10807.13
608.453	11042.65
608.649	10975.06
608.845	10866.52
609.041	10852.19
609.236	10809.18
609.432	10778.46
609.628	10800.99
609.824	10729.31
610.019	10663.77
610.215	10700.64
610.411	10999.64
610.606	10522.46
610.802	10764.12
610.998	10635.1
611.193	10659.68
611.389	10684.25
611.584	10651.49
611.78	10561.37
611.976	10512.22
612.171	10661.73
612.367	10815.32
612.562	10555.23
612.758	10336.1
612.953	10499.94
613.149	10542.94
613.344	10286.95
613.539	10547.04
613.735	10270.56
613.93	10278.76
614.126	10207.08
614.321	10403.68
614.517	10411.87
614.712	10391.39
614.907	10086.25
615.103	10375.01
615.298	10174.31
615.493	10053.48
615.688	10082.15
615.884	10342.24
616.079	10059.62
616.274	10051.43
616.47	10213.22
616.665	10186.6
616.86	9955.18
617.055	10106.73
617.25	9998.18
617.445	10147.69
617.641	9832.3
617.836	10014.57
618.031	9826.15
618.226	9914.22
618.421	9922.41
618.616	9881.45
618.811	9684.84
619.006	9981.8
619.201	9561.97
619.396	9764.72
619.591	9525.1
619.786	9881.45
619.981	9488.24
620.176	9600.88
620.371	9500.53
620.566	9447.28
620.761	9457.52
620.956	9277.3
621.151	9144.18
621.346	9445.23
621.541	9215.86
621.735	9283.44
621.93	9185.14
622.125	9187.19
622.32	8822.65
622.515	9185.14
622.709	8806.27
622.904	8884.09
623.099	8734.59
623.294	8826.75
623.488	8828.79
623.683	8591.23
623.878	8748.92
624.072	8683.39
624.267	8615.8
624.462	8572.8
624.656	8423.3
624.851	8529.79
625.046	8322.94
625.24	8490.88
625.435	8333.18
625.629	8382.34
625.824	8263.55
626.018	8130.44
626.213	7954.31
626.407	7987.08
626.602	8003.46
626.796	8126.34
626.991	7960.45
627.185	8050.57
627.38	7888.78
627.574	7769.99
627.768	7792.52
627.963	7790.47
628.157	7634.83
628.352	7755.66
628.546	7643.02
628.74	7788.43
628.935	7595.92
629.129	7663.5
629.323	7380.88
629.517	7348.11
629.712	7425.93
629.906	7432.08
630.1	7366.54
630.294	7255.95
630.489	7319.44
630.683	7325.58
630.877	7176.08
631.071	7161.75
631.265	7200.66
631.459	7092.12
631.653	7176.08
631.848	6895.51
632.042	6961.05
632.236	6973.33
632.43	6815.64
632.624	7085.97
632.818	6690.71
633.012	6698.91
633.206	6594.46
633.4	6698.91
633.594	6539.16
633.788	6797.21
633.982	6619.03
634.176	6584.22
634.369	6684.57
634.563	6500.25
634.757	6545.31
634.951	6553.5
635.145	6588.32
635.339	6428.57
635.533	6385.57
635.726	6297.5
635.92	6291.36
636.114	6324.13
636.308	6342.56
636.501	6356.89
636.695	6215.59
636.889	6082.47
637.083	6178.72
637.276	5961.64
637.47	6309.79
637.664	6078.37
637.857	6061.99
638.051	6168.48
638.244	5963.68
638.438	5978.02
638.632	5955.49
638.825	5754.79
639.019	5779.37
639.212	5826.47
639.406	5736.36
639.599	5752.74
639.793	5654.44
639.986	5664.68
640.18	5646.25
640.373	5814.18
640.567	5453.74
640.76	5562.28
640.954	5463.98
641.147	5334.96
641.34	5359.53
641.534	5349.29
641.727	5271.47
641.92	5433.26
642.114	5410.73
642.307	5429.17
642.5	5388.21
642.694	5171.12
642.887	5138.35
643.08	5226.42
643.273	5255.09
643.467	5140.4
643.66	5019.57
643.853	5076.91
644.046	4962.23
644.239	5044.15
644.432	5111.73
644.626	5105.59
644.819	4913.08
645.012	4745.14
645.205	4933.56
645.398	4843.45
645.591	5007.28
645.784	4757.43
645.977	4849.59
646.17	4788.15
646.363	4919.22
646.556	4702.14
646.749	4708.28
646.942	4650.94
647.135	4589.5
647.328	4706.23
647.521	4501.44
647.714	4630.46
647.907	4509.63
648.099	4495.29
648.292	4544.44
648.485	4503.48
648.678	4370.37
648.871	4341.69
649.064	4433.85
649.256	4569.02
649.449	4339.65
649.642	4321.21
649.835	4171.71
650.027	4198.34
650.22	4353.98
650.413	4245.44
650.605	4243.39
650.798	4321.21
650.991	4130.75
651.183	4235.2
651.376	4104.13
651.568	4042.69
651.761	4151.23
651.954	4159.42
652.146	4057.03
652.339	4040.64
652.531	3968.96
652.724	4030.4
652.916	3993.54
653.109	3997.63
653.301	3897.28
653.494	3991.49
653.686	3829.7
653.879	3960.77
654.071	3788.74
654.263	3569.61
654.456	3899.33
654.648	3841.99
654.84	3743.69
655.033	3727.3
655.225	3647.43
655.417	3788.74
655.61	3698.63
655.802	3698.63
655.994	3790.79
656.186	3639.24
656.379	3645.38
656.571	3647.43
656.763	3596.23
656.955	3596.23
657.148	3528.65
657.34	3530.7
657.532	3407.82
657.724	3465.16
657.916	3471.31
658.108	3499.98
658.3	3282.89
658.492	3383.24
658.684	3338.19
658.876	3381.2
659.068	3356.62
659.26	3317.71
659.452	3243.98
659.644	3289.04
659.836	3270.61
660.028	3295.18
660.22	3172.3
660.412	3092.43
660.604	3176.4
660.796	3321.81
660.988	3192.78
661.18	3219.41
661.372	3057.62
661.563	3151.82
661.755	3121.1
661.947	3227.6
662.139	3012.56
662.331	3004.37
662.522	3012.56
662.714	3016.66
662.906	2994.13
663.097	2906.07
663.289	2932.69
663.481	2994.13
663.673	2944.98
663.864	2910.16
664.056	2920.4
664.247	2926.55
664.439	2760.66
664.631	2820.05
664.822	2760.66
665.014	2807.77
665.205	2736.09
665.397	2797.53
665.588	2725.85
665.78	2627.54
665.971	2738.13
666.163	2682.84
666.354	2668.5
666.546	2766.81
666.737	2693.08
666.929	2680.79
667.12	2713.56
667.311	2482.14
667.503	2731.99
667.694	2566.1
667.885	2592.73
668.077	2738.13
668.268	2570.2
668.459	2547.67
668.651	2545.63
668.842	2566.1
669.033	2496.47
669.224	2566.1
669.416	2588.63
669.607	2463.71
669.798	2508.76
669.989	2512.86
670.18	2484.19
670.371	2451.42
670.563	2473.95
670.754	2437.08
670.945	2275.29
671.136	2432.99
671.327	2392.03
671.518	2510.81
671.709	2437.08
671.9	2320.35
672.091	2322.4
672.282	2428.89
672.473	2330.59
672.664	2295.77
672.855	2293.72
673.046	2238.43
673.237	2381.79
673.428	2226.14
673.619	2367.45
673.809	2207.71
674	2312.16
674.191	2287.58
674.382	2213.85
674.573	2213.85
674.764	2123.74
674.954	2213.85
675.145	2230.24
675.336	2144.22
675.527	2115.55
675.717	2158.56
675.908	2144.22
676.099	2154.46
676.289	2025.44
676.48	2146.27
676.671	2054.11
676.861	2064.35
677.052	2195.42
677.243	2099.17
677.433	2093.02
677.624	2113.5
677.814	2025.44
678.005	2029.54
678.195	2037.73
678.386	2058.21
678.576	1968.1
678.767	2054.11
678.957	2007.01
679.148	2070.5
679.338	2017.25
679.529	1978.34
679.719	1980.39
679.909	1949.67
680.1	2062.3
680.29	2000.87
680.481	2111.46
680.671	1908.71
680.861	1964
681.052	1918.95
681.242	1959.91
681.432	2007.01
681.622	2011.11
681.813	1865.7
682.003	1978.34
682.193	1923.04
682.383	1941.47
682.573	1939.43
682.764	1882.08
682.954	2002.91
683.144	1855.46
683.334	1953.76
683.524	1861.6
683.714	1884.13
683.904	1900.51
684.094	1847.27
684.284	1939.43
684.474	1769.44
684.664	1861.6
684.854	1812.45
685.044	1816.55
685.234	1822.69
685.424	1798.12
685.614	1843.17
685.804	1812.45
685.994	1859.56
686.184	1826.79
686.374	1703.91
686.564	1761.25
686.753	1855.46
686.943	1765.35
687.133	1730.53
687.323	1759.21
687.513	1763.3
687.702	1767.4
687.892	1578.98
688.082	1765.35
688.272	1814.5
688.461	1619.94
688.651	1687.53
688.841	1708.01
689.03	1763.3
689.22	1695.72
689.41	1673.19
689.599	1650.66
689.789	1726.44
689.979	1728.49
690.168	1693.67
690.358	1669.09
690.547	1681.38
690.737	1556.46
690.926	1576.94
691.116	1611.75
691.305	1556.46
691.495	1533.93
691.684	1599.46
691.874	1578.98
692.063	1628.14
692.252	1568.74
692.442	1529.83
692.631	1531.88
692.82	1572.84
693.01	1546.22
693.199	1574.89
693.388	1482.73
693.578	1513.45
693.767	1583.08
693.956	1515.5
694.146	1527.78
694.335	1456.11
694.524	1581.03
694.713	1499.11
694.902	1462.25
695.092	1480.68
695.281	1439.72
695.47	1558.5
695.659	1462.25
695.848	1413.1
696.037	1413.1
696.226	1495.02
696.415	1515.5
696.604	1439.72
696.793	1406.95
696.982	1445.87
697.171	1474.54
697.36	1368.04
697.549	1366
697.738	1456.11
697.927	1460.2
698.116	1484.78
698.305	1396.71
698.494	1417.19
698.683	1382.38
698.872	1517.54
699.061	1273.84
699.25	1429.48
699.438	1310.7
699.627	1304.56
699.816	1376.23
700.005	1325.04
700.193	1351.66
700.382	1341.42
700.571	1302.51
700.76	1427.43
700.948	1415.15
701.137	1312.75
701.326	1425.39
701.514	1329.13
701.703	1378.28
701.892	1398.76
702.08	1327.08
702.269	1331.18
702.457	1253.36
702.646	1282.03
702.834	1374.19
703.023	1275.88
703.212	1337.32
703.4	1384.43
703.589	1409
703.777	1351.66
703.965	1341.42
704.154	1275.88
704.342	1300.46
704.531	1138.67
704.719	1292.27
704.907	1292.27
705.096	1236.97
705.284	1282.03
705.472	1329.13
705.661	1210.35
705.849	1347.56
706.037	1228.78
706.226	1257.45
706.414	1204.21
706.602	1239.02
706.79	1357.8
706.979	1239.02
707.167	1228.78
707.355	1155.05
707.543	1257.45
707.731	1202.16
707.919	1193.97
708.107	1097.71
708.296	1282.03
708.484	1253.36
708.672	1198.06
708.86	1161.2
709.048	1241.07
709.236	1206.25
709.424	1130.48
709.612	1224.69
709.8	1105.9
709.988	1226.73
710.176	1193.97
710.364	1132.53
710.551	1196.01
710.739	1216.49
710.927	1204.21
711.115	1118.19
711.303	1249.26
711.491	1130.48
711.679	1167.34
711.866	1169.39
712.054	1161.2
712.242	1077.23
712.43	1185.77
712.617	1265.64
712.805	1114.1
712.993	1179.63
713.181	1097.71
713.368	1114.1
713.556	1114.1
713.744	1097.71
713.931	1179.63
714.119	1161.2
714.306	1097.71
714.494	1099.76
714.682	1173.49
714.869	1062.9
715.057	1134.57
715.244	1075.18
715.432	1114.1
715.619	1144.81
715.807	991.22
715.994	1034.22
716.182	1042.42
716.369	1130.48
716.556	1101.81
716.744	1071.09
716.931	1038.32
717.119	1093.62
717.306	1079.28
717.493	1071.09
717.681	1081.33
717.868	1038.32
718.055	1122.29
718.242	1052.66
718.43	964.59
718.617	1097.71
718.804	1005.55
718.991	1150.96
719.179	1085.42
719.366	1050.61
719.553	1066.99
719.74	1087.47
719.927	1099.76
720.114	1030.13
720.301	993.26
720.488	1032.18
720.676	1028.08
720.863	1081.33
721.05	1048.56
721.237	970.74
721.424	1091.57
721.611	1071.09
721.798	1007.6
721.985	1013.74
722.172	1019.89
722.358	1132.53
722.545	976.88
722.732	1028.08
722.919	966.64
723.106	972.79
723.293	999.41
723.48	1054.7
723.667	1034.22
723.853	940.02
724.04	1005.55
724.227	1062.9
724.414	1050.61
724.6	1071.09
724.787	976.88
724.974	1081.33
725.161	894.96
725.347	1048.56
725.534	980.98
725.72	970.74
725.907	1015.79
726.094	980.98
726.28	1009.65
726.467	989.17
726.653	909.3
726.84	983.02
727.027	946.16
727.213	1032.18
727.4	1071.09
727.586	970.74
727.773	964.59
727.959	1001.46
728.145	1034.22
728.332	1052.66
728.518	868.34
728.705	1023.98
728.891	1021.94
729.077	907.25
729.264	1017.84
729.45	954.35
729.636	991.22
729.823	1093.62
730.009	923.63
730.195	931.83
730.382	962.55
730.568	872.43
730.754	980.98
730.94	929.78
731.126	925.68
731.313	997.36
731.499	927.73
731.685	968.69
731.871	1007.6
732.057	935.92
732.243	1013.74
732.429	980.98
732.615	1011.7
732.801	1120.24
732.987	886.77
733.173	956.4
733.359	1021.94
733.545	1030.13
733.731	849.91
733.917	1040.37
734.103	1015.79
734.289	999.41
734.475	917.49
734.661	995.31
734.847	978.93
735.033	1054.7
735.219	962.55
735.404	903.15
735.59	952.31
735.776	960.5
735.962	933.87
736.148	966.64
736.333	921.59
736.519	944.11
736.705	882.67
736.89	921.59
737.076	940.02
737.262	905.2
737.447	948.21
737.633	970.74
737.819	1032.18
738.004	1011.7
738.19	989.17
738.375	952.31
738.561	978.93
738.747	903.15
738.932	905.2
739.118	940.02
739.303	894.96
739.489	915.44
739.674	927.73
739.859	976.88
740.045	991.22
740.23	948.21
740.416	958.45
740.601	925.68
740.786	827.38
740.972	948.21
741.157	851.95
741.342	964.59
741.528	913.39
741.713	890.87
741.898	929.78
742.084	841.72
742.269	917.49
742.454	880.63
742.639	860.15
742.824	923.63
743.01	860.15
743.195	874.48
743.38	907.25
743.565	909.3
743.75	806.9
743.935	817.14
744.12	933.87
744.305	800.76
744.49	864.24
744.675	794.61
744.86	976.88
745.045	856.05
745.23	851.95
745.415	882.67
745.6	825.33
745.785	849.91
745.97	806.9
746.155	935.92
746.34	776.18
746.525	952.31
746.71	796.66
746.895	817.14
747.079	767.99
747.264	792.56
747.449	856.05
747.634	815.09
747.819	833.52
748.003	800.76
748.188	778.23
748.373	774.13
748.557	811
748.742	739.32
748.927	716.79
749.111	759.8
749.296	749.56
749.481	776.18
749.665	714.74
749.85	743.41
750.034	770.04
750.219	724.98
750.404	716.79
750.588	724.98
750.773	665.59
750.957	649.21
751.141	804.85
751.326	677.88
751.51	677.88
751.695	751.6
751.879	737.27
752.064	727.03
752.248	712.69
752.432	643.06
752.617	718.84
752.801	688.12
752.985	634.87
753.17	661.49
753.354	665.59
753.538	720.88
753.722	688.12
753.907	661.49
754.091	710.65
754.275	604.15
754.459	686.07
754.643	647.16
754.828	622.58
755.012	649.21
755.196	649.21
755.38	626.68
755.564	595.96
755.748	614.39
755.932	540.66
756.116	516.09
756.3	628.73
756.484	626.68
756.668	610.29
756.852	604.15
757.036	618.49
757.22	659.45
757.404	501.75
757.588	602.1
757.772	511.99
757.956	557.05
758.14	475.13
758.323	589.81
758.507	464.89
758.691	581.62
758.875	528.38
759.059	557.05
759.242	581.62
759.426	569.34
759.61	542.71
759.794	522.23
759.977	608.25
760.161	636.92
760.345	544.76
760.528	557.05
760.712	569.34
760.895	555
761.079	475.13
761.263	516.09
761.446	473.08
761.63	516.09
761.813	501.75
761.997	448.51
762.18	360.44
762.364	528.38
762.547	546.81
762.731	546.81
762.914	468.98
763.098	432.12
763.281	571.38
763.464	507.9
763.648	514.04
763.831	458.74
764.015	487.42
764.198	458.74
764.381	509.94
764.564	538.62
764.748	436.22
764.931	495.61
765.114	385.02
765.297	473.08
765.481	475.13
765.664	485.37
765.847	407.55
766.03	448.51
766.213	491.51
766.397	407.55
766.58	450.55
766.763	497.66
766.946	425.98
767.129	466.94
767.312	495.61
767.495	419.83
767.678	360.44
767.861	421.88
768.044	389.11
768.227	405.5
768.41	417.79
768.593	438.27
768.776	430.07
768.959	399.35
769.142	532.47
769.324	489.46
769.507	407.55
769.69	456.7
769.873	440.31
770.056	520.18
770.239	501.75
770.421	432.12
770.604	393.21
770.787	434.17
770.97	473.08
771.152	417.79
771.335	354.3
771.518	493.56
771.7	473.08
771.883	356.35
772.066	368.63
772.248	442.36
772.431	358.39
772.613	438.27
772.796	354.3
772.978	350.2
773.161	493.56
773.343	380.92
773.526	385.02
773.708	366.59
773.891	344.06
774.073	434.17
774.256	395.26
774.438	354.3
774.621	315.39
774.803	385.02
774.985	350.2
775.168	393.21
775.35	333.82
775.532	366.59
775.715	348.15
775.897	317.44
776.079	385.02
776.261	333.82
776.444	309.24
776.626	331.77
776.808	323.58
776.99	311.29
777.173	337.91
777.355	319.48
777.537	323.58
777.719	352.25
777.901	231.42
778.083	225.28
778.265	382.97
778.447	415.74
778.629	247.8
778.811	284.67
778.993	178.17
779.175	348.15
779.357	288.76
779.539	290.81
779.721	288.76
779.903	303.1
780.085	315.39
780.267	319.48
780.449	288.76
780.631	315.39
780.812	225.28
780.994	333.82
781.176	212.99
781.358	280.57
781.54	264.19
781.721	294.91
781.903	339.96
782.085	229.37
782.267	258.04
782.448	262.14
782.63	243.71
782.812	262.14
782.993	311.29
783.175	282.62
783.357	206.84
783.538	241.66
783.72	292.86
783.901	256
784.083	219.13
784.264	262.14
784.446	174.08
784.627	270.33
784.809	225.28
784.99	229.37
785.172	231.42
785.353	307.2
785.535	247.8
785.716	247.8
785.897	206.84
786.079	212.99
786.26	188.41
786.441	243.71
786.623	139.26
786.804	229.37
786.985	231.42
787.167	210.94
787.348	204.8
787.529	194.56
787.71	198.65
787.891	268.28
788.073	206.84
788.254	133.12
788.435	210.94
788.616	225.28
788.797	151.55
788.978	196.6
789.159	212.99
789.34	229.37
789.522	190.46
789.703	174.08
789.884	219.13
790.065	231.42
790.246	147.45
790.427	239.61
790.607	149.5
790.788	145.41
790.969	194.56
791.15	118.78
791.331	174.08
791.512	151.55
791.693	167.93
791.874	186.37
792.054	139.26
792.235	192.51
792.416	247.8
792.597	149.5
792.778	208.89
792.958	264.19
793.139	122.88
793.32	77.82
793.5	180.22
793.681	174.08
793.862	167.93
794.042	126.97
794.223	163.84
794.404	159.74
794.584	137.21
794.765	114.69
794.945	174.08
795.126	131.07
795.306	149.5
795.487	145.41
795.667	96.25
795.848	104.45
796.028	169.98
796.209	151.55
796.389	122.88
796.57	167.93
796.75	110.59
796.93	200.7
797.111	137.21
797.291	75.77
797.471	88.06
797.652	104.45
797.832	112.64
798.012	141.31
798.192	90.11
798.373	184.32
798.553	104.45
798.733	145.41
798.913	122.88
799.093	102.4
799.274	151.55
799.454	178.17
799.634	112.64
799.814	151.55
799.994	112.64
800.174	114.69
800.354	71.68
800.534	38.91
800.714	86.01
800.894	108.54
801.074	118.78
801.254	71.68
801.434	143.36
801.614	126.97
801.794	108.54
801.974	434.17
802.154	106.49
802.334	161.79
802.514	61.44
802.693	20.48
802.873	137.21
803.053	59.39
803.233	86.01
803.413	92.16
803.592	116.73
803.772	38.91
803.952	90.11
804.131	139.26
804.311	51.2
804.491	86.01
804.67	81.92
804.85	153.6
805.03	65.53
805.209	96.25
805.389	88.06
805.568	77.82
805.748	116.73
805.928	100.35
806.107	102.4
806.287	98.3
806.466	24.58
806.646	90.11
806.825	118.78
807.004	96.25
807.184	96.25
807.363	71.68
807.543	69.63
807.722	83.97
807.901	147.45
808.081	151.55
808.26	57.34
808.439	61.44
808.619	65.53
808.798	120.83
808.977	88.06
809.156	157.69
809.336	36.86
809.515	94.21
809.694	135.17
809.873	129.02
810.052	67.58
810.231	94.21
810.411	143.36
810.59	26.62
810.769	43.01
810.948	110.59
811.127	153.6
811.306	49.15
811.485	-4.1
811.664	106.49
811.843	47.1
812.022	100.35
812.201	116.73
812.38	88.06
812.559	16.38
812.737	104.45
812.916	12.29
813.095	38.91
813.274	40.96
813.453	116.73
813.632	73.73
813.811	172.03
813.989	118.78
814.168	4.1
814.347	71.68
814.526	145.41
814.704	51.2
814.883	100.35
815.062	114.69
815.24	73.73
815.419	110.59
815.598	67.58
815.776	4.1
815.955	49.15
816.133	40.96
816.312	28.67
816.49	59.39
816.669	96.25
816.847	98.3
817.026	98.3
817.204	57.34
817.383	88.06
817.561	18.43
817.74	63.49
817.918	102.4
818.097	49.15
818.275	73.73
818.453	57.34
818.632	98.3
818.81	59.39
818.988	79.87
819.167	55.3
819.345	73.73
819.523	14.34
819.701	51.2
819.879	12.29
820.058	51.2
820.236	90.11
820.414	16.38
820.592	86.01
820.77	98.3
820.948	118.78
821.127	79.87
821.305	153.6
821.483	63.49
821.661	153.6
821.839	51.2
822.017	26.62
822.195	73.73
822.373	108.54
822.551	-10.24
822.729	32.77
822.907	79.87
823.085	79.87
823.262	73.73
823.44	57.34
823.618	30.72
823.796	59.39
823.974	92.16
824.152	81.92
824.329	49.15
824.507	26.62
824.685	114.69
824.863	94.21
825.04	88.06
825.218	12.29
825.396	129.02
825.574	63.49
825.751	81.92
825.929	49.15
826.107	-67.58
826.284	55.3
826.462	-12.29
826.639	90.11
826.817	24.58
826.994	73.73
827.172	30.72
827.349	55.3
827.527	26.62
827.704	28.67
827.882	26.62
828.059	83.97
828.237	88.06
828.414	106.49
828.591	34.82
828.769	24.58
828.946	108.54
829.124	8.19
829.301	141.31
829.478	40.96
829.655	-16.38
829.833	26.62
830.01	-2.05
830.187	10.24
830.364	47.1
830.542	16.38
830.719	8.19
830.896	47.1
831.073	24.58
831.25	131.07
831.427	59.39
831.604	90.11
831.782	-10.24
831.959	120.83
832.136	22.53
832.313	110.59
832.49	43.01
832.667	-30.72
832.844	45.06
833.021	63.49
833.198	10.24
833.374	30.72
833.551	45.06
833.728	36.86
833.905	57.34
834.082	-49.15
834.259	0
834.436	-12.29
834.612	22.53
834.789	90.11
834.966	-22.53
835.143	65.53
835.319	38.91
835.496	139.26
835.673	34.82
835.85	40.96
836.026	26.62
836.203	-2.05
836.38	-22.53
836.556	69.63
836.733	-28.67
836.909	81.92
837.086	40.96
837.262	92.16
837.439	-45.06
837.616	-6.14
837.792	47.1
837.968	63.49
838.145	38.91
838.321	22.53
838.498	36.86
838.674	65.53
838.851	75.77
839.027	18.43
839.203	8.19
839.38	-38.91
839.556	-55.3
839.732	73.73
839.909	-14.34
840.085	61.44
840.261	40.96
840.437	88.06
840.614	73.73
840.79	73.73
840.966	53.25
841.142	61.44
841.318	2.05
841.494	20.48
841.671	-4.1
841.847	40.96
842.023	51.2
842.199	20.48
842.375	2.05
842.551	22.53
842.727	-43.01
842.903	14.34
843.079	8.19
843.255	45.06
843.431	43.01
843.607	94.21
843.783	-26.62
843.959	49.15
844.134	-24.58
844.31	94.21
844.486	-14.34
844.662	77.82
844.838	32.77
845.013	-2.05
845.189	-18.43
845.365	22.53
845.541	40.96
845.716	38.91
845.892	69.63
846.068	38.91
846.244	10.24
846.419	32.77
846.595	18.43
846.77	-32.77
846.946	2.05
847.122	12.29
847.297	12.29
847.473	0
847.648	-75.77
847.824	-36.86
847.999	-36.86
848.175	-14.34
848.35	4.1
848.526	26.62
848.701	30.72
848.876	10.24
849.052	-2.05
849.227	53.25
849.403	-2.05
849.578	-16.38
849.753	81.92
849.929	34.82
850.104	-10.24
850.279	55.3
850.454	8.19
850.63	6.14
850.805	65.53
850.98	92.16
851.155	18.43
851.33	30.72
851.505	32.77
851.681	55.3
851.856	24.58
852.031	73.73
852.206	-18.43
852.381	2.05
852.556	57.34
852.731	-81.92
852.906	-59.39
853.081	36.86
853.256	75.77
853.431	32.77
853.606	61.44
853.781	34.82
853.956	-20.48
854.131	61.44
854.305	2.05
854.48	18.43
854.655	-38.91
854.83	38.91
855.005	28.67
855.18	104.45
855.354	18.43
855.529	0
855.704	2.05
855.879	45.06
856.053	-6.14
856.228	28.67
856.403	14.34
856.577	10.24
856.752	57.34
856.926	45.06
857.101	14.34
857.276	8.19
857.45	24.58
857.625	14.34
857.799	65.53
857.974	18.43
858.148	-12.29
858.323	14.34
858.497	-12.29
858.672	26.62
858.846	-18.43
859.02	8.19
859.195	-2.05
859.369	-8.19
859.543	-14.34
859.718	8.19
859.892	-22.53
860.066	-18.43
860.241	6.14
860.415	-34.82
860.589	51.2
860.763	14.34
860.938	6.14
861.112	-6.14
861.286	-57.34
861.46	0
861.634	-28.67
861.808	32.77
861.982	-65.54
862.157	10.24
862.331	30.72
862.505	0
862.679	22.53
862.853	-36.86
863.027	51.2
863.201	-8.19
863.375	26.62
863.549	20.48
863.722	-20.48
863.896	28.67
864.07	-75.77
864.244	2.05
864.418	-28.67
864.592	71.68
864.766	-18.43
864.939	-18.43
865.113	-10.24
865.287	79.87
865.461	-63.49
865.634	-24.58
865.808	53.25
865.982	38.91
866.156	34.82
866.329	4.1
866.503	-34.82
866.676	40.96
866.85	24.58
867.024	-8.19
867.197	-8.19
867.371	36.86
867.544	16.38
867.718	2.05
867.891	61.44
868.065	18.43
868.238	14.34
868.412	65.53
868.585	-26.62
868.759	2.05
868.932	-59.39
869.105	0
869.279	34.82
869.452	10.24
869.625	-36.86
869.799	22.53
869.972	-12.29
870.145	-2.05
870.319	-2.05
870.492	63.49
870.665	-28.67
870.838	20.48
871.011	-18.43
871.185	-32.77
871.358	-24.58
871.531	10.24
871.704	-8.19
871.877	-65.54
872.05	-10.24
872.223	-18.43
872.396	2.05
872.569	18.43
872.742	-53.25
872.915	47.1
873.088	26.62
873.261	0
873.434	-43.01
873.607	55.3
873.78	-8.19
873.953	-2.05
874.126	-14.34
874.299	22.53
874.471	-16.38
874.644	26.62
874.817	28.67
874.99	59.39
875.163	22.53
875.335	47.1
875.508	8.19
875.681	34.82
875.853	34.82
876.026	65.53
876.199	-8.19
876.371	-20.48
876.544	-10.24
876.717	34.82
876.889	-16.38
877.062	22.53
877.234	32.77
877.407	-26.62
877.579	49.15
877.752	16.38
877.924	-20.48
878.097	-12.29
878.269	65.53
878.442	71.68
878.614	-40.96
878.786	24.58
878.959	69.63
879.131	30.72
879.303	-30.72
879.476	36.86
879.648	36.86
879.82	20.48
879.993	-14.34
880.165	8.19
880.337	18.43
880.509	28.67
880.681	-32.77
880.854	49.15
881.026	-32.77
881.198	67.58
881.37	-32.77
881.542	-6.14
881.714	-24.58
881.886	-12.29
882.058	4.1
882.23	40.96
882.402	40.96
882.574	-83.97
882.746	-53.25
882.918	-8.19
883.09	34.82
883.262	16.38
883.434	0
883.606	-59.39
883.778	6.14
883.95	65.53
884.122	30.72
884.293	51.2
884.465	-16.38
884.637	36.86
884.809	-47.1
884.98	49.15
885.152	-51.2
885.324	24.58
885.496	-36.86
885.667	10.24
885.839	30.72
886.011	-20.48
886.182	18.43
886.354	10.24
886.525	2.05
886.697	0
886.869	24.58
887.04	36.86
887.212	-55.3
887.383	-16.38
887.555	20.48
887.726	28.67
887.897	10.24
888.069	63.49
888.24	-30.72
888.412	57.34
888.583	-12.29
888.754	40.96
888.926	-8.19
889.097	73.73
889.268	18.43
889.44	49.15
889.611	-6.14
889.782	-10.24
889.953	-67.58
890.125	104.45
890.296	49.15
890.467	20.48
890.638	8.19
890.809	12.29
890.98	2.05
891.151	6.14
891.323	26.62
891.494	-65.54
891.665	40.96
891.836	6.14
892.007	-45.06
892.178	47.1
892.349	22.53
892.52	18.43
892.691	4.1
892.862	-8.19
893.032	2.05
893.203	-4.1
893.374	-8.19
893.545	-24.58
893.716	-28.67
893.887	55.3
894.057	-30.72
894.228	24.58
894.399	-20.48
894.57	16.38
894.74	45.06
894.911	22.53
895.082	-22.53
895.253	55.3
895.423	10.24
895.594	16.38
895.764	16.38
895.935	34.82
896.106	-30.72
896.276	90.11
896.447	-16.38
896.617	47.1
896.788	2.05
896.958	30.72
897.129	-36.86
897.299	8.19
897.47	-20.48
897.64	90.11
897.81	30.72
897.981	34.82
898.151	-30.72
898.322	-22.53
898.492	-45.06
898.662	4.1
898.832	24.58
899.003	-59.39
899.173	14.34
899.343	-26.62
899.513	-57.34
