Data from USB4F104151__28__12-53-36-526.txt Node

Date: Fri Mar 14 12:53:36 EDT 2025
User: louis
Spectrometer: USB4F10415
Trigger mode: 4
Integration Time (sec): 1.000000E-2
Scans to average: 1
Electric dark correction enabled: true
Nonlinearity correction enabled: false
Boxcar width: 0
XAxis mode: Wavelengths
Number of Pixels in Spectrum: 3648
>>>>>Begin Spectral Data<<<<<
178.204	-37.55
178.424	-37.55
178.644	-37.55
178.864	-55.98
179.084	-25.26
179.304	-2.73
179.524	-31.4
179.744	-35.5
179.964	21.85
180.184	-0.68
180.404	95.57
180.624	-8.87
180.844	-31.4
181.064	-72.36
181.283	50.52
181.503	-31.4
181.723	46.42
181.943	32.08
182.163	56.66
182.383	9.56
182.602	68.95
182.822	66.9
183.042	64.85
183.262	-0.68
183.482	83.28
183.701	30.04
183.921	1.37
184.141	66.9
184.361	1.37
184.58	68.95
184.8	58.71
185.02	-2.73
185.239	91.48
185.459	27.99
185.679	34.13
185.898	-41.64
186.118	77.14
186.338	64.85
186.557	62.8
186.777	56.66
186.997	62.8
187.216	44.37
187.436	52.56
187.655	54.61
187.875	52.56
188.095	64.85
188.314	44.37
188.534	3.41
188.753	9.56
188.973	32.08
189.192	64.85
189.412	38.23
189.631	15.7
189.851	19.8
190.07	-4.78
190.29	-6.83
190.509	25.94
190.729	27.99
190.948	77.14
191.168	120.15
191.387	38.23
191.607	27.99
191.826	-29.35
192.045	-0.68
192.265	-6.83
192.484	-0.68
192.704	30.04
192.923	19.8
193.142	46.42
193.362	32.08
193.581	81.24
193.8	-43.69
194.02	105.81
194.239	3.41
194.458	95.57
194.678	27.99
194.897	-15.02
195.116	30.04
195.335	-8.87
195.555	60.76
195.774	54.61
195.993	-23.21
196.212	93.52
196.432	99.67
196.651	30.04
196.87	52.56
197.089	11.61
197.308	-21.16
197.528	62.8
197.747	1.37
197.966	101.72
198.185	5.46
198.404	91.48
198.623	34.13
198.842	68.95
199.062	25.94
199.281	21.85
199.5	89.43
199.719	42.32
199.938	1.37
200.157	-33.45
200.376	48.47
200.595	3.41
200.814	-15.02
201.033	58.71
201.252	48.47
201.471	46.42
201.69	32.08
201.909	13.65
202.128	-0.68
202.347	-15.02
202.566	50.52
202.785	-33.45
203.004	23.89
203.223	48.47
203.442	21.85
203.661	1.37
203.879	27.99
204.098	30.04
204.317	54.61
204.536	114
204.755	42.32
204.974	-0.68
205.193	36.18
205.411	77.14
205.63	-31.4
205.849	87.38
206.068	-0.68
206.287	-10.92
206.505	-35.5
206.724	54.61
206.943	36.18
207.162	9.56
207.381	-33.45
207.599	101.72
207.818	66.9
208.037	9.56
208.255	1.37
208.474	95.57
208.693	15.7
208.911	75.09
209.13	17.75
209.349	-2.73
209.567	-6.83
209.786	136.53
210.005	54.61
210.223	64.85
210.442	62.8
210.661	13.65
210.879	-0.68
211.098	71
211.316	71
211.535	27.99
211.753	-27.31
211.972	66.9
212.191	25.94
212.409	46.42
212.628	81.24
212.846	30.04
213.065	40.28
213.283	68.95
213.502	52.56
213.72	-70.31
213.938	23.89
214.157	-23.21
214.375	60.76
214.594	-12.97
214.812	-43.69
215.031	17.75
215.249	-6.83
215.467	5.46
215.686	87.38
215.904	25.94
216.122	34.13
216.341	42.32
216.559	11.61
216.778	83.28
216.996	-6.83
217.214	48.47
217.432	13.65
217.651	23.89
217.869	21.85
218.087	81.24
218.306	97.62
218.524	62.8
218.742	-2.73
218.96	68.95
219.179	66.9
219.397	71
219.615	83.28
219.833	111.96
220.051	-2.73
220.27	46.42
220.488	40.28
220.706	140.63
220.924	7.51
221.142	95.57
221.36	-19.11
221.578	64.85
221.796	44.37
222.015	52.56
222.233	40.28
222.451	50.52
222.669	83.28
222.887	42.32
223.105	19.8
223.323	-2.73
223.541	-15.02
223.759	5.46
223.977	60.76
224.195	-29.35
224.413	52.56
224.631	75.09
224.849	-8.87
225.067	95.57
225.285	-21.16
225.503	44.37
225.721	62.8
225.939	62.8
226.157	56.66
226.375	91.48
226.592	32.08
226.81	62.8
227.028	81.24
227.246	60.76
227.464	68.95
227.682	-0.68
227.9	19.8
228.117	-0.68
228.335	23.89
228.553	36.18
228.771	124.24
228.989	83.28
229.206	46.42
229.424	-4.78
229.642	140.63
229.86	42.32
230.077	85.33
230.295	-25.26
230.513	-35.5
230.731	71
230.948	44.37
231.166	52.56
231.384	-6.83
231.601	60.76
231.819	19.8
232.037	-4.78
232.254	-2.73
232.472	68.95
232.689	48.47
232.907	91.48
233.125	-2.73
233.342	79.19
233.56	32.08
233.777	64.85
233.995	1.37
234.213	64.85
234.43	23.89
234.648	34.13
234.865	105.81
235.083	105.81
235.3	60.76
235.518	83.28
235.735	-23.21
235.953	56.66
236.17	79.19
236.388	52.56
236.605	83.28
236.822	46.42
237.04	19.8
237.257	27.99
237.475	58.71
237.692	103.76
237.909	64.85
238.127	44.37
238.344	-0.68
238.562	50.52
238.779	11.61
238.996	1.37
239.214	46.42
239.431	30.04
239.648	73.04
239.865	36.18
240.083	58.71
240.3	42.32
240.517	27.99
240.735	36.18
240.952	42.32
241.169	95.57
241.386	58.71
241.603	99.67
241.821	19.8
242.038	64.85
242.255	11.61
242.472	91.48
242.689	50.52
242.907	27.99
243.124	40.28
243.341	42.32
243.558	36.18
243.775	27.99
243.992	27.99
244.209	52.56
244.426	30.04
244.643	21.85
244.86	42.32
245.078	11.61
245.295	81.24
245.512	21.85
245.729	5.46
245.946	83.28
246.163	-6.83
246.38	50.52
246.597	-12.97
246.814	-0.68
247.031	-19.11
247.248	116.05
247.464	62.8
247.681	54.61
247.898	21.85
248.115	58.71
248.332	-2.73
248.549	38.23
248.766	44.37
248.983	79.19
249.2	-0.68
249.417	3.41
249.633	58.71
249.85	71
250.067	36.18
250.284	27.99
250.501	19.8
250.717	11.61
250.934	-29.35
251.151	48.47
251.368	50.52
251.585	93.52
251.801	15.7
252.018	40.28
252.235	19.8
252.451	-6.83
252.668	38.23
252.885	103.76
253.102	54.61
253.318	32.08
253.535	23.89
253.752	25.94
253.968	62.8
254.185	11.61
254.401	27.99
254.618	97.62
254.835	71
255.051	75.09
255.268	30.04
255.484	56.66
255.701	32.08
255.917	21.85
256.134	11.61
256.351	19.8
256.567	23.89
256.784	27.99
257	40.28
257.217	32.08
257.433	77.14
257.65	-21.16
257.866	30.04
258.082	17.75
258.299	-55.98
258.515	17.75
258.732	-12.97
258.948	79.19
259.165	34.13
259.381	50.52
259.597	154.96
259.814	46.42
260.03	50.52
260.246	85.33
260.463	73.04
260.679	44.37
260.895	3.41
261.112	-4.78
261.328	25.94
261.544	9.56
261.761	177.49
261.977	105.81
262.193	42.32
262.409	46.42
262.626	25.94
262.842	36.18
263.058	-19.11
263.274	48.47
263.49	97.62
263.707	17.75
263.923	52.56
264.139	7.51
264.355	42.32
264.571	75.09
264.787	128.34
265.004	32.08
265.22	-6.83
265.436	-10.92
265.652	-33.45
265.868	52.56
266.084	44.37
266.3	48.47
266.516	68.95
266.732	46.42
266.948	79.19
267.164	21.85
267.38	71
267.596	68.95
267.812	-6.83
268.028	79.19
268.244	3.41
268.46	50.52
268.676	73.04
268.892	-4.78
269.108	9.56
269.324	99.67
269.54	-4.78
269.756	9.56
269.972	77.14
270.188	46.42
270.403	44.37
270.619	103.76
270.835	68.95
271.051	89.43
271.267	27.99
271.483	58.71
271.698	85.33
271.914	60.76
272.13	54.61
272.346	1.37
272.562	52.56
272.777	89.43
272.993	9.56
273.209	21.85
273.425	11.61
273.64	73.04
273.856	46.42
274.072	54.61
274.287	25.94
274.503	56.66
274.719	3.41
274.934	-49.83
275.15	19.8
275.366	42.32
275.581	-31.4
275.797	15.7
276.012	68.95
276.228	-4.78
276.444	50.52
276.659	60.76
276.875	9.56
277.09	91.48
277.306	-29.35
277.521	-37.55
277.737	75.09
277.952	44.37
278.168	30.04
278.383	-4.78
278.599	25.94
278.814	-12.97
279.03	79.19
279.245	87.38
279.461	103.76
279.676	79.19
279.892	19.8
280.107	38.23
280.322	7.51
280.538	15.7
280.753	27.99
280.969	36.18
281.184	46.42
281.399	71
281.615	42.32
281.83	73.04
282.045	81.24
282.26	-6.83
282.476	13.65
282.691	54.61
282.906	13.65
283.122	50.52
283.337	27.99
283.552	95.57
283.767	-39.59
283.983	89.43
284.198	32.08
284.413	58.71
284.628	64.85
284.843	93.52
285.058	68.95
285.274	62.8
285.489	11.61
285.704	21.85
285.919	58.71
286.134	36.18
286.349	11.61
286.564	27.99
286.779	-53.93
286.995	25.94
287.21	89.43
287.425	19.8
287.64	58.71
287.855	77.14
288.07	85.33
288.285	50.52
288.5	62.8
288.715	105.81
288.93	-43.69
289.145	50.52
289.36	46.42
289.575	23.89
289.79	-25.26
290.004	42.32
290.219	34.13
290.434	48.47
290.649	73.04
290.864	87.38
291.079	48.47
291.294	99.67
291.509	34.13
291.724	27.99
291.938	68.95
292.153	85.33
292.368	5.46
292.583	91.48
292.798	50.52
293.012	48.47
293.227	40.28
293.442	36.18
293.657	60.76
293.871	19.8
294.086	23.89
294.301	48.47
294.516	23.89
294.73	-4.78
294.945	101.72
295.16	66.9
295.374	95.57
295.589	27.99
295.804	34.13
296.018	54.61
296.233	60.76
296.447	27.99
296.662	79.19
296.877	44.37
297.091	91.48
297.306	116.05
297.52	46.42
297.735	50.52
297.949	40.28
298.164	32.08
298.378	60.76
298.593	36.18
298.807	-33.45
299.022	38.23
299.236	11.61
299.451	114
299.665	68.95
299.88	50.52
300.094	64.85
300.309	36.18
300.523	21.85
300.737	75.09
300.952	54.61
301.166	34.13
301.381	87.38
301.595	46.42
301.809	54.61
302.024	7.51
302.238	7.51
302.452	25.94
302.667	-33.45
302.881	54.61
303.095	56.66
303.309	-58.03
303.524	-0.68
303.738	38.23
303.952	7.51
304.166	42.32
304.381	-47.79
304.595	66.9
304.809	40.28
305.023	62.8
305.237	36.18
305.452	11.61
305.666	83.28
305.88	30.04
306.094	165.2
306.308	42.32
306.522	71
306.736	19.8
306.95	9.56
307.164	7.51
307.379	105.81
307.593	62.8
307.807	81.24
308.021	40.28
308.235	9.56
308.449	75.09
308.663	3.41
308.877	85.33
309.091	89.43
309.305	99.67
309.519	66.9
309.733	40.28
309.947	17.75
310.161	32.08
310.374	101.72
310.588	30.04
310.802	3.41
311.016	38.23
311.23	3.41
311.444	21.85
311.658	23.89
311.872	17.75
312.085	81.24
312.299	-12.97
312.513	-6.83
312.727	36.18
312.941	52.56
313.154	107.86
313.368	62.8
313.582	32.08
313.796	97.62
314.009	48.47
314.223	38.23
314.437	-0.68
314.651	15.7
314.864	15.7
315.078	-2.73
315.292	21.85
315.505	19.8
315.719	50.52
315.933	7.51
316.146	68.95
316.36	44.37
316.573	134.48
316.787	68.95
317.001	95.57
317.214	27.99
317.428	46.42
317.641	34.13
317.855	60.76
318.068	42.32
318.282	64.85
318.495	79.19
318.709	50.52
318.922	17.75
319.136	114
319.349	75.09
319.563	30.04
319.776	19.8
319.99	68.95
320.203	95.57
320.417	118.1
320.63	71
320.843	111.96
321.057	42.32
321.27	83.28
321.483	73.04
321.697	52.56
321.91	13.65
322.124	19.8
322.337	-12.97
322.55	66.9
322.763	42.32
322.977	60.76
323.19	50.52
323.403	66.9
323.617	48.47
323.83	56.66
324.043	42.32
324.256	52.56
324.469	75.09
324.683	126.29
324.896	17.75
325.109	97.62
325.322	40.28
325.535	32.08
325.748	11.61
325.962	54.61
326.175	-4.78
326.388	17.75
326.601	42.32
326.814	87.38
327.027	-10.92
327.24	95.57
327.453	1.37
327.666	-41.64
327.879	11.61
328.092	68.95
328.305	36.18
328.518	7.51
328.731	62.8
328.944	54.61
329.157	21.85
329.37	27.99
329.583	105.81
329.796	68.95
330.009	126.29
330.222	-12.97
330.435	99.67
330.648	36.18
330.861	36.18
331.073	85.33
331.286	44.37
331.499	93.52
331.712	38.23
331.925	-2.73
332.138	11.61
332.35	17.75
332.563	34.13
332.776	-6.83
332.989	42.32
333.202	25.94
333.414	44.37
333.627	64.85
333.84	30.04
334.053	71
334.265	52.56
334.478	40.28
334.691	36.18
334.903	54.61
335.116	60.76
335.329	11.61
335.541	83.28
335.754	42.32
335.966	50.52
336.179	27.99
336.392	93.52
336.604	30.04
336.817	34.13
337.029	109.91
337.242	21.85
337.454	91.48
337.667	99.67
337.88	68.95
338.092	23.89
338.305	58.71
338.517	-31.4
338.729	-19.11
338.942	54.61
339.154	52.56
339.367	64.85
339.579	30.04
339.792	-23.21
340.004	83.28
340.217	-35.5
340.429	1.37
340.641	46.42
340.854	77.14
341.066	21.85
341.278	83.28
341.491	3.41
341.703	25.94
341.915	48.47
342.128	114
342.34	-2.73
342.552	60.76
342.764	58.71
342.977	23.89
343.189	60.76
343.401	40.28
343.613	13.65
343.826	75.09
344.038	58.71
344.25	42.32
344.462	114
344.674	-2.73
344.886	-39.59
345.099	42.32
345.311	40.28
345.523	97.62
345.735	46.42
345.947	60.76
346.159	83.28
346.371	1.37
346.583	60.76
346.795	54.61
347.007	13.65
347.219	5.46
347.431	54.61
347.643	64.85
347.855	-29.35
348.067	-4.78
348.279	-12.97
348.491	52.56
348.703	-41.64
348.915	64.85
349.127	95.57
349.339	124.24
349.551	128.34
349.763	116.05
349.975	19.8
350.187	-0.68
350.399	116.05
350.61	-4.78
350.822	19.8
351.034	64.85
351.246	77.14
351.458	9.56
351.669	42.32
351.881	60.76
352.093	9.56
352.305	52.56
352.517	161.11
352.728	23.89
352.94	62.8
353.152	56.66
353.363	79.19
353.575	66.9
353.787	66.9
353.999	56.66
354.21	7.51
354.422	91.48
354.633	21.85
354.845	64.85
355.057	-21.16
355.268	30.04
355.48	79.19
355.692	-6.83
355.903	-12.97
356.115	87.38
356.326	-15.02
356.538	-4.78
356.749	50.52
356.961	27.99
357.172	56.66
357.384	62.8
357.595	50.52
357.807	5.46
358.018	32.08
358.23	64.85
358.441	30.04
358.653	38.23
358.864	27.99
359.075	-66.22
359.287	17.75
359.498	15.7
359.709	34.13
359.921	-6.83
360.132	21.85
360.344	-8.87
360.555	-6.83
360.766	58.71
360.977	52.56
361.189	-0.68
361.4	91.48
361.611	71
361.823	107.86
362.034	87.38
362.245	44.37
362.456	13.65
362.667	17.75
362.879	58.71
363.09	56.66
363.301	25.94
363.512	85.33
363.723	58.71
363.935	-6.83
364.146	85.33
364.357	68.95
364.568	40.28
364.779	-23.21
364.99	83.28
365.201	68.95
365.412	109.91
365.623	17.75
365.834	42.32
366.045	54.61
366.256	44.37
366.467	64.85
366.678	3.41
366.889	27.99
367.1	11.61
367.311	107.86
367.522	15.7
367.733	-45.74
367.944	40.28
368.155	25.94
368.366	40.28
368.577	54.61
368.788	109.91
368.999	46.42
369.209	9.56
369.42	87.38
369.631	79.19
369.842	32.08
370.053	75.09
370.264	32.08
370.474	105.81
370.685	38.23
370.896	87.38
371.107	60.76
371.317	54.61
371.528	124.24
371.739	25.94
371.95	48.47
372.16	-23.21
372.371	-17.07
372.582	54.61
372.792	101.72
373.003	19.8
373.214	30.04
373.424	19.8
373.635	68.95
373.846	52.56
374.056	68.95
374.267	105.81
374.477	58.71
374.688	83.28
374.898	87.38
375.109	73.04
375.319	17.75
375.53	42.32
375.74	52.56
375.951	42.32
376.161	87.38
376.372	30.04
376.582	58.71
376.793	30.04
377.003	5.46
377.214	66.9
377.424	120.15
377.635	7.51
377.845	68.95
378.055	68.95
378.266	120.15
378.476	77.14
378.686	66.9
378.897	1.37
379.107	13.65
379.317	103.76
379.528	-2.73
379.738	75.09
379.948	58.71
380.158	124.24
380.369	7.51
380.579	36.18
380.789	-8.87
380.999	87.38
381.21	-29.35
381.42	52.56
381.63	40.28
381.84	173.39
382.05	48.47
382.261	40.28
382.471	71
382.681	27.99
382.891	101.72
383.101	52.56
383.311	91.48
383.521	36.18
383.731	56.66
383.941	93.52
384.151	13.65
384.361	54.61
384.571	99.67
384.781	56.66
384.991	77.14
385.201	107.86
385.411	-31.4
385.621	54.61
385.831	9.56
386.041	68.95
386.251	75.09
386.461	9.56
386.671	36.18
386.881	116.05
387.091	42.32
387.301	62.8
387.511	85.33
387.72	15.7
387.93	62.8
388.14	30.04
388.35	58.71
388.56	128.34
388.769	95.57
388.979	120.15
389.189	52.56
389.399	50.52
389.609	64.85
389.818	68.95
390.028	93.52
390.238	83.28
390.447	38.23
390.657	-2.73
390.867	103.76
391.076	19.8
391.286	93.52
391.496	1.37
391.705	75.09
391.915	46.42
392.125	42.32
392.334	62.8
392.544	32.08
392.753	27.99
392.963	62.8
393.172	81.24
393.382	23.89
393.591	56.66
393.801	71
394.01	85.33
394.22	132.44
394.429	99.67
394.639	17.75
394.848	75.09
395.058	62.8
395.267	60.76
395.477	60.76
395.686	95.57
395.895	75.09
396.105	95.57
396.314	157.01
396.524	81.24
396.733	3.41
396.942	107.86
397.152	58.71
397.361	148.82
397.57	25.94
397.78	150.87
397.989	93.52
398.198	146.77
398.407	1.37
398.617	109.91
398.826	83.28
399.035	111.96
399.244	101.72
399.453	118.1
399.663	25.94
399.872	154.96
400.081	103.76
400.29	148.82
400.499	95.57
400.708	107.86
400.917	60.76
401.127	116.05
401.336	79.19
401.545	169.3
401.754	109.91
401.963	140.63
402.172	87.38
402.381	79.19
402.59	81.24
402.799	79.19
403.008	66.9
403.217	81.24
403.426	101.72
403.635	75.09
403.844	91.48
404.053	159.06
404.262	17.75
404.471	64.85
404.68	81.24
404.888	89.43
405.097	56.66
405.306	62.8
405.515	58.71
405.724	83.28
405.933	105.81
406.142	148.82
406.35	177.49
406.559	134.48
406.768	142.68
406.977	154.96
407.185	91.48
407.394	167.25
407.603	148.82
407.812	175.44
408.02	128.34
408.229	208.21
408.438	200.02
408.646	163.15
408.855	154.96
409.064	154.96
409.272	132.44
409.481	163.15
409.69	159.06
409.898	167.25
410.107	142.68
410.315	259.41
410.524	197.97
410.733	181.59
410.941	193.87
411.15	218.45
411.358	249.17
411.567	245.07
411.775	279.89
411.984	273.75
412.192	263.51
412.401	247.12
412.609	267.6
412.818	300.37
413.026	343.38
413.234	275.79
413.443	265.55
413.651	296.27
413.86	302.42
414.068	316.75
414.276	283.99
414.485	345.42
414.693	367.95
414.901	435.53
415.11	456.01
415.318	386.38
415.526	390.48
415.734	521.55
415.943	472.4
416.151	531.79
416.359	492.88
416.567	427.34
416.776	466.25
416.984	542.03
417.192	474.45
417.4	574.8
417.608	593.23
417.817	539.98
418.025	613.71
418.233	660.81
418.441	728.39
418.649	701.77
418.857	705.87
419.065	720.2
419.273	720.2
419.481	763.21
419.689	810.31
419.897	920.9
420.105	857.42
420.313	861.51
420.521	1004.87
420.729	996.68
420.937	976.2
421.145	980.29
421.353	1101.12
421.561	1082.69
421.769	1133.89
421.977	1187.14
422.185	1074.5
422.393	1221.95
422.601	1320.26
422.809	1244.48
423.017	1324.35
423.224	1355.07
423.432	1459.52
423.64	1353.02
423.848	1568.06
424.056	1490.24
424.263	1549.63
424.471	1461.57
424.679	1592.64
424.887	1658.17
425.094	1740.09
425.302	1813.82
425.51	1905.98
425.718	1877.3
425.925	1946.94
426.133	1981.75
426.341	2178.36
426.548	2229.56
426.756	2311.47
426.964	2145.59
427.171	2389.3
427.379	2358.58
427.586	2473.26
427.794	2487.6
428.001	2751.79
428.209	2911.53
428.417	2633.01
428.624	2907.43
428.832	2905.38
429.039	2880.81
429.247	2878.76
429.454	3218.72
429.662	3493.15
429.869	3126.57
430.076	3282.21
430.284	3265.83
430.491	3476.77
430.699	3607.84
430.906	3720.48
431.114	3663.13
431.321	3806.49
431.528	3855.64
431.736	4097.3
431.943	4437.27
432.15	4078.87
432.358	4187.41
432.565	4353.3
432.772	4578.58
432.979	4721.93
433.187	4631.82
433.394	4748.56
433.601	5092.62
433.808	5244.17
434.016	5141.77
434.223	5412.1
434.43	5682.43
434.637	5539.07
434.844	5862.65
435.052	6046.97
435.259	5938.43
435.466	6175.99
435.673	6147.32
435.88	6362.36
436.087	6685.94
436.294	6761.71
436.501	6565.11
436.708	6796.53
436.915	6819.05
437.122	7126.25
437.329	7120.1
437.537	7398.63
437.743	7656.67
437.95	7490.79
438.157	7873.76
438.364	8119.51
438.571	8252.63
438.778	8123.61
438.985	9131.21
439.192	8592.59
439.399	9065.68
439.606	8781.01
439.813	9473.22
440.02	9827.52
440.227	9536.71
440.433	9598.15
440.64	9745.6
440.847	9780.42
441.054	9968.83
441.261	10792.11
441.467	10646.71
441.674	10871.98
441.881	11103.4
442.088	11216.04
442.294	11084.97
442.501	11486.37
442.708	11699.36
442.914	12119.2
443.121	12459.16
443.328	12231.83
443.534	12948.62
443.741	12661.91
443.948	12641.43
444.154	13378.7
444.361	13347.98
444.568	13370.51
444.774	13444.23
444.981	13673.6
445.187	14244.99
445.394	14775.41
445.6	14605.43
445.807	16028.77
446.013	15441
446.22	15539.3
446.426	16284.76
446.633	16258.14
446.839	16897.11
447.046	16125.02
447.252	16839.76
447.459	16890.96
447.665	16991.31
447.871	17669.19
448.078	18379.84
448.284	17568.84
448.491	18299.97
448.697	18687.03
448.903	19117.11
449.11	19371.05
449.316	18959.41
449.522	19465.26
449.728	19641.39
449.935	20022.31
450.141	20102.18
450.347	20304.93
450.553	19678.25
450.76	19829.8
450.966	20663.32
451.172	20708.38
451.378	21267.47
451.584	20712.47
451.791	20980.76
451.997	21099.54
452.203	21199.89
452.409	21658.63
452.615	21210.13
452.821	20567.07
453.027	20610.07
453.233	21668.87
453.44	20501.53
453.646	21021.72
453.852	20884.5
454.058	21433.36
454.264	20601.88
454.47	20966.42
454.676	20894.74
454.882	21253.14
455.088	19360.81
455.294	19735.59
455.5	20091.94
455.705	20460.57
455.911	19743.78
456.117	19029.04
456.323	18758.71
456.529	17783.88
456.735	18549.82
456.941	18285.63
457.147	18037.83
457.352	17400.91
457.558	17345.61
457.764	17204.3
457.97	16813.14
458.176	16673.88
458.381	16477.27
458.587	15737.96
458.793	15668.33
458.999	14896.24
459.204	16032.86
459.41	15686.76
459.616	14709.88
459.821	14515.32
460.027	14404.73
460.233	14247.04
460.438	13552.77
460.644	13724.8
460.85	13071.5
461.055	12948.62
461.261	12858.51
461.466	12070.05
461.672	11682.98
461.878	12393.62
462.083	11547.81
462.289	11435.17
462.494	11164.84
462.7	10720.43
462.905	10448.05
463.111	10886.32
463.316	10790.06
463.522	10886.32
463.727	10755.25
463.932	10843.31
464.138	10507.44
464.343	10536.12
464.549	10333.37
464.754	10570.93
464.959	10648.75
465.165	10503.35
465.37	10104
465.575	9866.43
465.781	10167.48
465.986	10337.46
466.191	10015.93
466.397	9766.08
466.602	9354.44
466.807	9618.63
467.012	9530.56
467.218	9532.61
467.423	9493.7
467.628	9360.58
467.833	9923.77
468.038	9694.4
468.244	9110.73
468.449	9626.82
468.654	9471.17
468.859	9364.68
469.064	9114.83
469.269	8907.98
469.474	8914.13
469.679	9073.87
469.885	9028.81
470.09	9188.55
470.295	8963.28
470.5	8688.85
470.705	8594.64
470.91	8494.29
471.115	8572.11
471.32	8639.7
471.525	8539.35
471.73	8436.95
471.935	8439
472.139	8160.47
472.344	8187.1
472.549	8041.69
472.754	7982.3
472.959	7816.41
473.164	7683.3
473.369	7609.57
473.574	8068.31
473.778	7726.3
473.983	7849.18
474.188	7603.43
474.393	7357.67
474.598	7263.46
474.802	7226.6
475.007	7251.17
475.212	7285.99
475.417	6986.99
475.621	6907.12
475.826	7083.24
476.031	6808.81
476.235	6880.49
476.44	6796.53
476.645	6667.5
476.849	6712.56
477.054	6649.07
477.259	6665.46
477.463	6493.43
477.668	6368.5
477.872	6558.96
478.077	6409.46
478.282	6362.36
478.486	6073.59
478.691	6012.15
478.895	5887.23
479.1	5987.58
479.304	6112.5
479.509	5803.26
479.713	5954.81
479.918	5915.9
480.122	5688.57
480.326	5809.4
480.531	5655.81
480.735	5840.12
480.94	5637.38
481.144	5987.58
481.348	5469.44
481.553	5666.05
481.757	5596.42
481.961	5588.22
482.166	5717.25
482.37	5713.15
482.574	5516.55
482.778	5504.26
482.983	5713.15
483.187	5709.05
483.391	5590.27
483.595	5666.05
483.8	5704.96
484.004	5573.89
484.208	5733.63
484.412	5516.55
484.616	5674.24
484.821	5571.84
485.025	5549.31
485.229	5596.42
485.433	5676.29
485.637	5532.93
485.841	5500.16
486.045	5620.99
486.249	5684.48
486.453	5711.1
486.657	5645.57
486.861	5727.49
487.065	5655.81
487.269	5393.67
487.473	5616.9
487.677	5657.85
487.881	5676.29
488.085	5649.66
488.289	5551.36
488.493	5836.03
488.697	5727.49
488.901	5799.16
489.105	5704.96
489.309	5842.17
489.512	5678.33
489.716	5639.42
489.92	5713.15
490.124	5741.82
490.328	6012.15
490.531	6040.83
490.735	5782.78
490.939	6083.83
491.143	5817.6
491.346	5944.57
491.55	6038.78
491.754	6044.92
491.958	6190.33
492.161	6079.74
492.365	6128.89
492.569	6106.36
492.772	6288.63
492.976	6255.86
493.18	6120.7
493.383	6429.94
493.587	6286.58
493.79	6448.37
493.994	6452.47
494.197	6536.43
494.401	6544.63
494.605	6567.15
494.808	6624.5
495.012	6778.09
495.215	6601.97
495.419	6939.88
495.622	6888.68
495.825	6943.98
496.029	6991.08
496.232	7245.03
496.436	7083.24
496.639	7210.22
496.843	7355.62
497.046	7312.61
497.249	7419.11
497.453	7498.98
497.656	7455.97
497.859	7566.56
498.063	7875.81
498.266	7898.33
498.469	7990.49
498.673	8084.7
498.876	8230.1
499.079	8154.33
499.282	8207.58
499.485	8477.91
499.689	8506.58
499.892	8535.25
500.095	8651.99
500.298	9114.83
500.501	8858.83
500.705	9114.83
500.908	9381.06
501.111	9354.44
501.314	9544.9
501.517	9577.67
501.72	9772.22
501.923	9860.29
502.126	10046.65
502.329	10177.72
502.532	9995.45
502.735	10474.68
502.938	10503.35
503.141	10398.9
503.344	10646.71
503.547	10683.57
503.75	10941.61
503.953	11228.33
504.156	11386.02
504.359	11392.17
504.562	11261.1
504.765	11693.22
504.968	11953.31
505.17	11969.69
505.373	11834.53
505.576	12278.94
505.779	12483.73
505.982	12774.55
506.185	12946.58
506.387	13069.45
506.59	12997.77
506.793	13497.48
506.996	13296.78
507.198	13931.65
507.401	13929.6
507.604	13993.09
507.807	14359.67
508.009	14275.71
508.212	14582.9
508.415	14718.07
508.617	14638.2
508.82	14920.82
509.022	15039.6
509.225	15660.13
509.428	15699.05
509.63	15801.44
509.833	15801.44
510.035	16163.93
510.238	16385.12
510.44	16600.15
510.643	16809.04
510.845	16759.89
511.048	16962.64
511.25	17263.69
511.453	17296.46
511.655	18195.52
511.858	17769.54
512.06	18039.87
512.262	18273.34
512.465	18355.26
512.667	18578.49
512.87	18732.09
513.072	18869.3
513.274	19213.36
513.477	19600.43
513.679	19975.2
513.881	20020.26
514.084	20087.84
514.286	20069.41
514.488	20405.28
514.69	20980.76
514.893	20804.63
515.095	21072.92
515.297	21351.44
515.499	21853.19
515.701	22219.78
515.904	22062.08
516.106	21967.88
516.308	22125.57
516.51	23014.39
516.712	22678.52
516.914	23131.12
517.116	23557.1
517.318	23710.7
517.52	23526.38
517.722	23809
517.925	24222.69
518.127	24327.14
518.329	24617.95
518.531	24691.68
518.733	25039.83
518.935	25439.19
519.136	25674.7
519.338	25676.75
519.54	25764.81
519.742	26198.98
519.944	26184.65
520.146	26770.36
520.348	27091.9
520.55	27095.99
520.752	26960.83
520.954	27716.53
521.155	27231.16
521.357	27884.46
521.559	28287.91
521.761	28439.46
521.963	28443.56
522.164	28738.46
522.366	28847.01
522.568	28892.06
522.77	29193.11
522.971	29778.83
523.173	29551.51
523.375	29449.11
523.576	29842.32
523.778	29770.64
523.98	30419.85
524.181	30294.92
524.383	30616.45
524.584	30735.23
524.786	30911.36
524.988	31095.67
525.189	31591.28
525.391	31570.8
525.592	31650.67
525.794	31581.04
525.995	31834.99
526.197	31921.01
526.398	32025.45
526.6	32252.78
526.801	32469.86
527.003	32693.09
527.204	32824.16
527.406	33031.01
527.607	33254.23
527.808	33166.17
528.01	32754.53
528.211	32740.19
528.412	34024.27
528.614	33801.04
528.815	33712.98
529.016	33944.4
529.218	34020.17
529.419	33897.3
529.62	33991.5
529.822	34024.27
530.023	33938.26
530.224	33723.22
530.425	34331.47
530.626	34401.1
530.828	34130.76
531.029	34759.49
531.23	34335.56
531.431	34673.48
531.632	34833.22
531.833	34995.01
532.035	35058.49
532.236	34626.37
532.437	34976.58
532.638	34898.75
532.839	34814.79
533.04	35347.26
533.241	34734.92
533.442	35709.75
533.643	34894.66
533.844	35205.95
534.045	35541.82
534.246	35322.68
534.447	35517.24
534.648	35769.14
534.849	35496.76
535.05	35332.92
535.251	35658.55
535.451	35529.53
535.652	35758.9
535.853	35857.2
536.054	35955.5
536.255	35957.55
536.456	35846.96
536.657	36342.57
536.857	35705.65
537.058	35414.84
537.259	36193.07
537.46	36256.56
537.66	35767.09
537.861	36383.53
538.062	36281.13
538.263	36539.18
538.463	36141.87
538.664	35842.87
538.865	36172.59
539.065	36668.2
539.266	36045.62
539.466	36965.15
539.667	35713.84
539.868	36444.97
540.068	36283.18
540.269	36053.81
540.469	37108.51
540.67	36191.02
540.87	36731.68
541.071	36526.89
541.271	36725.54
541.472	36741.92
541.672	36219.69
541.873	36307.76
542.073	36096.81
542.274	36950.82
542.474	36485.93
542.675	36117.29
542.875	36840.23
543.075	36729.64
543.276	36338.47
543.476	36797.22
543.676	36438.83
543.877	36827.94
544.077	36418.35
544.277	36307.76
544.478	36430.63
544.678	36795.17
544.878	36596.52
545.078	36625.19
545.279	36916
545.479	36545.32
545.679	36580.14
545.879	36936.48
546.079	36660.01
546.28	37122.85
546.48	36346.67
546.68	36651.81
546.88	36735.78
547.08	36631.33
547.28	36746.02
547.48	36490.02
547.68	36559.66
547.88	36752.16
548.081	36877.09
548.281	36829.99
548.481	37059.36
548.681	36897.57
548.881	37198.62
549.081	36578.09
549.28	36485.93
549.48	36848.42
549.68	37065.5
549.88	37276.44
550.08	36586.28
550.28	36926.24
550.48	36547.37
550.68	36809.51
550.88	36410.15
551.08	36553.51
551.279	36590.38
551.479	36369.19
551.679	37008.16
551.879	36764.45
552.079	36793.12
552.278	36604.71
552.478	36301.61
552.678	36561.7
552.878	36764.45
553.077	36733.73
553.277	36703.01
553.477	36780.84
553.676	36690.73
553.876	37100.32
554.076	36363.05
554.275	36539.18
554.475	36365.1
554.674	36510.5
554.874	36518.7
555.074	36631.33
555.273	36629.29
555.473	36674.34
555.672	36533.03
555.872	36363.05
556.071	36471.59
556.271	36680.49
556.47	35959.6
556.67	36035.38
556.869	36346.67
557.068	36467.5
557.268	36225.84
557.467	36518.7
557.667	36037.42
557.866	36365.1
558.065	36369.19
558.265	36227.88
558.464	36070.19
558.663	36356.91
558.863	35932.98
559.062	36758.31
559.261	36045.62
559.461	36520.74
559.66	35846.96
559.859	36289.32
560.058	35885.87
560.258	36502.31
560.457	35797.81
560.656	36119.34
560.855	35859.25
561.054	36262.7
561.253	35494.71
561.453	36193.07
561.652	36215.6
561.851	36350.76
562.05	35787.57
562.249	35859.25
562.448	35838.77
562.647	35943.22
562.846	35834.67
563.045	35982.13
563.244	35531.58
563.443	36297.52
563.642	35711.8
563.841	35898.16
564.04	35509.05
564.239	36035.38
564.438	35562.29
564.637	35945.26
564.836	35978.03
565.035	35523.38
565.234	35627.83
565.432	35711.8
565.631	35191.61
565.83	35791.67
566.029	35402.55
566.228	35701.56
566.427	35611.45
566.625	35384.12
566.824	35078.97
567.023	35298.11
567.222	34722.63
567.42	35222.33
567.619	35058.49
567.818	35097.41
568.016	35021.63
568.215	35439.42
568.414	35187.52
568.612	35066.69
568.811	34908.99
569.01	35214.14
569.208	34759.49
569.407	35228.48
569.605	34954.05
569.804	35078.97
570.002	34767.68
570.201	34913.09
570.4	35109.69
570.598	34466.63
570.797	34491.21
570.995	34816.83
571.193	34366.28
571.392	34749.25
571.59	34050.89
571.789	34399.05
571.987	34458.44
572.186	34241.35
572.384	33907.54
572.582	34335.56
572.781	34585.41
572.979	34192.2
573.177	34302.79
573.376	34255.69
573.574	33751.89
573.772	34517.83
573.971	33741.65
574.169	33700.69
574.367	33508.18
574.565	33934.16
574.763	33524.57
574.962	33549.14
575.16	33403.74
575.358	33346.39
575.556	32928.61
575.754	33729.36
575.952	33192.79
576.151	33481.56
576.349	32955.23
576.547	32910.18
576.745	33076.06
576.943	33041.25
577.141	32908.13
577.339	32988
577.537	32529.25
577.735	32785.25
577.933	32344.94
578.131	32820.06
578.329	32293.74
578.527	32295.78
578.725	32422.76
578.923	32430.95
579.121	32199.53
579.319	31990.64
579.516	32242.54
579.714	32342.89
579.912	32197.48
580.11	32142.19
580.308	31820.66
580.506	31718.26
580.704	31550.32
580.901	31685.49
581.099	32181.1
581.297	31183.74
581.495	31357.81
581.692	31527.8
581.89	31396.73
582.088	31665.01
582.285	31230.84
582.483	31523.7
582.681	31357.81
582.878	31163.26
583.076	30966.65
583.274	31146.87
583.471	30710.66
583.669	30802.82
583.866	30432.13
584.064	30684.03
584.262	30595.97
584.459	30460.8
584.657	30577.54
584.854	30200.71
585.052	30116.75
585.249	30092.17
585.447	30237.58
585.644	29823.89
585.841	30051.21
586.039	30051.21
586.236	29815.69
586.434	29866.89
586.631	29473.68
586.828	29639.57
587.026	29733.78
587.223	29344.66
587.42	29647.76
587.618	29678.48
587.815	29162.39
588.012	29209.5
588.21	29258.65
588.407	29631.38
588.604	28793.76
588.801	28455.84
588.999	28763.04
589.196	28599.2
589.393	28916.64
589.59	28486.56
589.787	28496.8
589.984	28588.96
590.182	28085.16
590.379	28357.54
590.576	28150.7
590.773	28406.69
590.97	28085.16
591.167	28201.89
591.364	27667.38
591.561	27798.45
591.758	27669.42
591.955	27972.52
592.152	27644.85
592.349	27575.22
592.546	27216.82
592.743	27792.3
592.94	27239.35
593.137	27417.52
593.334	27610.03
593.531	26919.87
593.727	26995.64
593.924	27065.27
594.121	26796.99
594.318	26827.71
594.515	26684.35
594.712	26641.34
594.908	26743.74
595.105	26651.58
595.302	26414.02
595.499	26887.1
595.696	26334.15
595.892	26422.21
596.089	26375.11
596.286	26559.42
596.482	25906.12
596.679	26045.38
596.876	26135.49
597.072	26012.62
597.269	26018.76
597.466	25899.98
597.662	25637.84
597.859	25486.29
598.055	25736.14
598.252	25254.87
598.448	25537.49
598.645	25218
598.841	25121.75
599.038	25248.72
599.234	25027.54
599.431	24785.88
599.627	24685.53
599.824	25371.6
600.02	24882.14
600.217	24757.21
600.413	24454.11
600.609	24677.34
600.806	24611.81
601.002	24499.17
601.198	24560.61
601.395	24364
601.591	24089.57
601.787	24161.25
601.984	24273.89
602.18	24267.75
602.376	23753.71
602.572	23665.64
602.769	23684.08
602.965	23806.95
603.161	23962.6
603.357	23481.33
603.553	23538.67
603.75	23458.8
603.946	23106.55
604.142	23626.73
604.338	23120.88
604.534	23176.18
604.73	22989.81
604.926	22846.46
605.122	23088.12
605.318	22629.37
605.514	22889.46
605.71	22801.4
605.906	22610.94
606.102	22623.23
606.298	22668.28
606.494	22645.76
606.69	22526.97
606.886	22467.58
607.082	22336.51
607.278	22211.59
607.474	22066.18
607.67	22281.22
607.866	21955.59
608.062	22195.2
608.257	22150.15
608.453	22043.65
608.649	22207.49
608.845	21892.1
609.041	21812.23
609.236	21853.19
609.432	21740.55
609.628	21672.97
609.824	21580.81
610.019	21906.44
610.215	21580.81
610.411	21672.97
610.606	21459.98
610.802	21681.16
610.998	21498.89
611.193	21439.5
611.389	21419.02
611.584	21005.33
611.78	21124.11
611.976	21300.24
612.171	21183.51
612.367	21111.83
612.562	20917.27
612.758	20956.18
612.953	20796.44
613.149	21253.14
613.344	20880.41
613.539	21208.08
613.735	20519.96
613.93	20954.13
614.126	20751.38
614.321	20880.41
614.517	20524.06
614.712	20587.55
614.907	20407.33
615.103	20325.41
615.298	20337.69
615.493	20487.2
615.688	20042.79
615.884	20579.36
616.079	20188.19
616.274	20190.24
616.47	20231.2
616.665	20116.51
616.86	19794.98
617.055	19889.19
617.25	19940.39
617.445	20243.49
617.641	19383.34
617.836	19819.56
618.031	19418.16
618.226	19788.84
618.421	19483.69
618.616	19797.03
618.811	19282.99
619.006	19758.12
619.201	19274.8
619.396	19414.06
619.591	19244.08
619.786	19129.39
619.981	18646.07
620.176	19096.63
620.371	18869.3
620.566	18891.83
620.761	18990.13
620.956	18863.16
621.151	18355.26
621.346	18672.7
621.541	18109.5
621.735	18633.78
621.93	18218.05
622.125	18218.05
622.32	18050.11
622.515	17910.85
622.709	17683.53
622.904	17871.94
623.099	17661
623.294	17773.64
623.488	17405
623.683	17648.71
623.878	17372.24
624.072	17523.79
624.267	17208.4
624.462	17185.87
624.656	17032.27
624.851	16952.4
625.046	16890.96
625.24	16686.17
625.435	16671.83
625.629	16542.81
625.824	16479.32
626.018	16462.94
626.213	15944.8
626.407	15973.47
626.602	15809.64
626.796	16061.54
626.991	15715.43
627.185	15758.44
627.38	15731.81
627.574	15666.28
627.768	15551.59
627.963	15713.38
628.157	15299.69
628.352	15438.95
628.546	15346.8
628.74	15260.78
628.935	15133.81
629.129	15062.13
629.323	14720.12
629.517	15232.11
629.712	14691.45
629.906	14709.88
630.1	14662.77
630.294	14654.58
630.489	14498.94
630.683	14404.73
630.877	14492.79
631.071	14439.55
631.265	14509.18
631.459	14093.44
631.653	13884.55
631.848	14013.57
632.042	13884.55
632.236	14101.63
632.43	13849.73
632.624	13798.53
632.818	13931.65
633.012	13413.51
633.206	13560.97
633.4	13526.15
633.594	13190.28
633.788	13452.42
633.982	13206.67
634.176	13229.2
634.369	12915.86
634.563	13278.35
634.757	12747.92
634.951	12985.49
635.145	12805.27
635.339	12960.91
635.533	12524.69
635.726	12815.51
635.92	12336.28
636.114	12729.49
636.308	12371.1
636.501	12522.65
636.695	12395.67
636.889	12430.49
637.083	12285.08
637.276	12184.73
637.47	12174.49
637.664	11973.79
637.857	11883.68
638.051	11906.21
638.244	11664.55
638.438	11709.6
638.632	11656.36
638.825	11707.55
639.019	11656.36
639.212	11525.29
639.406	11496.61
639.599	11488.42
639.793	11334.82
639.986	11084.97
640.18	11041.96
640.373	11181.23
640.567	11029.68
640.76	11226.28
640.954	10814.64
641.147	10783.92
641.34	10773.68
641.534	10796.21
641.727	10775.73
641.92	10663.09
642.114	10446.01
642.307	10523.83
642.5	10532.02
642.694	10290.36
642.887	10366.14
643.08	10585.27
643.273	10114.24
643.467	10101.95
643.66	10122.43
643.853	9981.12
644.046	9704.64
644.239	9839.81
644.432	9710.79
644.626	9757.89
644.819	9675.97
645.012	9747.65
645.205	9563.33
645.398	9630.91
645.591	9329.86
645.784	9438.41
645.977	9374.92
646.17	9202.89
646.363	9139.4
646.556	9094.35
646.749	9118.92
646.942	9135.31
647.135	8979.66
647.328	8889.55
647.521	9055.44
647.714	8920.27
647.907	8955.08
648.099	8879.31
648.292	8817.87
648.485	8445.14
648.678	8576.21
648.871	8590.55
649.064	8479.96
649.256	8580.31
649.449	8387.8
649.642	8391.89
649.835	8228.06
650.027	8183
650.22	8080.6
650.413	8056.03
650.605	8060.12
650.798	7959.77
650.991	8088.79
651.183	7894.24
651.376	8008.92
651.568	8017.11
651.761	7871.71
651.954	7853.28
652.146	7658.72
652.339	7644.38
652.531	7765.21
652.724	7369.96
652.916	7558.37
653.109	7648.48
653.301	7578.85
653.494	7537.89
653.686	7202.02
653.879	7310.57
654.071	7216.36
654.263	7023.85
654.456	7161.06
654.648	7208.17
654.84	7083.24
655.033	7138.54
655.225	7048.43
655.417	6862.06
655.61	6933.74
655.802	7097.58
655.994	6671.6
656.186	6896.88
656.379	6776.05
656.571	6661.36
656.763	6640.88
656.955	6552.82
657.148	6501.62
657.34	6489.33
657.532	6558.96
657.724	6540.53
657.916	6577.39
658.108	6403.32
658.3	6350.07
658.492	6337.78
658.684	6298.87
658.876	6120.7
659.068	6061.3
659.26	6165.75
659.452	6020.35
659.644	6149.37
659.836	6055.16
660.028	6018.3
660.22	5997.82
660.412	5883.13
660.604	5664
660.796	5879.04
660.988	5684.48
661.18	5719.29
661.372	5633.28
661.563	5610.75
661.755	5567.74
661.947	5555.46
662.139	5457.15
662.331	5410.05
662.522	5387.52
662.714	5324.04
662.906	5227.78
663.097	5180.68
663.289	5115.14
663.481	5137.67
663.673	5235.97
663.864	5143.81
664.056	5088.52
664.247	5004.55
664.439	5035.27
664.631	5160.2
664.822	5022.98
665.014	4881.67
665.205	4785.42
665.397	4832.52
665.588	4769.04
665.78	4723.98
665.971	4742.41
666.163	4775.18
666.354	4689.17
666.546	4576.53
666.737	4566.29
666.929	4484.37
667.12	4472.08
667.311	4449.55
667.503	4371.73
667.694	4465.94
667.885	4498.7
668.077	4461.84
668.268	4326.68
668.459	4324.63
668.651	4207.89
668.842	4302.1
669.033	4203.8
669.224	4166.93
669.416	4273.43
669.607	4091.16
669.798	3992.86
669.989	4207.89
670.18	4027.67
670.371	4060.44
670.563	4033.82
670.754	4023.58
670.945	3968.28
671.136	4037.91
671.327	3800.35
671.518	3937.56
671.709	3826.97
671.9	3839.26
672.091	3732.76
672.282	3845.4
672.473	3665.18
672.664	3695.9
672.855	3886.36
673.046	3786.01
673.237	3720.48
673.428	3501.34
673.619	3622.17
673.809	3613.98
674	3587.36
674.191	3505.44
674.382	3530.02
674.573	3530.02
674.764	3503.39
674.954	3456.29
675.145	3398.95
675.336	3618.08
675.527	3495.2
675.717	3439.9
675.908	3431.71
676.099	3382.56
676.289	3388.71
676.48	3292.45
676.671	3278.12
676.861	3460.38
677.052	3267.88
677.243	3249.44
677.433	3329.31
677.624	3265.83
677.814	3183.91
678.005	3173.67
678.195	3241.25
678.386	3224.87
678.576	3204.39
678.767	3224.87
678.957	3202.34
679.148	3204.39
679.338	3198.24
679.529	3157.29
679.719	3116.33
679.909	3116.33
680.1	3114.28
680.29	3161.38
680.481	3046.69
680.671	3011.88
680.861	2958.63
681.052	3007.78
681.242	2960.68
681.432	3095.85
681.622	3020.07
681.813	2878.76
682.003	3028.26
682.193	3013.93
682.383	2925.86
682.573	2995.5
682.764	2952.49
682.954	2946.34
683.144	2932.01
683.334	2944.3
683.524	2802.99
683.714	3034.41
683.904	2817.32
684.094	2977.06
684.284	3067.17
684.474	2999.59
684.664	2852.14
684.854	3007.78
685.044	2852.14
685.234	2848.04
685.424	2903.34
685.614	2942.25
685.804	2839.85
685.994	2970.92
686.184	2940.2
686.374	2893.1
686.564	2932.01
686.753	2856.23
686.943	2749.74
687.133	2831.66
687.323	2831.66
687.513	2839.85
687.702	2854.19
687.892	2790.7
688.082	2733.36
688.272	2919.72
688.461	2854.19
688.651	2805.03
688.841	2839.85
689.03	2876.71
689.22	2827.56
689.41	2878.76
689.599	2841.9
689.789	2835.75
689.979	2897.19
690.168	2831.66
690.358	2817.32
690.547	2751.79
690.737	2837.8
690.926	2743.6
691.116	2702.64
691.305	2845.99
691.495	2981.16
691.684	2776.36
691.874	2796.84
692.063	2684.2
692.252	2843.95
692.442	2716.97
692.631	2704.68
692.82	2784.55
693.01	2723.12
693.199	2770.22
693.388	2712.88
693.578	2739.5
693.767	2841.9
693.956	2694.44
694.146	2698.54
694.335	2835.75
694.524	2788.65
694.713	2712.88
694.902	2721.07
695.092	2682.16
695.281	2551.09
695.47	2729.26
695.659	2719.02
695.848	2641.2
696.037	2704.68
696.226	2716.97
696.415	2673.96
696.604	2581.81
696.793	2540.85
696.982	2618.67
697.171	2653.48
697.36	2557.23
697.549	2692.4
697.738	2612.53
697.927	2614.57
698.116	2598.19
698.305	2477.36
698.494	2594.09
698.683	2571.57
698.872	2469.17
699.061	2448.69
699.25	2452.78
699.438	2475.31
699.627	2430.26
699.816	2411.82
700.005	2415.92
700.193	2522.41
700.382	2518.32
700.571	2516.27
700.76	2399.54
700.948	2411.82
701.137	2426.16
701.326	2415.92
701.514	2368.82
701.703	2393.39
701.892	2256.18
702.08	2401.58
702.269	2458.93
702.457	2327.86
702.646	2385.2
702.834	2311.47
703.023	2342.19
703.212	2229.56
703.4	2237.75
703.589	2352.43
703.777	2399.54
703.965	2159.92
704.154	2270.51
704.342	2262.32
704.531	2243.89
704.719	2032.95
704.907	2317.62
705.096	2170.16
705.284	2247.99
705.472	2157.88
705.661	2204.98
705.849	2057.53
706.037	2080.05
706.226	2065.72
706.414	2243.89
706.602	2209.08
706.79	2123.06
706.979	2121.01
707.167	2014.52
707.355	2063.67
707.543	2147.64
707.731	1975.61
707.919	2037.05
708.107	2049.33
708.296	2051.38
708.484	2053.43
708.672	1963.32
708.86	1989.94
709.048	1967.42
709.236	1975.61
709.424	1869.11
709.612	1854.78
709.8	1977.66
709.988	1957.18
710.176	1793.34
710.364	1942.84
710.551	1801.53
710.739	1873.21
710.927	1856.83
711.115	1930.55
711.303	1903.93
711.491	1785.15
711.679	1860.92
711.866	1867.06
712.054	1801.53
712.242	1905.98
712.43	1834.3
712.617	1756.47
712.805	1846.59
712.993	1758.52
713.181	1797.43
713.368	1822.01
713.556	1738.04
713.744	1670.46
713.931	1766.71
714.119	1766.71
714.306	1711.42
714.494	1711.42
714.682	1735.99
714.869	1629.5
715.057	1715.52
715.244	1658.17
715.432	1635.64
715.619	1686.84
715.807	1649.98
715.994	1553.73
716.182	1469.76
716.369	1578.3
716.556	1619.26
716.744	1627.45
716.931	1428.8
717.119	1623.36
717.306	1617.21
717.493	1553.73
717.681	1543.49
717.868	1566.01
718.055	1477.95
718.242	1553.73
718.43	1566.01
718.617	1467.71
718.804	1527.1
718.991	1502.53
719.179	1514.81
719.366	1422.66
719.553	1389.89
719.74	1404.22
719.927	1439.04
720.114	1475.9
720.301	1475.9
720.488	1457.47
720.676	1391.94
720.863	1404.22
721.05	1451.33
721.237	1361.22
721.424	1316.16
721.611	1449.28
721.798	1385.79
721.985	1353.02
722.172	1377.6
722.358	1312.07
722.545	1135.94
722.732	1344.83
722.919	1420.61
723.106	1322.31
723.293	1271.11
723.48	1260.87
723.667	1232.19
723.853	1273.15
724.04	1252.67
724.227	1248.58
724.414	1262.91
724.6	1181
724.787	1271.11
724.974	1252.67
725.161	1181
725.347	1215.81
725.534	1199.43
725.72	1332.54
725.907	1326.4
726.094	1207.62
726.28	1193.28
726.467	1197.38
726.653	1176.9
726.84	1228.1
727.027	1168.71
727.213	1160.52
727.4	1137.99
727.586	1181
727.773	1172.8
727.959	1056.07
728.145	1176.9
728.332	1119.56
728.518	1127.75
728.705	1064.26
728.891	1187.14
729.077	1148.23
729.264	1133.89
729.45	1066.31
729.636	1047.88
729.823	1152.32
730.009	1060.17
730.195	1060.17
730.382	959.81
730.568	1103.17
730.754	1082.69
730.94	1197.38
731.126	902.47
731.313	1062.21
731.499	1027.4
731.685	1029.45
731.871	1035.59
732.057	1043.78
732.243	986.44
732.429	959.81
732.615	963.91
732.801	984.39
732.987	925
733.173	939.33
733.359	859.46
733.545	980.29
733.731	955.72
733.917	951.62
734.103	1013.06
734.289	931.14
734.475	931.14
734.661	943.43
734.847	894.28
735.033	836.94
735.219	953.67
735.404	804.17
735.59	898.38
735.776	873.8
735.962	922.95
736.148	963.91
736.333	890.18
736.519	978.25
736.705	953.67
736.89	892.23
737.076	851.27
737.262	818.5
737.447	841.03
737.633	875.85
737.819	775.5
738.004	781.64
738.19	814.41
738.375	841.03
738.561	841.03
738.747	853.32
738.932	832.84
739.118	834.89
739.303	879.94
739.489	836.94
739.674	734.54
739.859	845.13
740.045	818.5
740.23	771.4
740.416	771.4
740.601	726.35
740.786	843.08
740.972	742.73
741.157	732.49
741.342	767.31
741.528	765.26
741.713	759.11
741.898	791.88
742.084	791.88
742.269	808.27
742.454	769.35
742.639	687.43
742.824	845.13
743.01	722.25
743.195	771.4
743.38	726.35
743.565	744.78
743.75	775.5
743.935	646.48
744.12	681.29
744.305	656.72
744.49	716.11
744.675	640.33
744.86	738.63
745.045	742.73
745.23	636.24
745.415	646.48
745.6	628.04
745.785	689.48
745.97	677.19
746.155	687.43
746.34	570.7
746.525	705.87
746.71	646.48
746.895	652.62
747.079	587.08
747.264	652.62
747.449	589.13
747.634	664.91
747.819	621.9
748.003	642.38
748.188	666.96
748.373	664.91
748.557	619.85
748.742	646.48
748.927	626
749.111	570.7
749.296	709.96
749.481	658.76
749.665	576.84
749.85	572.75
750.034	662.86
750.219	597.32
750.404	591.18
750.588	593.23
750.773	460.11
750.957	544.08
751.141	517.45
751.326	505.17
751.51	488.78
751.695	562.51
751.879	476.49
752.064	505.17
752.248	570.7
752.432	542.03
752.617	560.46
752.801	550.22
752.985	503.12
753.17	529.74
753.354	476.49
753.538	525.65
753.722	499.02
753.907	496.97
754.091	496.97
754.275	525.65
754.459	486.73
754.643	490.83
754.828	597.32
755.012	562.51
755.196	476.49
755.38	525.65
755.564	542.03
755.748	527.69
755.932	533.84
756.116	494.93
756.3	453.97
756.484	505.17
756.668	525.65
756.852	490.83
757.036	429.39
757.22	486.73
757.404	484.69
757.588	527.69
757.772	474.45
757.956	402.77
758.14	527.69
758.323	449.87
758.507	402.77
758.691	441.68
758.875	453.97
759.059	398.67
759.242	447.82
759.426	441.68
759.61	458.06
759.794	458.06
759.977	468.3
760.161	492.88
760.345	439.63
760.528	476.49
760.712	462.16
760.895	398.67
761.079	335.18
761.263	367.95
761.446	361.81
761.63	470.35
761.813	318.8
761.997	468.3
762.18	413.01
762.364	453.97
762.547	384.34
762.731	365.9
762.914	370
763.098	419.15
763.281	396.62
763.464	378.19
763.648	415.06
763.831	415.06
764.015	431.44
764.198	370
764.381	413.01
764.564	361.81
764.748	396.62
764.931	396.62
765.114	388.43
765.297	406.86
765.481	337.23
765.664	482.64
765.847	349.52
766.03	384.34
766.213	363.86
766.397	466.25
766.58	324.94
766.763	427.34
766.946	374.1
767.129	351.57
767.312	427.34
767.495	322.9
767.678	370
767.861	410.96
768.044	300.37
768.227	445.77
768.41	347.47
768.593	419.15
768.776	347.47
768.959	326.99
769.142	345.42
769.324	324.94
769.507	331.09
769.69	306.51
769.873	329.04
770.056	349.52
770.239	363.86
770.421	308.56
770.604	341.33
770.787	345.42
770.97	355.66
771.152	343.38
771.335	314.7
771.518	413.01
771.7	372.05
771.883	349.52
772.066	345.42
772.248	314.7
772.431	402.77
772.613	306.51
772.796	382.29
772.978	345.42
773.161	279.89
773.343	318.8
773.526	384.34
773.708	349.52
773.891	320.85
774.073	247.12
774.256	376.14
774.438	216.4
774.621	314.7
774.803	302.42
774.985	355.66
775.168	310.61
775.35	322.9
775.532	361.81
775.715	302.42
775.897	308.56
776.079	349.52
776.261	273.75
776.444	365.9
776.626	245.07
776.808	251.22
776.99	312.66
777.173	413.01
777.355	273.75
777.537	240.98
777.719	238.93
777.901	257.36
778.083	271.7
778.265	335.18
778.447	308.56
778.629	249.17
778.811	271.7
778.993	306.51
779.175	269.65
779.357	308.56
779.539	234.83
779.721	206.16
779.903	261.46
780.085	273.75
780.267	271.7
780.449	306.51
780.631	318.8
780.812	308.56
780.994	298.32
781.176	238.93
781.358	245.07
781.54	257.36
781.721	337.23
781.903	232.79
782.085	238.93
782.267	312.66
782.448	312.66
782.63	175.44
782.812	234.83
782.993	216.4
783.175	230.74
783.357	154.96
783.538	220.5
783.72	218.45
783.901	230.74
784.083	255.31
784.264	322.9
784.446	240.98
784.627	228.69
784.809	179.54
784.99	191.83
785.172	218.45
785.353	263.51
785.535	138.58
785.716	226.64
785.897	183.63
786.079	243.03
786.26	238.93
786.441	183.63
786.623	208.21
786.804	187.73
786.985	222.55
787.167	236.88
787.348	148.82
787.529	177.49
787.71	152.91
787.891	167.25
788.073	183.63
788.254	230.74
788.435	146.77
788.616	195.92
788.797	222.55
788.978	81.24
789.159	193.87
789.34	206.16
789.522	173.39
789.703	161.11
789.884	200.02
790.065	187.73
790.246	157.01
790.427	255.31
790.607	183.63
790.788	191.83
790.969	134.48
791.15	226.64
791.331	183.63
791.512	183.63
791.693	159.06
791.874	240.98
792.054	154.96
792.235	208.21
792.416	62.8
792.597	148.82
792.778	138.58
792.958	159.06
793.139	152.91
793.32	154.96
793.5	169.3
793.681	66.9
793.862	116.05
794.042	216.4
794.223	173.39
794.404	116.05
794.584	132.44
794.765	161.11
794.945	163.15
795.126	173.39
795.306	118.1
795.487	202.07
795.667	83.28
795.848	103.76
796.028	42.32
796.209	159.06
796.389	68.95
796.57	111.96
796.75	128.34
796.93	140.63
797.111	136.53
797.291	142.68
797.471	107.86
797.652	197.97
797.832	140.63
798.012	111.96
798.192	81.24
798.373	99.67
798.553	124.24
798.733	107.86
798.913	111.96
799.093	109.91
799.274	130.39
799.454	73.04
799.634	175.44
799.814	132.44
799.994	118.1
800.174	218.45
800.354	109.91
800.534	154.96
800.714	146.77
800.894	58.71
801.074	165.2
801.254	85.33
801.434	154.96
801.614	200.02
801.794	73.04
801.974	326.99
802.154	64.85
802.334	189.78
802.514	173.39
802.693	101.72
802.873	91.48
803.053	144.72
803.233	116.05
803.413	105.81
803.592	177.49
803.772	91.48
803.952	66.9
804.131	83.28
804.311	120.15
804.491	103.76
804.67	71
804.85	111.96
805.03	79.19
805.209	101.72
805.389	152.91
805.568	83.28
805.748	187.73
805.928	99.67
806.107	146.77
806.287	206.16
806.466	105.81
806.646	132.44
806.825	128.34
807.004	101.72
807.184	118.1
807.363	85.33
807.543	152.91
807.722	122.2
807.901	58.71
808.081	68.95
808.26	42.32
808.439	52.56
808.619	124.24
808.798	36.18
808.977	77.14
809.156	132.44
809.336	87.38
809.515	142.68
809.694	81.24
809.873	60.76
810.052	111.96
810.231	146.77
810.411	52.56
810.59	128.34
810.769	97.62
810.948	154.96
811.127	171.35
811.306	52.56
811.485	52.56
811.664	68.95
811.843	114
812.022	136.53
812.201	60.76
812.38	93.52
812.559	40.28
812.737	157.01
812.916	116.05
813.095	136.53
813.274	50.52
813.453	111.96
813.632	79.19
813.811	83.28
813.989	58.71
814.168	93.52
814.347	134.48
814.526	66.9
814.704	44.37
814.883	103.76
815.062	52.56
815.24	81.24
815.419	52.56
815.598	93.52
815.776	85.33
815.955	58.71
816.133	87.38
816.312	99.67
816.49	73.04
816.669	87.38
816.847	-6.83
817.026	126.29
817.204	120.15
817.383	93.52
817.561	46.42
817.74	107.86
817.918	38.23
818.097	116.05
818.275	34.13
818.453	83.28
818.632	91.48
818.81	60.76
818.988	87.38
819.167	50.52
819.345	148.82
819.523	54.61
819.701	95.57
819.879	13.65
820.058	50.52
820.236	50.52
820.414	3.41
820.592	99.67
820.77	58.71
820.948	52.56
821.127	99.67
821.305	140.63
821.483	87.38
821.661	62.8
821.839	103.76
822.017	46.42
822.195	27.99
822.373	11.61
822.551	87.38
822.729	126.29
822.907	75.09
823.085	42.32
823.262	93.52
823.44	73.04
823.618	54.61
823.796	107.86
823.974	36.18
824.152	68.95
824.329	25.94
824.507	52.56
824.685	97.62
824.863	42.32
825.04	73.04
825.218	46.42
825.396	46.42
825.574	62.8
825.751	48.47
825.929	73.04
826.107	42.32
826.284	68.95
826.462	27.99
826.639	-23.21
826.817	122.2
826.994	30.04
827.172	62.8
827.349	124.24
827.527	77.14
827.704	30.04
827.882	73.04
828.059	71
828.237	132.44
828.414	107.86
828.591	15.7
828.769	128.34
828.946	105.81
829.124	54.61
829.301	73.04
829.478	89.43
829.655	169.3
829.833	38.23
830.01	27.99
830.187	48.47
830.364	50.52
830.542	52.56
830.719	68.95
830.896	75.09
831.073	77.14
831.25	75.09
831.427	40.28
831.604	48.47
831.782	60.76
831.959	64.85
832.136	27.99
832.313	46.42
832.49	75.09
832.667	60.76
832.844	91.48
833.021	105.81
833.198	-25.26
833.374	85.33
833.551	19.8
833.728	83.28
833.905	68.95
834.082	77.14
834.259	105.81
834.436	36.18
834.612	25.94
834.789	32.08
834.966	83.28
835.143	83.28
835.319	83.28
835.496	62.8
835.673	36.18
835.85	93.52
836.026	42.32
836.203	64.85
836.38	-23.21
836.556	36.18
836.733	44.37
836.909	62.8
837.086	73.04
837.262	85.33
837.439	83.28
837.616	52.56
837.792	1.37
837.968	138.58
838.145	-2.73
838.321	73.04
838.498	34.13
838.674	60.76
838.851	77.14
839.027	103.76
839.203	42.32
839.38	7.51
839.556	95.57
839.732	66.9
839.909	56.66
840.085	66.9
840.261	48.47
840.437	38.23
840.614	52.56
840.79	64.85
840.966	-43.69
841.142	58.71
841.318	68.95
841.494	50.52
841.671	13.65
841.847	42.32
842.023	83.28
842.199	38.23
842.375	93.52
842.551	7.51
842.727	34.13
842.903	52.56
843.079	40.28
843.255	44.37
843.431	50.52
843.607	9.56
843.783	42.32
843.959	30.04
844.134	15.7
844.31	46.42
844.486	56.66
844.662	52.56
844.838	91.48
845.013	-8.87
845.189	52.56
845.365	5.46
845.541	-6.83
845.716	75.09
845.892	17.75
846.068	23.89
846.244	-21.16
846.419	40.28
846.595	-51.88
846.77	-4.78
846.946	34.13
847.122	30.04
847.297	11.61
847.473	71
847.648	-4.78
847.824	50.52
847.999	32.08
848.175	56.66
848.35	5.46
848.526	71
848.701	50.52
848.876	-8.87
849.052	27.99
849.227	17.75
849.403	30.04
849.578	73.04
849.753	66.9
849.929	130.39
850.104	44.37
850.279	40.28
850.454	-2.73
850.63	1.37
850.805	68.95
850.98	64.85
851.155	83.28
851.33	83.28
851.505	30.04
851.681	19.8
851.856	3.41
852.031	30.04
852.206	77.14
852.381	50.52
852.556	116.05
852.731	27.99
852.906	36.18
853.081	7.51
853.256	48.47
853.431	-31.4
853.606	27.99
853.781	40.28
853.956	27.99
854.131	52.56
854.305	81.24
854.48	-21.16
854.655	-55.98
854.83	19.8
855.005	-21.16
855.18	89.43
855.354	50.52
855.529	19.8
855.704	36.18
855.879	48.47
856.053	91.48
856.228	-0.68
856.403	9.56
856.577	105.81
856.752	7.51
856.926	-31.4
857.101	27.99
857.276	-2.73
857.45	13.65
857.625	52.56
857.799	60.76
857.974	-31.4
858.148	7.51
858.323	75.09
858.497	46.42
858.672	17.75
858.846	-8.87
859.02	-0.68
859.195	36.18
859.369	-2.73
859.543	48.47
859.718	30.04
859.892	-6.83
860.066	25.94
860.241	9.56
860.415	-21.16
860.589	-21.16
860.763	52.56
860.938	42.32
861.112	118.1
861.286	-23.21
861.46	34.13
861.634	66.9
861.808	52.56
861.982	19.8
862.157	32.08
862.331	58.71
862.505	-12.97
862.679	85.33
862.853	68.95
863.027	-8.87
863.201	-19.11
863.375	-12.97
863.549	30.04
863.722	-17.07
863.896	107.86
864.07	42.32
864.244	66.9
864.418	58.71
864.592	21.85
864.766	-35.5
864.939	64.85
865.113	95.57
865.287	23.89
865.461	-6.83
865.634	40.28
865.808	42.32
865.982	50.52
866.156	-4.78
866.329	-6.83
866.503	38.23
866.676	25.94
866.85	-45.74
867.024	-4.78
867.197	36.18
867.371	62.8
867.544	-37.55
867.718	30.04
867.891	-39.59
868.065	13.65
868.238	15.7
868.412	50.52
868.585	-29.35
868.759	85.33
868.932	21.85
869.105	46.42
869.279	-49.83
869.452	58.71
869.625	-29.35
869.799	-64.17
869.972	62.8
870.145	-31.4
870.319	25.94
870.492	68.95
870.665	58.71
870.838	25.94
871.011	-29.35
871.185	-37.55
871.358	85.33
871.531	-17.07
871.704	36.18
871.877	81.24
872.05	-19.11
872.223	60.76
872.396	-10.92
872.569	44.37
872.742	25.94
872.915	19.8
873.088	73.04
873.261	77.14
873.434	44.37
873.607	58.71
873.78	89.43
873.953	-47.79
874.126	42.32
874.299	17.75
874.471	62.8
874.644	5.46
874.817	48.47
874.99	30.04
875.163	40.28
875.335	-21.16
875.508	23.89
875.681	62.8
875.853	-27.31
876.026	-2.73
876.199	23.89
876.371	52.56
876.544	-6.83
876.717	93.52
876.889	81.24
877.062	21.85
877.234	50.52
877.407	-19.11
877.579	21.85
877.752	71
877.924	32.08
878.097	7.51
878.269	109.91
878.442	107.86
878.614	30.04
878.786	-12.97
878.959	79.19
879.131	42.32
879.303	64.85
879.476	-27.31
879.648	42.32
879.82	83.28
879.993	11.61
880.165	1.37
880.337	5.46
880.509	-10.92
880.681	-66.22
880.854	38.23
881.026	-6.83
881.198	46.42
881.37	34.13
881.542	3.41
881.714	-17.07
881.886	21.85
882.058	40.28
882.23	58.71
882.402	62.8
882.574	27.99
882.746	13.65
882.918	23.89
883.09	27.99
883.262	23.89
883.434	7.51
883.606	83.28
883.778	25.94
883.95	42.32
884.122	30.04
884.293	21.85
884.465	32.08
884.637	-6.83
884.809	1.37
884.98	36.18
885.152	34.13
885.324	68.95
885.496	23.89
885.667	62.8
885.839	11.61
886.011	25.94
886.182	-31.4
886.354	17.75
886.525	1.37
886.697	-12.97
886.869	-72.36
887.04	103.76
887.212	-4.78
887.383	52.56
887.555	30.04
887.726	-4.78
887.897	-10.92
888.069	60.76
888.24	-35.5
888.412	-0.68
888.583	60.76
888.754	13.65
888.926	30.04
889.097	9.56
889.268	34.13
889.44	83.28
889.611	64.85
889.782	-19.11
889.953	19.8
890.125	-35.5
890.296	34.13
890.467	44.37
890.638	30.04
890.809	118.1
890.98	32.08
891.151	32.08
891.323	15.7
891.494	73.04
891.665	-51.88
891.836	9.56
892.007	103.76
892.178	-23.21
892.349	-8.87
892.52	54.61
892.691	-39.59
892.862	3.41
893.032	44.37
893.203	95.57
893.374	25.94
893.545	36.18
893.716	17.75
893.887	68.95
894.057	17.75
894.228	58.71
894.399	7.51
894.57	42.32
894.74	19.8
894.911	50.52
895.082	-12.97
895.253	-27.31
895.423	91.48
895.594	64.85
895.764	-55.98
895.935	25.94
896.106	21.85
896.276	62.8
896.447	52.56
896.617	27.99
896.788	-39.59
896.958	79.19
897.129	68.95
897.299	3.41
897.47	81.24
897.64	19.8
897.81	73.04
897.981	58.71
898.151	-19.11
898.322	-10.92
898.492	-29.35
898.662	17.75
898.832	62.8
899.003	50.52
899.173	71
899.343	15.7
899.513	62.8
