Data from USB4F104151__40__12-53-45-075.txt Node

Date: Fri Mar 14 12:53:45 EDT 2025
User: louis
Spectrometer: USB4F10415
Trigger mode: 4
Integration Time (sec): 1.000000E-2
Scans to average: 1
Electric dark correction enabled: true
Nonlinearity correction enabled: false
Boxcar width: 0
XAxis mode: Wavelengths
Number of Pixels in Spectrum: 3648
>>>>>Begin Spectral Data<<<<<
178.204	-53.76
178.424	-53.76
178.644	-53.76
178.864	-66.05
179.084	-31.23
179.304	-47.62
179.524	-39.42
179.744	-31.23
179.964	50.69
180.184	-16.9
180.404	-14.85
180.624	60.93
180.844	22.02
181.064	-12.8
181.283	50.69
181.503	-12.8
181.723	-8.7
181.943	-14.85
182.163	-33.28
182.383	3.58
182.602	1.54
182.822	32.26
183.042	36.35
183.262	46.59
183.482	1.54
183.701	-14.85
183.921	-20.99
184.141	1.54
184.361	44.54
184.58	-10.75
184.8	11.78
185.02	46.59
185.239	32.26
185.459	-4.61
185.679	28.16
185.898	-31.23
186.118	34.3
186.338	-23.04
186.557	-0.51
186.777	-10.75
186.997	-16.9
187.216	13.82
187.436	-10.75
187.655	-27.14
187.875	52.74
188.095	7.68
188.314	30.21
188.534	15.87
188.753	52.74
188.973	5.63
189.192	11.78
189.412	13.82
189.631	85.5
189.851	-14.85
190.07	7.68
190.29	50.69
190.509	-29.18
190.729	-14.85
190.948	24.06
191.168	65.02
191.387	13.82
191.607	3.58
191.826	-27.14
192.045	-18.94
192.265	-23.04
192.484	3.58
192.704	-39.42
192.923	-45.57
193.142	83.45
193.362	13.82
193.581	-12.8
193.8	22.02
194.02	1.54
194.239	3.58
194.458	-4.61
194.678	-55.81
194.897	73.21
195.116	-2.56
195.335	-2.56
195.555	79.36
195.774	-12.8
195.993	46.59
196.212	-35.33
196.432	44.54
196.651	52.74
196.87	-33.28
197.089	3.58
197.308	-12.8
197.528	42.5
197.747	-18.94
197.966	3.58
198.185	58.88
198.404	52.74
198.623	-10.75
198.842	17.92
199.062	30.21
199.281	5.63
199.5	-27.14
199.719	28.16
199.938	-6.66
200.157	54.78
200.376	15.87
200.595	32.26
200.814	-16.9
201.033	-2.56
201.252	52.74
201.471	30.21
201.69	-41.47
201.909	69.12
202.128	-20.99
202.347	52.74
202.566	36.35
202.785	-12.8
203.004	32.26
203.223	81.41
203.442	-33.28
203.661	-12.8
203.879	-12.8
204.098	52.74
204.317	30.21
204.536	13.82
204.755	40.45
204.974	11.78
205.193	54.78
205.411	62.98
205.63	-41.47
205.849	-45.57
206.068	36.35
206.287	28.16
206.505	-0.51
206.724	-0.51
206.943	-0.51
207.162	28.16
207.381	9.73
207.599	58.88
207.818	50.69
208.037	3.58
208.255	9.73
208.474	46.59
208.693	-0.51
208.911	24.06
209.13	-8.7
209.349	24.06
209.567	-29.18
209.786	46.59
210.005	-31.23
210.223	5.63
210.442	30.21
210.661	62.98
210.879	32.26
211.098	3.58
211.316	38.4
211.535	17.92
211.753	24.06
211.972	32.26
212.191	-29.18
212.409	73.21
212.628	73.21
212.846	-6.66
213.065	-20.99
213.283	15.87
213.502	34.3
213.72	42.5
213.938	50.69
214.157	52.74
214.375	-29.18
214.594	7.68
214.812	56.83
215.031	13.82
215.249	-39.42
215.467	-18.94
215.686	11.78
215.904	44.54
216.122	-33.28
216.341	-39.42
216.559	42.5
216.778	17.92
216.996	17.92
217.214	-37.38
217.432	-92.67
217.651	28.16
217.869	-2.56
218.087	9.73
218.306	30.21
218.524	50.69
218.742	-18.94
218.96	-10.75
219.179	-4.61
219.397	24.06
219.615	26.11
219.833	52.74
220.051	-31.23
220.27	-0.51
220.488	50.69
220.706	52.74
220.924	-18.94
221.142	28.16
221.36	-18.94
221.578	34.3
221.796	-25.09
222.015	11.78
222.233	-20.99
222.451	-25.09
222.669	-2.56
222.887	3.58
223.105	32.26
223.323	17.92
223.541	-18.94
223.759	56.83
223.977	-76.29
224.195	-14.85
224.413	24.06
224.631	62.98
224.849	3.58
225.067	50.69
225.285	-10.75
225.503	3.58
225.721	-49.66
225.939	-18.94
226.157	62.98
226.375	50.69
226.592	-18.94
226.81	52.74
227.028	62.98
227.246	1.54
227.464	52.74
227.682	7.68
227.9	38.4
228.117	15.87
228.335	-10.75
228.553	-31.23
228.771	36.35
228.989	65.02
229.206	-0.51
229.424	44.54
229.642	-0.51
229.86	-18.94
230.077	-12.8
230.295	15.87
230.513	60.93
230.731	60.93
230.948	3.58
231.166	-20.99
231.384	87.55
231.601	-23.04
231.819	-14.85
232.037	30.21
232.254	85.5
232.472	99.84
232.689	50.69
232.907	50.69
233.125	-8.7
233.342	34.3
233.56	-14.85
233.777	62.98
233.995	44.54
234.213	44.54
234.43	-18.94
234.648	-29.18
234.865	30.21
235.083	-31.23
235.3	30.21
235.518	11.78
235.735	65.02
235.953	19.97
236.17	-39.42
236.388	-23.04
236.605	15.87
236.822	-25.09
237.04	3.58
237.257	-10.75
237.475	89.6
237.692	5.63
237.909	3.58
238.127	50.69
238.344	34.3
238.562	-18.94
238.779	11.78
238.996	52.74
239.214	30.21
239.431	-8.7
239.648	-2.56
239.865	30.21
240.083	-12.8
240.3	19.97
240.517	-29.18
240.735	65.02
240.952	-2.56
241.169	5.63
241.386	40.45
241.603	75.26
241.821	-8.7
242.038	62.98
242.255	44.54
242.472	7.68
242.689	30.21
242.907	11.78
243.124	11.78
243.341	36.35
243.558	52.74
243.775	52.74
243.992	-4.61
244.209	95.74
244.426	42.5
244.643	73.21
244.86	36.35
245.078	60.93
245.295	83.45
245.512	36.35
245.729	46.59
245.946	34.3
246.163	30.21
246.38	-33.28
246.597	-41.47
246.814	19.97
247.031	17.92
247.248	7.68
247.464	60.93
247.681	69.12
247.898	-51.71
248.115	28.16
248.332	22.02
248.549	30.21
248.766	42.5
248.983	-33.28
249.2	28.16
249.417	-4.61
249.633	5.63
249.85	48.64
250.067	-23.04
250.284	-33.28
250.501	120.32
250.717	1.54
250.934	-29.18
251.151	58.88
251.368	56.83
251.585	17.92
251.801	-39.42
252.018	-27.14
252.235	-18.94
252.451	3.58
252.668	26.11
252.885	83.45
253.102	36.35
253.318	52.74
253.535	-20.99
253.752	-2.56
253.968	56.83
254.185	-0.51
254.401	-8.7
254.618	-45.57
254.835	-12.8
255.051	13.82
255.268	17.92
255.484	48.64
255.701	42.5
255.917	5.63
256.134	9.73
256.351	3.58
256.567	56.83
256.784	38.4
257	-20.99
257.217	-35.33
257.433	-18.94
257.65	1.54
257.866	-14.85
258.082	-0.51
258.299	-4.61
258.515	75.26
258.732	-35.33
258.948	34.3
259.165	58.88
259.381	-33.28
259.597	87.55
259.814	28.16
260.03	65.02
260.246	44.54
260.463	-72.19
260.679	40.45
260.895	1.54
261.112	-33.28
261.328	-39.42
261.544	1.54
261.761	50.69
261.977	3.58
262.193	83.45
262.409	46.59
262.626	62.98
262.842	19.97
263.058	36.35
263.274	50.69
263.49	32.26
263.707	-4.61
263.923	46.59
264.139	38.4
264.355	-16.9
264.571	-51.71
264.787	38.4
265.004	83.45
265.22	-61.95
265.436	36.35
265.652	1.54
265.868	58.88
266.084	58.88
266.3	30.21
266.516	48.64
266.732	44.54
266.948	24.06
267.164	-2.56
267.38	42.5
267.596	52.74
267.812	34.3
268.028	-64
268.244	67.07
268.46	-2.56
268.676	13.82
268.892	-31.23
269.108	17.92
269.324	71.17
269.54	19.97
269.756	40.45
269.972	50.69
270.188	89.6
270.403	-72.19
270.619	69.12
270.835	-23.04
271.051	40.45
271.267	56.83
271.483	1.54
271.698	-10.75
271.914	34.3
272.13	19.97
272.346	95.74
272.562	1.54
272.777	-2.56
272.993	28.16
273.209	-10.75
273.425	40.45
273.64	60.93
273.856	79.36
274.072	-33.28
274.287	-14.85
274.503	30.21
274.719	32.26
274.934	58.88
275.15	5.63
275.366	26.11
275.581	11.78
275.797	-0.51
276.012	15.87
276.228	-8.7
276.444	-27.14
276.659	114.17
276.875	32.26
277.09	-25.09
277.306	-29.18
277.521	26.11
277.737	-23.04
277.952	34.3
278.168	-10.75
278.383	17.92
278.599	-4.61
278.814	15.87
279.03	5.63
279.245	19.97
279.461	-74.24
279.676	-27.14
279.892	69.12
280.107	91.65
280.322	5.63
280.538	26.11
280.753	-12.8
280.969	-35.33
281.184	-59.9
281.399	30.21
281.615	9.73
281.83	-18.94
282.045	5.63
282.26	30.21
282.476	-6.66
282.691	38.4
282.906	30.21
283.122	-47.62
283.337	-39.42
283.552	15.87
283.767	19.97
283.983	40.45
284.198	11.78
284.413	67.07
284.628	-31.23
284.843	83.45
285.058	71.17
285.274	46.59
285.489	36.35
285.704	15.87
285.919	-16.9
286.134	-18.94
286.349	13.82
286.564	32.26
286.779	62.98
286.995	69.12
287.21	-2.56
287.425	11.78
287.64	-4.61
287.855	56.83
288.07	34.3
288.285	36.35
288.5	1.54
288.715	-6.66
288.93	73.21
289.145	62.98
289.36	32.26
289.575	-51.71
289.79	36.35
290.004	38.4
290.219	-6.66
290.434	56.83
290.649	3.58
290.864	46.59
291.079	-37.38
291.294	116.22
291.509	-47.62
291.724	9.73
291.938	-2.56
292.153	42.5
292.368	-23.04
292.583	1.54
292.798	-10.75
293.012	40.45
293.227	-2.56
293.442	-18.94
293.657	36.35
293.871	11.78
294.086	73.21
294.301	40.45
294.516	13.82
294.73	58.88
294.945	7.68
295.16	62.98
295.374	1.54
295.589	-59.9
295.804	-18.94
296.018	54.78
296.233	58.88
296.447	52.74
296.662	83.45
296.877	67.07
297.091	34.3
297.306	52.74
297.52	-29.18
297.735	89.6
297.949	3.58
298.164	54.78
298.378	-20.99
298.593	26.11
298.807	19.97
299.022	44.54
299.236	46.59
299.451	40.45
299.665	-16.9
299.88	-14.85
300.094	24.06
300.309	112.13
300.523	-25.09
300.737	-12.8
300.952	79.36
301.166	44.54
301.381	-57.86
301.595	79.36
301.809	-25.09
302.024	7.68
302.238	-6.66
302.452	-25.09
302.667	11.78
302.881	62.98
303.095	30.21
303.309	50.69
303.524	87.55
303.738	65.02
303.952	3.58
304.166	36.35
304.381	36.35
304.595	44.54
304.809	-4.61
305.023	93.69
305.237	93.69
305.452	-37.38
305.666	40.45
305.88	32.26
306.094	38.4
306.308	52.74
306.522	9.73
306.736	151.04
306.95	28.16
307.164	-10.75
307.379	-59.9
307.593	40.45
307.807	32.26
308.021	93.69
308.235	30.21
308.449	-27.14
308.663	44.54
308.877	69.12
309.091	-25.09
309.305	26.11
309.519	34.3
309.733	71.17
309.947	1.54
310.161	75.26
310.374	71.17
310.588	60.93
310.802	28.16
311.016	7.68
311.23	60.93
311.444	5.63
311.658	19.97
311.872	95.74
312.085	24.06
312.299	22.02
312.513	81.41
312.727	-10.75
312.941	99.84
313.154	103.93
313.368	75.26
313.582	-20.99
313.796	26.11
314.009	-20.99
314.223	71.17
314.437	65.02
314.651	46.59
314.864	28.16
315.078	38.4
315.292	-20.99
315.505	13.82
315.719	52.74
315.933	60.93
316.146	-47.62
316.36	-8.7
316.573	9.73
316.787	26.11
317.001	71.17
317.214	-16.9
317.428	-47.62
317.641	-23.04
317.855	36.35
318.068	85.5
318.282	67.07
318.495	13.82
318.709	-33.28
318.922	-47.62
319.136	65.02
319.349	3.58
319.563	85.5
319.776	22.02
319.99	42.5
320.203	-59.9
320.417	-23.04
320.63	50.69
320.843	40.45
321.057	-29.18
321.27	89.6
321.483	17.92
321.697	60.93
321.91	50.69
322.124	-2.56
322.337	-25.09
322.55	85.5
322.763	-43.52
322.977	60.93
323.19	73.21
323.403	34.3
323.617	1.54
323.83	-29.18
324.043	38.4
324.256	89.6
324.469	26.11
324.683	116.22
324.896	60.93
325.109	62.98
325.322	-14.85
325.535	91.65
325.748	52.74
325.962	93.69
326.175	34.3
326.388	-23.04
326.601	26.11
326.814	81.41
327.027	-18.94
327.24	50.69
327.453	13.82
327.666	-33.28
327.879	26.11
328.092	-2.56
328.305	17.92
328.518	22.02
328.731	46.59
328.944	-16.9
329.157	44.54
329.37	-35.33
329.583	58.88
329.796	30.21
330.009	-27.14
330.222	40.45
330.435	17.92
330.648	38.4
330.861	-6.66
331.073	52.74
331.286	67.07
331.499	17.92
331.712	-33.28
331.925	24.06
332.138	58.88
332.35	83.45
332.563	24.06
332.776	-29.18
332.989	28.16
333.202	71.17
333.414	-12.8
333.627	7.68
333.84	-20.99
334.053	34.3
334.265	-10.75
334.478	-20.99
334.691	36.35
334.903	28.16
335.116	56.83
335.329	28.16
335.541	9.73
335.754	46.59
335.966	19.97
336.179	1.54
336.392	22.02
336.604	32.26
336.817	3.58
337.029	67.07
337.242	54.78
337.454	46.59
337.667	-6.66
337.88	56.83
338.092	15.87
338.305	83.45
338.517	9.73
338.729	40.45
338.942	38.4
339.154	-18.94
339.367	-31.23
339.579	44.54
339.792	-20.99
340.004	-41.47
340.217	-20.99
340.429	-59.9
340.641	42.5
340.854	-68.09
341.066	42.5
341.278	46.59
341.491	71.17
341.703	75.26
341.915	-41.47
342.128	58.88
342.34	73.21
342.552	-27.14
342.764	1.54
342.977	-31.23
343.189	19.97
343.401	50.69
343.613	7.68
343.826	19.97
344.038	-14.85
344.25	91.65
344.462	58.88
344.674	73.21
344.886	36.35
345.099	91.65
345.311	26.11
345.523	-6.66
345.735	17.92
345.947	85.5
346.159	38.4
346.371	85.5
346.583	-6.66
346.795	7.68
347.007	101.89
347.219	32.26
347.431	-12.8
347.643	-12.8
347.855	-2.56
348.067	-6.66
348.279	-25.09
348.491	67.07
348.703	118.27
348.915	32.26
349.127	46.59
349.339	71.17
349.551	1.54
349.763	-59.9
349.975	-45.57
350.187	-27.14
350.399	40.45
350.61	9.73
350.822	54.78
351.034	36.35
351.246	-2.56
351.458	7.68
351.669	42.5
351.881	32.26
352.093	73.21
352.305	36.35
352.517	7.68
352.728	34.3
352.94	-39.42
353.152	3.58
353.363	83.45
353.575	3.58
353.787	9.73
353.999	32.26
354.21	44.54
354.422	77.31
354.633	54.78
354.845	56.83
355.057	42.5
355.268	22.02
355.48	11.78
355.692	17.92
355.903	30.21
356.115	54.78
356.326	7.68
356.538	105.98
356.749	42.5
356.961	93.69
357.172	95.74
357.384	22.02
357.595	-10.75
357.807	-18.94
358.018	28.16
358.23	36.35
358.441	30.21
358.653	62.98
358.864	103.93
359.075	46.59
359.287	-14.85
359.498	87.55
359.709	-8.7
359.921	60.93
360.132	15.87
360.344	-10.75
360.555	48.64
360.766	-12.8
360.977	50.69
361.189	65.02
361.4	-2.56
361.611	28.16
361.823	-4.61
362.034	-2.56
362.245	28.16
362.456	17.92
362.667	42.5
362.879	75.26
363.09	69.12
363.301	87.55
363.512	44.54
363.723	-16.9
363.935	32.26
364.146	60.93
364.357	-14.85
364.568	71.17
364.779	19.97
364.99	140.8
365.201	-6.66
365.412	83.45
365.623	40.45
365.834	-4.61
366.045	-41.47
366.256	52.74
366.467	26.11
366.678	3.58
366.889	5.63
367.1	42.5
367.311	5.63
367.522	-33.28
367.733	-4.61
367.944	24.06
368.155	44.54
368.366	-4.61
368.577	5.63
368.788	81.41
368.999	-96.77
369.209	19.97
369.42	58.88
369.631	22.02
369.842	83.45
370.053	17.92
370.264	24.06
370.474	58.88
370.685	56.83
370.896	75.26
371.107	9.73
371.317	-18.94
371.528	60.93
371.739	28.16
371.95	40.45
372.16	24.06
372.371	36.35
372.582	28.16
372.792	75.26
373.003	58.88
373.214	40.45
373.424	42.5
373.635	77.31
373.846	46.59
374.056	-10.75
374.267	79.36
374.477	44.54
374.688	22.02
374.898	-37.38
375.109	54.78
375.319	15.87
375.53	36.35
375.74	13.82
375.951	-45.57
376.161	13.82
376.372	3.58
376.582	28.16
376.793	85.5
377.003	19.97
377.214	67.07
377.424	11.78
377.635	36.35
377.845	93.69
378.055	48.64
378.266	24.06
378.476	60.93
378.686	71.17
378.897	24.06
379.107	91.65
379.317	67.07
379.528	71.17
379.738	85.5
379.948	19.97
380.158	22.02
380.369	77.31
380.579	-18.94
380.789	7.68
380.999	67.07
381.21	-4.61
381.42	1.54
381.63	52.74
381.84	38.4
382.05	40.45
382.261	116.22
382.471	22.02
382.681	26.11
382.891	44.54
383.101	87.55
383.311	75.26
383.521	83.45
383.731	-20.99
383.941	73.21
384.151	-8.7
384.361	-0.51
384.571	114.17
384.781	83.45
384.991	1.54
385.201	28.16
385.411	3.58
385.621	-18.94
385.831	28.16
386.041	-12.8
386.251	-0.51
386.461	75.26
386.671	46.59
386.881	36.35
387.091	71.17
387.301	58.88
387.511	46.59
387.72	65.02
387.93	26.11
388.14	157.18
388.35	77.31
388.56	65.02
388.769	-12.8
388.979	28.16
389.189	71.17
389.399	34.3
389.609	30.21
389.818	40.45
390.028	30.21
390.238	13.82
390.447	3.58
390.657	36.35
390.867	52.74
391.076	-14.85
391.286	44.54
391.496	38.4
391.705	56.83
391.915	116.22
392.125	50.69
392.334	7.68
392.544	126.46
392.753	-14.85
392.963	71.17
393.172	28.16
393.382	91.65
393.591	38.4
393.801	52.74
394.01	71.17
394.22	52.74
394.429	-10.75
394.639	56.83
394.848	11.78
395.058	122.37
395.267	30.21
395.477	95.74
395.686	116.22
395.895	103.93
396.105	105.98
396.314	48.64
396.524	85.5
396.733	103.93
396.942	99.84
397.152	26.11
397.361	79.36
397.57	3.58
397.78	79.36
397.989	54.78
398.198	114.17
398.407	24.06
398.617	103.93
398.826	99.84
399.035	97.79
399.244	83.45
399.453	112.13
399.663	44.54
399.872	69.12
400.081	3.58
400.29	60.93
400.499	46.59
400.708	38.4
400.917	50.69
401.127	103.93
401.336	91.65
401.545	101.89
401.754	26.11
401.963	93.69
402.172	42.5
402.381	50.69
402.59	73.21
402.799	7.68
403.008	83.45
403.217	62.98
403.426	87.55
403.635	38.4
403.844	67.07
404.053	120.32
404.262	140.8
404.471	110.08
404.68	67.07
404.888	85.5
405.097	67.07
405.306	93.69
405.515	118.27
405.724	93.69
405.933	30.21
406.142	128.51
406.35	167.42
406.559	44.54
406.768	3.58
406.977	173.57
407.185	75.26
407.394	77.31
407.603	101.89
407.812	163.33
408.02	132.61
408.229	169.47
408.438	56.83
408.646	120.32
408.855	130.56
409.064	155.13
409.272	175.61
409.481	83.45
409.69	120.32
409.898	105.98
410.107	177.66
410.315	206.33
410.524	148.99
410.733	130.56
410.941	235
411.15	175.61
411.358	208.38
411.567	161.28
411.775	247.29
411.984	288.25
412.192	167.42
412.401	298.49
412.609	278.01
412.818	226.81
413.026	243.2
413.234	284.16
413.443	290.3
413.651	230.91
413.86	339.45
414.068	329.21
414.276	329.21
414.485	349.69
414.693	265.72
414.901	370.17
415.11	368.12
415.318	341.5
415.526	376.31
415.734	392.7
415.943	327.16
416.151	409.08
416.359	445.95
416.567	429.56
416.776	435.71
416.984	505.34
417.192	462.33
417.4	439.8
417.608	454.14
417.817	493.05
418.025	615.93
418.233	665.08
418.441	529.91
418.649	591.35
418.857	599.54
419.065	652.79
419.273	542.2
419.481	703.99
419.689	753.14
419.897	724.47
420.105	792.05
420.313	814.58
420.521	865.78
420.729	785.91
420.937	855.54
421.145	923.12
421.353	900.59
421.561	964.08
421.769	962.03
421.977	1046
422.185	1023.47
422.393	1076.72
422.601	1236.46
422.809	1156.59
423.017	1175.02
423.224	1148.4
423.432	1144.3
423.64	1265.13
423.848	1334.76
424.056	1332.72
424.263	1445.35
424.471	1469.93
424.679	1453.55
424.887	1474.03
425.094	1631.72
425.302	1637.86
425.51	1699.3
425.718	1701.35
425.925	1752.55
426.133	1762.79
426.341	2012.64
426.548	2041.31
426.756	1961.44
426.964	1983.97
427.171	2135.52
427.379	2147.81
427.586	2254.3
427.794	2352.6
428.001	2332.12
428.209	2426.33
428.417	2442.71
428.624	2551.26
428.832	2586.07
429.039	2608.6
429.247	2686.42
429.454	2788.82
429.662	2915.8
429.869	2917.84
430.076	2993.62
430.284	2958.8
430.491	3028.43
430.699	3380.68
430.906	3255.76
431.114	3282.38
431.321	3415.5
431.528	3399.12
431.736	3685.83
431.943	3767.75
432.15	3788.23
432.358	3868.1
432.565	4093.38
432.772	3986.88
432.979	4302.27
433.187	4271.55
433.394	4502.97
433.601	4773.3
433.808	4605.37
434.016	4621.75
434.223	4724.15
434.43	5137.84
434.637	4922.8
434.844	5451.18
435.052	5440.94
435.259	5445.04
435.466	5277.1
435.673	5256.62
435.88	5574.06
436.087	5991.84
436.294	6061.48
436.501	6045.09
436.708	5942.69
436.915	6278.56
437.122	6593.95
437.329	6389.15
437.537	6825.37
437.743	6765.98
437.95	6641.05
438.157	7095.7
438.364	7347.6
438.571	7415.18
438.778	7398.8
438.985	7980.42
439.192	7986.57
439.399	8062.34
439.606	8080.77
439.813	8287.62
440.02	8840.57
440.227	8533.37
440.433	8750.46
440.64	8967.54
440.847	8871.29
441.054	9096.57
441.261	9731.44
441.467	9598.32
441.674	9727.34
441.881	10081.64
442.088	10210.66
442.294	9760.11
442.501	10304.87
442.708	10196.32
442.914	10687.84
443.121	11232.6
443.328	11025.75
443.534	11781.45
443.741	11355.47
443.948	11339.09
444.154	12076.36
444.361	12137.8
444.568	11914.57
444.774	12250.44
444.981	12444.99
445.187	12799.29
445.394	13276.47
445.6	13059.38
445.807	14224.68
446.013	13702.45
446.22	14105.9
446.426	14550.31
446.633	14744.86
446.839	15131.93
447.046	14796.06
447.252	15254.81
447.459	15506.71
447.665	15316.25
447.871	16133.39
448.078	16948.48
448.284	16033.04
448.491	16323.85
448.697	16995.58
448.903	17270.01
449.11	17466.61
449.316	17054.97
449.522	17372.41
449.728	17986.8
449.935	17972.46
450.141	17929.45
450.347	18363.62
450.553	17939.69
450.76	18001.13
450.966	18863.33
451.172	18410.73
451.378	18908.38
451.584	18556.13
451.791	19064.03
451.997	18898.14
452.203	19162.33
452.409	19408.09
452.615	18963.68
452.821	18459.88
453.027	18322.66
453.233	19336.41
453.44	18558.18
453.646	18822.37
453.852	18724.07
454.058	19180.76
454.264	18459.88
454.47	18984.16
454.676	18584.8
454.882	19336.41
455.088	17446.13
455.294	17761.52
455.5	18089.2
455.705	18232.55
455.911	17386.74
456.117	17171.71
456.323	16819.46
456.529	16026.89
456.735	16880.89
456.941	15994.12
457.147	16045.32
457.352	15576.34
457.558	15385.88
457.764	15496.47
457.97	15174.94
458.176	14964
458.381	14767.39
458.587	14013.74
458.793	13993.26
458.999	13385.01
459.204	14314.79
459.41	13919.53
459.616	12977.47
459.821	12993.85
460.027	12920.12
460.233	12531.01
460.438	12199.24
460.644	12066.12
460.85	11466.07
461.055	11558.22
461.261	11365.71
461.466	10413.41
461.672	10308.96
461.878	11085.14
462.083	10579.29
462.289	10265.96
462.494	10112.36
462.7	9616.75
462.905	9280.88
463.111	9663.85
463.316	9823.59
463.522	9495.92
463.727	9532.78
463.932	9713
464.138	9344.37
464.343	9201.01
464.549	9080.18
464.754	9475.44
464.959	9231.73
465.165	9323.89
465.37	9129.33
465.575	8768.89
465.781	9149.81
465.986	9201.01
466.191	8850.81
466.397	8719.74
466.602	8066.44
466.807	8519.04
467.012	8627.58
467.218	8471.93
467.423	8357.25
467.628	8469.89
467.833	8682.88
468.038	8291.71
468.244	8328.58
468.449	8613.24
468.654	8086.92
468.859	8394.11
469.064	8156.55
469.269	7789.96
469.474	7890.31
469.679	8121.73
469.885	7880.07
470.09	7994.76
470.295	7902.6
470.5	7757.19
470.705	7787.91
470.91	7613.84
471.115	7499.15
471.32	7615.88
471.525	7568.78
471.73	7527.82
471.935	7495.05
472.139	7306.64
472.344	7212.43
472.549	7062.93
472.754	7155.09
472.959	6940.05
473.164	6800.79
473.369	6866.33
473.574	7026.07
473.778	6956.44
473.983	6745.5
474.188	6755.74
474.393	6487.45
474.598	6604.19
474.802	6393.25
475.007	6243.74
475.212	6387.1
475.417	6217.12
475.621	6038.95
475.826	6272.42
476.031	6208.93
476.235	6008.23
476.44	6110.63
476.645	5989.8
476.849	5883.3
477.054	5967.27
477.259	5729.7
477.463	5709.22
477.668	5524.91
477.872	5735.85
478.077	5514.67
478.282	5498.28
478.486	5371.31
478.691	5500.33
478.895	5486
479.1	5154.23
479.304	5230
479.509	5264.82
479.713	5381.55
479.918	5240.24
480.122	5309.87
480.326	5242.29
480.531	5103.03
480.735	5002.68
480.94	5107.12
481.144	5334.45
481.348	4955.57
481.553	5045.68
481.757	4996.53
481.961	5045.68
482.166	5025.2
482.37	4945.33
482.574	4869.56
482.778	4830.65
482.983	4814.26
483.187	5014.96
483.391	5082.55
483.595	4949.43
483.8	4974
484.004	4963.76
484.208	4998.58
484.412	5023.16
484.616	4814.26
484.821	5055.92
485.025	5039.54
485.229	4967.86
485.433	4935.09
485.637	5051.83
485.841	4937.14
486.045	4834.74
486.249	5094.83
486.453	4988.34
486.657	4918.71
486.861	4904.37
487.065	5023.16
487.269	4998.58
487.473	4908.47
487.677	5076.4
487.881	4898.23
488.085	4933.04
488.289	4961.72
488.493	4939.19
488.697	4990.39
488.901	4951.48
489.105	5053.87
489.309	5098.93
489.512	4965.81
489.716	5074.35
489.92	5066.16
490.124	4867.51
490.328	5143.99
490.531	5146.03
490.735	5180.85
490.939	5262.77
491.143	5207.47
491.346	5168.56
491.55	5406.13
491.754	5381.55
491.958	5293.49
492.161	5363.12
492.365	5359.02
492.569	5338.54
492.772	5260.72
492.976	5483.95
493.18	5436.85
493.383	5543.34
493.587	5631.4
493.79	5590.44
493.994	5623.21
494.197	5559.72
494.401	5721.51
494.605	5748.14
494.808	5764.52
495.012	5934.5
495.215	5682.6
495.419	5916.07
495.622	6006.18
495.825	6051.24
496.029	6120.87
496.232	6290.85
496.436	6198.69
496.639	6294.94
496.843	6149.54
497.046	6352.29
497.249	6458.78
497.453	6548.89
497.656	6507.93
497.859	6786.46
498.063	6919.57
498.266	6952.34
498.469	6970.77
498.673	6849.94
498.876	7120.28
499.079	7167.38
499.282	7187.86
499.485	7400.85
499.689	7300.5
499.892	7429.52
500.095	7499.15
500.298	7759.24
500.501	7607.69
500.705	7982.47
500.908	8025.48
501.111	8109.44
501.314	8048.01
501.517	8402.3
501.72	8521.09
501.923	8428.93
502.126	8603
502.329	8906.1
502.532	8850.81
502.735	8945.02
502.938	9170.29
503.141	9325.94
503.344	9172.34
503.547	9422.19
503.75	9504.11
503.953	9696.62
504.156	9807.21
504.359	9919.85
504.562	10079.59
504.765	10298.72
504.968	10202.47
505.17	10528.1
505.373	10437.98
505.576	10861.91
505.779	10925.4
505.982	10962.26
506.185	11271.51
506.387	11390.29
506.59	11363.67
506.793	11697.49
506.996	11543.89
507.198	12117.32
507.401	11822.41
507.604	12254.53
507.807	12514.63
508.009	12490.05
508.212	12596.54
508.415	12856.64
508.617	12600.64
508.82	13079.86
509.022	13235.51
509.225	13454.64
509.428	13880.62
509.63	13520.18
509.833	13894.96
510.035	13964.59
510.238	14001.45
510.44	14370.08
510.643	14454.05
510.845	14964
511.048	14763.29
511.25	14863.65
511.453	15232.28
511.655	15813.9
511.858	15484.18
512.06	15750.42
512.262	16121.1
512.465	15996.17
512.667	16352.52
512.87	16665.86
513.072	16622.85
513.274	16981.24
513.477	17392.89
513.679	17509.62
513.881	17476.85
514.084	17894.64
514.286	17845.49
514.488	17816.82
514.69	18459.88
514.893	18703.59
515.095	18691.3
515.297	19027.17
515.499	19166.43
515.701	19131.61
515.904	19621.08
516.106	19684.56
516.308	19907.79
516.51	20333.77
516.712	20114.64
516.914	20460.74
517.116	20856
517.318	20776.13
517.52	21314.75
517.722	21441.72
517.925	21603.51
518.127	21832.88
518.329	22293.68
518.531	22070.45
518.733	22551.72
518.935	22842.53
519.136	22682.79
519.338	23286.94
519.54	23512.22
519.742	23631
519.944	23569.56
520.146	24267.92
520.348	24175.76
520.55	24259.73
520.752	24376.46
520.954	25085.06
521.155	24732.81
521.357	25545.85
521.559	25400.44
521.761	25443.45
521.963	25642.1
522.164	25969.78
522.366	26092.66
522.568	26199.15
522.77	26430.57
522.971	26934.37
523.173	26365.04
523.375	27178.08
523.576	26981.48
523.778	27475.04
523.98	27872.34
524.181	27819.1
524.383	27931.73
524.584	28314.7
524.786	28224.59
524.988	28224.59
525.189	28488.78
525.391	28642.38
525.592	28832.84
525.794	29381.7
525.995	28949.57
526.197	28927.05
526.398	29238.34
526.6	29428.8
526.801	29713.47
527.003	29781.05
527.204	30020.66
527.406	29955.13
527.607	29981.75
527.808	30557.23
528.01	29948.98
528.211	30573.61
528.412	30987.3
528.614	30766.12
528.815	30688.3
529.016	31136.8
529.218	30415.92
529.419	31314.98
529.62	31034.41
529.822	31026.21
530.023	31065.13
530.224	31202.34
530.425	31304.74
530.626	31112.23
530.828	31253.54
531.029	32087.06
531.23	31839.26
531.431	31648.8
531.632	32064.53
531.833	31738.91
532.035	31732.76
532.236	31953.94
532.437	31712.28
532.638	32144.41
532.839	32234.52
533.04	32642.06
533.241	32269.33
533.442	32465.94
533.643	32255
533.844	32263.19
534.045	32465.94
534.246	32023.58
534.447	32908.3
534.648	32519.18
534.849	32572.43
535.05	32498.7
535.251	32599.05
535.451	32408.59
535.652	33043.46
535.853	32502.8
536.054	33045.51
536.255	33037.32
536.456	32678.93
536.657	32959.5
536.857	32920.59
537.058	33020.94
537.259	32969.74
537.46	32914.44
537.66	33047.56
537.861	32887.82
538.062	32701.45
538.263	33274.88
538.463	32762.89
538.664	32910.35
538.865	33326.08
539.065	33246.21
539.266	32734.22
539.466	33408
539.667	32998.41
539.868	33397.76
540.068	33190.92
540.269	33276.93
540.469	33268.74
540.67	33297.41
540.87	33293.32
541.071	33051.66
541.271	33338.37
541.472	33512.45
541.672	33008.65
541.873	33455.11
542.073	32699.41
542.274	33637.37
542.474	33272.84
542.675	33207.3
542.875	33446.91
543.075	33350.66
543.276	33022.98
543.476	33340.42
543.676	33197.06
543.877	33432.58
544.077	33274.88
544.277	33164.29
544.478	33354.76
544.678	33702.91
544.878	33354.76
545.078	33498.11
545.279	33465.35
545.479	33428.48
545.679	33555.46
545.879	33895.42
546.079	33590.27
546.28	33084.42
546.48	33104.9
546.68	33776.64
546.88	33575.94
547.08	33608.7
547.28	33713.15
547.48	33184.77
547.68	33727.49
547.88	33584.13
548.081	33752.06
548.281	33719.29
548.481	33139.72
548.681	33494.02
548.881	33530.88
549.081	33805.31
549.28	33412.1
549.48	33848.32
549.68	33293.32
549.88	33876.99
550.08	33096.71
550.28	33686.53
550.48	33731.58
550.68	33786.88
550.88	33362.95
551.08	33342.47
551.279	33467.39
551.479	33410.05
551.679	33620.99
551.879	33510.4
552.079	33858.56
552.278	33424.39
552.478	33481.73
552.678	33295.36
552.878	33674.24
553.077	33416.19
553.277	33508.35
553.477	33967.1
553.676	33627.13
553.876	33584.13
554.076	33354.76
554.275	33498.11
554.475	33254.4
554.674	33674.24
554.874	33594.37
555.074	33639.42
555.273	33784.83
555.473	33823.74
555.672	33688.57
555.872	33387.52
556.071	33229.83
556.271	33557.5
556.47	33274.88
556.67	33717.25
556.869	33416.19
557.068	33573.89
557.268	33135.62
557.467	33102.85
557.667	33328.13
557.866	33494.02
558.065	33215.49
558.265	32904.2
558.464	32951.31
558.663	33295.36
558.863	32629.77
559.062	33125.38
559.261	33098.76
559.461	32969.74
559.66	32779.28
559.859	32910.35
560.058	32875.53
560.258	32967.69
560.457	33051.66
560.656	32977.93
560.855	32797.71
561.054	32971.78
561.253	32269.33
561.453	32865.29
561.652	32939.02
561.851	32719.88
562.05	32556.05
562.249	32357.39
562.448	32607.25
562.647	32513.04
562.846	32691.21
563.045	32689.17
563.244	32420.88
563.443	32517.14
563.642	32375.83
563.841	32564.24
564.04	32087.06
564.239	32717.84
564.438	32599.05
564.637	32623.63
564.836	32500.75
565.035	32295.96
565.234	32369.68
565.432	32691.21
565.631	32105.49
565.83	32224.28
566.029	32177.17
566.228	31900.7
566.427	32230.42
566.625	31835.16
566.824	31613.98
567.023	31972.38
567.222	31677.47
567.42	32275.48
567.619	31915.03
567.818	31736.86
568.016	31654.94
568.215	31831.07
568.414	31706.14
568.612	31630.37
568.811	31460.38
569.01	31212.58
569.208	30981.16
569.407	31665.18
569.605	31319.07
569.804	31712.28
570.002	31247.4
570.201	31618.08
570.4	31128.61
570.598	30884.9
570.797	31007.78
570.995	30782.51
571.193	30600.24
571.392	31046.69
571.59	30655.53
571.789	30716.97
571.987	30624.81
572.186	30616.62
572.384	30346.29
572.582	30721.07
572.781	30725.16
572.979	30352.43
573.177	30491.69
573.376	30524.46
573.574	30024.76
573.772	30424.11
573.971	29811.77
574.169	30143.54
574.367	29692.99
574.565	30123.06
574.763	30188.6
574.962	29883.45
575.16	29498.43
575.358	30022.71
575.556	29465.66
575.754	29770.81
575.952	29084.74
576.151	29686.84
576.349	29000.77
576.547	29316.16
576.745	29627.45
576.943	29183.04
577.141	29066.31
577.339	29381.7
577.537	28886.09
577.735	29344.83
577.933	29045.83
578.131	29033.54
578.329	28867.66
578.527	28781.64
578.725	29006.92
578.923	28769.35
579.121	28179.54
579.319	28664.91
579.516	28654.67
579.714	28757.07
579.912	28226.64
580.11	28236.88
580.308	28425.29
580.506	28116.05
580.704	27792.47
580.901	27941.97
581.099	28066.9
581.297	27817.05
581.495	27903.06
581.692	27876.44
581.89	27645.02
582.088	27905.11
582.285	27454.56
582.483	27501.66
582.681	27593.82
582.878	27083.87
583.076	27389.02
583.274	27448.41
583.471	26932.33
583.669	27266.14
583.866	27249.76
584.064	26940.52
584.262	26942.56
584.459	27098.21
584.657	26803.3
584.854	26983.52
585.052	26373.23
585.249	26545.26
585.447	26797.16
585.644	26360.94
585.841	26760.3
586.039	26379.37
586.236	26070.13
586.434	25988.21
586.631	26084.47
586.828	26272.88
587.026	26117.23
587.223	26041.46
587.42	25855.09
587.618	25894
587.815	25556.09
588.012	25572.47
588.21	25394.3
588.407	25992.31
588.604	25633.91
588.801	25336.96
588.999	25019.52
589.196	25365.63
589.393	25379.96
589.59	25148.54
589.787	24982.66
589.984	24865.92
590.182	24632.46
590.379	24894.6
590.576	24728.71
590.773	24751.24
590.97	24552.59
591.167	24575.11
591.364	24274.06
591.561	24777.86
591.758	24142.99
591.955	24196.24
592.152	24171.66
592.349	24171.66
592.546	23991.44
592.743	24333.45
592.94	23674.01
593.137	24120.46
593.334	24061.07
593.531	23573.66
593.727	23518.36
593.924	23600.28
594.121	23495.83
594.318	23559.32
594.515	23344.28
594.712	23481.5
594.908	23125.15
595.105	23358.62
595.302	22897.83
595.499	23035.04
595.696	22949.03
595.892	22820
596.089	22774.95
596.286	22885.54
596.482	22551.72
596.679	22523.05
596.876	22686.89
597.072	22480.04
597.269	22449.32
597.466	22246.57
597.662	22240.43
597.859	22260.91
598.055	22111.41
598.252	22058.16
598.448	22279.34
598.645	21798.07
598.841	21648.57
599.038	21681.33
599.234	21599.41
599.431	21568.69
599.627	21501.11
599.824	21650.61
600.02	21542.07
600.217	21501.11
600.413	21507.26
600.609	21382.33
600.806	21013.7
601.002	21208.25
601.198	20968.64
601.395	20786.37
601.591	21040.32
601.787	20753.6
601.984	20640.97
602.18	20808.9
602.376	20626.63
602.572	20653.25
602.769	20575.43
602.965	20481.22
603.161	20567.24
603.357	20346.06
603.553	20399.3
603.75	20393.16
603.946	20468.94
604.142	20214.99
604.338	19555.54
604.534	20090.06
604.73	19944.66
604.926	19807.44
605.122	19827.92
605.318	19606.74
605.514	19563.73
605.71	19516.63
605.906	19594.45
606.102	19430.62
606.298	19543.25
606.494	19481.81
606.69	19459.29
606.886	19350.74
607.082	19311.83
607.278	19143.9
607.474	19193.05
607.67	19193.05
607.866	18896.1
608.062	19254.49
608.257	18779.36
608.453	18971.87
608.649	19064.03
608.845	18803.94
609.041	18830.56
609.236	18810.08
609.432	18486.5
609.628	18685.15
609.824	18803.94
610.019	18543.85
610.215	18398.44
610.411	18459.88
610.606	18586.85
610.802	18320.62
610.998	18537.7
611.193	18343.14
611.389	18263.27
611.584	18246.89
611.78	18187.5
611.976	18140.4
612.171	17945.84
612.367	18175.21
612.562	17829.1
612.758	17898.73
612.953	17702.13
613.149	17810.67
613.344	17677.55
613.539	18083.05
613.735	17853.68
613.93	17820.91
614.126	17638.64
614.321	17939.69
614.517	17775.86
614.712	17661.17
614.907	17327.35
615.103	17777.9
615.298	17530.1
615.493	17712.37
615.688	17175.8
615.884	17728.75
616.079	17388.79
616.274	17515.76
616.47	17362.17
616.665	17439.99
616.86	17249.53
617.055	17085.69
617.25	16991.48
617.445	17396.98
617.641	16731.39
617.836	16997.63
618.031	16682.24
618.226	16811.26
618.421	16684.29
618.616	17128.7
618.811	16456.96
619.006	16948.48
619.201	16422.15
619.396	16780.54
619.591	16082.19
619.786	16385.29
619.981	16174.35
620.176	16426.25
620.371	15783.18
620.566	16119.05
620.761	16037.13
620.956	16114.95
621.151	15848.72
621.346	15904.01
621.541	15449.36
621.735	15865.1
621.93	15359.25
622.125	15426.84
622.32	15246.62
622.515	15502.61
622.709	15136.03
622.904	15105.31
623.099	15330.58
623.294	15250.71
623.488	15041.82
623.683	14925.08
623.878	14705.95
624.072	14800.16
624.267	14843.17
624.462	14798.11
624.656	14355.75
624.851	14589.22
625.046	14257.45
625.24	14116.14
625.435	14288.17
625.629	14140.71
625.824	14339.37
626.018	14138.66
626.213	13647.15
626.407	13907.24
626.602	13665.58
626.796	13944.11
626.991	13509.94
627.185	13509.94
627.38	13559.09
627.574	13421.88
627.768	13233.46
627.963	13395.25
628.157	13129.02
628.352	13354.29
628.546	12924.22
628.74	12934.46
628.935	12827.96
629.129	13053.24
629.323	12830.01
629.517	12750.14
629.712	12830.01
629.906	12610.88
630.1	12528.96
630.294	12471.62
630.489	12520.77
630.683	12660.03
630.877	12340.55
631.071	12135.75
631.265	12383.56
631.459	11910.47
631.653	11928.91
631.848	12119.37
632.042	11906.38
632.236	12111.18
632.43	11730.25
632.624	12053.83
632.818	11658.57
633.012	11564.37
633.206	11541.84
633.4	11578.7
633.594	11388.24
633.788	11449.68
633.982	11472.21
634.176	11228.5
634.369	11148.63
634.563	11226.45
634.757	11208.02
634.951	11083.09
635.145	11031.9
635.339	11144.53
635.533	10988.89
635.726	10888.54
635.92	10773.85
636.114	10734.94
636.308	10579.29
636.501	10628.45
636.695	10437.98
636.889	10546.53
637.083	10407.27
637.276	10366.31
637.47	10227.04
637.664	10073.45
637.857	10163.56
638.051	10210.66
638.244	10194.28
638.438	9971.05
638.632	10186.08
638.825	9866.6
639.019	9930.09
639.212	9676.14
639.406	9743.72
639.599	9717.1
639.793	9639.28
639.986	9510.25
640.18	9350.51
640.373	9334.13
640.567	9381.23
640.76	9121.14
640.954	9133.43
641.147	9153.91
641.34	8955.26
641.534	9026.93
641.727	8912.25
641.92	8912.25
642.114	8682.88
642.307	8746.36
642.5	8555.9
642.694	8664.44
642.887	8449.41
643.08	8545.66
643.273	8340.86
643.467	8269.19
643.66	8316.29
643.853	8088.96
644.046	8056.2
644.239	8113.54
644.432	8060.29
644.626	7961.99
644.819	7835.02
645.012	7781.77
645.205	7910.79
645.398	7935.37
645.591	7619.98
645.784	7536.01
645.977	7464.33
646.17	7466.38
646.363	7490.96
646.556	7411.09
646.749	7339.41
646.942	7398.8
647.135	7234.96
647.328	7275.92
647.521	7118.23
647.714	7138.71
647.907	7142.8
648.099	6849.94
648.292	7001.49
648.485	7077.27
648.678	6620.57
648.871	6770.07
649.064	6710.68
649.256	6763.93
649.449	6651.29
649.642	6559.13
649.835	6540.7
650.027	6393.25
650.22	6538.65
650.413	6491.55
650.605	6376.86
650.798	6344.1
650.991	6251.94
651.183	6313.38
651.376	6176.16
651.568	6245.79
651.761	6112.67
651.954	6024.61
652.146	6055.33
652.339	6090.15
652.531	5983.65
652.724	5989.8
652.916	5760.42
653.109	5959.08
653.301	5834.15
653.494	5719.46
653.686	5752.23
653.879	5864.87
654.071	5641.64
654.263	5762.47
654.456	5606.83
654.648	5639.59
654.84	5559.72
655.033	5543.34
655.225	5486
655.417	5512.62
655.61	5563.82
655.802	5479.85
655.994	5393.84
656.186	5383.6
656.379	5344.69
656.571	5383.6
656.763	5287.34
656.955	5264.82
657.148	5205.42
657.34	5264.82
657.532	5141.94
657.724	5221.81
657.916	5201.33
658.108	5139.89
658.3	5094.83
658.492	4898.23
658.684	4957.62
658.876	4947.38
659.068	4963.76
659.26	4830.65
659.452	4838.84
659.644	4806.07
659.836	4797.88
660.028	4675
660.22	4701.62
660.412	4701.62
660.604	4564.41
660.796	4730.3
660.988	4568.51
661.18	4627.9
661.372	4617.66
661.563	4494.78
661.755	4496.83
661.947	4564.41
662.139	4384.19
662.331	4339.13
662.522	4396.48
662.714	4308.41
662.906	4175.3
663.097	4275.65
663.289	4345.28
663.481	4197.82
663.673	4201.92
663.864	4251.07
664.056	4085.19
664.247	4083.14
664.439	4048.32
664.631	4130.24
664.822	4007.36
665.014	4013.51
665.205	3927.49
665.397	3861.96
665.588	3868.1
665.78	3917.25
665.971	3827.14
666.163	3857.86
666.354	3966.4
666.546	3861.96
666.737	3722.7
666.929	3745.22
667.12	3753.41
667.311	3814.85
667.503	3773.89
667.694	3718.6
667.885	3567.05
668.077	3753.41
668.268	3513.8
668.459	3589.58
668.651	3552.71
668.842	3476.94
669.033	3687.88
669.224	3513.8
669.416	3448.27
669.607	3585.48
669.798	3470.8
669.989	3489.23
670.18	3483.08
670.371	3599.82
670.563	3448.27
670.754	3284.43
670.945	3280.33
671.136	3433.93
671.327	3309.01
671.518	3386.83
671.709	3462.6
671.9	3276.24
672.091	3198.42
672.282	3034.58
672.473	3276.24
672.664	3311.05
672.855	3124.69
673.046	3126.74
673.237	3222.99
673.428	3091.92
673.619	3247.57
673.809	2981.33
674	3132.88
674.191	3036.63
674.382	3149.26
674.573	3067.35
674.764	3040.72
674.954	3130.83
675.145	3083.73
675.336	2985.43
675.527	3032.53
675.717	3046.87
675.908	3005.91
676.099	3089.87
676.289	2983.38
676.48	3032.53
676.671	2977.23
676.861	2960.85
677.052	2950.61
677.243	2917.84
677.433	2926.04
677.624	3007.95
677.814	2993.62
678.005	2915.8
678.195	2903.51
678.386	3030.48
678.576	3007.95
678.767	2858.45
678.957	2936.28
679.148	2901.46
679.338	2842.07
679.529	2919.89
679.719	2858.45
679.909	2840.02
680.1	2936.28
680.29	2966.99
680.481	2995.67
680.671	2860.5
680.861	2928.08
681.052	2917.84
681.242	2842.07
681.432	3022.29
681.622	2872.79
681.813	2823.64
682.003	2852.31
682.193	2856.4
682.383	2950.61
682.573	2893.27
682.764	2815.45
682.954	2934.23
683.144	2870.74
683.334	2936.28
683.524	2768.34
683.714	2901.46
683.904	2870.74
684.094	2936.28
684.284	2895.32
684.474	2979.28
684.664	2944.47
684.854	2885.08
685.044	2846.16
685.234	2915.8
685.424	2938.32
685.614	2899.41
685.804	3016.15
685.994	2952.66
686.184	2913.75
686.374	3024.34
686.564	2831.83
686.753	2989.52
686.943	2840.02
687.133	2883.03
687.323	2969.04
687.513	3050.96
687.702	3032.53
687.892	2899.41
688.082	2897.36
688.272	3016.15
688.461	2987.47
688.651	3028.43
688.841	2940.37
689.03	3032.53
689.22	3018.19
689.41	3042.77
689.599	2966.99
689.789	2921.94
689.979	2975.19
690.168	2987.47
690.358	2862.55
690.547	3057.11
690.737	3026.39
690.926	3065.3
691.116	2989.52
691.305	2962.9
691.495	2893.27
691.684	2962.9
691.874	2887.12
692.063	2966.99
692.252	3046.87
692.442	2960.85
692.631	2999.76
692.82	2940.37
693.01	2971.09
693.199	3065.3
693.388	3007.95
693.578	2991.57
693.767	2831.83
693.956	2778.58
694.146	2842.07
694.335	2880.98
694.524	3032.53
694.713	2815.45
694.902	2979.28
695.092	2870.74
695.281	2799.06
695.47	2946.52
695.659	2799.06
695.848	2926.04
696.037	2856.4
696.226	2923.99
696.415	2819.54
696.604	2870.74
696.793	2813.4
696.982	2956.75
697.171	2854.36
697.36	2870.74
697.549	2786.77
697.738	2694.61
697.927	2688.47
698.116	2840.02
698.305	2772.44
698.494	2745.81
698.683	2805.21
698.872	2739.67
699.061	2729.43
699.25	2762.2
699.438	2594.26
699.627	2602.46
699.816	2704.85
700.005	2661.85
700.193	2624.98
700.382	2694.61
700.571	2592.22
700.76	2745.81
700.948	2584.02
701.137	2620.89
701.326	2608.6
701.514	2637.27
701.703	2579.93
701.892	2590.17
702.08	2514.39
702.269	2606.55
702.457	2510.3
702.646	2459.1
702.834	2584.02
703.023	2483.67
703.212	2450.91
703.4	2491.87
703.589	2467.29
703.777	2452.95
703.965	2379.23
704.154	2346.46
704.342	2514.39
704.531	2471.39
704.719	2465.24
704.907	2387.42
705.096	2346.46
705.284	2426.33
705.472	2487.77
705.661	2299.36
705.849	2340.32
706.037	2321.88
706.226	2164.19
706.414	2254.3
706.602	2358.75
706.79	2266.59
706.979	2385.37
707.167	2115.04
707.355	2227.68
707.543	2293.21
707.731	2356.7
707.919	2264.54
708.107	2143.71
708.296	2215.39
708.484	2147.81
708.672	2153.95
708.86	2051.55
709.048	2115.04
709.236	2158.05
709.424	2112.99
709.612	2143.71
709.8	2020.83
709.988	2094.56
710.176	2065.89
710.364	2008.55
710.551	2020.83
710.739	2112.99
710.927	2059.74
711.115	1992.16
711.303	2020.83
711.491	1986.02
711.679	2080.22
711.866	2067.94
712.054	1926.63
712.242	1986.02
712.43	2051.55
712.617	1865.19
712.805	1961.44
712.993	1977.83
713.181	1932.77
713.368	1969.63
713.556	1871.33
713.744	1848.8
713.931	1813.99
714.119	1943.01
714.306	1859.04
714.494	1953.25
714.682	1918.43
714.869	1770.98
715.057	1865.19
715.244	1865.19
715.432	1777.12
715.619	1799.65
715.807	1748.45
715.994	1799.65
716.182	1760.74
716.369	1752.55
716.556	1783.27
716.744	1717.73
716.931	1723.88
717.119	1744.36
717.306	1730.02
717.493	1674.73
717.681	1732.07
717.868	1684.97
718.055	1680.87
718.242	1684.97
718.43	1695.21
718.617	1787.36
718.804	1705.45
718.991	1672.68
719.179	1654.25
719.366	1607.14
719.553	1639.91
719.74	1613.29
719.927	1635.82
720.114	1582.57
720.301	1656.29
720.488	1627.62
720.676	1560.04
720.863	1584.62
721.05	1494.51
721.237	1482.22
721.424	1537.51
721.611	1490.41
721.798	1557.99
721.985	1582.57
722.172	1435.11
722.358	1560.04
722.545	1476.07
722.732	1418.73
722.919	1512.94
723.106	1478.12
723.293	1549.8
723.48	1469.93
723.667	1543.66
723.853	1498.6
724.04	1482.22
724.227	1437.16
724.414	1363.44
724.6	1353.2
724.787	1394.15
724.974	1449.45
725.161	1377.77
725.347	1453.55
725.534	1445.35
725.72	1316.33
725.907	1414.63
726.094	1361.39
726.28	1357.29
726.467	1353.2
726.653	1293.8
726.84	1283.56
727.027	1297.9
727.213	1297.9
727.4	1332.72
727.586	1351.15
727.773	1246.7
727.959	1254.89
728.145	1273.32
728.332	1256.94
728.518	1244.65
728.705	1314.28
728.891	1205.74
729.077	1345
729.264	1197.55
729.45	1261.04
729.636	1230.32
729.823	1349.1
730.009	1230.32
730.195	1242.61
730.382	1191.41
730.568	1232.37
730.754	1238.51
730.94	1228.27
731.126	1177.07
731.313	1187.31
731.499	1162.73
731.685	1140.21
731.871	1142.25
732.057	1222.13
732.243	1140.21
732.429	1197.55
732.615	1105.39
732.801	1166.83
732.987	1140.21
733.173	1181.17
733.359	1170.93
733.545	1105.39
733.731	1089.01
733.917	1027.57
734.103	1107.44
734.289	1195.5
734.475	1154.54
734.661	1150.45
734.847	1068.53
735.033	1113.58
735.219	1021.42
735.404	1056.24
735.59	1041.9
735.776	1013.23
735.962	1021.42
736.148	1037.81
736.333	1052.14
736.519	998.9
736.705	1109.49
736.89	1037.81
737.076	1082.86
737.262	1009.14
737.447	957.94
737.633	968.18
737.819	1015.28
738.004	1041.9
738.19	1009.14
738.375	1046
738.561	962.03
738.747	916.98
738.932	923.12
739.118	1084.91
739.303	984.56
739.489	943.6
739.674	933.36
739.859	906.74
740.045	951.79
740.23	970.23
740.416	876.02
740.601	953.84
740.786	890.35
740.972	857.59
741.157	943.6
741.342	873.97
741.528	916.98
741.713	919.03
741.898	966.13
742.084	933.36
742.269	886.26
742.454	865.78
742.639	845.3
742.824	835.06
743.01	912.88
743.195	882.16
743.38	853.49
743.565	882.16
743.75	785.91
743.935	900.59
744.12	800.24
744.305	824.82
744.49	925.17
744.675	873.97
744.86	859.63
745.045	820.72
745.23	804.34
745.415	855.54
745.6	865.78
745.785	798.2
745.97	820.72
746.155	818.68
746.34	810.48
746.525	779.76
746.71	787.96
746.895	718.33
747.079	753.14
747.264	757.24
747.449	804.34
747.634	761.33
747.819	777.72
748.003	691.7
748.188	716.28
748.373	798.2
748.557	730.61
748.742	673.27
748.927	652.79
749.111	753.14
749.296	716.28
749.481	753.14
749.665	732.66
749.85	658.93
750.034	611.83
750.219	697.85
750.404	712.18
750.588	724.47
750.773	716.28
750.957	665.08
751.141	695.8
751.326	667.13
751.51	701.94
751.695	648.69
751.879	693.75
752.064	714.23
752.248	607.73
752.432	622.07
752.617	654.84
752.801	654.84
752.985	652.79
753.17	701.94
753.354	607.73
753.538	677.37
753.722	624.12
753.907	630.26
754.091	591.35
754.275	615.93
754.459	564.73
754.643	499.19
754.828	581.11
755.012	560.63
755.196	525.82
755.38	476.66
755.564	525.82
755.748	568.82
755.932	562.68
756.116	640.5
756.3	562.68
756.484	599.54
756.668	570.87
756.852	568.82
757.036	519.67
757.22	595.45
757.404	486.9
757.588	499.19
757.772	505.34
757.956	505.34
758.14	521.72
758.323	536.06
758.507	491
758.691	538.1
758.875	544.25
759.059	574.97
759.242	593.4
759.426	499.19
759.61	527.86
759.794	509.43
759.977	511.48
760.161	513.53
760.345	466.42
760.528	509.43
760.712	419.32
760.895	427.51
761.079	462.33
761.263	511.48
761.446	421.37
761.63	474.62
761.813	474.62
761.997	437.75
762.18	419.32
762.364	548.34
762.547	417.27
762.731	491
762.914	433.66
763.098	452.09
763.281	361.98
763.464	482.81
763.648	447.99
763.831	427.51
764.015	411.13
764.198	374.27
764.381	497.14
764.564	411.13
764.748	478.71
764.931	409.08
765.114	445.95
765.297	419.32
765.481	390.65
765.664	380.41
765.847	366.07
766.03	456.19
766.213	392.7
766.397	529.91
766.58	398.84
766.763	445.95
766.946	366.07
767.129	404.99
767.312	378.36
767.495	501.24
767.678	359.93
767.861	347.64
768.044	415.23
768.227	402.94
768.41	400.89
768.593	472.57
768.776	476.66
768.959	450.04
769.142	431.61
769.324	398.84
769.507	333.31
769.69	392.7
769.873	357.88
770.056	484.86
770.239	370.17
770.421	415.23
770.604	382.46
770.787	357.88
770.97	402.94
771.152	347.64
771.335	331.26
771.518	402.94
771.7	390.65
771.883	443.9
772.066	384.51
772.248	394.75
772.431	376.31
772.613	343.55
772.796	388.6
772.978	386.55
773.161	425.47
773.343	400.89
773.526	224.76
773.708	368.12
773.891	394.75
774.073	327.16
774.256	372.22
774.438	392.7
774.621	351.74
774.803	353.79
774.985	271.87
775.168	298.49
775.35	353.79
775.532	384.51
775.715	376.31
775.897	339.45
776.079	435.71
776.261	339.45
776.444	280.06
776.626	321.02
776.808	288.25
776.99	325.12
777.173	310.78
777.355	351.74
777.537	384.51
777.719	290.3
777.901	294.4
778.083	273.92
778.265	327.16
778.447	302.59
778.629	343.55
778.811	314.88
778.993	286.2
779.175	300.54
779.357	359.93
779.539	394.75
779.721	267.77
779.903	275.96
780.085	300.54
780.267	321.02
780.449	230.91
780.631	218.62
780.812	247.29
780.994	245.24
781.176	253.44
781.358	296.44
781.54	220.67
781.721	284.16
781.903	259.58
782.085	216.57
782.267	288.25
782.448	257.53
782.63	216.57
782.812	222.72
782.993	206.33
783.175	323.07
783.357	232.96
783.538	261.63
783.72	179.71
783.901	210.43
784.083	185.85
784.264	286.2
784.446	218.62
784.627	200.19
784.809	235
784.99	163.33
785.172	230.91
785.353	271.87
785.535	216.57
785.716	243.2
785.897	255.48
786.079	189.95
786.26	181.76
786.441	206.33
786.623	171.52
786.804	79.36
786.985	214.52
787.167	157.18
787.348	157.18
787.529	183.81
787.71	220.67
787.891	271.87
788.073	204.28
788.254	273.92
788.435	155.13
788.616	245.24
788.797	54.78
788.978	128.51
789.159	192
789.34	200.19
789.522	196.09
789.703	192
789.884	173.57
790.065	224.76
790.246	159.23
790.427	140.8
790.607	235
790.788	183.81
790.969	202.24
791.15	173.57
791.331	171.52
791.512	110.08
791.693	198.14
791.874	175.61
792.054	144.89
792.235	202.24
792.416	112.13
792.597	181.76
792.778	165.37
792.958	163.33
793.139	153.09
793.32	142.85
793.5	81.41
793.681	159.23
793.862	130.56
794.042	112.13
794.223	202.24
794.404	222.72
794.584	110.08
794.765	67.07
794.945	134.65
795.126	148.99
795.306	138.75
795.487	185.85
795.667	108.03
795.848	185.85
796.028	206.33
796.209	105.98
796.389	62.98
796.57	226.81
796.75	110.08
796.93	116.22
797.111	124.41
797.291	167.42
797.471	171.52
797.652	110.08
797.832	148.99
798.012	140.8
798.192	132.61
798.373	112.13
798.553	85.5
798.733	146.94
798.913	85.5
799.093	157.18
799.274	108.03
799.454	142.85
799.634	208.38
799.814	75.26
799.994	140.8
800.174	89.6
800.354	118.27
800.534	99.84
800.714	134.65
800.894	130.56
801.074	58.88
801.254	134.65
801.434	103.93
801.614	151.04
801.794	95.74
801.974	312.83
802.154	128.51
802.334	116.22
802.514	144.89
802.693	112.13
802.873	89.6
803.053	99.84
803.233	69.12
803.413	144.89
803.592	75.26
803.772	87.55
803.952	124.41
804.131	148.99
804.311	99.84
804.491	87.55
804.67	101.89
804.85	62.98
805.03	93.69
805.209	159.23
805.389	140.8
805.568	105.98
805.748	75.26
805.928	58.88
806.107	118.27
806.287	167.42
806.466	89.6
806.646	58.88
806.825	134.65
807.004	151.04
807.184	65.02
807.363	69.12
807.543	124.41
807.722	87.55
807.901	138.75
808.081	116.22
808.26	128.51
808.439	69.12
808.619	116.22
808.798	110.08
808.977	83.45
809.156	99.84
809.336	110.08
809.515	132.61
809.694	58.88
809.873	99.84
810.052	32.26
810.231	3.58
810.411	91.65
810.59	62.98
810.769	89.6
810.948	105.98
811.127	42.5
811.306	62.98
811.485	157.18
811.664	65.02
811.843	30.21
812.022	67.07
812.201	38.4
812.38	93.69
812.559	24.06
812.737	91.65
812.916	-6.66
813.095	89.6
813.274	91.65
813.453	110.08
813.632	56.83
813.811	13.82
813.989	42.5
814.168	58.88
814.347	9.73
814.526	114.17
814.704	65.02
814.883	198.14
815.062	44.54
815.24	87.55
815.419	26.11
815.598	85.5
815.776	77.31
815.955	36.35
816.133	-23.04
816.312	71.17
816.49	5.63
816.669	19.97
816.847	19.97
817.026	91.65
817.204	28.16
817.383	81.41
817.561	17.92
817.74	95.74
817.918	46.59
818.097	60.93
818.275	108.03
818.453	36.35
818.632	132.61
818.81	38.4
818.988	108.03
819.167	44.54
819.345	26.11
819.523	42.5
819.701	85.5
819.879	108.03
820.058	60.93
820.236	69.12
820.414	134.65
820.592	40.45
820.77	97.79
820.948	38.4
821.127	50.69
821.305	46.59
821.483	22.02
821.661	19.97
821.839	48.64
822.017	-2.56
822.195	-25.09
822.373	114.17
822.551	26.11
822.729	93.69
822.907	34.3
823.085	48.64
823.262	110.08
823.44	13.82
823.618	38.4
823.796	85.5
823.974	36.35
824.152	79.36
824.329	22.02
824.507	71.17
824.685	42.5
824.863	48.64
825.04	112.13
825.218	26.11
825.396	81.41
825.574	-41.47
825.751	103.93
825.929	40.45
826.107	5.63
826.284	75.26
826.462	54.78
826.639	-2.56
826.817	48.64
826.994	9.73
827.172	-4.61
827.349	83.45
827.527	71.17
827.704	83.45
827.882	62.98
828.059	11.78
828.237	73.21
828.414	-12.8
828.591	67.07
828.769	48.64
828.946	34.3
829.124	24.06
829.301	140.8
829.478	69.12
829.655	3.58
829.833	-14.85
830.01	58.88
830.187	67.07
830.364	91.65
830.542	30.21
830.719	15.87
830.896	67.07
831.073	75.26
831.25	99.84
831.427	22.02
831.604	11.78
831.782	44.54
831.959	26.11
832.136	112.13
832.313	91.65
832.49	110.08
832.667	56.83
832.844	-18.94
833.021	48.64
833.198	-6.66
833.374	42.5
833.551	26.11
833.728	24.06
833.905	52.74
834.082	11.78
834.259	62.98
834.436	17.92
834.612	30.21
834.789	-23.04
834.966	-43.52
835.143	99.84
835.319	56.83
835.496	89.6
835.673	79.36
835.85	81.41
836.026	67.07
836.203	-16.9
836.38	42.5
836.556	34.3
836.733	40.45
836.909	-31.23
837.086	13.82
837.262	62.98
837.439	83.45
837.616	-4.61
837.792	-14.85
837.968	-4.61
838.145	54.78
838.321	116.22
838.498	112.13
838.674	50.69
838.851	81.41
839.027	48.64
839.203	54.78
839.38	79.36
839.556	32.26
839.732	65.02
839.909	30.21
840.085	132.61
840.261	-0.51
840.437	40.45
840.614	24.06
840.79	9.73
840.966	62.98
841.142	22.02
841.318	-14.85
841.494	75.26
841.671	44.54
841.847	-64
842.023	65.02
842.199	42.5
842.375	52.74
842.551	-10.75
842.727	46.59
842.903	32.26
843.079	-2.56
843.255	24.06
843.431	46.59
843.607	73.21
843.783	-14.85
843.959	67.07
844.134	67.07
844.31	130.56
844.486	-10.75
844.662	42.5
844.838	34.3
845.013	36.35
845.189	-27.14
845.365	17.92
845.541	11.78
845.716	19.97
845.892	44.54
846.068	91.65
846.244	44.54
846.419	62.98
846.595	85.5
846.77	99.84
846.946	44.54
847.122	-6.66
847.297	56.83
847.473	30.21
847.648	-18.94
847.824	54.78
847.999	-18.94
848.175	-59.9
848.35	5.63
848.526	22.02
848.701	-23.04
848.876	91.65
849.052	26.11
849.227	118.27
849.403	40.45
849.578	32.26
849.753	-12.8
849.929	44.54
850.104	-55.81
850.279	38.4
850.454	46.59
850.63	17.92
850.805	15.87
850.98	50.69
851.155	67.07
851.33	58.88
851.505	34.3
851.681	-61.95
851.856	-4.61
852.031	7.68
852.206	60.93
852.381	11.78
852.556	22.02
852.731	28.16
852.906	52.74
853.081	-2.56
853.256	24.06
853.431	-18.94
853.606	15.87
853.781	11.78
853.956	-51.71
854.131	11.78
854.305	40.45
854.48	-14.85
854.655	19.97
854.83	38.4
855.005	-29.18
855.18	56.83
855.354	48.64
855.529	19.97
855.704	50.69
855.879	9.73
856.053	-27.14
856.228	54.78
856.403	-29.18
856.577	7.68
856.752	58.88
856.926	32.26
857.101	-18.94
857.276	11.78
857.45	36.35
857.625	85.5
857.799	-47.62
857.974	1.54
858.148	56.83
858.323	40.45
858.497	52.74
858.672	46.59
858.846	54.78
859.02	-29.18
859.195	-23.04
859.369	3.58
859.543	89.6
859.718	36.35
859.892	-41.47
860.066	9.73
860.241	50.69
860.415	-59.9
860.589	19.97
860.763	50.69
860.938	9.73
861.112	52.74
861.286	28.16
861.46	9.73
861.634	28.16
861.808	-8.7
861.982	-6.66
862.157	11.78
862.331	19.97
862.505	-14.85
862.679	-55.81
862.853	60.93
863.027	-37.38
863.201	3.58
863.375	11.78
863.549	1.54
863.722	38.4
863.896	13.82
864.07	-23.04
864.244	17.92
864.418	-6.66
864.592	-20.99
864.766	-51.71
864.939	30.21
865.113	13.82
865.287	58.88
865.461	-76.29
865.634	-4.61
865.808	52.74
865.982	3.58
866.156	-12.8
866.329	62.98
866.503	50.69
866.676	-4.61
866.85	42.5
867.024	-70.14
867.197	19.97
867.371	-10.75
867.544	28.16
867.718	-31.23
867.891	-12.8
868.065	-25.09
868.238	9.73
868.412	83.45
868.585	-39.42
868.759	7.68
868.932	1.54
869.105	30.21
869.279	-35.33
869.452	1.54
869.625	46.59
869.799	30.21
869.972	-45.57
870.145	28.16
870.319	-29.18
870.492	19.97
870.665	3.58
870.838	-18.94
871.011	-0.51
871.185	1.54
871.358	1.54
871.531	5.63
871.704	19.97
871.877	69.12
872.05	-25.09
872.223	26.11
872.396	-6.66
872.569	26.11
872.742	15.87
872.915	-2.56
873.088	-16.9
873.261	-23.04
873.434	-4.61
873.607	67.07
873.78	93.69
873.953	24.06
874.126	-10.75
874.299	26.11
874.471	1.54
874.644	34.3
874.817	-4.61
874.99	17.92
875.163	-10.75
875.335	30.21
875.508	-31.23
875.681	101.89
875.853	48.64
876.026	54.78
876.199	-23.04
876.371	24.06
876.544	38.4
876.717	1.54
876.889	62.98
877.062	46.59
877.234	5.63
877.407	19.97
877.579	-12.8
877.752	56.83
877.924	-6.66
878.097	-0.51
878.269	1.54
878.442	11.78
878.614	-6.66
878.786	-12.8
878.959	-47.62
879.131	42.5
879.303	30.21
879.476	1.54
879.648	1.54
879.82	13.82
879.993	56.83
880.165	-14.85
880.337	62.98
880.509	-49.66
880.681	54.78
880.854	-18.94
881.026	13.82
881.198	54.78
881.37	-55.81
881.542	-29.18
881.714	38.4
881.886	-25.09
882.058	36.35
882.23	-31.23
882.402	-20.99
882.574	-23.04
882.746	-27.14
882.918	62.98
883.09	-29.18
883.262	-6.66
883.434	52.74
883.606	52.74
883.778	34.3
883.95	9.73
884.122	9.73
884.293	5.63
884.465	-20.99
884.637	28.16
884.809	17.92
884.98	75.26
885.152	-27.14
885.324	-23.04
885.496	11.78
885.667	-2.56
885.839	-4.61
886.011	9.73
886.182	-18.94
886.354	-12.8
886.525	50.69
886.697	-10.75
886.869	44.54
887.04	-2.56
887.212	28.16
887.383	32.26
887.555	7.68
887.726	-41.47
887.897	54.78
888.069	34.3
888.24	69.12
888.412	-10.75
888.583	73.21
888.754	19.97
888.926	-35.33
889.097	11.78
889.268	36.35
889.44	32.26
889.611	-18.94
889.782	7.68
889.953	-0.51
890.125	-33.28
890.296	30.21
890.467	-47.62
890.638	9.73
890.809	44.54
890.98	15.87
891.151	-8.7
891.323	50.69
891.494	-59.9
891.665	60.93
891.836	-14.85
892.007	7.68
892.178	48.64
892.349	-20.99
892.52	58.88
892.691	95.74
892.862	13.82
893.032	5.63
893.203	-33.28
893.374	46.59
893.545	-8.7
893.716	30.21
893.887	-14.85
894.057	-51.71
894.228	11.78
894.399	-82.43
894.57	42.5
894.74	32.26
894.911	32.26
895.082	17.92
895.253	-66.05
895.423	-10.75
895.594	28.16
895.764	-4.61
895.935	85.5
896.106	62.98
896.276	75.26
896.447	-53.76
896.617	26.11
896.788	87.55
896.958	22.02
897.129	-45.57
897.299	24.06
897.47	22.02
897.64	1.54
897.81	34.3
897.981	36.35
898.151	-12.8
898.322	-20.99
898.492	-59.9
898.662	-29.18
898.832	9.73
899.003	13.82
899.173	15.87
899.343	28.16
899.513	28.16
