Data from USB4F104151__96__12-54-55-927.txt Node

Date: Fri Mar 14 12:54:55 EDT 2025
User: louis
Spectrometer: USB4F10415
Trigger mode: 4
Integration Time (sec): 1.000000E-2
Scans to average: 1
Electric dark correction enabled: true
Nonlinearity correction enabled: false
Boxcar width: 0
XAxis mode: Wavelengths
Number of Pixels in Spectrum: 3648
>>>>>Begin Spectral Data<<<<<
178.204	-87.89
178.424	-87.89
178.644	-87.89
178.864	-20.31
179.084	-63.32
179.304	69.8
179.524	-124.76
179.744	26.79
179.964	0.17
180.184	32.94
180.404	14.51
180.624	24.75
180.844	-16.21
181.064	-46.93
181.283	12.46
181.503	-10.07
181.723	16.55
181.943	0.17
182.163	53.42
182.383	8.36
182.602	-24.4
182.822	39.08
183.042	-3.93
183.262	-36.69
183.482	26.79
183.701	-38.74
183.921	0.17
184.141	34.99
184.361	92.33
184.58	-14.17
184.8	14.51
185.02	71.85
185.239	108.71
185.459	22.7
185.679	24.75
185.898	2.22
186.118	22.7
186.338	71.85
186.557	51.37
186.777	2.22
186.997	57.51
187.216	-36.69
187.436	55.47
187.655	8.36
187.875	-30.55
188.095	18.6
188.314	100.52
188.534	6.31
188.753	-79.7
188.973	-34.64
189.192	59.56
189.412	32.94
189.631	53.42
189.851	104.62
190.07	32.94
190.29	45.23
190.509	59.56
190.729	-59.22
190.948	39.08
191.168	59.56
191.387	-1.88
191.607	-3.93
191.826	63.66
192.045	8.36
192.265	20.65
192.484	106.67
192.704	-14.17
192.923	-5.97
193.142	55.47
193.362	49.32
193.581	22.7
193.8	77.99
194.02	153.77
194.239	-22.36
194.458	37.03
194.678	57.51
194.897	41.13
195.116	32.94
195.335	55.47
195.555	24.75
195.774	94.38
195.993	2.22
196.212	24.75
196.432	-42.84
196.651	100.52
196.87	0.17
197.089	61.61
197.308	-22.36
197.528	51.37
197.747	-59.22
197.966	-22.36
198.185	-40.79
198.404	57.51
198.623	8.36
198.842	10.41
199.062	37.03
199.281	71.85
199.5	-18.26
199.719	43.18
199.938	-5.97
200.157	-10.07
200.376	-14.17
200.595	4.27
200.814	90.28
201.033	12.46
201.252	10.41
201.471	34.99
201.69	-10.07
201.909	28.84
202.128	8.36
202.347	55.47
202.566	53.42
202.785	24.75
203.004	-24.4
203.223	28.84
203.442	-8.02
203.661	53.42
203.879	32.94
204.098	26.79
204.317	20.65
204.536	59.56
204.755	30.89
204.974	32.94
205.193	45.23
205.411	18.6
205.63	49.32
205.849	55.47
206.068	-34.64
206.287	32.94
206.505	-24.4
206.724	12.46
206.943	34.99
207.162	55.47
207.381	37.03
207.599	28.84
207.818	-44.88
208.037	51.37
208.255	-12.12
208.474	12.46
208.693	-3.93
208.911	47.27
209.13	59.56
209.349	28.84
209.567	-20.31
209.786	-5.97
210.005	51.37
210.223	8.36
210.442	-12.12
210.661	20.65
210.879	2.22
211.098	-44.88
211.316	24.75
211.535	100.52
211.753	-63.32
211.972	22.7
212.191	20.65
212.409	51.37
212.628	67.75
212.846	12.46
213.065	57.51
213.283	28.84
213.502	-34.64
213.72	-14.17
213.938	6.31
214.157	10.41
214.375	16.55
214.594	32.94
214.812	28.84
215.031	43.18
215.249	-26.45
215.467	102.57
215.686	-12.12
215.904	2.22
216.122	45.23
216.341	47.27
216.559	2.22
216.778	32.94
216.996	-12.12
217.214	98.47
217.432	-5.97
217.651	71.85
217.869	4.27
218.087	49.32
218.306	-34.64
218.524	59.56
218.742	-38.74
218.96	-3.93
219.179	43.18
219.397	34.99
219.615	2.22
219.833	14.51
220.051	-51.03
220.27	65.71
220.488	47.27
220.706	18.6
220.924	55.47
221.142	2.22
221.36	-28.5
221.578	-5.97
221.796	34.99
222.015	-5.97
222.233	37.03
222.451	-16.21
222.669	94.38
222.887	63.66
223.105	10.41
223.323	-67.41
223.541	34.99
223.759	-32.6
223.977	2.22
224.195	41.13
224.413	-67.41
224.631	-14.17
224.849	30.89
225.067	37.03
225.285	59.56
225.503	4.27
225.721	55.47
225.939	18.6
226.157	-30.55
226.375	77.99
226.592	2.22
226.81	-8.02
227.028	-10.07
227.246	65.71
227.464	10.41
227.682	34.99
227.9	4.27
228.117	73.9
228.335	8.36
228.553	51.37
228.771	32.94
228.989	61.61
229.206	24.75
229.424	28.84
229.642	-16.21
229.86	73.9
230.077	30.89
230.295	-5.97
230.513	28.84
230.731	59.56
230.948	59.56
231.166	41.13
231.384	14.51
231.601	-16.21
231.819	71.85
232.037	34.99
232.254	-65.36
232.472	73.9
232.689	57.51
232.907	-1.88
233.125	-1.88
233.342	-16.21
233.56	71.85
233.777	10.41
233.995	0.17
234.213	121
234.43	16.55
234.648	34.99
234.865	22.7
235.083	-10.07
235.3	-1.88
235.518	49.32
235.735	73.9
235.953	32.94
236.17	20.65
236.388	34.99
236.605	22.7
236.822	102.57
237.04	-1.88
237.257	26.79
237.475	6.31
237.692	59.56
237.909	61.61
238.127	-16.21
238.344	28.84
238.562	26.79
238.779	30.89
238.996	-1.88
239.214	43.18
239.431	51.37
239.648	14.51
239.865	90.28
240.083	-26.45
240.3	12.46
240.517	82.09
240.735	14.51
240.952	22.7
241.169	22.7
241.386	32.94
241.603	75.95
241.821	18.6
242.038	51.37
242.255	14.51
242.472	18.6
242.689	71.85
242.907	-22.36
243.124	-16.21
243.341	71.85
243.558	8.36
243.775	24.75
243.992	39.08
244.209	53.42
244.426	30.89
244.643	10.41
244.86	-18.26
245.078	22.7
245.295	14.51
245.512	164.01
245.729	51.37
245.946	4.27
246.163	71.85
246.38	39.08
246.597	-3.93
246.814	-77.65
247.031	-26.45
247.248	59.56
247.464	-34.64
247.681	24.75
247.898	37.03
248.115	-20.31
248.332	10.41
248.549	67.75
248.766	30.89
248.983	28.84
249.2	53.42
249.417	63.66
249.633	49.32
249.85	12.46
250.067	12.46
250.284	-10.07
250.501	106.67
250.717	0.17
250.934	-53.08
251.151	20.65
251.368	43.18
251.585	37.03
251.801	90.28
252.018	45.23
252.235	-3.93
252.451	51.37
252.668	-65.36
252.885	45.23
253.102	49.32
253.318	39.08
253.535	6.31
253.752	55.47
253.968	26.79
254.185	45.23
254.401	104.62
254.618	41.13
254.835	32.94
255.051	47.27
255.268	71.85
255.484	43.18
255.701	92.33
255.917	32.94
256.134	26.79
256.351	16.55
256.567	-22.36
256.784	59.56
257	18.6
257.217	6.31
257.433	65.71
257.65	59.56
257.866	28.84
258.082	22.7
258.299	20.65
258.515	37.03
258.732	-1.88
258.948	73.9
259.165	16.55
259.381	75.95
259.597	57.51
259.814	18.6
260.03	-53.08
260.246	-79.7
260.463	-8.02
260.679	45.23
260.895	-3.93
261.112	-16.21
261.328	-22.36
261.544	4.27
261.761	18.6
261.977	-57.17
262.193	-10.07
262.409	63.66
262.626	28.84
262.842	0.17
263.058	51.37
263.274	-22.36
263.49	55.47
263.707	102.57
263.923	-51.03
264.139	16.55
264.355	28.84
264.571	-73.56
264.787	-8.02
265.004	30.89
265.22	30.89
265.436	28.84
265.652	10.41
265.868	-22.36
266.084	82.09
266.3	71.85
266.516	10.41
266.732	39.08
266.948	22.7
267.164	96.43
267.38	10.41
267.596	4.27
267.812	-18.26
268.028	28.84
268.244	20.65
268.46	55.47
268.676	-3.93
268.892	61.61
269.108	-48.98
269.324	2.22
269.54	90.28
269.756	8.36
269.972	-26.45
270.188	18.6
270.403	0.17
270.619	65.71
270.835	-16.21
271.051	-18.26
271.267	18.6
271.483	67.75
271.698	32.94
271.914	135.34
272.13	57.51
272.346	100.52
272.562	18.6
272.777	131.24
272.993	-44.88
273.209	37.03
273.425	12.46
273.64	18.6
273.856	12.46
274.072	-3.93
274.287	-32.6
274.503	110.76
274.719	-69.46
274.934	2.22
275.15	12.46
275.366	41.13
275.581	37.03
275.797	14.51
276.012	-48.98
276.228	51.37
276.444	77.99
276.659	6.31
276.875	61.61
277.09	-16.21
277.306	18.6
277.521	20.65
277.737	26.79
277.952	28.84
278.168	49.32
278.383	-20.31
278.599	10.41
278.814	-79.7
279.03	51.37
279.245	2.22
279.461	10.41
279.676	43.18
279.892	-24.4
280.107	6.31
280.322	8.36
280.538	22.7
280.753	20.65
280.969	-5.97
281.184	59.56
281.399	49.32
281.615	12.46
281.83	18.6
282.045	-5.97
282.26	-30.55
282.476	32.94
282.691	-10.07
282.906	16.55
283.122	14.51
283.337	0.17
283.552	4.27
283.767	-10.07
283.983	-8.02
284.198	28.84
284.413	69.8
284.628	67.75
284.843	-18.26
285.058	10.41
285.274	-46.93
285.489	8.36
285.704	2.22
285.919	43.18
286.134	-40.79
286.349	45.23
286.564	43.18
286.779	-26.45
286.995	45.23
287.21	18.6
287.425	59.56
287.64	10.41
287.855	37.03
288.07	-22.36
288.285	34.99
288.5	-42.84
288.715	-5.97
288.93	30.89
289.145	43.18
289.36	55.47
289.575	-26.45
289.79	-5.97
290.004	26.79
290.219	12.46
290.434	10.41
290.649	-26.45
290.864	63.66
291.079	-5.97
291.294	43.18
291.509	32.94
291.724	20.65
291.938	-28.5
292.153	34.99
292.368	22.7
292.583	57.51
292.798	8.36
293.012	53.42
293.227	18.6
293.442	24.75
293.657	22.7
293.871	-20.31
294.086	28.84
294.301	18.6
294.516	6.31
294.73	10.41
294.945	2.22
295.16	-3.93
295.374	16.55
295.589	26.79
295.804	-3.93
296.018	2.22
296.233	96.43
296.447	61.61
296.662	-14.17
296.877	22.7
297.091	43.18
297.306	55.47
297.52	-40.79
297.735	82.09
297.949	-30.55
298.164	-14.17
298.378	57.51
298.593	-28.5
298.807	-14.17
299.022	100.52
299.236	-26.45
299.451	-85.84
299.665	26.79
299.88	37.03
300.094	67.75
300.309	34.99
300.523	57.51
300.737	43.18
300.952	45.23
301.166	51.37
301.381	34.99
301.595	65.71
301.809	-20.31
302.024	18.6
302.238	65.71
302.452	32.94
302.667	14.51
302.881	114.86
303.095	28.84
303.309	65.71
303.524	53.42
303.738	28.84
303.952	77.99
304.166	37.03
304.381	-20.31
304.595	49.32
304.809	-3.93
305.023	4.27
305.237	-18.26
305.452	43.18
305.666	47.27
305.88	34.99
306.094	30.89
306.308	71.85
306.522	-16.21
306.736	30.89
306.95	41.13
307.164	18.6
307.379	39.08
307.593	34.99
307.807	75.95
308.021	-1.88
308.235	82.09
308.449	0.17
308.663	41.13
308.877	94.38
309.091	110.76
309.305	47.27
309.519	-5.97
309.733	82.09
309.947	2.22
310.161	24.75
310.374	41.13
310.588	59.56
310.802	67.75
311.016	-22.36
311.23	34.99
311.444	59.56
311.658	-5.97
311.872	-18.26
312.085	55.47
312.299	-14.17
312.513	61.61
312.727	12.46
312.941	8.36
313.154	34.99
313.368	16.55
313.582	45.23
313.796	34.99
314.009	-32.6
314.223	34.99
314.437	20.65
314.651	0.17
314.864	43.18
315.078	57.51
315.292	10.41
315.505	-18.26
315.719	-16.21
315.933	-24.4
316.146	55.47
316.36	-24.4
316.573	-14.17
316.787	41.13
317.001	-8.02
317.214	-5.97
317.428	43.18
317.641	-36.69
317.855	18.6
318.068	-5.97
318.282	86.19
318.495	55.47
318.709	18.6
318.922	-14.17
319.136	-10.07
319.349	26.79
319.563	-12.12
319.776	39.08
319.99	-8.02
320.203	75.95
320.417	37.03
320.63	24.75
320.843	67.75
321.057	-32.6
321.27	94.38
321.483	16.55
321.697	59.56
321.91	75.95
322.124	53.42
322.337	39.08
322.55	16.55
322.763	4.27
322.977	-10.07
323.19	10.41
323.403	-28.5
323.617	26.79
323.83	12.46
324.043	24.75
324.256	121
324.469	-28.5
324.683	-1.88
324.896	16.55
325.109	84.14
325.322	-20.31
325.535	51.37
325.748	47.27
325.962	47.27
326.175	-28.5
326.388	43.18
326.601	73.9
326.814	24.75
327.027	-12.12
327.24	45.23
327.453	28.84
327.666	-32.6
327.879	-71.51
328.092	18.6
328.305	2.22
328.518	-16.21
328.731	-10.07
328.944	16.55
329.157	110.76
329.37	39.08
329.583	43.18
329.796	96.43
330.009	-36.69
330.222	51.37
330.435	43.18
330.648	2.22
330.861	-30.55
331.073	24.75
331.286	4.27
331.499	-8.02
331.712	90.28
331.925	26.79
332.138	-3.93
332.35	65.71
332.563	24.75
332.776	2.22
332.989	12.46
333.202	22.7
333.414	4.27
333.627	30.89
333.84	32.94
334.053	65.71
334.265	43.18
334.478	30.89
334.691	43.18
334.903	-38.74
335.116	26.79
335.329	6.31
335.541	2.22
335.754	30.89
335.966	-5.97
336.179	77.99
336.392	-16.21
336.604	-5.97
336.817	34.99
337.029	6.31
337.242	-16.21
337.454	51.37
337.667	49.32
337.88	-5.97
338.092	-26.45
338.305	47.27
338.517	6.31
338.729	14.51
338.942	116.9
339.154	43.18
339.367	10.41
339.579	37.03
339.792	0.17
340.004	80.04
340.217	0.17
340.429	37.03
340.641	-46.93
340.854	45.23
341.066	84.14
341.278	28.84
341.491	2.22
341.703	34.99
341.915	12.46
342.128	-22.36
342.34	-3.93
342.552	47.27
342.764	63.66
342.977	24.75
343.189	30.89
343.401	-61.27
343.613	18.6
343.826	4.27
344.038	16.55
344.25	-12.12
344.462	22.7
344.674	61.61
344.886	100.52
345.099	-38.74
345.311	80.04
345.523	-5.97
345.735	-14.17
345.947	41.13
346.159	10.41
346.371	6.31
346.583	61.61
346.795	63.66
347.007	18.6
347.219	41.13
347.431	-20.31
347.643	92.33
347.855	47.27
348.067	63.66
348.279	32.94
348.491	-102.23
348.703	24.75
348.915	71.85
349.127	-48.98
349.339	-5.97
349.551	34.99
349.763	71.85
349.975	-40.79
350.187	10.41
350.399	12.46
350.61	12.46
350.822	-40.79
351.034	73.9
351.246	-5.97
351.458	39.08
351.669	-16.21
351.881	8.36
352.093	24.75
352.305	30.89
352.517	8.36
352.728	24.75
352.94	-20.31
353.152	39.08
353.363	45.23
353.575	-20.31
353.787	39.08
353.999	30.89
354.21	28.84
354.422	-3.93
354.633	67.75
354.845	30.89
355.057	-24.4
355.268	82.09
355.48	-12.12
355.692	55.47
355.903	43.18
356.115	10.41
356.326	-14.17
356.538	73.9
356.749	26.79
356.961	96.43
357.172	30.89
357.384	16.55
357.595	92.33
357.807	22.7
358.018	37.03
358.23	18.6
358.441	-1.88
358.653	28.84
358.864	34.99
359.075	20.65
359.287	-44.88
359.498	41.13
359.709	47.27
359.921	-5.97
360.132	69.8
360.344	12.46
360.555	2.22
360.766	-22.36
360.977	61.61
361.189	59.56
361.4	45.23
361.611	57.51
361.823	59.56
362.034	55.47
362.245	39.08
362.456	47.27
362.667	47.27
362.879	41.13
363.09	-30.55
363.301	-5.97
363.512	26.79
363.723	51.37
363.935	24.75
364.146	22.7
364.357	26.79
364.568	30.89
364.779	-5.97
364.99	55.47
365.201	32.94
365.412	75.95
365.623	-34.64
365.834	-16.21
366.045	61.61
366.256	-5.97
366.467	53.42
366.678	71.85
366.889	-3.93
367.1	-40.79
367.311	69.8
367.522	-34.64
367.733	55.47
367.944	86.19
368.155	37.03
368.366	75.95
368.577	26.79
368.788	12.46
368.999	-51.03
369.209	34.99
369.42	-3.93
369.631	14.51
369.842	57.51
370.053	10.41
370.264	34.99
370.474	22.7
370.685	28.84
370.896	73.9
371.107	39.08
371.317	26.79
371.528	-32.6
371.739	80.04
371.95	8.36
372.16	39.08
372.371	24.75
372.582	-26.45
372.792	-3.93
373.003	-14.17
373.214	37.03
373.424	-26.45
373.635	-20.31
373.846	75.95
374.056	-63.32
374.267	18.6
374.477	57.51
374.688	-30.55
374.898	8.36
375.109	45.23
375.319	57.51
375.53	-48.98
375.74	10.41
375.951	51.37
376.161	39.08
376.372	55.47
376.582	6.31
376.793	34.99
377.003	6.31
377.214	-5.97
377.424	30.89
377.635	61.61
377.845	30.89
378.055	67.75
378.266	-12.12
378.476	0.17
378.686	32.94
378.897	24.75
379.107	75.95
379.317	45.23
379.528	53.42
379.738	71.85
379.948	30.89
380.158	67.75
380.369	10.41
380.579	4.27
380.789	67.75
380.999	-38.74
381.21	-28.5
381.42	28.84
381.63	59.56
381.84	37.03
382.05	-1.88
382.261	59.56
382.471	30.89
382.681	-10.07
382.891	-18.26
383.101	-30.55
383.311	26.79
383.521	47.27
383.731	102.57
383.941	43.18
384.151	100.52
384.361	73.9
384.571	80.04
384.781	57.51
384.991	45.23
385.201	18.6
385.411	-8.02
385.621	143.53
385.831	57.51
386.041	26.79
386.251	22.7
386.461	86.19
386.671	12.46
386.881	39.08
387.091	22.7
387.301	-16.21
387.511	10.41
387.72	2.22
387.93	110.76
388.14	47.27
388.35	10.41
388.56	34.99
388.769	22.7
388.979	43.18
389.189	-38.74
389.399	53.42
389.609	73.9
389.818	26.79
390.028	86.19
390.238	24.75
390.447	45.23
390.657	63.66
390.867	22.7
391.076	34.99
391.286	37.03
391.496	20.65
391.705	-20.31
391.915	131.24
392.125	37.03
392.334	92.33
392.544	45.23
392.753	39.08
392.963	51.37
393.172	30.89
393.382	10.41
393.591	2.22
393.801	61.61
394.01	80.04
394.22	12.46
394.429	6.31
394.639	28.84
394.848	22.7
395.058	24.75
395.267	-5.97
395.477	28.84
395.686	0.17
395.895	28.84
396.105	84.14
396.314	53.42
396.524	16.55
396.733	32.94
396.942	55.47
397.152	10.41
397.361	20.65
397.57	26.79
397.78	41.13
397.989	32.94
398.198	100.52
398.407	39.08
398.617	28.84
398.826	75.95
399.035	41.13
399.244	61.61
399.453	43.18
399.663	39.08
399.872	12.46
400.081	6.31
400.29	-22.36
400.499	30.89
400.708	41.13
400.917	30.89
401.127	80.04
401.336	129.19
401.545	112.81
401.754	71.85
401.963	22.7
402.172	-1.88
402.381	39.08
402.59	20.65
402.799	69.8
403.008	41.13
403.217	88.23
403.426	16.55
403.635	28.84
403.844	88.23
404.053	73.9
404.262	47.27
404.471	92.33
404.68	100.52
404.888	73.9
405.097	84.14
405.306	32.94
405.515	28.84
405.724	59.56
405.933	41.13
406.142	178.34
406.35	61.61
406.559	90.28
406.768	67.75
406.977	125.1
407.185	57.51
407.394	43.18
407.603	0.17
407.812	47.27
408.02	98.47
408.229	90.28
408.438	98.47
408.646	100.52
408.855	108.71
409.064	145.58
409.272	145.58
409.481	106.67
409.69	139.43
409.898	65.71
410.107	123.05
410.315	139.43
410.524	80.04
410.733	108.71
410.941	77.99
411.15	84.14
411.358	127.14
411.567	84.14
411.775	143.53
411.984	118.95
412.192	96.43
412.401	129.19
412.609	55.47
412.818	202.92
413.026	157.86
413.234	112.81
413.443	137.38
413.651	63.66
413.86	176.3
414.068	198.82
414.276	188.58
414.485	170.15
414.693	176.3
414.901	209.06
415.11	217.26
415.318	204.97
415.526	223.4
415.734	280.74
415.943	211.11
416.151	243.88
416.359	213.16
416.567	323.75
416.776	293.03
416.984	358.57
417.192	309.41
417.4	280.74
417.608	231.59
417.817	293.03
418.025	340.13
418.233	432.29
418.441	313.51
418.649	327.85
418.857	424.1
419.065	377
419.273	446.63
419.481	391.33
419.689	477.35
419.897	510.11
420.105	454.82
420.313	475.3
420.521	417.96
420.729	481.44
420.937	534.69
421.145	499.88
421.353	417.96
421.561	526.5
421.769	616.61
421.977	565.41
422.185	583.84
422.393	696.48
422.601	608.42
422.809	682.14
423.017	712.86
423.224	686.24
423.432	665.76
423.64	700.58
423.848	782.49
424.056	800.93
424.263	809.12
424.471	852.13
424.679	932
424.887	872.61
425.094	921.76
425.302	993.44
425.51	1048.73
425.718	1024.16
425.925	977.05
426.133	1065.11
426.341	1140.89
426.548	1210.52
426.756	1153.18
426.964	1132.7
427.171	1110.17
427.379	1333.4
427.586	1278.1
427.794	1343.64
428.001	1378.45
428.209	1435.8
428.417	1312.92
428.624	1515.67
428.832	1575.06
429.039	1568.91
429.247	1513.62
429.454	1661.07
429.662	1820.81
429.869	1755.28
430.076	1910.93
430.284	1634.45
430.491	1835.15
430.699	1988.75
430.906	1982.6
431.114	2039.95
431.321	2009.23
431.528	2062.48
431.736	2205.83
431.943	2345.09
432.15	2226.31
432.358	2164.87
432.565	2248.84
432.772	2302.09
432.979	2343.05
433.187	2492.55
433.394	2484.36
433.601	2750.59
433.808	2721.92
434.016	2752.64
434.223	2779.26
434.43	2959.49
434.637	3039.36
434.844	3065.98
435.052	3186.81
435.259	3055.74
435.466	3184.76
435.673	3086.46
435.88	3405.94
436.087	3448.95
436.294	3360.89
436.501	3502.2
436.708	3510.39
436.915	3739.76
437.122	3651.7
437.329	3672.18
437.537	3938.41
437.743	3944.56
437.95	3956.85
438.157	4110.44
438.364	4302.95
438.571	4315.24
438.778	4237.42
438.985	4722.79
439.192	4364.39
439.399	4679.78
439.606	4454.5
439.813	4794.47
440.02	4880.48
440.227	5027.93
440.433	4946.02
440.64	5212.25
440.847	5142.62
441.054	5181.53
441.261	5570.65
441.467	5509.21
441.674	5627.99
441.881	5953.62
442.088	5748.82
442.294	5656.66
442.501	5902.42
442.708	6031.44
442.914	6035.53
443.121	6580.29
443.328	6316.11
443.534	6877.25
443.741	6504.52
443.948	6469.7
444.154	6965.31
444.361	6930.5
444.568	6989.89
444.774	7049.28
444.981	6987.84
445.187	7182.4
445.394	7573.56
445.6	7702.58
445.807	8130.61
446.013	7784.5
446.22	7952.43
446.426	8331.31
446.633	8335.4
446.839	8679.46
447.046	8325.16
447.252	8917.03
447.459	9005.09
447.665	8742.95
447.871	9050.14
448.078	9586.71
448.284	8970.27
448.491	9426.97
448.697	9631.77
448.903	10037.27
449.11	9955.35
449.316	9889.81
449.522	9945.11
449.728	10160.14
449.935	10299.41
450.141	10293.26
450.347	10553.35
450.553	10072.08
450.76	10176.53
450.966	10680.33
451.172	10536.97
451.378	10799.11
451.584	10639.37
451.791	10874.88
451.997	10825.73
452.203	10919.94
452.409	11106.31
452.615	10965
452.821	10770.44
453.027	10512.39
453.233	10799.11
453.44	10541.07
453.646	10592.27
453.852	10643.46
454.058	10846.21
454.264	10381.32
454.47	10854.41
454.676	10555.4
454.882	11042.82
455.088	10274.83
455.294	10346.51
455.5	10440.72
455.705	10377.23
455.911	9936.92
456.117	9830.42
456.323	9619.48
456.529	8906.79
456.735	9543.71
456.941	9224.22
457.147	9199.65
457.352	8794.15
457.558	8701.99
457.764	8736.81
457.97	8732.71
458.176	8413.23
458.381	8480.81
458.587	7884.85
458.793	8128.56
458.999	7735.35
459.204	8370.22
459.41	7759.92
459.616	7538.74
459.821	7389.24
460.027	7286.84
460.233	7237.69
460.438	6862.91
460.644	6836.29
460.85	6668.36
461.055	6617.16
461.261	6420.55
461.466	6017.1
461.672	5922.9
461.878	6080.59
462.083	5695.57
462.289	5707.86
462.494	5572.69
462.7	5529.69
462.905	5376.09
463.111	5703.76
463.316	5427.29
463.522	5376.09
463.727	5371.99
463.932	5410.9
464.138	5277.79
464.343	5128.28
464.549	5191.77
464.754	5390.42
464.959	5288.03
465.165	5216.35
465.37	5027.93
465.575	4886.62
465.781	5224.54
465.986	5091.42
466.191	5013.6
466.397	4907.1
466.602	4464.74
466.807	4954.21
467.012	4890.72
467.218	4634.72
467.423	4769.89
467.628	4640.87
467.833	4735.07
468.038	4685.92
468.244	4638.82
468.449	4925.54
468.654	4528.23
468.859	4597.86
469.064	4685.92
469.269	4321.38
469.474	4491.37
469.679	4520.04
469.885	4368.49
470.09	4370.54
470.295	4450.41
470.5	4278.38
470.705	4468.84
470.91	4251.75
471.115	4173.93
471.32	4251.75
471.525	4403.3
471.73	4118.64
471.935	4161.64
472.139	4003.95
472.344	4108.4
472.549	4094.06
472.754	4094.06
472.959	3872.88
473.164	3932.27
473.369	3823.73
473.574	3993.71
473.778	3827.82
473.983	3821.68
474.188	3879.02
474.393	3805.3
474.598	3670.13
474.802	3625.08
475.007	3594.36
475.212	3625.08
475.417	3559.54
475.621	3403.89
475.826	3467.38
476.031	3403.89
476.235	3426.42
476.44	3528.82
476.645	3272.82
476.849	3377.27
477.054	3354.74
477.259	3287.16
477.463	3321.98
477.668	3131.51
477.872	3147.9
478.077	3063.93
478.282	3043.45
478.486	3164.28
478.691	2955.39
478.895	3082.36
479.1	3106.94
479.304	2973.82
479.509	3033.21
479.713	3068.03
479.918	2967.68
480.122	2863.23
480.326	2975.87
480.531	2984.06
480.735	2906.24
480.94	2910.33
481.144	2994.3
481.348	2861.18
481.553	2771.07
481.757	2867.33
481.961	2771.07
482.166	2934.91
482.37	2752.64
482.574	2728.07
482.778	2801.79
482.983	2916.48
483.187	2869.37
483.391	2728.07
483.595	2842.75
483.8	2707.59
484.004	2818.18
484.208	2918.53
484.412	2797.7
484.616	2943.1
484.821	2723.97
485.025	2732.16
485.229	2732.16
485.433	2822.27
485.637	2758.78
485.841	2791.55
486.045	2787.46
486.249	2703.49
486.453	2709.63
486.657	2777.22
486.861	2859.14
487.065	2771.07
487.269	2797.7
487.473	2728.07
487.677	2713.73
487.881	2789.5
488.085	2881.66
488.289	2738.3
488.493	2777.22
488.697	2805.89
488.901	2726.02
489.105	2867.33
489.309	2826.37
489.512	2902.14
489.716	2758.78
489.92	2867.33
490.124	2637.95
490.328	2898.05
490.531	2822.27
490.735	2967.68
490.939	2920.57
491.143	2928.77
491.346	3016.83
491.55	2990.21
491.754	2902.14
491.958	2832.51
492.161	2973.82
492.365	2971.77
492.569	2994.3
492.772	2947.2
492.976	2967.68
493.18	2986.11
493.383	3076.22
493.587	3006.59
493.79	3123.32
493.994	3111.04
494.197	3162.23
494.401	3125.37
494.605	3012.73
494.808	3244.15
495.012	3068.03
495.215	3170.43
495.419	3172.47
495.622	3172.47
495.825	3252.35
496.029	3309.69
496.232	3283.06
496.436	3348.6
496.639	3367.03
496.843	3416.18
497.046	3420.28
497.249	3455.09
497.453	3545.2
497.656	3432.57
497.859	3567.73
498.063	3682.42
498.266	3612.79
498.469	3649.65
498.673	3698.8
498.876	3799.15
499.079	3715.19
499.282	3838.06
499.485	3872.88
499.689	3948.65
499.892	3858.54
500.095	3926.13
500.298	4094.06
500.501	4018.29
500.705	4147.31
500.908	4151.4
501.111	4126.83
501.314	4315.24
501.517	4372.58
501.72	4259.95
501.923	4225.13
502.126	4343.91
502.329	4380.78
502.532	4493.41
502.735	4517.99
502.938	4573.28
503.141	4575.33
503.344	4597.86
503.547	4636.77
503.75	4767.84
503.953	4812.9
504.156	4911.2
504.359	4923.49
504.562	4984.93
504.765	5208.16
504.968	5228.63
505.17	5165.15
505.373	5261.4
505.576	5228.63
505.779	5320.79
505.982	5394.52
506.185	5388.38
506.387	5527.64
506.59	5556.31
506.793	5529.69
506.996	5578.84
507.198	5816.4
507.401	5574.74
507.604	5781.59
507.807	6025.29
508.009	5976.14
508.212	6049.87
508.415	6053.97
508.617	6133.84
508.82	6090.83
509.022	6213.71
509.225	6348.87
509.428	6217.8
509.63	6348.87
509.833	6453.32
510.035	6781
510.238	6596.68
510.44	6506.57
510.643	6776.9
510.845	6961.22
511.048	6907.97
511.25	6830.15
511.453	6877.25
511.655	7297.08
511.858	7114.81
512.06	7159.87
512.262	7215.16
512.465	7069.76
512.667	7211.07
512.87	7331.9
513.072	7454.78
513.274	7612.47
513.477	7630.9
513.679	7780.4
513.881	7587.89
514.084	7680.05
514.286	7854.13
514.488	7890.99
514.69	8241.2
514.893	8251.44
515.095	8095.79
515.297	8448.04
515.499	8347.69
515.701	8499.24
515.904	8620.07
516.106	8454.19
516.308	8585.26
516.51	8652.84
516.712	8783.91
516.914	8716.33
517.116	9097.25
517.318	9134.11
517.52	9062.43
517.722	9089.06
517.925	9189.41
518.127	9173.02
518.329	9388.06
518.531	9285.66
518.733	9609.24
518.935	9607.19
519.136	9455.64
519.338	9642.01
519.54	9867.28
519.742	9881.62
519.944	9920.53
520.146	10078.22
520.348	10303.5
520.55	10260.49
520.752	10250.25
520.954	10334.22
521.155	10219.53
521.357	10485.77
521.559	10471.43
521.761	10672.14
521.963	10727.43
522.164	10622.98
522.366	10764.29
522.568	10719.24
522.77	11094.02
522.971	11083.78
523.173	10833.93
523.375	11061.25
523.576	11321.34
523.778	11046.91
523.98	11145.22
524.181	11401.21
524.383	11192.32
524.584	11397.12
524.786	11644.92
524.988	11548.67
525.189	11661.3
525.391	11853.81
525.592	11778.04
525.794	11724.79
525.995	11808.76
526.197	11864.05
526.398	11956.21
526.6	11771.9
526.801	11933.68
527.003	11714.55
527.204	12044.27
527.406	12236.78
527.607	12208.11
527.808	12308.46
528.01	12019.7
528.211	12388.33
528.412	12324.85
528.614	12330.99
528.815	12347.37
529.016	12163.06
529.218	12294.13
529.419	12378.09
529.62	12500.97
529.822	12470.25
530.023	12271.6
530.224	12646.38
530.425	12382.19
530.626	12363.76
530.828	12470.25
531.029	12713.96
531.23	12511.21
531.431	12584.94
531.632	12556.27
531.833	12670.95
532.035	12578.79
532.236	12636.14
532.437	12670.95
532.638	12707.82
532.839	12709.86
533.04	12726.25
533.241	12578.79
533.442	12867.56
533.643	12871.65
533.844	12677.1
534.045	12949.48
534.246	12738.54
534.447	12867.56
534.648	12926.95
534.849	12902.37
535.05	12654.57
535.251	12679.15
535.451	12668.91
535.652	12740.58
535.853	12656.62
536.054	12857.32
536.255	12908.52
536.456	12562.41
536.657	12978.15
536.857	12810.22
537.058	12806.12
537.259	12773.35
537.46	12773.35
537.66	12711.91
537.861	12666.86
538.062	12738.54
538.263	12617.71
538.463	12457.96
538.664	12771.3
538.865	12824.55
539.065	12840.93
539.266	12519.4
539.466	12869.61
539.667	12466.16
539.868	12771.3
540.068	12591.08
540.269	12617.71
540.469	12978.15
540.67	12972
540.87	12732.39
541.071	12675.05
541.271	12677.1
541.472	12722.15
541.672	12722.15
541.873	12468.2
542.073	12535.79
542.274	13010.92
542.474	12898.28
542.675	12642.28
542.875	12705.77
543.075	12689.39
543.276	12421.1
543.476	12685.29
543.676	12660.71
543.877	12824.55
544.077	12648.43
544.277	12371.95
544.478	12427.25
544.678	12640.23
544.878	12683.24
545.078	12716.01
545.279	12443.63
545.479	12462.06
545.679	12550.12
545.879	12421.1
546.079	12523.5
546.28	12615.66
546.48	12806.12
546.68	12666.86
546.88	12619.75
547.08	12562.41
547.28	12429.29
547.48	12455.92
547.68	12539.88
547.88	12550.12
548.081	12484.59
548.281	12535.79
548.481	12652.52
548.681	12586.99
548.881	12670.95
549.081	12480.49
549.28	12558.32
549.48	12623.85
549.68	12550.12
549.88	12511.21
550.08	12492.78
550.28	12673
550.48	12275.7
550.68	12693.48
550.88	12314.61
551.08	12568.55
551.279	12521.45
551.479	12402.67
551.679	12482.54
551.879	12349.42
552.079	12677.1
552.278	12312.56
552.478	12421.1
552.678	12474.35
552.878	12423.15
553.077	12490.73
553.277	12249.07
553.477	12480.49
553.676	12345.33
553.876	12326.89
554.076	12445.68
554.275	12474.35
554.475	12292.08
554.674	12427.25
554.874	12234.74
555.074	12158.96
555.273	12521.45
555.473	12402.67
555.672	12261.36
555.872	12294.13
556.071	12421.1
556.271	12310.51
556.47	12244.98
556.67	12109.81
556.869	12281.84
557.068	12390.38
557.268	12175.34
557.467	12382.19
557.667	12277.74
557.866	12132.34
558.065	12273.65
558.265	12068.85
558.464	11874.29
558.663	12290.03
558.863	11935.73
559.062	12318.7
559.261	12136.43
559.461	12257.26
559.66	12142.58
559.859	12029.94
560.058	11978.74
560.258	12191.73
560.457	11964.4
560.656	11939.83
560.855	12015.6
561.054	12066.8
561.253	12003.32
561.453	11855.86
561.652	12034.04
561.851	11915.25
562.05	12025.84
562.249	11794.42
562.448	11782.13
562.647	11755.51
562.846	11732.98
563.045	11796.47
563.244	11628.54
563.443	11917.3
563.642	11585.53
563.841	11784.18
564.04	11540.47
564.239	11612.15
564.438	11667.45
564.637	11778.04
564.836	11546.62
565.035	11526.14
565.234	11737.08
565.432	11806.71
565.631	11630.59
565.83	11653.11
566.029	11376.64
566.228	11612.15
566.427	11597.82
566.625	11589.63
566.824	11253.76
567.023	11591.67
567.222	11304.96
567.42	11413.5
567.619	11282.43
567.818	11317.25
568.016	11425.79
568.215	11264
568.414	11292.67
568.612	11292.67
568.811	11505.66
569.01	11169.79
569.208	11012.1
569.407	11118.59
569.605	11051.01
569.804	11132.93
570.002	11237.38
570.201	11198.46
570.4	11022.34
570.598	11163.65
570.797	10876.93
570.995	11012.1
571.193	10790.92
571.392	11065.35
571.59	10903.56
571.789	11020.29
571.987	10913.8
572.186	10719.24
572.384	10876.93
572.582	10760.2
572.781	10897.41
572.979	10727.43
573.177	10817.54
573.376	10729.48
573.574	10678.28
573.772	11030.53
573.971	10539.02
574.169	10514.44
574.367	10637.32
574.565	10379.28
574.763	10678.28
574.962	10549.26
575.16	10418.19
575.358	10676.23
575.556	10407.95
575.754	10659.85
575.952	10467.34
576.151	10428.43
576.349	10170.38
576.547	10350.6
576.745	10381.32
576.943	10387.47
577.141	10338.32
577.339	10469.39
577.537	10209.29
577.735	10344.46
577.933	9924.63
578.131	10074.13
578.329	10197.01
578.527	9918.48
578.725	10110.99
578.923	9988.11
579.121	10151.95
579.319	10012.69
579.516	9979.92
579.714	9889.81
579.912	10039.31
580.11	9934.87
580.308	9807.89
580.506	9824.28
580.704	9713.69
580.901	9859.09
581.099	10084.37
581.297	9738.26
581.495	9906.2
581.692	9889.81
581.89	9758.74
582.088	9728.02
582.285	9619.48
582.483	9750.55
582.681	9832.47
582.878	9555.99
583.076	9527.32
583.274	9596.95
583.471	9617.43
583.669	9371.68
583.866	9508.89
584.064	9599
584.262	9490.46
584.459	9355.29
584.657	9386.01
584.854	9420.83
585.052	9359.39
585.249	9537.56
585.447	9308.19
585.644	9429.02
585.841	9265.18
586.039	9338.91
586.236	9150.5
586.434	9113.63
586.631	9084.96
586.828	9138.21
587.026	9029.66
587.223	9142.3
587.42	9101.34
587.618	8949.79
587.815	8917.03
588.012	9103.39
588.21	9066.53
588.407	8902.69
588.604	8984.61
588.801	8828.96
588.999	8972.32
589.196	8888.36
589.393	8812.58
589.59	8732.71
589.787	8689.7
589.984	8779.81
590.182	8667.17
590.379	8779.81
590.576	8630.31
590.773	8734.76
590.97	8712.23
591.167	8695.85
591.364	8362.03
591.561	8615.98
591.758	8525.86
591.955	8589.35
592.152	8509.48
592.349	8273.96
592.546	8382.51
592.743	8329.26
592.94	8464.43
593.137	8392.75
593.334	8501.29
593.531	8298.54
593.727	8267.82
593.924	8245.29
594.121	8202.29
594.318	8378.41
594.515	8243.24
594.712	8220.72
594.908	8052.78
595.105	8108.08
595.302	7997.49
595.499	8067.12
595.696	7972.91
595.892	7997.49
596.089	8122.41
596.286	8046.64
596.482	7966.77
596.679	7995.44
596.876	8007.73
597.072	7954.48
597.269	8071.22
597.466	7764.02
597.662	7706.68
597.859	8005.68
598.055	7944.24
598.252	7829.56
598.448	7784.5
598.645	7663.67
598.841	7749.68
599.038	7563.32
599.234	7721.01
599.431	7544.89
599.627	7612.47
599.824	7890.99
600.02	7589.94
600.217	7528.5
600.413	7444.54
600.609	7655.48
600.806	7424.06
601.002	7540.79
601.198	7516.22
601.395	7196.73
601.591	7524.41
601.787	7321.66
601.984	7335.99
602.18	7389.24
602.376	7168.06
602.572	7381.05
602.769	7084.09
602.965	7204.92
603.161	7358.52
603.357	7249.98
603.553	7305.28
603.75	7151.68
603.946	7284.8
604.142	7059.52
604.338	7096.38
604.534	7276.6
604.73	7135.29
604.926	7047.23
605.122	6936.64
605.318	6973.5
605.514	7000.13
605.71	6973.5
605.906	7061.57
606.102	7036.99
606.298	6817.86
606.494	6901.83
606.69	7051.33
606.886	6748.23
607.082	6709.32
607.278	6850.63
607.474	6907.97
607.67	6836.29
607.866	6811.71
608.062	6758.47
608.257	6752.32
608.453	6834.24
608.649	6678.6
608.845	6760.52
609.041	6588.49
609.236	6725.7
609.432	6651.97
609.628	6776.9
609.824	6549.57
610.019	6385.74
610.215	6619.21
610.411	6582.34
610.606	6584.39
610.802	6592.58
610.998	6549.57
611.193	6518.86
611.389	6848.58
611.584	6430.79
611.78	6570.05
611.976	6385.74
612.171	6565.96
612.367	6400.07
612.562	6404.17
612.758	6395.98
612.953	6361.16
613.149	6621.25
613.344	6346.83
613.539	6387.79
613.735	6467.66
613.93	6346.83
614.126	6293.58
614.321	6447.18
614.517	6312.01
614.712	6383.69
614.907	6365.26
615.103	6242.38
615.298	6240.33
615.493	6443.08
615.688	6172.75
615.884	6283.34
616.079	6148.17
616.274	6271.05
616.47	6082.64
616.665	6238.28
616.86	6236.24
617.055	5902.42
617.25	6320.2
617.445	6250.57
617.641	6027.34
617.836	6080.59
618.031	6135.89
618.226	6080.59
618.421	5959.76
618.616	6064.21
618.811	5722.2
619.006	6068.3
619.201	5970
619.396	5926.99
619.591	5877.84
619.786	6010.96
619.981	5863.51
620.176	6092.88
620.371	5877.84
620.566	5900.37
620.761	5881.94
620.956	5767.25
621.151	5828.69
621.346	5664.85
621.541	5707.86
621.735	5640.28
621.93	5646.42
622.125	5642.32
622.32	5458.01
622.515	5681.24
622.709	5556.31
622.904	5478.49
623.099	5402.71
623.294	5480.54
623.488	5423.19
623.683	5339.23
623.878	5361.75
624.072	5318.75
624.267	5279.83
624.462	5283.93
624.656	5279.83
624.851	5222.49
625.046	5214.3
625.24	5224.54
625.435	5001.31
625.629	5126.24
625.824	5118.04
626.018	5097.56
626.213	4900.96
626.407	5144.67
626.602	4925.54
626.796	4950.11
626.991	5048.41
627.185	4980.83
627.38	4896.86
627.574	4939.87
627.768	4874.34
627.963	4690.02
628.157	4724.83
628.352	4747.36
628.546	4800.61
628.74	4698.21
628.935	4659.3
629.129	4788.32
629.323	4694.12
629.517	4696.16
629.712	4587.62
629.906	4622.44
630.1	4687.97
630.294	4438.12
630.489	4440.17
630.683	4468.84
630.877	4282.47
631.071	4587.62
631.265	4434.02
631.459	4466.79
631.653	4436.07
631.848	4393.06
632.042	4237.42
632.236	4354.15
632.43	4153.45
632.624	4135.02
632.818	4253.8
633.012	4024.43
633.206	4184.17
633.4	4214.89
633.594	4196.46
633.788	4192.36
633.982	4151.4
634.176	4171.88
634.369	4120.68
634.563	4008.05
634.757	4057.2
634.951	4022.38
635.145	4075.63
635.339	4016.24
635.533	4001.9
635.726	3897.46
635.92	3889.26
636.114	3864.69
636.308	3897.46
636.501	3909.74
636.695	3883.12
636.889	3788.91
637.083	3803.25
637.276	3741.81
637.47	3682.42
637.664	3760.24
637.857	3713.14
638.051	3682.42
638.244	3639.41
638.438	3602.55
638.632	3657.84
638.825	3633.27
639.019	3547.25
639.212	3592.31
639.406	3555.44
639.599	3557.49
639.793	3713.14
639.986	3457.14
640.18	3426.42
640.373	3567.73
640.567	3557.49
640.76	3426.42
640.954	3375.22
641.147	3283.06
641.34	3305.59
641.534	3483.77
641.727	3295.35
641.92	3229.82
642.114	3313.78
642.307	3315.83
642.5	3348.6
642.694	3188.86
642.887	3285.11
643.08	3199.1
643.273	3289.21
643.467	3250.3
643.66	3180.67
643.853	3201.15
644.046	3098.75
644.239	3065.98
644.432	3137.66
644.626	3147.9
644.819	3053.69
645.012	3020.92
645.205	3027.07
645.398	3025.02
645.591	3002.49
645.784	2979.97
645.977	2902.14
646.17	2996.35
646.363	2945.15
646.556	2902.14
646.749	2885.76
646.942	2926.72
647.135	2910.33
647.328	2844.8
647.521	2777.22
647.714	2789.5
647.907	2908.29
648.099	2783.36
648.292	2885.76
648.485	2840.7
648.678	2838.66
648.871	2664.58
649.064	2711.68
649.256	2646.15
649.449	2732.16
649.642	2771.07
649.835	2633.86
650.027	2764.93
650.22	2599.04
650.413	2652.29
650.605	2721.92
650.798	2644.1
650.991	2601.09
651.183	2482.31
651.376	2631.81
651.568	2541.7
651.761	2490.5
651.954	2510.98
652.146	2609.28
652.339	2457.73
652.531	2400.39
652.724	2504.84
652.916	2474.12
653.109	2443.4
653.301	2390.15
653.494	2537.6
653.686	2377.86
653.879	2398.34
654.071	2498.69
654.263	2361.48
654.456	2447.49
654.648	2341
654.84	2404.49
655.033	2330.76
655.225	2240.65
655.417	2289.8
655.61	2289.8
655.802	2394.25
655.994	2265.22
656.186	2285.7
656.379	2195.59
656.571	2263.18
656.763	2226.31
656.955	2275.46
657.148	2240.65
657.34	2218.12
657.532	2205.83
657.724	2201.74
657.916	2058.38
658.108	2144.39
658.3	2119.82
658.492	2142.35
658.684	2187.4
658.876	2058.38
659.068	2093.19
659.26	2140.3
659.452	2130.06
659.644	2117.77
659.836	2035.85
660.028	2164.87
660.22	2035.85
660.412	2037.9
660.604	1974.41
660.796	1933.45
660.988	2001.04
661.18	1880.21
661.372	1927.31
661.563	2058.38
661.755	1955.98
661.947	1900.69
662.139	1896.59
662.331	1874.06
662.522	1929.36
662.714	1884.3
662.906	1855.63
663.097	1822.86
663.289	1822.86
663.481	1786
663.673	1833.1
663.864	1888.4
664.056	1855.63
664.247	1816.72
664.439	1824.91
664.631	1683.6
664.822	1900.69
665.014	1808.53
665.205	1702.03
665.397	1751.18
665.588	1722.51
665.78	1691.79
665.971	1759.38
666.163	1794.19
666.354	1822.86
666.546	1691.79
666.737	1583.25
666.929	1673.36
667.12	1714.32
667.311	1591.44
667.503	1722.51
667.694	1624.21
667.885	1558.67
668.077	1783.95
668.268	1704.08
668.459	1699.98
668.651	1646.74
668.842	1618.07
669.033	1638.55
669.224	1601.68
669.416	1759.38
669.607	1611.92
669.798	1536.15
669.989	1616.02
670.18	1472.66
670.371	1509.52
670.563	1468.56
670.754	1620.11
670.945	1501.33
671.136	1525.91
671.327	1550.48
671.518	1638.55
671.709	1530
671.9	1495.19
672.091	1546.39
672.282	1534.1
672.473	1521.81
672.664	1454.23
672.855	1525.91
673.046	1523.86
673.237	1507.48
673.428	1468.56
673.619	1425.56
673.809	1489.04
674	1435.8
674.191	1441.94
674.382	1452.18
674.573	1425.56
674.764	1343.64
674.954	1429.65
675.145	1435.8
675.336	1380.5
675.527	1419.41
675.717	1388.69
675.908	1335.45
676.099	1439.89
676.289	1497.24
676.48	1386.65
676.671	1343.64
676.861	1435.8
677.052	1443.99
677.243	1321.11
677.433	1345.69
677.624	1396.89
677.814	1325.21
678.005	1339.54
678.195	1392.79
678.386	1304.73
678.576	1337.49
678.767	1282.2
678.957	1312.92
679.148	1319.06
679.338	1255.58
679.529	1339.54
679.719	1388.69
679.909	1300.63
680.1	1364.12
680.29	1304.73
680.481	1329.3
680.671	1314.97
680.861	1329.3
681.052	1290.39
681.242	1300.63
681.432	1362.07
681.622	1276.06
681.813	1194.14
682.003	1341.59
682.193	1253.53
682.383	1300.63
682.573	1431.7
682.764	1233.05
682.954	1235.1
683.144	1231
683.334	1239.19
683.524	1331.35
683.714	1247.38
683.904	1280.15
684.094	1233.05
684.284	1280.15
684.474	1226.9
684.664	1274.01
684.854	1194.14
685.044	1317.01
685.234	1267.86
685.424	1276.06
685.614	1231
685.804	1214.62
685.994	1140.89
686.184	1245.34
686.374	1243.29
686.564	1284.25
686.753	1317.01
686.943	1138.84
687.133	1249.43
687.323	1241.24
687.513	1228.95
687.702	1222.81
687.892	1185.94
688.082	1192.09
688.272	1265.82
688.461	1247.38
688.651	1177.75
688.841	1112.22
689.03	1183.9
689.22	1204.38
689.41	1222.81
689.599	1212.57
689.789	1112.22
689.979	1171.61
690.168	1185.94
690.358	1120.41
690.547	1108.12
690.737	1208.47
690.926	1181.85
691.116	1087.64
691.305	1097.88
691.495	1151.13
691.684	1187.99
691.874	1054.87
692.063	1011.87
692.252	1085.59
692.442	1122.46
692.631	1087.64
692.82	1085.59
693.01	1085.59
693.199	1001.63
693.388	1083.55
693.578	1114.27
693.767	1009.82
693.956	1022.11
694.146	1063.07
694.335	1093.79
694.524	1089.69
694.713	1140.89
694.902	1097.88
695.092	1042.59
695.281	985.24
695.47	1003.68
695.659	1028.25
695.848	1030.3
696.037	1011.87
696.226	1007.77
696.415	989.34
696.604	1026.2
696.793	981.15
696.982	972.96
697.171	1046.68
697.36	975
697.549	1067.16
697.738	977.05
697.927	999.58
698.116	958.62
698.305	966.81
698.494	1036.44
698.683	1056.92
698.872	999.58
699.061	1056.92
699.25	940.19
699.438	868.51
699.627	981.15
699.816	1022.11
700.005	966.81
700.193	909.47
700.382	987.29
700.571	940.19
700.76	944.28
700.948	948.38
701.137	944.28
701.326	868.51
701.514	1018.01
701.703	956.57
701.892	995.48
702.08	841.89
702.269	927.9
702.457	897.18
702.646	954.52
702.834	880.8
703.023	940.19
703.212	989.34
703.4	950.43
703.589	884.89
703.777	913.56
703.965	979.1
704.154	929.95
704.342	944.28
704.531	960.67
704.719	983.2
704.907	981.15
705.096	827.55
705.284	897.18
705.472	888.99
705.661	977.05
705.849	891.04
706.037	985.24
706.226	985.24
706.414	950.43
706.602	870.56
706.79	962.72
706.979	1042.59
707.167	862.37
707.355	925.85
707.543	970.91
707.731	946.33
707.919	893.09
708.107	929.95
708.296	893.09
708.484	907.42
708.672	903.32
708.86	895.13
709.048	903.32
709.236	845.98
709.424	864.41
709.612	938.14
709.8	860.32
709.988	893.09
710.176	942.24
710.364	866.46
710.551	831.65
710.739	868.51
710.927	985.24
711.115	882.85
711.303	817.31
711.491	864.41
711.679	868.51
711.866	927.9
712.054	796.83
712.242	948.38
712.43	852.13
712.617	841.89
712.805	923.8
712.993	866.46
713.181	884.89
713.368	868.51
713.556	837.79
713.744	909.47
713.931	901.28
714.119	868.51
714.306	819.36
714.494	831.65
714.682	823.45
714.869	805.02
715.057	878.75
715.244	880.8
715.432	856.22
715.619	837.79
715.807	911.52
715.994	852.13
716.182	899.23
716.369	897.18
716.556	864.41
716.744	876.7
716.931	798.88
717.119	800.93
717.306	866.46
717.493	866.46
717.681	848.03
717.868	880.8
718.055	823.45
718.242	878.75
718.43	952.48
718.617	872.61
718.804	878.75
718.991	762.02
719.179	823.45
719.366	897.18
719.553	940.19
719.74	878.75
719.927	841.89
720.114	897.18
720.301	850.08
720.488	811.17
720.676	872.61
720.863	839.84
721.05	841.89
721.237	829.6
721.424	856.22
721.611	895.13
721.798	897.18
721.985	813.21
722.172	841.89
722.358	852.13
722.545	852.13
722.732	845.98
722.919	927.9
723.106	888.99
723.293	821.41
723.48	854.17
723.667	850.08
723.853	956.57
724.04	864.41
724.227	835.74
724.414	891.04
724.6	915.61
724.787	880.8
724.974	845.98
725.161	876.7
725.347	917.66
725.534	897.18
725.72	901.28
725.907	839.84
726.094	895.13
726.28	821.41
726.467	858.27
726.653	852.13
726.84	809.12
727.027	909.47
727.213	829.6
727.4	901.28
727.586	954.52
727.773	880.8
727.959	839.84
728.145	917.66
728.332	860.32
728.518	921.76
728.705	921.76
728.891	870.56
729.077	921.76
729.264	880.8
729.45	829.6
729.636	874.65
729.823	839.84
730.009	860.32
730.195	891.04
730.382	954.52
730.568	929.95
730.754	903.32
730.94	854.17
731.126	940.19
731.313	966.81
731.499	901.28
731.685	872.61
731.871	864.41
732.057	934.04
732.243	972.96
732.429	907.42
732.615	878.75
732.801	993.44
732.987	874.65
733.173	968.86
733.359	905.37
733.545	860.32
733.731	753.82
733.917	964.76
734.103	964.76
734.289	934.04
734.475	954.52
734.661	866.46
734.847	944.28
735.033	944.28
735.219	895.13
735.404	936.09
735.59	886.94
735.776	886.94
735.962	878.75
736.148	909.47
736.333	891.04
736.519	835.74
736.705	884.89
736.89	897.18
737.076	962.72
737.262	858.27
737.447	888.99
737.633	919.71
737.819	919.71
738.004	891.04
738.19	852.13
738.375	845.98
738.561	903.32
738.747	934.04
738.932	891.04
739.118	972.96
739.303	927.9
739.489	888.99
739.674	852.13
739.859	927.9
740.045	905.37
740.23	870.56
740.416	903.32
740.601	911.52
740.786	899.23
740.972	876.7
741.157	876.7
741.342	1007.77
741.528	942.24
741.713	825.5
741.898	864.41
742.084	882.85
742.269	872.61
742.454	921.76
742.639	874.65
742.824	839.84
743.01	831.65
743.195	886.94
743.38	821.41
743.565	882.85
743.75	876.7
743.935	946.33
744.12	868.51
744.305	858.27
744.49	811.17
744.675	854.17
744.86	837.79
745.045	878.75
745.23	909.47
745.415	852.13
745.6	745.63
745.785	866.46
745.97	870.56
746.155	811.17
746.34	850.08
746.525	858.27
746.71	790.69
746.895	796.83
747.079	850.08
747.264	848.03
747.449	823.45
747.634	739.49
747.819	784.54
748.003	845.98
748.188	817.31
748.373	749.73
748.557	716.96
748.742	792.73
748.927	829.6
749.111	782.49
749.296	782.49
749.481	792.73
749.665	784.54
749.85	805.02
750.034	823.45
750.219	805.02
750.404	749.73
750.588	796.83
750.773	757.92
750.957	794.78
751.141	694.43
751.326	741.54
751.51	669.86
751.695	774.3
751.879	770.21
752.064	710.82
752.248	743.58
752.432	796.83
752.617	778.4
752.801	694.43
752.985	729.25
753.17	700.58
753.354	741.54
753.538	676
753.722	702.62
753.907	682.14
754.091	682.14
754.275	702.62
754.459	676
754.643	714.91
754.828	676
755.012	649.38
755.196	665.76
755.38	680.1
755.564	688.29
755.748	637.09
755.932	657.57
756.116	678.05
756.3	620.71
756.484	624.8
756.668	555.17
756.852	604.32
757.036	686.24
757.22	659.62
757.404	618.66
757.588	569.51
757.772	596.13
757.956	526.5
758.14	583.84
758.323	567.46
758.507	489.64
758.691	563.36
758.875	565.41
759.059	682.14
759.242	565.41
759.426	635.04
759.61	559.27
759.794	557.22
759.977	559.27
760.161	530.59
760.345	583.84
760.528	596.13
760.712	553.12
760.895	563.36
761.079	481.44
761.263	520.35
761.446	581.79
761.63	499.88
761.813	495.78
761.997	524.45
762.18	501.92
762.364	512.16
762.547	495.78
762.731	524.45
762.914	614.56
763.098	514.21
763.281	432.29
763.464	546.98
763.648	460.96
763.831	481.44
764.015	475.3
764.198	473.25
764.381	542.88
764.564	534.69
764.748	487.59
764.931	526.5
765.114	479.4
765.297	454.82
765.481	471.2
765.664	469.16
765.847	516.26
766.03	405.67
766.213	477.35
766.397	495.78
766.58	440.48
766.763	456.87
766.946	463.01
767.129	499.88
767.312	489.64
767.495	430.24
767.678	471.2
767.861	497.83
768.044	360.61
768.227	442.53
768.41	415.91
768.593	540.83
768.776	499.88
768.959	430.24
769.142	407.72
769.324	452.77
769.507	471.2
769.69	477.35
769.873	456.87
770.056	501.92
770.239	362.66
770.421	557.22
770.604	411.81
770.787	481.44
770.97	399.52
771.152	454.82
771.335	456.87
771.518	436.39
771.7	446.63
771.883	385.19
772.066	417.96
772.248	456.87
772.431	422.05
772.613	432.29
772.796	415.91
772.978	403.62
773.161	327.85
773.343	344.23
773.526	385.19
773.708	420
773.891	381.09
774.073	403.62
774.256	379.04
774.438	401.57
774.621	360.61
774.803	366.76
774.985	358.57
775.168	364.71
775.35	352.42
775.532	411.81
775.715	372.9
775.897	366.76
776.079	372.9
776.261	301.22
776.444	362.66
776.626	307.37
776.808	395.43
776.99	364.71
777.173	338.09
777.355	393.38
777.537	430.24
777.719	303.27
777.901	338.09
778.083	344.23
778.265	333.99
778.447	274.6
778.629	327.85
778.811	301.22
778.993	272.55
779.175	338.09
779.357	348.33
779.539	317.61
779.721	362.66
779.903	309.41
780.085	333.99
780.267	241.83
780.449	239.78
780.631	260.26
780.812	233.64
780.994	350.37
781.176	311.46
781.358	299.17
781.54	276.65
781.721	333.99
781.903	276.65
782.085	223.4
782.267	241.83
782.448	290.98
782.63	311.46
782.812	217.26
782.993	194.73
783.175	293.03
783.357	276.65
783.538	354.47
783.72	149.67
783.901	233.64
784.083	260.26
784.264	290.98
784.446	192.68
784.627	243.88
784.809	225.45
784.99	190.63
785.172	284.84
785.353	272.55
785.535	245.93
785.716	192.68
785.897	247.97
786.079	282.79
786.26	192.68
786.441	262.31
786.623	268.45
786.804	174.25
786.985	190.63
787.167	264.36
787.348	176.3
787.529	215.21
787.71	221.35
787.891	200.87
788.073	215.21
788.254	293.03
788.435	223.4
788.616	178.34
788.797	178.34
788.978	192.68
789.159	180.39
789.34	157.86
789.522	188.58
789.703	207.02
789.884	202.92
790.065	223.4
790.246	153.77
790.427	198.82
790.607	213.16
790.788	151.72
790.969	147.62
791.15	123.05
791.331	336.04
791.512	200.87
791.693	147.62
791.874	168.1
792.054	155.82
792.235	204.97
792.416	100.52
792.597	133.29
792.778	174.25
792.958	211.11
793.139	192.68
793.32	155.82
793.5	190.63
793.681	155.82
793.862	131.24
794.042	184.49
794.223	241.83
794.404	172.2
794.584	143.53
794.765	110.76
794.945	186.54
795.126	172.2
795.306	194.73
795.487	176.3
795.667	141.48
795.848	127.14
796.028	147.62
796.209	213.16
796.389	127.14
796.57	149.67
796.75	129.19
796.93	237.74
797.111	116.9
797.291	192.68
797.471	155.82
797.652	168.1
797.832	110.76
798.012	209.06
798.192	121
798.373	116.9
798.553	159.91
798.733	135.34
798.913	147.62
799.093	86.19
799.274	204.97
799.454	166.06
799.634	71.85
799.814	178.34
799.994	102.57
800.174	155.82
800.354	161.96
800.534	127.14
800.714	108.71
800.894	98.47
801.074	71.85
801.254	123.05
801.434	116.9
801.614	51.37
801.794	80.04
801.974	329.89
802.154	108.71
802.334	123.05
802.514	84.14
802.693	118.95
802.873	102.57
803.053	137.38
803.233	190.63
803.413	118.95
803.592	84.14
803.772	139.43
803.952	106.67
804.131	133.29
804.311	151.72
804.491	108.71
804.67	41.13
804.85	104.62
805.03	82.09
805.209	61.61
805.389	86.19
805.568	100.52
805.748	127.14
805.928	143.53
806.107	47.27
806.287	59.56
806.466	121
806.646	102.57
806.825	149.67
807.004	121
807.184	90.28
807.363	82.09
807.543	110.76
807.722	139.43
807.901	139.43
808.081	92.33
808.26	67.75
808.439	67.75
808.619	149.67
808.798	53.42
808.977	96.43
809.156	133.29
809.336	121
809.515	123.05
809.694	125.1
809.873	51.37
810.052	116.9
810.231	100.52
810.411	139.43
810.59	116.9
810.769	41.13
810.948	80.04
811.127	92.33
811.306	49.32
811.485	67.75
811.664	90.28
811.843	65.71
812.022	129.19
812.201	65.71
812.38	77.99
812.559	125.1
812.737	34.99
812.916	51.37
813.095	88.23
813.274	141.48
813.453	80.04
813.632	80.04
813.811	45.23
813.989	80.04
814.168	75.95
814.347	61.61
814.526	20.65
814.704	123.05
814.883	127.14
815.062	114.86
815.24	75.95
815.419	118.95
815.598	104.62
815.776	51.37
815.955	92.33
816.133	147.62
816.312	125.1
816.49	59.56
816.669	100.52
816.847	6.31
817.026	141.48
817.204	43.18
817.383	82.09
817.561	108.71
817.74	168.1
817.918	77.99
818.097	129.19
818.275	116.9
818.453	39.08
818.632	125.1
818.81	67.75
818.988	80.04
819.167	34.99
819.345	16.55
819.523	94.38
819.701	-14.17
819.879	84.14
820.058	55.47
820.236	49.32
820.414	53.42
820.592	30.89
820.77	69.8
820.948	49.32
821.127	37.03
821.305	80.04
821.483	63.66
821.661	37.03
821.839	82.09
822.017	-1.88
822.195	77.99
822.373	57.51
822.551	102.57
822.729	118.95
822.907	18.6
823.085	37.03
823.262	92.33
823.44	77.99
823.618	108.71
823.796	71.85
823.974	12.46
824.152	41.13
824.329	102.57
824.507	-5.97
824.685	116.9
824.863	20.65
825.04	43.18
825.218	77.99
825.396	20.65
825.574	100.52
825.751	67.75
825.929	26.79
826.107	88.23
826.284	90.28
826.462	41.13
826.639	84.14
826.817	75.95
826.994	49.32
827.172	80.04
827.349	92.33
827.527	71.85
827.704	77.99
827.882	51.37
828.059	125.1
828.237	88.23
828.414	20.65
828.591	77.99
828.769	43.18
828.946	112.81
829.124	65.71
829.301	100.52
829.478	59.56
829.655	98.47
829.833	67.75
830.01	47.27
830.187	34.99
830.364	-3.93
830.542	57.51
830.719	28.84
830.896	32.94
831.073	57.51
831.25	45.23
831.427	-28.5
831.604	43.18
831.782	-20.31
831.959	20.65
832.136	30.89
832.313	65.71
832.49	45.23
832.667	75.95
832.844	-34.64
833.021	4.27
833.198	63.66
833.374	22.7
833.551	39.08
833.728	125.1
833.905	-75.6
834.082	39.08
834.259	-8.02
834.436	75.95
834.612	73.9
834.789	2.22
834.966	61.61
835.143	75.95
835.319	-20.31
835.496	47.27
835.673	88.23
835.85	20.65
836.026	108.71
836.203	98.47
836.38	49.32
836.556	75.95
836.733	32.94
836.909	-14.17
837.086	49.32
837.262	104.62
837.439	77.99
837.616	84.14
837.792	32.94
837.968	71.85
838.145	-20.31
838.321	67.75
838.498	61.61
838.674	53.42
838.851	67.75
839.027	100.52
839.203	90.28
839.38	45.23
839.556	26.79
839.732	59.56
839.909	45.23
840.085	41.13
840.261	49.32
840.437	53.42
840.614	71.85
840.79	141.48
840.966	37.03
841.142	69.8
841.318	20.65
841.494	55.47
841.671	49.32
841.847	82.09
842.023	45.23
842.199	82.09
842.375	47.27
842.551	118.95
842.727	-59.22
842.903	86.19
843.079	49.32
843.255	53.42
843.431	28.84
843.607	67.75
843.783	53.42
843.959	86.19
844.134	12.46
844.31	34.99
844.486	75.95
844.662	149.67
844.838	57.51
845.013	6.31
845.189	57.51
845.365	34.99
845.541	94.38
845.716	-10.07
845.892	67.75
846.068	22.7
846.244	88.23
846.419	22.7
846.595	65.71
846.77	10.41
846.946	2.22
847.122	-20.31
847.297	10.41
847.473	-5.97
847.648	24.75
847.824	41.13
847.999	-18.26
848.175	39.08
848.35	-14.17
848.526	94.38
848.701	12.46
848.876	28.84
849.052	28.84
849.227	51.37
849.403	34.99
849.578	-1.88
849.753	51.37
849.929	4.27
850.104	12.46
850.279	-3.93
850.454	14.51
850.63	65.71
850.805	59.56
850.98	80.04
851.155	90.28
851.33	26.79
851.505	24.75
851.681	37.03
851.856	-26.45
852.031	30.89
852.206	55.47
852.381	8.36
852.556	57.51
852.731	86.19
852.906	49.32
853.081	24.75
853.256	30.89
853.431	39.08
853.606	20.65
853.781	-16.21
853.956	55.47
854.131	96.43
854.305	55.47
854.48	57.51
854.655	24.75
854.83	55.47
855.005	55.47
855.18	39.08
855.354	22.7
855.529	32.94
855.704	0.17
855.879	-12.12
856.053	-36.69
856.228	-22.36
856.403	-26.45
856.577	100.52
856.752	-42.84
856.926	20.65
857.101	-26.45
857.276	-12.12
857.45	-26.45
857.625	12.46
857.799	-34.64
857.974	-12.12
858.148	61.61
858.323	-14.17
858.497	14.51
858.672	18.6
858.846	-14.17
859.02	0.17
859.195	47.27
859.369	28.84
859.543	20.65
859.718	73.9
859.892	4.27
860.066	34.99
860.241	65.71
860.415	55.47
860.589	12.46
860.763	51.37
860.938	10.41
861.112	-14.17
861.286	2.22
861.46	75.95
861.634	12.46
861.808	22.7
861.982	67.75
862.157	-36.69
862.331	26.79
862.505	28.84
862.679	-1.88
862.853	16.55
863.027	2.22
863.201	65.71
863.375	-5.97
863.549	59.56
863.722	6.31
863.896	18.6
864.07	67.75
864.244	55.47
864.418	0.17
864.592	10.41
864.766	69.8
864.939	34.99
865.113	-8.02
865.287	2.22
865.461	30.89
865.634	16.55
865.808	71.85
865.982	63.66
866.156	-3.93
866.329	-24.4
866.503	24.75
866.676	4.27
866.85	73.9
867.024	2.22
867.197	18.6
867.371	12.46
867.544	12.46
867.718	8.36
867.891	10.41
868.065	67.75
868.238	-36.69
868.412	6.31
868.585	-20.31
868.759	10.41
868.932	47.27
869.105	-40.79
869.279	6.31
869.452	10.41
869.625	141.48
869.799	-22.36
869.972	-3.93
870.145	30.89
870.319	47.27
870.492	20.65
870.665	43.18
870.838	30.89
871.011	-20.31
871.185	-12.12
871.358	51.37
871.531	-46.93
871.704	6.31
871.877	20.65
872.05	-44.88
872.223	32.94
872.396	12.46
872.569	34.99
872.742	82.09
872.915	-16.21
873.088	-3.93
873.261	18.6
873.434	-24.4
873.607	55.47
873.78	88.23
873.953	-30.55
874.126	4.27
874.299	-12.12
874.471	-18.26
874.644	61.61
874.817	18.6
874.99	-10.07
875.163	-26.45
875.335	34.99
875.508	4.27
875.681	34.99
875.853	32.94
876.026	45.23
876.199	-5.97
876.371	55.47
876.544	88.23
876.717	8.36
876.889	51.37
877.062	12.46
877.234	110.76
877.407	61.61
877.579	-8.02
877.752	45.23
877.924	-24.4
878.097	0.17
878.269	20.65
878.442	-14.17
878.614	61.61
878.786	67.75
878.959	4.27
879.131	-32.6
879.303	28.84
879.476	-26.45
879.648	43.18
879.82	20.65
879.993	-71.51
880.165	-5.97
880.337	2.22
880.509	53.42
880.681	-30.55
880.854	-46.93
881.026	45.23
881.198	22.7
881.37	30.89
881.542	121
881.714	-3.93
881.886	-3.93
882.058	59.56
882.23	20.65
882.402	30.89
882.574	47.27
882.746	2.22
882.918	63.66
883.09	80.04
883.262	45.23
883.434	20.65
883.606	28.84
883.778	59.56
883.95	39.08
884.122	28.84
884.293	63.66
884.465	73.9
884.637	90.28
884.809	12.46
884.98	133.29
885.152	8.36
885.324	71.85
885.496	-22.36
885.667	-16.21
885.839	-69.46
886.011	65.71
886.182	-12.12
886.354	47.27
886.525	86.19
886.697	65.71
886.869	4.27
887.04	51.37
887.212	67.75
887.383	34.99
887.555	-8.02
887.726	24.75
887.897	34.99
888.069	14.51
888.24	0.17
888.412	-65.36
888.583	-87.89
888.754	2.22
888.926	-91.99
889.097	16.55
889.268	24.75
889.44	10.41
889.611	-3.93
889.782	41.13
889.953	59.56
890.125	20.65
890.296	-57.17
890.467	-3.93
890.638	22.7
890.809	28.84
890.98	71.85
891.151	-3.93
891.323	-59.22
891.494	4.27
891.665	4.27
891.836	32.94
892.007	2.22
892.178	26.79
892.349	2.22
892.52	47.27
892.691	-18.26
892.862	6.31
893.032	28.84
893.203	16.55
893.374	4.27
893.545	22.7
893.716	-3.93
893.887	-46.93
894.057	-3.93
894.228	-14.17
894.399	-22.36
894.57	-26.45
894.74	32.94
894.911	43.18
895.082	-3.93
895.253	24.75
895.423	12.46
895.594	80.04
895.764	-75.6
895.935	-3.93
896.106	39.08
896.276	6.31
896.447	41.13
896.617	61.61
896.788	45.23
896.958	-16.21
897.129	-18.26
897.299	4.27
897.47	30.89
897.64	118.95
897.81	-14.17
897.981	18.6
898.151	-44.88
898.322	-14.17
898.492	26.79
898.662	18.6
898.832	-18.26
899.003	18.6
899.173	-5.97
899.343	39.08
899.513	-20.31
