Data from USB4F104151__42__12-53-49-655.txt Node

Date: Fri Mar 14 12:53:49 EDT 2025
User: louis
Spectrometer: USB4F10415
Trigger mode: 4
Integration Time (sec): 1.000000E-2
Scans to average: 1
Electric dark correction enabled: true
Nonlinearity correction enabled: false
Boxcar width: 0
XAxis mode: Wavelengths
Number of Pixels in Spectrum: 3648
>>>>>Begin Spectral Data<<<<<
178.204	-46.25
178.424	-46.25
178.644	-46.25
178.864	-95.4
179.084	4.95
179.304	-1.19
179.524	-23.72
179.744	-83.11
179.964	-25.77
180.184	-9.39
180.404	25.43
180.624	33.62
180.844	-5.29
181.064	-52.39
181.283	90.96
181.503	60.24
181.723	-9.39
181.943	-66.73
182.163	-13.48
182.383	-9.39
182.602	56.15
182.822	-29.87
183.042	-13.48
183.262	41.81
183.482	-3.24
183.701	37.72
183.921	4.95
184.141	29.52
184.361	47.96
184.58	-11.43
184.8	64.34
185.02	-31.91
185.239	93.01
185.459	-17.58
185.679	-1.19
185.898	0.85
186.118	60.24
186.338	-15.53
186.557	72.53
186.777	39.76
186.997	-11.43
187.216	17.24
187.436	-40.11
187.655	41.81
187.875	66.39
188.095	25.43
188.314	27.48
188.534	-23.72
188.753	-29.87
188.973	37.72
189.192	37.72
189.412	39.76
189.631	52.05
189.851	-48.3
190.07	50
190.29	54.1
190.509	21.33
190.729	7
190.948	13.14
191.168	64.34
191.387	-1.19
191.607	35.67
191.826	15.19
192.045	-5.29
192.265	31.57
192.484	9.05
192.704	-1.19
192.923	43.86
193.142	31.57
193.362	13.14
193.581	78.68
193.8	-7.34
194.02	23.38
194.239	-52.39
194.458	-1.19
194.678	-44.2
194.897	58.2
195.116	-9.39
195.335	39.76
195.555	-27.82
195.774	-46.25
195.993	-64.68
196.212	78.68
196.432	21.33
196.651	21.33
196.87	-21.67
197.089	58.2
197.308	29.52
197.528	9.05
197.747	0.85
197.966	-5.29
198.185	17.24
198.404	-42.15
198.623	64.34
198.842	41.81
199.062	54.1
199.281	33.62
199.5	29.52
199.719	9.05
199.938	15.19
200.157	-15.53
200.376	2.9
200.595	50
200.814	0.85
201.033	-3.24
201.252	50
201.471	29.52
201.69	29.52
201.909	-13.48
202.128	41.81
202.347	-15.53
202.566	0.85
202.785	-17.58
203.004	41.81
203.223	35.67
203.442	2.9
203.661	76.63
203.879	33.62
204.098	-29.87
204.317	11.09
204.536	52.05
204.755	0.85
204.974	13.14
205.193	21.33
205.411	15.19
205.63	39.76
205.849	50
206.068	39.76
206.287	-27.82
206.505	84.82
206.724	29.52
206.943	37.72
207.162	-25.77
207.381	23.38
207.599	27.48
207.818	58.2
208.037	7
208.255	72.53
208.474	88.92
208.693	9.05
208.911	-76.97
209.13	86.87
209.349	60.24
209.567	9.05
209.786	47.96
210.005	-33.96
210.223	39.76
210.442	9.05
210.661	-3.24
210.879	-42.15
211.098	45.91
211.316	47.96
211.535	27.48
211.753	-17.58
211.972	13.14
212.191	23.38
212.409	23.38
212.628	2.9
212.846	39.76
213.065	-31.91
213.283	23.38
213.502	21.33
213.72	64.34
213.938	25.43
214.157	-3.24
214.375	-13.48
214.594	41.81
214.812	-21.67
215.031	-3.24
215.249	-9.39
215.467	45.91
215.686	-11.43
215.904	19.29
216.122	29.52
216.341	-68.78
216.559	-64.68
216.778	33.62
216.996	74.58
217.214	-15.53
217.432	17.24
217.651	21.33
217.869	-25.77
218.087	27.48
218.306	-5.29
218.524	27.48
218.742	25.43
218.96	66.39
219.179	78.68
219.397	66.39
219.615	80.72
219.833	39.76
220.051	-60.59
220.27	56.15
220.488	56.15
220.706	2.9
220.924	15.19
221.142	52.05
221.36	9.05
221.578	15.19
221.796	7
222.015	86.87
222.233	13.14
222.451	56.15
222.669	-9.39
222.887	70.48
223.105	4.95
223.323	43.86
223.541	-79.02
223.759	13.14
223.977	-13.48
224.195	-1.19
224.413	-19.63
224.631	68.44
224.849	31.57
225.067	86.87
225.285	-1.19
225.503	11.09
225.721	0.85
225.939	37.72
226.157	15.19
226.375	13.14
226.592	9.05
226.81	41.81
227.028	17.24
227.246	27.48
227.464	37.72
227.682	52.05
227.9	82.77
228.117	60.24
228.335	-58.54
228.553	0.85
228.771	27.48
228.989	45.91
229.206	27.48
229.424	15.19
229.642	4.95
229.86	-44.2
230.077	41.81
230.295	37.72
230.513	58.2
230.731	54.1
230.948	43.86
231.166	72.53
231.384	50
231.601	76.63
231.819	15.19
232.037	2.9
232.254	-29.87
232.472	80.72
232.689	56.15
232.907	-42.15
233.125	27.48
233.342	60.24
233.56	54.1
233.777	-11.43
233.995	11.09
234.213	2.9
234.43	-48.3
234.648	9.05
234.865	119.64
235.083	50
235.3	56.15
235.518	50
235.735	54.1
235.953	58.2
236.17	11.09
236.388	25.43
236.605	-9.39
236.822	80.72
237.04	43.86
237.257	17.24
237.475	-3.24
237.692	37.72
237.909	-50.35
238.127	31.57
238.344	62.29
238.562	-17.58
238.779	9.05
238.996	-27.82
239.214	-42.15
239.431	4.95
239.648	-23.72
239.865	52.05
240.083	82.77
240.3	23.38
240.517	-31.91
240.735	9.05
240.952	13.14
241.169	-56.49
241.386	11.09
241.603	25.43
241.821	-56.49
242.038	58.2
242.255	31.57
242.472	25.43
242.689	-11.43
242.907	45.91
243.124	25.43
243.341	-15.53
243.558	37.72
243.775	11.09
243.992	-13.48
244.209	64.34
244.426	-11.43
244.643	23.38
244.86	15.19
245.078	62.29
245.295	-21.67
245.512	-3.24
245.729	37.72
245.946	13.14
246.163	19.29
246.38	25.43
246.597	17.24
246.814	45.91
247.031	27.48
247.248	72.53
247.464	41.81
247.681	78.68
247.898	-50.35
248.115	88.92
248.332	21.33
248.549	66.39
248.766	47.96
248.983	45.91
249.2	43.86
249.417	45.91
249.633	-17.58
249.85	4.95
250.067	-27.82
250.284	54.1
250.501	82.77
250.717	52.05
250.934	31.57
251.151	54.1
251.368	-19.63
251.585	-1.19
251.801	27.48
252.018	-3.24
252.235	33.62
252.451	-7.34
252.668	58.2
252.885	31.57
253.102	31.57
253.318	74.58
253.535	15.19
253.752	-19.63
253.968	15.19
254.185	-50.35
254.401	33.62
254.618	37.72
254.835	33.62
255.051	56.15
255.268	-17.58
255.484	-11.43
255.701	-1.19
255.917	78.68
256.134	-46.25
256.351	4.95
256.567	9.05
256.784	-3.24
257	52.05
257.217	13.14
257.433	-15.53
257.65	35.67
257.866	31.57
258.082	47.96
258.299	23.38
258.515	19.29
258.732	29.52
258.948	-23.72
259.165	-11.43
259.381	13.14
259.597	11.09
259.814	56.15
260.03	78.68
260.246	23.38
260.463	41.81
260.679	-15.53
260.895	17.24
261.112	37.72
261.328	4.95
261.544	72.53
261.761	125.78
261.977	93.01
262.193	-42.15
262.409	103.25
262.626	9.05
262.842	72.53
263.058	52.05
263.274	66.39
263.49	56.15
263.707	56.15
263.923	-31.91
264.139	45.91
264.355	25.43
264.571	-74.92
264.787	-23.72
265.004	21.33
265.22	64.34
265.436	-42.15
265.652	4.95
265.868	15.19
266.084	-3.24
266.3	-19.63
266.516	11.09
266.732	58.2
266.948	13.14
267.164	17.24
267.38	76.63
267.596	-5.29
267.812	37.72
268.028	-9.39
268.244	101.2
268.46	19.29
268.676	39.76
268.892	78.68
269.108	17.24
269.324	-23.72
269.54	-19.63
269.756	4.95
269.972	23.38
270.188	-1.19
270.403	45.91
270.619	-1.19
270.835	82.77
271.051	7
271.267	21.33
271.483	39.76
271.698	-1.19
271.914	39.76
272.13	2.9
272.346	-3.24
272.562	-11.43
272.777	31.57
272.993	39.76
273.209	37.72
273.425	35.67
273.64	47.96
273.856	-15.53
274.072	21.33
274.287	-11.43
274.503	78.68
274.719	39.76
274.934	-38.06
275.15	-64.68
275.366	11.09
275.581	13.14
275.797	-70.83
276.012	-52.39
276.228	78.68
276.444	-19.63
276.659	15.19
276.875	37.72
277.09	9.05
277.306	4.95
277.521	25.43
277.737	19.29
277.952	21.33
278.168	37.72
278.383	58.2
278.599	-17.58
278.814	17.24
279.03	-9.39
279.245	-42.15
279.461	-7.34
279.676	-5.29
279.892	31.57
280.107	-36.01
280.322	37.72
280.538	4.95
280.753	80.72
280.969	25.43
281.184	2.9
281.399	45.91
281.615	-9.39
281.83	21.33
282.045	4.95
282.26	31.57
282.476	74.58
282.691	76.63
282.906	93.01
283.122	99.16
283.337	-19.63
283.552	88.92
283.767	56.15
283.983	-13.48
284.198	27.48
284.413	13.14
284.628	37.72
284.843	29.52
285.058	-3.24
285.274	-3.24
285.489	4.95
285.704	97.11
285.919	-36.01
286.134	64.34
286.349	25.43
286.564	31.57
286.779	7
286.995	-36.01
287.21	86.87
287.425	58.2
287.64	60.24
287.855	37.72
288.07	11.09
288.285	25.43
288.5	47.96
288.715	37.72
288.93	37.72
289.145	23.38
289.36	17.24
289.575	70.48
289.79	4.95
290.004	-11.43
290.219	88.92
290.434	15.19
290.649	15.19
290.864	-27.82
291.079	13.14
291.294	13.14
291.509	21.33
291.724	50
291.938	78.68
292.153	21.33
292.368	15.19
292.583	-11.43
292.798	60.24
293.012	15.19
293.227	-36.01
293.442	35.67
293.657	70.48
293.871	13.14
294.086	21.33
294.301	111.44
294.516	35.67
294.73	74.58
294.945	-13.48
295.16	27.48
295.374	9.05
295.589	41.81
295.804	-13.48
296.018	-27.82
296.233	31.57
296.447	29.52
296.662	74.58
296.877	9.05
297.091	97.11
297.306	-46.25
297.52	-3.24
297.735	70.48
297.949	-74.92
298.164	11.09
298.378	4.95
298.593	-23.72
298.807	-3.24
299.022	39.76
299.236	41.81
299.451	64.34
299.665	47.96
299.88	62.29
300.094	-9.39
300.309	15.19
300.523	-38.06
300.737	2.9
300.952	43.86
301.166	80.72
301.381	68.44
301.595	-5.29
301.809	17.24
302.024	86.87
302.238	19.29
302.452	17.24
302.667	25.43
302.881	-7.34
303.095	74.58
303.309	31.57
303.524	-23.72
303.738	125.78
303.952	2.9
304.166	31.57
304.381	58.2
304.595	27.48
304.809	15.19
305.023	60.24
305.237	9.05
305.452	27.48
305.666	15.19
305.88	19.29
306.094	-1.19
306.308	95.06
306.522	109.4
306.736	27.48
306.95	13.14
307.164	2.9
307.379	58.2
307.593	37.72
307.807	58.2
308.021	17.24
308.235	39.76
308.449	-13.48
308.663	17.24
308.877	29.52
309.091	41.81
309.305	31.57
309.519	-1.19
309.733	82.77
309.947	-11.43
310.161	29.52
310.374	25.43
310.588	37.72
310.802	-33.96
311.016	0.85
311.23	0.85
311.444	31.57
311.658	52.05
311.872	68.44
312.085	93.01
312.299	25.43
312.513	9.05
312.727	19.29
312.941	25.43
313.154	58.2
313.368	21.33
313.582	78.68
313.796	37.72
314.009	9.05
314.223	45.91
314.437	13.14
314.651	-17.58
314.864	-15.53
315.078	-50.35
315.292	-15.53
315.505	39.76
315.719	64.34
315.933	82.77
316.146	45.91
316.36	72.53
316.573	-31.91
316.787	33.62
317.001	74.58
317.214	29.52
317.428	60.24
317.641	37.72
317.855	-52.39
318.068	13.14
318.282	17.24
318.495	-52.39
318.709	-1.19
318.922	-7.34
319.136	15.19
319.349	58.2
319.563	-21.67
319.776	9.05
319.99	0.85
320.203	4.95
320.417	25.43
320.63	47.96
320.843	-58.54
321.057	37.72
321.27	15.19
321.483	29.52
321.697	84.82
321.91	2.9
322.124	45.91
322.337	27.48
322.55	7
322.763	-48.3
322.977	31.57
323.19	-46.25
323.403	68.44
323.617	-19.63
323.83	-7.34
324.043	-9.39
324.256	31.57
324.469	23.38
324.683	52.05
324.896	43.86
325.109	37.72
325.322	52.05
325.535	-3.24
325.748	25.43
325.962	74.58
326.175	-13.48
326.388	97.11
326.601	-46.25
326.814	54.1
327.027	47.96
327.24	70.48
327.453	33.62
327.666	27.48
327.879	105.3
328.092	123.73
328.305	0.85
328.518	58.2
328.731	9.05
328.944	17.24
329.157	78.68
329.37	43.86
329.583	45.91
329.796	76.63
330.009	2.9
330.222	21.33
330.435	9.05
330.648	17.24
330.861	-13.48
331.073	78.68
331.286	13.14
331.499	-21.67
331.712	17.24
331.925	62.29
332.138	13.14
332.35	62.29
332.563	-33.96
332.776	-19.63
332.989	50
333.202	13.14
333.414	-31.91
333.627	2.9
333.84	74.58
334.053	17.24
334.265	62.29
334.478	-13.48
334.691	15.19
334.903	52.05
335.116	-15.53
335.329	-15.53
335.541	54.1
335.754	64.34
335.966	39.76
336.179	-5.29
336.392	23.38
336.604	2.9
336.817	13.14
337.029	54.1
337.242	50
337.454	35.67
337.667	-66.73
337.88	76.63
338.092	-3.24
338.305	52.05
338.517	7
338.729	4.95
338.942	56.15
339.154	-7.34
339.367	-29.87
339.579	54.1
339.792	-3.24
340.004	62.29
340.217	-40.11
340.429	-38.06
340.641	41.81
340.854	84.82
341.066	41.81
341.278	33.62
341.491	19.29
341.703	39.76
341.915	7
342.128	0.85
342.34	17.24
342.552	23.38
342.764	39.76
342.977	19.29
343.189	35.67
343.401	31.57
343.613	-11.43
343.826	31.57
344.038	11.09
344.25	13.14
344.462	86.87
344.674	27.48
344.886	-15.53
345.099	39.76
345.311	13.14
345.523	52.05
345.735	37.72
345.947	0.85
346.159	54.1
346.371	13.14
346.583	-25.77
346.795	-1.19
347.007	-13.48
347.219	33.62
347.431	35.67
347.643	66.39
347.855	68.44
348.067	29.52
348.279	31.57
348.491	80.72
348.703	43.86
348.915	39.76
349.127	50
349.339	45.91
349.551	-36.01
349.763	2.9
349.975	9.05
350.187	72.53
350.399	56.15
350.61	23.38
350.822	62.29
351.034	39.76
351.246	-7.34
351.458	4.95
351.669	-9.39
351.881	13.14
352.093	-33.96
352.305	4.95
352.517	21.33
352.728	54.1
352.94	-27.82
353.152	0.85
353.363	52.05
353.575	56.15
353.787	50
353.999	72.53
354.21	62.29
354.422	37.72
354.633	56.15
354.845	37.72
355.057	13.14
355.268	0.85
355.48	-25.77
355.692	58.2
355.903	31.57
356.115	31.57
356.326	103.25
356.538	93.01
356.749	-25.77
356.961	31.57
357.172	-11.43
357.384	-23.72
357.595	15.19
357.807	64.34
358.018	29.52
358.23	-11.43
358.441	9.05
358.653	25.43
358.864	-36.01
359.075	37.72
359.287	35.67
359.498	64.34
359.709	-1.19
359.921	33.62
360.132	62.29
360.344	54.1
360.555	-1.19
360.766	7
360.977	21.33
361.189	64.34
361.4	50
361.611	43.86
361.823	41.81
362.034	9.05
362.245	-3.24
362.456	-7.34
362.667	62.29
362.879	9.05
363.09	45.91
363.301	9.05
363.512	39.76
363.723	35.67
363.935	101.2
364.146	37.72
364.357	-56.49
364.568	-19.63
364.779	4.95
364.99	66.39
365.201	7
365.412	47.96
365.623	-25.77
365.834	29.52
366.045	47.96
366.256	86.87
366.467	62.29
366.678	58.2
366.889	29.52
367.1	109.4
367.311	29.52
367.522	50
367.733	54.1
367.944	-17.58
368.155	45.91
368.366	-1.19
368.577	107.35
368.788	95.06
368.999	-27.82
369.209	15.19
369.42	4.95
369.631	103.25
369.842	62.29
370.053	60.24
370.264	90.96
370.474	70.48
370.685	56.15
370.896	84.82
371.107	31.57
371.317	119.64
371.528	74.58
371.739	115.54
371.95	37.72
372.16	56.15
372.371	29.52
372.582	52.05
372.792	31.57
373.003	15.19
373.214	-48.3
373.424	86.87
373.635	7
373.846	72.53
374.056	19.29
374.267	58.2
374.477	21.33
374.688	43.86
374.898	37.72
375.109	13.14
375.319	17.24
375.53	56.15
375.74	66.39
375.951	45.91
376.161	86.87
376.372	7
376.582	37.72
376.793	45.91
377.003	107.35
377.214	13.14
377.424	35.67
377.635	123.73
377.845	-31.91
378.055	27.48
378.266	17.24
378.476	80.72
378.686	41.81
378.897	31.57
379.107	29.52
379.317	-3.24
379.528	37.72
379.738	93.01
379.948	50
380.158	66.39
380.369	54.1
380.579	62.29
380.789	15.19
380.999	0.85
381.21	64.34
381.42	4.95
381.63	-17.58
381.84	43.86
382.05	88.92
382.261	31.57
382.471	39.76
382.681	115.54
382.891	66.39
383.101	-9.39
383.311	37.72
383.521	15.19
383.731	-17.58
383.941	58.2
384.151	-19.63
384.361	-7.34
384.571	31.57
384.781	47.96
384.991	37.72
385.201	41.81
385.411	60.24
385.621	-1.19
385.831	39.76
386.041	2.9
386.251	15.19
386.461	29.52
386.671	82.77
386.881	82.77
387.091	-48.3
387.301	11.09
387.511	74.58
387.72	56.15
387.93	39.76
388.14	68.44
388.35	7
388.56	76.63
388.769	37.72
388.979	-3.24
389.189	84.82
389.399	39.76
389.609	86.87
389.818	60.24
390.028	47.96
390.238	62.29
390.447	84.82
390.657	117.59
390.867	35.67
391.076	2.9
391.286	60.24
391.496	64.34
391.705	82.77
391.915	103.25
392.125	47.96
392.334	70.48
392.544	74.58
392.753	58.2
392.963	74.58
393.172	105.3
393.382	-13.48
393.591	60.24
393.801	23.38
394.01	136.02
394.22	64.34
394.429	111.44
394.639	97.11
394.848	56.15
395.058	56.15
395.267	47.96
395.477	90.96
395.686	19.29
395.895	74.58
396.105	103.25
396.314	11.09
396.524	-7.34
396.733	127.83
396.942	99.16
397.152	97.11
397.361	35.67
397.57	62.29
397.78	56.15
397.989	80.72
398.198	103.25
398.407	31.57
398.617	37.72
398.826	101.2
399.035	62.29
399.244	64.34
399.453	97.11
399.663	82.77
399.872	0.85
400.081	41.81
400.29	84.82
400.499	58.2
400.708	90.96
400.917	54.1
401.127	21.33
401.336	107.35
401.545	74.58
401.754	56.15
401.963	103.25
402.172	68.44
402.381	115.54
402.59	101.2
402.799	15.19
403.008	146.26
403.217	80.72
403.426	62.29
403.635	86.87
403.844	115.54
404.053	146.26
404.262	33.62
404.471	140.12
404.68	82.77
404.888	172.88
405.097	68.44
405.306	80.72
405.515	160.59
405.724	103.25
405.933	76.63
406.142	181.07
406.35	113.49
406.559	146.26
406.768	125.78
406.977	136.02
407.185	140.12
407.394	129.88
407.603	115.54
407.812	158.55
408.02	187.22
408.229	105.3
408.438	189.27
408.646	250.71
408.855	222.03
409.064	142.16
409.272	183.12
409.481	232.27
409.69	160.59
409.898	185.17
410.107	207.7
410.315	242.51
410.524	205.65
410.733	246.61
410.941	226.13
411.15	256.85
411.358	262.99
411.567	265.04
411.775	312.14
411.984	303.95
412.192	240.47
412.401	349.01
412.609	275.28
412.818	414.54
413.026	277.33
413.234	406.35
413.443	306
413.651	418.64
413.86	387.92
414.068	410.45
414.276	461.65
414.485	400.21
414.693	418.64
414.901	422.73
415.11	461.65
415.318	555.85
415.526	471.89
415.734	492.37
415.943	478.03
416.151	535.37
416.359	504.65
416.567	586.57
416.776	535.37
416.984	586.57
417.192	656.2
417.4	637.77
417.608	629.58
417.817	650.06
418.025	748.36
418.233	842.57
418.441	744.27
418.649	734.03
418.857	885.58
419.065	875.34
419.273	795.47
419.481	873.29
419.689	883.53
419.897	955.21
420.105	1069.89
420.313	961.35
420.521	1076.04
420.729	1123.14
420.937	1073.99
421.145	1112.9
421.353	1268.55
421.561	1274.69
421.769	1264.45
421.977	1295.17
422.185	1375.04
422.393	1403.71
422.601	1518.4
422.809	1538.88
423.017	1577.79
423.224	1504.06
423.432	1655.61
423.64	1682.24
423.848	1829.69
424.056	1803.07
424.263	1878.84
424.471	1864.5
424.679	1899.32
424.887	2009.91
425.094	2071.35
425.302	2048.82
425.51	2143.03
425.718	2177.84
425.925	2321.2
426.133	2509.62
426.341	2505.52
426.548	2599.73
426.756	2669.36
426.964	2667.31
427.171	2771.76
427.379	2833.19
427.586	2732.84
427.794	2947.88
428.001	3105.57
428.209	3296.04
428.417	3033.9
428.624	3404.58
428.832	3373.86
429.039	3351.33
429.247	3289.89
429.454	3625.76
429.662	4004.63
429.869	3695.39
430.076	4023.06
430.284	3851.03
430.491	4098.84
430.699	4326.16
430.906	4260.63
431.114	4403.99
431.321	4459.28
431.528	4625.17
431.736	5018.38
431.943	5088.01
432.15	5014.28
432.358	4961.03
432.565	5346.05
432.772	5192.45
432.979	5763.84
433.187	5671.68
433.394	5657.34
433.601	6144.76
433.808	6109.94
434.016	6130.42
434.223	6286.07
434.43	6677.23
434.637	6634.22
434.844	7041.77
435.052	7181.03
435.259	6959.85
435.466	7183.08
435.673	6984.43
435.88	7586.53
436.087	7928.54
436.294	8043.23
436.501	7967.45
436.708	8041.18
436.915	8227.54
437.122	8463.06
437.329	8635.09
437.537	8819.41
437.743	9071.31
437.95	8825.55
438.157	9532.1
438.364	9665.22
438.571	9632.45
438.778	10001.08
438.985	10400.44
439.192	10312.38
439.399	10588.85
439.606	10304.18
439.813	10894
440.02	11649.7
440.227	11326.12
440.433	11428.52
440.64	11637.41
440.847	11657.89
441.054	11817.63
441.261	12841.62
441.467	12446.36
441.674	12784.27
441.881	13408.9
442.088	13351.56
442.294	13392.52
442.501	13273.74
442.708	14002.82
442.914	14408.31
443.121	14940.79
443.328	14623.35
443.534	15536.74
443.741	15202.93
443.948	15026.8
444.154	16044.64
444.361	15897.19
444.568	15815.27
444.774	15927.91
444.981	16333.4
445.187	16349.79
445.394	17132.11
445.6	17248.85
445.807	18924.08
446.013	18100.8
446.22	18383.42
446.426	18985.52
446.633	19153.46
446.839	20066.85
447.046	19071.54
447.252	20322.85
447.459	20376.09
447.665	20046.37
447.871	21146.13
448.078	22053.38
448.284	21121.56
448.491	21463.57
448.697	22434.3
448.903	22813.18
449.11	22811.13
449.316	22477.31
449.522	22749.69
449.728	23435.76
449.935	23609.84
450.141	23771.63
450.347	24361.44
450.553	23503.34
450.76	23929.32
450.966	24652.25
451.172	24476.13
451.378	24887.77
451.584	24144.36
451.791	25037.27
451.997	25272.79
452.203	25502.16
452.409	25375.19
452.615	25246.16
452.821	24623.58
453.027	24320.48
453.233	25407.95
453.44	24928.73
453.646	25082.33
453.852	24949.21
454.058	25571.79
454.264	24515.04
454.47	25117.14
454.676	24275.43
454.882	25305.56
455.088	23161.33
455.294	23517.68
455.5	24003.05
455.705	23968.23
455.911	23155.19
456.117	22467.07
456.323	22847.99
456.529	21395.98
456.735	22352.38
456.941	21535.24
457.147	21529.1
457.352	20777.5
457.558	20460.06
457.764	20662.81
457.97	20283.94
458.176	19767.85
458.381	19847.72
458.587	18784.82
458.793	18774.58
458.999	18000.45
459.204	19075.63
459.41	18479.68
459.616	17353.29
459.821	17203.79
460.027	17166.93
460.233	17113.68
460.438	16181.85
460.644	16351.84
460.85	15721.06
461.055	15438.44
461.261	15415.91
461.466	14049.92
461.672	13845.12
461.878	14436.99
462.083	13769.35
462.289	13492.87
462.494	13539.97
462.7	12780.18
462.905	12427.93
463.111	13097.61
463.316	13005.45
463.522	12726.93
463.727	12614.29
463.932	12700.31
464.138	12405.4
464.343	12554.9
464.549	12444.31
464.754	12579.48
464.959	12862.1
465.165	12581.53
465.37	11844.26
465.575	11680.42
465.781	12077.73
465.986	12237.47
466.191	11868.83
466.397	11649.7
466.602	11020.97
466.807	11295.4
467.012	11567.78
467.218	11272.87
467.423	11252.39
467.628	11416.23
467.833	11831.97
468.038	11324.07
468.244	10973.87
468.449	11584.16
468.654	10844.85
468.859	11129.52
469.064	11000.49
469.269	10562.23
469.474	10738.35
469.679	10867.38
469.885	10654.39
470.09	10787.5
470.295	10662.58
470.5	10513.08
470.705	10408.63
470.91	10191.55
471.115	10111.68
471.32	10336.95
471.525	10259.13
471.73	9824.96
471.935	9779.9
472.139	9724.61
472.344	9820.86
472.549	9583.3
472.754	9505.48
472.959	9323.21
473.164	8975.05
473.369	8987.34
473.574	9362.12
473.778	9194.19
473.983	9007.82
474.188	9036.49
474.393	8676.05
474.598	8637.14
474.802	8532.69
475.007	8418
475.212	8497.88
475.417	8133.34
475.621	8274.65
475.826	8284.89
476.031	8114.91
476.235	7930.59
476.44	8135.39
476.645	7826.14
476.849	8114.91
477.054	7822.05
477.259	7781.09
477.463	7582.43
477.668	7588.58
477.872	7541.47
478.077	7367.4
478.282	7334.63
478.486	7062.25
478.691	7174.89
478.895	7248.61
479.1	7060.2
479.304	7029.48
479.509	6859.5
479.713	7103.21
479.918	6787.82
480.122	6884.08
480.326	6886.12
480.531	6929.13
480.735	6886.12
480.94	6748.91
481.144	6859.5
481.348	6607.6
481.553	6693.62
481.757	6726.38
481.961	6693.62
482.166	6697.71
482.37	6730.48
482.574	6648.56
482.778	6597.36
482.983	6775.53
483.187	6703.86
483.391	6728.43
483.595	6677.23
483.8	6666.99
484.004	6666.99
484.208	6679.28
484.412	6599.41
484.616	6726.38
484.821	6671.09
485.025	6562.55
485.229	6656.75
485.433	6550.26
485.637	6515.44
485.841	6652.66
486.045	6619.89
486.249	6666.99
486.453	6636.27
486.657	6638.32
486.861	6640.37
487.065	6509.3
487.269	6671.09
487.473	6642.42
487.677	6826.73
487.881	6728.43
488.085	6730.48
488.289	6933.23
488.493	6726.38
488.697	6978.28
488.901	6785.77
489.105	6865.64
489.309	6912.75
489.512	6902.51
489.716	7080.68
489.92	6867.69
490.124	6826.73
490.328	6890.22
490.531	6957.8
490.735	7101.16
490.939	7013.1
491.143	7185.13
491.346	7109.35
491.55	7140.07
491.754	7133.93
491.958	7303.91
492.161	7281.38
492.365	7500.51
492.569	7279.33
492.772	7297.77
492.976	7287.53
493.18	7557.86
493.383	7406.31
493.587	7566.05
493.79	7564
493.994	7535.33
494.197	7774.94
494.401	7684.83
494.605	7934.68
494.808	7883.49
495.012	8032.99
495.215	8264.41
495.419	8037.08
495.622	7987.93
495.825	8415.96
496.029	8241.88
496.232	8467.16
496.436	8577.75
496.639	8577.75
496.843	8381.14
497.046	8776.4
497.249	9050.83
497.453	9056.97
497.656	9188.04
497.859	9073.35
498.063	9192.14
498.266	9421.51
498.469	9552.58
498.673	9403.08
498.876	9503.43
499.079	9906.88
499.282	9810.62
499.485	10037.95
499.689	10136.25
499.892	10388.15
500.095	10429.11
500.298	10715.83
500.501	10621.62
500.705	10832.56
500.908	11047.6
501.111	11057.84
501.314	11174.57
501.517	11369.13
501.72	11446.95
501.923	11655.84
502.126	11793.06
502.329	12032.67
502.532	12122.78
502.735	12329.63
502.938	12530.33
503.141	12462.74
503.344	12941.97
503.547	12802.71
503.75	12960.4
503.953	12956.3
504.156	13347.47
504.359	13380.23
504.562	13621.89
504.765	13759.11
504.968	14031.49
505.17	14230.14
505.373	14213.76
505.576	14600.82
505.779	14852.72
505.982	14983.79
506.185	15305.32
506.387	15440.49
506.59	15256.17
506.793	15704.68
506.996	15759.97
507.198	16140.9
507.401	16081.5
507.604	16392.8
507.807	16675.41
508.009	16618.07
508.212	17117.78
508.415	17377.87
508.617	17553.99
508.82	17447.5
509.022	17625.67
509.225	17867.33
509.428	18180.67
509.63	18321.98
509.833	18530.87
510.035	18932.28
510.238	18852.41
510.44	19102.26
510.643	19577.39
510.845	19819.05
511.048	19575.34
511.25	20142.63
511.453	20109.86
511.655	20797.98
511.858	20572.7
512.06	20943.38
512.262	21170.71
512.465	21129.75
512.667	21766.67
512.87	21907.98
513.072	21854.73
513.274	22467.07
513.477	22395.39
513.679	23024.12
513.881	23040.5
514.084	23110.13
514.286	23273.97
514.488	23247.35
514.69	24216.04
514.893	24115.69
515.095	24414.69
515.297	24799.71
515.499	25094.61
515.701	25180.63
515.904	25403.86
516.106	25571.79
516.308	25870.79
516.51	26051.02
516.712	26337.73
516.914	26702.27
517.116	27109.82
517.318	27204.02
517.52	27345.33
517.722	27249.08
517.925	28074.41
518.127	28221.86
518.329	28574.11
518.531	28297.64
518.733	29327.77
518.935	29098.39
519.136	29387.16
519.338	29608.34
519.54	29669.78
519.742	29784.46
519.944	30157.19
520.146	30878.08
520.348	31013.24
520.55	31007.1
520.752	31117.69
520.954	31994.22
521.155	31414.65
521.357	31986.03
521.559	32125.29
521.761	32500.07
521.963	32596.32
522.164	32713.06
522.366	33134.94
522.568	33227.1
522.77	33255.77
522.971	33900.88
523.173	33694.04
523.375	34056.53
523.576	34429.26
523.778	34165.07
523.98	34849.09
524.181	34681.16
524.383	35316.03
524.584	35559.73
524.786	35836.21
524.988	35492.15
525.189	35639.61
525.391	36108.59
525.592	36028.72
525.794	36509.99
525.995	36684.07
526.197	36649.25
526.398	36749.6
526.6	37073.18
526.801	37290.27
527.003	37351.71
527.204	37116.19
527.406	37771.54
527.607	37982.48
527.808	38015.25
528.01	37171.49
528.211	37898.52
528.412	38697.22
528.614	38547.72
528.815	38539.53
529.016	38889.73
529.218	38658.31
529.419	38899.97
529.62	38957.31
529.822	39014.66
530.023	38801.67
530.224	39231.74
530.425	39272.7
530.626	38975.75
530.828	38994.18
531.029	39229.69
531.23	39418.11
531.431	39414.01
531.632	39352.57
531.833	39860.47
532.035	39571.71
532.236	40024.31
532.437	40145.14
532.638	39624.95
532.839	39989.49
533.04	40308.97
533.241	39729.4
533.442	40542.44
533.643	40433.9
533.844	40354.03
534.045	40251.63
534.246	40036.59
534.447	40311.02
534.648	40184.05
534.849	40599.79
535.05	40317.17
535.251	40573.16
535.451	40411.37
535.652	40517.87
535.853	40716.52
536.054	40888.55
536.255	40581.35
536.456	40751.34
536.657	41361.63
536.857	40749.29
537.058	40747.24
537.259	40921.32
537.46	40829.16
537.66	40972.52
537.861	41136.35
538.062	41091.3
538.263	41158.88
538.463	41076.96
538.664	40974.56
538.865	41326.81
539.065	41406.69
539.266	40825.06
539.466	41801.94
539.667	40876.26
539.868	41717.98
540.068	41416.93
540.269	41197.79
540.469	41810.14
540.67	41083.11
540.87	41527.52
541.071	41324.77
541.271	41402.59
541.472	41205.98
541.672	41267.42
541.873	41316.57
542.073	40886.5
542.274	41744.6
542.474	41437.41
542.675	41527.52
542.875	41517.28
543.075	41527.52
543.276	41431.26
543.476	41836.76
543.676	41631.96
543.877	41677.02
544.077	41461.98
544.277	41527.52
544.478	41562.33
544.678	41703.64
544.878	41945.3
545.078	41494.75
545.279	41191.65
545.479	41406.69
545.679	41693.4
545.879	41750.74
546.079	41623.77
546.28	41558.24
546.48	41537.76
546.68	41677.02
546.88	41629.91
547.08	41457.88
547.28	41611.48
547.48	41210.08
547.68	42031.32
547.88	41304.29
548.081	41472.22
548.281	41681.11
548.481	41527.52
548.681	41906.39
548.881	41724.12
549.081	41738.46
549.28	41437.41
549.48	42123.47
549.68	41912.53
549.88	42098.9
550.08	41361.63
550.28	41824.47
550.48	41726.17
550.68	42049.75
550.88	41986.26
551.08	41312.48
551.279	41634.01
551.479	41697.5
551.679	41345.25
551.879	41554.14
552.079	41959.64
552.278	41595.1
552.478	41732.31
552.678	41392.35
552.878	41930.97
553.077	41504.99
553.277	41027.81
553.477	42037.46
553.676	41173.22
553.876	41400.54
554.076	41728.22
554.275	41042.15
554.475	41181.41
554.674	41705.69
554.874	41623.77
555.074	41801.94
555.273	41246.94
555.473	41388.25
555.672	40964.32
555.872	41339.1
556.071	41519.32
556.271	41457.88
556.47	41414.88
556.67	41103.59
556.869	41230.56
557.068	41179.36
557.268	41040.1
557.467	41017.57
557.667	41193.7
557.866	41566.43
558.065	41066.72
558.265	40902.89
558.464	40689.9
558.663	41838.81
558.863	40532.2
559.062	41423.07
559.261	40771.82
559.461	41201.89
559.66	40782.06
559.859	41019.62
560.058	40974.56
560.258	40823.01
560.457	40956.13
560.656	41060.58
560.855	40835.3
561.054	40949.99
561.253	40544.49
561.453	41265.38
561.652	41015.52
561.851	41165.03
562.05	40579.31
562.249	40454.38
562.448	41224.42
562.647	40618.22
562.846	40675.56
563.045	40718.57
563.244	40472.81
563.443	41023.72
563.642	40495.34
563.841	40546.54
564.04	40376.56
564.239	40548.59
564.438	40110.32
564.637	40605.93
564.836	40630.51
565.035	40204.53
565.234	40564.97
565.432	40505.58
565.631	40233.2
565.83	40034.55
566.029	40235.25
566.228	40108.27
566.427	40440.04
566.625	39926
566.824	39745.78
567.023	40720.62
567.222	39708.92
567.42	40542.44
567.619	39805.17
567.818	39719.16
568.016	40112.37
568.215	40540.39
568.414	39930.1
568.612	39913.72
568.811	39805.17
569.01	40112.37
569.208	39315.71
569.407	39698.68
569.605	39012.61
569.804	39721.21
570.002	39362.81
570.201	39444.73
570.4	39332.09
570.598	39450.88
570.797	39057.67
570.995	39465.21
571.193	38654.22
571.392	39184.64
571.59	39178.5
571.789	39145.73
571.987	39125.25
572.186	39031.04
572.384	39002.37
572.582	38902.02
572.781	38801.67
572.979	38594.82
573.177	39174.4
573.376	38781.19
573.574	38590.73
573.772	38453.51
573.971	38453.51
574.169	38052.11
574.367	38185.23
574.565	38609.16
574.763	38351.12
574.962	38199.57
575.16	37706.01
575.358	38146.32
575.556	37585.18
575.754	38101.26
575.952	37540.12
576.151	37802.26
576.349	37280.03
576.547	37394.71
576.745	38058.26
576.943	37822.74
577.141	37536.02
577.339	37402.91
577.537	37263.64
577.735	37013.79
577.933	36927.78
578.131	37054.75
578.329	36931.87
578.527	36768.04
578.725	37220.64
578.923	37167.39
579.121	36634.92
579.319	36538.66
579.516	36452.65
579.714	36864.29
579.912	36215.08
580.11	36417.83
580.308	36540.71
580.506	36546.86
580.704	35707.19
580.901	36254
581.099	36350.25
581.297	35668.28
581.495	35590.45
581.692	35879.22
581.89	35318.07
582.088	35934.51
582.285	35545.4
582.483	35629.37
582.681	35418.42
582.878	35178.81
583.076	34849.09
583.274	35172.67
583.471	34894.14
583.669	34955.58
583.866	34771.27
584.064	35184.96
584.262	34308.43
584.459	34705.73
584.657	34726.21
584.854	34894.14
585.052	34322.76
585.249	34107.72
585.447	34246.99
585.644	33997.13
585.841	34285.9
586.039	34849.09
586.236	33778
586.434	33691.99
586.631	33601.88
586.828	33591.64
587.026	33864.02
587.223	33845.58
587.42	33671.51
587.618	33790.29
587.815	33091.93
588.012	33100.12
588.21	33403.22
588.407	33429.85
588.604	32803.17
588.801	32547.17
588.999	32741.73
589.196	32581.99
589.393	32936.29
589.59	32428.39
589.787	32766.31
589.984	32211.31
590.182	32016.75
590.379	32696.67
590.576	32088.43
590.773	32102.76
590.97	32133.48
591.167	32297.32
591.364	31625.59
591.561	31981.93
591.758	31369.59
591.955	31189.37
592.152	32377.19
592.349	31113.59
592.546	31361.4
592.743	31211.9
592.94	30998.91
593.137	31150.46
593.334	31234.42
593.531	30964.09
593.727	31027.58
593.924	31009.15
594.121	31052.16
594.318	30794.11
594.515	30814.59
594.712	30425.48
594.908	30329.22
595.105	30509.44
595.302	30224.78
595.499	30396.81
595.696	30163.34
595.892	29583.76
596.089	29933.96
596.286	30011.79
596.482	29786.51
596.679	29763.98
596.876	29481.36
597.072	29356.44
597.269	29610.39
597.466	29415.83
597.662	28924.32
597.859	29223.32
598.055	29114.78
598.252	28789.15
598.448	29071.77
598.645	28998.04
598.841	28756.38
599.038	28797.34
599.234	28391.84
599.431	28252.58
599.627	28600.74
599.824	28823.97
600.02	28258.73
600.217	28391.84
600.413	27824.56
600.609	27869.61
600.806	28031.4
601.002	27910.57
601.198	27826.6
601.395	27607.47
601.591	27701.68
601.787	27732.4
601.984	27259.32
602.18	27767.21
602.376	27484.59
602.572	27140.54
602.769	27423.15
602.965	26794.43
603.161	27269.56
603.357	26892.73
603.553	26956.22
603.75	26790.33
603.946	26407.36
604.142	26491.33
604.338	26456.51
604.534	26663.36
604.73	26077.64
604.926	26200.52
605.122	26243.52
605.318	26106.31
605.514	25895.37
605.71	25997.77
605.906	25905.61
606.102	26065.35
606.298	25895.37
606.494	25817.55
606.69	25731.53
606.886	25790.92
607.082	25369.04
607.278	25373.14
607.474	25084.37
607.67	25496.02
607.866	25080.28
608.062	25496.02
608.257	25516.5
608.453	25283.03
608.649	25270.74
608.845	24748.51
609.041	25131.48
609.236	25018.84
609.432	25078.23
609.628	24728.03
609.824	24525.28
610.019	24754.65
610.215	24580.57
610.411	24685.02
610.606	24472.03
610.802	24494.56
610.998	24431.07
611.193	24463.84
611.389	24441.31
611.584	24209.89
611.78	24226.28
611.976	24580.57
612.171	24314.34
612.367	24019.43
612.562	23970.28
612.758	23849.45
612.953	23495.15
613.149	23931.37
613.344	23667.18
613.539	24082.92
613.735	23742.96
613.93	23556.59
614.126	23464.43
614.321	23806.44
614.517	23462.38
614.712	23812.59
614.907	23292.4
615.103	23718.38
615.298	23271.92
615.493	23831.02
615.688	23118.32
615.884	23409.14
616.079	22858.23
616.274	23249.39
616.47	22923.77
616.665	23304.69
616.86	22718.97
617.055	23009.78
617.25	22817.27
617.445	22772.22
617.641	22358.53
617.836	22637.05
618.031	22403.58
618.226	22473.21
618.421	22374.91
618.616	22520.32
618.811	22063.62
619.006	22139.4
619.201	21848.58
619.396	21830.15
619.591	21717.51
619.786	21842.44
619.981	21428.75
620.176	21711.37
620.371	21369.36
620.566	21344.78
620.761	21453.33
620.956	21578.25
621.151	21125.65
621.346	21139.99
621.541	20976.15
621.735	21205.52
621.93	20726.3
622.125	20830.74
622.32	20462.11
622.515	20851.22
622.709	20214.3
622.904	20541.98
623.099	20156.96
623.294	20339.23
623.488	19997.22
623.683	20236.83
623.878	19716.65
624.072	19595.82
624.267	19620.39
624.462	19714.6
624.656	19403.31
624.851	19395.12
625.046	18897.46
625.24	19288.62
625.435	19212.85
625.629	18801.21
625.824	18711.1
626.018	18829.88
626.213	18500.16
626.407	18457.15
626.602	17953.35
626.796	18487.87
626.991	18510.39
627.185	17992.26
627.38	18016.83
627.574	17963.59
627.768	18051.65
627.963	17584.71
628.157	17779.27
628.352	17326.67
628.546	17418.83
628.74	17631.82
628.935	17412.68
629.129	17128.02
629.323	16882.26
629.517	17074.77
629.712	16925.27
629.906	16814.68
630.1	16591.45
630.294	16921.17
630.489	16560.73
630.683	16796.25
630.877	16339.55
631.071	16181.85
631.265	16353.88
631.459	16198.24
631.653	16153.18
631.848	16034.4
632.042	16085.6
632.236	15997.54
632.43	15755.88
632.624	16003.68
632.818	15741.54
633.012	15303.28
633.206	15309.42
633.4	15483.5
633.594	15254.12
633.788	15262.32
633.982	15112.81
634.176	15004.27
634.369	15051.38
634.563	15166.06
634.757	14936.69
634.951	14942.83
635.145	14680.69
635.339	14742.13
635.533	14570.1
635.726	14582.39
635.92	14258.81
636.114	14264.96
636.308	14201.47
636.501	14445.18
636.695	14211.71
636.889	13996.67
637.083	14154.37
637.276	13922.94
637.47	13609.61
637.664	13746.82
637.857	13742.72
638.051	13511.3
638.244	13554.31
638.438	13449.86
638.632	13433.48
638.825	13310.6
639.019	13398.66
639.212	13357.71
639.406	13134.48
639.599	13062.8
639.793	13263.5
639.986	13001.36
640.18	12771.99
640.373	12790.42
640.567	12665.49
640.76	12657.3
640.954	12757.65
641.147	12335.77
641.34	12524.18
641.534	12309.15
641.727	12382.87
641.92	12173.98
642.114	12116.64
642.307	12096.16
642.5	12210.84
642.694	11797.15
642.887	11780.77
643.08	11809.44
643.273	11668.13
643.467	11766.43
643.66	11436.71
643.853	11551.4
644.046	11209.39
644.239	11201.19
644.432	11322.02
644.626	11221.67
644.819	11305.64
645.012	11014.83
645.205	11268.78
645.398	11043.5
645.591	11004.59
645.784	10881.71
645.977	10863.28
646.17	10652.34
646.363	10529.46
646.556	10726.07
646.749	10664.63
646.942	10767.03
647.135	10355.38
647.328	10289.85
647.521	10177.21
647.714	10181.31
647.907	10029.76
648.099	10224.31
648.292	10230.46
648.485	9986.75
648.678	9833.15
648.871	9849.54
649.064	9900.73
649.256	9779.9
649.449	9665.22
649.642	9628.35
649.835	9693.89
650.027	9446.09
650.22	9403.08
650.413	9532.1
650.605	9560.77
650.798	9290.44
650.991	9204.42
651.183	9349.83
651.376	9011.92
651.568	9013.96
651.761	9024.2
651.954	8997.58
652.146	9038.54
652.339	9136.84
652.531	8874.7
652.724	8606.42
652.916	8723.15
653.109	8764.11
653.301	8649.43
653.494	8516.31
653.686	8487.64
653.879	8712.91
654.071	8422.1
654.263	8563.41
654.456	8196.82
654.648	8297.17
654.84	8119
655.033	8069.85
655.225	8241.88
655.417	7965.4
655.61	8018.65
655.802	7875.29
655.994	7887.58
656.186	7942.88
656.379	7789.28
656.571	7848.67
656.763	7803.61
656.955	7664.35
657.148	7508.71
657.34	7721.7
657.532	7426.79
657.724	7516.9
657.916	7371.49
658.108	7443.17
658.3	7195.37
658.492	7394.02
658.684	7129.83
658.876	7021.29
659.068	7084.78
659.26	7125.74
659.452	7178.98
659.644	6980.33
659.836	6900.46
660.028	7047.91
660.22	6796.01
660.412	6802.16
660.604	6757.1
660.796	6601.46
660.988	6757.1
661.18	6646.51
661.372	6607.6
661.563	6587.12
661.755	6562.55
661.947	6437.62
662.139	6464.24
662.331	6300.41
662.522	6290.17
662.714	6247.16
662.906	6333.17
663.097	6144.76
663.289	6011.64
663.481	6058.74
663.673	6128.38
663.864	5952.25
664.056	5866.24
664.247	5960.44
664.439	5835.52
664.631	5743.36
664.822	5630.72
665.014	5743.36
665.205	5657.34
665.397	5587.71
665.588	5604.1
665.78	5468.93
665.971	5538.56
666.163	5497.6
666.354	5526.27
666.546	5366.53
666.737	5358.34
666.929	5233.41
667.12	5403.39
667.311	5229.32
667.503	5194.5
667.694	5204.74
667.885	5294.85
668.077	5040.9
668.268	4965.13
668.459	5008.14
668.651	5006.09
668.842	4834.06
669.033	4809.48
669.224	5001.99
669.416	4887.31
669.607	4789
669.798	4803.34
669.989	4709.13
670.18	4715.28
670.371	4729.61
670.563	4557.58
670.754	4516.62
670.945	4664.08
671.136	4483.86
671.327	4526.86
671.518	4600.59
671.709	4655.89
671.9	4610.83
672.091	4453.14
672.282	4442.9
672.473	4369.17
672.664	4430.61
672.855	4356.88
673.046	4479.76
673.237	4373.27
673.428	4348.69
673.619	4422.42
673.809	4145.94
674	4227.86
674.191	4131.61
674.382	4121.37
674.573	4164.37
674.764	4162.33
674.954	4242.2
675.145	4139.8
675.336	4041.5
675.527	4074.26
675.717	4008.73
675.908	3900.19
676.099	4033.3
676.289	3951.39
676.48	3953.43
676.671	3930.91
676.861	4014.87
677.052	3914.52
677.243	3879.71
677.433	3875.61
677.624	3795.74
677.814	3779.36
678.005	3781.4
678.195	3881.75
678.386	3775.26
678.576	3676.96
678.767	3590.94
678.957	3552.03
679.148	3719.96
679.338	3683.1
679.529	3633.95
679.719	3707.68
679.909	3681.05
680.1	3601.18
680.29	3535.65
680.481	3705.63
680.671	3668.77
680.861	3674.91
681.052	3724.06
681.242	3560.22
681.432	3597.09
681.622	3433.25
681.813	3484.45
682.003	3525.41
682.193	3427.11
682.383	3490.59
682.573	3373.86
682.764	3459.87
682.954	3529.5
683.144	3451.68
683.334	3349.28
683.524	3363.62
683.714	3437.34
683.904	3281.7
684.094	3353.38
684.284	3273.51
684.474	3353.38
684.664	3461.92
684.854	3351.33
685.044	3404.58
685.234	3306.27
685.424	3345.19
685.614	3332.9
685.804	3308.32
685.994	3386.15
686.184	3330.85
686.374	3275.56
686.564	3314.47
686.753	3281.7
686.943	3259.17
687.133	3318.56
687.323	3304.23
687.513	3418.91
687.702	3226.4
687.892	3126.05
688.082	3298.08
688.272	3283.75
688.461	3318.56
688.651	3318.56
688.841	3242.79
689.03	3277.6
689.22	3142.44
689.41	3238.69
689.599	3361.57
689.789	3193.64
689.979	3205.92
690.168	3189.54
690.358	3056.42
690.547	3173.16
690.737	3195.68
690.926	3205.92
691.116	3158.82
691.305	3250.98
691.495	3302.18
691.684	3132.2
691.874	3232.55
692.063	3191.59
692.252	3191.59
692.442	3240.74
692.631	3128.1
692.82	3173.16
693.01	3156.77
693.199	3101.48
693.388	3066.66
693.578	3070.76
693.767	3097.38
693.956	3052.33
694.146	3097.38
694.335	2923.3
694.524	3003.18
694.713	2956.07
694.902	3103.53
695.092	2980.65
695.281	3044.13
695.47	2917.16
695.659	2997.03
695.848	3003.18
696.037	3007.27
696.226	3003.18
696.415	3003.18
696.604	3062.57
696.793	2849.58
696.982	3046.18
697.171	2855.72
697.36	2982.7
697.549	2812.71
697.738	2945.83
697.927	2806.57
698.116	2818.86
698.305	2896.68
698.494	2896.68
698.683	2865.96
698.872	2988.84
699.061	2814.76
699.25	2861.87
699.438	2802.47
699.627	2865.96
699.816	2767.66
700.005	2698.03
700.193	2773.8
700.382	2792.23
700.571	2753.32
700.76	2710.32
700.948	2714.41
701.137	2587.44
701.326	2710.32
701.514	2669.36
701.703	2495.28
701.892	2593.58
702.08	2538.29
702.269	2730.8
702.457	2675.5
702.646	2655.02
702.834	2523.95
703.023	2597.68
703.212	2536.24
703.4	2446.13
703.589	2507.57
703.777	2554.67
703.965	2442.03
704.154	2530.09
704.342	2601.77
704.531	2478.9
704.719	2487.09
704.907	2562.86
705.096	2519.85
705.284	2454.32
705.472	2401.07
705.661	2349.87
705.849	2472.75
706.037	2292.53
706.226	2351.92
706.414	2423.6
706.602	2378.55
706.79	2255.67
706.979	2345.78
707.167	2308.91
707.355	2278.19
707.543	2335.54
707.731	2280.24
707.919	2335.54
708.107	2351.92
708.296	2327.35
708.484	2140.98
708.672	2165.56
708.86	2259.76
709.048	2241.33
709.236	2241.33
709.424	2241.33
709.612	2204.47
709.8	2077.49
709.988	2159.41
710.176	2083.64
710.364	2087.73
710.551	2120.5
710.739	2186.04
710.927	2104.12
711.115	2130.74
711.303	2048.82
711.491	2042.68
711.679	1985.34
711.866	1987.38
712.054	1975.1
712.242	2030.39
712.43	2050.87
712.617	2048.82
712.805	1997.62
712.993	2040.63
713.181	2009.91
713.368	1917.75
713.556	1948.47
713.744	1989.43
713.931	1942.33
714.119	1954.62
714.306	1876.79
714.494	1729.34
714.682	1915.7
714.869	1819.45
715.057	1846.07
715.244	1923.9
715.432	1807.16
715.619	1813.31
715.807	1772.35
715.994	1719.1
716.182	1811.26
716.369	1790.78
716.556	1669.95
716.744	1753.91
716.931	1772.35
717.119	1577.79
717.306	1643.32
717.493	1633.08
717.681	1708.86
717.868	1678.14
718.055	1610.56
718.242	1610.56
718.43	1637.18
718.617	1651.52
718.804	1667.9
718.991	1645.37
719.179	1590.08
719.366	1530.69
719.553	1520.45
719.74	1647.42
719.927	1479.49
720.114	1635.13
720.301	1567.55
720.488	1520.45
720.676	1463.1
720.863	1604.41
721.05	1530.69
721.237	1549.12
721.424	1542.97
721.611	1522.49
721.798	1477.44
721.985	1407.81
722.172	1469.25
722.358	1489.73
722.545	1487.68
722.732	1432.38
722.919	1485.63
723.106	1323.84
723.293	1397.57
723.48	1368.9
723.667	1448.77
723.853	1321.79
724.04	1401.66
724.227	1340.22
724.414	1477.44
724.6	1352.51
724.787	1286.98
724.974	1338.18
725.161	1315.65
725.347	1436.48
725.534	1370.94
725.72	1354.56
725.907	1325.89
726.094	1268.55
726.28	1252.16
726.467	1227.59
726.653	1243.97
726.84	1307.46
727.027	1342.27
727.213	1280.83
727.4	1217.35
727.586	1217.35
727.773	1194.82
727.959	1262.4
728.145	1237.83
728.332	1225.54
728.518	1203.01
728.705	1211.2
728.891	1243.97
729.077	1231.68
729.264	1164.1
729.45	1125.19
729.636	1227.59
729.823	1194.82
730.009	1155.91
730.195	1225.54
730.382	1256.26
730.568	1135.43
730.754	1196.87
730.94	1076.04
731.126	1096.52
731.313	1114.95
731.499	1168.2
731.685	1065.8
731.871	1145.67
732.057	1104.71
732.243	1026.89
732.429	1096.52
732.615	1164.1
732.801	1088.32
732.987	1108.8
733.173	1073.99
733.359	1028.93
733.545	1030.98
733.731	1067.85
733.917	1024.84
734.103	965.45
734.289	961.35
734.475	1049.41
734.661	1014.6
734.847	1078.08
735.033	1024.84
735.219	1030.98
735.404	983.88
735.59	1030.98
735.776	885.58
735.962	998.21
736.148	1078.08
736.333	992.07
736.519	953.16
736.705	983.88
736.89	969.54
737.076	883.53
737.262	901.96
737.447	910.15
737.633	963.4
737.819	901.96
738.004	924.49
738.19	967.49
738.375	897.86
738.561	967.49
738.747	881.48
738.932	932.68
739.118	906.06
739.303	906.06
739.489	920.39
739.674	854.86
739.859	824.14
740.045	844.62
740.23	928.58
740.416	850.76
740.601	842.57
740.786	760.65
740.972	897.86
741.157	875.34
741.342	746.31
741.528	895.82
741.713	879.43
741.898	838.47
742.084	729.93
742.269	856.9
742.454	856.9
742.639	805.71
742.824	750.41
743.01	824.14
743.195	774.99
743.38	750.41
743.565	713.55
743.75	719.69
743.935	760.65
744.12	803.66
744.305	723.79
744.49	766.79
744.675	703.31
744.86	703.31
745.045	713.55
745.23	629.58
745.415	605
745.6	697.16
745.785	688.97
745.97	719.69
746.155	607.05
746.34	674.64
746.525	752.46
746.71	703.31
746.895	709.45
747.079	707.4
747.264	738.12
747.449	717.64
747.634	680.78
747.819	703.31
748.003	672.59
748.188	627.53
748.373	611.15
748.557	648.01
748.742	736.07
748.927	578.38
749.111	664.4
749.296	693.07
749.481	633.68
749.665	605
749.85	627.53
750.034	641.87
750.219	594.76
750.404	627.53
750.588	656.2
750.773	564.04
750.957	576.33
751.141	523.09
751.326	637.77
751.51	564.04
751.695	572.24
751.879	623.44
752.064	609.1
752.248	492.37
752.432	576.33
752.617	492.37
752.801	654.16
752.985	543.57
753.17	574.28
753.354	592.72
753.538	508.75
753.722	607.05
753.907	607.05
754.091	496.46
754.275	535.37
754.459	518.99
754.643	594.76
754.828	525.13
755.012	527.18
755.196	521.04
755.38	506.7
755.564	551.76
755.748	514.89
755.932	510.8
756.116	529.23
756.3	492.37
756.484	568.14
756.668	420.69
756.852	480.08
757.036	492.37
757.22	441.17
757.404	449.36
757.588	416.59
757.772	498.51
757.956	496.46
758.14	422.73
758.323	469.84
758.507	432.97
758.691	402.26
758.875	480.08
759.059	469.84
759.242	365.39
759.426	451.41
759.61	545.61
759.794	521.04
759.977	457.55
760.161	459.6
760.345	457.55
760.528	500.56
760.712	416.59
760.895	402.26
761.079	398.16
761.263	443.21
761.446	443.21
761.63	400.21
761.813	449.36
761.997	432.97
762.18	473.93
762.364	424.78
762.547	389.97
762.731	455.5
762.914	439.12
763.098	381.78
763.281	334.67
763.464	449.36
763.648	371.54
763.831	385.87
764.015	422.73
764.198	379.73
764.381	441.17
764.564	426.83
764.748	398.16
764.931	408.4
765.114	435.02
765.297	408.4
765.481	371.54
765.664	324.43
765.847	312.14
766.03	357.2
766.213	430.93
766.397	392.02
766.58	392.02
766.763	262.99
766.946	340.82
767.129	406.35
767.312	371.54
767.495	342.86
767.678	422.73
767.861	369.49
768.044	441.17
768.227	342.86
768.41	310.1
768.593	420.69
768.776	367.44
768.959	375.63
769.142	392.02
769.324	475.98
769.507	344.91
769.69	349.01
769.873	363.34
770.056	328.53
770.239	416.59
770.421	353.1
770.604	375.63
770.787	416.59
770.97	392.02
771.152	369.49
771.335	387.92
771.518	447.31
771.7	402.26
771.883	377.68
772.066	328.53
772.248	392.02
772.431	394.06
772.613	326.48
772.796	357.2
772.978	349.01
773.161	338.77
773.343	387.92
773.526	344.91
773.708	357.2
773.891	340.82
774.073	344.91
774.256	306
774.438	389.97
774.621	279.38
774.803	363.34
774.985	361.3
775.168	328.53
775.35	297.81
775.532	344.91
775.715	314.19
775.897	269.14
776.079	340.82
776.261	299.86
776.444	228.18
776.626	289.62
776.808	306
776.99	346.96
777.173	258.9
777.355	283.47
777.537	308.05
777.719	293.71
777.901	365.39
778.083	252.75
778.265	303.95
778.447	215.89
778.629	262.99
778.811	303.95
778.993	310.1
779.175	260.95
779.357	240.47
779.539	222.03
779.721	289.62
779.903	310.1
780.085	277.33
780.267	303.95
780.449	207.7
780.631	349.01
780.812	258.9
780.994	346.96
781.176	285.52
781.358	248.66
781.54	244.56
781.721	238.42
781.903	297.81
782.085	242.51
782.267	295.76
782.448	199.51
782.63	213.84
782.812	234.32
782.993	275.28
783.175	226.13
783.357	201.55
783.538	267.09
783.72	244.56
783.901	260.95
784.083	242.51
784.264	199.51
784.446	172.88
784.627	172.88
784.809	234.32
784.99	197.46
785.172	176.98
785.353	205.65
785.535	248.66
785.716	164.69
785.897	244.56
786.079	166.74
786.26	187.22
786.441	213.84
786.623	181.07
786.804	160.59
786.985	195.41
787.167	109.4
787.348	293.71
787.529	179.03
787.71	203.6
787.891	203.6
788.073	193.36
788.254	224.08
788.435	179.03
788.616	193.36
788.797	127.83
788.978	185.17
789.159	201.55
789.34	224.08
789.522	170.83
789.703	219.99
789.884	156.5
790.065	162.64
790.246	142.16
790.427	185.17
790.607	152.4
790.788	95.06
790.969	140.12
791.15	152.4
791.331	138.07
791.512	185.17
791.693	160.59
791.874	166.74
792.054	176.98
792.235	211.79
792.416	103.25
792.597	138.07
792.778	181.07
792.958	228.18
793.139	123.73
793.32	176.98
793.5	115.54
793.681	183.12
793.862	72.53
794.042	158.55
794.223	162.64
794.404	136.02
794.584	160.59
794.765	90.96
794.945	133.97
795.126	146.26
795.306	76.63
795.487	123.73
795.667	101.2
795.848	119.64
796.028	111.44
796.209	187.22
796.389	144.21
796.57	127.83
796.75	201.55
796.93	95.06
797.111	74.58
797.291	146.26
797.471	123.73
797.652	113.49
797.832	136.02
798.012	95.06
798.192	86.87
798.373	160.59
798.553	168.79
798.733	160.59
798.913	88.92
799.093	142.16
799.274	107.35
799.454	176.98
799.634	127.83
799.814	142.16
799.994	78.68
800.174	174.93
800.354	201.55
800.534	166.74
800.714	97.11
800.894	103.25
801.074	80.72
801.254	86.87
801.434	162.64
801.614	154.45
801.794	99.16
801.974	363.34
802.154	74.58
802.334	152.4
802.514	80.72
802.693	138.07
802.873	68.44
803.053	88.92
803.233	131.92
803.413	105.3
803.592	133.97
803.772	119.64
803.952	54.1
804.131	117.59
804.311	115.54
804.491	119.64
804.67	21.33
804.85	64.34
805.03	101.2
805.209	90.96
805.389	142.16
805.568	45.91
805.748	84.82
805.928	115.54
806.107	82.77
806.287	62.29
806.466	78.68
806.646	127.83
806.825	166.74
807.004	80.72
807.184	50
807.363	76.63
807.543	99.16
807.722	64.34
807.901	64.34
808.081	113.49
808.26	105.3
808.439	107.35
808.619	78.68
808.798	39.76
808.977	72.53
809.156	19.29
809.336	111.44
809.515	72.53
809.694	78.68
809.873	41.81
810.052	99.16
810.231	33.62
810.411	131.92
810.59	33.62
810.769	113.49
810.948	47.96
811.127	68.44
811.306	119.64
811.485	125.78
811.664	56.15
811.843	86.87
812.022	58.2
812.201	99.16
812.38	111.44
812.559	62.29
812.737	86.87
812.916	31.57
813.095	31.57
813.274	84.82
813.453	109.4
813.632	103.25
813.811	56.15
813.989	105.3
814.168	41.81
814.347	88.92
814.526	82.77
814.704	103.25
814.883	62.29
815.062	78.68
815.24	70.48
815.419	13.14
815.598	60.24
815.776	-31.91
815.955	74.58
816.133	97.11
816.312	121.68
816.49	146.26
816.669	97.11
816.847	107.35
817.026	43.86
817.204	78.68
817.383	78.68
817.561	82.77
817.74	35.67
817.918	80.72
818.097	72.53
818.275	47.96
818.453	37.72
818.632	97.11
818.81	50
818.988	11.09
819.167	25.43
819.345	-7.34
819.523	62.29
819.701	82.77
819.879	47.96
820.058	84.82
820.236	82.77
820.414	58.2
820.592	78.68
820.77	39.76
820.948	129.88
821.127	19.29
821.305	56.15
821.483	121.68
821.661	109.4
821.839	33.62
822.017	117.59
822.195	52.05
822.373	70.48
822.551	47.96
822.729	78.68
822.907	11.09
823.085	50
823.262	52.05
823.44	17.24
823.618	37.72
823.796	99.16
823.974	35.67
824.152	7
824.329	4.95
824.507	41.81
824.685	74.58
824.863	52.05
825.04	-19.63
825.218	62.29
825.396	25.43
825.574	74.58
825.751	-15.53
825.929	60.24
826.107	37.72
826.284	66.39
826.462	68.44
826.639	88.92
826.817	76.63
826.994	29.52
827.172	84.82
827.349	70.48
827.527	-1.19
827.704	45.91
827.882	62.29
828.059	54.1
828.237	29.52
828.414	13.14
828.591	33.62
828.769	47.96
828.946	52.05
829.124	99.16
829.301	-29.87
829.478	39.76
829.655	19.29
829.833	0.85
830.01	74.58
830.187	60.24
830.364	21.33
830.542	13.14
830.719	68.44
830.896	60.24
831.073	25.43
831.25	11.09
831.427	35.67
831.604	105.3
831.782	17.24
831.959	113.49
832.136	56.15
832.313	0.85
832.49	-50.35
832.667	64.34
832.844	64.34
833.021	90.96
833.198	80.72
833.374	68.44
833.551	80.72
833.728	39.76
833.905	19.29
834.082	-44.2
834.259	2.9
834.436	60.24
834.612	21.33
834.789	66.39
834.966	60.24
835.143	95.06
835.319	-36.01
835.496	54.1
835.673	60.24
835.85	105.3
836.026	47.96
836.203	60.24
836.38	4.95
836.556	43.86
836.733	43.86
836.909	43.86
837.086	-3.24
837.262	35.67
837.439	-21.67
837.616	15.19
837.792	47.96
837.968	7
838.145	60.24
838.321	45.91
838.498	25.43
838.674	90.96
838.851	25.43
839.027	45.91
839.203	82.77
839.38	62.29
839.556	-52.39
839.732	-1.19
839.909	-23.72
840.085	60.24
840.261	43.86
840.437	-42.15
840.614	31.57
840.79	29.52
840.966	58.2
841.142	9.05
841.318	-23.72
841.494	2.9
841.671	47.96
841.847	25.43
842.023	35.67
842.199	45.91
842.375	13.14
842.551	15.19
842.727	70.48
842.903	88.92
843.079	47.96
843.255	15.19
843.431	56.15
843.607	-11.43
843.783	-11.43
843.959	43.86
844.134	4.95
844.31	11.09
844.486	43.86
844.662	-5.29
844.838	37.72
845.013	15.19
845.189	52.05
845.365	21.33
845.541	13.14
845.716	39.76
845.892	0.85
846.068	-11.43
846.244	-3.24
846.419	-21.67
846.595	33.62
846.77	17.24
846.946	37.72
847.122	33.62
847.297	-23.72
847.473	70.48
847.648	-19.63
847.824	-3.24
847.999	-52.39
848.175	21.33
848.35	2.9
848.526	41.81
848.701	-7.34
848.876	21.33
849.052	4.95
849.227	31.57
849.403	-58.54
849.578	25.43
849.753	23.38
849.929	21.33
850.104	25.43
850.279	19.29
850.454	31.57
850.63	-11.43
850.805	21.33
850.98	-3.24
851.155	25.43
851.33	41.81
851.505	29.52
851.681	64.34
851.856	74.58
852.031	-40.11
852.206	-23.72
852.381	2.9
852.556	13.14
852.731	29.52
852.906	66.39
853.081	52.05
853.256	13.14
853.431	31.57
853.606	45.91
853.781	31.57
853.956	47.96
854.131	35.67
854.305	-58.54
854.48	9.05
854.655	-119.98
854.83	60.24
855.005	25.43
855.18	-15.53
855.354	-19.63
855.529	-40.11
855.704	15.19
855.879	33.62
856.053	-9.39
856.228	113.49
856.403	-85.16
856.577	0.85
856.752	82.77
856.926	-15.53
857.101	2.9
857.276	54.1
857.45	64.34
857.625	21.33
857.799	0.85
857.974	52.05
858.148	-5.29
858.323	-15.53
858.497	41.81
858.672	43.86
858.846	41.81
859.02	39.76
859.195	-3.24
859.369	11.09
859.543	74.58
859.718	37.72
859.892	21.33
860.066	-40.11
860.241	-29.87
860.415	19.29
860.589	-31.91
860.763	-40.11
860.938	-83.11
861.112	37.72
861.286	33.62
861.46	45.91
861.634	2.9
861.808	45.91
861.982	-11.43
862.157	7
862.331	66.39
862.505	25.43
862.679	-7.34
862.853	62.29
863.027	-7.34
863.201	-7.34
863.375	-5.29
863.549	29.52
863.722	-25.77
863.896	17.24
864.07	7
864.244	21.33
864.418	-27.82
864.592	72.53
864.766	23.38
864.939	7
865.113	7
865.287	86.87
865.461	-38.06
865.634	-11.43
865.808	-1.19
865.982	-56.49
866.156	-1.19
866.329	-31.91
866.503	82.77
866.676	47.96
866.85	21.33
867.024	74.58
867.197	56.15
867.371	9.05
867.544	9.05
867.718	-15.53
867.891	25.43
868.065	-66.73
868.238	-11.43
868.412	21.33
868.585	33.62
868.759	19.29
868.932	-17.58
869.105	-1.19
869.279	70.48
869.452	39.76
869.625	2.9
869.799	70.48
869.972	-25.77
870.145	39.76
870.319	15.19
870.492	17.24
870.665	-1.19
870.838	68.44
871.011	50
871.185	35.67
871.358	15.19
871.531	-52.39
871.704	39.76
871.877	-23.72
872.05	56.15
872.223	-19.63
872.396	39.76
872.569	33.62
872.742	31.57
872.915	41.81
873.088	-23.72
873.261	13.14
873.434	13.14
873.607	11.09
873.78	76.63
873.953	-25.77
874.126	25.43
874.299	27.48
874.471	-13.48
874.644	15.19
874.817	56.15
874.99	-56.49
875.163	-33.96
875.335	50
875.508	-7.34
875.681	-3.24
875.853	-72.87
876.026	13.14
876.199	-52.39
876.371	-23.72
876.544	-11.43
876.717	-7.34
876.889	19.29
877.062	15.19
877.234	-23.72
877.407	-9.39
877.579	-17.58
877.752	35.67
877.924	13.14
878.097	-15.53
878.269	15.19
878.442	-11.43
878.614	62.29
878.786	39.76
878.959	23.38
879.131	45.91
879.303	-31.91
879.476	-33.96
879.648	-17.58
879.82	9.05
879.993	-1.19
880.165	9.05
880.337	-44.2
880.509	4.95
880.681	-1.19
880.854	21.33
881.026	-3.24
881.198	31.57
881.37	50
881.542	23.38
881.714	-68.78
881.886	-7.34
882.058	9.05
882.23	19.29
882.402	23.38
882.574	54.1
882.746	-21.67
882.918	39.76
883.09	45.91
883.262	-21.67
883.434	47.96
883.606	43.86
883.778	-25.77
883.95	-19.63
884.122	4.95
884.293	-44.2
884.465	-31.91
884.637	41.81
884.809	27.48
884.98	-27.82
885.152	11.09
885.324	37.72
885.496	-21.67
885.667	7
885.839	21.33
886.011	-1.19
886.182	39.76
886.354	45.91
886.525	-29.87
886.697	-36.01
886.869	-5.29
887.04	-3.24
887.212	-3.24
887.383	103.25
887.555	52.05
887.726	2.9
887.897	29.52
888.069	9.05
888.24	-9.39
888.412	0.85
888.583	45.91
888.754	-9.39
888.926	9.05
889.097	0.85
889.268	0.85
889.44	2.9
889.611	13.14
889.782	-11.43
889.953	95.06
890.125	-3.24
890.296	2.9
890.467	11.09
890.638	-105.64
890.809	54.1
890.98	4.95
891.151	4.95
891.323	-46.25
891.494	70.48
891.665	9.05
891.836	101.2
892.007	-31.91
892.178	31.57
892.349	21.33
892.52	60.24
892.691	7
892.862	-5.29
893.032	27.48
893.203	13.14
893.374	39.76
893.545	-9.39
893.716	37.72
893.887	60.24
894.057	-1.19
894.228	54.1
894.399	15.19
894.57	19.29
894.74	-29.87
894.911	31.57
895.082	-7.34
895.253	54.1
895.423	25.43
895.594	-36.01
895.764	19.29
895.935	-13.48
896.106	-19.63
896.276	21.33
896.447	-107.69
896.617	78.68
896.788	-33.96
896.958	62.29
897.129	23.38
897.299	-1.19
897.47	-23.72
897.64	66.39
897.81	-27.82
897.981	9.05
898.151	21.33
898.322	37.72
898.492	-11.43
898.662	58.2
898.832	-89.26
899.003	9.05
899.173	23.38
899.343	-50.35
899.513	29.52
