Data from USB4F104151__74__12-54-39-959.txt Node

Date: Fri Mar 14 12:54:39 EDT 2025
User: louis
Spectrometer: USB4F10415
Trigger mode: 4
Integration Time (sec): 1.000000E-2
Scans to average: 1
Electric dark correction enabled: true
Nonlinearity correction enabled: false
Boxcar width: 0
XAxis mode: Wavelengths
Number of Pixels in Spectrum: 3648
>>>>>Begin Spectral Data<<<<<
178.204	-100.52
178.424	-100.52
178.644	-100.52
178.864	-61.61
179.084	-57.51
179.304	-0.17
179.524	46.93
179.744	-18.6
179.964	42.84
180.184	-43.18
180.404	-10.41
180.624	-59.56
180.844	-4.27
181.064	24.4
181.283	48.98
181.503	-4.27
181.723	-22.7
181.943	-28.84
182.163	-26.79
182.383	3.93
182.602	12.12
182.822	-12.46
183.042	-94.38
183.262	5.97
183.482	69.46
183.701	46.93
183.921	-43.18
184.141	-77.99
184.361	22.36
184.58	-12.46
184.8	-37.03
185.02	10.07
185.239	44.88
185.459	40.79
185.679	20.31
185.898	-4.27
186.118	-39.08
186.338	-71.85
186.557	-18.6
186.777	-6.31
186.997	53.08
187.216	48.98
187.436	20.31
187.655	36.69
187.875	-2.22
188.095	28.5
188.314	-43.18
188.534	38.74
188.753	-8.36
188.973	20.31
189.192	-8.36
189.412	-0.17
189.631	28.5
189.851	-16.55
190.07	-2.22
190.29	1.88
190.509	-30.89
190.729	28.5
190.948	46.93
191.168	77.65
191.387	36.69
191.607	-10.41
191.826	-2.22
192.045	-18.6
192.265	12.12
192.484	-43.18
192.704	53.08
192.923	-37.03
193.142	59.22
193.362	-65.71
193.581	-16.55
193.8	-86.19
194.02	40.79
194.239	-26.79
194.458	44.88
194.678	-26.79
194.897	5.97
195.116	8.02
195.335	3.93
195.555	-49.32
195.774	69.46
195.993	18.26
196.212	-12.46
196.432	44.88
196.651	-37.03
196.87	61.27
197.089	12.12
197.308	-51.37
197.528	28.5
197.747	38.74
197.966	40.79
198.185	-6.31
198.404	-37.03
198.623	38.74
198.842	-12.46
199.062	38.74
199.281	-45.23
199.5	26.45
199.719	24.4
199.938	73.56
200.157	8.02
200.376	5.97
200.595	-75.95
200.814	65.36
201.033	3.93
201.252	-53.42
201.471	-10.41
201.69	30.55
201.909	63.32
202.128	55.12
202.347	-16.55
202.566	3.93
202.785	-86.19
203.004	-24.75
203.223	51.03
203.442	-34.99
203.661	-86.19
203.879	71.51
204.098	12.12
204.317	5.97
204.536	14.17
204.755	-45.23
204.974	40.79
205.193	-53.42
205.411	36.69
205.63	-22.7
205.849	-10.41
206.068	36.69
206.287	61.27
206.505	28.5
206.724	69.46
206.943	3.93
207.162	34.64
207.381	26.45
207.599	-14.51
207.818	-39.08
208.037	63.32
208.255	-16.55
208.474	5.97
208.693	20.31
208.911	-18.6
209.13	-12.46
209.349	-12.46
209.567	14.17
209.786	46.93
210.005	1.88
210.223	57.17
210.442	-28.84
210.661	-14.51
210.879	55.12
211.098	22.36
211.316	34.64
211.535	-34.99
211.753	-4.27
211.972	-8.36
212.191	-41.13
212.409	-24.75
212.628	-6.31
212.846	-2.22
213.065	18.26
213.283	32.6
213.502	-0.17
213.72	-10.41
213.938	1.88
214.157	-16.55
214.375	32.6
214.594	-16.55
214.812	-53.42
215.031	-10.41
215.249	1.88
215.467	-26.79
215.686	-20.65
215.904	36.69
216.122	-18.6
216.341	16.21
216.559	3.93
216.778	-57.51
216.996	-43.18
217.214	20.31
217.432	-57.51
217.651	-20.65
217.869	3.93
218.087	24.4
218.306	55.12
218.524	5.97
218.742	-32.94
218.96	-10.41
219.179	-22.7
219.397	-18.6
219.615	-12.46
219.833	14.17
220.051	32.6
220.27	20.31
220.488	-8.36
220.706	46.93
220.924	-67.75
221.142	14.17
221.36	18.26
221.578	24.4
221.796	-12.46
222.015	-55.47
222.233	-4.27
222.451	-18.6
222.669	1.88
222.887	36.69
223.105	12.12
223.323	-41.13
223.541	-4.27
223.759	44.88
223.977	-10.41
224.195	-4.27
224.413	-10.41
224.631	-47.27
224.849	-41.13
225.067	42.84
225.285	-8.36
225.503	-16.55
225.721	-10.41
225.939	14.17
226.157	51.03
226.375	71.51
226.592	-43.18
226.81	55.12
227.028	-63.66
227.246	22.36
227.464	-88.23
227.682	-18.6
227.9	-18.6
228.117	46.93
228.335	-12.46
228.553	3.93
228.771	-4.27
228.989	-63.66
229.206	32.6
229.424	20.31
229.642	14.17
229.86	-2.22
230.077	59.22
230.295	3.93
230.513	-67.75
230.731	53.08
230.948	-16.55
231.166	-69.8
231.384	44.88
231.601	-16.55
231.819	-37.03
232.037	32.6
232.254	-41.13
232.472	-4.27
232.689	-28.84
232.907	42.84
233.125	-20.65
233.342	-12.46
233.56	-4.27
233.777	-49.32
233.995	-4.27
234.213	69.46
234.43	18.26
234.648	-4.27
234.865	-0.17
235.083	-82.09
235.3	-14.51
235.518	3.93
235.735	14.17
235.953	-4.27
236.17	61.27
236.388	40.79
236.605	-30.89
236.822	-69.8
237.04	12.12
237.257	36.69
237.475	-0.17
237.692	-16.55
237.909	22.36
238.127	-43.18
238.344	59.22
238.562	-34.99
238.779	-14.51
238.996	20.31
239.214	-57.51
239.431	59.22
239.648	-57.51
239.865	1.88
240.083	-20.65
240.3	-0.17
240.517	-55.47
240.735	5.97
240.952	-0.17
241.169	-12.46
241.386	65.36
241.603	12.12
241.821	-102.57
242.038	48.98
242.255	83.8
242.472	14.17
242.689	28.5
242.907	-10.41
243.124	-55.47
243.341	-0.17
243.558	3.93
243.775	14.17
243.992	-8.36
244.209	12.12
244.426	32.6
244.643	22.36
244.86	-32.94
245.078	26.45
245.295	24.4
245.512	-12.46
245.729	-65.71
245.946	20.31
246.163	1.88
246.38	-26.79
246.597	3.93
246.814	8.02
247.031	-6.31
247.248	-10.41
247.464	3.93
247.681	5.97
247.898	-24.75
248.115	55.12
248.332	-10.41
248.549	48.98
248.766	22.36
248.983	20.31
249.2	51.03
249.417	10.07
249.633	-59.56
249.85	42.84
250.067	-30.89
250.284	-37.03
250.501	-12.46
250.717	-39.08
250.934	5.97
251.151	46.93
251.368	38.74
251.585	8.02
251.801	22.36
252.018	-32.94
252.235	-55.47
252.451	5.97
252.668	-4.27
252.885	-18.6
253.102	34.64
253.318	-51.37
253.535	28.5
253.752	14.17
253.968	8.02
254.185	-32.94
254.401	-22.7
254.618	55.12
254.835	-14.51
255.051	59.22
255.268	51.03
255.484	40.79
255.701	-90.28
255.917	46.93
256.134	14.17
256.351	55.12
256.567	28.5
256.784	-24.75
257	30.55
257.217	-57.51
257.433	10.07
257.65	-2.22
257.866	5.97
258.082	44.88
258.299	51.03
258.515	28.5
258.732	5.97
258.948	-28.84
259.165	-32.94
259.381	16.21
259.597	-6.31
259.814	-20.65
260.03	-2.22
260.246	-12.46
260.463	14.17
260.679	55.12
260.895	-30.89
261.112	-32.94
261.328	-28.84
261.544	32.6
261.761	77.65
261.977	-34.99
262.193	-51.37
262.409	81.75
262.626	28.5
262.842	36.69
263.058	-43.18
263.274	51.03
263.49	-20.65
263.707	34.64
263.923	10.07
264.139	48.98
264.355	20.31
264.571	26.45
264.787	18.26
265.004	12.12
265.22	-6.31
265.436	53.08
265.652	-2.22
265.868	20.31
266.084	-4.27
266.3	-63.66
266.516	-88.23
266.732	-0.17
266.948	-28.84
267.164	42.84
267.38	51.03
267.596	-4.27
267.812	16.21
268.028	55.12
268.244	22.36
268.46	-0.17
268.676	-22.7
268.892	-14.51
269.108	10.07
269.324	12.12
269.54	28.5
269.756	61.27
269.972	1.88
270.188	-4.27
270.403	-26.79
270.619	-47.27
270.835	-43.18
271.051	-10.41
271.267	-28.84
271.483	-37.03
271.698	-51.37
271.914	-10.41
272.13	-4.27
272.346	28.5
272.562	3.93
272.777	14.17
272.993	55.12
273.209	51.03
273.425	59.22
273.64	3.93
273.856	18.26
274.072	34.64
274.287	-49.32
274.503	1.88
274.719	12.12
274.934	-10.41
275.15	-88.23
275.366	-39.08
275.581	55.12
275.797	-8.36
276.012	-49.32
276.228	-0.17
276.444	34.64
276.659	12.12
276.875	-45.23
277.09	67.41
277.306	5.97
277.521	53.08
277.737	-26.79
277.952	77.65
278.168	-30.89
278.383	51.03
278.599	-43.18
278.814	48.98
279.03	5.97
279.245	30.55
279.461	-65.71
279.676	36.69
279.892	-55.47
280.107	-6.31
280.322	-18.6
280.538	44.88
280.753	-16.55
280.969	-26.79
281.184	16.21
281.399	-2.22
281.615	12.12
281.83	38.74
282.045	8.02
282.26	102.23
282.476	16.21
282.691	81.75
282.906	3.93
283.122	-24.75
283.337	67.41
283.552	-41.13
283.767	-53.42
283.983	28.5
284.198	-28.84
284.413	-16.55
284.628	18.26
284.843	96.08
285.058	1.88
285.274	-10.41
285.489	55.12
285.704	20.31
285.919	-14.51
286.134	18.26
286.349	-2.22
286.564	36.69
286.779	32.6
286.995	98.13
287.21	-65.71
287.425	34.64
287.64	67.41
287.855	24.4
288.07	-88.23
288.285	59.22
288.5	-65.71
288.715	28.5
288.93	-14.51
289.145	18.26
289.36	-39.08
289.575	55.12
289.79	-20.65
290.004	-4.27
290.219	16.21
290.434	77.65
290.649	-22.7
290.864	42.84
291.079	-14.51
291.294	-4.27
291.509	-12.46
291.724	8.02
291.938	8.02
292.153	1.88
292.368	5.97
292.583	22.36
292.798	22.36
293.012	-24.75
293.227	28.5
293.442	-24.75
293.657	36.69
293.871	-2.22
294.086	94.04
294.301	40.79
294.516	44.88
294.73	14.17
294.945	-53.42
295.16	-32.94
295.374	46.93
295.589	-32.94
295.804	-104.62
296.018	8.02
296.233	44.88
296.447	36.69
296.662	-6.31
296.877	14.17
297.091	-8.36
297.306	-0.17
297.52	-18.6
297.735	-24.75
297.949	10.07
298.164	36.69
298.378	-16.55
298.593	-24.75
298.807	30.55
299.022	26.45
299.236	46.93
299.451	42.84
299.665	-4.27
299.88	-24.75
300.094	16.21
300.309	-39.08
300.523	-22.7
300.737	12.12
300.952	-10.41
301.166	44.88
301.381	-41.13
301.595	-4.27
301.809	40.79
302.024	-100.52
302.238	-45.23
302.452	16.21
302.667	-37.03
302.881	42.84
303.095	-10.41
303.309	8.02
303.524	40.79
303.738	-4.27
303.952	14.17
304.166	3.93
304.381	20.31
304.595	-49.32
304.809	10.07
305.023	-6.31
305.237	-18.6
305.452	3.93
305.666	-14.51
305.88	40.79
306.094	20.31
306.308	16.21
306.522	24.4
306.736	-28.84
306.95	-30.89
307.164	22.36
307.379	-20.65
307.593	77.65
307.807	12.12
308.021	75.6
308.235	3.93
308.449	3.93
308.663	-8.36
308.877	40.79
309.091	-24.75
309.305	-30.89
309.519	51.03
309.733	14.17
309.947	65.36
310.161	24.4
310.374	-53.42
310.588	-18.6
310.802	-47.27
311.016	-12.46
311.23	63.32
311.444	5.97
311.658	-18.6
311.872	55.12
312.085	16.21
312.299	42.84
312.513	1.88
312.727	22.36
312.941	36.69
313.154	-4.27
313.368	89.94
313.582	53.08
313.796	-49.32
314.009	-20.65
314.223	-43.18
314.437	34.64
314.651	65.36
314.864	30.55
315.078	16.21
315.292	-2.22
315.505	44.88
315.719	-14.51
315.933	-10.41
316.146	-59.56
316.36	20.31
316.573	-18.6
316.787	-37.03
317.001	30.55
317.214	8.02
317.428	14.17
317.641	-45.23
317.855	5.97
318.068	20.31
318.282	10.07
318.495	-28.84
318.709	5.97
318.922	3.93
319.136	20.31
319.349	-39.08
319.563	-18.6
319.776	-18.6
319.99	71.51
320.203	112.47
320.417	-69.8
320.63	-16.55
320.843	65.36
321.057	-4.27
321.27	44.88
321.483	32.6
321.697	36.69
321.91	71.51
322.124	14.17
322.337	-0.17
322.55	30.55
322.763	26.45
322.977	-37.03
323.19	61.27
323.403	-2.22
323.617	16.21
323.83	30.55
324.043	3.93
324.256	18.26
324.469	24.4
324.683	-2.22
324.896	-32.94
325.109	40.79
325.322	-43.18
325.535	-20.65
325.748	18.26
325.962	-43.18
326.175	-10.41
326.388	-2.22
326.601	-53.42
326.814	87.89
327.027	55.12
327.24	12.12
327.453	-6.31
327.666	-20.65
327.879	30.55
328.092	36.69
328.305	-63.66
328.518	-0.17
328.731	-14.51
328.944	-26.79
329.157	5.97
329.37	34.64
329.583	53.08
329.796	-16.55
330.009	5.97
330.222	53.08
330.435	22.36
330.648	-47.27
330.861	-16.55
331.073	8.02
331.286	32.6
331.499	14.17
331.712	48.98
331.925	81.75
332.138	34.64
332.35	1.88
332.563	-12.46
332.776	-34.99
332.989	63.32
333.202	-45.23
333.414	22.36
333.627	42.84
333.84	32.6
334.053	24.4
334.265	-32.94
334.478	-22.7
334.691	96.08
334.903	83.8
335.116	-20.65
335.329	-14.51
335.541	-0.17
335.754	57.17
335.966	34.64
336.179	34.64
336.392	-98.47
336.604	102.23
336.817	-18.6
337.029	51.03
337.242	24.4
337.454	20.31
337.667	-0.17
337.88	61.27
338.092	-16.55
338.305	-10.41
338.517	-65.71
338.729	-12.46
338.942	26.45
339.154	10.07
339.367	26.45
339.579	1.88
339.792	61.27
340.004	1.88
340.217	46.93
340.429	10.07
340.641	-51.37
340.854	34.64
341.066	44.88
341.278	55.12
341.491	91.99
341.703	1.88
341.915	12.12
342.128	26.45
342.34	22.36
342.552	-18.6
342.764	-14.51
342.977	14.17
343.189	28.5
343.401	75.6
343.613	1.88
343.826	57.17
344.038	32.6
344.25	-4.27
344.462	32.6
344.674	20.31
344.886	55.12
345.099	77.65
345.311	38.74
345.523	-2.22
345.735	12.12
345.947	-34.99
346.159	22.36
346.371	-49.32
346.583	14.17
346.795	-0.17
347.007	8.02
347.219	85.84
347.431	-8.36
347.643	87.89
347.855	59.22
348.067	24.4
348.279	-0.17
348.491	-43.18
348.703	42.84
348.915	48.98
349.127	3.93
349.339	-4.27
349.551	8.02
349.763	-77.99
349.975	8.02
350.187	10.07
350.399	16.21
350.61	59.22
350.822	-34.99
351.034	69.46
351.246	16.21
351.458	-26.79
351.669	120.66
351.881	53.08
352.093	24.4
352.305	-2.22
352.517	30.55
352.728	-32.94
352.94	20.31
353.152	3.93
353.363	28.5
353.575	55.12
353.787	-12.46
353.999	51.03
354.21	-39.08
354.422	65.36
354.633	-69.8
354.845	-30.89
355.057	14.17
355.268	-47.27
355.48	5.97
355.692	61.27
355.903	8.02
356.115	-14.51
356.326	-2.22
356.538	10.07
356.749	8.02
356.961	14.17
357.172	-18.6
357.384	-51.37
357.595	34.64
357.807	8.02
358.018	22.36
358.23	-26.79
358.441	8.02
358.653	-26.79
358.864	30.55
359.075	3.93
359.287	53.08
359.498	-55.47
359.709	-67.75
359.921	34.64
360.132	-24.75
360.344	-32.94
360.555	-8.36
360.766	30.55
360.977	-24.75
361.189	26.45
361.4	-22.7
361.611	-10.41
361.823	5.97
362.034	26.45
362.245	1.88
362.456	20.31
362.667	-84.14
362.879	1.88
363.09	-77.99
363.301	36.69
363.512	-16.55
363.723	22.36
363.935	26.45
364.146	53.08
364.357	-6.31
364.568	87.89
364.779	12.12
364.99	46.93
365.201	-10.41
365.412	65.36
365.623	-16.55
365.834	108.37
366.045	-12.46
366.256	3.93
366.467	12.12
366.678	38.74
366.889	14.17
367.1	16.21
367.311	14.17
367.522	-61.61
367.733	28.5
367.944	32.6
368.155	-55.47
368.366	3.93
368.577	79.7
368.788	-30.89
368.999	1.88
369.209	12.12
369.42	14.17
369.631	30.55
369.842	20.31
370.053	5.97
370.264	-0.17
370.474	48.98
370.685	-14.51
370.896	-28.84
371.107	14.17
371.317	-32.94
371.528	32.6
371.739	36.69
371.95	-34.99
372.16	40.79
372.371	-57.51
372.582	59.22
372.792	20.31
373.003	28.5
373.214	-18.6
373.424	5.97
373.635	-55.47
373.846	79.7
374.056	-22.7
374.267	10.07
374.477	61.27
374.688	3.93
374.898	48.98
375.109	5.97
375.319	67.41
375.53	59.22
375.74	-98.47
375.951	34.64
376.161	8.02
376.372	59.22
376.582	10.07
376.793	-32.94
377.003	-20.65
377.214	-86.19
377.424	-4.27
377.635	-28.84
377.845	22.36
378.055	-2.22
378.266	28.5
378.476	14.17
378.686	26.45
378.897	-30.89
379.107	40.79
379.317	16.21
379.528	-2.22
379.738	34.64
379.948	5.97
380.158	-43.18
380.369	-18.6
380.579	38.74
380.789	20.31
380.999	44.88
381.21	-26.79
381.42	65.36
381.63	12.12
381.84	-14.51
382.05	24.4
382.261	67.41
382.471	28.5
382.681	-4.27
382.891	44.88
383.101	16.21
383.311	-43.18
383.521	-0.17
383.731	18.26
383.941	77.65
384.151	61.27
384.361	73.56
384.571	-28.84
384.781	71.51
384.991	-16.55
385.201	14.17
385.411	5.97
385.621	22.36
385.831	5.97
386.041	-69.8
386.251	-49.32
386.461	61.27
386.671	42.84
386.881	3.93
387.091	32.6
387.301	16.21
387.511	30.55
387.72	-57.51
387.93	20.31
388.14	5.97
388.35	-55.47
388.56	18.26
388.769	14.17
388.979	8.02
389.189	14.17
389.399	-4.27
389.609	38.74
389.818	16.21
390.028	26.45
390.238	40.79
390.447	55.12
390.657	24.4
390.867	1.88
391.076	48.98
391.286	-18.6
391.496	-12.46
391.705	85.84
391.915	79.7
392.125	51.03
392.334	14.17
392.544	44.88
392.753	24.4
392.963	12.12
393.172	71.51
393.382	63.32
393.591	5.97
393.801	18.26
394.01	67.41
394.22	-6.31
394.429	22.36
394.639	20.31
394.848	34.64
395.058	59.22
395.267	-4.27
395.477	59.22
395.686	3.93
395.895	44.88
396.105	81.75
396.314	-34.99
396.524	1.88
396.733	53.08
396.942	-24.75
397.152	-2.22
397.361	28.5
397.57	98.13
397.78	46.93
397.989	24.4
398.198	24.4
398.407	34.64
398.617	30.55
398.826	112.47
399.035	85.84
399.244	38.74
399.453	5.97
399.663	22.36
399.872	-67.75
400.081	-4.27
400.29	14.17
400.499	14.17
400.708	42.84
400.917	5.97
401.127	61.27
401.336	-14.51
401.545	53.08
401.754	75.6
401.963	73.56
402.172	1.88
402.381	3.93
402.59	73.56
402.799	61.27
403.008	34.64
403.217	63.32
403.426	-2.22
403.635	14.17
403.844	69.46
404.053	65.36
404.262	77.65
404.471	8.02
404.68	108.37
404.888	55.12
405.097	155.47
405.306	98.13
405.515	61.27
405.724	104.28
405.933	61.27
406.142	87.89
406.35	34.64
406.559	87.89
406.768	98.13
406.977	104.28
407.185	40.79
407.394	22.36
407.603	151.38
407.812	63.32
408.02	124.76
408.229	126.8
408.438	65.36
408.646	71.51
408.855	128.85
409.064	106.32
409.272	77.65
409.481	126.8
409.69	79.7
409.898	122.71
410.107	112.47
410.315	104.28
410.524	110.42
410.733	167.76
410.941	106.32
411.15	85.84
411.358	182.1
411.567	118.61
411.775	165.71
411.984	184.15
412.192	186.19
412.401	188.24
412.609	143.19
412.818	153.43
413.026	137.04
413.234	221.01
413.443	161.62
413.651	261.97
413.86	270.16
414.068	280.4
414.276	223.06
414.485	282.45
414.693	233.3
414.901	249.68
415.11	239.44
415.318	358.22
415.526	266.07
415.734	253.78
415.943	382.8
416.151	327.5
416.359	302.93
416.567	323.41
416.776	372.56
416.984	403.28
417.192	495.44
417.4	292.69
417.608	397.14
417.817	470.86
418.025	481.1
418.233	532.3
418.441	515.92
418.649	530.25
418.857	513.87
419.065	520.01
419.273	579.4
419.481	565.07
419.689	636.75
419.897	683.85
420.105	642.89
420.313	692.04
420.521	667.47
420.729	667.47
420.937	741.19
421.145	708.43
421.353	790.35
421.561	812.87
421.769	755.53
421.977	829.26
422.185	968.52
422.393	870.22
422.601	1052.49
422.809	1019.72
423.017	935.75
423.224	1070.92
423.432	1093.44
423.64	1193.8
423.848	1152.84
424.056	1224.51
424.263	1171.27
424.471	1281.86
424.679	1255.23
424.887	1298.24
425.094	1357.63
425.302	1355.58
425.51	1482.56
425.718	1521.47
425.925	1562.43
426.133	1527.61
426.341	1681.21
426.548	1701.69
426.756	1726.27
426.964	1773.37
427.171	1875.77
427.379	1797.95
427.586	1953.59
427.794	2058.04
428.001	2043.7
428.209	2256.69
428.417	2215.73
428.624	2359.09
428.832	2408.24
429.039	2318.13
429.247	2250.55
429.454	2520.88
429.662	2543.41
429.869	2492.21
430.076	2672.43
430.284	2537.26
430.491	2684.72
430.699	2840.36
430.906	2764.59
431.114	2838.31
431.321	2959.14
431.528	3221.28
431.736	3055.4
431.943	3434.27
432.15	3286.82
432.358	3309.35
432.565	3385.12
432.772	3514.14
432.979	3823.39
433.187	3673.89
433.394	3725.08
433.601	3976.98
433.808	4028.18
434.016	3944.22
434.223	4265.75
434.43	4337.43
434.637	4337.43
434.844	4613.9
435.052	4628.24
435.259	4636.43
435.466	4675.34
435.673	4712.21
435.88	4972.3
436.087	5287.68
436.294	5160.71
436.501	5185.29
436.708	5285.64
436.915	5345.03
437.122	5494.53
437.329	5705.47
437.537	5965.56
437.743	5977.85
437.95	6110.97
438.157	6133.5
438.364	6336.24
438.571	6328.05
438.778	6467.31
438.985	6950.64
439.192	6858.48
439.399	7071.47
439.606	6819.57
439.813	7231.21
440.02	7739.1
440.227	7384.8
440.433	7528.16
440.64	7810.78
440.847	7519.97
441.054	7909.08
441.261	8208.09
441.467	8210.14
441.674	8386.26
441.881	8953.55
442.088	8611.54
442.294	8693.46
442.501	8865.49
442.708	9127.63
442.914	9232.07
443.121	9981.63
443.328	9584.32
443.534	10227.39
443.741	10145.47
443.948	9735.87
444.154	10510
444.361	10514.1
444.568	10612.4
444.774	10575.54
444.981	10665.65
445.187	10933.93
445.394	11439.78
445.6	11337.38
445.807	12492.44
446.013	11822.75
446.22	12132
446.426	12635.8
446.633	12619.41
446.839	13067.92
447.046	12420.76
447.252	13342.35
447.459	13385.35
447.665	13223.56
447.871	13727.36
448.078	14548.6
448.284	13481.61
448.491	14227.07
448.697	14728.82
448.903	14960.24
449.11	15031.92
449.316	14909.04
449.522	15052.4
449.728	15609.45
449.935	15523.43
450.141	15629.93
450.347	15578.73
450.553	15330.92
450.76	15687.27
450.966	16356.96
451.172	16043.62
451.378	16330.33
451.584	16279.13
451.791	16658.01
451.997	16332.38
452.203	17004.11
452.409	16944.72
452.615	16553.56
452.821	16088.67
453.027	15898.21
453.233	16701.01
453.44	16209.5
453.646	15994.47
453.852	16522.84
454.058	16488.03
454.264	16127.58
454.47	16596.57
454.676	16086.62
454.882	16492.12
455.088	15246.96
455.294	15326.83
455.5	15724.13
455.705	15638.12
455.911	15195.76
456.117	14784.12
456.323	14438.01
456.529	13809.28
456.735	14790.26
456.941	14093.95
457.147	13973.12
457.352	13522.57
457.558	13436.55
457.764	13325.96
457.97	13233.8
458.176	12873.36
458.381	13055.63
458.587	12295.83
458.793	12449.43
458.999	11570.85
459.204	12568.21
459.41	12129.95
459.616	11216.55
459.821	11206.31
460.027	11230.89
460.233	10913.45
460.438	10274.49
460.644	10491.57
460.85	10108.6
461.055	10034.88
461.261	9756.35
461.466	9166.54
461.672	8855.25
461.878	9572.04
462.083	8689.36
462.289	8818.38
462.494	8556.24
462.7	8197.85
462.905	8019.67
463.111	8335.06
463.316	8234.71
463.522	8163.03
463.727	8423.12
463.932	8177.37
464.138	8240.86
464.343	8017.63
464.549	8027.87
464.754	8021.72
464.959	8160.98
465.165	8060.63
465.37	7571.17
465.575	7466.72
465.781	7802.59
465.986	8021.72
466.191	7519.97
466.397	7372.52
466.602	7007.98
466.807	7481.06
467.012	7249.64
467.218	7261.93
467.423	7290.6
467.628	7298.79
467.833	7530.21
468.038	7302.89
468.244	6938.35
468.449	7487.2
468.654	6985.45
468.859	6938.35
469.064	6911.72
469.269	6641.39
469.474	6651.63
469.679	6971.11
469.885	6606.58
470.09	6827.76
470.295	6700.78
470.5	6622.96
470.705	6846.19
470.91	6434.55
471.115	6674.16
471.32	6469.36
471.525	6432.5
471.73	6469.36
471.935	6280.95
472.139	6008.57
472.344	6250.23
472.549	6178.55
472.754	6258.42
472.959	6016.76
473.164	5795.58
473.369	5828.35
473.574	5883.64
473.778	5879.55
473.983	5910.27
474.188	5789.44
474.393	5506.82
474.598	5560.06
474.802	5445.38
475.007	5480.19
475.212	5492.48
475.417	5433.09
475.621	5185.29
475.826	5222.15
476.031	5173
476.235	5254.92
476.44	5136.13
476.645	5144.33
476.849	5119.75
477.054	4951.82
477.259	4960.01
477.463	4992.78
477.668	4955.91
477.872	4951.82
478.077	4728.59
478.282	4718.35
478.486	4667.15
478.691	4609.81
478.895	4585.23
479.1	4697.87
479.304	4601.62
479.509	4507.41
479.713	4554.51
479.918	4486.93
480.122	4429.59
480.326	4478.74
480.531	4542.22
480.735	4415.25
480.94	4321.04
481.144	4607.76
481.348	4187.93
481.553	4259.6
481.757	4306.71
481.961	4177.69
482.166	4292.37
482.37	4407.06
482.574	4144.92
482.778	4402.96
482.983	4288.28
483.187	4101.91
483.391	4249.36
483.595	4200.21
483.8	4261.65
484.004	4255.51
484.208	4200.21
484.412	4396.82
484.616	4048.66
484.821	4249.36
485.025	4112.15
485.229	4343.57
485.433	4314.9
485.637	4333.33
485.841	4259.6
486.045	4396.82
486.249	4251.41
486.453	4232.98
486.657	4247.32
486.861	4128.53
487.065	4325.14
487.269	4292.37
487.473	4255.51
487.677	4372.24
487.881	4421.39
488.085	4239.12
488.289	4409.11
488.493	4368.15
488.697	4341.52
488.901	4402.96
489.105	4435.73
489.309	4390.67
489.512	4259.6
489.716	4445.97
489.92	4331.28
490.124	4278.04
490.328	4398.87
490.531	4415.25
490.735	4466.45
490.939	4462.35
491.143	4423.44
491.346	4380.43
491.55	4517.65
491.754	4538.13
491.958	4556.56
492.161	4405.01
492.365	4499.22
492.569	4538.13
492.772	4628.24
492.976	4574.99
493.18	4716.3
493.383	4826.89
493.587	4658.96
493.79	4587.28
493.994	4566.8
494.197	4792.08
494.401	4902.67
494.605	4759.31
494.808	4730.64
495.012	4787.98
495.215	4794.12
495.419	4960.01
495.622	5017.35
495.825	5089.03
496.029	5154.57
496.232	5226.25
496.436	5054.22
496.639	5289.73
496.843	5330.69
497.046	5373.7
497.249	5412.61
497.453	5326.6
497.656	5555.97
497.859	5406.47
498.063	5461.76
498.266	5637.89
498.469	5621.5
498.673	5691.13
498.876	5840.64
499.079	5617.41
499.282	5875.45
499.485	5996.28
499.689	6072.06
499.892	5871.36
500.095	6123.26
500.298	6145.78
500.501	6301.43
500.705	6254.33
500.908	6565.62
501.111	6483.7
501.314	6567.67
501.517	6559.47
501.72	6854.38
501.923	6680.3
502.126	6809.33
502.329	6913.77
502.532	6856.43
502.735	7100.14
502.938	7278.31
503.141	7177.96
503.344	7327.46
503.547	7300.84
503.75	7415.52
503.953	7608.03
504.156	7630.56
504.359	7700.19
504.562	7753.44
504.765	8060.63
504.968	8025.82
505.17	7982.81
505.373	8048.35
505.576	8365.78
505.779	8294.1
505.982	8640.21
506.185	8410.84
506.387	8494.8
506.59	8640.21
506.793	8900.3
506.996	8857.29
507.198	9092.81
507.401	8965.84
507.604	9148.11
507.807	9139.91
508.009	9193.16
508.212	9393.86
508.415	9576.13
508.617	9455.3
508.82	9643.71
509.022	9694.91
509.225	9973.44
509.428	10022.59
509.63	10022.59
509.833	10133.18
510.035	10352.31
510.238	10274.49
510.44	10518.2
510.643	10712.75
510.845	10624.69
511.048	10800.82
511.25	10811.06
511.453	10974.89
511.655	11349.67
511.858	11132.59
512.06	11341.48
512.262	11437.73
512.465	11419.3
512.667	11597.48
512.87	11548.33
513.072	11648.68
513.274	11978.4
513.477	12025.5
513.679	12238.49
513.881	12273.31
514.084	12684.95
514.286	12426.9
514.488	12572.31
514.69	12842.64
514.893	12955.28
515.095	13213.32
515.297	13194.89
515.499	13282.95
515.701	13389.45
515.904	13258.38
516.106	13444.74
516.308	13770.37
516.51	13897.35
516.712	13768.32
516.914	13665.92
517.116	14384.76
517.318	14270.08
517.52	14206.59
517.722	14364.28
517.925	14487.16
518.127	14583.41
518.329	14786.16
518.531	14851.7
518.733	15199.85
518.935	15036.02
519.136	15261.29
519.338	15392.36
519.54	15601.26
519.742	15558.25
519.944	15691.37
520.146	16074.34
520.348	15916.64
520.55	15996.51
520.752	16268.89
520.954	16531.03
521.155	16221.79
521.357	16481.88
521.559	16731.73
521.761	16698.97
521.963	16817.75
522.164	16813.65
522.366	17083.98
522.568	17065.55
522.77	17114.7
522.971	17469
523.173	17264.21
523.375	17479.24
523.576	17681.99
523.778	17704.52
523.98	17919.56
524.181	18073.15
524.383	17819.21
524.584	18226.75
524.786	18363.97
524.988	18128.45
525.189	18339.39
525.391	18492.99
525.592	18630.2
525.794	18660.92
525.995	18509.37
526.197	18898.48
526.398	18785.85
526.6	18728.5
526.801	18945.59
527.003	19052.08
527.204	18734.65
527.406	19215.92
527.607	18998.84
527.808	19463.72
528.01	18961.97
528.211	19138.1
528.412	19799.59
528.614	19099.19
528.815	19082.8
529.016	19541.55
529.218	19426.86
529.419	19375.66
529.62	19695.14
529.822	19451.44
530.023	19674.67
530.224	19670.57
530.425	19531.31
530.626	19619.37
530.828	19701.29
531.029	19979.81
531.23	19625.51
531.431	19752.49
531.632	20135.46
531.833	19836.45
532.035	19895.85
532.236	19809.83
532.437	20047.4
532.638	19910.18
532.839	19865.13
533.04	20178.47
533.241	19713.58
533.442	20213.28
533.643	19967.52
533.844	20086.31
534.045	20049.44
534.246	19758.63
534.447	20162.08
534.648	20143.65
534.849	20026.92
535.05	19830.31
535.251	19852.84
535.451	19938.85
535.652	20084.26
535.853	20028.96
536.054	20002.34
536.255	19940.9
536.456	19744.3
536.657	20424.22
536.857	19971.62
537.058	20076.07
537.259	19938.85
537.46	20209.18
537.66	19977.76
537.861	20018.72
538.062	20006.44
538.263	19945
538.463	19803.69
538.664	19842.6
538.865	19969.57
539.065	20297.25
539.266	19887.65
539.466	20495.9
539.667	19768.87
539.868	20358.69
540.068	20106.79
540.269	19988
540.469	20221.47
540.67	19711.53
540.87	19945
541.071	19762.73
541.271	20123.17
541.472	19858.98
541.672	19842.6
541.873	19885.61
542.073	19668.52
542.274	20104.74
542.474	19945
542.675	19904.04
542.875	20000.29
543.075	19998.24
543.276	19510.83
543.476	20135.46
543.676	19904.04
543.877	19885.61
544.077	19955.24
544.277	19754.54
544.478	19697.19
544.678	20131.36
544.878	19811.88
545.078	19899.94
545.279	19756.58
545.479	19662.38
545.679	19725.86
545.879	19775.02
546.079	19842.6
546.28	19961.38
546.48	19658.28
546.68	19686.95
546.88	19959.33
547.08	19815.97
547.28	19703.34
547.48	19711.53
547.68	19914.28
547.88	19500.59
548.081	19648.04
548.281	19781.16
548.481	19807.78
548.681	19992.1
548.881	19465.77
549.081	19809.83
549.28	19729.96
549.48	19863.08
549.68	19869.22
549.88	19916.33
550.08	19598.89
550.28	19803.69
550.48	19752.49
550.68	19709.48
550.88	19678.76
551.08	19822.12
551.279	19934.76
551.479	19629.61
551.679	19387.95
551.879	19861.03
552.079	19768.87
552.278	19529.26
552.478	19662.38
552.678	19711.53
552.878	19623.47
553.077	19598.89
553.277	19254.83
553.477	19682.86
553.676	19346.99
553.876	19502.64
554.076	19705.38
554.275	19600.94
554.475	19181.1
554.674	19473.96
554.874	19490.35
555.074	19400.24
555.273	19621.42
555.473	19344.94
555.672	19314.22
555.872	19582.51
556.071	19052.08
556.271	19506.73
556.47	19351.09
556.67	19195.44
556.869	19326.51
557.068	19578.41
557.268	18959.92
557.467	19136.05
557.667	19510.83
557.866	19203.63
558.065	19224.11
558.265	18914.87
558.464	19070.51
558.663	19201.58
558.863	19134
559.062	19193.39
559.261	19158.58
559.461	19293.74
559.66	18812.47
559.859	19189.3
560.058	19078.71
560.258	19052.08
560.457	18687.54
560.656	19097.14
560.855	18933.3
561.054	19101.23
561.253	18830.9
561.453	18748.98
561.652	18906.68
561.851	18996.79
562.05	18572.86
562.249	18794.04
562.448	18863.67
562.647	18574.91
562.846	18955.83
563.045	18714.17
563.244	18564.67
563.443	18812.47
563.642	18495.04
563.841	18642.49
564.04	18605.63
564.239	18740.79
564.438	18359.87
564.637	18802.23
564.836	18417.21
565.035	18329.15
565.234	18677.3
565.432	17989.19
565.631	18454.08
565.83	18331.2
566.029	18349.63
566.228	18341.44
566.427	18179.65
566.625	17929.8
566.824	17987.14
567.023	18296.38
567.222	17790.53
567.42	18177.6
567.619	18075.2
567.818	18028.1
568.016	18116.16
568.215	18280
568.414	17983.04
568.612	18054.72
568.811	17808.97
569.01	17905.22
569.208	17864.26
569.407	17819.21
569.605	17419.85
569.804	17878.6
570.002	17624.65
570.201	17663.56
570.4	17595.98
570.598	17577.55
570.797	17692.23
570.995	17493.58
571.193	17495.63
571.392	17620.55
571.59	17444.43
571.789	17684.04
571.987	17471.05
572.186	17170
572.384	17198.67
572.582	17223.25
572.781	17389.13
572.979	17362.51
573.177	17198.67
573.376	17075.79
573.574	17081.94
573.772	16873.04
573.971	16879.19
574.169	16713.3
574.367	16764.5
574.565	17014.35
574.763	16979.54
574.962	16868.95
575.16	16502.36
575.358	16889.43
575.556	16516.7
575.754	16916.05
575.952	16485.98
576.151	16701.01
576.349	16479.83
576.547	16522.84
576.745	16541.27
576.943	16522.84
577.141	16717.4
577.339	16203.36
577.537	16494.17
577.735	16459.35
577.933	16334.43
578.131	16236.13
578.329	16301.66
578.527	16098.91
578.725	16207.45
578.923	16340.57
579.121	15951.46
579.319	16301.66
579.516	16289.37
579.714	15959.65
579.912	15855.2
580.11	15959.65
580.308	15992.42
580.506	15703.65
580.704	15961.7
580.901	15773.28
581.099	15720.04
581.297	15681.13
581.495	15820.39
581.692	15543.91
581.89	15697.51
582.088	15707.75
582.285	15525.48
582.483	15816.29
582.681	15251.05
582.878	15199.85
583.076	15148.65
583.274	15316.59
583.471	15300.2
583.669	15359.59
583.866	15066.74
584.064	15332.97
584.262	15003.25
584.459	15160.94
584.657	15027.82
584.854	15066.74
585.052	14743.16
585.249	14845.55
585.447	14941.81
585.644	14806.64
585.841	14913.14
586.039	14845.55
586.236	14691.96
586.434	14714.48
586.631	14642.81
586.828	14675.57
587.026	14417.53
587.223	14655.09
587.42	14726.77
587.618	14685.81
587.815	14368.38
588.012	14513.78
588.21	14237.31
588.407	14454.39
588.604	14481.02
588.801	14214.78
588.999	14360.19
589.196	14085.76
589.393	14165.63
589.59	14210.68
589.787	13981.31
589.984	14161.53
590.182	13764.23
590.379	14147.2
590.576	13833.86
590.773	13932.16
590.97	13747.84
591.167	13799.04
591.364	13557.38
591.561	13944.45
591.758	13516.42
591.955	13719.17
592.152	13866.63
592.349	13713.03
592.546	13592.2
592.743	13479.56
592.94	13616.77
593.137	13219.47
593.334	13368.97
593.531	13332.11
593.727	13528.71
593.924	13246.09
594.121	13401.74
594.318	13311.63
594.515	13325.96
594.712	13137.55
594.908	13076.11
595.105	13172.36
595.302	13229.71
595.499	12947.09
595.696	12850.83
595.892	12779.15
596.089	13104.78
596.286	13055.63
596.482	13223.56
596.679	12801.68
596.876	12902.03
597.072	12795.54
597.269	12744.34
597.466	12687
597.662	12641.94
597.859	12631.7
598.055	12625.56
598.252	12553.88
598.448	12451.48
598.645	12361.37
598.841	12435.1
599.038	12603.03
599.234	12512.92
599.431	12291.74
599.627	12308.12
599.824	12226.2
600.02	12215.96
600.217	12265.11
600.413	12074.65
600.609	12261.02
600.806	12033.69
601.002	11947.68
601.198	12019.36
601.395	12062.37
601.591	12062.37
601.787	11937.44
601.984	11826.85
602.18	11609.76
602.376	11810.47
602.572	11843.23
602.769	11730.59
602.965	11736.74
603.161	11820.7
603.357	11630.24
603.553	11546.28
603.75	11564.71
603.946	11488.93
604.142	11701.92
604.338	11298.47
604.534	11468.45
604.73	11331.24
604.926	11443.88
605.122	11261.61
605.318	11308.71
605.514	11273.9
605.71	11114.16
605.906	11163.31
606.102	11015.85
606.298	11259.56
606.494	11237.03
606.69	11347.62
606.886	11108.01
607.082	10913.45
607.278	10847.92
607.474	10892.98
607.67	11173.55
607.866	11011.76
608.062	10917.55
608.257	10776.24
608.453	10725.04
608.649	10811.06
608.845	10796.72
609.041	10714.8
609.236	10788.53
609.432	10714.8
609.628	10925.74
609.824	10870.45
610.019	10577.59
610.215	10720.95
610.411	10657.46
610.606	10632.88
610.802	10499.77
610.998	10512.05
611.193	10643.12
611.389	10581.68
611.584	10561.2
611.78	10505.91
611.976	10432.18
612.171	10376.89
612.367	10348.22
612.562	10428.09
612.758	10340.02
612.953	10415.8
613.149	10409.65
613.344	10290.87
613.539	10491.57
613.735	10303.16
613.93	10399.41
614.126	10122.94
614.321	10458.81
614.517	10311.35
614.712	10167.99
614.907	10270.39
615.103	10137.27
615.298	10053.31
615.493	10301.11
615.688	10131.13
615.884	10092.22
616.079	9983.68
616.274	10032.83
616.47	10149.56
616.665	10106.56
616.86	9846.46
617.055	10118.84
617.25	9811.65
617.445	9993.92
617.641	9746.11
617.836	9787.07
618.031	9742.02
618.226	10116.79
618.421	9778.88
618.616	9787.07
618.811	9637.57
619.006	9789.12
619.201	9723.58
619.396	9598.66
619.591	9561.8
619.786	9590.47
619.981	9244.36
620.176	9565.89
620.371	9334.47
620.566	9574.08
620.761	9244.36
620.956	9397.96
621.151	9277.13
621.346	9516.74
621.541	9064.14
621.735	9340.61
621.93	9189.07
622.125	9098.95
622.32	9051.85
622.515	8883.92
622.709	8736.46
622.904	9002.7
623.099	8939.21
623.294	8838.86
623.488	8531.67
623.683	8666.83
623.878	8701.65
624.072	8718.03
624.267	8617.68
624.462	8509.14
624.656	8363.73
624.851	8541.91
625.046	8228.57
625.24	8244.95
625.435	8128.22
625.629	8171.22
625.824	8177.37
626.018	8218.33
626.213	8109.79
626.407	8156.89
626.602	8015.58
626.796	8064.73
626.991	8113.88
627.185	7980.76
627.38	7866.08
627.574	7825.12
627.768	7751.39
627.963	7765.73
628.157	7634.66
628.352	7706.34
628.546	7630.56
628.74	7753.44
628.935	7423.72
629.129	7489.25
629.323	7618.27
629.517	7458.53
629.712	7388.9
629.906	7419.62
630.1	7245.54
630.294	7329.51
630.489	7145.19
630.683	7321.32
630.877	7128.81
631.071	7112.42
631.265	6981.35
631.459	7067.37
631.653	7091.95
631.848	7046.89
632.042	6833.9
632.236	6971.11
632.43	6821.61
632.624	6991.59
632.818	6805.23
633.012	6749.93
633.206	6721.26
633.4	6522.61
633.594	6770.41
633.788	6706.93
633.982	6606.58
634.176	6618.86
634.369	6575.86
634.563	6538.99
634.757	6520.56
634.951	6328.05
635.145	6436.6
635.339	6489.84
635.533	6377.2
635.726	6278.9
635.92	6280.95
636.114	6291.19
636.308	6412.02
636.501	6192.89
636.695	6096.63
636.889	6188.79
637.083	6137.59
637.276	6037.24
637.47	5990.14
637.664	5975.8
637.857	6141.69
638.051	5959.42
638.244	5869.31
638.438	5897.98
638.632	5914.36
638.825	5691.13
639.019	5766.91
639.212	5844.73
639.406	5725.95
639.599	5744.38
639.793	5670.65
639.986	5598.98
640.18	5641.98
640.373	5529.34
640.567	5558.02
640.76	5472
640.954	5484.29
641.147	5392.13
641.34	5592.83
641.534	5304.07
641.727	5402.37
641.92	5357.32
642.114	5322.5
642.307	5222.15
642.5	5310.21
642.694	5220.1
642.887	5158.66
643.08	5183.24
643.273	5318.4
643.467	5123.85
643.66	4992.78
643.853	5039.88
644.046	5000.97
644.239	5062.41
644.432	5066.5
644.626	4980.49
644.819	5025.54
645.012	4966.15
645.205	4929.29
645.398	4886.28
645.591	4816.65
645.784	4804.36
645.977	4730.64
646.17	4794.12
646.363	4714.25
646.556	4626.19
646.749	4646.67
646.942	4876.04
647.135	4712.21
647.328	4673.29
647.521	4693.77
647.714	4622.09
647.907	4470.55
648.099	4540.18
648.292	4529.94
648.485	4417.3
648.678	4527.89
648.871	4419.35
649.064	4284.18
649.256	4419.35
649.449	4273.94
649.642	4267.8
649.835	4218.64
650.027	4429.59
650.22	4364.05
650.413	4134.68
650.605	4220.69
650.798	4202.26
650.991	4136.73
651.183	4108.05
651.376	4024.09
651.568	4050.71
651.761	4036.38
651.954	4060.95
652.146	4009.75
652.339	4128.53
652.531	4089.62
652.724	3942.17
652.916	3874.59
653.109	3999.51
653.301	3983.13
653.494	3802.91
653.686	3665.69
653.879	3850.01
654.071	3954.46
654.263	3770.14
654.456	3751.71
654.648	3792.67
654.84	3686.17
655.033	3632.93
655.225	3708.7
655.417	3573.53
655.61	3589.92
655.802	3690.27
655.994	3508
656.186	3647.26
656.379	3571.49
656.571	3567.39
656.763	3493.66
656.955	3469.09
657.148	3647.26
657.34	3368.74
657.532	3479.33
657.724	3391.27
657.916	3344.16
658.108	3462.94
658.3	3460.9
658.492	3426.08
658.684	3378.98
658.876	3448.61
659.068	3270.44
659.26	3254.05
659.452	3204.9
659.644	3292.96
659.836	3206.95
660.028	3149.61
660.22	3221.28
660.412	3129.13
660.604	3229.48
660.796	3249.96
660.988	3110.69
661.18	3145.51
661.372	3047.21
661.563	3137.32
661.755	3139.37
661.947	3100.45
662.139	2903.85
662.331	2897.71
662.522	3110.69
662.714	2934.57
662.906	3139.37
663.097	3010.34
663.289	3047.21
663.481	2912.04
663.673	2856.75
663.864	2840.36
664.056	2877.23
664.247	2789.16
664.439	2819.88
664.631	2891.56
664.822	2891.56
665.014	2899.75
665.205	2869.03
665.397	2656.04
665.588	2789.16
665.78	2789.16
665.971	2742.06
666.163	2742.06
666.354	2676.52
666.546	2725.68
666.737	2645.8
666.929	2723.63
667.12	2703.15
667.311	2584.37
667.503	2709.29
667.694	2613.04
667.885	2533.17
668.077	2596.65
668.268	2500.4
668.459	2541.36
668.651	2492.21
668.842	2486.06
669.033	2502.45
669.224	2635.57
669.416	2455.34
669.607	2516.78
669.798	2469.68
669.989	2467.63
670.18	2500.4
670.371	2367.28
670.563	2357.04
670.754	2375.47
670.945	2346.8
671.136	2359.09
671.327	2334.51
671.518	2451.25
671.709	2348.85
671.9	2320.18
672.091	2359.09
672.282	2387.76
672.473	2336.56
672.664	2297.65
672.855	2262.83
673.046	2254.64
673.237	2250.55
673.428	2209.59
673.619	2273.07
673.809	2139.96
674	2180.92
674.191	2205.49
674.382	2228.02
674.573	2207.54
674.764	2223.92
674.954	2189.11
675.145	2139.96
675.336	2115.38
675.527	2125.62
675.717	2109.24
675.908	2152.24
676.099	2219.83
676.289	2119.48
676.48	2176.82
676.671	1986.36
676.861	2043.7
677.052	2027.32
677.243	2076.47
677.433	2066.23
677.624	2037.56
677.814	2109.24
678.005	2006.84
678.195	2039.61
678.386	2111.29
678.576	1980.22
678.767	1951.54
678.957	2010.93
679.148	2000.69
679.338	2033.46
679.529	2031.41
679.719	1967.93
679.909	1978.17
680.1	1929.02
680.29	1908.54
680.481	2015.03
680.671	1984.31
680.861	1937.21
681.052	1933.11
681.242	1855.29
681.432	1902.39
681.622	1922.87
681.813	1836.86
682.003	1910.58
682.193	1933.11
682.383	1916.73
682.573	1931.06
682.764	1836.86
682.954	1834.81
683.144	1951.54
683.334	1888.06
683.524	1777.47
683.714	1861.43
683.904	1814.33
684.094	1804.09
684.284	1722.17
684.474	1797.95
684.664	1892.15
684.854	1931.06
685.044	1902.39
685.234	1695.55
685.424	1808.19
685.614	1748.79
685.804	1818.43
685.994	1781.56
686.184	1824.57
686.374	1683.26
686.564	1890.1
686.753	1705.79
686.943	1726.27
687.133	1767.23
687.323	1697.6
687.513	1668.92
687.702	1802.04
687.892	1693.5
688.082	1634.11
688.272	1685.31
688.461	1683.26
688.651	1660.73
688.841	1742.65
689.03	1654.59
689.22	1623.87
689.41	1658.68
689.599	1660.73
689.789	1593.15
689.979	1611.58
690.168	1570.62
690.358	1582.91
690.547	1568.57
690.737	1621.82
690.926	1599.29
691.116	1597.24
691.305	1677.12
691.495	1584.96
691.684	1562.43
691.874	1568.57
692.063	1574.72
692.252	1601.34
692.442	1525.57
692.631	1492.8
692.82	1630.01
693.01	1572.67
693.199	1625.92
693.388	1554.24
693.578	1693.5
693.767	1505.09
693.956	1685.31
694.146	1419.07
694.335	1527.61
694.524	1476.41
694.713	1562.43
694.902	1369.92
695.092	1505.09
695.281	1525.57
695.47	1533.76
695.659	1353.54
695.848	1474.37
696.037	1480.51
696.226	1443.65
696.415	1498.94
696.604	1492.8
696.793	1531.71
696.982	1390.4
697.171	1396.54
697.36	1423.17
697.549	1388.35
697.738	1271.62
697.927	1435.46
698.116	1365.82
698.305	1314.63
698.494	1316.67
698.683	1382.21
698.872	1376.06
699.061	1328.96
699.25	1316.67
699.438	1511.23
699.627	1345.34
699.816	1476.41
700.005	1462.08
700.193	1331.01
700.382	1333.06
700.571	1410.88
700.76	1328.96
700.948	1341.25
701.137	1343.3
701.326	1361.73
701.514	1314.63
701.703	1382.21
701.892	1367.87
702.08	1429.31
702.269	1339.2
702.457	1337.15
702.646	1232.71
702.834	1306.43
703.023	1414.98
703.212	1376.06
703.4	1304.39
703.589	1320.77
703.777	1283.91
703.965	1267.52
704.154	1308.48
704.342	1331.01
704.531	1199.94
704.719	1175.36
704.907	1189.7
705.096	1163.08
705.284	1285.95
705.472	1255.23
705.661	1199.94
705.849	1308.48
706.037	1156.93
706.226	1185.6
706.414	1222.47
706.602	1212.23
706.79	1345.34
706.979	1269.57
707.167	1240.9
707.355	1210.18
707.543	1197.89
707.731	1277.76
707.919	1173.32
708.107	1230.66
708.296	1173.32
708.484	1169.22
708.672	1263.43
708.86	1173.32
709.048	1267.52
709.236	1132.36
709.424	1146.69
709.612	1283.91
709.8	1232.71
709.988	1122.12
710.176	1175.36
710.364	1191.75
710.551	1113.92
710.739	1085.25
710.927	1113.92
711.115	1060.68
711.303	1230.66
711.491	1204.03
711.679	1179.46
711.866	1167.17
712.054	1167.17
712.242	1077.06
712.43	1115.97
712.617	1271.62
712.805	1058.63
712.993	1158.98
713.181	1038.15
713.368	1226.56
713.556	1212.23
713.744	1126.21
713.931	1052.49
714.119	1111.88
714.306	1093.44
714.494	1142.6
714.682	1046.34
714.869	1195.84
715.057	1173.32
715.244	1113.92
715.432	1046.34
715.619	1167.17
715.807	1027.91
715.994	1101.64
716.182	1171.27
716.369	1142.6
716.556	1019.72
716.744	1175.36
716.931	1036.1
717.119	1044.29
717.306	1070.92
717.493	1122.12
717.681	1097.54
717.868	1085.25
718.055	1015.62
718.242	1070.92
718.43	1054.53
718.617	999.24
718.804	1052.49
718.991	1132.36
719.179	1013.57
719.366	1109.83
719.553	1089.35
719.74	1046.34
719.927	1179.46
720.114	1038.15
720.301	948.04
720.488	1095.49
720.676	958.28
720.863	1021.77
721.05	1011.53
721.237	1050.44
721.424	1081.16
721.611	1011.53
721.798	976.71
721.985	1013.57
722.172	1038.15
722.358	1015.62
722.545	1044.29
722.732	1044.29
722.919	1085.25
723.106	1042.25
723.293	921.42
723.48	970.57
723.667	1029.96
723.853	1056.58
724.04	1009.48
724.227	941.89
724.414	1007.43
724.6	1013.57
724.787	993.09
724.974	968.52
725.161	909.13
725.347	960.33
725.534	964.42
725.72	945.99
725.907	984.9
726.094	962.37
726.28	931.66
726.467	1009.48
726.653	970.57
726.84	952.13
727.027	1003.33
727.213	1036.1
727.4	907.08
727.586	997.19
727.773	968.52
727.959	1038.15
728.145	950.09
728.332	1044.29
728.518	1017.67
728.705	1021.77
728.891	991.05
729.077	982.85
729.264	909.13
729.45	880.46
729.636	958.28
729.823	1013.57
730.009	962.37
730.195	917.32
730.382	1029.96
730.568	974.66
730.754	1029.96
730.94	931.66
731.126	950.09
731.313	1021.77
731.499	917.32
731.685	984.9
731.871	937.8
732.057	1042.25
732.243	870.22
732.429	915.27
732.615	939.85
732.801	950.09
732.987	970.57
733.173	943.94
733.359	862.02
733.545	1085.25
733.731	874.31
733.917	997.19
734.103	923.46
734.289	931.66
734.475	964.42
734.661	974.66
734.847	886.6
735.033	888.65
735.219	954.18
735.404	894.79
735.59	927.56
735.776	945.99
735.962	995.14
736.148	986.95
736.333	958.28
736.519	907.08
736.705	868.17
736.89	968.52
737.076	935.75
737.262	935.75
737.447	925.51
737.633	941.89
737.819	1019.72
738.004	943.94
738.19	882.5
738.375	972.61
738.561	933.7
738.747	921.42
738.932	888.65
739.118	917.32
739.303	923.46
739.489	978.76
739.674	943.94
739.859	991.05
740.045	931.66
740.23	917.32
740.416	837.45
740.601	900.94
740.786	874.31
740.972	921.42
741.157	929.61
741.342	948.04
741.528	839.5
741.713	806.73
741.898	837.45
742.084	851.78
742.269	913.22
742.454	894.79
742.639	896.84
742.824	808.78
743.01	948.04
743.195	866.12
743.38	892.74
743.565	954.18
743.75	874.31
743.935	896.84
744.12	945.99
744.305	978.76
744.49	816.97
744.675	894.79
744.86	837.45
745.045	868.17
745.23	847.69
745.415	821.06
745.6	847.69
745.785	855.88
745.97	726.86
746.155	864.07
746.34	843.59
746.525	831.3
746.71	808.78
746.895	784.2
747.079	747.34
747.264	864.07
747.449	827.21
747.634	769.87
747.819	804.68
748.003	855.88
748.188	855.88
748.373	847.69
748.557	712.52
748.742	708.43
748.927	821.06
749.111	794.44
749.296	802.63
749.481	733
749.665	700.23
749.85	786.25
750.034	778.06
750.219	784.2
750.404	733
750.588	718.67
750.773	626.51
750.957	683.85
751.141	765.77
751.326	687.95
751.51	794.44
751.695	624.46
751.879	710.47
752.064	741.19
752.248	714.57
752.432	753.48
752.617	720.71
752.801	685.9
752.985	730.95
753.17	718.67
753.354	665.42
753.538	716.62
753.722	692.04
753.907	565.07
754.091	681.8
754.275	667.47
754.459	569.16
754.643	636.75
754.828	636.75
755.012	544.59
755.196	634.7
755.38	569.16
755.564	675.66
755.748	634.7
755.932	569.16
756.116	520.01
756.3	622.41
756.484	618.32
756.668	626.51
756.852	560.97
757.036	567.12
757.22	667.47
757.404	548.68
757.588	579.4
757.772	665.42
757.956	571.21
758.14	552.78
758.323	536.4
758.507	599.88
758.691	501.58
758.875	601.93
759.059	522.06
759.242	542.54
759.426	546.64
759.61	520.01
759.794	503.63
759.977	536.4
760.161	538.45
760.345	522.06
760.528	509.77
760.712	489.29
760.895	517.97
761.079	509.77
761.263	530.25
761.446	438.09
761.63	431.95
761.813	505.68
761.997	511.82
762.18	520.01
762.364	540.49
762.547	513.87
762.731	470.86
762.914	454.48
763.098	434
763.281	458.57
763.464	481.1
763.648	446.29
763.831	491.34
764.015	452.43
764.198	436.05
764.381	487.25
764.564	503.63
764.748	421.71
764.931	454.48
765.114	434
765.297	403.28
765.481	411.47
765.664	479.05
765.847	513.87
766.03	538.45
766.213	464.72
766.397	456.53
766.58	413.52
766.763	493.39
766.946	413.52
767.129	456.53
767.312	393.04
767.495	388.94
767.678	415.57
767.861	481.1
768.044	376.66
768.227	413.52
768.41	495.44
768.593	413.52
768.776	368.46
768.959	456.53
769.142	403.28
769.324	515.92
769.507	431.95
769.69	421.71
769.873	405.33
770.056	421.71
770.239	460.62
770.421	397.14
770.604	384.85
770.787	343.89
770.97	434
771.152	333.65
771.335	362.32
771.518	411.47
771.7	470.86
771.883	382.8
772.066	339.79
772.248	341.84
772.431	464.72
772.613	421.71
772.796	341.84
772.978	421.71
773.161	343.89
773.343	423.76
773.526	311.12
773.708	413.52
773.891	368.46
774.073	438.09
774.256	411.47
774.438	423.76
774.621	356.18
774.803	360.27
774.985	284.5
775.168	376.66
775.35	362.32
775.532	360.27
775.715	315.22
775.897	298.83
776.079	307.02
776.261	323.41
776.444	364.37
776.626	417.61
776.808	354.13
776.99	245.59
777.173	253.78
777.355	354.13
777.537	350.03
777.719	335.7
777.901	317.26
778.083	333.65
778.265	393.04
778.447	329.55
778.629	313.17
778.811	294.74
778.993	345.94
779.175	282.45
779.357	309.07
779.539	255.83
779.721	311.12
779.903	208.72
780.085	304.98
780.267	280.4
780.449	352.08
780.631	216.91
780.812	339.79
780.994	223.06
781.176	337.74
781.358	257.87
781.54	241.49
781.721	309.07
781.903	317.26
782.085	288.59
782.267	268.11
782.448	268.11
782.63	251.73
782.812	235.35
782.993	272.21
783.175	173.91
783.357	157.52
783.538	333.65
783.72	155.47
783.901	182.1
784.083	198.48
784.264	292.69
784.446	288.59
784.627	235.35
784.809	231.25
784.99	206.67
785.172	313.17
785.353	165.71
785.535	204.63
785.716	243.54
785.897	171.86
786.079	153.43
786.26	216.91
786.441	180.05
786.623	190.29
786.804	274.26
786.985	173.91
787.167	169.81
787.348	231.25
787.529	151.38
787.71	188.24
787.891	182.1
788.073	233.3
788.254	190.29
788.435	249.68
788.616	169.81
788.797	194.39
788.978	178
789.159	153.43
789.34	157.52
789.522	233.3
789.703	163.67
789.884	159.57
790.065	153.43
790.246	139.09
790.427	178
790.607	208.72
790.788	175.95
790.969	188.24
791.15	147.28
791.331	135
791.512	137.04
791.693	137.04
791.874	141.14
792.054	163.67
792.235	163.67
792.416	112.47
792.597	175.95
792.778	79.7
792.958	106.32
793.139	149.33
793.32	132.95
793.5	153.43
793.681	186.19
793.862	175.95
794.042	165.71
794.223	132.95
794.404	91.99
794.584	165.71
794.765	132.95
794.945	69.46
795.126	145.24
795.306	155.47
795.487	91.99
795.667	204.63
795.848	143.19
796.028	79.7
796.209	71.51
796.389	139.09
796.57	141.14
796.75	79.7
796.93	165.71
797.111	98.13
797.291	118.61
797.471	132.95
797.652	167.76
797.832	59.22
798.012	178
798.192	128.85
798.373	102.23
798.553	143.19
798.733	130.9
798.913	79.7
799.093	100.18
799.274	100.18
799.454	204.63
799.634	120.66
799.814	110.42
799.994	157.52
800.174	147.28
800.354	94.04
800.534	165.71
800.714	85.84
800.894	126.8
801.074	98.13
801.254	77.65
801.434	30.55
801.614	126.8
801.794	122.71
801.974	370.51
802.154	73.56
802.334	221.01
802.514	96.08
802.693	132.95
802.873	104.28
803.053	106.32
803.233	51.03
803.413	87.89
803.592	30.55
803.772	61.27
803.952	71.51
804.131	63.32
804.311	87.89
804.491	147.28
804.67	141.14
804.85	104.28
805.03	102.23
805.209	186.19
805.389	75.6
805.568	79.7
805.748	128.85
805.928	135
806.107	114.52
806.287	65.36
806.466	24.4
806.646	161.62
806.825	-6.31
807.004	137.04
807.184	71.51
807.363	69.46
807.543	51.03
807.722	124.76
807.901	79.7
808.081	44.88
808.26	75.6
808.439	85.84
808.619	116.56
808.798	139.09
808.977	110.42
809.156	91.99
809.336	48.98
809.515	67.41
809.694	44.88
809.873	34.64
810.052	36.69
810.231	141.14
810.411	85.84
810.59	126.8
810.769	126.8
810.948	53.08
811.127	61.27
811.306	65.36
811.485	-6.31
811.664	-10.41
811.843	110.42
812.022	69.46
812.201	-10.41
812.38	53.08
812.559	38.74
812.737	87.89
812.916	79.7
813.095	67.41
813.274	57.17
813.453	67.41
813.632	-0.17
813.811	65.36
813.989	51.03
814.168	87.89
814.347	98.13
814.526	81.75
814.704	57.17
814.883	30.55
815.062	42.84
815.24	83.8
815.419	51.03
815.598	24.4
815.776	-12.46
815.955	106.32
816.133	59.22
816.312	67.41
816.49	53.08
816.669	20.31
816.847	61.27
817.026	30.55
817.204	147.28
817.383	94.04
817.561	55.12
817.74	42.84
817.918	69.46
818.097	77.65
818.275	22.36
818.453	124.76
818.632	42.84
818.81	63.32
818.988	-16.55
819.167	-2.22
819.345	116.56
819.523	44.88
819.701	30.55
819.879	89.94
820.058	108.37
820.236	-10.41
820.414	16.21
820.592	16.21
820.77	20.31
820.948	12.12
821.127	48.98
821.305	63.32
821.483	44.88
821.661	85.84
821.839	16.21
822.017	48.98
822.195	28.5
822.373	61.27
822.551	26.45
822.729	46.93
822.907	-53.42
823.085	85.84
823.262	28.5
823.44	40.79
823.618	77.65
823.796	89.94
823.974	106.32
824.152	61.27
824.329	-14.51
824.507	94.04
824.685	-32.94
824.863	24.4
825.04	77.65
825.218	81.75
825.396	53.08
825.574	30.55
825.751	34.64
825.929	89.94
826.107	42.84
826.284	108.37
826.462	79.7
826.639	32.6
826.817	46.93
826.994	53.08
827.172	22.36
827.349	-16.55
827.527	32.6
827.704	57.17
827.882	53.08
828.059	71.51
828.237	51.03
828.414	59.22
828.591	14.17
828.769	34.64
828.946	8.02
829.124	77.65
829.301	28.5
829.478	30.55
829.655	38.74
829.833	12.12
830.01	40.79
830.187	32.6
830.364	3.93
830.542	53.08
830.719	26.45
830.896	26.45
831.073	20.31
831.25	-2.22
831.427	51.03
831.604	40.79
831.782	-41.13
831.959	85.84
832.136	-43.18
832.313	22.36
832.49	65.36
832.667	30.55
832.844	51.03
833.021	-4.27
833.198	85.84
833.374	30.55
833.551	26.45
833.728	53.08
833.905	-6.31
834.082	44.88
834.259	20.31
834.436	14.17
834.612	61.27
834.789	53.08
834.966	71.51
835.143	10.07
835.319	24.4
835.496	40.79
835.673	-8.36
835.85	61.27
836.026	20.31
836.203	91.99
836.38	-55.47
836.556	55.12
836.733	24.4
836.909	61.27
837.086	32.6
837.262	14.17
837.439	18.26
837.616	26.45
837.792	12.12
837.968	94.04
838.145	-6.31
838.321	22.36
838.498	48.98
838.674	46.93
838.851	89.94
839.027	75.6
839.203	-24.75
839.38	48.98
839.556	24.4
839.732	38.74
839.909	51.03
840.085	36.69
840.261	-59.56
840.437	71.51
840.614	-14.51
840.79	22.36
840.966	-0.17
841.142	38.74
841.318	71.51
841.494	59.22
841.671	77.65
841.847	-4.27
842.023	10.07
842.199	36.69
842.375	-4.27
842.551	28.5
842.727	-88.23
842.903	100.18
843.079	-22.7
843.255	5.97
843.431	34.64
843.607	5.97
843.783	-32.94
843.959	12.12
844.134	-16.55
844.31	96.08
844.486	36.69
844.662	-8.36
844.838	24.4
845.013	44.88
845.189	14.17
845.365	77.65
845.541	-18.6
845.716	-4.27
845.892	81.75
846.068	8.02
846.244	1.88
846.419	14.17
846.595	-12.46
846.77	-8.36
846.946	-4.27
847.122	73.56
847.297	-45.23
847.473	26.45
847.648	-6.31
847.824	22.36
847.999	85.84
848.175	-16.55
848.35	65.36
848.526	51.03
848.701	46.93
848.876	81.75
849.052	20.31
849.227	85.84
849.403	75.6
849.578	34.64
849.753	-90.28
849.929	1.88
850.104	32.6
850.279	5.97
850.454	40.79
850.63	20.31
850.805	10.07
850.98	-30.89
851.155	-14.51
851.33	77.65
851.505	-30.89
851.681	16.21
851.856	-10.41
852.031	73.56
852.206	-22.7
852.381	73.56
852.556	-45.23
852.731	14.17
852.906	40.79
853.081	-20.65
853.256	-18.6
853.431	-51.37
853.606	5.97
853.781	3.93
853.956	-61.61
854.131	79.7
854.305	5.97
854.48	24.4
854.655	-53.42
854.83	-2.22
855.005	-4.27
855.18	24.4
855.354	-67.75
855.529	44.88
855.704	46.93
855.879	55.12
856.053	30.55
856.228	-28.84
856.403	-45.23
856.577	59.22
856.752	-16.55
856.926	3.93
857.101	16.21
857.276	-22.7
857.45	46.93
857.625	-65.71
857.799	26.45
857.974	85.84
858.148	5.97
858.323	18.26
858.497	55.12
858.672	3.93
858.846	-2.22
859.02	-2.22
859.195	55.12
859.369	44.88
859.543	3.93
859.718	71.51
859.892	-16.55
860.066	69.46
860.241	16.21
860.415	12.12
860.589	-71.85
860.763	5.97
860.938	10.07
861.112	12.12
861.286	24.4
861.46	-30.89
861.634	51.03
861.808	32.6
861.982	-12.46
862.157	-45.23
862.331	-8.36
862.505	-12.46
862.679	-4.27
862.853	-0.17
863.027	-4.27
863.201	12.12
863.375	-28.84
863.549	51.03
863.722	32.6
863.896	34.64
864.07	20.31
864.244	14.17
864.418	20.31
864.592	51.03
864.766	32.6
864.939	-10.41
865.113	16.21
865.287	98.13
865.461	-16.55
865.634	85.84
865.808	-26.79
865.982	1.88
866.156	46.93
866.329	30.55
866.503	-30.89
866.676	-45.23
866.85	91.99
867.024	32.6
867.197	18.26
867.371	28.5
867.544	44.88
867.718	16.21
867.891	-20.65
868.065	44.88
868.238	42.84
868.412	10.07
868.585	32.6
868.759	-37.03
868.932	-28.84
869.105	-20.65
869.279	-4.27
869.452	-10.41
869.625	32.6
869.799	-10.41
869.972	28.5
870.145	-37.03
870.319	-8.36
870.492	-16.55
870.665	-6.31
870.838	48.98
871.011	-30.89
871.185	-37.03
871.358	-22.7
871.531	-10.41
871.704	10.07
871.877	24.4
872.05	-32.94
872.223	-65.71
872.396	96.08
872.569	-57.51
872.742	-28.84
872.915	8.02
873.088	5.97
873.261	-20.65
873.434	38.74
873.607	-2.22
873.78	8.02
873.953	-59.56
874.126	87.89
874.299	57.17
874.471	-20.65
874.644	-8.36
874.817	-92.33
874.99	87.89
875.163	-43.18
875.335	22.36
875.508	38.74
875.681	-32.94
875.853	-10.41
876.026	-22.7
876.199	51.03
876.371	-12.46
876.544	61.27
876.717	44.88
876.889	20.31
877.062	-28.84
877.234	-8.36
877.407	48.98
877.579	-43.18
877.752	20.31
877.924	-18.6
878.097	-43.18
878.269	-37.03
878.442	14.17
878.614	-59.56
878.786	-2.22
878.959	18.26
879.131	8.02
879.303	-20.65
879.476	-32.94
879.648	5.97
879.82	16.21
879.993	-18.6
880.165	-28.84
880.337	-10.41
880.509	26.45
880.681	-2.22
880.854	-0.17
881.026	3.93
881.198	-0.17
881.37	-37.03
881.542	-4.27
881.714	-6.31
881.886	-26.79
882.058	-65.71
882.23	-24.75
882.402	-26.79
882.574	-43.18
882.746	-45.23
882.918	28.5
883.09	-0.17
883.262	22.36
883.434	-28.84
883.606	-57.51
883.778	18.26
883.95	-28.84
884.122	-51.37
884.293	-32.94
884.465	-12.46
884.637	-2.22
884.809	30.55
884.98	16.21
885.152	5.97
885.324	-43.18
885.496	-51.37
885.667	8.02
885.839	-20.65
886.011	-14.51
886.182	3.93
886.354	59.22
886.525	-73.9
886.697	12.12
886.869	-4.27
887.04	-16.55
887.212	-0.17
887.383	48.98
887.555	-57.51
887.726	-53.42
887.897	-22.7
888.069	3.93
888.24	-20.65
888.412	3.93
888.583	-34.99
888.754	-4.27
888.926	-53.42
889.097	-37.03
889.268	-22.7
889.44	-18.6
889.611	-14.51
889.782	8.02
889.953	-26.79
890.125	1.88
890.296	-73.9
890.467	-51.37
890.638	-30.89
890.809	34.64
890.98	10.07
891.151	10.07
891.323	-67.75
891.494	-41.13
891.665	-0.17
891.836	-8.36
892.007	-49.32
892.178	18.26
892.349	-51.37
892.52	-0.17
892.691	-28.84
892.862	-45.23
893.032	53.08
893.203	-10.41
893.374	16.21
893.545	24.4
893.716	44.88
893.887	-12.46
894.057	14.17
894.228	10.07
894.399	-12.46
894.57	-18.6
894.74	-45.23
894.911	46.93
895.082	34.64
895.253	-4.27
895.423	-16.55
895.594	-20.65
895.764	5.97
895.935	48.98
896.106	-32.94
896.276	34.64
896.447	-4.27
896.617	-34.99
896.788	28.5
896.958	-28.84
897.129	40.79
897.299	24.4
897.47	-77.99
897.64	30.55
897.81	5.97
897.981	20.31
898.151	-0.17
898.322	10.07
898.492	40.79
898.662	24.4
898.832	26.45
899.003	-24.75
899.173	24.4
899.343	-45.23
899.513	16.21
