Data from USB4F104151__21__12-53-27-767.txt Node

Date: Fri Mar 14 12:53:27 EDT 2025
User: louis
Spectrometer: USB4F10415
Trigger mode: 4
Integration Time (sec): 1.000000E-2
Scans to average: 1
Electric dark correction enabled: true
Nonlinearity correction enabled: false
Boxcar width: 0
XAxis mode: Wavelengths
Number of Pixels in Spectrum: 3648
>>>>>Begin Spectral Data<<<<<
178.204	-40.62
178.424	-40.62
178.644	-40.62
178.864	-36.52
179.084	-63.15
179.304	-9.9
179.524	22.87
179.744	-20.14
179.964	-13.99
180.184	4.44
180.404	45.4
180.624	-20.14
180.844	24.92
181.064	-75.43
181.283	0.34
181.503	45.4
181.723	-3.75
181.943	-48.81
182.163	-40.62
182.383	22.87
182.602	33.11
182.822	-34.47
183.042	47.44
183.262	-26.28
183.482	2.39
183.701	-26.28
183.921	-11.95
184.141	-38.57
184.361	-24.23
184.58	-44.71
184.8	-52.91
185.02	31.06
185.239	16.73
185.459	29.01
185.679	-9.9
185.898	10.58
186.118	-24.23
186.338	-38.57
186.557	59.73
186.777	-1.71
186.997	-65.19
187.216	86.36
187.436	29.01
187.655	-13.99
187.875	31.06
188.095	-73.39
188.314	-52.91
188.534	-36.52
188.753	43.35
188.973	-13.99
189.192	8.53
189.412	33.11
189.631	-13.99
189.851	-20.14
190.07	10.58
190.29	-67.24
190.509	33.11
190.729	51.54
190.948	20.82
191.168	-38.57
191.387	-7.85
191.607	49.49
191.826	43.35
192.045	-13.99
192.265	37.2
192.484	-9.9
192.704	14.68
192.923	-24.23
193.142	57.68
193.362	-11.95
193.581	-16.04
193.8	-34.47
194.02	61.78
194.239	-30.38
194.458	6.49
194.678	59.73
194.897	-48.81
195.116	29.01
195.335	6.49
195.555	20.82
195.774	2.39
195.993	115.03
196.212	-93.87
196.432	-44.71
196.651	-73.39
196.87	6.49
197.089	57.68
197.308	29.01
197.528	-13.99
197.747	41.3
197.966	-22.19
198.185	20.82
198.404	47.44
198.623	-30.38
198.842	24.92
199.062	-7.85
199.281	39.25
199.5	-20.14
199.719	53.59
199.938	14.68
200.157	41.3
200.376	37.2
200.595	-5.8
200.814	-13.99
201.033	-24.23
201.252	-9.9
201.471	20.82
201.69	37.2
201.909	8.53
202.128	-11.95
202.347	-24.23
202.566	2.39
202.785	26.96
203.004	-32.43
203.223	29.01
203.442	14.68
203.661	-24.23
203.879	14.68
204.098	22.87
204.317	-24.23
204.536	-26.28
204.755	2.39
204.974	-57
205.193	65.88
205.411	12.63
205.63	-22.19
205.849	6.49
206.068	-16.04
206.287	-48.81
206.505	26.96
206.724	41.3
206.943	-32.43
207.162	-20.14
207.381	-52.91
207.599	-22.19
207.818	-40.62
208.037	14.68
208.255	-36.52
208.474	-16.04
208.693	-24.23
208.911	12.63
209.13	-7.85
209.349	2.39
209.567	-3.75
209.786	18.77
210.005	37.2
210.223	16.73
210.442	-26.28
210.661	63.83
210.879	-40.62
211.098	-3.75
211.316	-34.47
211.535	22.87
211.753	0.34
211.972	-16.04
212.191	-20.14
212.409	26.96
212.628	26.96
212.846	-16.04
213.065	53.59
213.283	26.96
213.502	-48.81
213.72	-5.8
213.938	-54.95
214.157	16.73
214.375	35.16
214.594	-65.19
214.812	43.35
215.031	-54.95
215.249	8.53
215.467	-16.04
215.686	-11.95
215.904	-16.04
216.122	-18.09
216.341	49.49
216.559	-36.52
216.778	-9.9
216.996	12.63
217.214	-22.19
217.432	-36.52
217.651	-85.67
217.869	-9.9
218.087	-52.91
218.306	63.83
218.524	-3.75
218.742	14.68
218.96	96.6
219.179	33.11
219.397	41.3
219.615	-3.75
219.833	31.06
220.051	-7.85
220.27	16.73
220.488	-7.85
220.706	0.34
220.924	24.92
221.142	2.39
221.36	72.02
221.578	-22.19
221.796	-7.85
222.015	29.01
222.233	26.96
222.451	-26.28
222.669	24.92
222.887	82.26
223.105	33.11
223.323	86.36
223.541	57.68
223.759	-32.43
223.977	0.34
224.195	43.35
224.413	59.73
224.631	115.03
224.849	-44.71
225.067	12.63
225.285	12.63
225.503	31.06
225.721	-52.91
225.939	8.53
226.157	43.35
226.375	88.4
226.592	16.73
226.81	8.53
227.028	-11.95
227.246	-7.85
227.464	-40.62
227.682	35.16
227.9	39.25
228.117	24.92
228.335	8.53
228.553	12.63
228.771	14.68
228.989	20.82
229.206	51.54
229.424	-3.75
229.642	-61.1
229.86	0.34
230.077	-57
230.295	16.73
230.513	43.35
230.731	8.53
230.948	-9.9
231.166	39.25
231.384	-11.95
231.601	26.96
231.819	55.64
232.037	-30.38
232.254	-9.9
232.472	-32.43
232.689	-16.04
232.907	29.01
233.125	-13.99
233.342	-40.62
233.56	33.11
233.777	-22.19
233.995	2.39
234.213	8.53
234.43	-28.33
234.648	0.34
234.865	14.68
235.083	-3.75
235.3	-69.29
235.518	14.68
235.735	-24.23
235.953	-7.85
236.17	24.92
236.388	-9.9
236.605	80.21
236.822	-40.62
237.04	74.07
237.257	0.34
237.475	29.01
237.692	-13.99
237.909	8.53
238.127	43.35
238.344	-1.71
238.562	33.11
238.779	-3.75
238.996	-24.23
239.214	-38.57
239.431	2.39
239.648	41.3
239.865	-7.85
240.083	63.83
240.3	55.64
240.517	-100.01
240.735	-46.76
240.952	41.3
241.169	43.35
241.386	14.68
241.603	96.6
241.821	-46.76
242.038	55.64
242.255	43.35
242.472	88.4
242.689	8.53
242.907	-30.38
243.124	63.83
243.341	16.73
243.558	2.39
243.775	16.73
243.992	24.92
244.209	20.82
244.426	18.77
244.643	49.49
244.86	-108.2
245.078	-3.75
245.295	39.25
245.512	29.01
245.729	-30.38
245.946	-36.52
246.163	-13.99
246.38	-22.19
246.597	-30.38
246.814	-7.85
247.031	14.68
247.248	-3.75
247.464	33.11
247.681	-38.57
247.898	18.77
248.115	49.49
248.332	26.96
248.549	41.3
248.766	24.92
248.983	-22.19
249.2	4.44
249.417	12.63
249.633	-7.85
249.85	-65.19
250.067	-34.47
250.284	6.49
250.501	-30.38
250.717	0.34
250.934	20.82
251.151	18.77
251.368	35.16
251.585	-46.76
251.801	-7.85
252.018	-42.67
252.235	0.34
252.451	-1.71
252.668	-26.28
252.885	-5.8
253.102	-16.04
253.318	37.2
253.535	29.01
253.752	18.77
253.968	-34.47
254.185	45.4
254.401	-3.75
254.618	-48.81
254.835	12.63
255.051	115.03
255.268	-61.1
255.484	-24.23
255.701	24.92
255.917	-5.8
256.134	-7.85
256.351	16.73
256.567	18.77
256.784	-5.8
257	24.92
257.217	49.49
257.433	4.44
257.65	41.3
257.866	-38.57
258.082	-13.99
258.299	43.35
258.515	18.77
258.732	4.44
258.948	-26.28
259.165	-18.09
259.381	18.77
259.597	-26.28
259.814	74.07
260.03	-13.99
260.246	51.54
260.463	-16.04
260.679	35.16
260.895	22.87
261.112	16.73
261.328	-44.71
261.544	74.07
261.761	33.11
261.977	-7.85
262.193	4.44
262.409	37.2
262.626	4.44
262.842	90.45
263.058	33.11
263.274	69.97
263.49	-1.71
263.707	-13.99
263.923	41.3
264.139	100.69
264.355	-16.04
264.571	-16.04
264.787	29.01
265.004	33.11
265.22	45.4
265.436	-9.9
265.652	0.34
265.868	0.34
266.084	18.77
266.3	-3.75
266.516	55.64
266.732	-3.75
266.948	18.77
267.164	-30.38
267.38	-5.8
267.596	-5.8
267.812	-40.62
268.028	51.54
268.244	22.87
268.46	20.82
268.676	78.16
268.892	-46.76
269.108	2.39
269.324	-7.85
269.54	-46.76
269.756	6.49
269.972	18.77
270.188	-52.91
270.403	-73.39
270.619	2.39
270.835	0.34
271.051	8.53
271.267	41.3
271.483	-20.14
271.698	45.4
271.914	18.77
272.13	-24.23
272.346	6.49
272.562	6.49
272.777	65.88
272.993	16.73
273.209	0.34
273.425	2.39
273.64	49.49
273.856	8.53
274.072	45.4
274.287	-1.71
274.503	-18.09
274.719	8.53
274.934	-22.19
275.15	-59.05
275.366	-26.28
275.581	-9.9
275.797	35.16
276.012	4.44
276.228	-65.19
276.444	24.92
276.659	49.49
276.875	-57
277.09	0.34
277.306	35.16
277.521	-9.9
277.737	-5.8
277.952	43.35
278.168	-67.24
278.383	8.53
278.599	63.83
278.814	26.96
279.03	-26.28
279.245	-36.52
279.461	53.59
279.676	20.82
279.892	-3.75
280.107	-7.85
280.322	-3.75
280.538	51.54
280.753	-11.95
280.969	24.92
281.184	29.01
281.399	69.97
281.615	-44.71
281.83	26.96
282.045	-124.58
282.26	112.98
282.476	0.34
282.691	14.68
282.906	29.01
283.122	14.68
283.337	2.39
283.552	2.39
283.767	90.45
283.983	24.92
284.198	-42.67
284.413	65.88
284.628	12.63
284.843	24.92
285.058	20.82
285.274	-48.81
285.489	6.49
285.704	74.07
285.919	-7.85
286.134	45.4
286.349	-20.14
286.564	-42.67
286.779	12.63
286.995	65.88
287.21	-18.09
287.425	45.4
287.64	37.2
287.855	-38.57
288.07	31.06
288.285	-32.43
288.5	61.78
288.715	88.4
288.93	-30.38
289.145	57.68
289.36	-40.62
289.575	33.11
289.79	10.58
290.004	-3.75
290.219	-13.99
290.434	29.01
290.649	82.26
290.864	-30.38
291.079	82.26
291.294	6.49
291.509	0.34
291.724	55.64
291.938	-61.1
292.153	51.54
292.368	-42.67
292.583	-38.57
292.798	-11.95
293.012	-13.99
293.227	51.54
293.442	-40.62
293.657	-30.38
293.871	45.4
294.086	-11.95
294.301	-18.09
294.516	-63.15
294.73	22.87
294.945	2.39
295.16	41.3
295.374	72.02
295.589	-1.71
295.804	22.87
296.018	20.82
296.233	-3.75
296.447	29.01
296.662	65.88
296.877	55.64
297.091	-40.62
297.306	0.34
297.52	31.06
297.735	12.63
297.949	-36.52
298.164	43.35
298.378	-18.09
298.593	65.88
298.807	-46.76
299.022	65.88
299.236	-7.85
299.451	-40.62
299.665	-34.47
299.88	2.39
300.094	-16.04
300.309	18.77
300.523	35.16
300.737	-32.43
300.952	-83.63
301.166	4.44
301.381	-7.85
301.595	22.87
301.809	72.02
302.024	43.35
302.238	-22.19
302.452	55.64
302.667	10.58
302.881	-13.99
303.095	57.68
303.309	-24.23
303.524	4.44
303.738	22.87
303.952	-16.04
304.166	10.58
304.381	-9.9
304.595	-28.33
304.809	-50.86
305.023	-11.95
305.237	2.39
305.452	-7.85
305.666	-32.43
305.88	61.78
306.094	-38.57
306.308	-36.52
306.522	-48.81
306.736	72.02
306.95	49.49
307.164	24.92
307.379	-11.95
307.593	35.16
307.807	-18.09
308.021	100.69
308.235	-5.8
308.449	22.87
308.663	-38.57
308.877	55.64
309.091	16.73
309.305	59.73
309.519	-13.99
309.733	49.49
309.947	-48.81
310.161	98.64
310.374	43.35
310.588	123.22
310.802	53.59
311.016	24.92
311.23	6.49
311.444	-20.14
311.658	-1.71
311.872	-5.8
312.085	-28.33
312.299	45.4
312.513	0.34
312.727	37.2
312.941	-36.52
313.154	-24.23
313.368	-9.9
313.582	8.53
313.796	10.58
314.009	61.78
314.223	49.49
314.437	35.16
314.651	-5.8
314.864	-30.38
315.078	-9.9
315.292	-30.38
315.505	22.87
315.719	-20.14
315.933	-57
316.146	-61.1
316.36	-13.99
316.573	35.16
316.787	41.3
317.001	2.39
317.214	-7.85
317.428	35.16
317.641	-28.33
317.855	-57
318.068	37.2
318.282	-7.85
318.495	51.54
318.709	4.44
318.922	22.87
319.136	-3.75
319.349	-20.14
319.563	-22.19
319.776	88.4
319.99	-44.71
320.203	-5.8
320.417	12.63
320.63	-38.57
320.843	47.44
321.057	-42.67
321.27	-9.9
321.483	16.73
321.697	6.49
321.91	76.12
322.124	31.06
322.337	12.63
322.55	-20.14
322.763	-3.75
322.977	-30.38
323.19	-7.85
323.403	31.06
323.617	37.2
323.83	10.58
324.043	-11.95
324.256	-38.57
324.469	4.44
324.683	-32.43
324.896	-3.75
325.109	-42.67
325.322	4.44
325.535	63.83
325.748	37.2
325.962	-40.62
326.175	37.2
326.388	-24.23
326.601	39.25
326.814	-18.09
327.027	0.34
327.24	-20.14
327.453	16.73
327.666	0.34
327.879	10.58
328.092	22.87
328.305	-65.19
328.518	14.68
328.731	-11.95
328.944	-5.8
329.157	-28.33
329.37	14.68
329.583	0.34
329.796	41.3
330.009	-26.28
330.222	-7.85
330.435	2.39
330.648	59.73
330.861	26.96
331.073	69.97
331.286	-11.95
331.499	24.92
331.712	8.53
331.925	-48.81
332.138	59.73
332.35	35.16
332.563	51.54
332.776	6.49
332.989	-57
333.202	-24.23
333.414	-20.14
333.627	-3.75
333.84	-20.14
334.053	49.49
334.265	-30.38
334.478	74.07
334.691	12.63
334.903	43.35
335.116	14.68
335.329	-40.62
335.541	-30.38
335.754	2.39
335.966	43.35
336.179	0.34
336.392	67.92
336.604	-32.43
336.817	-18.09
337.029	57.68
337.242	12.63
337.454	41.3
337.667	26.96
337.88	-7.85
338.092	84.31
338.305	94.55
338.517	-77.48
338.729	-13.99
338.942	20.82
339.154	84.31
339.367	-13.99
339.579	47.44
339.792	10.58
340.004	74.07
340.217	-24.23
340.429	-50.86
340.641	-28.33
340.854	39.25
341.066	-11.95
341.278	37.2
341.491	6.49
341.703	-34.47
341.915	24.92
342.128	-20.14
342.34	22.87
342.552	0.34
342.764	29.01
342.977	47.44
343.189	-57
343.401	-30.38
343.613	-22.19
343.826	-3.75
344.038	26.96
344.25	18.77
344.462	-22.19
344.674	123.22
344.886	-36.52
345.099	-34.47
345.311	4.44
345.523	49.49
345.735	-5.8
345.947	2.39
346.159	-20.14
346.371	-1.71
346.583	-67.24
346.795	45.4
347.007	-18.09
347.219	39.25
347.431	-28.33
347.643	20.82
347.855	-11.95
348.067	29.01
348.279	-1.71
348.491	12.63
348.703	14.68
348.915	-24.23
349.127	51.54
349.339	35.16
349.551	-34.47
349.763	20.82
349.975	-11.95
350.187	88.4
350.399	90.45
350.61	26.96
350.822	0.34
351.034	45.4
351.246	22.87
351.458	12.63
351.669	74.07
351.881	76.12
352.093	-20.14
352.305	53.59
352.517	51.54
352.728	20.82
352.94	22.87
353.152	24.92
353.363	-44.71
353.575	18.77
353.787	69.97
353.999	-16.04
354.21	10.58
354.422	16.73
354.633	26.96
354.845	8.53
355.057	-1.71
355.268	-71.34
355.48	49.49
355.692	16.73
355.903	-13.99
356.115	-20.14
356.326	-26.28
356.538	57.68
356.749	-52.91
356.961	-5.8
357.172	0.34
357.384	8.53
357.595	41.3
357.807	141.65
358.018	-3.75
358.23	-11.95
358.441	12.63
358.653	-46.76
358.864	-3.75
359.075	-5.8
359.287	22.87
359.498	-13.99
359.709	-30.38
359.921	-40.62
360.132	-85.67
360.344	61.78
360.555	67.92
360.766	96.6
360.977	-3.75
361.189	-13.99
361.4	-40.62
361.611	22.87
361.823	20.82
362.034	-18.09
362.245	35.16
362.456	-59.05
362.667	49.49
362.879	45.4
363.09	-50.86
363.301	33.11
363.512	-46.76
363.723	-32.43
363.935	12.63
364.146	-24.23
364.357	29.01
364.568	10.58
364.779	-69.29
364.99	33.11
365.201	-20.14
365.412	-28.33
365.623	-5.8
365.834	16.73
366.045	-5.8
366.256	24.92
366.467	35.16
366.678	57.68
366.889	-77.48
367.1	24.92
367.311	-30.38
367.522	-54.95
367.733	92.5
367.944	-16.04
368.155	49.49
368.366	-61.1
368.577	-18.09
368.788	14.68
368.999	-30.38
369.209	106.84
369.42	117.08
369.631	41.3
369.842	-46.76
370.053	8.53
370.264	55.64
370.474	-3.75
370.685	33.11
370.896	29.01
371.107	41.3
371.317	-11.95
371.528	14.68
371.739	24.92
371.95	-28.33
372.16	88.4
372.371	-20.14
372.582	16.73
372.792	86.36
373.003	18.77
373.214	18.77
373.424	-52.91
373.635	55.64
373.846	-7.85
374.056	18.77
374.267	129.36
374.477	14.68
374.688	0.34
374.898	12.63
375.109	26.96
375.319	-13.99
375.53	-9.9
375.74	57.68
375.951	-20.14
376.161	112.98
376.372	-81.58
376.582	10.58
376.793	16.73
377.003	33.11
377.214	10.58
377.424	12.63
377.635	45.4
377.845	-38.57
378.055	0.34
378.266	2.39
378.476	57.68
378.686	-1.71
378.897	8.53
379.107	24.92
379.317	16.73
379.528	-36.52
379.738	74.07
379.948	-5.8
380.158	16.73
380.369	-22.19
380.579	0.34
380.789	14.68
380.999	43.35
381.21	20.82
381.42	22.87
381.63	14.68
381.84	4.44
382.05	33.11
382.261	33.11
382.471	33.11
382.681	51.54
382.891	0.34
383.101	55.64
383.311	-91.82
383.521	39.25
383.731	-36.52
383.941	86.36
384.151	-7.85
384.361	-5.8
384.571	61.78
384.781	29.01
384.991	14.68
385.201	6.49
385.411	-3.75
385.621	33.11
385.831	-11.95
386.041	10.58
386.251	106.84
386.461	53.59
386.671	-9.9
386.881	-11.95
387.091	94.55
387.301	-28.33
387.511	2.39
387.72	10.58
387.93	24.92
388.14	35.16
388.35	-20.14
388.56	24.92
388.769	20.82
388.979	-16.04
389.189	67.92
389.399	67.92
389.609	57.68
389.818	47.44
390.028	2.39
390.238	-34.47
390.447	-75.43
390.657	65.88
390.867	29.01
391.076	0.34
391.286	45.4
391.496	51.54
391.705	29.01
391.915	35.16
392.125	47.44
392.334	-34.47
392.544	35.16
392.753	22.87
392.963	-22.19
393.172	47.44
393.382	-7.85
393.591	-9.9
393.801	-57
394.01	45.4
394.22	18.77
394.429	-3.75
394.639	10.58
394.848	59.73
395.058	35.16
395.267	-30.38
395.477	14.68
395.686	-9.9
395.895	37.2
396.105	119.12
396.314	29.01
396.524	-20.14
396.733	16.73
396.942	67.92
397.152	-34.47
397.361	33.11
397.57	2.39
397.78	4.44
397.989	18.77
398.198	74.07
398.407	29.01
398.617	-46.76
398.826	-38.57
399.035	-1.71
399.244	45.4
399.453	-7.85
399.663	6.49
399.872	94.55
400.081	-54.95
400.29	45.4
400.499	31.06
400.708	106.84
400.917	-28.33
401.127	-5.8
401.336	-1.71
401.545	78.16
401.754	16.73
401.963	57.68
402.172	-44.71
402.381	49.49
402.59	-22.19
402.799	2.39
403.008	8.53
403.217	-3.75
403.426	-16.04
403.635	-20.14
403.844	22.87
404.053	-24.23
404.262	-93.87
404.471	10.58
404.68	33.11
404.888	35.16
405.097	-26.28
405.306	100.69
405.515	18.77
405.724	24.92
405.933	20.82
406.142	16.73
406.35	29.01
406.559	31.06
406.768	29.01
406.977	61.78
407.185	29.01
407.394	88.4
407.603	-42.67
407.812	55.64
408.02	78.16
408.229	12.63
408.438	141.65
408.646	74.07
408.855	0.34
409.064	63.83
409.272	67.92
409.481	4.44
409.69	16.73
409.898	49.49
410.107	-28.33
410.315	57.68
410.524	55.64
410.733	16.73
410.941	16.73
411.15	20.82
411.358	63.83
411.567	80.21
411.775	104.79
411.984	119.12
412.192	86.36
412.401	162.13
412.609	53.59
412.818	108.88
413.026	57.68
413.234	72.02
413.443	37.2
413.651	76.12
413.86	37.2
414.068	65.88
414.276	106.84
414.485	74.07
414.693	158.03
414.901	153.94
415.11	72.02
415.318	147.8
415.526	125.27
415.734	112.98
415.943	145.75
416.151	147.8
416.359	160.08
416.567	203.09
416.776	162.13
416.984	213.33
417.192	131.41
417.4	151.89
417.608	135.51
417.817	115.03
418.025	192.85
418.233	172.37
418.441	190.8
418.649	184.66
418.857	211.28
419.065	233.81
419.273	231.76
419.481	276.82
419.689	258.39
419.897	229.71
420.105	219.47
420.313	250.19
420.521	325.97
420.729	291.15
420.937	194.9
421.145	403.79
421.353	278.87
421.561	360.78
421.769	268.63
421.977	393.55
422.185	364.88
422.393	280.91
422.601	438.61
422.809	420.17
423.017	391.5
423.224	366.93
423.432	411.98
423.64	422.22
423.848	491.85
424.056	465.23
424.263	454.99
424.471	457.04
424.679	399.7
424.887	518.48
425.094	565.58
425.302	545.1
425.51	563.53
425.718	606.54
425.925	528.72
426.133	657.74
426.341	710.99
426.548	653.64
426.756	596.3
426.964	633.16
427.171	674.12
427.379	690.51
427.586	717.13
427.794	749.9
428.001	766.28
428.209	815.43
428.417	801.1
428.624	936.26
428.832	790.86
429.039	893.26
429.247	835.91
429.454	899.4
429.662	1022.28
429.869	1042.76
430.076	1005.89
430.284	1016.13
430.491	1034.57
430.699	1050.95
430.906	1036.61
431.114	1118.53
431.321	1032.52
431.528	1136.96
431.736	1249.6
431.943	1292.61
432.15	1261.89
432.358	1243.46
432.565	1347.9
432.772	1290.56
432.979	1337.66
433.187	1415.49
433.394	1423.68
433.601	1462.59
433.808	1505.6
434.016	1487.17
434.223	1579.33
434.43	1732.92
434.637	1632.57
434.844	1820.99
435.052	1769.79
435.259	1696.06
435.466	1741.11
435.673	1634.62
435.88	1859.9
436.087	1884.47
436.294	1982.78
436.501	1909.05
436.708	1988.92
436.915	2103.61
437.122	2091.32
437.329	2095.41
437.537	2228.53
437.743	2122.04
437.95	2218.29
438.157	2308.4
438.364	2349.36
438.571	2470.19
438.778	2435.38
438.985	2509.1
439.192	2607.41
439.399	2515.25
439.606	2566.45
439.813	2758.96
440.02	2787.63
440.227	2812.2
440.433	2812.2
440.64	2965.8
440.847	2959.66
441.054	3027.24
441.261	3148.07
441.467	3066.15
441.674	3105.06
441.881	3268.9
442.088	3201.32
442.294	3203.36
442.501	3258.66
442.708	3377.44
442.914	3518.75
443.121	3615.01
443.328	3563.81
443.534	3858.71
443.741	3746.08
443.948	3633.44
444.154	3918.11
444.361	3952.92
444.568	3928.35
444.774	3889.43
444.981	4014.36
445.187	4163.86
445.394	4243.73
445.6	4178.2
445.807	4677.9
446.013	4372.75
446.22	4528.4
446.426	4798.73
446.633	4663.57
446.839	4962.57
447.046	4688.14
447.252	5099.78
447.459	4882.7
447.665	4899.08
447.871	5306.63
448.078	5548.29
448.284	5173.51
448.491	5187.85
448.697	5636.35
448.903	5507.33
449.11	5730.56
449.316	5642.5
449.522	5660.93
449.728	5792
449.935	5857.53
450.141	5875.96
450.347	5869.82
450.553	5695.74
450.76	5869.82
450.966	6146.3
451.172	6162.68
451.378	6158.58
451.584	6047.99
451.791	6152.44
451.997	6119.67
452.203	6168.82
452.409	6224.12
452.615	6228.21
452.821	5859.58
453.027	5728.51
453.233	6332.66
453.44	6144.25
453.646	6091
453.852	6203.64
454.058	6162.68
454.264	6023.42
454.47	6199.54
454.676	5961.98
454.882	6156.54
455.088	5681.41
455.294	5914.88
455.5	5939.45
455.705	5849.34
455.911	5689.6
456.117	5605.63
456.323	5509.38
456.529	5187.85
456.735	5503.23
456.941	5263.62
457.147	5112.07
457.352	5050.63
457.558	5017.86
457.764	5036.3
457.97	4983.05
458.176	4765.96
458.381	4798.73
458.587	4638.99
458.793	4546.83
458.999	4264.21
459.204	4608.27
459.41	4538.64
459.616	4290.84
459.821	4106.52
460.027	4225.3
460.233	4143.38
460.438	4004.12
460.644	3987.74
460.85	3801.37
461.055	3952.92
461.261	3832.09
461.466	3420.45
461.672	3496.22
461.878	3567.9
462.083	3320.1
462.289	3334.43
462.494	3352.87
462.7	3115.3
462.905	3041.57
463.111	3197.22
463.316	3154.21
463.522	3043.62
463.727	3076.39
463.932	3160.36
464.138	3031.34
464.343	3201.32
464.549	3017
464.754	3238.18
464.959	3125.54
465.165	2902.31
465.37	2992.42
465.575	2781.48
465.781	3045.67
465.986	3051.81
466.191	2885.93
466.397	2885.93
466.602	2769.2
466.807	2791.72
467.012	2810.15
467.218	2844.97
467.423	2808.11
467.628	2898.22
467.833	2963.75
468.038	2816.3
468.244	2769.2
468.449	2773.29
468.654	2748.72
468.859	2711.85
469.064	2746.67
469.269	2681.13
469.474	2683.18
469.679	2631.98
469.885	2541.87
470.09	2658.6
470.295	2634.03
470.5	2644.27
470.705	2650.41
470.91	2662.7
471.115	2410.8
471.32	2556.21
471.525	2808.11
471.73	2537.77
471.935	2472.24
472.139	2328.88
472.344	2324.79
472.549	2373.94
472.754	2445.62
472.959	2253.11
473.164	2355.51
473.369	2312.5
473.574	2371.89
473.778	2384.18
473.983	2285.87
474.188	2273.59
474.393	2285.87
474.598	2138.42
474.802	2220.34
475.007	2167.09
475.212	2113.85
475.417	2111.8
475.621	2101.56
475.826	2017.59
476.031	2074.93
476.235	2109.75
476.44	1995.06
476.645	2117.94
476.849	2001.21
477.054	1947.96
477.259	1878.33
477.463	1907
477.668	1851.71
477.872	1837.37
478.077	1859.9
478.282	1853.75
478.486	1737.02
478.691	1878.33
478.895	1880.38
479.1	1741.11
479.304	1780.03
479.509	1790.27
479.713	1874.23
479.918	1814.84
480.122	1722.68
480.326	1728.83
480.531	1745.21
480.735	1741.11
480.94	1753.4
481.144	1857.85
481.348	1589.57
481.553	1671.48
481.757	1775.93
481.961	1835.32
482.166	1728.83
482.37	1679.68
482.574	1646.91
482.778	1667.39
482.983	1722.68
483.187	1710.4
483.391	1712.44
483.595	1640.76
483.8	1677.63
484.004	1638.72
484.208	1710.4
484.412	1800.51
484.616	1757.5
484.821	1747.26
485.025	1708.35
485.229	1732.92
485.433	1700.16
485.637	1648.96
485.841	1685.82
486.045	1689.92
486.249	1759.55
486.453	1726.78
486.657	1724.73
486.861	1681.72
487.065	1777.98
487.269	1728.83
487.473	1679.68
487.677	1659.2
487.881	1712.44
488.085	1646.91
488.289	1726.78
488.493	1648.96
488.697	1804.6
488.901	1798.46
489.105	1763.64
489.309	1796.41
489.512	1763.64
489.716	1761.59
489.92	1802.55
490.124	1802.55
490.328	1845.56
490.531	1757.5
490.735	1839.42
490.939	1759.55
491.143	1853.75
491.346	1755.45
491.55	1958.2
491.754	1818.94
491.958	1970.49
492.161	1863.99
492.365	2013.49
492.569	1917.24
492.772	1812.79
492.976	1874.23
493.18	1982.78
493.383	1962.3
493.587	1892.66
493.79	1997.11
493.994	1861.94
494.197	1849.66
494.401	1935.67
494.605	2081.08
494.808	1966.39
495.012	2099.51
495.215	2128.18
495.419	2087.22
495.622	2027.83
495.825	2150.71
496.029	1997.11
496.232	2048.31
496.436	2175.28
496.639	2277.68
496.843	2261.3
497.046	2263.35
497.249	2429.23
497.453	2310.45
497.656	2384.18
497.859	2355.51
498.063	2386.22
498.266	2400.56
498.469	2425.14
498.673	2447.66
498.876	2390.32
499.079	2519.34
499.282	2484.53
499.485	2556.21
499.689	2597.17
499.892	2564.4
500.095	2568.49
500.298	2853.16
500.501	2783.53
500.705	2724.14
500.908	2765.1
501.111	2715.95
501.314	2793.77
501.517	2883.88
501.72	2965.8
501.923	3010.86
502.126	3146.02
502.329	3055.91
502.532	3105.06
502.735	3043.62
502.938	3094.82
503.141	3354.91
503.344	3303.71
503.547	3186.98
503.75	3295.52
503.953	3365.15
504.156	3348.77
504.359	3385.63
504.562	3469.6
504.765	3434.78
504.968	3549.47
505.17	3588.38
505.373	3551.52
505.576	3596.57
505.779	3705.12
505.982	3924.25
506.185	3916.06
506.387	3983.64
506.59	4014.36
506.793	4157.72
506.996	3993.88
507.198	4032.79
507.401	4151.57
507.604	4147.48
507.807	4260.12
508.009	4290.84
508.212	4352.27
508.415	4335.89
508.617	4509.97
508.82	4620.56
509.022	4481.3
509.225	4679.95
509.428	4659.47
509.63	4630.8
509.833	4778.25
510.035	4866.32
510.238	4782.35
510.44	4954.38
510.643	5071.11
510.845	4921.61
511.048	5169.41
511.25	5112.07
511.453	5085.45
511.655	5384.45
511.858	5220.61
512.06	5265.67
512.262	5353.73
512.465	5447.94
512.667	5589.25
512.87	5624.06
513.072	5652.74
513.274	5779.71
513.477	5757.18
513.679	5751.04
513.881	6045.95
514.084	5902.59
514.286	6013.18
514.488	6017.27
514.69	6279.41
514.893	6244.6
515.095	6222.07
515.297	6338.8
515.499	6408.44
515.701	6504.69
515.904	6672.62
516.106	6570.23
516.308	6615.28
516.51	6801.65
516.712	6820.08
516.914	6871.28
517.116	6856.94
517.318	7143.66
517.52	7033.07
517.722	7133.42
517.925	7125.22
518.127	7241.96
518.329	7428.32
518.531	7432.42
518.733	7602.4
518.935	7643.36
519.136	7508.19
519.338	7782.62
519.54	7610.59
519.742	7790.81
519.944	7872.73
520.146	8020.19
520.348	8032.47
520.55	8138.97
520.752	8229.08
520.954	8276.18
521.155	8194.26
521.357	8472.79
521.559	8483.03
521.761	8421.59
521.963	8759.5
522.164	8485.08
522.366	8661.2
522.568	8798.42
522.77	8620.24
522.971	8943.82
523.173	8769.74
523.375	9099.47
523.576	8947.92
523.778	9085.13
523.98	9066.7
524.181	9113.8
524.383	9152.71
524.584	9472.2
524.786	9275.59
524.988	9259.21
525.189	9410.76
525.391	9486.53
525.592	9586.88
525.794	9560.26
525.995	9838.78
526.197	9629.89
526.398	9713.86
526.6	9584.84
526.801	9918.65
527.003	9961.66
527.204	9920.7
527.406	9869.5
527.607	9951.42
527.808	10117.31
528.01	9844.93
528.211	10117.31
528.412	10150.07
528.614	10139.83
528.815	10227.9
529.016	10096.83
529.218	10207.42
529.419	10313.91
529.62	10094.78
529.822	10363.06
530.023	10420.41
530.224	10285.24
530.425	10223.8
530.626	10303.67
530.828	10375.35
531.029	10557.62
531.23	10350.78
531.431	10569.91
531.632	10487.99
531.833	10533.04
532.035	10373.3
532.236	10350.78
532.437	10545.33
532.638	10483.89
532.839	10524.85
533.04	10809.52
533.241	10588.34
533.442	10668.21
533.643	10580.15
533.844	10762.42
534.045	10717.36
534.246	10592.44
534.447	10561.72
534.648	10625.2
534.849	10655.92
535.05	10508.47
535.251	10793.14
535.451	10588.34
535.652	10799.28
535.853	10864.82
536.054	10723.51
536.255	10582.2
536.456	10700.98
536.657	10680.5
536.857	10789.04
537.058	10639.54
537.259	10629.3
537.46	10852.53
537.66	10774.7
537.861	10758.32
538.062	10617.01
538.263	10705.07
538.463	10846.38
538.664	10686.64
538.865	10715.31
539.065	10655.92
539.266	10760.37
539.466	11059.37
539.667	10584.24
539.868	10926.25
540.068	10905.77
540.269	10879.15
540.469	10956.97
540.67	10612.92
540.87	10748.08
541.071	10940.59
541.271	10848.43
541.472	10780.85
541.672	10899.63
541.873	10733.75
542.073	10725.55
542.274	10954.93
542.474	10688.69
542.675	10877.1
542.875	10750.13
543.075	10860.72
543.276	10760.37
543.476	10733.75
543.676	10670.26
543.877	10680.5
544.077	10905.77
544.277	10909.87
544.478	10789.04
544.678	10975.41
544.878	10764.47
545.078	10764.47
545.279	10903.73
545.479	10670.26
545.679	10743.99
545.879	10864.82
546.079	10944.69
546.28	10637.49
546.48	10813.62
546.68	10684.59
546.88	10758.32
547.08	10846.38
547.28	10725.55
547.48	10746.03
547.68	10789.04
547.88	10598.58
548.081	10969.26
548.281	10748.08
548.481	10809.52
548.681	11008.17
548.881	10711.22
549.081	10752.18
549.28	10848.43
549.48	10913.97
549.68	10631.35
549.88	11081.9
550.08	10895.54
550.28	10598.58
550.48	10725.55
550.68	10946.73
550.88	10713.27
551.08	10838.19
551.279	10954.93
551.479	10741.94
551.679	10789.04
551.879	10772.66
552.079	10911.92
552.278	10578.1
552.478	10907.82
552.678	10627.25
552.878	10653.87
553.077	10447.03
553.277	10717.36
553.477	10825.9
553.676	10610.87
553.876	10881.2
554.076	10705.07
554.275	10543.28
554.475	10752.18
554.674	10502.33
554.874	10870.96
555.074	10514.61
555.273	10643.63
555.473	10961.07
555.672	10440.89
555.872	10471.61
556.071	10660.02
556.271	10666.16
556.47	10576.05
556.67	10487.99
556.869	10752.18
557.068	10537.14
557.268	10453.17
557.467	10473.65
557.667	10496.18
557.866	10481.85
558.065	10467.51
558.265	10420.41
558.464	10393.78
558.663	10596.53
558.863	10248.38
559.062	10623.16
559.261	10217.66
559.461	10625.2
559.66	10471.61
559.859	10381.49
560.058	10266.81
560.258	10262.71
560.457	10260.66
560.656	10320.06
560.855	10330.3
561.054	10375.35
561.253	10244.28
561.453	10281.14
561.652	10401.97
561.851	10666.16
562.05	10367.16
562.249	10283.19
562.448	10377.4
562.647	10324.15
562.846	10326.2
563.045	10154.17
563.244	10219.71
563.443	10322.1
563.642	10320.06
563.841	10225.85
564.04	10049.72
564.239	10277.05
564.438	10035.39
564.637	10217.66
564.836	10203.32
565.035	9922.75
565.234	10334.39
565.432	10217.66
565.631	10225.85
565.83	10262.71
566.029	9896.13
566.228	9969.85
566.427	9922.75
566.625	9836.74
566.824	9951.42
567.023	10006.72
567.222	9808.06
567.42	10016.96
567.619	9820.35
567.818	9980.09
568.016	9797.82
568.215	9980.09
568.414	9734.34
568.612	9969.85
568.811	9797.82
569.01	9887.93
569.208	9586.88
569.407	9740.48
569.605	9646.27
569.804	9705.67
570.002	9652.42
570.201	9492.68
570.4	9539.78
570.598	9564.36
570.797	9371.85
570.995	9373.89
571.193	9437.38
571.392	9607.36
571.59	9390.28
571.789	9537.73
571.987	9550.02
572.186	9433.29
572.384	9470.15
572.582	9484.48
572.781	9423.05
572.979	9291.98
573.177	9390.28
573.376	9482.44
573.574	9314.5
573.772	9461.96
573.971	9218.25
574.169	9187.53
574.367	9038.03
574.565	9222.34
574.763	9062.6
574.962	9181.39
575.16	9103.56
575.358	9277.64
575.556	9009.36
575.754	9060.56
575.952	8829.13
576.151	9007.31
576.349	8779.98
576.547	8995.02
576.745	8945.87
576.943	8921.29
577.141	8818.89
577.339	8906.96
577.537	8739.02
577.735	8765.65
577.933	8796.37
578.131	8917.2
578.329	8847.57
578.527	8882.38
578.725	8659.15
578.923	8962.25
579.121	8710.35
579.319	8636.63
579.516	8696.02
579.714	8655.06
579.912	8671.44
580.11	8552.66
580.308	8499.41
580.506	8470.74
580.704	8470.74
580.901	8364.25
581.099	8597.71
581.297	8466.64
581.495	8542.42
581.692	8405.21
581.89	8210.65
582.088	8382.68
582.285	8108.25
582.483	8456.4
582.681	8308.95
582.878	8233.18
583.076	8255.7
583.274	8403.16
583.471	8186.07
583.669	8141.02
583.866	8102.11
584.064	7948.51
584.262	8141.02
584.459	8014.04
584.657	8243.42
584.854	8145.11
585.052	7891.16
585.249	8102.11
585.447	8044.76
585.644	7981.28
585.841	7991.52
586.039	8071.39
586.236	7880.93
586.434	7903.45
586.631	7684.32
586.828	7756
587.026	7864.54
587.223	7876.83
587.42	8001.76
587.618	7876.83
587.815	7774.43
588.012	7637.22
588.21	7684.32
588.407	7719.14
588.604	7606.5
588.801	7792.86
588.999	7618.79
589.196	7588.07
589.393	7649.5
589.59	7514.34
589.787	7782.62
589.984	7436.52
590.182	7620.83
590.379	7559.39
590.576	7344.36
590.773	7201
590.97	7446.76
591.167	7334.12
591.364	7293.16
591.561	7444.71
591.758	7246.05
591.955	7444.71
592.152	7278.82
592.349	7268.58
592.546	7375.08
592.743	7373.03
592.94	7174.38
593.137	7248.1
593.334	7395.56
593.531	7139.56
593.727	7194.86
593.924	7172.33
594.121	7252.2
594.318	7151.85
594.515	7311.59
594.712	6996.2
594.908	7047.4
595.105	7108.84
595.302	7061.74
595.499	7168.23
595.696	7014.63
595.892	6867.18
596.089	6990.06
596.286	6932.72
596.482	6721.77
596.679	6758.64
596.876	6873.32
597.072	6897.9
597.269	6795.5
597.466	6742.25
597.662	6631.66
597.859	6625.52
598.055	6660.34
598.252	6670.58
598.448	6783.21
598.645	6691.06
598.841	6691.06
599.038	6584.56
599.234	6727.92
599.431	6559.99
599.627	6676.72
599.824	6703.34
600.02	6562.03
600.217	6635.76
600.413	6564.08
600.609	6435.06
600.806	6535.41
601.002	6611.18
601.198	6455.54
601.395	6291.7
601.591	6353.14
601.787	6279.41
601.984	6330.61
602.18	6457.59
602.376	6134.01
602.572	6125.82
602.769	6488.31
602.965	6193.4
603.161	6222.07
603.357	6115.58
603.553	6082.81
603.75	5961.98
603.946	6107.38
604.142	6066.42
604.338	6154.49
604.534	6134.01
604.73	6082.81
604.926	6148.34
605.122	6129.91
605.318	5943.55
605.514	6070.52
605.71	6047.99
605.906	6027.51
606.102	6043.9
606.298	5959.93
606.494	5955.83
606.69	5890.3
606.886	6045.95
607.082	5890.3
607.278	5892.35
607.474	5732.61
607.67	5978.36
607.866	5730.56
608.062	5748.99
608.257	5658.88
608.453	5724.41
608.649	5820.67
608.845	5671.17
609.041	5734.65
609.236	5816.57
609.432	5613.82
609.628	5681.41
609.824	5650.69
610.019	5497.09
610.215	5849.34
610.411	5611.78
610.606	5726.46
610.802	5617.92
610.998	5589.25
611.193	5617.92
611.389	5347.59
611.584	5460.23
611.78	5478.66
611.976	5474.56
612.171	5486.85
612.367	5542.14
612.562	5400.83
612.758	5345.54
612.953	5417.22
613.149	5560.58
613.344	5368.07
613.539	5566.72
613.735	5411.07
613.93	5425.41
614.126	5402.88
614.321	5568.77
614.517	5417.22
614.712	5230.85
614.907	5468.42
615.103	5400.83
615.298	5472.51
615.493	5433.6
615.688	5230.85
615.884	5282.05
616.079	5155.08
616.274	5171.46
616.47	5110.02
616.665	5226.76
616.86	5150.98
617.055	5136.65
617.25	5187.85
617.445	5011.72
617.641	5046.54
617.836	5198.09
618.031	5067.02
618.226	5085.45
618.421	5067.02
618.616	5107.98
618.811	4942.09
619.006	5062.92
619.201	5091.59
619.396	4917.51
619.591	4946.19
619.786	4858.12
619.981	4909.32
620.176	4860.17
620.371	4757.77
620.566	4931.85
620.761	4890.89
620.956	4782.35
621.151	4675.85
621.346	4843.79
621.541	4749.58
621.735	4751.63
621.93	4591.89
622.125	4663.57
622.32	4604.18
622.515	4690.19
622.709	4751.63
622.904	4706.57
623.099	4579.6
623.294	4516.11
623.488	4647.18
623.683	4460.82
623.878	4514.06
624.072	4469.01
624.267	4344.08
624.462	4559.12
624.656	4278.55
624.851	4333.84
625.046	4290.84
625.24	4333.84
625.435	4192.53
625.629	4174.1
625.824	4163.86
626.018	4170.01
626.213	4131.09
626.407	4202.77
626.602	4083.99
626.796	4180.25
626.991	4069.66
627.185	3975.45
627.38	4102.42
627.574	3965.21
627.768	3918.11
627.963	3981.59
628.157	3989.78
628.352	3883.29
628.546	3948.83
628.74	3965.21
628.935	3772.7
629.129	3842.33
629.323	3897.63
629.517	3817.76
629.712	3875.1
629.906	3934.49
630.1	3715.36
630.294	3711.26
630.489	3676.45
630.683	3662.11
630.877	3639.58
631.071	3776.8
631.265	3670.3
631.459	3635.49
631.653	3682.59
631.848	3637.53
632.042	3725.6
632.236	3602.72
632.43	3397.92
632.624	3612.96
632.818	3572
633.012	3469.6
633.206	3447.07
633.4	3508.51
633.594	3465.5
633.788	3369.25
633.982	3414.31
634.176	3430.69
634.369	3447.07
634.563	3404.07
634.757	3428.64
634.951	3383.59
635.145	3256.61
635.339	3277.09
635.533	3287.33
635.726	3125.54
635.92	3184.93
636.114	3375.39
636.308	3219.75
636.501	3080.49
636.695	3178.79
636.889	3139.88
637.083	3092.77
637.276	3051.81
637.47	3074.34
637.664	3135.78
637.857	3066.15
638.051	3166.5
638.244	2959.66
638.438	2933.03
638.632	2973.99
638.825	2982.18
639.019	3060.01
639.212	2836.78
639.406	2908.46
639.599	2992.42
639.793	2973.99
639.986	2828.59
640.18	2937.13
640.373	2890.03
640.567	2885.93
640.76	2814.25
640.954	2879.79
641.147	2812.2
641.34	2744.62
641.534	2761
641.727	2787.63
641.92	2763.05
642.114	2715.95
642.307	2767.15
642.5	2797.87
642.694	2634.03
642.887	2750.76
643.08	2730.28
643.273	2623.79
643.467	2603.31
643.66	2646.32
643.853	2652.46
644.046	2586.93
644.239	2527.53
644.432	2474.29
644.626	2455.86
644.819	2611.5
645.012	2486.58
645.205	2537.77
645.398	2427.18
645.591	2584.88
645.784	2349.36
645.977	2418.99
646.17	2453.81
646.363	2371.89
646.556	2488.62
646.749	2375.99
646.942	2445.62
647.135	2392.37
647.328	2425.14
647.521	2337.07
647.714	2193.72
647.907	2228.53
648.099	2279.73
648.292	2351.41
648.485	2134.32
648.678	2210.1
648.871	2298.16
649.064	2195.76
649.256	2222.39
649.449	2105.65
649.642	2140.47
649.835	2181.43
650.027	2197.81
650.22	2066.74
650.413	2113.85
650.605	2122.04
650.798	2197.81
650.991	2117.94
651.183	2214.2
651.376	2064.69
651.568	2079.03
651.761	2062.65
651.954	2042.17
652.146	2052.41
652.339	1976.63
652.531	2083.13
652.724	1956.15
652.916	1972.54
653.109	2076.98
653.301	2027.83
653.494	2013.49
653.686	1909.05
653.879	1882.42
654.071	1767.74
654.263	1863.99
654.456	1939.77
654.648	1880.38
654.84	1904.95
655.033	1829.18
655.225	1931.58
655.417	1806.65
655.61	1855.8
655.802	1937.72
655.994	1745.21
656.186	1933.62
656.379	1755.45
656.571	1827.13
656.763	1759.55
656.955	1790.27
657.148	1767.74
657.34	1743.16
657.532	1716.54
657.724	1679.68
657.916	1665.34
658.108	1665.34
658.3	1734.97
658.492	1597.76
658.684	1716.54
658.876	1560.89
659.068	1644.86
659.26	1546.56
659.452	1618.24
659.644	1622.33
659.836	1657.15
660.028	1579.33
660.22	1673.53
660.412	1554.75
660.604	1581.37
660.796	1581.37
660.988	1581.37
661.18	1440.06
661.372	1487.17
661.563	1466.69
661.755	1411.39
661.947	1474.88
662.139	1456.45
662.331	1382.72
662.522	1456.45
662.714	1380.67
662.906	1431.87
663.097	1395.01
663.289	1374.53
663.481	1456.45
663.673	1409.34
663.864	1323.33
664.056	1378.62
664.247	1327.43
664.439	1362.24
664.631	1278.27
664.822	1384.77
665.014	1360.19
665.205	1368.38
665.397	1343.81
665.588	1352
665.78	1317.19
665.971	1274.18
666.163	1306.95
666.354	1395.01
666.546	1360.19
666.737	1325.38
666.929	1313.09
667.12	1280.32
667.311	1220.93
667.503	1212.74
667.694	1206.59
667.885	1169.73
668.077	1216.83
668.268	1190.21
668.459	1222.98
668.651	1263.94
668.842	1182.02
669.033	1177.92
669.224	1210.69
669.416	1200.45
669.607	1118.53
669.798	1124.68
669.989	1153.35
670.18	1159.49
670.371	1044.81
670.563	1110.34
670.754	1179.97
670.945	1069.38
671.136	1096
671.327	1093.96
671.518	1161.54
671.709	1149.25
671.9	1114.44
672.091	1116.48
672.282	1073.48
672.473	1044.81
672.664	1204.55
672.855	1063.24
673.046	1018.18
673.237	1063.24
673.428	948.55
673.619	1098.05
673.809	973.13
674	1112.39
674.191	1077.57
674.382	1040.71
674.573	1022.28
674.764	1104.2
674.954	1093.96
675.145	919.88
675.336	913.74
675.527	1046.85
675.717	1034.57
675.908	1036.61
676.099	1057.09
676.289	1044.81
676.48	997.7
676.671	1020.23
676.861	1009.99
677.052	942.41
677.243	969.03
677.433	913.74
677.624	991.56
677.814	991.56
678.005	997.7
678.195	1083.72
678.386	932.17
678.576	897.35
678.767	936.26
678.957	954.69
679.148	1007.94
679.338	952.65
679.529	932.17
679.719	966.98
679.909	985.41
680.1	956.74
680.29	969.03
680.481	1001.8
680.671	960.84
680.861	964.93
681.052	995.65
681.242	987.46
681.432	956.74
681.622	973.13
681.813	1065.29
682.003	909.64
682.193	907.59
682.383	934.22
682.573	950.6
682.764	889.16
682.954	983.37
683.144	909.64
683.334	909.64
683.524	926.02
683.714	915.78
683.904	840.01
684.094	903.5
684.284	919.88
684.474	993.61
684.664	835.91
684.854	950.6
685.044	932.17
685.234	940.36
685.424	919.88
685.614	940.36
685.804	983.37
685.994	969.03
686.184	932.17
686.374	874.82
686.564	958.79
686.753	903.5
686.943	911.69
687.133	876.87
687.323	827.72
687.513	887.11
687.702	848.2
687.892	1040.71
688.082	840.01
688.272	934.22
688.461	889.16
688.651	950.6
688.841	825.67
689.03	926.02
689.22	852.3
689.41	936.26
689.599	880.97
689.789	930.12
689.979	905.54
690.168	846.15
690.358	919.88
690.547	913.74
690.737	885.06
690.926	948.55
691.116	862.54
691.305	842.06
691.495	913.74
691.684	885.06
691.874	835.91
692.063	803.15
692.252	905.54
692.442	948.55
692.631	792.91
692.82	807.24
693.01	840.01
693.199	901.45
693.388	846.15
693.578	885.06
693.767	753.99
693.956	825.67
694.146	915.78
694.335	876.87
694.524	948.55
694.713	840.01
694.902	846.15
695.092	840.01
695.281	829.77
695.47	797
695.659	860.49
695.848	799.05
696.037	772.43
696.226	827.72
696.415	770.38
696.604	880.97
696.793	727.37
696.982	819.53
697.171	870.73
697.36	811.34
697.549	829.77
697.738	739.66
697.927	809.29
698.116	815.43
698.305	831.82
698.494	774.47
698.683	762.19
698.872	780.62
699.061	725.32
699.25	731.47
699.438	768.33
699.627	731.47
699.816	827.72
700.005	764.23
700.193	776.52
700.382	809.29
700.571	827.72
700.76	799.05
700.948	745.8
701.137	704.84
701.326	723.27
701.514	751.95
701.703	803.15
701.892	743.75
702.08	794.95
702.269	717.13
702.457	768.33
702.646	764.23
702.834	764.23
703.023	850.25
703.212	727.37
703.4	731.47
703.589	733.51
703.777	788.81
703.965	749.9
704.154	780.62
704.342	651.6
704.531	743.75
704.719	762.19
704.907	760.14
705.096	723.27
705.284	725.32
705.472	762.19
705.661	719.18
705.849	807.24
706.037	745.8
706.226	799.05
706.414	749.9
706.602	764.23
706.79	676.17
706.979	764.23
707.167	745.8
707.355	741.71
707.543	667.98
707.731	729.42
707.919	758.09
708.107	655.69
708.296	686.41
708.484	782.67
708.672	639.31
708.86	737.61
709.048	713.03
709.236	698.7
709.424	696.65
709.612	688.46
709.8	657.74
709.988	686.41
710.176	604.49
710.364	661.84
710.551	659.79
710.739	670.03
710.927	645.45
711.115	672.08
711.303	667.98
711.491	661.84
711.679	641.36
711.866	672.08
712.054	680.27
712.242	672.08
712.43	715.08
712.617	670.03
712.805	631.12
712.993	647.5
713.181	639.31
713.368	604.49
713.556	661.84
713.744	682.31
713.931	686.41
714.119	647.5
714.306	551.24
714.494	575.82
714.682	663.88
714.869	643.4
715.057	649.55
715.244	680.27
715.432	579.92
715.619	581.96
715.807	637.26
715.994	610.64
716.182	604.49
716.369	608.59
716.556	620.88
716.744	606.54
716.931	581.96
717.119	651.6
717.306	700.75
717.493	674.12
717.681	600.4
717.868	594.25
718.055	655.69
718.242	610.64
718.43	598.35
718.617	571.72
718.804	624.97
718.991	661.84
719.179	522.57
719.366	639.31
719.553	622.92
719.74	620.88
719.927	590.16
720.114	661.84
720.301	600.4
720.488	614.73
720.676	637.26
720.863	600.4
721.05	608.59
721.237	667.98
721.424	561.48
721.611	590.16
721.798	590.16
721.985	663.88
722.172	606.54
722.358	563.53
722.545	579.92
722.732	594.25
722.919	631.12
723.106	549.2
723.293	602.44
723.48	618.83
723.667	563.53
723.853	565.58
724.04	606.54
724.227	592.2
724.414	600.4
724.6	532.81
724.787	536.91
724.974	586.06
725.161	577.87
725.347	618.83
725.534	594.25
725.72	588.11
725.907	541.01
726.094	473.42
726.28	629.07
726.467	567.63
726.653	571.72
726.84	618.83
727.027	624.97
727.213	600.4
727.4	612.68
727.586	573.77
727.773	545.1
727.959	581.96
728.145	624.97
728.332	551.24
728.518	516.43
728.705	518.48
728.891	639.31
729.077	518.48
729.264	549.2
729.45	551.24
729.636	495.95
729.823	633.16
730.009	563.53
730.195	627.02
730.382	579.92
730.568	586.06
730.754	573.77
730.94	518.48
731.126	577.87
731.313	573.77
731.499	567.63
731.685	547.15
731.871	575.82
732.057	565.58
732.243	600.4
732.429	655.69
732.615	545.1
732.801	524.62
732.987	569.68
733.173	557.39
733.359	545.1
733.545	588.11
733.731	545.1
733.917	549.2
734.103	643.4
734.289	592.2
734.475	536.91
734.661	616.78
734.847	610.64
735.033	549.2
735.219	547.15
735.404	444.75
735.59	504.14
735.776	528.72
735.962	500.05
736.148	600.4
736.333	551.24
736.519	561.48
736.705	543.05
736.89	493.9
737.076	557.39
737.262	541.01
737.447	452.94
737.633	510.29
737.819	467.28
738.004	606.54
738.19	526.67
738.375	481.61
738.561	586.06
738.747	473.42
738.932	538.96
739.118	526.67
739.303	536.91
739.489	579.92
739.674	473.42
739.859	559.44
740.045	530.77
740.23	586.06
740.416	563.53
740.601	477.52
740.786	594.25
740.972	516.43
741.157	524.62
741.342	491.85
741.528	506.19
741.713	541.01
741.898	543.05
742.084	581.96
742.269	549.2
742.454	528.72
742.639	500.05
742.824	489.81
743.01	547.15
743.195	536.91
743.38	481.61
743.565	573.77
743.75	461.13
743.935	508.24
744.12	498
744.305	471.37
744.49	485.71
744.675	518.48
744.86	573.77
745.045	553.29
745.23	463.18
745.415	477.52
745.6	459.09
745.785	504.14
745.97	442.7
746.155	532.81
746.34	514.38
746.525	526.67
746.71	567.63
746.895	479.57
747.079	483.66
747.264	465.23
747.449	434.51
747.634	536.91
747.819	434.51
748.003	414.03
748.188	483.66
748.373	502.09
748.557	385.36
748.742	424.27
748.927	401.74
749.111	418.13
749.296	479.57
749.481	391.5
749.665	389.46
749.85	375.12
750.034	475.47
750.219	553.29
750.404	444.75
750.588	491.85
750.773	399.7
750.957	352.59
751.141	498
751.326	450.89
751.51	385.36
751.695	403.79
751.879	436.56
752.064	452.94
752.248	336.21
752.432	405.84
752.617	391.5
752.801	440.65
752.985	387.41
753.17	385.36
753.354	373.07
753.538	389.46
753.722	352.59
753.907	500.05
754.091	393.55
754.275	393.55
754.459	336.21
754.643	422.22
754.828	387.41
755.012	459.09
755.196	397.65
755.38	346.45
755.564	330.06
755.748	352.59
755.932	354.64
756.116	289.1
756.3	405.84
756.484	407.89
756.668	325.97
756.852	328.02
757.036	336.21
757.22	258.39
757.404	309.58
757.588	311.63
757.772	254.29
757.956	377.17
758.14	280.91
758.323	313.68
758.507	260.43
758.691	266.58
758.875	315.73
759.059	379.22
759.242	235.86
759.426	348.5
759.61	387.41
759.794	328.02
759.977	264.53
760.161	338.26
760.345	237.91
760.528	291.15
760.712	350.54
760.895	303.44
761.079	270.67
761.263	313.68
761.446	411.98
761.63	295.25
761.813	356.69
761.997	334.16
762.18	352.59
762.364	313.68
762.547	280.91
762.731	244.05
762.914	244.05
763.098	338.26
763.281	336.21
763.464	291.15
763.648	235.86
763.831	215.38
764.015	242
764.198	248.15
764.381	346.45
764.564	231.76
764.748	237.91
764.931	276.82
765.114	274.77
765.297	287.06
765.481	233.81
765.664	252.24
765.847	256.34
766.03	270.67
766.213	282.96
766.397	340.3
766.58	217.43
766.763	287.06
766.946	274.77
767.129	301.39
767.312	250.19
767.495	264.53
767.678	237.91
767.861	328.02
768.044	203.09
768.227	295.25
768.41	248.15
768.593	344.4
768.776	196.95
768.959	207.19
769.142	301.39
769.324	325.97
769.507	248.15
769.69	225.62
769.873	207.19
770.056	213.33
770.239	166.23
770.421	254.29
770.604	201.04
770.787	223.57
770.97	237.91
771.152	301.39
771.335	262.48
771.518	274.77
771.7	184.66
771.883	299.34
772.066	158.03
772.248	217.43
772.431	274.77
772.613	225.62
772.796	209.23
772.978	229.71
773.161	262.48
773.343	160.08
773.526	223.57
773.708	244.05
773.891	190.8
774.073	213.33
774.256	172.37
774.438	209.23
774.621	166.23
774.803	141.65
774.985	237.91
775.168	227.67
775.35	182.61
775.532	223.57
775.715	184.66
775.897	176.47
776.079	106.84
776.261	127.32
776.444	147.8
776.626	102.74
776.808	219.47
776.99	147.8
777.173	196.95
777.355	170.32
777.537	194.9
777.719	205.14
777.901	112.98
778.083	225.62
778.265	209.23
778.447	145.75
778.629	172.37
778.811	221.52
778.993	186.71
779.175	164.18
779.357	196.95
779.539	188.75
779.721	176.47
779.903	176.47
780.085	246.1
780.267	211.28
780.449	121.17
780.631	227.67
780.812	139.6
780.994	55.64
781.176	145.75
781.358	164.18
781.54	188.75
781.721	192.85
781.903	213.33
782.085	106.84
782.267	160.08
782.448	160.08
782.63	145.75
782.812	88.4
782.993	174.42
783.175	145.75
783.357	108.88
783.538	106.84
783.72	49.49
783.901	125.27
784.083	147.8
784.264	180.56
784.446	110.93
784.627	127.32
784.809	196.95
784.99	133.46
785.172	203.09
785.353	135.51
785.535	158.03
785.716	125.27
785.897	180.56
786.079	127.32
786.26	106.84
786.441	131.41
786.623	78.16
786.804	108.88
786.985	184.66
787.167	92.5
787.348	106.84
787.529	55.64
787.71	98.64
787.891	198.99
788.073	61.78
788.254	94.55
788.435	205.14
788.616	127.32
788.797	106.84
788.978	115.03
789.159	112.98
789.34	127.32
789.522	115.03
789.703	92.5
789.884	90.45
790.065	106.84
790.246	115.03
790.427	166.23
790.607	80.21
790.788	112.98
790.969	115.03
791.15	72.02
791.331	104.79
791.512	65.88
791.693	65.88
791.874	108.88
792.054	131.41
792.235	47.44
792.416	96.6
792.597	61.78
792.778	61.78
792.958	174.42
793.139	65.88
793.32	110.93
793.5	22.87
793.681	72.02
793.862	149.84
794.042	102.74
794.223	49.49
794.404	86.36
794.584	-11.95
794.765	8.53
794.945	164.18
795.126	86.36
795.306	151.89
795.487	74.07
795.667	112.98
795.848	133.46
796.028	61.78
796.209	104.79
796.389	51.54
796.57	88.4
796.75	24.92
796.93	90.45
797.111	2.39
797.291	100.69
797.471	22.87
797.652	45.4
797.832	59.73
798.012	35.16
798.192	74.07
798.373	33.11
798.553	20.82
798.733	2.39
798.913	74.07
799.093	55.64
799.274	65.88
799.454	102.74
799.634	92.5
799.814	190.8
799.994	88.4
800.174	92.5
800.354	59.73
800.534	96.6
800.714	57.68
800.894	2.39
801.074	100.69
801.254	-1.71
801.434	45.4
801.614	26.96
801.794	-3.75
801.974	338.26
802.154	-5.8
802.334	10.58
802.514	10.58
802.693	65.88
802.873	39.25
803.053	84.31
803.233	35.16
803.413	149.84
803.592	-16.04
803.772	49.49
803.952	72.02
804.131	90.45
804.311	41.3
804.491	4.44
804.67	51.54
804.85	86.36
805.03	53.59
805.209	78.16
805.389	4.44
805.568	0.34
805.748	92.5
805.928	121.17
806.107	67.92
806.287	63.83
806.466	106.84
806.646	123.22
806.825	31.06
807.004	2.39
807.184	98.64
807.363	98.64
807.543	69.97
807.722	26.96
807.901	55.64
808.081	49.49
808.26	-5.8
808.439	94.55
808.619	192.85
808.798	51.54
808.977	76.12
809.156	65.88
809.336	26.96
809.515	43.35
809.694	-24.23
809.873	37.2
810.052	-9.9
810.231	-24.23
810.411	6.49
810.59	67.92
810.769	6.49
810.948	125.27
811.127	78.16
811.306	29.01
811.485	106.84
811.664	100.69
811.843	-7.85
812.022	-34.47
812.201	-13.99
812.38	61.78
812.559	-71.34
812.737	61.78
812.916	29.01
813.095	26.96
813.274	39.25
813.453	-52.91
813.632	14.68
813.811	51.54
813.989	37.2
814.168	90.45
814.347	33.11
814.526	-11.95
814.704	26.96
814.883	76.12
815.062	14.68
815.24	74.07
815.419	74.07
815.598	8.53
815.776	-9.9
815.955	24.92
816.133	119.12
816.312	37.2
816.49	41.3
816.669	74.07
816.847	24.92
817.026	29.01
817.204	47.44
817.383	26.96
817.561	67.92
817.74	12.63
817.918	86.36
818.097	65.88
818.275	16.73
818.453	24.92
818.632	82.26
818.81	53.59
818.988	98.64
819.167	41.3
819.345	-7.85
819.523	69.97
819.701	22.87
819.879	69.97
820.058	-32.43
820.236	57.68
820.414	18.77
820.592	14.68
820.77	16.73
820.948	49.49
821.127	45.4
821.305	41.3
821.483	-5.8
821.661	26.96
821.839	35.16
822.017	26.96
822.195	22.87
822.373	69.97
822.551	39.25
822.729	22.87
822.907	41.3
823.085	43.35
823.262	6.49
823.44	80.21
823.618	-3.75
823.796	45.4
823.974	26.96
824.152	78.16
824.329	61.78
824.507	33.11
824.685	31.06
824.863	-34.47
825.04	24.92
825.218	10.58
825.396	10.58
825.574	59.73
825.751	-1.71
825.929	-36.52
826.107	31.06
826.284	74.07
826.462	12.63
826.639	53.59
826.817	43.35
826.994	43.35
827.172	51.54
827.349	63.83
827.527	12.63
827.704	43.35
827.882	-1.71
828.059	2.39
828.237	-46.76
828.414	86.36
828.591	16.73
828.769	4.44
828.946	51.54
829.124	-61.1
829.301	2.39
829.478	10.58
829.655	53.59
829.833	6.49
830.01	18.77
830.187	74.07
830.364	-28.33
830.542	51.54
830.719	29.01
830.896	35.16
831.073	31.06
831.25	47.44
831.427	51.54
831.604	20.82
831.782	8.53
831.959	-7.85
832.136	35.16
832.313	26.96
832.49	-16.04
832.667	-13.99
832.844	39.25
833.021	49.49
833.198	8.53
833.374	22.87
833.551	26.96
833.728	6.49
833.905	22.87
834.082	33.11
834.259	29.01
834.436	-3.75
834.612	61.78
834.789	49.49
834.966	-71.34
835.143	33.11
835.319	-42.67
835.496	35.16
835.673	-5.8
835.85	24.92
836.026	51.54
836.203	-7.85
836.38	37.2
836.556	67.92
836.733	-9.9
836.909	65.88
837.086	-7.85
837.262	47.44
837.439	0.34
837.616	-59.05
837.792	16.73
837.968	-36.52
838.145	-16.04
838.321	-13.99
838.498	10.58
838.674	2.39
838.851	24.92
839.027	92.5
839.203	53.59
839.38	33.11
839.556	-32.43
839.732	-3.75
839.909	39.25
840.085	43.35
840.261	39.25
840.437	-20.14
840.614	-3.75
840.79	67.92
840.966	39.25
841.142	14.68
841.318	35.16
841.494	6.49
841.671	41.3
841.847	41.3
842.023	47.44
842.199	6.49
842.375	0.34
842.551	-11.95
842.727	18.77
842.903	10.58
843.079	-28.33
843.255	29.01
843.431	24.92
843.607	35.16
843.783	59.73
843.959	24.92
844.134	-36.52
844.31	45.4
844.486	2.39
844.662	-9.9
844.838	41.3
845.013	22.87
845.189	37.2
845.365	35.16
845.541	-20.14
845.716	-16.04
845.892	37.2
846.068	2.39
846.244	-77.48
846.419	98.64
846.595	14.68
846.77	41.3
846.946	57.68
847.122	-67.24
847.297	-1.71
847.473	-22.19
847.648	49.49
847.824	22.87
847.999	24.92
848.175	16.73
848.35	86.36
848.526	47.44
848.701	-3.75
848.876	8.53
849.052	10.58
849.227	65.88
849.403	33.11
849.578	26.96
849.753	-9.9
849.929	33.11
850.104	-11.95
850.279	35.16
850.454	-16.04
850.63	-95.91
850.805	24.92
850.98	43.35
851.155	-18.09
851.33	43.35
851.505	-9.9
851.681	43.35
851.856	-22.19
852.031	31.06
852.206	-11.95
852.381	-38.57
852.556	-46.76
852.731	-16.04
852.906	-7.85
853.081	-28.33
853.256	0.34
853.431	35.16
853.606	-100.01
853.781	-3.75
853.956	-22.19
854.131	14.68
854.305	-30.38
854.48	4.44
854.655	-18.09
854.83	-9.9
855.005	-7.85
855.18	-5.8
855.354	-3.75
855.529	37.2
855.704	-50.86
855.879	22.87
856.053	8.53
856.228	-18.09
856.403	51.54
856.577	-50.86
856.752	-32.43
856.926	-52.91
857.101	-1.71
857.276	0.34
857.45	8.53
857.625	22.87
857.799	-9.9
857.974	35.16
858.148	-36.52
858.323	8.53
858.497	-9.9
858.672	35.16
858.846	-22.19
859.02	51.54
859.195	4.44
859.369	33.11
859.543	-1.71
859.718	24.92
859.892	33.11
860.066	-1.71
860.241	-44.71
860.415	-46.76
860.589	-13.99
860.763	-16.04
860.938	-1.71
861.112	-24.23
861.286	-13.99
861.46	57.68
861.634	-81.58
861.808	16.73
861.982	59.73
862.157	37.2
862.331	63.83
862.505	16.73
862.679	-28.33
862.853	49.49
863.027	12.63
863.201	37.2
863.375	-46.76
863.549	41.3
863.722	-3.75
863.896	-44.71
864.07	-46.76
864.244	-7.85
864.418	29.01
864.592	8.53
864.766	49.49
864.939	16.73
865.113	61.78
865.287	33.11
865.461	26.96
865.634	-18.09
865.808	10.58
865.982	-11.95
866.156	-7.85
866.329	22.87
866.503	6.49
866.676	41.3
866.85	-9.9
867.024	-54.95
867.197	0.34
867.371	35.16
867.544	-40.62
867.718	33.11
867.891	-9.9
868.065	-57
868.238	-9.9
868.412	10.58
868.585	-48.81
868.759	-11.95
868.932	18.77
869.105	4.44
869.279	16.73
869.452	16.73
869.625	47.44
869.799	31.06
869.972	-18.09
870.145	29.01
870.319	22.87
870.492	41.3
870.665	90.45
870.838	-36.52
871.011	8.53
871.185	-26.28
871.358	-11.95
871.531	82.26
871.704	-44.71
871.877	-5.8
872.05	-57
872.223	-11.95
872.396	63.83
872.569	-16.04
872.742	10.58
872.915	-7.85
873.088	76.12
873.261	-50.86
873.434	33.11
873.607	-81.58
873.78	-7.85
873.953	16.73
874.126	16.73
874.299	16.73
874.471	4.44
874.644	4.44
874.817	16.73
874.99	26.96
875.163	2.39
875.335	-79.53
875.508	2.39
875.681	-40.62
875.853	31.06
876.026	69.97
876.199	24.92
876.371	-7.85
876.544	10.58
876.717	96.6
876.889	4.44
877.062	35.16
877.234	26.96
877.407	-22.19
877.579	-5.8
877.752	24.92
877.924	-71.34
878.097	51.54
878.269	-13.99
878.442	43.35
878.614	-59.05
878.786	35.16
878.959	-69.29
879.131	24.92
879.303	-7.85
879.476	-24.23
879.648	59.73
879.82	43.35
879.993	33.11
880.165	-18.09
880.337	-61.1
880.509	-50.86
880.681	65.88
880.854	-46.76
881.026	-48.81
881.198	74.07
881.37	-16.04
881.542	-36.52
881.714	22.87
881.886	4.44
882.058	-7.85
882.23	24.92
882.402	12.63
882.574	-16.04
882.746	-30.38
882.918	16.73
883.09	35.16
883.262	45.4
883.434	-18.09
883.606	24.92
883.778	12.63
883.95	-1.71
884.122	-3.75
884.293	-5.8
884.465	-1.71
884.637	-30.38
884.809	20.82
884.98	63.83
885.152	14.68
885.324	24.92
885.496	-26.28
885.667	-38.57
885.839	-36.52
886.011	-57
886.182	-11.95
886.354	24.92
886.525	22.87
886.697	-46.76
886.869	-34.47
887.04	65.88
887.212	-7.85
887.383	-13.99
887.555	-36.52
887.726	-30.38
887.897	41.3
888.069	2.39
888.24	-7.85
888.412	59.73
888.583	-24.23
888.754	14.68
888.926	-1.71
889.097	33.11
889.268	-5.8
889.44	18.77
889.611	-20.14
889.782	-24.23
889.953	4.44
890.125	29.01
890.296	-36.52
890.467	-50.86
890.638	-1.71
890.809	-3.75
890.98	22.87
891.151	-7.85
891.323	-11.95
891.494	-32.43
891.665	-5.8
891.836	-28.33
892.007	-26.28
892.178	51.54
892.349	4.44
892.52	8.53
892.691	55.64
892.862	-20.14
893.032	-30.38
893.203	-46.76
893.374	-20.14
893.545	-7.85
893.716	-5.8
893.887	63.83
894.057	-24.23
894.228	35.16
894.399	-9.9
894.57	53.59
894.74	-73.39
894.911	57.68
895.082	29.01
895.253	12.63
895.423	49.49
895.594	18.77
895.764	0.34
895.935	45.4
896.106	24.92
896.276	-16.04
896.447	24.92
896.617	-28.33
896.788	-24.23
896.958	-87.72
897.129	-3.75
897.299	12.63
897.47	2.39
897.64	-11.95
897.81	-44.71
897.981	41.3
898.151	12.63
898.322	-26.28
898.492	-63.15
898.662	26.96
898.832	2.39
899.003	-46.76
899.173	18.77
899.343	33.11
899.513	-40.62
