Data from USB4F104151__17__12-53-22-148.txt Node

Date: Fri Mar 14 12:53:22 EDT 2025
User: louis
Spectrometer: USB4F10415
Trigger mode: 4
Integration Time (sec): 1.000000E-2
Scans to average: 1
Electric dark correction enabled: true
Nonlinearity correction enabled: false
Boxcar width: 0
XAxis mode: Wavelengths
Number of Pixels in Spectrum: 3648
>>>>>Begin Spectral Data<<<<<
178.204	56.32
178.424	56.32
178.644	56.32
178.864	5.12
179.084	-31.74
179.304	52.22
179.524	7.17
179.744	-87.04
179.964	19.46
180.184	-23.55
180.404	23.55
180.624	48.13
180.844	19.46
181.064	-41.98
181.283	56.32
181.503	-39.94
181.723	-33.79
181.943	7.17
182.163	68.61
182.383	78.85
182.602	101.37
182.822	11.26
183.042	78.85
183.262	19.46
183.482	41.98
183.701	23.55
183.921	27.65
184.141	23.55
184.361	23.55
184.58	15.36
184.8	46.08
185.02	-50.18
185.239	50.18
185.459	29.7
185.679	54.27
185.898	25.6
186.118	58.37
186.338	-29.7
186.557	29.7
186.777	15.36
186.997	99.33
187.216	25.6
187.436	-21.5
187.655	25.6
187.875	39.94
188.095	11.26
188.314	11.26
188.534	109.57
188.753	-76.8
188.973	130.05
189.192	66.56
189.412	72.7
189.631	1.02
189.851	23.55
190.07	37.89
190.29	13.31
190.509	23.55
190.729	5.12
190.948	21.5
191.168	76.8
191.387	35.84
191.607	35.84
191.826	48.13
192.045	70.65
192.265	78.85
192.484	3.07
192.704	74.75
192.923	-27.65
193.142	37.89
193.362	-15.36
193.581	56.32
193.8	68.61
194.02	-13.31
194.239	35.84
194.458	41.98
194.678	-1.02
194.897	-17.41
195.116	31.74
195.335	31.74
195.555	74.75
195.774	41.98
195.993	33.79
196.212	121.85
196.432	80.89
196.651	60.42
196.87	-15.36
197.089	3.07
197.308	17.41
197.528	72.7
197.747	62.46
197.966	70.65
198.185	23.55
198.404	-9.22
198.623	27.65
198.842	19.46
199.062	46.08
199.281	19.46
199.5	15.36
199.719	52.22
199.938	-3.07
200.157	33.79
200.376	33.79
200.595	117.76
200.814	50.18
201.033	62.46
201.252	27.65
201.471	140.29
201.69	39.94
201.909	-3.07
202.128	54.27
202.347	66.56
202.566	54.27
202.785	27.65
203.004	68.61
203.223	60.42
203.442	13.31
203.661	29.7
203.879	19.46
204.098	87.04
204.317	48.13
204.536	29.7
204.755	19.46
204.974	56.32
205.193	21.5
205.411	101.37
205.63	101.37
205.849	56.32
206.068	99.33
206.287	91.13
206.505	74.75
206.724	52.22
206.943	58.37
207.162	113.66
207.381	9.22
207.599	62.46
207.818	19.46
208.037	-29.7
208.255	21.5
208.474	44.03
208.693	13.31
208.911	82.94
209.13	-21.5
209.349	11.26
209.567	56.32
209.786	31.74
210.005	15.36
210.223	58.37
210.442	-7.17
210.661	-21.5
210.879	68.61
211.098	68.61
211.316	52.22
211.535	-5.12
211.753	3.07
211.972	21.5
212.191	13.31
212.409	5.12
212.628	3.07
212.846	60.42
213.065	19.46
213.283	11.26
213.502	-5.12
213.72	-11.26
213.938	27.65
214.157	48.13
214.375	58.37
214.594	58.37
214.812	82.94
215.031	54.27
215.249	29.7
215.467	-64.51
215.686	11.26
215.904	78.85
216.122	11.26
216.341	-13.31
216.559	-3.07
216.778	109.57
216.996	13.31
217.214	3.07
217.432	-1.02
217.651	-5.12
217.869	46.08
218.087	-46.08
218.306	82.94
218.524	128
218.742	-9.22
218.96	-11.26
219.179	46.08
219.397	-19.46
219.615	-13.31
219.833	99.33
220.051	-27.65
220.27	35.84
220.488	23.55
220.706	87.04
220.924	41.98
221.142	39.94
221.36	56.32
221.578	78.85
221.796	48.13
222.015	-21.5
222.233	29.7
222.451	39.94
222.669	41.98
222.887	76.8
223.105	-52.22
223.323	1.02
223.541	54.27
223.759	144.38
223.977	41.98
224.195	72.7
224.413	39.94
224.631	95.23
224.849	44.03
225.067	97.28
225.285	-35.84
225.503	99.33
225.721	21.5
225.939	93.18
226.157	-9.22
226.375	21.5
226.592	52.22
226.81	41.98
227.028	74.75
227.246	82.94
227.464	-99.33
227.682	33.79
227.9	52.22
228.117	13.31
228.335	-21.5
228.553	29.7
228.771	76.8
228.989	64.51
229.206	31.74
229.424	25.6
229.642	27.65
229.86	54.27
230.077	125.95
230.295	66.56
230.513	68.61
230.731	66.56
230.948	-21.5
231.166	60.42
231.384	37.89
231.601	60.42
231.819	60.42
232.037	82.94
232.254	27.65
232.472	93.18
232.689	-9.22
232.907	60.42
233.125	109.57
233.342	-23.55
233.56	95.23
233.777	19.46
233.995	66.56
234.213	52.22
234.43	-5.12
234.648	62.46
234.865	-33.79
235.083	13.31
235.3	3.07
235.518	56.32
235.735	66.56
235.953	39.94
236.17	70.65
236.388	117.76
236.605	80.89
236.822	35.84
237.04	107.52
237.257	-87.04
237.475	-19.46
237.692	52.22
237.909	93.18
238.127	35.84
238.344	95.23
238.562	107.52
238.779	74.75
238.996	93.18
239.214	23.55
239.431	15.36
239.648	-15.36
239.865	84.99
240.083	-5.12
240.3	44.03
240.517	93.18
240.735	-29.7
240.952	-50.18
241.169	54.27
241.386	7.17
241.603	39.94
241.821	-21.5
242.038	27.65
242.255	56.32
242.472	68.61
242.689	3.07
242.907	64.51
243.124	-37.89
243.341	-23.55
243.558	54.27
243.775	3.07
243.992	44.03
244.209	29.7
244.426	125.95
244.643	70.65
244.86	15.36
245.078	-27.65
245.295	52.22
245.512	21.5
245.729	-1.02
245.946	-9.22
246.163	-19.46
246.38	48.13
246.597	35.84
246.814	21.5
247.031	111.61
247.248	93.18
247.464	9.22
247.681	111.61
247.898	33.79
248.115	179.2
248.332	1.02
248.549	70.65
248.766	68.61
248.983	21.5
249.2	-5.12
249.417	48.13
249.633	15.36
249.85	23.55
250.067	52.22
250.284	3.07
250.501	-17.41
250.717	103.42
250.934	-7.17
251.151	95.23
251.368	37.89
251.585	62.46
251.801	91.13
252.018	46.08
252.235	41.98
252.451	17.41
252.668	13.31
252.885	99.33
253.102	46.08
253.318	58.37
253.535	-3.07
253.752	19.46
253.968	66.56
254.185	64.51
254.401	72.7
254.618	84.99
254.835	103.42
255.051	80.89
255.268	-15.36
255.484	29.7
255.701	99.33
255.917	95.23
256.134	60.42
256.351	41.98
256.567	35.84
256.784	39.94
257	7.17
257.217	62.46
257.433	7.17
257.65	60.42
257.866	146.43
258.082	25.6
258.299	-13.31
258.515	11.26
258.732	3.07
258.948	64.51
259.165	-19.46
259.381	72.7
259.597	76.8
259.814	60.42
260.03	105.47
260.246	52.22
260.463	74.75
260.679	21.5
260.895	17.41
261.112	37.89
261.328	41.98
261.544	37.89
261.761	74.75
261.977	72.7
262.193	-7.17
262.409	76.8
262.626	62.46
262.842	27.65
263.058	-9.22
263.274	91.13
263.49	23.55
263.707	78.85
263.923	17.41
264.139	3.07
264.355	37.89
264.571	37.89
264.787	89.09
265.004	87.04
265.22	62.46
265.436	80.89
265.652	1.02
265.868	87.04
266.084	58.37
266.3	25.6
266.516	56.32
266.732	54.27
266.948	54.27
267.164	35.84
267.38	31.74
267.596	60.42
267.812	35.84
268.028	-9.22
268.244	21.5
268.46	76.8
268.676	54.27
268.892	60.42
269.108	-23.55
269.324	44.03
269.54	-29.7
269.756	35.84
269.972	-48.13
270.188	23.55
270.403	33.79
270.619	3.07
270.835	29.7
271.051	97.28
271.267	23.55
271.483	-29.7
271.698	-7.17
271.914	78.85
272.13	68.61
272.346	-7.17
272.562	33.79
272.777	46.08
272.993	72.7
273.209	89.09
273.425	31.74
273.64	29.7
273.856	84.99
274.072	1.02
274.287	-21.5
274.503	11.26
274.719	56.32
274.934	35.84
275.15	99.33
275.366	21.5
275.581	66.56
275.797	121.85
276.012	60.42
276.228	107.52
276.444	35.84
276.659	105.47
276.875	48.13
277.09	25.6
277.306	68.61
277.521	70.65
277.737	19.46
277.952	128
278.168	64.51
278.383	33.79
278.599	29.7
278.814	13.31
279.03	-23.55
279.245	19.46
279.461	58.37
279.676	-62.46
279.892	48.13
280.107	84.99
280.322	64.51
280.538	50.18
280.753	52.22
280.969	-5.12
281.184	109.57
281.399	84.99
281.615	21.5
281.83	117.76
282.045	82.94
282.26	3.07
282.476	56.32
282.691	-19.46
282.906	-3.07
283.122	44.03
283.337	101.37
283.552	82.94
283.767	25.6
283.983	91.13
284.198	-44.03
284.413	64.51
284.628	3.07
284.843	23.55
285.058	62.46
285.274	37.89
285.489	-31.74
285.704	109.57
285.919	84.99
286.134	23.55
286.349	56.32
286.564	48.13
286.779	44.03
286.995	-9.22
287.21	87.04
287.425	41.98
287.64	39.94
287.855	35.84
288.07	41.98
288.285	46.08
288.5	11.26
288.715	62.46
288.93	39.94
289.145	11.26
289.36	41.98
289.575	56.32
289.79	-3.07
290.004	-11.26
290.219	1.02
290.434	101.37
290.649	7.17
290.864	11.26
291.079	-31.74
291.294	80.89
291.509	7.17
291.724	-19.46
291.938	48.13
292.153	48.13
292.368	117.76
292.583	-35.84
292.798	-35.84
293.012	93.18
293.227	1.02
293.442	37.89
293.657	9.22
293.871	64.51
294.086	-29.7
294.301	25.6
294.516	58.37
294.73	84.99
294.945	54.27
295.16	29.7
295.374	21.5
295.589	15.36
295.804	-37.89
296.018	46.08
296.233	-9.22
296.447	52.22
296.662	78.85
296.877	52.22
297.091	58.37
297.306	50.18
297.52	-27.65
297.735	62.46
297.949	66.56
298.164	60.42
298.378	-11.26
298.593	76.8
298.807	-25.6
299.022	48.13
299.236	54.27
299.451	41.98
299.665	68.61
299.88	-31.74
300.094	56.32
300.309	56.32
300.523	66.56
300.737	-33.79
300.952	39.94
301.166	-23.55
301.381	39.94
301.595	44.03
301.809	23.55
302.024	15.36
302.238	-5.12
302.452	27.65
302.667	70.65
302.881	-11.26
303.095	107.52
303.309	54.27
303.524	-15.36
303.738	7.17
303.952	101.37
304.166	39.94
304.381	-3.07
304.595	52.22
304.809	9.22
305.023	1.02
305.237	25.6
305.452	37.89
305.666	35.84
305.88	78.85
306.094	56.32
306.308	64.51
306.522	64.51
306.736	19.46
306.95	-19.46
307.164	80.89
307.379	37.89
307.593	27.65
307.807	56.32
308.021	17.41
308.235	33.79
308.449	-23.55
308.663	72.7
308.877	66.56
309.091	76.8
309.305	-1.02
309.519	39.94
309.733	105.47
309.947	48.13
310.161	13.31
310.374	99.33
310.588	87.04
310.802	21.5
311.016	93.18
311.23	50.18
311.444	48.13
311.658	50.18
311.872	46.08
312.085	11.26
312.299	31.74
312.513	70.65
312.727	87.04
312.941	78.85
313.154	60.42
313.368	37.89
313.582	87.04
313.796	130.05
314.009	-7.17
314.223	48.13
314.437	64.51
314.651	35.84
314.864	64.51
315.078	39.94
315.292	46.08
315.505	35.84
315.719	64.51
315.933	15.36
316.146	-9.22
316.36	7.17
316.573	17.41
316.787	68.61
317.001	33.79
317.214	15.36
317.428	84.99
317.641	72.7
317.855	76.8
318.068	25.6
318.282	17.41
318.495	66.56
318.709	-11.26
318.922	-17.41
319.136	72.7
319.349	11.26
319.563	29.7
319.776	58.37
319.99	101.37
320.203	15.36
320.417	64.51
320.63	66.56
320.843	74.75
321.057	37.89
321.27	84.99
321.483	-11.26
321.697	70.65
321.91	13.31
322.124	-27.65
322.337	48.13
322.55	54.27
322.763	72.7
322.977	80.89
323.19	33.79
323.403	-11.26
323.617	11.26
323.83	39.94
324.043	37.89
324.256	33.79
324.469	50.18
324.683	37.89
324.896	3.07
325.109	35.84
325.322	39.94
325.535	52.22
325.748	41.98
325.962	115.71
326.175	19.46
326.388	50.18
326.601	29.7
326.814	39.94
327.027	76.8
327.24	23.55
327.453	7.17
327.666	-3.07
327.879	52.22
328.092	-11.26
328.305	-7.17
328.518	33.79
328.731	48.13
328.944	44.03
329.157	52.22
329.37	89.09
329.583	44.03
329.796	64.51
330.009	76.8
330.222	39.94
330.435	17.41
330.648	105.47
330.861	-1.02
331.073	23.55
331.286	9.22
331.499	52.22
331.712	-19.46
331.925	48.13
332.138	99.33
332.35	62.46
332.563	25.6
332.776	70.65
332.989	5.12
333.202	46.08
333.414	35.84
333.627	13.31
333.84	76.8
334.053	-17.41
334.265	89.09
334.478	46.08
334.691	13.31
334.903	52.22
335.116	60.42
335.329	66.56
335.541	39.94
335.754	29.7
335.966	13.31
336.179	68.61
336.392	23.55
336.604	50.18
336.817	-5.12
337.029	142.33
337.242	56.32
337.454	82.94
337.667	60.42
337.88	107.52
338.092	56.32
338.305	56.32
338.517	31.74
338.729	68.61
338.942	23.55
339.154	37.89
339.367	-13.31
339.579	54.27
339.792	68.61
340.004	74.75
340.217	-62.46
340.429	99.33
340.641	-7.17
340.854	111.61
341.066	9.22
341.278	76.8
341.491	121.85
341.703	37.89
341.915	91.13
342.128	89.09
342.34	74.75
342.552	-1.02
342.764	35.84
342.977	39.94
343.189	56.32
343.401	29.7
343.613	25.6
343.826	15.36
344.038	103.42
344.25	64.51
344.462	50.18
344.674	35.84
344.886	50.18
345.099	78.85
345.311	31.74
345.523	64.51
345.735	93.18
345.947	76.8
346.159	23.55
346.371	9.22
346.583	39.94
346.795	101.37
347.007	62.46
347.219	72.7
347.431	119.81
347.643	76.8
347.855	76.8
348.067	44.03
348.279	25.6
348.491	5.12
348.703	31.74
348.915	11.26
349.127	17.41
349.339	48.13
349.551	-9.22
349.763	62.46
349.975	56.32
350.187	109.57
350.399	91.13
350.61	37.89
350.822	19.46
351.034	76.8
351.246	72.7
351.458	115.71
351.669	-11.26
351.881	25.6
352.093	9.22
352.305	15.36
352.517	11.26
352.728	35.84
352.94	80.89
353.152	29.7
353.363	78.85
353.575	46.08
353.787	31.74
353.999	109.57
354.21	44.03
354.422	37.89
354.633	74.75
354.845	70.65
355.057	11.26
355.268	93.18
355.48	72.7
355.692	60.42
355.903	62.46
356.115	91.13
356.326	-35.84
356.538	80.89
356.749	3.07
356.961	15.36
357.172	27.65
357.384	-19.46
357.595	132.09
357.807	7.17
358.018	89.09
358.23	23.55
358.441	50.18
358.653	78.85
358.864	56.32
359.075	91.13
359.287	117.76
359.498	21.5
359.709	56.32
359.921	105.47
360.132	44.03
360.344	25.6
360.555	44.03
360.766	41.98
360.977	-7.17
361.189	1.02
361.4	37.89
361.611	37.89
361.823	11.26
362.034	33.79
362.245	7.17
362.456	87.04
362.667	78.85
362.879	50.18
363.09	-13.31
363.301	29.7
363.512	48.13
363.723	1.02
363.935	11.26
364.146	91.13
364.357	64.51
364.568	23.55
364.779	50.18
364.99	93.18
365.201	70.65
365.412	101.37
365.623	37.89
365.834	72.7
366.045	17.41
366.256	27.65
366.467	37.89
366.678	111.61
366.889	72.7
367.1	41.98
367.311	41.98
367.522	3.07
367.733	35.84
367.944	111.61
368.155	3.07
368.366	97.28
368.577	64.51
368.788	15.36
368.999	27.65
369.209	76.8
369.42	95.23
369.631	76.8
369.842	74.75
370.053	39.94
370.264	84.99
370.474	39.94
370.685	52.22
370.896	66.56
371.107	56.32
371.317	78.85
371.528	-3.07
371.739	105.47
371.95	21.5
372.16	25.6
372.371	70.65
372.582	58.37
372.792	54.27
373.003	46.08
373.214	62.46
373.424	52.22
373.635	-48.13
373.846	119.81
374.056	66.56
374.267	111.61
374.477	31.74
374.688	48.13
374.898	35.84
375.109	97.28
375.319	52.22
375.53	78.85
375.74	113.66
375.951	48.13
376.161	48.13
376.372	72.7
376.582	48.13
376.793	46.08
377.003	-21.5
377.214	89.09
377.424	-13.31
377.635	41.98
377.845	82.94
378.055	44.03
378.266	46.08
378.476	140.29
378.686	-21.5
378.897	27.65
379.107	74.75
379.317	97.28
379.528	52.22
379.738	48.13
379.948	-11.26
380.158	101.37
380.369	50.18
380.579	46.08
380.789	-11.26
380.999	113.66
381.21	29.7
381.42	107.52
381.63	70.65
381.84	46.08
382.05	115.71
382.261	66.56
382.471	46.08
382.681	91.13
382.891	11.26
383.101	70.65
383.311	-31.74
383.521	39.94
383.731	37.89
383.941	91.13
384.151	115.71
384.361	27.65
384.571	41.98
384.781	27.65
384.991	39.94
385.201	62.46
385.411	37.89
385.621	93.18
385.831	29.7
386.041	105.47
386.251	15.36
386.461	89.09
386.671	35.84
386.881	52.22
387.091	78.85
387.301	99.33
387.511	113.66
387.72	78.85
387.93	13.31
388.14	107.52
388.35	-17.41
388.56	78.85
388.769	39.94
388.979	54.27
389.189	50.18
389.399	56.32
389.609	19.46
389.818	154.62
390.028	52.22
390.238	9.22
390.447	78.85
390.657	93.18
390.867	-9.22
391.076	44.03
391.286	89.09
391.496	13.31
391.705	60.42
391.915	52.22
392.125	138.24
392.334	23.55
392.544	64.51
392.753	119.81
392.963	72.7
393.172	-23.55
393.382	99.33
393.591	111.61
393.801	41.98
394.01	109.57
394.22	66.56
394.429	5.12
394.639	-35.84
394.848	68.61
395.058	54.27
395.267	80.89
395.477	58.37
395.686	37.89
395.895	130.05
396.105	84.99
396.314	97.28
396.524	97.28
396.733	52.22
396.942	68.61
397.152	125.95
397.361	166.91
397.57	7.17
397.78	152.57
397.989	72.7
398.198	76.8
398.407	80.89
398.617	52.22
398.826	101.37
399.035	121.85
399.244	101.37
399.453	84.99
399.663	56.32
399.872	29.7
400.081	72.7
400.29	99.33
400.499	72.7
400.708	72.7
400.917	103.42
401.127	166.91
401.336	39.94
401.545	138.24
401.754	119.81
401.963	70.65
402.172	41.98
402.381	142.33
402.59	113.66
402.799	125.95
403.008	64.51
403.217	89.09
403.426	99.33
403.635	50.18
403.844	-9.22
404.053	84.99
404.262	119.81
404.471	105.47
404.68	54.27
404.888	60.42
405.097	140.29
405.306	62.46
405.515	123.9
405.724	56.32
405.933	93.18
406.142	103.42
406.35	91.13
406.559	109.57
406.768	95.23
406.977	66.56
407.185	128
407.394	183.29
407.603	101.37
407.812	134.14
408.02	152.57
408.229	66.56
408.438	140.29
408.646	117.76
408.855	97.28
409.064	134.14
409.272	121.85
409.481	144.38
409.69	125.95
409.898	128
410.107	103.42
410.315	252.92
410.524	117.76
410.733	187.39
410.941	107.52
411.15	134.14
411.358	125.95
411.567	230.4
411.775	203.77
411.984	97.28
412.192	189.44
412.401	211.96
412.609	193.53
412.818	244.73
413.026	263.16
413.234	267.26
413.443	183.29
413.651	181.25
413.86	297.98
414.068	283.64
414.276	273.4
414.485	281.6
414.693	302.08
414.901	293.88
415.11	211.96
415.318	345.08
415.526	416.76
415.734	357.37
415.943	306.17
416.151	334.84
416.359	355.32
416.567	375.8
416.776	381.95
416.984	359.42
417.192	465.91
417.4	375.8
417.608	334.84
417.817	474.1
418.025	353.27
418.233	601.08
418.441	601.08
418.649	506.87
418.857	558.07
419.065	627.7
419.273	541.69
419.481	637.94
419.689	762.87
419.897	596.98
420.105	603.13
420.313	676.85
420.521	562.17
420.729	732.15
420.937	740.34
421.145	707.57
421.353	670.71
421.561	803.83
421.769	775.16
421.977	832.5
422.185	844.79
422.393	826.36
422.601	885.75
422.809	914.42
423.017	865.27
423.224	969.71
423.432	1059.82
423.64	955.38
423.848	992.24
424.056	1078.26
424.263	1012.72
424.471	1063.92
424.679	1178.61
424.887	1303.53
425.094	1217.52
425.302	1270.76
425.51	1225.71
425.718	1313.77
425.925	1289.2
426.133	1387.5
426.341	1471.47
426.548	1555.43
426.756	1516.52
426.964	1620.97
427.171	1647.59
427.379	1698.79
427.586	1651.69
427.794	1731.56
428.001	1795.04
428.209	1864.68
428.417	1962.98
428.624	2096.1
428.832	2022.37
429.039	2083.81
429.247	2061.28
429.454	2214.88
429.662	2272.22
429.869	2186.21
430.076	2393.05
430.284	2178.01
430.491	2380.76
430.699	2438.11
430.906	2517.98
431.114	2524.12
431.321	2634.71
431.528	2622.42
431.736	2864.08
431.943	2980.82
432.15	2874.32
432.358	2968.53
432.565	3075.03
432.772	3034.07
432.979	3189.71
433.187	3193.81
433.394	3328.97
433.601	3492.81
433.808	3670.98
434.016	3570.63
434.223	3757
434.43	4029.38
434.637	3828.68
434.844	4221.89
435.052	4174.78
435.259	4293.57
435.466	4182.98
435.673	4221.89
435.88	4412.35
436.087	4613.05
436.294	4641.72
436.501	4578.23
436.708	4623.29
436.915	4869.05
437.122	5036.98
437.329	5118.9
437.537	5227.44
437.743	5426.09
437.95	5340.08
438.157	5630.89
438.364	5735.34
438.571	5698.47
438.778	5741.48
438.985	6093.73
439.192	6026.15
439.399	6192.03
439.606	6003.62
439.813	6312.86
440.02	6724.51
440.227	6742.94
440.433	6671.26
440.64	6892.44
440.847	6716.31
441.054	7003.03
441.261	7310.22
441.467	7410.57
441.674	7621.52
441.881	7801.74
442.088	7627.66
442.294	7707.53
442.501	7881.61
442.708	8065.92
442.914	8444.8
443.121	8647.55
443.328	8397.7
443.534	9182.07
443.741	8811.39
443.948	8801.15
444.154	9255.79
444.361	9270.13
444.568	9253.75
444.774	9343.86
444.981	9548.65
445.187	9720.68
445.394	10015.59
445.6	10031.97
445.807	11103.06
446.013	10595.17
446.22	10531.68
446.426	11045.72
446.633	11275.09
446.839	11709.26
447.046	11117.4
447.252	11643.73
447.459	11826
447.665	11770.7
447.871	12430.15
448.078	12997.43
448.284	12137.29
448.491	12569.41
448.697	13019.96
448.903	13134.65
449.11	13331.25
449.316	13122.36
449.522	13292.34
449.728	13824.81
449.935	13744.94
450.141	13740.85
450.347	14082.86
450.553	13589.3
450.76	13998.89
450.966	14205.74
451.172	14062.38
451.378	14670.62
451.584	14285.61
451.791	14582.56
451.997	14422.82
452.203	14881.56
452.409	14803.74
452.615	14818.08
452.821	14301.99
453.027	14029.61
453.233	15002.4
453.44	14379.81
453.646	14471.97
453.852	14492.45
454.058	14676.77
454.264	14224.17
454.47	14691.1
454.676	14213.93
454.882	14824.22
455.088	13331.25
455.294	13665.07
455.5	13785.9
455.705	13894.44
455.911	13370.16
456.117	13296.44
456.323	12878.65
456.529	12419.91
456.735	12809.02
456.941	12553.02
457.147	12364.61
457.352	12110.66
457.558	11893.58
457.764	11766.6
457.97	11754.32
458.176	11512.66
458.381	11324.24
458.587	10845.02
458.793	10971.99
458.999	10451.81
459.204	11025.24
459.41	11053.91
459.616	10132.33
459.821	10150.76
460.027	10210.15
460.233	9798.51
460.438	9423.73
460.644	9554.8
460.85	8985.46
461.055	8895.35
461.261	8946.55
461.466	8246.15
461.672	8207.23
461.878	8698.75
462.083	8104.84
462.289	7959.43
462.494	7705.48
462.7	7531.41
462.905	7443.34
463.111	7521.17
463.316	7574.41
463.522	7381.9
463.727	7451.53
463.932	7320.46
464.138	7527.31
464.343	7424.91
464.549	7175.06
464.754	7453.58
464.959	7379.86
465.165	7310.22
465.37	6888.34
465.575	6876.06
465.781	7168.91
465.986	7103.38
466.191	6874.01
466.397	6947.73
466.602	6568.86
466.807	6661.02
467.012	6855.58
467.218	6708.12
467.423	6636.44
467.628	6708.12
467.833	7000.98
468.038	6595.48
468.244	6466.46
468.449	6945.69
468.654	6634.39
468.859	6499.23
469.064	6640.54
469.269	6169.51
469.474	6405.02
469.679	6402.97
469.885	6296.48
470.09	6271.9
470.295	6265.76
470.5	6124.45
470.705	5997.48
470.91	6054.82
471.115	5929.89
471.32	5977
471.525	6028.2
471.73	5868.45
471.935	5843.88
472.139	5653.42
472.344	5829.54
472.549	5718.95
472.754	5555.12
472.959	5395.37
473.164	5403.57
473.369	5362.61
473.574	5618.6
473.778	5434.29
473.983	5254.06
474.188	5501.87
474.393	5213.1
474.598	5264.3
474.802	4985.78
475.007	4899.77
475.212	4910.01
475.417	4895.67
475.621	4922.29
475.826	4903.86
476.031	4729.78
476.235	4768.7
476.44	4895.67
476.645	4697.02
476.849	4707.26
477.054	4735.93
477.259	4512.7
477.463	4590.52
477.668	4500.41
477.872	4400.06
478.077	4330.43
478.282	4338.62
478.486	4361.15
478.691	4213.7
478.895	4139.97
479.1	4266.94
479.304	4340.67
479.509	4223.94
479.713	4271.04
479.918	4176.83
480.122	4092.87
480.326	4180.93
480.531	4041.67
480.735	4068.29
480.94	4017.09
481.144	4225.98
481.348	3982.28
481.553	4043.71
481.757	3775.43
481.961	3963.84
482.166	3945.41
482.37	3904.45
482.574	3873.73
482.778	4015.04
482.983	4088.77
483.187	4002.75
483.391	3939.27
483.595	3883.97
483.8	3845.06
484.004	4074.43
484.208	3990.47
484.412	3853.25
484.616	3957.7
484.821	3935.17
485.025	3828.68
485.229	4101.06
485.433	3980.23
485.637	3816.39
485.841	4035.52
486.045	3840.97
486.249	4017.09
486.453	3892.16
486.657	3892.16
486.861	4158.4
487.065	3951.56
487.269	3937.22
487.473	3918.79
487.677	4012.99
487.881	4109.25
488.085	3984.32
488.289	3941.32
488.493	3937.22
488.697	4053.95
488.901	4129.73
489.105	4049.86
489.309	4180.93
489.512	4176.83
489.716	4201.41
489.92	4111.3
490.124	4223.94
490.328	4221.89
490.531	4101.06
490.735	4217.79
490.939	4168.64
491.143	4359.1
491.346	4131.78
491.55	4076.48
491.754	4381.63
491.958	4531.13
492.161	4385.73
492.365	4459.45
492.569	4328.38
492.772	4326.33
492.976	4375.49
493.18	4467.64
493.383	4563.9
493.587	4535.23
493.79	4643.77
493.994	4502.46
494.197	4627.39
494.401	4670.39
494.605	4733.88
494.808	4733.88
495.012	4938.68
495.215	4789.17
495.419	4823.99
495.622	4916.15
495.825	4963.25
496.029	4967.35
496.232	5141.43
496.436	4981.68
496.639	5229.49
496.843	5270.45
497.046	5303.22
497.249	5295.02
497.453	5393.33
497.656	5589.93
497.859	5258.16
498.063	5729.19
498.266	5700.52
498.469	5606.31
498.673	5716.9
498.876	5757.86
499.079	5942.18
499.282	6056.87
499.485	6067.11
499.689	6146.98
499.892	6282.14
500.095	6405.02
500.298	6620.06
500.501	6433.69
500.705	6759.32
500.908	6532
501.111	6773.66
501.314	6755.22
501.517	6943.64
501.72	7046.04
501.923	7033.75
502.126	7386
502.329	7404.43
502.532	7529.36
502.735	7500.69
502.938	7601.04
503.141	7732.11
503.344	7816.07
503.547	7861.13
503.75	7998.34
503.953	8125.32
504.156	8119.17
504.359	8244.1
504.562	8330.11
504.765	8600.44
504.968	8690.56
505.17	8825.72
505.373	8868.73
505.576	8989.56
505.779	9063.29
505.982	9331.57
506.185	9458.54
506.387	9298.8
506.59	9528.17
506.793	9728.88
506.996	9798.51
507.198	10158.95
507.401	9939.82
507.604	10042.21
507.807	10298.21
508.009	10552.16
508.212	10601.31
508.415	10722.14
508.617	10806.11
508.82	11058.01
509.022	10924.89
509.225	11301.72
509.428	11510.61
509.63	11166.55
509.833	11449.17
510.035	11721.55
510.238	11772.75
510.44	11785.04
510.643	12022.6
510.845	12229.45
511.048	12303.17
511.25	12620.61
511.453	12669.76
511.655	13022.01
511.858	12876.6
512.06	13120.31
512.262	13251.38
512.465	13318.96
512.667	13521.71
512.87	13671.22
513.072	13894.44
513.274	13794.09
513.477	14279.46
513.679	14301.99
513.881	14701.34
514.084	14631.71
514.286	14258.98
514.488	14840.61
514.69	15199
514.893	15061.79
515.095	15244.06
515.297	15786.77
515.499	15608.59
515.701	15977.23
515.904	16046.86
516.106	16155.4
516.308	16567.04
516.51	16569.09
516.712	16476.93
516.914	16845.57
517.116	17115.9
517.318	17302.26
517.52	17238.78
517.722	17363.7
517.925	17607.41
518.127	17947.37
518.329	17734.39
518.531	17902.32
518.733	18330.34
518.935	18322.15
519.136	18393.83
519.338	18612.96
519.54	19084
519.742	19040.99
519.944	19174.11
520.146	19647.19
520.348	19469.01
520.55	19677.91
520.752	19665.62
520.954	19929.81
521.155	20099.79
521.357	20314.83
521.559	20482.76
521.761	20916.93
521.963	20509.38
522.164	20740.8
522.366	21105.34
522.568	21310.14
522.77	20933.31
522.971	21529.27
523.173	21115.58
523.375	21906.1
523.576	21523.13
523.778	21949.11
523.98	22309.55
524.181	22260.4
524.383	22297.26
524.584	22579.88
524.786	22745.76
524.988	22534.82
525.189	22934.18
525.391	23009.95
525.592	23079.58
525.794	23032.48
525.995	23194.27
526.197	23427.74
526.398	23620.25
526.6	23323.29
526.801	23407.26
527.003	23947.92
527.204	23530.14
527.406	24365.71
527.607	24181.39
527.808	24384.14
528.01	24181.39
528.211	24226.45
528.412	24652.42
528.614	24613.51
528.815	24763.01
529.016	24941.19
529.218	24633.99
529.419	24781.45
529.62	24750.73
529.822	24994.43
530.023	24910.47
530.224	24894.08
530.425	25074.31
530.626	24969.86
530.828	25051.78
531.029	25741.94
531.23	25481.85
531.431	25334.4
531.632	25256.57
531.833	25453.18
532.035	25324.16
532.236	25270.91
532.437	25830.01
532.638	25414.27
532.839	25719.42
533.04	25782.9
533.241	25502.33
533.442	26143.35
533.643	25760.37
533.844	26079.86
534.045	25653.88
534.246	25821.81
534.447	26032.75
534.648	25928.31
534.849	26102.39
535.05	25733.75
535.251	26012.28
535.451	25846.39
535.652	26081.91
535.853	26157.68
536.054	26206.83
536.255	26129.01
536.456	25907.83
536.657	26507.88
536.857	26163.82
537.058	26055.28
537.259	26444.4
537.46	26362.48
537.66	26382.96
537.861	26202.74
538.062	26448.49
538.263	26624.62
538.463	26387.05
538.664	26438.25
538.865	26708.58
539.065	26417.77
539.266	26360.43
539.466	26493.55
539.667	26221.17
539.868	26448.49
540.068	26581.61
540.269	26669.67
540.469	26649.19
540.67	26602.09
540.87	26485.36
541.071	26417.77
541.271	27019.88
541.472	26524.27
541.672	26407.53
541.873	26479.21
542.073	26641
542.274	26843.75
542.474	26804.84
542.675	26241.65
542.875	26702.44
543.075	26466.92
543.276	26438.25
543.476	26929.77
543.676	26524.27
543.877	26823.27
544.077	26688.1
544.277	26700.39
544.478	26774.12
544.678	27032.16
544.878	26913.38
545.078	26753.64
545.279	26587.75
545.479	26511.98
545.679	26600.04
545.879	26929.77
546.079	26780.26
546.28	26604.14
546.48	26589.8
546.68	26638.95
546.88	26714.73
547.08	26765.93
547.28	26690.15
547.48	26376.81
547.68	26796.65
547.88	26612.33
548.081	26831.46
548.281	26810.98
548.481	26589.8
548.681	26958.44
548.881	26643.05
549.081	26765.93
549.28	26514.03
549.48	26888.81
549.68	26792.55
549.88	27079.27
550.08	26636.91
550.28	26679.91
550.48	26511.98
550.68	27343.45
550.88	26821.22
551.08	26651.24
551.279	26817.13
551.479	26503.79
551.679	26557.03
551.879	26557.03
552.079	26903.14
552.278	26485.36
552.478	26749.54
552.678	26550.89
552.878	26876.52
553.077	26724.97
553.277	26489.45
553.477	27005.54
553.676	26391.15
553.876	26860.13
554.076	26675.82
554.275	26364.53
554.475	26176.11
554.674	26823.27
554.874	26434.16
555.074	26628.71
555.273	26782.31
555.473	26563.18
555.672	26430.06
555.872	26554.99
556.071	26653.29
556.271	26382.96
556.47	26495.6
556.67	26454.64
556.869	25893.49
557.068	26464.88
557.268	26225.26
557.467	26374.77
557.667	26237.55
557.866	26200.69
558.065	26358.38
558.265	26342
558.464	26278.51
558.663	26276.46
558.863	25952.88
559.062	26346.09
559.261	25991.8
559.461	26325.61
559.66	26053.23
559.859	26241.65
560.058	26235.5
560.258	25997.94
560.457	25492.09
560.656	26030.71
560.855	26149.49
561.054	26157.68
561.253	25838.2
561.453	26190.45
561.652	25873.01
561.851	26391.15
562.05	25860.73
562.249	25715.32
562.448	25922.16
562.647	26196.59
562.846	25473.66
563.045	25971.32
563.244	25823.86
563.443	25944.69
563.642	25803.38
563.841	25510.52
564.04	25948.79
564.239	25932.4
564.438	25438.84
564.637	25436.8
564.836	25850.49
565.035	25424.51
565.234	25490.04
565.432	25399.93
565.631	25641.59
565.83	25645.69
566.029	25545.34
566.228	25633.4
566.427	25369.21
566.625	25301.63
566.824	25522.81
567.023	25266.81
567.222	25141.89
567.42	25571.96
567.619	25440.89
567.818	25205.38
568.016	25184.9
568.215	25356.93
568.414	25164.42
568.612	25332.35
568.811	24930.95
569.01	24984.19
569.208	24586.89
569.407	24924.8
569.605	25080.45
569.804	24740.49
570.002	24816.26
570.201	24904.32
570.4	24746.63
570.598	24644.23
570.797	24519.31
570.995	24824.45
571.193	24148.62
571.392	24887.94
571.59	24406.67
571.789	24535.69
571.987	24441.48
572.186	24468.11
572.384	24314.51
572.582	24408.72
572.781	24679.05
572.979	23923.35
573.177	24396.43
573.376	24720.01
573.574	24099.47
573.772	24085.14
573.971	24148.62
574.169	24238.73
574.367	23825.04
574.565	24359.56
574.763	23857.81
574.962	23800.47
575.16	23474.84
575.358	23501.47
575.556	23487.13
575.754	23902.87
575.952	23591.58
576.151	23423.64
576.349	23120.54
576.547	23243.42
576.745	23493.27
576.943	23458.46
577.141	23181.98
577.339	23229.09
577.537	23089.82
577.735	23413.4
577.933	23196.32
578.131	23014.05
578.329	22794.92
578.527	22932.13
578.725	22844.07
578.923	23108.26
579.121	22968.99
579.319	22903.46
579.516	22880.93
579.714	22710.95
579.912	22684.33
580.11	22379.18
580.308	22532.78
580.506	22309.55
580.704	22272.68
580.901	22500.01
581.099	22622.89
581.297	22409.9
581.495	22117.04
581.692	22495.91
581.89	21754.55
582.088	22311.6
582.285	21834.42
582.483	22108.85
582.681	22260.4
582.878	21736.12
583.076	22063.79
583.274	21824.18
583.471	21717.68
583.669	21639.86
583.866	21658.29
584.064	21717.68
584.262	21277.37
584.459	21545.66
584.657	21398.2
584.854	21633.72
585.052	21154.49
585.249	21201.6
585.447	21451.45
585.644	21193.4
585.841	21148.35
586.039	21328.57
586.236	20941.5
586.434	20890.31
586.631	20777.67
586.828	20802.24
587.026	20613.83
587.223	20746.95
587.42	20564.68
587.618	20808.39
587.815	20753.09
588.012	20486.86
588.21	20560.58
588.407	20611.78
588.604	20329.16
588.801	20126.41
588.999	20136.65
589.196	20202.19
589.393	20249.29
589.59	19989.2
589.787	20208.33
589.984	19978.96
590.182	19546.84
590.379	20079.31
590.576	19505.88
590.773	19704.53
590.97	19624.66
591.167	19639
591.364	19372.76
591.561	19563.22
591.758	19532.5
591.955	19534.55
592.152	19380.95
592.349	19040.99
592.546	19106.52
592.743	19374.81
592.94	19036.89
593.137	19077.85
593.334	19264.22
593.531	18916.06
593.727	19278.55
593.924	19190.49
594.121	18758.37
594.318	18930.4
594.515	18721.51
594.712	18936.54
594.908	18952.93
595.105	18631.4
595.302	18615.01
595.499	18561.76
595.696	18303.72
595.892	18518.76
596.089	18543.33
596.286	18512.61
596.482	18135.79
596.679	18150.12
596.876	18160.36
597.072	18154.22
597.269	17853.17
597.466	18014.96
597.662	18021.1
597.859	18090.73
598.055	18060.01
598.252	17746.67
598.448	17701.62
598.645	17582.84
598.841	17703.67
599.038	17578.74
599.234	17767.15
599.431	17464.05
599.627	17210.11
599.824	17412.85
600.02	17459.96
600.217	17302.26
600.413	17371.89
600.609	17101.56
600.806	17060.6
601.002	17292.02
601.198	17083.13
601.395	17070.84
601.591	16997.12
601.787	16864
601.984	17013.5
602.18	17009.4
602.376	16737.02
602.572	16925.44
602.769	16489.22
602.965	16456.45
603.161	16675.59
603.357	16386.82
603.553	16433.93
603.75	16329.48
603.946	16278.28
604.142	16435.97
604.338	16243.46
604.534	16208.65
604.73	16075.53
604.926	16073.48
605.122	16327.43
605.318	16136.97
605.514	15934.22
605.71	15692.56
605.906	15966.99
606.102	15948.56
606.298	15837.97
606.494	15606.55
606.69	15686.42
606.886	15637.27
607.082	15561.49
607.278	15772.43
607.474	15272.73
607.67	15510.29
607.866	15305.49
608.062	15471.38
608.257	15569.68
608.453	15569.68
608.649	15264.54
608.845	15502.1
609.041	15305.49
609.236	15348.5
609.432	15221.53
609.628	14998.3
609.824	15383.32
610.019	14953.24
610.215	14930.72
610.411	15258.39
610.606	14807.84
610.802	14973.72
610.998	15039.26
611.193	14908.19
611.389	14934.81
611.584	14535.46
611.78	14750.49
611.976	14633.76
612.171	14613.28
612.367	14482.21
612.562	14691.1
612.758	14433.06
612.953	14504.74
613.149	14738.21
613.344	14482.21
613.539	14693.15
613.735	14416.68
613.93	14447.4
614.126	14320.42
614.321	14535.46
614.517	14379.81
614.712	14445.35
614.907	14168.87
615.103	14246.69
615.298	14269.22
615.493	14172.97
615.688	14166.82
615.884	14181.16
616.079	14084.91
616.274	14258.98
616.47	14015.27
616.665	13884.2
616.86	13845.29
617.055	13736.75
617.25	13972.27
617.445	13697.84
617.641	13503.28
617.836	13742.89
618.031	13556.53
618.226	13685.55
618.421	13488.95
618.616	13562.67
618.811	13433.65
619.006	13495.09
619.201	13376.31
619.396	13361.97
619.591	13038.39
619.786	13347.64
619.981	13349.68
620.176	13278.01
620.371	13085.5
620.566	13085.5
620.761	12645.18
620.956	13046.58
621.151	12815.16
621.346	12839.74
621.541	12743.49
621.735	12802.88
621.93	12548.93
622.125	12530.5
622.32	12159.81
622.515	12327.75
622.709	12370.76
622.904	12342.08
623.099	12577.6
623.294	12225.35
623.488	12290.88
623.683	12182.34
623.878	11963.21
624.072	11830.09
624.267	11832.14
624.462	11617.1
624.656	11742.03
624.851	11694.93
625.046	11668.3
625.24	11701.07
625.435	11428.69
625.629	11608.91
625.824	11250.52
626.018	11285.33
626.213	11053.91
626.407	11322.2
626.602	11084.63
626.796	10967.9
626.991	11213.65
627.185	11066.2
627.38	11076.44
627.574	10820.44
627.768	10681.18
627.963	10789.72
628.157	10705.76
628.352	10750.81
628.546	10566.49
628.74	10494.82
628.935	10470.24
629.129	10462.05
629.323	10300.26
629.517	10085.22
629.712	10636.13
629.906	10148.71
630.1	10218.34
630.294	10130.28
630.489	9960.3
630.683	9894.76
630.877	9808.75
631.071	10009.45
631.265	9927.53
631.459	9628.53
631.653	9833.32
631.848	9767.79
632.042	9431.92
632.236	9499.5
632.43	9460.59
632.624	9493.36
632.818	9542.51
633.012	9415.54
633.206	9306.99
633.4	9407.34
633.594	9165.68
633.788	9163.64
633.982	9186.16
634.176	9235.32
634.369	9247.6
634.563	9030.52
634.757	8883.06
634.951	9137.01
635.145	9098.1
635.339	8866.68
635.533	8684.41
635.726	8891.26
635.92	8694.65
636.114	8674.17
636.308	8412.03
636.501	8559.49
636.695	8584.06
636.889	8399.74
637.083	8455.04
637.276	8455.04
637.47	8414.08
637.664	8369.02
637.857	8297.35
638.051	8285.06
638.244	8303.49
638.438	8039.3
638.632	8133.51
638.825	8051.59
639.019	7902.09
639.212	7914.38
639.406	7914.38
639.599	7926.66
639.793	7992.2
639.986	7678.86
640.18	7809.93
640.373	7746.44
640.567	7732.11
640.76	7617.42
640.954	7467.92
641.147	7441.29
641.34	7422.86
641.534	7435.15
641.727	7486.35
641.92	7340.94
642.114	7326.61
642.307	7140.24
642.5	7170.96
642.694	7224.21
642.887	7148.43
643.08	7222.16
643.273	7064.47
643.467	7099.28
643.66	6947.73
643.853	6783.9
644.046	6867.86
644.239	6876.06
644.432	6771.61
644.626	6738.84
644.819	6734.75
645.012	6763.42
645.205	6566.81
645.398	6566.81
645.591	6542.24
645.784	6437.79
645.977	6556.57
646.17	6499.23
646.363	6400.93
646.556	6378.4
646.749	6376.35
646.942	6337.44
647.135	6298.53
647.328	6108.07
647.521	6392.73
647.714	6085.54
647.907	6349.73
648.099	6144.93
648.292	6134.69
648.485	5985.19
648.678	5882.79
648.871	5854.12
649.064	5811.11
649.256	5895.08
649.449	5845.93
649.642	5829.54
649.835	5811.11
650.027	5821.35
650.22	5655.47
650.413	5673.9
650.605	5692.33
650.798	5596.07
650.991	5440.43
651.183	5305.26
651.376	5622.7
651.568	5508.01
651.761	5450.67
651.954	5477.29
652.146	5335.98
652.339	5571.5
652.531	5229.49
652.724	5147.57
652.916	5180.34
653.109	5196.72
653.301	5342.13
653.494	5178.29
653.686	5053.36
653.879	5155.76
654.071	4965.3
654.263	4862.9
654.456	5110.71
654.648	4918.2
654.84	4922.29
655.033	4787.13
655.225	4864.95
655.417	4821.94
655.61	4752.31
655.802	4819.89
655.994	4598.71
656.186	4932.53
656.379	4768.7
656.571	4817.85
656.763	4803.51
656.955	4549.56
657.148	4567.99
657.34	4516.8
657.532	4527.03
657.724	4488.12
657.916	4387.77
658.108	4524.99
658.3	4393.92
658.492	4473.79
658.684	4201.41
658.876	4277.18
659.068	4438.97
659.26	4336.57
659.452	4295.61
659.644	4217.79
659.836	4078.53
660.028	4275.13
660.22	4074.43
660.412	3998.66
660.604	4060.1
660.796	4002.75
660.988	3992.52
661.18	3857.35
661.372	3883.97
661.563	3900.36
661.755	3886.02
661.947	3814.34
662.139	3832.77
662.331	3697.61
662.522	3763.14
662.714	3695.56
662.906	3707.85
663.097	3693.51
663.289	3544.01
663.481	3730.38
663.673	3570.63
663.864	3468.24
664.056	3433.42
664.247	3527.63
664.439	3429.32
664.631	3482.57
664.822	3533.77
665.014	3412.94
665.205	3468.24
665.397	3341.26
665.588	3318.73
665.78	3251.15
665.971	3267.53
666.163	3331.02
666.354	3281.87
666.546	3218.38
666.737	3140.56
666.929	3197.9
667.12	3132.37
667.311	3216.33
667.503	3015.63
667.694	3191.76
667.885	3027.92
668.077	2968.53
668.268	3093.46
668.459	2911.19
668.651	2968.53
668.842	2995.15
669.033	2878.42
669.224	2780.12
669.416	2933.72
669.607	2821.08
669.798	2714.58
669.989	2847.7
670.18	2853.84
670.371	2870.23
670.563	2849.75
670.754	2821.08
670.945	2710.49
671.136	2669.53
671.327	2726.87
671.518	2657.24
671.709	2712.53
671.9	2706.39
672.091	2673.62
672.282	2614.23
672.473	2563.03
672.664	2642.9
672.855	2692.05
673.046	2534.36
673.237	2671.58
673.428	2661.34
673.619	2644.95
673.809	2647
674	2477.02
674.191	2511.83
674.382	2356.19
674.573	2409.44
674.764	2517.98
674.954	2427.87
675.145	2360.28
675.336	2399.2
675.527	2376.67
675.717	2429.91
675.908	2530.27
676.099	2366.43
676.289	2348
676.48	2401.24
676.671	2384.86
676.861	2362.33
677.052	2464.73
677.243	2223.07
677.433	2272.22
677.624	2276.32
677.814	2337.76
678.005	2313.18
678.195	2315.23
678.386	2180.06
678.576	2313.18
678.767	2214.88
678.957	2266.08
679.148	2182.11
679.338	2233.31
679.529	2188.25
679.719	2163.68
679.909	2214.88
680.1	2083.81
680.29	2114.53
680.481	2167.77
680.671	2145.25
680.861	2165.73
681.052	2141.15
681.242	1954.79
681.432	2071.52
681.622	2087.9
681.813	2059.23
682.003	2149.34
682.193	1989.6
682.383	2143.2
682.573	2012.13
682.764	2075.62
682.954	2063.33
683.144	2108.38
683.334	2251.74
683.524	2014.18
683.714	2098.14
683.904	1985.51
684.094	2038.75
684.284	1948.64
684.474	2178.01
684.664	2094.05
684.854	2046.94
685.044	2186.21
685.234	1950.69
685.424	2116.58
685.614	2022.37
685.804	2051.04
685.994	1979.36
686.184	2104.29
686.374	2030.56
686.564	2016.23
686.753	2026.47
686.943	1952.74
687.133	1936.35
687.323	2040.8
687.513	1981.41
687.702	1893.35
687.892	1805.28
688.082	2014.18
688.272	2085.86
688.461	2059.23
688.651	1973.22
688.841	2046.94
689.03	2102.24
689.22	1862.63
689.41	2001.89
689.599	1917.92
689.789	1973.22
689.979	2034.66
690.168	1936.35
690.358	2018.27
690.547	1917.92
690.737	1979.36
690.926	2001.89
691.116	1899.49
691.305	1979.36
691.495	2001.89
691.684	2026.47
691.874	1975.27
692.063	1999.84
692.252	1952.74
692.442	2040.8
692.631	1850.34
692.82	1956.83
693.01	2003.94
693.199	1895.4
693.388	1827.81
693.578	1848.29
693.767	1790.95
693.956	1868.77
694.146	1889.25
694.335	1854.44
694.524	1907.68
694.713	1969.12
694.902	1856.48
695.092	1952.74
695.281	1899.49
695.47	1946.59
695.659	1967.07
695.848	1788.9
696.037	1938.4
696.226	1887.2
696.415	1897.44
696.604	1803.24
696.793	1903.59
696.982	1813.48
697.171	1811.43
697.36	1926.11
697.549	1840.1
697.738	1905.63
697.927	1854.44
698.116	1881.06
698.305	1825.76
698.494	1756.13
698.683	1903.59
698.872	1932.26
699.061	1840.1
699.25	1819.62
699.438	1698.79
699.627	1737.7
699.816	1766.37
700.005	1844.2
700.193	1825.76
700.382	1790.95
700.571	1807.33
700.76	1762.28
700.948	1694.69
701.137	1694.69
701.326	1741.8
701.514	1680.36
701.703	1678.31
701.892	1659.88
702.08	1668.07
702.269	1772.52
702.457	1715.17
702.646	1637.35
702.834	1612.78
703.023	1846.24
703.212	1604.58
703.4	1647.59
703.589	1627.11
703.777	1639.4
703.965	1674.21
704.154	1598.44
704.342	1602.54
704.531	1539.05
704.719	1573.86
704.907	1649.64
705.096	1534.95
705.284	1563.62
705.472	1561.58
705.661	1633.26
705.849	1580.01
706.037	1643.49
706.226	1502.19
706.414	1580.01
706.602	1530.86
706.79	1575.91
706.979	1545.19
707.167	1479.66
707.355	1555.43
707.543	1485.8
707.731	1444.84
707.919	1469.42
708.107	1479.66
708.296	1518.57
708.484	1479.66
708.672	1469.42
708.86	1584.1
709.048	1395.69
709.236	1510.38
709.424	1475.56
709.612	1465.32
709.8	1475.56
709.988	1412.07
710.176	1457.13
710.364	1324.01
710.551	1430.51
710.739	1537
710.927	1453.03
711.115	1459.18
711.303	1364.97
711.491	1416.17
711.679	1305.58
711.866	1405.93
712.054	1444.84
712.242	1399.79
712.43	1369.07
712.617	1360.88
712.805	1332.2
712.993	1377.26
713.181	1258.48
713.368	1432.55
713.556	1369.07
713.744	1416.17
713.931	1319.92
714.119	1332.2
714.306	1281
714.494	1244.14
714.682	1305.58
714.869	1332.2
715.057	1219.57
715.244	1260.52
715.432	1352.68
715.619	1194.99
715.807	1315.82
715.994	1256.43
716.182	1246.19
716.369	1182.7
716.556	1274.86
716.744	1137.65
716.931	1291.24
717.119	1240.05
717.306	1221.61
717.493	1199.09
717.681	1207.28
717.868	1180.65
718.055	1149.93
718.242	1160.17
718.43	1219.57
718.617	1184.75
718.804	1092.59
718.991	1104.88
719.179	1117.17
719.366	1121.26
719.553	1166.32
719.74	1209.33
719.927	1121.26
720.114	1188.85
720.301	1092.59
720.488	1207.28
720.676	1094.64
720.863	1111.02
721.05	1061.87
721.237	1080.3
721.424	1100.78
721.611	1068.02
721.798	1016.82
721.985	1043.44
722.172	1149.93
722.358	1025.01
722.545	1111.02
722.732	1027.06
722.919	1029.1
723.106	1043.44
723.293	1123.31
723.48	1010.67
723.667	1006.58
723.853	1031.15
724.04	1010.67
724.227	1049.58
724.414	1078.26
724.6	1012.72
724.787	961.52
724.974	1065.97
725.161	1041.39
725.347	1027.06
725.534	986.1
725.72	990.19
725.907	943.09
726.094	969.71
726.28	1006.58
726.467	961.52
726.653	857.07
726.84	1006.58
727.027	1012.72
727.213	1016.82
727.4	957.43
727.586	961.52
727.773	891.89
727.959	887.79
728.145	1000.43
728.332	912.37
728.518	947.19
728.705	910.32
728.891	928.75
729.077	844.79
729.264	945.14
729.45	898.03
729.636	951.28
729.823	812.02
730.009	848.88
730.195	902.13
730.382	887.79
730.568	934.9
730.754	875.51
730.94	818.16
731.126	881.65
731.313	848.88
731.499	850.93
731.685	816.12
731.871	855.03
732.057	906.23
732.243	820.21
732.429	816.12
732.615	805.88
732.801	916.47
732.987	822.26
733.173	799.73
733.359	889.84
733.545	836.6
733.731	775.16
733.917	795.64
734.103	838.64
734.289	906.23
734.475	781.3
734.661	816.12
734.847	775.16
735.033	773.11
735.219	799.73
735.404	789.49
735.59	713.72
735.776	773.11
735.962	775.16
736.148	830.45
736.333	816.12
736.519	644.09
736.705	850.93
736.89	783.35
737.076	736.24
737.262	707.57
737.447	695.29
737.633	728.05
737.819	791.54
738.004	680.95
738.19	758.77
738.375	752.63
738.561	766.96
738.747	685.05
738.932	764.92
739.118	756.72
739.303	635.89
739.489	672.76
739.674	744.44
739.859	748.53
740.045	695.29
740.23	691.19
740.416	670.71
740.601	740.34
740.786	740.34
740.972	717.81
741.157	605.17
741.342	611.32
741.528	621.56
741.713	672.76
741.898	695.29
742.084	705.53
742.269	703.48
742.454	613.37
742.639	670.71
742.824	719.86
743.01	670.71
743.195	717.81
743.38	676.85
743.565	619.51
743.75	584.7
743.935	603.13
744.12	654.33
744.305	631.8
744.49	631.8
744.675	582.65
744.86	715.77
745.045	629.75
745.23	599.03
745.415	621.56
745.6	650.23
745.785	629.75
745.97	586.74
746.155	580.6
746.34	504.82
746.525	547.83
746.71	644.09
746.895	656.37
747.079	545.78
747.264	617.46
747.449	519.16
747.634	594.93
747.819	635.89
748.003	562.17
748.188	588.79
748.373	574.46
748.557	543.74
748.742	578.55
748.927	572.41
749.111	592.89
749.296	599.03
749.481	529.4
749.665	547.83
749.85	582.65
750.034	570.36
750.219	549.88
750.404	508.92
750.588	472.06
750.773	551.93
750.957	539.64
751.141	582.65
751.326	521.21
751.51	564.22
751.695	457.72
751.879	513.02
752.064	594.93
752.248	476.15
752.432	558.07
752.617	527.35
752.801	492.54
752.985	558.07
753.17	453.63
753.354	513.02
753.538	510.97
753.722	506.87
753.907	525.3
754.091	486.39
754.275	486.39
754.459	420.86
754.643	517.11
754.828	398.33
755.012	490.49
755.196	439.29
755.38	455.67
755.564	498.68
755.748	447.48
755.932	441.34
756.116	406.52
756.3	349.18
756.484	470.01
756.668	377.85
756.852	435.19
757.036	494.58
757.22	435.19
757.404	459.77
757.588	357.37
757.772	433.15
757.956	412.67
758.14	437.24
758.323	351.23
758.507	443.39
758.691	388.09
758.875	429.05
759.059	422.91
759.242	355.32
759.426	349.18
759.61	318.46
759.794	482.3
759.977	398.33
760.161	465.91
760.345	400.38
760.528	330.75
760.712	365.56
760.895	355.32
761.079	351.23
761.263	287.74
761.446	308.22
761.63	445.43
761.813	336.89
761.997	328.7
762.18	336.89
762.364	437.24
762.547	328.7
762.731	386.04
762.914	379.9
763.098	330.75
763.281	396.28
763.464	347.13
763.648	416.76
763.831	377.85
764.015	283.64
764.198	347.13
764.381	386.04
764.564	328.7
764.748	343.03
764.931	404.47
765.114	318.46
765.297	283.64
765.481	351.23
765.664	351.23
765.847	361.47
766.03	297.98
766.213	375.8
766.397	412.67
766.58	252.92
766.763	330.75
766.946	300.03
767.129	465.91
767.312	271.36
767.495	408.57
767.678	377.85
767.861	383.99
768.044	390.14
768.227	383.99
768.41	377.85
768.593	365.56
768.776	363.51
768.959	320.51
769.142	371.71
769.324	257.02
769.507	283.64
769.69	388.09
769.873	297.98
770.056	324.6
770.239	347.13
770.421	359.42
770.604	306.17
770.787	365.56
770.97	318.46
771.152	324.6
771.335	318.46
771.518	314.36
771.7	310.27
771.883	273.4
772.066	361.47
772.248	271.36
772.431	308.22
772.613	293.88
772.796	279.55
772.978	281.6
773.161	320.51
773.343	248.83
773.526	275.45
773.708	285.69
773.891	244.73
774.073	277.5
774.256	310.27
774.438	363.51
774.621	224.25
774.803	340.99
774.985	254.97
775.168	306.17
775.35	308.22
775.532	316.41
775.715	355.32
775.897	207.87
776.079	314.36
776.261	250.88
776.444	267.26
776.626	250.88
776.808	252.92
776.99	277.5
777.173	248.83
777.355	236.54
777.537	340.99
777.719	244.73
777.901	263.16
778.083	224.25
778.265	265.21
778.447	312.32
778.629	216.06
778.811	128
778.993	240.64
779.175	257.02
779.357	263.16
779.539	277.5
779.721	220.16
779.903	252.92
780.085	246.78
780.267	259.07
780.449	252.92
780.631	259.07
780.812	185.34
780.994	250.88
781.176	220.16
781.358	171.01
781.54	211.96
781.721	240.64
781.903	273.4
782.085	185.34
782.267	261.12
782.448	259.07
782.63	154.62
782.812	224.25
782.993	265.21
783.175	238.59
783.357	199.68
783.538	265.21
783.72	185.34
783.901	211.96
784.083	263.16
784.264	230.4
784.446	222.2
784.627	191.49
784.809	173.05
784.99	187.39
785.172	269.31
785.353	275.45
785.535	185.34
785.716	300.03
785.897	201.72
786.079	209.92
786.26	175.1
786.441	242.68
786.623	117.76
786.804	171.01
786.985	164.86
787.167	130.05
787.348	164.86
787.529	207.87
787.71	138.24
787.891	205.82
788.073	144.38
788.254	183.29
788.435	209.92
788.616	150.53
788.797	138.24
788.978	128
789.159	199.68
789.34	148.48
789.522	209.92
789.703	138.24
789.884	175.1
790.065	142.33
790.246	181.25
790.427	191.49
790.607	189.44
790.788	134.14
790.969	171.01
791.15	134.14
791.331	199.68
791.512	222.2
791.693	160.77
791.874	142.33
792.054	125.95
792.235	156.67
792.416	130.05
792.597	183.29
792.778	195.58
792.958	173.05
793.139	150.53
793.32	103.42
793.5	138.24
793.681	166.91
793.862	140.29
794.042	125.95
794.223	138.24
794.404	171.01
794.584	125.95
794.765	144.38
794.945	132.09
795.126	111.61
795.306	84.99
795.487	125.95
795.667	93.18
795.848	187.39
796.028	113.66
796.209	148.48
796.389	156.67
796.57	50.18
796.75	44.03
796.93	109.57
797.111	132.09
797.291	93.18
797.471	193.53
797.652	164.86
797.832	95.23
798.012	197.63
798.192	136.19
798.373	150.53
798.553	117.76
798.733	54.27
798.913	128
799.093	136.19
799.274	123.9
799.454	107.52
799.634	117.76
799.814	89.09
799.994	148.48
800.174	76.8
800.354	144.38
800.534	138.24
800.714	144.38
800.894	52.22
801.074	109.57
801.254	93.18
801.434	97.28
801.614	84.99
801.794	87.04
801.974	345.08
802.154	111.61
802.334	146.43
802.514	154.62
802.693	31.74
802.873	95.23
803.053	162.81
803.233	68.61
803.413	173.05
803.592	82.94
803.772	101.37
803.952	87.04
804.131	99.33
804.311	142.33
804.491	123.9
804.67	44.03
804.85	140.29
805.03	60.42
805.209	128
805.389	103.42
805.568	62.46
805.748	99.33
805.928	121.85
806.107	37.89
806.287	72.7
806.466	136.19
806.646	46.08
806.825	62.46
807.004	150.53
807.184	35.84
807.363	84.99
807.543	99.33
807.722	119.81
807.901	121.85
808.081	128
808.26	60.42
808.439	130.05
808.619	44.03
808.798	113.66
808.977	89.09
809.156	103.42
809.336	91.13
809.515	101.37
809.694	64.51
809.873	119.81
810.052	154.62
810.231	119.81
810.411	60.42
810.59	119.81
810.769	128
810.948	132.09
811.127	48.13
811.306	21.5
811.485	37.89
811.664	99.33
811.843	121.85
812.022	80.89
812.201	95.23
812.38	82.94
812.559	136.19
812.737	109.57
812.916	-1.02
813.095	105.47
813.274	93.18
813.453	46.08
813.632	156.67
813.811	44.03
813.989	76.8
814.168	56.32
814.347	44.03
814.526	99.33
814.704	138.24
814.883	99.33
815.062	97.28
815.24	78.85
815.419	46.08
815.598	91.13
815.776	60.42
815.955	64.51
816.133	50.18
816.312	56.32
816.49	189.44
816.669	121.85
816.847	-5.12
817.026	111.61
817.204	23.55
817.383	109.57
817.561	33.79
817.74	19.46
817.918	117.76
818.097	35.84
818.275	60.42
818.453	117.76
818.632	72.7
818.81	166.91
818.988	41.98
819.167	80.89
819.345	76.8
819.523	19.46
819.701	64.51
819.879	3.07
820.058	84.99
820.236	82.94
820.414	76.8
820.592	3.07
820.77	91.13
820.948	31.74
821.127	1.02
821.305	60.42
821.483	82.94
821.661	62.46
821.839	11.26
822.017	117.76
822.195	56.32
822.373	82.94
822.551	62.46
822.729	97.28
822.907	66.56
823.085	68.61
823.262	46.08
823.44	50.18
823.618	35.84
823.796	56.32
823.974	17.41
824.152	115.71
824.329	66.56
824.507	37.89
824.685	-9.22
824.863	11.26
825.04	56.32
825.218	91.13
825.396	72.7
825.574	78.85
825.751	11.26
825.929	101.37
826.107	99.33
826.284	146.43
826.462	11.26
826.639	89.09
826.817	13.31
826.994	125.95
827.172	103.42
827.349	146.43
827.527	58.37
827.704	78.85
827.882	46.08
828.059	121.85
828.237	56.32
828.414	60.42
828.591	56.32
828.769	15.36
828.946	23.55
829.124	48.13
829.301	72.7
829.478	29.7
829.655	113.66
829.833	107.52
830.01	33.79
830.187	103.42
830.364	64.51
830.542	101.37
830.719	76.8
830.896	76.8
831.073	76.8
831.25	128
831.427	33.79
831.604	89.09
831.782	50.18
831.959	23.55
832.136	-7.17
832.313	93.18
832.49	25.6
832.667	87.04
832.844	50.18
833.021	76.8
833.198	-23.55
833.374	76.8
833.551	5.12
833.728	107.52
833.905	35.84
834.082	62.46
834.259	107.52
834.436	74.75
834.612	37.89
834.789	41.98
834.966	107.52
835.143	27.65
835.319	60.42
835.496	76.8
835.673	41.98
835.85	64.51
836.026	21.5
836.203	56.32
836.38	-87.04
836.556	95.23
836.733	31.74
836.909	52.22
837.086	1.02
837.262	74.75
837.439	56.32
837.616	39.94
837.792	80.89
837.968	50.18
838.145	82.94
838.321	95.23
838.498	66.56
838.674	62.46
838.851	39.94
839.027	64.51
839.203	54.27
839.38	60.42
839.556	27.65
839.732	46.08
839.909	89.09
840.085	23.55
840.261	27.65
840.437	17.41
840.614	25.6
840.79	70.65
840.966	9.22
841.142	123.9
841.318	17.41
841.494	27.65
841.671	121.85
841.847	58.37
842.023	48.13
842.199	-3.07
842.375	54.27
842.551	107.52
842.727	95.23
842.903	11.26
843.079	-27.65
843.255	29.7
843.431	-50.18
843.607	91.13
843.783	41.98
843.959	70.65
844.134	78.85
844.31	19.46
844.486	41.98
844.662	33.79
844.838	21.5
845.013	89.09
845.189	-7.17
845.365	35.84
845.541	37.89
845.716	66.56
845.892	21.5
846.068	84.99
846.244	9.22
846.419	11.26
846.595	11.26
846.77	5.12
846.946	21.5
847.122	35.84
847.297	78.85
847.473	60.42
847.648	25.6
847.824	41.98
847.999	82.94
848.175	56.32
848.35	78.85
848.526	-5.12
848.701	15.36
848.876	68.61
849.052	101.37
849.227	33.79
849.403	-15.36
849.578	109.57
849.753	111.61
849.929	44.03
850.104	-39.94
850.279	15.36
850.454	-3.07
850.63	58.37
850.805	-15.36
850.98	46.08
851.155	-19.46
851.33	15.36
851.505	1.02
851.681	84.99
851.856	-13.31
852.031	78.85
852.206	37.89
852.381	44.03
852.556	29.7
852.731	62.46
852.906	-35.84
853.081	52.22
853.256	70.65
853.431	-21.5
853.606	-25.6
853.781	-5.12
853.956	15.36
854.131	52.22
854.305	-23.55
854.48	158.72
854.655	9.22
854.83	31.74
855.005	52.22
855.18	44.03
855.354	48.13
855.529	48.13
855.704	107.52
855.879	76.8
856.053	11.26
856.228	-7.17
856.403	41.98
856.577	33.79
856.752	105.47
856.926	84.99
857.101	115.71
857.276	37.89
857.45	25.6
857.625	152.57
857.799	44.03
857.974	13.31
858.148	64.51
858.323	58.37
858.497	37.89
858.672	21.5
858.846	-25.6
859.02	-1.02
859.195	-13.31
859.369	64.51
859.543	50.18
859.718	58.37
859.892	76.8
860.066	80.89
860.241	-39.94
860.415	17.41
860.589	60.42
860.763	1.02
860.938	21.5
861.112	11.26
861.286	15.36
861.46	76.8
861.634	39.94
861.808	11.26
861.982	50.18
862.157	64.51
862.331	-25.6
862.505	11.26
862.679	-11.26
862.853	-19.46
863.027	-3.07
863.201	3.07
863.375	23.55
863.549	21.5
863.722	66.56
863.896	-5.12
864.07	46.08
864.244	48.13
864.418	-5.12
864.592	25.6
864.766	54.27
864.939	50.18
865.113	31.74
865.287	25.6
865.461	23.55
865.634	101.37
865.808	3.07
865.982	-31.74
866.156	-3.07
866.329	56.32
866.503	33.79
866.676	58.37
866.85	54.27
867.024	68.61
867.197	91.13
867.371	93.18
867.544	-54.27
867.718	23.55
867.891	23.55
868.065	5.12
868.238	46.08
868.412	72.7
868.585	56.32
868.759	56.32
868.932	13.31
869.105	105.47
869.279	33.79
869.452	35.84
869.625	66.56
869.799	44.03
869.972	58.37
870.145	5.12
870.319	25.6
870.492	78.85
870.665	-13.31
870.838	29.7
871.011	13.31
871.185	62.46
871.358	-31.74
871.531	48.13
871.704	5.12
871.877	9.22
872.05	80.89
872.223	3.07
872.396	1.02
872.569	60.42
872.742	-3.07
872.915	31.74
873.088	117.76
873.261	95.23
873.434	78.85
873.607	46.08
873.78	21.5
873.953	-11.26
874.126	115.71
874.299	46.08
874.471	64.51
874.644	41.98
874.817	46.08
874.99	37.89
875.163	29.7
875.335	62.46
875.508	27.65
875.681	46.08
875.853	21.5
876.026	5.12
876.199	35.84
876.371	7.17
876.544	29.7
876.717	-21.5
876.889	44.03
877.062	25.6
877.234	-44.03
877.407	97.28
877.579	33.79
877.752	33.79
877.924	11.26
878.097	-25.6
878.269	13.31
878.442	37.89
878.614	3.07
878.786	46.08
878.959	76.8
879.131	7.17
879.303	48.13
879.476	29.7
879.648	39.94
879.82	56.32
879.993	9.22
880.165	19.46
880.337	-3.07
880.509	41.98
880.681	31.74
880.854	-11.26
881.026	23.55
881.198	80.89
881.37	3.07
881.542	93.18
881.714	-1.02
881.886	-62.46
882.058	-19.46
882.23	19.46
882.402	-21.5
882.574	52.22
882.746	35.84
882.918	31.74
883.09	7.17
883.262	11.26
883.434	1.02
883.606	15.36
883.778	52.22
883.95	84.99
884.122	-15.36
884.293	29.7
884.465	33.79
884.637	68.61
884.809	17.41
884.98	3.07
885.152	33.79
885.324	87.04
885.496	7.17
885.667	33.79
885.839	54.27
886.011	121.85
886.182	107.52
886.354	125.95
886.525	-15.36
886.697	29.7
886.869	13.31
887.04	101.37
887.212	68.61
887.383	-1.02
887.555	23.55
887.726	27.65
887.897	17.41
888.069	11.26
888.24	105.47
888.412	33.79
888.583	11.26
888.754	9.22
888.926	5.12
889.097	70.65
889.268	-21.5
889.44	54.27
889.611	87.04
889.782	23.55
889.953	35.84
890.125	37.89
890.296	-19.46
890.467	17.41
890.638	-3.07
890.809	54.27
890.98	3.07
891.151	-1.02
891.323	37.89
891.494	13.31
891.665	37.89
891.836	5.12
892.007	-11.26
892.178	60.42
892.349	15.36
892.52	5.12
892.691	60.42
892.862	76.8
893.032	-7.17
893.203	46.08
893.374	-21.5
893.545	48.13
893.716	-13.31
893.887	17.41
894.057	39.94
894.228	95.23
894.399	21.5
894.57	29.7
894.74	-27.65
894.911	52.22
895.082	134.14
895.253	87.04
895.423	9.22
895.594	60.42
895.764	-27.65
895.935	-35.84
896.106	39.94
896.276	17.41
896.447	62.46
896.617	-9.22
896.788	50.18
896.958	35.84
897.129	48.13
897.299	9.22
897.47	5.12
897.64	-3.07
897.81	17.41
897.981	33.79
898.151	56.32
898.322	105.47
898.492	46.08
898.662	13.31
898.832	1.02
899.003	54.27
899.173	-1.02
899.343	-39.94
899.513	78.85
