Data from USB4F104151__65__12-54-10-422.txt Node

Date: Fri Mar 14 12:54:10 EDT 2025
User: louis
Spectrometer: USB4F10415
Trigger mode: 4
Integration Time (sec): 1.000000E-2
Scans to average: 1
Electric dark correction enabled: true
Nonlinearity correction enabled: false
Boxcar width: 0
XAxis mode: Wavelengths
Number of Pixels in Spectrum: 3648
>>>>>Begin Spectral Data<<<<<
178.204	9.22
178.424	9.22
178.644	9.22
178.864	-56.32
179.084	1.02
179.304	-23.55
179.524	-17.41
179.744	-113.66
179.964	37.89
180.184	-5.12
180.404	19.46
180.624	3.07
180.844	3.07
181.064	-25.6
181.283	9.22
181.503	33.79
181.723	78.85
181.943	-23.55
182.163	64.51
182.383	-5.12
182.602	80.89
182.822	-5.12
183.042	76.8
183.262	-21.5
183.482	35.84
183.701	70.65
183.921	19.46
184.141	76.8
184.361	101.37
184.58	39.94
184.8	9.22
185.02	-17.41
185.239	-5.12
185.459	5.12
185.679	3.07
185.898	-21.5
186.118	125.95
186.338	70.65
186.557	17.41
186.777	21.5
186.997	19.46
187.216	-35.84
187.436	64.51
187.655	21.5
187.875	19.46
188.095	31.74
188.314	7.17
188.534	132.09
188.753	-58.37
188.973	48.13
189.192	-33.79
189.412	72.7
189.631	82.94
189.851	27.65
190.07	123.9
190.29	13.31
190.509	3.07
190.729	46.08
190.948	31.74
191.168	78.85
191.387	23.55
191.607	29.7
191.826	44.03
192.045	21.5
192.265	-33.79
192.484	3.07
192.704	11.26
192.923	-11.26
193.142	-23.55
193.362	29.7
193.581	76.8
193.8	74.75
194.02	41.98
194.239	46.08
194.458	-25.6
194.678	21.5
194.897	17.41
195.116	37.89
195.335	27.65
195.555	54.27
195.774	3.07
195.993	64.51
196.212	11.26
196.432	21.5
196.651	50.18
196.87	13.31
197.089	25.6
197.308	31.74
197.528	-76.8
197.747	62.46
197.966	-25.6
198.185	-27.65
198.404	-31.74
198.623	-21.5
198.842	76.8
199.062	-1.02
199.281	101.37
199.5	7.17
199.719	44.03
199.938	39.94
200.157	21.5
200.376	33.79
200.595	13.31
200.814	11.26
201.033	-21.5
201.252	-39.94
201.471	56.32
201.69	19.46
201.909	-35.84
202.128	41.98
202.347	37.89
202.566	-9.22
202.785	80.89
203.004	17.41
203.223	93.18
203.442	7.17
203.661	54.27
203.879	-13.31
204.098	64.51
204.317	-11.26
204.536	7.17
204.755	-27.65
204.974	7.17
205.193	23.55
205.411	54.27
205.63	37.89
205.849	68.61
206.068	11.26
206.287	-50.18
206.505	33.79
206.724	35.84
206.943	-11.26
207.162	15.36
207.381	84.99
207.599	33.79
207.818	-37.89
208.037	58.37
208.255	19.46
208.474	76.8
208.693	78.85
208.911	-68.61
209.13	-3.07
209.349	-23.55
209.567	50.18
209.786	103.42
210.005	29.7
210.223	19.46
210.442	25.6
210.661	9.22
210.879	27.65
211.098	-29.7
211.316	-44.03
211.535	13.31
211.753	48.13
211.972	27.65
212.191	1.02
212.409	-21.5
212.628	-11.26
212.846	27.65
213.065	5.12
213.283	52.22
213.502	-27.65
213.72	39.94
213.938	3.07
214.157	56.32
214.375	11.26
214.594	-3.07
214.812	39.94
215.031	31.74
215.249	35.84
215.467	-52.22
215.686	9.22
215.904	44.03
216.122	50.18
216.341	78.85
216.559	19.46
216.778	80.89
216.996	-19.46
217.214	17.41
217.432	60.42
217.651	52.22
217.869	37.89
218.087	27.65
218.306	37.89
218.524	27.65
218.742	-23.55
218.96	37.89
219.179	56.32
219.397	35.84
219.615	56.32
219.833	19.46
220.051	11.26
220.27	-5.12
220.488	1.02
220.706	-23.55
220.924	31.74
221.142	-17.41
221.36	50.18
221.578	101.37
221.796	41.98
222.015	11.26
222.233	84.99
222.451	76.8
222.669	89.09
222.887	23.55
223.105	1.02
223.323	54.27
223.541	-29.7
223.759	-41.98
223.977	11.26
224.195	87.04
224.413	66.56
224.631	3.07
224.849	-60.42
225.067	29.7
225.285	19.46
225.503	29.7
225.721	19.46
225.939	80.89
226.157	46.08
226.375	31.74
226.592	29.7
226.81	11.26
227.028	78.85
227.246	-13.31
227.464	-5.12
227.682	66.56
227.9	54.27
228.117	44.03
228.335	72.7
228.553	70.65
228.771	-1.02
228.989	44.03
229.206	-17.41
229.424	56.32
229.642	52.22
229.86	-29.7
230.077	-9.22
230.295	50.18
230.513	9.22
230.731	-31.74
230.948	-3.07
231.166	-21.5
231.384	-11.26
231.601	50.18
231.819	48.13
232.037	1.02
232.254	44.03
232.472	-33.79
232.689	25.6
232.907	41.98
233.125	54.27
233.342	15.36
233.56	21.5
233.777	5.12
233.995	46.08
234.213	25.6
234.43	101.37
234.648	54.27
234.865	19.46
235.083	144.38
235.3	-7.17
235.518	54.27
235.735	64.51
235.953	109.57
236.17	23.55
236.388	68.61
236.605	11.26
236.822	125.95
237.04	25.6
237.257	9.22
237.475	-17.41
237.692	44.03
237.909	56.32
238.127	9.22
238.344	89.09
238.562	109.57
238.779	13.31
238.996	3.07
239.214	-7.17
239.431	37.89
239.648	50.18
239.865	17.41
240.083	60.42
240.3	33.79
240.517	87.04
240.735	-1.02
240.952	35.84
241.169	29.7
241.386	52.22
241.603	35.84
241.821	-64.51
242.038	25.6
242.255	27.65
242.472	-9.22
242.689	97.28
242.907	1.02
243.124	-7.17
243.341	17.41
243.558	-7.17
243.775	15.36
243.992	54.27
244.209	41.98
244.426	48.13
244.643	19.46
244.86	37.89
245.078	91.13
245.295	80.89
245.512	29.7
245.729	3.07
245.946	64.51
246.163	56.32
246.38	-23.55
246.597	-11.26
246.814	13.31
247.031	15.36
247.248	21.5
247.464	44.03
247.681	19.46
247.898	37.89
248.115	25.6
248.332	37.89
248.549	-25.6
248.766	35.84
248.983	27.65
249.2	46.08
249.417	60.42
249.633	29.7
249.85	46.08
250.067	84.99
250.284	41.98
250.501	1.02
250.717	97.28
250.934	-48.13
251.151	52.22
251.368	-3.07
251.585	19.46
251.801	50.18
252.018	44.03
252.235	39.94
252.451	44.03
252.668	-15.36
252.885	-48.13
253.102	-5.12
253.318	19.46
253.535	68.61
253.752	-27.65
253.968	21.5
254.185	46.08
254.401	95.23
254.618	70.65
254.835	9.22
255.051	70.65
255.268	23.55
255.484	19.46
255.701	29.7
255.917	82.94
256.134	-5.12
256.351	93.18
256.567	3.07
256.784	31.74
257	39.94
257.217	31.74
257.433	62.46
257.65	84.99
257.866	13.31
258.082	1.02
258.299	-25.6
258.515	39.94
258.732	-3.07
258.948	-58.37
259.165	-13.31
259.381	31.74
259.597	164.86
259.814	60.42
260.03	76.8
260.246	-44.03
260.463	72.7
260.679	64.51
260.895	-1.02
261.112	19.46
261.328	31.74
261.544	37.89
261.761	-37.89
261.977	-11.26
262.193	48.13
262.409	76.8
262.626	29.7
262.842	78.85
263.058	-21.5
263.274	25.6
263.49	84.99
263.707	-13.31
263.923	56.32
264.139	46.08
264.355	64.51
264.571	5.12
264.787	3.07
265.004	19.46
265.22	13.31
265.436	89.09
265.652	82.94
265.868	115.71
266.084	-7.17
266.3	19.46
266.516	39.94
266.732	44.03
266.948	99.33
267.164	70.65
267.38	31.74
267.596	-7.17
267.812	48.13
268.028	50.18
268.244	37.89
268.46	39.94
268.676	33.79
268.892	33.79
269.108	-9.22
269.324	39.94
269.54	-46.08
269.756	9.22
269.972	33.79
270.188	-27.65
270.403	48.13
270.619	68.61
270.835	25.6
271.051	17.41
271.267	56.32
271.483	109.57
271.698	29.7
271.914	46.08
272.13	39.94
272.346	46.08
272.562	33.79
272.777	68.61
272.993	23.55
273.209	25.6
273.425	23.55
273.64	-5.12
273.856	-17.41
274.072	-9.22
274.287	27.65
274.503	-52.22
274.719	50.18
274.934	41.98
275.15	-39.94
275.366	123.9
275.581	62.46
275.797	-1.02
276.012	15.36
276.228	46.08
276.444	23.55
276.659	5.12
276.875	9.22
277.09	70.65
277.306	-35.84
277.521	-35.84
277.737	-17.41
277.952	97.28
278.168	54.27
278.383	68.61
278.599	35.84
278.814	21.5
279.03	91.13
279.245	1.02
279.461	19.46
279.676	19.46
279.892	11.26
280.107	68.61
280.322	23.55
280.538	41.98
280.753	11.26
280.969	41.98
281.184	1.02
281.399	97.28
281.615	46.08
281.83	44.03
282.045	7.17
282.26	13.31
282.476	-27.65
282.691	44.03
282.906	-44.03
283.122	19.46
283.337	54.27
283.552	82.94
283.767	19.46
283.983	29.7
284.198	7.17
284.413	41.98
284.628	50.18
284.843	89.09
285.058	-3.07
285.274	31.74
285.489	-3.07
285.704	87.04
285.919	23.55
286.134	95.23
286.349	33.79
286.564	41.98
286.779	-5.12
286.995	62.46
287.21	1.02
287.425	9.22
287.64	-7.17
287.855	23.55
288.07	27.65
288.285	48.13
288.5	56.32
288.715	44.03
288.93	119.81
289.145	-35.84
289.36	13.31
289.575	15.36
289.79	7.17
290.004	25.6
290.219	-54.27
290.434	23.55
290.649	-5.12
290.864	-9.22
291.079	29.7
291.294	70.65
291.509	78.85
291.724	46.08
291.938	27.65
292.153	58.37
292.368	-3.07
292.583	80.89
292.798	-11.26
293.012	84.99
293.227	-23.55
293.442	-56.32
293.657	-44.03
293.871	39.94
294.086	41.98
294.301	41.98
294.516	15.36
294.73	31.74
294.945	-44.03
295.16	23.55
295.374	74.75
295.589	21.5
295.804	9.22
296.018	33.79
296.233	-21.5
296.447	27.65
296.662	21.5
296.877	-25.6
297.091	21.5
297.306	19.46
297.52	19.46
297.735	29.7
297.949	37.89
298.164	-11.26
298.378	35.84
298.593	48.13
298.807	-5.12
299.022	48.13
299.236	23.55
299.451	19.46
299.665	70.65
299.88	66.56
300.094	35.84
300.309	29.7
300.523	-5.12
300.737	66.56
300.952	48.13
301.166	58.37
301.381	48.13
301.595	31.74
301.809	7.17
302.024	-9.22
302.238	72.7
302.452	44.03
302.667	41.98
302.881	-7.17
303.095	19.46
303.309	76.8
303.524	27.65
303.738	33.79
303.952	31.74
304.166	19.46
304.381	-99.33
304.595	9.22
304.809	29.7
305.023	29.7
305.237	17.41
305.452	-1.02
305.666	23.55
305.88	46.08
306.094	21.5
306.308	52.22
306.522	11.26
306.736	29.7
306.95	-15.36
307.164	7.17
307.379	25.6
307.593	54.27
307.807	11.26
308.021	35.84
308.235	27.65
308.449	-5.12
308.663	-21.5
308.877	17.41
309.091	44.03
309.305	39.94
309.519	-1.02
309.733	66.56
309.947	-31.74
310.161	119.81
310.374	62.46
310.588	84.99
310.802	11.26
311.016	70.65
311.23	21.5
311.444	56.32
311.658	70.65
311.872	17.41
312.085	-46.08
312.299	5.12
312.513	11.26
312.727	95.23
312.941	27.65
313.154	35.84
313.368	11.26
313.582	15.36
313.796	52.22
314.009	74.75
314.223	31.74
314.437	93.18
314.651	130.05
314.864	105.47
315.078	3.07
315.292	21.5
315.505	54.27
315.719	37.89
315.933	23.55
316.146	27.65
316.36	37.89
316.573	54.27
316.787	9.22
317.001	78.85
317.214	64.51
317.428	31.74
317.641	-33.79
317.855	25.6
318.068	29.7
318.282	37.89
318.495	87.04
318.709	9.22
318.922	37.89
319.136	27.65
319.349	-13.31
319.563	84.99
319.776	48.13
319.99	68.61
320.203	41.98
320.417	-25.6
320.63	7.17
320.843	62.46
321.057	-25.6
321.27	66.56
321.483	62.46
321.697	93.18
321.91	44.03
322.124	29.7
322.337	-3.07
322.55	66.56
322.763	146.43
322.977	23.55
323.19	80.89
323.403	41.98
323.617	13.31
323.83	-15.36
324.043	19.46
324.256	39.94
324.469	64.51
324.683	-5.12
324.896	11.26
325.109	5.12
325.322	-54.27
325.535	33.79
325.748	29.7
325.962	128
326.175	62.46
326.388	93.18
326.601	62.46
326.814	21.5
327.027	13.31
327.24	111.61
327.453	-21.5
327.666	70.65
327.879	13.31
328.092	84.99
328.305	52.22
328.518	52.22
328.731	58.37
328.944	23.55
329.157	-9.22
329.37	52.22
329.583	-3.07
329.796	66.56
330.009	-50.18
330.222	76.8
330.435	76.8
330.648	37.89
330.861	-13.31
331.073	37.89
331.286	70.65
331.499	-7.17
331.712	-15.36
331.925	91.13
332.138	27.65
332.35	41.98
332.563	3.07
332.776	103.42
332.989	5.12
333.202	62.46
333.414	-13.31
333.627	19.46
333.84	35.84
334.053	87.04
334.265	-1.02
334.478	-9.22
334.691	1.02
334.903	39.94
335.116	9.22
335.329	52.22
335.541	-84.99
335.754	58.37
335.966	60.42
336.179	-44.03
336.392	58.37
336.604	54.27
336.817	50.18
337.029	46.08
337.242	-13.31
337.454	62.46
337.667	68.61
337.88	70.65
338.092	74.75
338.305	13.31
338.517	-60.42
338.729	84.99
338.942	125.95
339.154	11.26
339.367	27.65
339.579	74.75
339.792	33.79
340.004	-29.7
340.217	70.65
340.429	64.51
340.641	44.03
340.854	60.42
341.066	-1.02
341.278	68.61
341.491	105.47
341.703	31.74
341.915	13.31
342.128	60.42
342.34	33.79
342.552	54.27
342.764	11.26
342.977	48.13
343.189	93.18
343.401	31.74
343.613	-1.02
343.826	21.5
344.038	48.13
344.25	15.36
344.462	76.8
344.674	54.27
344.886	35.84
345.099	44.03
345.311	19.46
345.523	50.18
345.735	50.18
345.947	46.08
346.159	-7.17
346.371	29.7
346.583	13.31
346.795	134.14
347.007	-35.84
347.219	84.99
347.431	21.5
347.643	80.89
347.855	9.22
348.067	37.89
348.279	56.32
348.491	31.74
348.703	80.89
348.915	3.07
349.127	15.36
349.339	74.75
349.551	35.84
349.763	84.99
349.975	54.27
350.187	66.56
350.399	17.41
350.61	87.04
350.822	64.51
351.034	119.81
351.246	54.27
351.458	41.98
351.669	17.41
351.881	9.22
352.093	-11.26
352.305	123.9
352.517	52.22
352.728	66.56
352.94	-3.07
353.152	50.18
353.363	33.79
353.575	-27.65
353.787	31.74
353.999	76.8
354.21	5.12
354.422	11.26
354.633	78.85
354.845	48.13
355.057	7.17
355.268	21.5
355.48	11.26
355.692	60.42
355.903	-23.55
356.115	70.65
356.326	25.6
356.538	87.04
356.749	50.18
356.961	82.94
357.172	-7.17
357.384	29.7
357.595	48.13
357.807	46.08
358.018	-3.07
358.23	80.89
358.441	58.37
358.653	31.74
358.864	46.08
359.075	19.46
359.287	5.12
359.498	64.51
359.709	23.55
359.921	-7.17
360.132	3.07
360.344	54.27
360.555	21.5
360.766	-33.79
360.977	64.51
361.189	41.98
361.4	41.98
361.611	41.98
361.823	68.61
362.034	84.99
362.245	25.6
362.456	46.08
362.667	3.07
362.879	-15.36
363.09	74.75
363.301	13.31
363.512	93.18
363.723	-11.26
363.935	25.6
364.146	58.37
364.357	3.07
364.568	95.23
364.779	-39.94
364.99	87.04
365.201	41.98
365.412	13.31
365.623	-5.12
365.834	13.31
366.045	1.02
366.256	52.22
366.467	62.46
366.678	21.5
366.889	-21.5
367.1	48.13
367.311	27.65
367.522	66.56
367.733	52.22
367.944	56.32
368.155	5.12
368.366	70.65
368.577	60.42
368.788	64.51
368.999	33.79
369.209	70.65
369.42	50.18
369.631	-11.26
369.842	29.7
370.053	56.32
370.264	41.98
370.474	44.03
370.685	70.65
370.896	-15.36
371.107	46.08
371.317	39.94
371.528	37.89
371.739	97.28
371.95	37.89
372.16	103.42
372.371	11.26
372.582	115.71
372.792	132.09
373.003	21.5
373.214	76.8
373.424	113.66
373.635	-9.22
373.846	74.75
374.056	97.28
374.267	87.04
374.477	48.13
374.688	89.09
374.898	39.94
375.109	48.13
375.319	35.84
375.53	13.31
375.74	101.37
375.951	23.55
376.161	72.7
376.372	97.28
376.582	-39.94
376.793	87.04
377.003	46.08
377.214	33.79
377.424	103.42
377.635	60.42
377.845	80.89
378.055	7.17
378.266	15.36
378.476	5.12
378.686	29.7
378.897	3.07
379.107	19.46
379.317	62.46
379.528	27.65
379.738	87.04
379.948	84.99
380.158	46.08
380.369	74.75
380.579	56.32
380.789	-1.02
380.999	111.61
381.21	68.61
381.42	125.95
381.63	70.65
381.84	62.46
382.05	74.75
382.261	60.42
382.471	89.09
382.681	39.94
382.891	-17.41
383.101	66.56
383.311	-33.79
383.521	37.89
383.731	46.08
383.941	31.74
384.151	50.18
384.361	125.95
384.571	70.65
384.781	9.22
384.991	60.42
385.201	44.03
385.411	9.22
385.621	48.13
385.831	-1.02
386.041	37.89
386.251	9.22
386.461	72.7
386.671	21.5
386.881	5.12
387.091	50.18
387.301	113.66
387.511	29.7
387.72	111.61
387.93	52.22
388.14	1.02
388.35	25.6
388.56	58.37
388.769	74.75
388.979	52.22
389.189	15.36
389.399	91.13
389.609	48.13
389.818	19.46
390.028	93.18
390.238	13.31
390.447	33.79
390.657	80.89
390.867	31.74
391.076	11.26
391.286	70.65
391.496	52.22
391.705	-11.26
391.915	156.67
392.125	84.99
392.334	80.89
392.544	37.89
392.753	37.89
392.963	103.42
393.172	35.84
393.382	-7.17
393.591	5.12
393.801	82.94
394.01	41.98
394.22	97.28
394.429	21.5
394.639	25.6
394.848	58.37
395.058	105.47
395.267	82.94
395.477	54.27
395.686	62.46
395.895	25.6
396.105	54.27
396.314	115.71
396.524	121.85
396.733	101.37
396.942	91.13
397.152	52.22
397.361	46.08
397.57	58.37
397.78	7.17
397.989	60.42
398.198	138.24
398.407	-1.02
398.617	72.7
398.826	82.94
399.035	84.99
399.244	89.09
399.453	37.89
399.663	101.37
399.872	48.13
400.081	132.09
400.29	46.08
400.499	87.04
400.708	101.37
400.917	5.12
401.127	25.6
401.336	82.94
401.545	52.22
401.754	113.66
401.963	103.42
402.172	37.89
402.381	107.52
402.59	84.99
402.799	95.23
403.008	91.13
403.217	27.65
403.426	105.47
403.635	68.61
403.844	-21.5
404.053	84.99
404.262	29.7
404.471	103.42
404.68	111.61
404.888	162.81
405.097	101.37
405.306	111.61
405.515	111.61
405.724	103.42
405.933	156.67
406.142	50.18
406.35	72.7
406.559	150.53
406.768	130.05
406.977	125.95
407.185	89.09
407.394	211.96
407.603	93.18
407.812	111.61
408.02	173.05
408.229	173.05
408.438	113.66
408.646	121.85
408.855	181.25
409.064	154.62
409.272	156.67
409.481	142.33
409.69	138.24
409.898	171.01
410.107	222.2
410.315	277.5
410.524	195.58
410.733	191.49
410.941	154.62
411.15	250.88
411.358	220.16
411.567	240.64
411.775	222.2
411.984	324.6
412.192	238.59
412.401	291.84
412.609	386.04
412.818	297.98
413.026	330.75
413.234	308.22
413.443	263.16
413.651	375.8
413.86	343.03
414.068	365.56
414.276	431.1
414.485	451.58
414.693	414.71
414.901	449.53
415.11	383.99
415.318	500.73
415.526	416.76
415.734	478.2
415.943	521.21
416.151	441.34
416.359	453.63
416.567	537.59
416.776	603.13
416.984	650.23
417.192	580.6
417.4	642.04
417.608	605.17
417.817	611.32
418.025	650.23
418.233	764.92
418.441	764.92
418.649	740.34
418.857	809.97
419.065	814.07
419.273	816.12
419.481	855.03
419.689	871.41
419.897	893.94
420.105	1006.58
420.313	922.61
420.521	1029.1
420.729	992.24
420.937	1041.39
421.145	1039.34
421.353	1145.84
421.561	1252.33
421.769	1217.52
421.977	1289.2
422.185	1262.57
422.393	1430.51
422.601	1420.27
422.809	1500.14
423.017	1321.96
423.224	1483.75
423.432	1567.72
423.64	1549.29
423.848	1692.65
424.056	1567.72
424.263	1850.34
424.471	1706.98
424.679	1825.76
424.887	1780.71
425.094	1897.44
425.302	1899.49
425.51	1962.98
425.718	2042.85
425.925	2087.9
426.133	2194.4
426.341	2319.32
426.548	2370.52
426.756	2276.32
426.964	2348
427.171	2585.56
427.379	2700.25
427.586	2690.01
427.794	2825.17
428.001	2872.28
428.209	2894.8
428.417	2956.24
428.624	3126.22
428.832	3169.23
429.039	3097.55
429.247	3142.61
429.454	3369.93
429.662	3744.71
429.869	3486.67
430.076	3675.08
430.284	3578.83
430.491	3767.24
430.699	3969.99
430.906	3924.93
431.114	4117.44
431.321	4289.47
431.528	4236.22
431.736	4682.68
431.943	4674.49
432.15	4725.69
432.358	4778.94
432.565	5073.84
432.772	4867
432.979	5204.91
433.187	5256.11
433.394	5204.91
433.601	5655.47
433.808	5647.27
434.016	5659.56
434.223	5878.69
434.43	6286.24
434.637	6063.01
434.844	6462.37
435.052	6527.9
435.259	6599.58
435.466	6693.79
435.673	6591.39
435.88	7132.05
436.087	7312.27
436.294	7367.57
436.501	7379.86
436.708	7451.53
436.915	7621.52
437.122	8082.31
437.329	7904.14
437.537	8164.23
437.743	8438.66
437.95	8264.58
438.157	8803.19
438.364	9012.09
438.571	9032.57
438.778	9114.48
438.985	10003.3
439.192	9282.42
439.399	9866.09
439.606	9517.93
439.813	10255.2
440.02	10654.56
440.227	10554.21
440.433	10546.02
440.64	10955.61
440.847	10804.06
441.054	11019.1
441.261	11840.33
441.467	11533.14
441.674	12180.29
441.881	12194.63
442.088	12278.6
442.294	11879.24
442.501	12450.63
442.708	12782.4
442.914	13411.12
443.121	13818.67
443.328	13054.78
443.534	14093.1
443.741	14080.81
443.948	13738.8
444.154	14678.82
444.361	14633.76
444.568	14764.83
444.774	14656.29
444.981	14760.73
445.187	15403.8
445.394	16036.62
445.6	15702.8
445.807	17562.36
446.013	16657.15
446.22	16847.61
446.426	17771.25
446.633	17668.85
446.839	18397.93
447.046	17414.9
447.252	18479.85
447.459	18619.11
447.665	18465.51
447.871	19266.27
448.078	20110.03
448.284	18944.73
448.491	19727.06
448.697	20488.9
448.903	20935.36
449.11	20705.99
449.316	20400.84
449.522	20914.88
449.728	21566.13
449.935	21596.85
450.141	21752.5
450.347	22158
450.553	21371.58
450.76	21934.77
450.966	22287.02
451.172	22409.9
451.378	23212.7
451.584	22610.6
451.791	22987.43
451.997	22708.9
452.203	22823.59
452.409	23231.13
452.615	23153.31
452.821	22301.36
453.027	21963.44
453.233	23259.81
453.44	22528.68
453.646	22545.06
453.852	22626.98
454.058	23192.22
454.264	22577.83
454.47	22880.93
454.676	22416.04
454.882	23351.96
455.088	21314.23
455.294	21424.83
455.5	21848.75
455.705	22268.59
455.911	21162.69
456.117	21091.01
456.323	20736.71
456.529	19434.2
456.735	20343.5
456.941	19751.63
457.147	19405.53
457.352	18885.34
457.558	18701.03
457.764	18932.45
457.97	18391.78
458.176	18064.11
458.381	18090.73
458.587	17332.98
458.793	17347.32
458.999	16397.06
459.204	17332.98
459.41	16966.4
459.616	15835.92
459.821	15887.12
460.027	16005.9
460.233	15368.98
460.438	14682.91
460.644	15018.78
460.85	14197.54
461.055	14265.13
461.261	13833
461.466	13093.69
461.672	12671.81
461.878	13658.93
462.083	12593.98
462.289	12600.13
462.494	12180.29
462.7	11690.83
462.905	11557.71
463.111	11889.48
463.316	11844.43
463.522	11580.24
463.727	11670.35
463.932	11576.14
464.138	11641.68
464.343	11428.69
464.549	11256.66
464.754	11754.32
464.959	11686.73
465.165	11600.72
465.37	11119.45
465.575	10810.2
465.781	11373.39
465.986	11354.96
466.191	10898.27
466.397	10652.51
466.602	10238.82
466.807	10693.47
467.012	10644.32
467.218	10613.6
467.423	10523.49
467.628	10754.91
467.833	11082.58
468.038	10451.81
468.244	10216.29
468.449	10601.31
468.654	10310.5
468.859	10097.51
469.064	10144.61
469.269	9620.33
469.474	10023.78
469.679	9941.86
469.885	9821.03
470.09	9829.23
470.295	9874.28
470.5	9616.24
470.705	9483.12
470.91	9331.57
471.115	9247.6
471.32	9501.55
471.525	9395.06
471.73	9173.88
471.935	9075.57
472.139	8872.82
472.344	9048.95
472.549	8883.06
472.754	8870.78
472.959	8620.92
473.164	8645.5
473.369	8397.7
473.574	8754.04
473.778	8502.14
473.983	8309.63
474.188	8317.83
474.393	8102.79
474.598	8037.25
474.802	8133.51
475.007	7844.74
475.212	7850.89
475.417	7633.8
475.621	7564.17
475.826	7596.94
476.031	7531.41
476.235	7261.07
476.44	7437.2
476.645	7205.78
476.849	7418.77
477.054	7183.25
477.259	7220.11
477.463	7121.81
477.668	6833.05
477.872	6970.26
478.077	6783.9
478.282	6736.79
478.486	6548.38
478.691	6824.86
478.895	6638.49
479.1	6556.57
479.304	6581.15
479.509	6304.67
479.713	6460.32
479.918	6353.82
480.122	6157.22
480.326	6427.55
480.531	6448.03
480.735	6110.11
480.94	6073.25
481.144	6417.31
481.348	6204.32
481.553	6237.09
481.757	6030.24
481.961	6011.81
482.166	6159.27
482.37	6187.94
482.574	6056.87
482.778	6034.34
482.983	6196.13
483.187	6179.75
483.391	6321.06
483.595	5977
483.8	5962.66
484.004	6067.11
484.208	6257.57
484.412	6202.27
484.616	6155.17
484.821	5983.14
485.025	5925.8
485.229	6155.17
485.433	6108.07
485.637	6161.31
485.841	5942.18
486.045	6362.01
486.249	6214.56
486.453	6179.75
486.657	6171.55
486.861	6327.2
487.065	6173.6
487.269	6171.55
487.473	6118.31
487.677	6370.21
487.881	6267.81
488.085	6187.94
488.289	6263.71
488.493	6249.38
488.697	6218.66
488.901	6261.66
489.105	6300.58
489.309	6400.93
489.512	6378.4
489.716	6392.73
489.92	6341.54
490.124	6443.93
490.328	6491.04
490.531	6458.27
490.735	6536.09
490.939	6689.69
491.143	6654.87
491.346	6511.52
491.55	6767.51
491.754	6669.21
491.958	6652.83
492.161	6755.22
492.365	6734.75
492.569	6695.83
492.772	6763.42
492.976	6890.39
493.18	7111.57
493.383	7107.48
493.587	7064.47
493.79	7285.65
493.994	6927.25
494.197	7048.08
494.401	7256.98
494.605	7279.5
494.808	7512.97
495.012	7506.83
495.215	7394.19
495.419	7783.31
495.622	7682.95
495.825	7738.25
496.029	7615.37
496.232	7777.16
496.436	7623.56
496.639	8104.84
496.843	8016.77
497.046	8283.01
497.249	8459.13
497.453	8459.13
497.656	8545.15
497.859	8579.97
498.063	8633.21
498.266	8776.57
498.469	8924.02
498.673	9110.39
498.876	9114.48
499.079	9309.04
499.282	9350
499.485	9358.19
499.689	9493.36
499.892	9780.07
500.095	9775.98
500.298	9929.58
500.501	9892.71
500.705	10185.57
500.908	10177.38
501.111	10408.8
501.314	10591.07
501.517	10881.88
501.72	10779.48
501.923	10978.14
502.126	11207.51
502.329	11346.77
502.532	11383.63
502.735	11660.11
502.938	11627.34
503.141	12026.7
503.344	12135.24
503.547	11807.56
503.75	12155.72
503.953	12528.45
504.156	12673.85
504.359	12854.08
504.562	12892.99
504.765	13237.05
504.968	13134.65
505.17	13486.9
505.373	13409.08
505.576	13806.38
505.779	14068.52
505.982	14068.52
506.185	14363.43
506.387	14420.77
506.59	14811.93
506.793	14922.52
506.996	14738.21
507.198	15299.35
507.401	15479.57
507.604	15530.77
507.807	15786.77
508.009	15835.92
508.212	16169.74
508.415	16552.71
508.617	16491.27
508.82	16689.92
509.022	16700.16
509.225	17081.08
509.428	17302.26
509.63	17591.03
509.833	17472.25
510.035	17883.89
510.238	17974
510.44	18563.81
510.643	18551.52
510.845	18866.91
511.048	18787.04
511.25	19145.44
511.453	19133.15
511.655	19892.94
511.858	19663.57
512.06	19966.67
512.262	20200.14
512.465	20159.18
512.667	20507.34
512.87	21097.15
513.072	20916.93
513.274	21197.5
513.477	21605.05
513.679	21770.93
513.881	21942.96
514.084	22239.92
514.286	22393.51
514.488	22563.5
514.69	23270.04
514.893	23304.86
515.095	23018.14
515.297	23702.17
515.499	23870.1
515.701	23972.5
515.904	24441.48
516.106	24507.02
516.308	24830.6
516.51	24943.24
516.712	25184.9
516.914	25356.93
517.116	25883.25
517.318	26245.74
517.52	26307.18
517.722	26196.59
517.925	26958.44
518.127	26802.79
518.329	27218.53
518.531	27140.71
518.733	27609.69
518.935	28127.83
519.136	28121.68
519.338	28574.28
519.54	28729.93
519.742	28826.18
519.944	28891.72
520.146	29508.16
520.348	29651.52
520.55	29858.36
520.752	29971
520.954	30347.82
521.155	30392.88
521.357	30693.93
521.559	31009.32
521.761	31611.42
521.963	31564.32
522.164	31318.56
522.366	32043.54
522.568	32162.33
522.77	32246.29
522.971	32647.69
523.173	32709.13
523.375	33067.53
523.576	33038.86
523.778	32979.46
523.98	33090.06
524.181	33600
524.383	34009.59
524.584	34136.57
524.786	34456.05
524.988	34032.12
525.189	34673.13
525.391	34746.86
525.592	34826.73
525.794	35344.87
525.995	35178.98
526.197	35191.27
526.398	35221.99
526.6	35871.2
526.801	35678.69
527.003	36196.82
527.204	36135.38
527.406	36579.79
527.607	36479.44
527.808	36792.78
528.01	36379.09
528.211	36866.51
528.412	37253.58
528.614	37194.18
528.815	37292.49
529.016	37511.62
529.218	37048.78
529.419	37740.99
529.62	37362.12
529.822	37460.42
530.023	37685.7
530.224	37935.55
530.425	37816.77
530.626	37550.53
530.828	37722.56
531.029	38136.25
531.23	37794.24
531.431	37808.58
531.632	38611.38
531.833	38379.96
532.035	38144.44
532.236	38728.11
532.437	38377.91
532.638	38328.76
532.839	38867.37
533.04	38861.23
533.241	38586.8
533.442	39178.67
533.643	39055.79
533.844	38810.03
534.045	39236.01
534.246	38816.18
534.447	39072.17
534.648	39199.15
534.849	38996.4
535.05	38963.63
535.251	39420.33
535.451	38853.04
535.652	39283.11
535.853	39174.57
536.054	39166.38
536.255	39336.36
536.456	39082.41
536.657	39571.88
536.857	38934.96
537.058	39233.96
537.259	39879.07
537.46	39653.79
537.66	39842.21
537.861	39674.27
538.062	39713.19
538.263	39864.74
538.463	39336.36
538.664	39430.57
538.865	39758.24
539.065	40085.92
539.266	39315.88
539.466	39844.26
539.667	39397.8
539.868	40176.03
540.068	40077.72
540.269	39393.7
540.469	39901.6
540.67	39610.79
540.87	39588.26
541.071	39815.58
541.271	40227.23
541.472	40014.24
541.672	39727.52
541.873	39717.28
542.073	39618.98
542.274	40499.61
542.474	39963.04
542.675	39377.32
542.875	40417.69
543.075	39889.31
543.276	39377.32
543.476	40210.84
543.676	39973.28
543.877	39917.98
544.077	40104.35
544.277	40278.43
544.478	40075.68
544.678	40145.31
544.878	40012.19
545.078	40239.51
545.279	40063.39
545.479	39870.88
545.679	40487.32
545.879	39940.51
546.079	40022.43
546.28	40348.06
546.48	39635.36
546.68	40493.46
546.88	40251.8
547.08	40085.92
547.28	40112.54
547.48	40036.77
547.68	40176.03
547.88	40090.01
548.081	40319.38
548.281	40231.32
548.481	40049.05
548.681	40612.24
548.881	40016.29
549.081	40491.41
549.28	39893.41
549.48	40286.62
549.68	40434.07
549.88	40591.76
550.08	40219.03
550.28	40255.9
550.48	40163.74
550.68	40466.84
550.88	40067.48
551.08	39997.85
551.279	40020.38
551.479	40051.1
551.679	40286.62
551.879	39960.99
552.079	40503.7
552.278	40124.83
552.478	39948.7
552.678	39983.52
552.878	40407.45
553.077	39991.71
553.277	39969.18
553.477	40399.26
553.676	39631.27
553.876	40343.96
554.076	39862.69
554.275	39750.05
554.475	39729.57
554.674	39870.88
554.874	40188.31
555.074	39608.74
555.273	40024.48
555.473	40272.28
555.672	39440.81
555.872	39999.9
556.071	39713.19
556.271	40028.57
556.47	39856.54
556.67	39791.01
556.869	39780.77
557.068	39956.89
557.268	39637.41
557.467	39795.1
557.667	39813.54
557.866	39623.08
558.065	39698.85
558.265	39887.26
558.464	39604.64
558.663	39455.14
558.863	39121.32
559.062	40350.1
559.261	39530.92
559.461	39999.9
559.66	39477.67
559.859	39422.37
560.058	39094.7
560.258	39610.79
560.457	39186.86
560.656	39883.17
560.855	39635.36
561.054	39754.15
561.253	39094.7
561.453	39336.36
561.652	39461.29
561.851	39393.7
562.05	39473.57
562.249	39426.47
562.448	39510.44
562.647	39424.42
562.846	39428.52
563.045	39104.94
563.244	39061.93
563.443	39446.95
563.642	38992.3
563.841	39174.57
564.04	38699.44
564.239	39412.13
564.438	39127.47
564.637	39141.8
564.836	39463.33
565.035	38638
565.234	39164.33
565.432	39168.43
565.631	38586.8
565.83	38928.81
566.029	39061.93
566.228	38724.02
566.427	38732.21
566.625	38943.15
566.824	38525.36
567.023	39025.07
567.222	38461.88
567.42	38906.29
567.619	38502.84
567.818	38807.98
568.016	38414.77
568.215	39160.23
568.414	38580.66
568.612	38820.27
568.811	38316.47
569.01	38615.47
569.208	37874.11
569.407	38742.45
569.605	38177.21
569.804	38865.33
570.002	38361.53
570.201	38384.05
570.4	38676.91
570.598	38103.48
570.797	38308.28
570.995	38386.1
571.193	37638.59
571.392	38320.57
571.59	37767.62
571.789	38017.47
571.987	37835.2
572.186	37759.42
572.384	37865.92
572.582	37878.21
572.781	37902.78
572.979	37736.9
573.177	37605.83
573.376	37788.1
573.574	37519.81
573.772	37743.04
573.971	37009.87
574.169	37378.5
574.367	37204.42
574.565	37431.75
574.763	36915.66
574.962	36923.85
575.16	36821.45
575.358	37210.57
575.556	36895.18
575.754	37161.42
575.952	36639.18
576.151	37038.54
576.349	36862.41
576.547	36473.3
576.745	36663.76
576.943	36833.74
577.141	36372.95
577.339	36600.27
577.537	36585.94
577.735	36170.2
577.933	36303.32
578.131	36188.63
578.329	35918.3
578.527	36119
578.725	36301.27
578.923	36241.88
579.121	35860.96
579.319	35473.89
579.516	35955.16
579.714	35596.77
579.912	35477.99
580.11	35617.25
580.308	35359.2
580.506	35193.32
580.704	34879.98
580.901	35271.14
581.099	35250.66
581.297	35181.03
581.495	34677.23
581.692	35379.68
581.89	34714.09
582.088	35412.45
582.285	34339.32
582.483	34912.75
582.681	34589.17
582.878	34712.05
583.076	34378.23
583.274	34585.07
583.471	33917.43
583.669	34513.39
583.866	34193.91
584.064	34093.56
584.262	33745.41
584.459	34445.81
584.657	33962.49
584.854	34148.85
585.052	33643.01
585.249	33796.6
585.447	33868.28
585.644	33430.02
585.841	33434.11
586.039	33763.84
586.236	33214.98
586.434	33198.6
586.631	33114.63
586.828	32739.85
587.026	32850.44
587.223	33057.29
587.42	32696.85
587.618	32786.96
587.815	32268.82
588.012	32670.22
588.21	32336.4
588.407	32999.94
588.604	32399.89
588.801	32268.82
588.999	32348.69
589.196	32274.96
589.393	31711.77
589.59	32182.8
589.787	31730.2
589.984	31785.5
590.182	31695.39
590.379	31922.71
590.576	31365.67
590.773	31795.74
590.97	31169.06
591.167	31322.66
591.364	30933.54
591.561	31302.18
591.758	30677.55
591.955	31144.48
592.152	31183.4
592.349	30810.67
592.546	30986.79
592.743	30931.5
592.94	30753.32
593.137	30757.42
593.334	31013.41
593.531	30378.54
593.727	30120.5
593.924	30347.82
594.121	30325.3
594.318	30231.09
594.515	29932.09
594.712	30235.19
594.908	29604.41
595.105	30022.2
595.302	29575.74
595.499	29618.75
595.696	29524.54
595.892	29340.22
596.089	29751.87
596.286	29502.01
596.482	28987.97
596.679	29241.92
596.876	29530.69
597.072	29041.22
597.269	28742.22
597.466	29049.41
597.662	28584.52
597.859	28803.66
598.055	28598.86
598.252	28504.65
598.448	28510.8
598.645	28584.52
598.841	28228.18
599.038	28107.35
599.234	28449.36
599.431	27812.44
599.627	27968.09
599.824	28070.48
600.02	27757.14
600.217	28162.64
600.413	27542.11
600.609	27275.87
600.806	27621.98
601.002	27806.3
601.198	27587.16
601.395	27394.65
601.591	27269.73
601.787	27269.73
601.984	26823.27
602.18	27372.13
602.376	27066.98
602.572	26681.96
602.769	26632.81
602.965	26659.43
603.161	26782.31
603.357	26303.09
603.553	26534.51
603.75	26749.54
603.946	26231.41
604.142	26444.4
604.338	26045.04
604.534	26348.14
604.73	25832.05
604.926	26047.09
605.122	25846.39
605.318	25805.43
605.514	25707.13
605.71	25248.38
605.906	25592.44
606.102	25475.71
606.298	25670.26
606.494	25244.29
606.69	25412.22
606.886	25262.72
607.082	25115.26
607.278	24998.53
607.474	24650.38
607.67	25315.97
607.866	25070.21
608.062	24910.47
608.257	24730.25
608.453	24816.26
608.649	25029.25
608.845	24406.67
609.041	24664.71
609.236	24552.07
609.432	24339.08
609.628	24214.16
609.824	24298.13
610.019	24271.5
610.215	24224.4
610.411	24279.69
610.606	24195.73
610.802	24083.09
610.998	24296.08
611.193	24367.76
611.389	23982.74
611.584	23892.63
611.78	23866
611.976	23775.89
612.171	24132.24
612.367	23720.6
612.562	23376.54
612.758	23673.49
612.953	23839.38
613.149	23773.85
613.344	23581.34
613.539	23761.56
613.735	23515.8
613.93	23558.81
614.126	23505.56
614.321	23417.5
614.517	23325.34
614.712	23460.51
614.907	23325.34
615.103	23401.11
615.298	22801.06
615.493	23564.95
615.688	22911.65
615.884	23544.47
616.079	22825.64
616.274	22985.38
616.47	23001.76
616.665	22887.07
616.86	22784.68
617.055	22923.94
617.25	22936.23
617.445	22700.71
617.641	22409.9
617.836	22579.88
618.031	22301.36
618.226	22479.53
618.421	22313.64
618.616	22588.07
618.811	22016.69
619.006	22090.41
619.201	21697.2
619.396	21760.69
619.591	21738.16
619.786	21711.54
619.981	21564.09
620.176	21772.98
620.371	21660.34
620.566	21541.56
620.761	21369.53
620.956	21377.72
621.151	21033.66
621.346	21406.39
621.541	20607.69
621.735	20990.66
621.93	20536.01
622.125	20884.16
622.32	20187.85
622.515	20544.2
622.709	20058.83
622.904	20277.96
623.099	20075.21
623.294	20202.19
623.488	19841.75
623.683	19698.39
623.878	19518.17
624.072	19679.96
624.267	19452.63
624.462	19442.39
624.656	19303.13
624.851	19299.03
625.046	19045.09
625.24	19057.37
625.435	18801.38
625.629	18936.54
625.824	18567.91
626.018	18770.66
626.213	18238.19
626.407	18569.96
626.602	18205.42
626.796	18440.93
626.991	18186.99
627.185	18008.81
627.38	18060.01
627.574	17683.19
627.768	17707.76
627.963	17801.97
628.157	17371.89
628.352	17451.77
628.546	17240.82
628.74	17844.98
628.935	17130.23
629.129	17232.63
629.323	17091.32
629.517	16687.87
629.712	16814.85
629.906	16890.62
630.1	16636.67
630.294	16929.53
630.489	16397.06
630.683	16689.92
630.877	16296.71
631.071	16311.05
631.265	16399.11
631.459	16206.6
631.653	15760.14
631.848	15919.89
632.042	15952.65
632.236	16016.14
632.43	15696.66
632.624	15475.48
632.818	15385.37
633.012	15239.96
633.206	15536.91
633.4	15676.18
633.594	15174.42
633.788	15280.92
633.982	14992.16
634.176	15076.12
634.369	15031.07
634.563	14805.79
634.757	14893.85
634.951	14588.71
635.145	14770.97
635.339	14555.94
635.533	14639.9
635.726	14650.14
635.92	14457.64
636.114	14418.72
636.308	13998.89
636.501	14220.07
636.695	14129.96
636.889	13849.39
637.083	14129.96
637.276	13919.02
637.47	13753.13
637.664	13644.59
637.857	13792.05
638.051	13746.99
638.244	13591.34
638.438	13441.84
638.632	13349.68
638.825	13253.43
639.019	13351.73
639.212	13421.36
639.406	12989.24
639.599	13048.63
639.793	13161.27
639.986	12825.4
640.18	12911.42
640.373	12835.64
640.567	12581.7
640.76	12880.7
640.954	12526.4
641.147	12462.91
641.34	12327.75
641.534	12311.36
641.727	12301.12
641.92	12192.58
642.114	12088.14
642.307	12137.29
642.5	11922.25
642.694	11791.18
642.887	11805.52
643.08	11897.67
643.273	11799.37
643.467	11834.19
643.66	11471.7
643.853	11420.5
644.046	11375.44
644.239	11369.3
644.432	11496.27
644.626	11314
644.819	11393.87
645.012	11080.53
645.205	11283.28
645.398	11012.95
645.591	11043.67
645.784	11023.19
645.977	10898.27
646.17	10797.92
646.363	10589.02
646.556	10726.24
646.749	10625.89
646.942	10496.86
647.135	10419.04
647.328	10462.05
647.521	10359.65
647.714	10156.9
647.907	10271.59
648.099	10103.65
648.292	10259.3
648.485	9917.29
648.678	9745.26
648.871	9937.77
649.064	10031.97
649.256	10048.36
649.449	9851.75
649.642	9544.56
649.835	9632.62
650.027	9702.25
650.22	9630.57
650.413	9601.9
650.605	9296.75
650.798	9399.15
650.991	9294.71
651.183	9044.85
651.376	9345.91
651.568	9378.67
651.761	9180.02
651.954	8962.94
652.146	9202.55
652.339	8987.51
652.531	8874.87
652.724	8911.74
652.916	8745.85
653.109	8895.35
653.301	8788.86
653.494	8827.77
653.686	8616.83
653.879	8696.7
654.071	8582.01
654.263	8338.3
654.456	8430.46
654.648	8389.5
654.84	8405.89
655.033	8276.87
655.225	8295.3
655.417	8219.52
655.61	8285.06
655.802	8215.43
655.994	8098.69
656.186	7902.09
656.379	7928.71
656.571	7795.59
656.763	7781.26
656.955	7861.13
657.148	7977.86
657.34	7846.79
657.532	7578.51
657.724	7531.41
657.916	7713.67
658.108	7406.48
658.3	7500.69
658.492	7527.31
658.684	7377.81
658.876	7375.76
659.068	7386
659.26	7246.74
659.452	7238.55
659.644	7046.04
659.836	7154.58
660.028	7043.99
660.22	6712.22
660.412	6835.1
660.604	6759.32
660.796	6859.67
660.988	6640.54
661.18	6658.97
661.372	6566.81
661.563	6671.26
661.755	6509.47
661.947	6585.24
662.139	6392.73
662.331	6478.75
662.522	6468.51
662.714	6427.55
662.906	6294.43
663.097	6302.62
663.289	6349.73
663.481	6194.08
663.673	6228.9
663.864	5981.09
664.056	6017.96
664.247	6060.96
664.439	5884.84
664.631	5952.42
664.822	6065.06
665.014	6011.81
665.205	5813.16
665.397	6030.24
665.588	5680.04
665.78	5788.58
665.971	5780.39
666.163	5696.43
666.354	5737.38
666.546	5575.59
666.737	5485.48
666.929	5469.1
667.12	5440.43
667.311	5311.41
667.503	5297.07
667.694	5282.74
667.885	5190.58
668.077	5284.78
668.268	5151.67
668.459	5292.98
668.651	5180.34
668.842	5135.28
669.033	5020.6
669.224	5057.46
669.416	5039.03
669.607	5028.79
669.798	4975.54
669.989	4934.58
670.18	5004.21
670.371	4795.32
670.563	4764.6
670.754	4762.55
670.945	4660.15
671.136	4750.26
671.327	4666.3
671.518	4633.53
671.709	4578.23
671.9	4625.34
672.091	4625.34
672.282	4512.7
672.473	4369.34
672.664	4467.64
672.855	4576.19
673.046	4377.53
673.237	4516.8
673.428	4320.19
673.619	4387.77
673.809	4316.09
674	4398.01
674.191	4281.28
674.382	4187.07
674.573	4234.18
674.764	4289.47
674.954	4236.22
675.145	4174.78
675.336	4316.09
675.527	4207.55
675.717	4142.02
675.908	4090.82
676.099	3986.37
676.289	4160.45
676.48	4082.63
676.671	4045.76
676.861	3974.08
677.052	3931.08
677.243	3933.12
677.433	4082.63
677.624	3972.04
677.814	3906.5
678.005	3861.45
678.195	3951.56
678.386	3820.49
678.576	3793.86
678.767	3775.43
678.957	3869.64
679.148	3838.92
679.338	3740.61
679.529	3783.62
679.719	3845.06
679.909	3894.21
680.1	3763.14
680.29	3736.52
680.481	3757
680.671	3587.02
680.861	3673.03
681.052	3554.25
681.242	3658.7
681.432	3720.14
681.622	3732.42
681.813	3693.51
682.003	3523.53
682.193	3568.59
682.383	3666.89
682.573	3613.64
682.764	3539.91
682.954	3460.04
683.144	3470.28
683.334	3539.91
683.524	3478.47
683.714	3384.27
683.904	3494.86
684.094	3544.01
684.284	3396.56
684.474	3361.74
684.664	3345.36
684.854	3513.29
685.044	3326.93
685.234	3527.63
685.424	3347.4
685.614	3425.23
685.804	3376.08
685.994	3412.94
686.184	3421.13
686.374	3320.78
686.564	3304.4
686.753	3363.79
686.943	3208.14
687.133	3263.44
687.323	3242.96
687.513	3208.14
687.702	3288.01
687.892	3339.21
688.082	3298.25
688.272	3357.64
688.461	3263.44
688.651	3320.78
688.841	3230.67
689.03	3179.47
689.22	3257.29
689.41	3300.3
689.599	3249.1
689.789	3222.48
689.979	3238.86
690.168	3197.9
690.358	3156.94
690.547	3242.96
690.737	3187.66
690.926	3261.39
691.116	3197.9
691.305	3154.9
691.495	3105.74
691.684	3042.26
691.874	3214.29
692.063	3124.18
692.252	3070.93
692.442	3161.04
692.631	3111.89
692.82	3083.22
693.01	3058.64
693.199	3095.5
693.388	3066.83
693.578	3111.89
693.767	2941.91
693.956	3034.07
694.146	2989.01
694.335	3036.11
694.524	3060.69
694.713	2888.66
694.902	2935.76
695.092	2948.05
695.281	2995.15
695.47	2989.01
695.659	2837.46
695.848	3017.68
696.037	2989.01
696.226	3099.6
696.415	2948.05
696.604	2925.52
696.793	2640.86
696.982	2903
697.171	2872.28
697.36	2909.14
697.549	2819.03
697.738	2851.8
697.927	2718.68
698.116	2759.64
698.305	2751.45
698.494	2769.88
698.683	2839.51
698.872	2780.12
699.061	2767.83
699.25	2630.62
699.438	2669.53
699.627	2745.3
699.816	2665.43
700.005	2620.38
700.193	2647
700.382	2681.82
700.571	2685.91
700.76	2671.58
700.948	2692.05
701.137	2694.1
701.326	2667.48
701.514	2593.75
701.703	2569.18
701.892	2485.21
702.08	2542.55
702.269	2620.38
702.457	2417.63
702.646	2550.75
702.834	2438.11
703.023	2388.96
703.212	2452.44
703.4	2419.68
703.589	2483.16
703.777	2327.52
703.965	2470.87
704.154	2360.28
704.342	2442.2
704.531	2397.15
704.719	2321.37
704.907	2386.91
705.096	2415.58
705.284	2315.23
705.472	2311.13
705.661	2302.94
705.849	2329.56
706.037	2296.8
706.226	2292.7
706.414	2298.84
706.602	2198.49
706.79	2257.89
706.979	2231.26
707.167	2200.54
707.355	2171.87
707.543	2173.92
707.731	2214.88
707.919	2190.3
708.107	2104.29
708.296	2151.39
708.484	1934.31
708.672	2132.96
708.86	2067.42
709.048	2096.1
709.236	2001.89
709.424	2040.8
709.612	2055.14
709.8	2128.86
709.988	1977.31
710.176	2014.18
710.364	1977.31
710.551	2034.66
710.739	1979.36
710.927	1973.22
711.115	1905.63
711.303	1893.35
711.491	1905.63
711.679	1876.96
711.866	1948.64
712.054	1891.3
712.242	1983.46
712.43	1891.3
712.617	1815.52
712.805	1774.56
712.993	1954.79
713.181	1823.72
713.368	1840.1
713.556	1735.65
713.744	1876.96
713.931	1764.33
714.119	1842.15
714.306	1737.7
714.494	1805.28
714.682	1815.52
714.869	1749.99
715.057	1754.09
715.244	1676.26
715.432	1846.24
715.619	1790.95
715.807	1749.99
715.994	1659.88
716.182	1686.5
716.369	1661.93
716.556	1760.23
716.744	1747.94
716.931	1698.79
717.119	1625.06
717.306	1586.15
717.493	1561.58
717.681	1672.17
717.868	1639.4
718.055	1506.28
718.242	1598.44
718.43	1627.11
718.617	1530.86
718.804	1551.34
718.991	1584.1
719.179	1516.52
719.366	1563.62
719.553	1551.34
719.74	1510.38
719.927	1543.14
720.114	1442.79
720.301	1547.24
720.488	1522.66
720.676	1493.99
720.863	1514.47
721.05	1405.93
721.237	1393.64
721.424	1330.16
721.611	1491.95
721.798	1397.74
721.985	1436.65
722.172	1405.93
722.358	1395.69
722.545	1395.69
722.732	1356.78
722.919	1397.74
723.106	1391.59
723.293	1252.33
723.48	1371.12
723.667	1307.63
723.853	1262.57
724.04	1338.35
724.227	1326.06
724.414	1387.5
724.6	1289.2
724.787	1270.76
724.974	1272.81
725.161	1289.2
725.347	1272.81
725.534	1223.66
725.72	1190.89
725.907	1301.48
726.094	1205.23
726.28	1199.09
726.467	1268.72
726.653	1266.67
726.84	1211.37
727.027	1229.81
727.213	1182.7
727.4	1186.8
727.586	1250.28
727.773	1305.58
727.959	1129.45
728.145	1194.99
728.332	1219.57
728.518	1176.56
728.705	1156.08
728.891	1123.31
729.077	1266.67
729.264	1061.87
729.45	1070.06
729.636	1043.44
729.823	1088.5
730.009	1182.7
730.195	1080.3
730.382	1020.91
730.568	1094.64
730.754	1053.68
730.94	1127.41
731.126	936.95
731.313	1094.64
731.499	1033.2
731.685	1004.53
731.871	982
732.057	1080.3
732.243	1031.15
732.429	994.29
732.615	898.03
732.801	1096.69
732.987	977.91
733.173	986.1
733.359	965.62
733.545	959.47
733.731	965.62
733.917	953.33
734.103	1020.91
734.289	898.03
734.475	994.29
734.661	947.19
734.847	916.47
735.033	900.08
735.219	957.43
735.404	930.8
735.59	895.99
735.776	963.57
735.962	891.89
736.148	951.28
736.333	941.04
736.519	869.36
736.705	861.17
736.89	941.04
737.076	916.47
737.262	859.12
737.447	934.9
737.633	887.79
737.819	869.36
738.004	840.69
738.19	844.79
738.375	826.36
738.561	832.5
738.747	857.07
738.932	726
739.118	857.07
739.303	869.36
739.489	836.6
739.674	826.36
739.859	785.4
740.045	830.45
740.23	791.54
740.416	791.54
740.601	891.89
740.786	830.45
740.972	642.04
741.157	746.48
741.342	803.83
741.528	775.16
741.713	797.68
741.898	797.68
742.084	715.77
742.269	758.77
742.454	750.58
742.639	705.53
742.824	728.05
743.01	752.63
743.195	781.3
743.38	791.54
743.565	683
743.75	730.1
743.935	717.81
744.12	685.05
744.305	703.48
744.49	771.06
744.675	734.2
744.86	683
745.045	666.61
745.23	666.61
745.415	764.92
745.6	660.47
745.785	633.85
745.97	683
746.155	652.28
746.34	705.53
746.525	629.75
746.71	646.13
746.895	617.46
747.079	607.22
747.264	668.66
747.449	654.33
747.634	601.08
747.819	648.18
748.003	578.55
748.188	590.84
748.373	646.13
748.557	592.89
748.742	562.17
748.927	556.02
749.111	619.51
749.296	578.55
749.481	551.93
749.665	574.46
749.85	568.31
750.034	619.51
750.219	529.4
750.404	613.37
750.588	558.07
750.773	541.69
750.957	443.39
751.141	547.83
751.326	556.02
751.51	543.74
751.695	535.54
751.879	506.87
752.064	553.98
752.248	539.64
752.432	537.59
752.617	529.4
752.801	635.89
752.985	562.17
753.17	556.02
753.354	558.07
753.538	576.5
753.722	584.7
753.907	541.69
754.091	467.96
754.275	531.45
754.459	539.64
754.643	537.59
754.828	455.67
755.012	490.49
755.196	427
755.38	478.2
755.564	484.34
755.748	445.43
755.932	443.39
756.116	470.01
756.3	406.52
756.484	420.86
756.668	521.21
756.852	431.1
757.036	531.45
757.22	420.86
757.404	435.19
757.588	439.29
757.772	478.2
757.956	470.01
758.14	470.01
758.323	416.76
758.507	435.19
758.691	461.82
758.875	386.04
759.059	437.24
759.242	470.01
759.426	488.44
759.61	338.94
759.794	474.1
759.977	427
760.161	416.76
760.345	494.58
760.528	484.34
760.712	402.43
760.895	416.76
761.079	386.04
761.263	412.67
761.446	349.18
761.63	347.13
761.813	424.95
761.997	463.86
762.18	373.75
762.364	367.61
762.547	427
762.731	406.52
762.914	340.99
763.098	381.95
763.281	361.47
763.464	453.63
763.648	330.75
763.831	369.66
764.015	314.36
764.198	373.75
764.381	404.47
764.564	373.75
764.748	379.9
764.931	449.53
765.114	332.79
765.297	396.28
765.481	369.66
765.664	322.56
765.847	400.38
766.03	394.23
766.213	363.51
766.397	355.32
766.58	287.74
766.763	289.79
766.946	347.13
767.129	347.13
767.312	381.95
767.495	320.51
767.678	320.51
767.861	351.23
768.044	334.84
768.227	355.32
768.41	250.88
768.593	383.99
768.776	291.84
768.959	347.13
769.142	322.56
769.324	347.13
769.507	318.46
769.69	420.86
769.873	343.03
770.056	338.94
770.239	330.75
770.421	402.43
770.604	377.85
770.787	396.28
770.97	295.93
771.152	275.45
771.335	312.32
771.518	381.95
771.7	355.32
771.883	379.9
772.066	322.56
772.248	338.94
772.431	306.17
772.613	334.84
772.796	261.12
772.978	414.71
773.161	402.43
773.343	349.18
773.526	246.78
773.708	365.56
773.891	334.84
774.073	322.56
774.256	355.32
774.438	336.89
774.621	273.4
774.803	367.61
774.985	283.64
775.168	365.56
775.35	314.36
775.532	330.75
775.715	297.98
775.897	236.54
776.079	257.02
776.261	236.54
776.444	250.88
776.626	322.56
776.808	277.5
776.99	312.32
777.173	261.12
777.355	277.5
777.537	289.79
777.719	297.98
777.901	289.79
778.083	261.12
778.265	230.4
778.447	287.74
778.629	267.26
778.811	297.98
778.993	275.45
779.175	306.17
779.357	234.49
779.539	240.64
779.721	240.64
779.903	300.03
780.085	230.4
780.267	232.44
780.449	297.98
780.631	228.35
780.812	220.16
780.994	283.64
781.176	220.16
781.358	285.69
781.54	211.96
781.721	248.83
781.903	205.82
782.085	207.87
782.267	279.55
782.448	261.12
782.63	224.25
782.812	234.49
782.993	183.29
783.175	173.05
783.357	183.29
783.538	267.26
783.72	220.16
783.901	209.92
784.083	234.49
784.264	226.3
784.446	207.87
784.627	246.78
784.809	236.54
784.99	248.83
785.172	181.25
785.353	183.29
785.535	226.3
785.716	281.6
785.897	158.72
786.079	228.35
786.26	216.06
786.441	162.81
786.623	259.07
786.804	265.21
786.985	142.33
787.167	291.84
787.348	193.53
787.529	175.1
787.71	248.83
787.891	191.49
788.073	181.25
788.254	199.68
788.435	185.34
788.616	224.25
788.797	164.86
788.978	226.3
789.159	160.77
789.34	128
789.522	185.34
789.703	185.34
789.884	205.82
790.065	187.39
790.246	265.21
790.427	113.66
790.607	181.25
790.788	214.01
790.969	179.2
791.15	162.81
791.331	185.34
791.512	156.67
791.693	187.39
791.874	109.57
792.054	162.81
792.235	179.2
792.416	189.44
792.597	179.2
792.778	203.77
792.958	93.18
793.139	140.29
793.32	148.48
793.5	189.44
793.681	185.34
793.862	168.96
794.042	179.2
794.223	117.76
794.404	138.24
794.584	179.2
794.765	269.31
794.945	168.96
795.126	87.04
795.306	146.43
795.487	160.77
795.667	70.65
795.848	125.95
796.028	105.47
796.209	199.68
796.389	132.09
796.57	113.66
796.75	201.72
796.93	197.63
797.111	117.76
797.291	177.15
797.471	197.63
797.652	62.46
797.832	181.25
798.012	136.19
798.192	183.29
798.373	156.67
798.553	113.66
798.733	56.32
798.913	101.37
799.093	107.52
799.274	171.01
799.454	158.72
799.634	101.37
799.814	156.67
799.994	123.9
800.174	158.72
800.354	95.23
800.534	66.56
800.714	150.53
800.894	76.8
801.074	168.96
801.254	136.19
801.434	156.67
801.614	50.18
801.794	154.62
801.974	297.98
802.154	115.71
802.334	152.57
802.514	183.29
802.693	113.66
802.873	91.13
803.053	44.03
803.233	171.01
803.413	113.66
803.592	35.84
803.772	173.05
803.952	54.27
804.131	132.09
804.311	82.94
804.491	91.13
804.67	76.8
804.85	50.18
805.03	91.13
805.209	162.81
805.389	193.53
805.568	148.48
805.748	72.7
805.928	144.38
806.107	109.57
806.287	72.7
806.466	103.42
806.646	150.53
806.825	80.89
807.004	91.13
807.184	-13.31
807.363	68.61
807.543	50.18
807.722	117.76
807.901	78.85
808.081	99.33
808.26	87.04
808.439	68.61
808.619	50.18
808.798	93.18
808.977	48.13
809.156	97.28
809.336	70.65
809.515	152.57
809.694	107.52
809.873	142.33
810.052	87.04
810.231	72.7
810.411	93.18
810.59	68.61
810.769	166.91
810.948	62.46
811.127	101.37
811.306	103.42
811.485	39.94
811.664	62.46
811.843	97.28
812.022	125.95
812.201	111.61
812.38	21.5
812.559	-25.6
812.737	95.23
812.916	134.14
813.095	50.18
813.274	-11.26
813.453	105.47
813.632	56.32
813.811	93.18
813.989	-31.74
814.168	95.23
814.347	95.23
814.526	29.7
814.704	105.47
814.883	97.28
815.062	68.61
815.24	113.66
815.419	99.33
815.598	72.7
815.776	-1.02
815.955	89.09
816.133	48.13
816.312	35.84
816.49	74.75
816.669	44.03
816.847	52.22
817.026	99.33
817.204	66.56
817.383	78.85
817.561	11.26
817.74	46.08
817.918	97.28
818.097	44.03
818.275	80.89
818.453	39.94
818.632	21.5
818.81	68.61
818.988	97.28
819.167	-13.31
819.345	66.56
819.523	113.66
819.701	35.84
819.879	15.36
820.058	41.98
820.236	54.27
820.414	37.89
820.592	-1.02
820.77	-35.84
820.948	70.65
821.127	-25.6
821.305	101.37
821.483	84.99
821.661	134.14
821.839	33.79
822.017	25.6
822.195	132.09
822.373	76.8
822.551	52.22
822.729	66.56
822.907	84.99
823.085	156.67
823.262	9.22
823.44	117.76
823.618	58.37
823.796	87.04
823.974	31.74
824.152	87.04
824.329	21.5
824.507	101.37
824.685	13.31
824.863	80.89
825.04	37.89
825.218	82.94
825.396	72.7
825.574	44.03
825.751	70.65
825.929	105.47
826.107	-31.74
826.284	31.74
826.462	39.94
826.639	66.56
826.817	95.23
826.994	50.18
827.172	27.65
827.349	31.74
827.527	-19.46
827.704	48.13
827.882	23.55
828.059	97.28
828.237	54.27
828.414	39.94
828.591	62.46
828.769	62.46
828.946	11.26
829.124	48.13
829.301	70.65
829.478	68.61
829.655	9.22
829.833	93.18
830.01	44.03
830.187	76.8
830.364	17.41
830.542	44.03
830.719	11.26
830.896	-5.12
831.073	35.84
831.25	-21.5
831.427	7.17
831.604	41.98
831.782	50.18
831.959	76.8
832.136	64.51
832.313	31.74
832.49	80.89
832.667	64.51
832.844	52.22
833.021	52.22
833.198	54.27
833.374	125.95
833.551	21.5
833.728	-13.31
833.905	62.46
834.082	52.22
834.259	33.79
834.436	78.85
834.612	35.84
834.789	62.46
834.966	-9.22
835.143	44.03
835.319	25.6
835.496	78.85
835.673	-25.6
835.85	128
836.026	48.13
836.203	15.36
836.38	9.22
836.556	48.13
836.733	35.84
836.909	29.7
837.086	37.89
837.262	-11.26
837.439	-17.41
837.616	-27.65
837.792	50.18
837.968	13.31
838.145	11.26
838.321	101.37
838.498	74.75
838.674	80.89
838.851	19.46
839.027	60.42
839.203	35.84
839.38	-1.02
839.556	5.12
839.732	23.55
839.909	29.7
840.085	56.32
840.261	-11.26
840.437	21.5
840.614	68.61
840.79	70.65
840.966	21.5
841.142	11.26
841.318	-62.46
841.494	27.65
841.671	5.12
841.847	64.51
842.023	13.31
842.199	62.46
842.375	19.46
842.551	3.07
842.727	5.12
842.903	19.46
843.079	54.27
843.255	58.37
843.431	58.37
843.607	99.33
843.783	48.13
843.959	19.46
844.134	64.51
844.31	84.99
844.486	56.32
844.662	84.99
844.838	54.27
845.013	21.5
845.189	1.02
845.365	35.84
845.541	-27.65
845.716	44.03
845.892	50.18
846.068	35.84
846.244	15.36
846.419	109.57
846.595	66.56
846.77	54.27
846.946	109.57
847.122	89.09
847.297	62.46
847.473	48.13
847.648	80.89
847.824	1.02
847.999	-31.74
848.175	128
848.35	-15.36
848.526	-19.46
848.701	-1.02
848.876	70.65
849.052	17.41
849.227	-19.46
849.403	23.55
849.578	78.85
849.753	17.41
849.929	-17.41
850.104	27.65
850.279	21.5
850.454	17.41
850.63	56.32
850.805	68.61
850.98	52.22
851.155	-41.98
851.33	27.65
851.505	9.22
851.681	48.13
851.856	-11.26
852.031	-11.26
852.206	-39.94
852.381	121.85
852.556	50.18
852.731	29.7
852.906	21.5
853.081	44.03
853.256	60.42
853.431	72.7
853.606	-9.22
853.781	-29.7
853.956	21.5
854.131	11.26
854.305	13.31
854.48	33.79
854.655	-17.41
854.83	3.07
855.005	64.51
855.18	15.36
855.354	-39.94
855.529	89.09
855.704	-17.41
855.879	-21.5
856.053	58.37
856.228	72.7
856.403	11.26
856.577	21.5
856.752	-3.07
856.926	35.84
857.101	-1.02
857.276	44.03
857.45	50.18
857.625	-19.46
857.799	-5.12
857.974	66.56
858.148	29.7
858.323	-13.31
858.497	-15.36
858.672	-15.36
858.846	11.26
859.02	99.33
859.195	29.7
859.369	70.65
859.543	46.08
859.718	1.02
859.892	50.18
860.066	-1.02
860.241	3.07
860.415	-11.26
860.589	44.03
860.763	17.41
860.938	-29.7
861.112	48.13
861.286	11.26
861.46	-9.22
861.634	-5.12
861.808	41.98
861.982	11.26
862.157	-7.17
862.331	54.27
862.505	-11.26
862.679	-23.55
862.853	-33.79
863.027	-48.13
863.201	50.18
863.375	31.74
863.549	19.46
863.722	93.18
863.896	27.65
864.07	5.12
864.244	-21.5
864.418	-39.94
864.592	25.6
864.766	-37.89
864.939	-3.07
865.113	-23.55
865.287	48.13
865.461	-23.55
865.634	-56.32
865.808	41.98
865.982	58.37
866.156	-23.55
866.329	-52.22
866.503	-3.07
866.676	72.7
866.85	39.94
867.024	5.12
867.197	-31.74
867.371	15.36
867.544	-29.7
867.718	-25.6
867.891	15.36
868.065	-1.02
868.238	21.5
868.412	33.79
868.585	5.12
868.759	-50.18
868.932	78.85
869.105	7.17
869.279	3.07
869.452	-5.12
869.625	13.31
869.799	19.46
869.972	80.89
870.145	3.07
870.319	52.22
870.492	19.46
870.665	27.65
870.838	21.5
871.011	-5.12
871.185	25.6
871.358	35.84
871.531	37.89
871.704	9.22
871.877	1.02
872.05	-39.94
872.223	-15.36
872.396	35.84
872.569	54.27
872.742	-70.65
872.915	15.36
873.088	3.07
873.261	3.07
873.434	-58.37
873.607	11.26
873.78	-35.84
873.953	35.84
874.126	-46.08
874.299	35.84
874.471	-44.03
874.644	21.5
874.817	78.85
874.99	44.03
875.163	3.07
875.335	15.36
875.508	-13.31
875.681	54.27
875.853	-52.22
876.026	-27.65
876.199	19.46
876.371	68.61
876.544	11.26
876.717	17.41
876.889	-37.89
877.062	72.7
877.234	11.26
877.407	-29.7
877.579	-17.41
877.752	9.22
877.924	70.65
878.097	9.22
878.269	48.13
878.442	-27.65
878.614	-1.02
878.786	3.07
878.959	11.26
879.131	54.27
879.303	-33.79
879.476	35.84
879.648	66.56
879.82	-9.22
879.993	-46.08
880.165	84.99
880.337	11.26
880.509	48.13
880.681	-52.22
880.854	19.46
881.026	15.36
881.198	175.1
881.37	-23.55
881.542	21.5
881.714	-35.84
881.886	5.12
882.058	60.42
882.23	3.07
882.402	56.32
882.574	-11.26
882.746	19.46
882.918	37.89
883.09	19.46
883.262	76.8
883.434	-19.46
883.606	35.84
883.778	11.26
883.95	-1.02
884.122	7.17
884.293	-11.26
884.465	-44.03
884.637	95.23
884.809	-17.41
884.98	41.98
885.152	56.32
885.324	76.8
885.496	48.13
885.667	76.8
885.839	-50.18
886.011	48.13
886.182	-21.5
886.354	-33.79
886.525	-17.41
886.697	23.55
886.869	-1.02
887.04	52.22
887.212	66.56
887.383	97.28
887.555	-9.22
887.726	-46.08
887.897	-19.46
888.069	-3.07
888.24	-1.02
888.412	-11.26
888.583	-33.79
888.754	-11.26
888.926	37.89
889.097	-1.02
889.268	39.94
889.44	-15.36
889.611	-76.8
889.782	-19.46
889.953	41.98
890.125	41.98
890.296	5.12
890.467	52.22
890.638	-60.42
890.809	15.36
890.98	-66.56
891.151	19.46
891.323	97.28
891.494	-66.56
891.665	15.36
891.836	33.79
892.007	37.89
892.178	-3.07
892.349	19.46
892.52	-31.74
892.691	37.89
892.862	-15.36
893.032	9.22
893.203	72.7
893.374	21.5
893.545	58.37
893.716	-25.6
893.887	-48.13
894.057	25.6
894.228	72.7
894.399	52.22
894.57	70.65
894.74	19.46
894.911	-21.5
895.082	44.03
895.253	7.17
895.423	56.32
895.594	19.46
895.764	-25.6
895.935	1.02
896.106	-25.6
896.276	21.5
896.447	-31.74
896.617	39.94
896.788	-21.5
896.958	-27.65
897.129	-70.65
897.299	46.08
897.47	50.18
897.64	5.12
897.81	33.79
897.981	70.65
898.151	29.7
898.322	74.75
898.492	27.65
898.662	37.89
898.832	80.89
899.003	-13.31
899.173	11.26
899.343	25.6
899.513	29.7
