Data from USB4F104151__32__12-53-39-706.txt Node

Date: Fri Mar 14 12:53:39 EDT 2025
User: louis
Spectrometer: USB4F10415
Trigger mode: 4
Integration Time (sec): 1.000000E-2
Scans to average: 1
Electric dark correction enabled: true
Nonlinearity correction enabled: false
Boxcar width: 0
XAxis mode: Wavelengths
Number of Pixels in Spectrum: 3648
>>>>>Begin Spectral Data<<<<<
178.204	-70.14
178.424	-70.14
178.644	-70.14
178.864	-35.33
179.084	7.68
179.304	30.21
179.524	-12.8
179.744	-2.56
179.964	-39.42
180.184	22.02
180.404	22.02
180.624	-14.85
180.844	-10.75
181.064	-8.7
181.283	62.98
181.503	-12.8
181.723	-35.33
181.943	-45.57
182.163	38.4
182.383	24.06
182.602	42.5
182.822	32.26
183.042	71.17
183.262	-12.8
183.482	-35.33
183.701	28.16
183.921	50.69
184.141	46.59
184.361	-14.85
184.58	67.07
184.8	36.35
185.02	1.54
185.239	46.59
185.459	-6.66
185.679	-4.61
185.898	-10.75
186.118	-31.23
186.338	-39.42
186.557	42.5
186.777	99.84
186.997	38.4
187.216	50.69
187.436	9.73
187.655	-23.04
187.875	54.78
188.095	1.54
188.314	38.4
188.534	65.02
188.753	108.03
188.973	-10.75
189.192	15.87
189.412	22.02
189.631	-0.51
189.851	5.63
190.07	5.63
190.29	3.58
190.509	-55.81
190.729	81.41
190.948	-18.94
191.168	34.3
191.387	17.92
191.607	-18.94
191.826	38.4
192.045	19.97
192.265	60.93
192.484	-0.51
192.704	-31.23
192.923	28.16
193.142	73.21
193.362	-16.9
193.581	50.69
193.8	3.58
194.02	81.41
194.239	-35.33
194.458	32.26
194.678	1.54
194.897	-2.56
195.116	32.26
195.335	3.58
195.555	13.82
195.774	34.3
195.993	71.17
196.212	77.31
196.432	-23.04
196.651	46.59
196.87	-2.56
197.089	40.45
197.308	73.21
197.528	44.54
197.747	103.93
197.966	-43.52
198.185	-10.75
198.404	54.78
198.623	87.55
198.842	-29.18
199.062	58.88
199.281	32.26
199.5	48.64
199.719	19.97
199.938	3.58
200.157	36.35
200.376	122.37
200.595	101.89
200.814	73.21
201.033	42.5
201.252	73.21
201.471	-2.56
201.69	11.78
201.909	38.4
202.128	-2.56
202.347	62.98
202.566	89.6
202.785	13.82
203.004	62.98
203.223	75.26
203.442	-31.23
203.661	91.65
203.879	-47.62
204.098	83.45
204.317	30.21
204.536	-4.61
204.755	36.35
204.974	99.84
205.193	81.41
205.411	13.82
205.63	30.21
205.849	22.02
206.068	-23.04
206.287	19.97
206.505	36.35
206.724	38.4
206.943	58.88
207.162	40.45
207.381	-43.52
207.599	71.17
207.818	77.31
208.037	1.54
208.255	34.3
208.474	42.5
208.693	11.78
208.911	54.78
209.13	-8.7
209.349	32.26
209.567	-16.9
209.786	71.17
210.005	19.97
210.223	11.78
210.442	-33.28
210.661	30.21
210.879	-31.23
211.098	17.92
211.316	44.54
211.535	15.87
211.753	44.54
211.972	48.64
212.191	15.87
212.409	15.87
212.628	58.88
212.846	28.16
213.065	-10.75
213.283	99.84
213.502	40.45
213.72	-43.52
213.938	73.21
214.157	22.02
214.375	1.54
214.594	19.97
214.812	58.88
215.031	19.97
215.249	1.54
215.467	89.6
215.686	-41.47
215.904	67.07
216.122	46.59
216.341	-16.9
216.559	-33.28
216.778	89.6
216.996	19.97
217.214	50.69
217.432	81.41
217.651	65.02
217.869	60.93
218.087	165.37
218.306	1.54
218.524	89.6
218.742	9.73
218.96	69.12
219.179	60.93
219.397	1.54
219.615	-39.42
219.833	65.02
220.051	60.93
220.27	34.3
220.488	-0.51
220.706	91.65
220.924	-31.23
221.142	52.74
221.36	85.5
221.578	34.3
221.796	-20.99
222.015	30.21
222.233	30.21
222.451	48.64
222.669	-31.23
222.887	81.41
223.105	24.06
223.323	-14.85
223.541	58.88
223.759	56.83
223.977	22.02
224.195	132.61
224.413	-2.56
224.631	65.02
224.849	46.59
225.067	46.59
225.285	32.26
225.503	60.93
225.721	5.63
225.939	15.87
226.157	24.06
226.375	91.65
226.592	91.65
226.81	58.88
227.028	26.11
227.246	-8.7
227.464	-49.66
227.682	-14.85
227.9	-43.52
228.117	99.84
228.335	13.82
228.553	58.88
228.771	17.92
228.989	26.11
229.206	-12.8
229.424	-96.77
229.642	15.87
229.86	-14.85
230.077	30.21
230.295	-2.56
230.513	1.54
230.731	9.73
230.948	44.54
231.166	3.58
231.384	13.82
231.601	-68.09
231.819	114.17
232.037	65.02
232.254	-31.23
232.472	-2.56
232.689	28.16
232.907	71.17
233.125	24.06
233.342	-25.09
233.56	-25.09
233.777	17.92
233.995	75.26
234.213	48.64
234.43	26.11
234.648	67.07
234.865	-18.94
235.083	32.26
235.3	-14.85
235.518	65.02
235.735	1.54
235.953	-23.04
236.17	19.97
236.388	32.26
236.605	-4.61
236.822	-6.66
237.04	7.68
237.257	-12.8
237.475	52.74
237.692	38.4
237.909	77.31
238.127	60.93
238.344	-8.7
238.562	54.78
238.779	-70.14
238.996	58.88
239.214	28.16
239.431	1.54
239.648	-14.85
239.865	9.73
240.083	48.64
240.3	105.98
240.517	44.54
240.735	17.92
240.952	26.11
241.169	-12.8
241.386	71.17
241.603	22.02
241.821	1.54
242.038	112.13
242.255	69.12
242.472	11.78
242.689	83.45
242.907	-4.61
243.124	13.82
243.341	58.88
243.558	-2.56
243.775	54.78
243.992	34.3
244.209	15.87
244.426	24.06
244.643	17.92
244.86	83.45
245.078	24.06
245.295	48.64
245.512	-25.09
245.729	9.73
245.946	46.59
246.163	77.31
246.38	38.4
246.597	58.88
246.814	48.64
247.031	87.55
247.248	54.78
247.464	-16.9
247.681	26.11
247.898	-14.85
248.115	40.45
248.332	65.02
248.549	22.02
248.766	-8.7
248.983	32.26
249.2	91.65
249.417	73.21
249.633	36.35
249.85	-31.23
250.067	56.83
250.284	52.74
250.501	44.54
250.717	56.83
250.934	19.97
251.151	13.82
251.368	26.11
251.585	69.12
251.801	7.68
252.018	34.3
252.235	36.35
252.451	-70.14
252.668	71.17
252.885	108.03
253.102	32.26
253.318	130.56
253.535	32.26
253.752	32.26
253.968	48.64
254.185	56.83
254.401	-6.66
254.618	-23.04
254.835	-61.95
255.051	54.78
255.268	7.68
255.484	26.11
255.701	30.21
255.917	42.5
256.134	26.11
256.351	-10.75
256.567	28.16
256.784	34.3
257	54.78
257.217	75.26
257.433	-37.38
257.65	-16.9
257.866	7.68
258.082	-23.04
258.299	46.59
258.515	32.26
258.732	-4.61
258.948	40.45
259.165	58.88
259.381	52.74
259.597	17.92
259.814	46.59
260.03	22.02
260.246	30.21
260.463	-2.56
260.679	42.5
260.895	-20.99
261.112	101.89
261.328	60.93
261.544	19.97
261.761	-64
261.977	-25.09
262.193	-55.81
262.409	52.74
262.626	5.63
262.842	11.78
263.058	13.82
263.274	85.5
263.49	36.35
263.707	40.45
263.923	52.74
264.139	54.78
264.355	22.02
264.571	67.07
264.787	-12.8
265.004	56.83
265.22	56.83
265.436	46.59
265.652	26.11
265.868	48.64
266.084	-2.56
266.3	3.58
266.516	3.58
266.732	67.07
266.948	3.58
267.164	42.5
267.38	38.4
267.596	52.74
267.812	24.06
268.028	44.54
268.244	-39.42
268.46	40.45
268.676	11.78
268.892	17.92
269.108	-25.09
269.324	36.35
269.54	22.02
269.756	52.74
269.972	52.74
270.188	99.84
270.403	42.5
270.619	1.54
270.835	-8.7
271.051	-23.04
271.267	56.83
271.483	28.16
271.698	-47.62
271.914	-31.23
272.13	69.12
272.346	-31.23
272.562	50.69
272.777	79.36
272.993	32.26
273.209	58.88
273.425	52.74
273.64	60.93
273.856	40.45
274.072	87.55
274.287	17.92
274.503	1.54
274.719	67.07
274.934	-23.04
275.15	-25.09
275.366	3.58
275.581	-25.09
275.797	50.69
276.012	3.58
276.228	-4.61
276.444	24.06
276.659	26.11
276.875	-14.85
277.09	116.22
277.306	-0.51
277.521	58.88
277.737	40.45
277.952	-6.66
278.168	40.45
278.383	71.17
278.599	30.21
278.814	32.26
279.03	32.26
279.245	15.87
279.461	11.78
279.676	-35.33
279.892	-29.18
280.107	-0.51
280.322	32.26
280.538	17.92
280.753	95.74
280.969	54.78
281.184	-18.94
281.399	62.98
281.615	54.78
281.83	22.02
282.045	5.63
282.26	11.78
282.476	62.98
282.691	58.88
282.906	34.3
283.122	-0.51
283.337	15.87
283.552	26.11
283.767	15.87
283.983	-0.51
284.198	17.92
284.413	19.97
284.628	-10.75
284.843	-8.7
285.058	95.74
285.274	65.02
285.489	128.51
285.704	116.22
285.919	-10.75
286.134	11.78
286.349	-10.75
286.564	24.06
286.779	83.45
286.995	11.78
287.21	-25.09
287.425	118.27
287.64	30.21
287.855	83.45
288.07	48.64
288.285	32.26
288.5	32.26
288.715	15.87
288.93	28.16
289.145	-37.38
289.36	44.54
289.575	69.12
289.79	26.11
290.004	83.45
290.219	9.73
290.434	36.35
290.649	-0.51
290.864	11.78
291.079	17.92
291.294	65.02
291.509	30.21
291.724	-4.61
291.938	26.11
292.153	38.4
292.368	24.06
292.583	19.97
292.798	-14.85
293.012	69.12
293.227	-31.23
293.442	54.78
293.657	-33.28
293.871	40.45
294.086	50.69
294.301	75.26
294.516	79.36
294.73	50.69
294.945	-18.94
295.16	17.92
295.374	46.59
295.589	105.98
295.804	17.92
296.018	28.16
296.233	3.58
296.447	60.93
296.662	7.68
296.877	38.4
297.091	-12.8
297.306	22.02
297.52	26.11
297.735	54.78
297.949	77.31
298.164	93.69
298.378	-31.23
298.593	-25.09
298.807	-0.51
299.022	-2.56
299.236	19.97
299.451	91.65
299.665	-10.75
299.88	40.45
300.094	1.54
300.309	110.08
300.523	50.69
300.737	7.68
300.952	36.35
301.166	56.83
301.381	15.87
301.595	17.92
301.809	30.21
302.024	101.89
302.238	-10.75
302.452	65.02
302.667	-12.8
302.881	36.35
303.095	34.3
303.309	24.06
303.524	9.73
303.738	19.97
303.952	19.97
304.166	110.08
304.381	11.78
304.595	30.21
304.809	26.11
305.023	40.45
305.237	71.17
305.452	69.12
305.666	38.4
305.88	1.54
306.094	-12.8
306.308	67.07
306.522	-2.56
306.736	-37.38
306.95	46.59
307.164	13.82
307.379	-27.14
307.593	24.06
307.807	5.63
308.021	87.55
308.235	54.78
308.449	13.82
308.663	79.36
308.877	28.16
309.091	58.88
309.305	56.83
309.519	17.92
309.733	19.97
309.947	40.45
310.161	44.54
310.374	50.69
310.588	-18.94
310.802	79.36
311.016	85.5
311.23	73.21
311.444	40.45
311.658	105.98
311.872	60.93
312.085	36.35
312.299	24.06
312.513	-14.85
312.727	13.82
312.941	-35.33
313.154	34.3
313.368	77.31
313.582	9.73
313.796	46.59
314.009	50.69
314.223	13.82
314.437	93.69
314.651	-0.51
314.864	19.97
315.078	54.78
315.292	-10.75
315.505	-6.66
315.719	112.13
315.933	9.73
316.146	81.41
316.36	-37.38
316.573	11.78
316.787	36.35
317.001	13.82
317.214	-20.99
317.428	36.35
317.641	132.61
317.855	50.69
318.068	-20.99
318.282	67.07
318.495	15.87
318.709	-0.51
318.922	3.58
319.136	60.93
319.349	5.63
319.563	38.4
319.776	101.89
319.99	36.35
320.203	36.35
320.417	71.17
320.63	3.58
320.843	56.83
321.057	13.82
321.27	15.87
321.483	155.13
321.697	91.65
321.91	65.02
322.124	56.83
322.337	58.88
322.55	9.73
322.763	58.88
322.977	46.59
323.19	-33.28
323.403	3.58
323.617	-12.8
323.83	103.93
324.043	13.82
324.256	11.78
324.469	15.87
324.683	77.31
324.896	46.59
325.109	30.21
325.322	-4.61
325.535	69.12
325.748	28.16
325.962	9.73
326.175	38.4
326.388	11.78
326.601	11.78
326.814	77.31
327.027	38.4
327.24	79.36
327.453	-35.33
327.666	17.92
327.879	48.64
328.092	15.87
328.305	56.83
328.518	42.5
328.731	28.16
328.944	-12.8
329.157	134.65
329.37	52.74
329.583	79.36
329.796	30.21
330.009	5.63
330.222	48.64
330.435	42.5
330.648	-31.23
330.861	95.74
331.073	30.21
331.286	7.68
331.499	1.54
331.712	17.92
331.925	-57.86
332.138	-8.7
332.35	75.26
332.563	52.74
332.776	-20.99
332.989	30.21
333.202	36.35
333.414	50.69
333.627	11.78
333.84	93.69
334.053	42.5
334.265	101.89
334.478	48.64
334.691	15.87
334.903	24.06
335.116	26.11
335.329	58.88
335.541	50.69
335.754	97.79
335.966	85.5
336.179	54.78
336.392	24.06
336.604	-2.56
336.817	36.35
337.029	26.11
337.242	89.6
337.454	7.68
337.667	58.88
337.88	-8.7
338.092	-6.66
338.305	99.84
338.517	-10.75
338.729	5.63
338.942	-6.66
339.154	42.5
339.367	40.45
339.579	58.88
339.792	9.73
340.004	34.3
340.217	42.5
340.429	60.93
340.641	40.45
340.854	15.87
341.066	93.69
341.278	56.83
341.491	28.16
341.703	-14.85
341.915	40.45
342.128	87.55
342.34	71.17
342.552	-10.75
342.764	71.17
342.977	67.07
343.189	-2.56
343.401	34.3
343.613	32.26
343.826	58.88
344.038	60.93
344.25	5.63
344.462	87.55
344.674	38.4
344.886	60.93
345.099	56.83
345.311	13.82
345.523	11.78
345.735	11.78
345.947	60.93
346.159	34.3
346.371	-23.04
346.583	-23.04
346.795	-2.56
347.007	26.11
347.219	124.41
347.431	81.41
347.643	56.83
347.855	77.31
348.067	28.16
348.279	-23.04
348.491	-6.66
348.703	60.93
348.915	5.63
349.127	15.87
349.339	36.35
349.551	-20.99
349.763	81.41
349.975	28.16
350.187	126.46
350.399	34.3
350.61	-35.33
350.822	19.97
351.034	40.45
351.246	3.58
351.458	38.4
351.669	77.31
351.881	-37.38
352.093	65.02
352.305	-8.7
352.517	103.93
352.728	-27.14
352.94	60.93
353.152	110.08
353.363	34.3
353.575	34.3
353.787	105.98
353.999	-0.51
354.21	22.02
354.422	30.21
354.633	-14.85
354.845	3.58
355.057	15.87
355.268	3.58
355.48	42.5
355.692	-31.23
355.903	13.82
356.115	38.4
356.326	24.06
356.538	38.4
356.749	-55.81
356.961	97.79
357.172	7.68
357.384	26.11
357.595	-23.04
357.807	34.3
358.018	77.31
358.23	101.89
358.441	-14.85
358.653	5.63
358.864	-0.51
359.075	108.03
359.287	7.68
359.498	77.31
359.709	58.88
359.921	38.4
360.132	65.02
360.344	97.79
360.555	56.83
360.766	3.58
360.977	-76.29
361.189	38.4
361.4	11.78
361.611	7.68
361.823	7.68
362.034	11.78
362.245	-43.52
362.456	-31.23
362.667	69.12
362.879	5.63
363.09	42.5
363.301	56.83
363.512	62.98
363.723	56.83
363.935	9.73
364.146	101.89
364.357	38.4
364.568	-16.9
364.779	-31.23
364.99	48.64
365.201	42.5
365.412	44.54
365.623	128.51
365.834	52.74
366.045	-29.18
366.256	73.21
366.467	36.35
366.678	38.4
366.889	-2.56
367.1	60.93
367.311	93.69
367.522	-2.56
367.733	58.88
367.944	67.07
368.155	11.78
368.366	46.59
368.577	69.12
368.788	71.17
368.999	44.54
369.209	40.45
369.42	65.02
369.631	15.87
369.842	75.26
370.053	65.02
370.264	3.58
370.474	77.31
370.685	87.55
370.896	71.17
371.107	22.02
371.317	148.99
371.528	-39.42
371.739	40.45
371.95	17.92
372.16	67.07
372.371	83.45
372.582	13.82
372.792	24.06
373.003	118.27
373.214	38.4
373.424	15.87
373.635	58.88
373.846	-4.61
374.056	44.54
374.267	22.02
374.477	7.68
374.688	50.69
374.898	71.17
375.109	32.26
375.319	46.59
375.53	79.36
375.74	15.87
375.951	-0.51
376.161	-16.9
376.372	9.73
376.582	11.78
376.793	75.26
377.003	22.02
377.214	50.69
377.424	26.11
377.635	108.03
377.845	32.26
378.055	48.64
378.266	-37.38
378.476	148.99
378.686	-8.7
378.897	42.5
379.107	15.87
379.317	95.74
379.528	11.78
379.738	83.45
379.948	50.69
380.158	40.45
380.369	95.74
380.579	58.88
380.789	-0.51
380.999	7.68
381.21	13.82
381.42	58.88
381.63	-29.18
381.84	75.26
382.05	71.17
382.261	36.35
382.471	77.31
382.681	77.31
382.891	28.16
383.101	60.93
383.311	56.83
383.521	65.02
383.731	40.45
383.941	89.6
384.151	42.5
384.361	42.5
384.571	110.08
384.781	28.16
384.991	95.74
385.201	136.7
385.411	13.82
385.621	11.78
385.831	-4.61
386.041	67.07
386.251	-39.42
386.461	50.69
386.671	40.45
386.881	58.88
387.091	110.08
387.301	42.5
387.511	50.69
387.72	124.41
387.93	83.45
388.14	83.45
388.35	42.5
388.56	58.88
388.769	-59.9
388.979	38.4
389.189	13.82
389.399	67.07
389.609	-4.61
389.818	9.73
390.028	19.97
390.238	34.3
390.447	24.06
390.657	75.26
390.867	36.35
391.076	28.16
391.286	24.06
391.496	58.88
391.705	1.54
391.915	65.02
392.125	54.78
392.334	40.45
392.544	40.45
392.753	50.69
392.963	30.21
393.172	85.5
393.382	60.93
393.591	69.12
393.801	42.5
394.01	71.17
394.22	52.74
394.429	46.59
394.639	110.08
394.848	56.83
395.058	91.65
395.267	93.69
395.477	75.26
395.686	97.79
395.895	105.98
396.105	38.4
396.314	24.06
396.524	38.4
396.733	50.69
396.942	108.03
397.152	50.69
397.361	-6.66
397.57	89.6
397.78	126.46
397.989	91.65
398.198	124.41
398.407	124.41
398.617	42.5
398.826	79.36
399.035	83.45
399.244	32.26
399.453	-2.56
399.663	87.55
399.872	124.41
400.081	165.37
400.29	91.65
400.499	26.11
400.708	93.69
400.917	-47.62
401.127	91.65
401.336	62.98
401.545	46.59
401.754	79.36
401.963	81.41
402.172	99.84
402.381	60.93
402.59	62.98
402.799	151.04
403.008	124.41
403.217	32.26
403.426	79.36
403.635	40.45
403.844	67.07
404.053	34.3
404.262	97.79
404.471	77.31
404.68	65.02
404.888	122.37
405.097	-2.56
405.306	118.27
405.515	69.12
405.724	200.19
405.933	105.98
406.142	165.37
406.35	56.83
406.559	75.26
406.768	101.89
406.977	71.17
407.185	112.13
407.394	50.69
407.603	204.28
407.812	95.74
408.02	134.65
408.229	159.23
408.438	148.99
408.646	167.42
408.855	116.22
409.064	183.81
409.272	173.57
409.481	122.37
409.69	179.71
409.898	120.32
410.107	112.13
410.315	210.43
410.524	128.51
410.733	167.42
410.941	189.95
411.15	185.85
411.358	153.09
411.567	271.87
411.775	245.24
411.984	196.09
412.192	198.14
412.401	173.57
412.609	245.24
412.818	253.44
413.026	208.38
413.234	302.59
413.443	290.3
413.651	345.59
413.86	292.35
414.068	271.87
414.276	294.4
414.485	331.26
414.693	364.03
414.901	314.88
415.11	275.96
415.318	355.83
415.526	333.31
415.734	429.56
415.943	400.89
416.151	415.23
416.359	404.99
416.567	445.95
416.776	437.75
416.984	462.33
417.192	456.19
417.4	505.34
417.608	384.51
417.817	488.95
418.025	523.77
418.233	587.26
418.441	497.14
418.649	542.2
418.857	595.45
419.065	642.55
419.273	538.1
419.481	755.19
419.689	660.98
419.897	783.86
420.105	701.94
420.313	687.61
420.521	792.05
420.729	736.76
420.937	853.49
421.145	820.72
421.353	890.35
421.561	962.03
421.769	980.47
421.977	935.41
422.185	949.75
422.393	1138.16
422.601	1177.07
422.809	1162.73
423.017	1103.34
423.224	1050.1
423.432	1220.08
423.64	1170.93
423.848	1324.52
424.056	1240.56
424.263	1435.11
424.471	1338.86
424.679	1383.91
424.887	1478.12
425.094	1517.03
425.302	1549.8
425.51	1637.86
425.718	1588.71
425.925	1598.95
426.133	1727.97
426.341	1830.37
426.548	1967.59
426.756	1897.96
426.964	1893.86
427.171	1986.02
427.379	2078.18
427.586	2098.66
427.794	2217.44
428.001	2379.23
428.209	2438.62
428.417	2266.59
428.624	2565.59
428.832	2506.2
429.039	2502.11
429.247	2440.67
429.454	2815.45
429.662	2917.84
429.869	2731.48
430.076	2950.61
430.284	2833.88
430.491	2835.92
430.699	3139.02
430.906	3032.53
431.114	3227.09
431.321	3214.8
431.528	3470.8
431.736	3579.34
431.943	3747.27
432.15	3622.34
432.358	3671.5
432.565	3919.3
432.772	3962.31
432.979	4015.55
433.187	4222.4
433.394	4210.11
433.601	4406.72
433.808	4586.94
434.016	4363.71
434.223	4736.44
434.43	4957.62
434.637	4742.58
434.844	5027.25
435.052	5088.69
435.259	5158.32
435.466	5275.06
435.673	5354.93
435.88	5488.04
436.087	5774.76
436.294	5895.59
436.501	5754.28
436.708	5776.81
436.915	5965.22
437.122	6268.32
437.329	6430.11
437.537	6436.25
437.743	6509.98
437.95	6442.4
438.157	6878.62
438.364	7112.08
438.571	6956.44
438.778	7198.1
438.985	7642.51
439.192	7544.2
439.399	7652.75
439.606	7593.36
439.813	7998.85
440.02	8396.16
440.227	8375.68
440.433	8289.67
440.64	8514.94
440.847	8441.22
441.054	8785.27
441.261	9131.38
441.467	9094.52
441.674	9287.03
441.881	9688.43
442.088	9583.98
442.294	9575.79
442.501	9856.36
442.708	9815.4
442.914	10710.36
443.121	10769.76
443.328	10632.54
443.534	11314.52
443.741	10802.52
443.948	11109.72
444.154	11627.85
444.361	11715.92
444.568	11634
444.774	11625.81
444.981	11998.54
445.187	12268.87
445.394	12662.08
445.6	12541.25
445.807	13714.73
446.013	13350.2
446.22	13368.63
446.426	14013.74
446.633	14071.08
446.839	14654.75
447.046	14021.93
447.252	14859.55
447.459	14974.24
447.665	14630.18
447.871	15455.51
448.078	16168.2
448.284	15273.24
448.491	15656.21
448.697	16391.43
448.903	16499.97
449.11	16655.62
449.316	16393.48
449.522	16766.21
449.728	17110.27
449.935	17655.03
450.141	17194.23
450.347	17925.36
450.553	17360.12
450.76	17358.07
450.966	17890.54
451.172	17892.59
451.378	18306.28
451.584	18124.01
451.791	18195.69
451.997	18398.44
452.203	18619.62
452.409	18648.29
452.615	18523.37
452.821	17951.98
453.027	17583.35
453.233	18285.8
453.44	17968.37
453.646	18013.42
453.852	18183.4
454.058	18463.97
454.264	17751.28
454.47	17994.99
454.676	17784.05
454.882	18408.68
455.088	16602.37
455.294	17173.75
455.5	17276.15
455.705	17589.49
455.911	16784.64
456.117	16282.89
456.323	16162.06
456.529	15402.26
456.735	16237.83
456.941	15824.14
457.147	15516.95
457.352	15029.53
457.558	15072.54
457.764	14951.71
457.97	14619.94
458.176	14587.17
458.381	14294.31
458.587	13686.06
458.793	13692.21
458.999	13026.62
459.204	13755.69
459.41	13559.09
459.616	12549.44
459.821	12715.33
460.027	12311.88
460.233	12313.92
460.438	11580.75
460.644	11881.8
460.85	11128.15
461.055	11003.22
461.261	11341.14
461.466	10222.95
461.672	9960.81
461.878	10841.43
462.083	10003.82
462.289	9782.63
462.494	9700.72
462.7	9307.51
462.905	9127.28
463.111	9254.26
463.316	9700.72
463.522	9256.31
463.727	9274.74
463.932	9188.72
464.138	8965.5
464.343	9115
464.549	8801.66
464.754	9311.6
464.959	9276.79
465.165	9235.83
465.37	8707.45
465.575	8506.75
465.781	8783.23
465.986	9082.23
466.191	8533.37
466.397	8361.34
466.602	8072.58
466.807	8324.48
467.012	8248.71
467.218	8226.18
467.423	8328.58
467.628	8471.93
467.833	8629.63
468.038	8361.34
468.244	8035.72
468.449	8263.04
468.654	8080.77
468.859	7951.75
469.064	8082.82
469.269	7701.9
469.474	7761.29
469.679	8095.11
469.885	7814.54
470.09	7699.85
470.295	7880.07
470.5	7474.57
470.705	7550.35
470.91	7388.56
471.115	7447.95
471.32	7634.32
471.525	7323.02
471.73	7237.01
471.935	7224.72
472.139	6823.32
472.344	7142.8
472.549	6999.45
472.754	6974.87
472.959	6923.67
473.164	6690.2
473.369	6647.19
473.574	6741.4
473.778	6698.39
473.983	6755.74
474.188	6837.66
474.393	6376.86
474.598	6374.81
474.802	6366.62
475.007	6301.09
475.212	6442.4
475.417	6192.55
475.621	6006.18
475.826	6200.74
476.031	6032.8
476.235	5586.35
476.44	6071.72
476.645	5602.73
476.849	5920.17
477.054	5729.7
477.259	5744.04
477.463	5623.21
477.668	5557.68
477.872	5483.95
478.077	5537.2
478.282	5494.19
478.486	5375.41
478.691	5244.34
478.895	5326.25
479.1	5143.99
479.304	5293.49
479.509	5062.07
479.713	5209.52
479.918	5131.7
480.122	4980.15
480.326	5123.51
480.531	5125.55
480.735	4982.2
480.94	4965.81
481.144	5119.41
481.348	4834.74
481.553	5051.83
481.757	4744.63
481.961	4947.38
482.166	4943.28
482.37	4910.52
482.574	4820.41
482.778	4855.22
482.983	4822.45
483.187	4812.21
483.391	4955.57
483.595	4931
483.8	4871.61
484.004	4730.3
484.208	4998.58
484.412	4820.41
484.616	4871.61
484.821	4887.99
485.025	4883.89
485.229	4804.02
485.433	4771.26
485.637	4865.46
485.841	4877.75
486.045	4814.26
486.249	5047.73
486.453	4883.89
486.657	4898.23
486.861	5008.82
487.065	4713.91
487.269	4840.89
487.473	4844.98
487.677	4996.53
487.881	4988.34
488.085	4797.88
488.289	4947.38
488.493	4969.91
488.697	4947.38
488.901	5053.87
489.105	4902.33
489.309	5178.8
489.512	4904.37
489.716	4939.19
489.92	5010.87
490.124	5025.2
490.328	5162.42
490.531	5092.79
490.735	5072.31
490.939	5068.21
491.143	5230
491.346	5141.94
491.55	5191.09
491.754	5078.45
491.958	5207.47
492.161	5250.48
492.365	5150.13
492.569	5123.51
492.772	5256.62
492.976	5432.75
493.18	5361.07
493.383	5539.24
493.587	5465.52
493.79	5672.36
493.994	5500.33
494.197	5549.48
494.401	5637.55
494.605	5729.7
494.808	5780.9
495.012	5858.73
495.215	5893.54
495.419	5887.4
495.622	6008.23
495.825	5922.21
496.029	6143.39
496.232	6071.72
496.436	6127.01
496.639	6378.91
496.843	6346.14
497.046	6352.29
497.249	6557.08
497.453	6628.76
497.656	6778.26
497.859	6589.85
498.063	6636.95
498.266	6952.34
498.469	6825.37
498.673	7069.08
498.876	7316.88
499.079	7282.06
499.282	7175.57
499.485	7296.4
499.689	7206.29
499.892	7501.2
500.095	7615.88
500.298	7789.96
500.501	7624.08
500.705	7953.8
500.908	7988.61
501.111	8334.72
501.314	8226.18
501.517	8342.91
501.72	8349.06
501.923	8568.19
502.126	8791.42
502.329	9115
502.532	9074.04
502.735	8961.4
502.938	9297.27
503.141	9268.59
503.344	9500.02
503.547	9463.15
503.75	9436.53
503.953	9891.18
504.156	9962.86
504.359	10102.12
504.562	10237.28
504.765	10382.69
504.968	10339.68
505.17	10841.43
505.373	10620.25
505.576	11062.62
505.779	10882.39
505.982	11281.75
506.185	11330.9
506.387	11627.85
506.59	11605.33
506.793	12133.7
506.996	11994.44
507.198	12158.28
507.401	12176.71
507.604	12307.78
507.807	12633.41
508.009	12649.79
508.212	12731.71
508.415	13190.45
508.617	13129.02
508.82	13215.03
509.022	13421.88
509.225	13927.72
509.428	13940.01
509.63	14013.74
509.833	14335.27
510.035	14875.93
510.238	14558.5
510.44	14931.23
510.643	15060.25
510.845	15168.79
511.048	15267.1
511.25	15480.08
511.453	15664.4
511.655	16157.96
511.858	15863.05
512.06	16352.52
512.262	16657.67
512.465	16792.83
512.667	16704.77
512.87	17069.31
513.072	17009.92
513.274	17411.32
513.477	17489.14
513.679	17855.73
513.881	18105.58
514.084	18386.15
514.286	18351.34
514.488	18549.99
514.69	19061.98
514.893	18910.43
515.095	19115.23
515.297	19524.82
515.499	19209.43
515.701	19840.21
515.904	20090.06
516.106	20495.56
516.308	20403.4
516.51	21036.22
516.712	20630.73
516.914	20790.47
517.116	21656.76
517.318	21771.44
517.52	21982.38
517.722	21898.42
517.925	22170.8
518.127	22543.53
518.329	23002.27
518.531	22619.3
518.733	23162.01
518.935	22979.75
519.136	23381.15
519.338	23901.33
519.54	23854.23
519.742	24013.97
519.944	24175.76
520.146	24534.15
520.348	25128.06
520.55	25140.35
520.752	25201.79
520.954	25605.24
521.155	25625.72
521.357	25781.37
521.559	26221.68
521.761	26422.38
521.963	26475.63
522.164	27010.15
522.366	26950.76
522.568	27018.34
522.77	27411.55
522.971	27747.42
523.173	27483.23
523.375	28007.51
523.576	27837.53
523.778	27798.62
523.98	28300.37
524.181	28529.74
524.383	28679.24
524.584	28755.02
524.786	28742.73
524.988	29269.06
525.189	29240.39
525.391	29393.98
525.592	29834.3
525.794	29920.31
525.995	29776.95
526.197	30104.63
526.398	30161.97
526.6	30542.89
526.801	30633
527.003	30745.64
527.204	30485.55
527.406	31038.5
527.607	31083.56
527.808	31030.31
528.01	30671.92
528.211	31206.44
528.412	31972.38
528.614	31570.97
528.815	31691.8
529.016	32146.45
529.218	31605.79
529.419	31816.73
529.62	31792.15
529.822	31779.87
530.023	32334.87
530.224	32154.65
530.425	32363.54
530.626	32510.99
530.828	32369.68
531.029	33104.9
531.23	32691.21
531.431	32683.02
531.632	32744.46
531.833	32752.65
532.035	32597.01
532.236	32898.06
532.437	33274.88
532.638	32906.25
532.839	33477.63
533.04	33227.78
533.241	33053.7
533.442	33569.79
533.643	33242.12
533.844	33184.77
534.045	33446.91
534.246	33356.8
534.447	33758.2
534.648	33319.94
534.849	33739.77
535.05	33375.23
535.251	33573.89
535.451	33528.83
535.652	34026.49
535.853	33592.32
536.054	33926.14
536.255	34073.59
536.456	33676.29
536.657	34436.08
536.857	33719.29
537.058	33731.58
537.259	34102.26
537.46	33870.84
537.66	33711.1
537.861	34161.65
538.062	34296.82
538.263	34255.86
538.463	34083.83
538.664	34296.82
538.865	34563.06
539.065	34472.95
539.266	33985.53
539.466	34196.47
539.667	33885.18
539.868	34761.71
540.068	34331.64
540.269	34079.74
540.469	34939.88
540.67	34210.81
540.87	34503.67
541.071	34378.74
541.271	34679.79
541.472	34847.72
541.672	34604.02
541.873	34321.4
542.073	34282.48
542.274	34776.05
542.474	34333.68
542.675	34116.6
542.875	34409.46
543.075	34479.09
543.276	33999.87
543.476	34681.84
543.676	34405.36
543.877	34757.61
544.077	34624.5
544.277	35113.96
544.478	34139.13
544.678	34671.6
544.878	34862.06
545.078	34509.81
545.279	34661.36
545.479	34444.27
545.679	34798.57
545.879	34552.82
546.079	35073
546.28	34796.53
546.48	34253.81
546.68	34913.26
546.88	34759.66
547.08	34669.55
547.28	34817
547.48	34749.42
547.68	34612.21
547.88	34487.28
548.081	35156.97
548.281	34601.97
548.481	34440.18
548.681	35224.55
548.881	34690.03
549.081	35050.47
549.28	34565.1
549.48	34980.84
549.68	34749.42
549.88	35441.64
550.08	34591.73
550.28	34612.21
550.48	34567.15
550.68	35089.38
550.88	34538.48
551.08	34604.02
551.279	34683.89
551.479	34440.18
551.679	35195.88
551.879	35107.82
552.079	35029.99
552.278	34728.94
552.478	35156.97
552.678	34860.01
552.878	34921.45
553.077	34431.99
553.277	34399.22
553.477	34923.5
553.676	34595.82
553.876	34980.84
554.076	34737.13
554.275	34745.33
554.475	34253.81
554.674	34827.24
554.874	34640.88
555.074	34683.89
555.273	34894.83
555.473	34989.03
555.672	34356.21
555.872	34331.64
556.071	34939.88
556.271	34690.03
556.47	34759.66
556.67	34427.89
556.869	34704.37
557.068	34649.07
557.268	34509.81
557.467	34624.5
557.667	34825.2
557.866	34180.09
558.065	34339.83
558.265	34434.03
558.464	34180.09
558.663	34577.39
558.863	34190.33
559.062	34769.9
559.261	33854.46
559.461	34800.62
559.66	34055.16
559.859	34274.29
560.058	34126.84
560.258	34327.54
560.457	34071.54
560.656	34026.49
560.855	34216.95
561.054	34341.88
561.253	33952.76
561.453	34143.22
561.652	34233.33
561.851	34165.75
562.05	33981.43
562.249	34245.62
562.448	34153.46
562.647	33956.86
562.846	34055.16
563.045	34026.49
563.244	33782.78
563.443	34245.62
563.642	33430.53
563.841	34020.34
564.04	33508.35
564.239	33784.83
564.438	33324.04
564.637	34071.54
564.836	33893.37
565.035	33686.53
565.234	33596.42
565.432	33739.77
565.631	32830.48
565.83	33557.5
566.029	33508.35
566.228	33162.25
566.427	33442.82
566.625	33387.52
566.824	32766.99
567.023	33702.91
567.222	32965.64
567.42	33633.28
567.619	33625.09
567.818	32994.31
568.016	33164.29
568.215	33369.09
568.414	32924.68
568.612	33158.15
568.811	32943.11
569.01	33213.45
569.208	32797.71
569.407	33278.98
569.605	32803.85
569.804	32920.59
570.002	32531.47
570.201	33102.85
570.4	32408.59
570.598	32508.94
570.797	32332.82
570.995	32492.56
571.193	32271.38
571.392	32658.45
571.59	32146.45
571.789	32246.8
571.987	32484.37
572.186	32508.94
572.384	31826.97
572.582	32375.83
572.781	32152.6
572.979	31906.84
573.177	32277.52
573.376	32269.33
573.574	31538.21
573.772	31843.35
573.971	31747.1
574.169	31407.14
574.367	31511.58
574.565	31067.17
574.763	31376.42
574.962	31638.56
575.16	30858.28
575.358	31638.56
575.556	30950.44
575.754	31630.37
575.952	31093.8
576.151	31099.94
576.349	30802.99
576.547	30901.29
576.745	30893.1
576.943	31087.65
577.141	30813.23
577.339	31046.69
577.537	30565.42
577.735	30737.45
577.933	30385.2
578.131	30536.75
578.329	30379.06
578.527	30262.32
578.725	30387.25
578.923	30561.33
579.121	30159.92
579.319	29934.65
579.516	30334
579.714	30102.58
579.912	30088.24
580.11	30004.28
580.308	29914.17
580.506	29977.65
580.704	29232.19
580.901	29768.76
581.099	30053.43
581.297	28984.39
581.495	29322.3
581.692	29766.71
581.89	29244.48
582.088	29543.49
582.285	29205.57
582.483	29379.65
582.681	29088.84
582.878	29029.45
583.076	28855.37
583.274	28859.46
583.471	28675.15
583.669	28791.88
583.866	28398.67
584.064	28750.92
584.262	27962.45
584.459	28748.87
584.657	28347.47
584.854	28630.09
585.052	28140.63
585.249	28087.38
585.447	28413.01
585.644	28048.47
585.841	28136.53
586.039	28302.42
586.236	27700.31
586.434	27718.75
586.631	27440.22
586.828	27726.94
587.026	27860.05
587.223	27513.95
587.42	27436.13
587.618	27284.58
587.815	27274.34
588.012	27434.08
588.21	27135.07
588.407	27290.72
588.604	27040.87
588.801	26860.65
588.999	26803.3
589.196	26713.19
589.393	26842.21
589.59	26575.98
589.787	26403.95
589.984	26551.4
590.182	26387.57
590.379	26803.3
590.576	26326.13
590.773	26479.72
590.97	26135.67
591.167	26412.14
591.364	25863.29
591.561	25965.68
591.758	25855.09
591.955	25783.41
592.152	25932.92
592.349	25293.95
592.546	25924.72
592.743	25377.92
592.94	25205.89
593.137	25515.13
593.334	25701.5
593.531	24878.21
593.727	25140.35
593.924	25320.57
594.121	24843.4
594.318	24935.56
594.515	24755.33
594.712	24917.12
594.908	24587.4
595.105	24583.3
595.302	24706.18
595.499	24722.57
595.696	24564.87
595.892	24214.67
596.089	24642.7
596.286	24675.46
596.482	24183.95
596.679	24269.97
596.876	24181.9
597.072	24071.31
597.269	24169.62
597.466	23782.55
597.662	23872.66
597.859	23665.81
598.055	23878.8
598.252	23571.61
598.448	23583.9
598.645	23555.22
598.841	23215.26
599.038	23512.22
599.234	23413.91
599.431	22867.11
599.627	22979.75
599.824	23159.97
600.02	22760.61
600.217	23336.09
600.413	22805.67
600.609	22758.56
600.806	22588.58
601.002	22813.86
601.198	22404.27
601.395	22455.47
601.591	22705.32
601.787	22408.36
601.984	22052.02
602.18	22533.29
602.376	22285.48
602.572	22052.02
602.769	21945.52
602.965	21877.94
603.161	21892.27
603.357	21734.58
603.553	21929.14
603.75	21775.54
603.946	21529.78
604.142	21560.5
604.338	21277.88
604.534	21458.1
604.73	21337.27
604.926	21439.67
605.122	21374.14
605.318	21120.19
605.514	21238.97
605.71	21306.55
605.906	20851.91
606.102	20829.38
606.298	20663.49
606.494	20899.01
606.69	20806.85
606.886	20862.15
607.082	20444.36
607.278	20411.59
607.474	20583.62
607.67	20524.23
607.866	20520.13
608.062	20442.31
608.257	20479.18
608.453	20382.92
608.649	20272.33
608.845	19825.87
609.041	20106.45
609.236	20274.38
609.432	20022.48
609.628	20210.89
609.824	20040.91
610.019	19596.5
610.215	19946.7
610.411	19846.35
610.606	19852.5
610.802	19801.3
610.998	19803.35
611.193	19723.48
611.389	19553.49
611.584	19567.83
611.78	19481.81
611.976	19703
612.171	19604.69
612.367	19299.55
612.562	19469.53
612.758	19064.03
612.953	19254.49
613.149	19604.69
613.344	19205.34
613.539	19533.01
613.735	19152.09
613.93	19135.71
614.126	18765.03
614.321	19221.72
614.517	19096.8
614.712	18975.97
614.907	18924.77
615.103	18672.87
615.298	18738.4
615.493	19080.41
615.688	18549.99
615.884	19164.38
616.079	18648.29
616.274	18724.07
616.47	18394.34
616.665	18568.42
616.86	18664.68
617.055	18681.06
617.25	18492.65
617.445	18609.38
617.641	17943.79
617.836	18224.36
618.031	18326.76
618.226	18351.34
618.421	18062.57
618.616	18175.21
618.811	18044.14
619.006	18109.68
619.201	17460.47
619.396	17743.09
619.591	17536.24
619.786	17642.74
619.981	17323.26
620.176	17593.59
620.371	17554.68
620.566	17507.57
620.761	17183.99
620.956	17351.93
621.151	17284.34
621.346	16983.29
621.541	16852.22
621.735	16964.86
621.93	16612.61
622.125	16807.17
622.32	16430.34
622.515	16592.13
622.709	16448.77
622.904	16569.6
623.099	16389.38
623.294	16274.7
623.488	16200.97
623.683	16239.88
623.878	15762.7
624.072	15758.61
624.267	15858.96
624.462	15789.33
624.656	15316.25
624.851	15576.34
625.046	15519
625.24	15240.47
625.435	15279.38
625.629	15240.47
625.824	15314.2
626.018	14984.48
626.213	14869.79
626.407	14959.9
626.602	14880.03
626.796	14839.07
626.991	14734.62
627.185	14380.32
627.38	14624.03
627.574	14193.96
627.768	14361.89
627.963	14126.38
628.157	14269.73
628.352	14091.56
628.546	13927.72
628.74	14085.42
628.935	14083.37
629.129	14058.79
629.323	13546.8
629.517	13780.27
629.712	13598
629.906	13579.57
630.1	13458.74
630.294	13544.75
630.489	13442.35
630.683	13489.46
630.877	13069.62
631.071	13098.3
631.265	13120.82
631.459	12875.07
631.653	12909.88
631.848	12920.12
632.042	12748.09
632.236	12969.27
632.43	12766.53
632.624	12698.94
632.818	12510.53
633.012	12373.32
633.206	12438.85
633.4	12383.56
633.594	12436.8
633.788	12320.07
633.982	12141.89
634.176	12320.07
634.369	12057.93
634.563	12006.73
634.757	12023.11
634.951	11916.62
635.145	11930.95
635.339	11820.36
635.533	11820.36
635.726	11705.68
635.92	11468.11
636.114	11617.61
636.308	11560.27
636.501	11361.62
636.695	11373.91
636.889	11083.09
637.083	11232.6
637.276	11320.66
637.47	11074.9
637.664	11040.09
637.857	11079
638.051	10868.06
638.244	10749.28
638.438	10853.72
638.632	10681.69
638.825	10515.81
639.019	10661.21
639.212	10558.81
639.406	10349.92
639.599	10378.59
639.793	10374.5
639.986	10100.07
640.18	10122.6
640.373	10143.08
640.567	9870.7
640.76	10034.53
640.954	9876.84
641.147	9667.95
641.34	9758.06
641.534	9600.37
641.727	9641.32
641.92	9620.85
642.114	9672.04
642.307	9583.98
642.5	9391.47
642.694	9297.27
642.887	9149.81
643.08	9348.47
643.273	9178.48
643.467	9065.85
643.66	9053.56
643.853	9004.41
644.046	8807.8
644.239	8854.9
644.432	8824.19
644.626	8680.83
644.819	8578.43
645.012	8588.67
645.205	8717.69
645.398	8506.75
645.591	8342.91
645.784	8381.82
645.977	8189.32
646.17	8146.31
646.363	8119.68
646.556	8095.11
646.749	7900.55
646.942	8148.36
647.135	7972.23
647.328	7775.63
647.521	7871.88
647.714	7734.67
647.907	7732.62
648.099	7712.14
648.292	7746.95
648.485	7603.6
648.678	7415.18
648.871	7464.33
649.064	7398.8
649.256	7480.72
649.449	7294.35
649.642	7347.6
649.835	7157.14
650.027	7275.92
650.22	7095.7
650.413	7167.38
650.605	7030.16
650.798	7251.35
650.991	6817.18
651.183	6929.81
651.376	7028.12
651.568	6874.52
651.761	6841.75
651.954	6610.33
652.146	6866.33
652.339	6673.82
652.531	6772.12
652.724	6772.12
652.916	6548.89
653.109	6579.61
653.301	6428.06
653.494	6567.32
653.686	6491.55
653.879	6337.95
654.071	6309.28
654.263	6299.04
654.456	6264.22
654.648	6356.38
654.84	6192.55
655.033	6122.91
655.225	5991.84
655.417	5977.51
655.61	6026.66
655.802	6071.72
655.994	6153.63
656.186	6002.08
656.379	6028.71
656.571	5703.08
656.763	5760.42
656.955	5719.46
657.148	5907.88
657.34	5725.61
657.532	5686.7
657.724	5649.83
657.916	5625.26
658.108	5535.15
658.3	5678.51
658.492	5445.04
658.684	5340.59
658.876	5490.09
659.068	5359.02
659.26	5348.78
659.452	5346.73
659.644	5252.53
659.836	5088.69
660.028	5115.31
660.22	5047.73
660.412	5072.31
660.604	5211.57
660.796	5119.41
660.988	5113.27
661.18	4969.91
661.372	4974
661.563	4908.47
661.755	4902.33
661.947	4851.13
662.139	4769.21
662.331	4609.47
662.522	4732.34
662.714	4683.19
662.906	4670.9
663.097	4707.77
663.289	4599.23
663.481	4564.41
663.673	4539.83
663.864	4480.44
664.056	4343.23
664.247	4367.81
664.439	4339.13
664.631	4343.23
664.822	4326.85
665.014	4400.57
665.205	4238.78
665.397	4193.73
665.588	4218.3
665.78	4181.44
665.971	4390.33
666.163	4150.72
666.354	3993.03
666.546	4070.85
666.737	4091.33
666.929	4079.04
667.12	4027.84
667.311	4107.71
667.503	3780.04
667.694	3849.67
667.885	3907.01
668.077	3808.71
668.268	3786.18
668.459	3882.44
668.651	3941.83
668.842	3751.37
669.033	3823.05
669.224	3743.17
669.416	3640.78
669.607	3745.22
669.798	3581.39
669.989	3737.03
670.18	3608.01
670.371	3501.51
670.563	3591.63
670.754	3673.54
670.945	3526.09
671.136	3677.64
671.327	3456.46
671.518	3468.75
671.709	3489.23
671.9	3435.98
672.091	3474.89
672.282	3309.01
672.473	3378.64
672.664	3352.01
672.855	3370.44
673.046	3362.25
673.237	3282.38
673.428	3317.2
673.619	3272.14
673.809	3229.13
674	3270.09
674.191	3165.65
674.382	3204.56
674.573	3335.63
674.764	3206.61
674.954	3300.81
675.145	3081.68
675.336	3261.9
675.527	3184.08
675.717	3083.73
675.908	3063.25
676.099	3112.4
676.289	3091.92
676.48	3079.63
676.671	3106.26
676.861	3139.02
677.052	3007.95
677.243	2981.33
677.433	2993.62
677.624	3116.5
677.814	2983.38
678.005	2971.09
678.195	2899.41
678.386	3053.01
678.576	3083.73
678.767	2993.62
678.957	2893.27
679.148	3010
679.338	2844.12
679.529	2895.32
679.719	2876.88
679.909	2997.71
680.1	2952.66
680.29	2858.45
680.481	2852.31
680.671	2985.43
680.861	2926.04
681.052	2780.63
681.242	2876.88
681.432	2809.3
681.622	2868.69
681.813	2964.95
682.003	2864.6
682.193	2778.58
682.383	2936.28
682.573	2778.58
682.764	2831.83
682.954	2825.68
683.144	2866.64
683.334	2872.79
683.524	3001.81
683.714	2840.02
683.904	2954.71
684.094	2977.23
684.284	2774.49
684.474	2840.02
684.664	2991.57
684.854	2923.99
685.044	2870.74
685.234	2813.4
685.424	2809.3
685.614	2903.51
685.804	2876.88
685.994	2997.71
686.184	2837.97
686.374	2913.75
686.564	2880.98
686.753	3022.29
686.943	2942.42
687.133	2956.75
687.323	2733.53
687.513	3022.29
687.702	2803.16
687.892	2792.92
688.082	2876.88
688.272	2901.46
688.461	2854.36
688.651	2850.26
688.841	2903.51
689.03	2747.86
689.22	2872.79
689.41	2950.61
689.599	2923.99
689.789	2850.26
689.979	2778.58
690.168	2862.55
690.358	2977.23
690.547	2842.07
690.737	2903.51
690.926	2950.61
691.116	2915.8
691.305	2956.75
691.495	2944.47
691.684	2852.31
691.874	2717.14
692.063	2911.7
692.252	2962.9
692.442	2926.04
692.631	2801.11
692.82	2870.74
693.01	2794.97
693.199	2848.21
693.388	2792.92
693.578	2833.88
693.767	2790.87
693.956	2620.89
694.146	2794.97
694.335	2821.59
694.524	2780.63
694.713	2772.44
694.902	2733.53
695.092	2682.33
695.281	2741.72
695.47	2864.6
695.659	2803.16
695.848	2821.59
696.037	2747.86
696.226	2790.87
696.415	2770.39
696.604	2786.77
696.793	2649.56
696.982	2731.48
697.171	2780.63
697.36	2754.01
697.549	2629.08
697.738	2653.66
697.927	2655.7
698.116	2692.57
698.305	2715.09
698.494	2762.2
698.683	2667.99
698.872	2584.02
699.061	2614.74
699.25	2610.65
699.438	2569.69
699.627	2590.17
699.816	2629.08
700.005	2498.01
700.193	2493.91
700.382	2545.11
700.571	2569.69
700.76	2551.26
700.948	2586.07
701.137	2543.07
701.326	2506.2
701.514	2491.87
701.703	2393.56
701.892	2416.09
702.08	2465.24
702.269	2522.59
702.457	2414.04
702.646	2422.24
702.834	2442.71
703.023	2225.63
703.212	2393.56
703.4	2387.42
703.589	2280.93
703.777	2338.27
703.965	2436.57
704.154	2403.8
704.342	2256.35
704.531	2346.46
704.719	2301.4
704.907	2285.02
705.096	2256.35
705.284	2229.73
705.472	2397.66
705.661	2205.15
705.849	2276.83
706.037	2268.64
706.226	2145.76
706.414	2227.68
706.602	2233.82
706.79	2190.81
706.979	2250.21
707.167	2102.75
707.355	2133.47
707.543	2188.77
707.731	2180.57
707.919	2156
708.107	2162.14
708.296	2020.83
708.484	2051.55
708.672	2037.22
708.86	1990.11
709.048	2190.81
709.236	2119.14
709.424	2010.59
709.612	2055.65
709.8	2043.36
709.988	2035.17
710.176	1955.3
710.364	2049.5
710.551	2004.45
710.739	1990.11
710.927	1973.73
711.115	1981.92
711.303	1981.92
711.491	1918.43
711.679	1945.06
711.866	1893.86
712.054	1928.67
712.242	1857
712.43	1938.91
712.617	1897.96
712.805	1955.3
712.993	1918.43
713.181	1891.81
713.368	1936.87
713.556	1803.75
713.744	1822.18
713.931	1861.09
714.119	1750.5
714.306	1807.84
714.494	1709.54
714.682	1740.26
714.869	1805.8
715.057	1705.45
715.244	1680.87
715.432	1777.12
715.619	1758.69
715.807	1662.44
715.994	1633.77
716.182	1666.53
716.369	1723.88
716.556	1715.69
716.744	1619.43
716.931	1672.68
717.119	1744.36
717.306	1623.53
717.493	1521.13
717.681	1637.86
717.868	1648.1
718.055	1557.99
718.242	1648.1
718.43	1625.58
718.617	1621.48
718.804	1537.51
718.991	1633.77
719.179	1607.14
719.366	1457.64
719.553	1590.76
719.74	1529.32
719.927	1537.51
720.114	1496.55
720.301	1598.95
720.488	1541.61
720.676	1578.47
720.863	1435.11
721.05	1504.75
721.237	1480.17
721.424	1375.72
721.611	1451.5
721.798	1367.53
721.985	1471.98
722.172	1469.93
722.358	1426.92
722.545	1443.31
722.732	1361.39
722.919	1388.01
723.106	1451.5
723.293	1351.15
723.48	1328.62
723.667	1273.32
723.853	1277.42
724.04	1410.54
724.227	1310.19
724.414	1308.14
724.6	1334.76
724.787	1312.24
724.974	1355.24
725.161	1304.04
725.347	1263.08
725.534	1306.09
725.72	1242.61
725.907	1398.25
726.094	1250.8
726.28	1297.9
726.467	1185.26
726.653	1252.84
726.84	1244.65
727.027	1238.51
727.213	1267.18
727.4	1193.45
727.586	1228.27
727.773	1234.41
727.959	1170.93
728.145	1273.32
728.332	1263.08
728.518	1254.89
728.705	1193.45
728.891	1191.41
729.077	1152.49
729.264	1097.2
729.45	1203.69
729.636	1132.01
729.823	1117.68
730.009	1146.35
730.195	1048.05
730.382	1060.34
730.568	1121.77
730.754	1000.94
730.94	1148.4
731.126	1089.01
731.313	1058.29
731.499	1025.52
731.685	1140.21
731.871	1101.3
732.057	1062.38
732.243	1099.25
732.429	1011.18
732.615	1043.95
732.801	1113.58
732.987	980.47
733.173	970.23
733.359	1033.71
733.545	992.75
733.731	1062.38
733.917	1091.06
734.103	1017.33
734.289	1070.58
734.475	1025.52
734.661	964.08
734.847	945.65
735.033	1043.95
735.219	996.85
735.404	972.27
735.59	1076.72
735.776	941.55
735.962	953.84
736.148	1089.01
736.333	1007.09
736.519	900.59
736.705	968.18
736.89	914.93
737.076	988.66
737.262	943.6
737.447	947.7
737.633	898.55
737.819	886.26
738.004	902.64
738.19	898.55
738.375	861.68
738.561	845.3
738.747	941.55
738.932	833.01
739.118	882.16
739.303	908.79
739.489	871.92
739.674	882.16
739.859	916.98
740.045	931.31
740.23	892.4
740.416	833.01
740.601	962.03
740.786	867.83
740.972	898.55
741.157	943.6
741.342	808.44
741.528	865.78
741.713	855.54
741.898	837.11
742.084	808.44
742.269	808.44
742.454	841.2
742.639	841.2
742.824	755.19
743.01	777.72
743.195	732.66
743.38	683.51
743.565	757.24
743.75	800.24
743.935	765.43
744.12	759.28
744.305	769.52
744.49	777.72
744.675	726.52
744.86	714.23
745.045	652.79
745.23	761.33
745.415	708.09
745.6	636.41
745.785	818.68
745.97	773.62
746.155	708.09
746.34	755.19
746.525	695.8
746.71	708.09
746.895	744.95
747.079	636.41
747.264	751.09
747.449	722.42
747.634	755.19
747.819	736.76
748.003	693.75
748.188	663.03
748.373	605.69
748.557	660.98
748.742	685.56
748.927	626.17
749.111	593.4
749.296	671.22
749.481	693.75
749.665	654.84
749.85	581.11
750.034	587.26
750.219	642.55
750.404	622.07
750.588	673.27
750.773	620.02
750.957	527.86
751.141	650.74
751.326	646.65
751.51	585.21
751.695	593.4
751.879	577.02
752.064	550.39
752.248	585.21
752.432	515.58
752.617	622.07
752.801	613.88
752.985	519.67
753.17	577.02
753.354	581.11
753.538	574.97
753.722	564.73
753.907	550.39
754.091	542.2
754.275	558.58
754.459	574.97
754.643	488.95
754.828	556.54
755.012	495.1
755.196	425.47
755.38	509.43
755.564	554.49
755.748	554.49
755.932	583.16
756.116	552.44
756.3	642.55
756.484	505.34
756.668	517.62
756.852	482.81
757.036	488.95
757.22	519.67
757.404	527.86
757.588	546.3
757.772	482.81
757.956	531.96
758.14	476.66
758.323	478.71
758.507	447.99
758.691	460.28
758.875	458.23
759.059	470.52
759.242	447.99
759.426	474.62
759.61	517.62
759.794	482.81
759.977	474.62
760.161	478.71
760.345	349.69
760.528	445.95
760.712	390.65
760.895	470.52
761.079	527.86
761.263	345.59
761.446	431.61
761.63	388.6
761.813	407.03
761.997	402.94
762.18	443.9
762.364	421.37
762.547	380.41
762.731	351.74
762.914	468.47
763.098	462.33
763.281	415.23
763.464	384.51
763.648	452.09
763.831	443.9
764.015	378.36
764.198	398.84
764.381	394.75
764.564	349.69
764.748	427.51
764.931	386.55
765.114	417.27
765.297	378.36
765.481	380.41
765.664	388.6
765.847	331.26
766.03	394.75
766.213	454.14
766.397	411.13
766.58	368.12
766.763	413.18
766.946	382.46
767.129	411.13
767.312	394.75
767.495	339.45
767.678	304.64
767.861	265.72
768.044	364.03
768.227	443.9
768.41	382.46
768.593	351.74
768.776	347.64
768.959	370.17
769.142	443.9
769.324	341.5
769.507	427.51
769.69	374.27
769.873	384.51
770.056	390.65
770.239	327.16
770.421	447.99
770.604	296.44
770.787	392.7
770.97	345.59
771.152	349.69
771.335	402.94
771.518	364.03
771.7	382.46
771.883	386.55
772.066	413.18
772.248	380.41
772.431	368.12
772.613	339.45
772.796	425.47
772.978	339.45
773.161	382.46
773.343	411.13
773.526	404.99
773.708	288.25
773.891	351.74
774.073	308.73
774.256	331.26
774.438	337.4
774.621	349.69
774.803	361.98
774.985	261.63
775.168	349.69
775.35	409.08
775.532	321.02
775.715	327.16
775.897	273.92
776.079	353.79
776.261	321.02
776.444	325.12
776.626	400.89
776.808	355.83
776.99	335.35
777.173	290.3
777.355	202.24
777.537	300.54
777.719	321.02
777.901	368.12
778.083	298.49
778.265	343.55
778.447	290.3
778.629	239.1
778.811	321.02
778.993	339.45
779.175	318.97
779.357	269.82
779.539	290.3
779.721	286.2
779.903	361.98
780.085	288.25
780.267	265.72
780.449	300.54
780.631	359.93
780.812	198.14
780.994	286.2
781.176	249.34
781.358	341.5
781.54	228.86
781.721	241.15
781.903	243.2
782.085	161.28
782.267	271.87
782.448	280.06
782.63	294.4
782.812	253.44
782.993	316.92
783.175	292.35
783.357	208.38
783.538	255.48
783.72	204.28
783.901	278.01
784.083	261.63
784.264	235
784.446	253.44
784.627	259.58
784.809	183.81
784.99	224.76
785.172	206.33
785.353	273.92
785.535	187.9
785.716	253.44
785.897	237.05
786.079	224.76
786.26	267.77
786.441	187.9
786.623	169.47
786.804	214.52
786.985	128.51
787.167	237.05
787.348	114.17
787.529	202.24
787.71	187.9
787.891	202.24
788.073	101.89
788.254	187.9
788.435	155.13
788.616	175.61
788.797	130.56
788.978	222.72
789.159	196.09
789.34	198.14
789.522	220.67
789.703	144.89
789.884	144.89
790.065	224.76
790.246	97.79
790.427	159.23
790.607	159.23
790.788	202.24
790.969	155.13
791.15	163.33
791.331	159.23
791.512	159.23
791.693	138.75
791.874	206.33
792.054	257.53
792.235	138.75
792.416	189.95
792.597	101.89
792.778	128.51
792.958	187.9
793.139	173.57
793.32	159.23
793.5	134.65
793.681	108.03
793.862	67.07
794.042	159.23
794.223	169.47
794.404	165.37
794.584	105.98
794.765	173.57
794.945	112.13
795.126	157.18
795.306	173.57
795.487	192
795.667	144.89
795.848	183.81
796.028	112.13
796.209	126.46
796.389	185.85
796.57	140.8
796.75	83.45
796.93	136.7
797.111	136.7
797.291	153.09
797.471	192
797.652	130.56
797.832	155.13
798.012	155.13
798.192	87.55
798.373	95.74
798.553	101.89
798.733	167.42
798.913	169.47
799.093	116.22
799.274	163.33
799.454	148.99
799.634	146.94
799.814	183.81
799.994	52.74
800.174	169.47
800.354	142.85
800.534	128.51
800.714	151.04
800.894	144.89
801.074	132.61
801.254	163.33
801.434	79.36
801.614	60.93
801.794	122.37
801.974	357.88
802.154	144.89
802.334	153.09
802.514	87.55
802.693	58.88
802.873	112.13
803.053	58.88
803.233	112.13
803.413	165.37
803.592	93.69
803.772	132.61
803.952	73.21
804.131	128.51
804.311	52.74
804.491	148.99
804.67	120.32
804.85	-2.56
805.03	85.5
805.209	140.8
805.389	112.13
805.568	116.22
805.748	157.18
805.928	126.46
806.107	118.27
806.287	161.28
806.466	114.17
806.646	97.79
806.825	101.89
807.004	110.08
807.184	34.3
807.363	132.61
807.543	155.13
807.722	151.04
807.901	81.41
808.081	105.98
808.26	58.88
808.439	120.32
808.619	101.89
808.798	-6.66
808.977	95.74
809.156	77.31
809.336	42.5
809.515	136.7
809.694	34.3
809.873	60.93
810.052	81.41
810.231	67.07
810.411	93.69
810.59	58.88
810.769	60.93
810.948	101.89
811.127	95.74
811.306	85.5
811.485	11.78
811.664	101.89
811.843	91.65
812.022	5.63
812.201	24.06
812.38	87.55
812.559	46.59
812.737	75.26
812.916	67.07
813.095	112.13
813.274	116.22
813.453	110.08
813.632	52.74
813.811	122.37
813.989	148.99
814.168	42.5
814.347	112.13
814.526	-35.33
814.704	38.4
814.883	108.03
815.062	146.94
815.24	124.41
815.419	77.31
815.598	67.07
815.776	44.54
815.955	130.56
816.133	56.83
816.312	136.7
816.49	5.63
816.669	108.03
816.847	108.03
817.026	112.13
817.204	52.74
817.383	110.08
817.561	38.4
817.74	138.75
817.918	42.5
818.097	69.12
818.275	75.26
818.453	19.97
818.632	77.31
818.81	42.5
818.988	15.87
819.167	99.84
819.345	52.74
819.523	91.65
819.701	79.36
819.879	-0.51
820.058	26.11
820.236	105.98
820.414	97.79
820.592	44.54
820.77	28.16
820.948	142.85
821.127	89.6
821.305	120.32
821.483	22.02
821.661	91.65
821.839	81.41
822.017	38.4
822.195	36.35
822.373	11.78
822.551	17.92
822.729	48.64
822.907	38.4
823.085	81.41
823.262	120.32
823.44	48.64
823.618	46.59
823.796	67.07
823.974	28.16
824.152	85.5
824.329	42.5
824.507	79.36
824.685	60.93
824.863	58.88
825.04	52.74
825.218	46.59
825.396	62.98
825.574	101.89
825.751	81.41
825.929	54.78
826.107	52.74
826.284	54.78
826.462	71.17
826.639	38.4
826.817	75.26
826.994	46.59
827.172	34.3
827.349	3.58
827.527	71.17
827.704	60.93
827.882	65.02
828.059	101.89
828.237	-10.75
828.414	142.85
828.591	38.4
828.769	81.41
828.946	79.36
829.124	69.12
829.301	132.61
829.478	52.74
829.655	40.45
829.833	-8.7
830.01	56.83
830.187	38.4
830.364	24.06
830.542	40.45
830.719	87.55
830.896	89.6
831.073	95.74
831.25	44.54
831.427	85.5
831.604	19.97
831.782	-2.56
831.959	52.74
832.136	77.31
832.313	93.69
832.49	40.45
832.667	60.93
832.844	28.16
833.021	99.84
833.198	40.45
833.374	69.12
833.551	69.12
833.728	46.59
833.905	44.54
834.082	24.06
834.259	-59.9
834.436	54.78
834.612	46.59
834.789	5.63
834.966	54.78
835.143	-2.56
835.319	56.83
835.496	60.93
835.673	1.54
835.85	50.69
836.026	40.45
836.203	54.78
836.38	34.3
836.556	-37.38
836.733	13.82
836.909	34.3
837.086	95.74
837.262	24.06
837.439	-51.71
837.616	28.16
837.792	93.69
837.968	42.5
838.145	17.92
838.321	19.97
838.498	73.21
838.674	67.07
838.851	13.82
839.027	19.97
839.203	67.07
839.38	114.17
839.556	-6.66
839.732	62.98
839.909	32.26
840.085	87.55
840.261	38.4
840.437	114.17
840.614	71.17
840.79	54.78
840.966	19.97
841.142	38.4
841.318	52.74
841.494	99.84
841.671	79.36
841.847	101.89
842.023	42.5
842.199	42.5
842.375	50.69
842.551	32.26
842.727	46.59
842.903	87.55
843.079	36.35
843.255	22.02
843.431	48.64
843.607	22.02
843.783	17.92
843.959	34.3
844.134	1.54
844.31	60.93
844.486	-16.9
844.662	7.68
844.838	5.63
845.013	24.06
845.189	52.74
845.365	120.32
845.541	30.21
845.716	130.56
845.892	-33.28
846.068	-37.38
846.244	5.63
846.419	50.69
846.595	75.26
846.77	65.02
846.946	9.73
847.122	67.07
847.297	9.73
847.473	58.88
847.648	-2.56
847.824	5.63
847.999	56.83
848.175	71.17
848.35	-31.23
848.526	65.02
848.701	54.78
848.876	56.83
849.052	-10.75
849.227	50.69
849.403	-14.85
849.578	30.21
849.753	32.26
849.929	97.79
850.104	58.88
850.279	34.3
850.454	-25.09
850.63	65.02
850.805	-10.75
850.98	-20.99
851.155	-41.47
851.33	28.16
851.505	56.83
851.681	-14.85
851.856	-10.75
852.031	11.78
852.206	9.73
852.381	85.5
852.556	32.26
852.731	36.35
852.906	26.11
853.081	99.84
853.256	1.54
853.431	93.69
853.606	101.89
853.781	71.17
853.956	-14.85
854.131	48.64
854.305	71.17
854.48	-14.85
854.655	69.12
854.83	3.58
855.005	-4.61
855.18	-10.75
855.354	-10.75
855.529	15.87
855.704	-2.56
855.879	65.02
856.053	17.92
856.228	9.73
856.403	40.45
856.577	-6.66
856.752	-35.33
856.926	44.54
857.101	34.3
857.276	-33.28
857.45	24.06
857.625	58.88
857.799	13.82
857.974	46.59
858.148	62.98
858.323	22.02
858.497	11.78
858.672	5.63
858.846	-29.18
859.02	11.78
859.195	58.88
859.369	-31.23
859.543	22.02
859.718	73.21
859.892	91.65
860.066	44.54
860.241	1.54
860.415	40.45
860.589	-27.14
860.763	34.3
860.938	-10.75
861.112	77.31
861.286	54.78
861.46	30.21
861.634	3.58
861.808	81.41
861.982	-18.94
862.157	101.89
862.331	40.45
862.505	87.55
862.679	17.92
862.853	42.5
863.027	56.83
863.201	40.45
863.375	44.54
863.549	-20.99
863.722	60.93
863.896	65.02
864.07	48.64
864.244	30.21
864.418	52.74
864.592	-4.61
864.766	22.02
864.939	-10.75
865.113	24.06
865.287	44.54
865.461	89.6
865.634	-43.52
865.808	58.88
865.982	-37.38
866.156	-23.04
866.329	-2.56
866.503	50.69
866.676	34.3
866.85	32.26
867.024	-12.8
867.197	34.3
867.371	11.78
867.544	26.11
867.718	89.6
867.891	36.35
868.065	17.92
868.238	-14.85
868.412	28.16
868.585	-64
868.759	46.59
868.932	28.16
869.105	5.63
869.279	36.35
869.452	7.68
869.625	9.73
869.799	-8.7
869.972	-55.81
870.145	34.3
870.319	48.64
870.492	60.93
870.665	-25.09
870.838	9.73
871.011	-41.47
871.185	7.68
871.358	-39.42
871.531	-14.85
871.704	48.64
871.877	-4.61
872.05	-27.14
872.223	22.02
872.396	-14.85
872.569	-39.42
872.742	73.21
872.915	26.11
873.088	-18.94
873.261	36.35
873.434	15.87
873.607	83.45
873.78	52.74
873.953	-90.62
874.126	-23.04
874.299	101.89
874.471	42.5
874.644	32.26
874.817	79.36
874.99	-14.85
875.163	22.02
875.335	36.35
875.508	-27.14
875.681	42.5
875.853	-72.19
876.026	28.16
876.199	28.16
876.371	56.83
876.544	9.73
876.717	-20.99
876.889	-43.52
877.062	44.54
877.234	-31.23
877.407	-45.57
877.579	32.26
877.752	-6.66
877.924	65.02
878.097	85.5
878.269	7.68
878.442	3.58
878.614	-4.61
878.786	22.02
878.959	32.26
879.131	50.69
879.303	-20.99
879.476	83.45
879.648	38.4
879.82	17.92
879.993	-2.56
880.165	17.92
880.337	44.54
880.509	-47.62
880.681	73.21
880.854	-25.09
881.026	52.74
881.198	58.88
881.37	-59.9
881.542	-29.18
881.714	38.4
881.886	54.78
882.058	-35.33
882.23	60.93
882.402	19.97
882.574	-8.7
882.746	46.59
882.918	36.35
883.09	114.17
883.262	11.78
883.434	-0.51
883.606	-14.85
883.778	19.97
883.95	24.06
884.122	-14.85
884.293	69.12
884.465	1.54
884.637	46.59
884.809	-18.94
884.98	-8.7
885.152	-27.14
885.324	52.74
885.496	24.06
885.667	9.73
885.839	50.69
886.011	60.93
886.182	42.5
886.354	3.58
886.525	5.63
886.697	40.45
886.869	-14.85
887.04	-37.38
887.212	15.87
887.383	58.88
887.555	-23.04
887.726	91.65
887.897	-10.75
888.069	36.35
888.24	-41.47
888.412	11.78
888.583	-0.51
888.754	50.69
888.926	22.02
889.097	19.97
889.268	-23.04
889.44	-27.14
889.611	3.58
889.782	83.45
889.953	38.4
890.125	87.55
890.296	-16.9
890.467	30.21
890.638	7.68
890.809	34.3
890.98	36.35
891.151	54.78
891.323	15.87
891.494	9.73
891.665	24.06
891.836	-47.62
892.007	-18.94
892.178	38.4
892.349	73.21
892.52	28.16
892.691	-68.09
892.862	1.54
893.032	15.87
893.203	-12.8
893.374	-51.71
893.545	34.3
893.716	-31.23
893.887	9.73
894.057	9.73
894.228	-25.09
894.399	-41.47
894.57	42.5
894.74	-27.14
894.911	38.4
895.082	-10.75
895.253	-0.51
895.423	-16.9
895.594	13.82
895.764	-8.7
895.935	-2.56
896.106	108.03
896.276	-39.42
896.447	-8.7
896.617	28.16
896.788	-29.18
896.958	24.06
897.129	-23.04
897.299	97.79
897.47	-4.61
897.64	77.31
897.81	-10.75
897.981	-35.33
898.151	50.69
898.322	3.58
898.492	19.97
898.662	3.58
898.832	1.54
899.003	17.92
899.173	38.4
899.343	54.78
899.513	-33.28
