Data from USB4F104151__56__12-54-04-983.txt Node

Date: Fri Mar 14 12:54:04 EDT 2025
User: louis
Spectrometer: USB4F10415
Trigger mode: 4
Integration Time (sec): 1.000000E-2
Scans to average: 1
Electric dark correction enabled: true
Nonlinearity correction enabled: false
Boxcar width: 0
XAxis mode: Wavelengths
Number of Pixels in Spectrum: 3648
>>>>>Begin Spectral Data<<<<<
178.204	-34.99
178.424	-34.99
178.644	-34.99
178.864	-43.18
179.084	22.36
179.304	-73.9
179.524	16.21
179.744	-32.94
179.964	69.46
180.184	1.88
180.404	-53.42
180.624	-2.22
180.844	22.36
181.064	10.07
181.283	24.4
181.503	10.07
181.723	8.02
181.943	-45.23
182.163	59.22
182.383	-65.71
182.602	-22.7
182.822	55.12
183.042	32.6
183.262	-0.17
183.482	-24.75
183.701	-16.55
183.921	-12.46
184.141	-0.17
184.361	-12.46
184.58	5.97
184.8	30.55
185.02	26.45
185.239	65.36
185.459	-14.51
185.679	48.98
185.898	24.4
186.118	-2.22
186.338	-8.36
186.557	53.08
186.777	38.74
186.997	-8.36
187.216	-43.18
187.436	-32.94
187.655	40.79
187.875	36.69
188.095	-6.31
188.314	51.03
188.534	16.21
188.753	48.98
188.973	1.88
189.192	18.26
189.412	22.36
189.631	-0.17
189.851	22.36
190.07	-32.94
190.29	30.55
190.509	30.55
190.729	57.17
190.948	69.46
191.168	59.22
191.387	-2.22
191.607	-61.61
191.826	-32.94
192.045	57.17
192.265	18.26
192.484	-47.27
192.704	71.51
192.923	-43.18
193.142	-0.17
193.362	53.08
193.581	18.26
193.8	3.93
194.02	53.08
194.239	-28.84
194.458	-16.55
194.678	-61.61
194.897	-4.27
195.116	16.21
195.335	1.88
195.555	20.31
195.774	-30.89
195.993	57.17
196.212	10.07
196.432	36.69
196.651	53.08
196.87	55.12
197.089	10.07
197.308	-10.41
197.528	22.36
197.747	-57.51
197.966	5.97
198.185	36.69
198.404	-4.27
198.623	5.97
198.842	-20.65
199.062	94.04
199.281	38.74
199.5	-18.6
199.719	118.61
199.938	24.4
200.157	96.08
200.376	40.79
200.595	53.08
200.814	-28.84
201.033	-67.75
201.252	46.93
201.471	-84.14
201.69	42.84
201.909	34.64
202.128	20.31
202.347	18.26
202.566	10.07
202.785	44.88
203.004	-18.6
203.223	12.12
203.442	18.26
203.661	-10.41
203.879	-28.84
204.098	40.79
204.317	28.5
204.536	106.32
204.755	-26.79
204.974	-55.47
205.193	24.4
205.411	40.79
205.63	22.36
205.849	96.08
206.068	5.97
206.287	44.88
206.505	-20.65
206.724	-12.46
206.943	-41.13
207.162	71.51
207.381	10.07
207.599	-63.66
207.818	20.31
208.037	-32.94
208.255	28.5
208.474	-22.7
208.693	-8.36
208.911	-8.36
209.13	-20.65
209.349	28.5
209.567	32.6
209.786	42.84
210.005	51.03
210.223	53.08
210.442	30.55
210.661	69.46
210.879	-4.27
211.098	77.65
211.316	-28.84
211.535	-10.41
211.753	69.46
211.972	89.94
212.191	-2.22
212.409	18.26
212.628	-4.27
212.846	30.55
213.065	61.27
213.283	12.12
213.502	-20.65
213.72	-8.36
213.938	5.97
214.157	67.41
214.375	46.93
214.594	1.88
214.812	-2.22
215.031	-24.75
215.249	67.41
215.467	14.17
215.686	26.45
215.904	-12.46
216.122	36.69
216.341	42.84
216.559	-67.75
216.778	-0.17
216.996	77.65
217.214	75.6
217.432	-4.27
217.651	-71.85
217.869	26.45
218.087	44.88
218.306	3.93
218.524	3.93
218.742	61.27
218.96	-22.7
219.179	36.69
219.397	-4.27
219.615	77.65
219.833	3.93
220.051	57.17
220.27	-24.75
220.488	28.5
220.706	10.07
220.924	32.6
221.142	28.5
221.36	12.12
221.578	61.27
221.796	-8.36
222.015	40.79
222.233	42.84
222.451	42.84
222.669	42.84
222.887	8.02
223.105	20.31
223.323	44.88
223.541	18.26
223.759	-2.22
223.977	67.41
224.195	28.5
224.413	28.5
224.631	8.02
224.849	-8.36
225.067	40.79
225.285	20.31
225.503	-18.6
225.721	-18.6
225.939	57.17
226.157	57.17
226.375	8.02
226.592	-10.41
226.81	85.84
227.028	-14.51
227.246	51.03
227.464	-22.7
227.682	79.7
227.9	38.74
228.117	-34.99
228.335	-47.27
228.553	-12.46
228.771	79.7
228.989	-10.41
229.206	14.17
229.424	61.27
229.642	-8.36
229.86	-55.47
230.077	38.74
230.295	32.6
230.513	-14.51
230.731	-12.46
230.948	-0.17
231.166	28.5
231.384	42.84
231.601	-14.51
231.819	51.03
232.037	24.4
232.254	3.93
232.472	-28.84
232.689	44.88
232.907	22.36
233.125	-39.08
233.342	-4.27
233.56	8.02
233.777	-12.46
233.995	-8.36
234.213	24.4
234.43	34.64
234.648	85.84
234.865	26.45
235.083	46.93
235.3	26.45
235.518	-49.32
235.735	-16.55
235.953	42.84
236.17	38.74
236.388	26.45
236.605	79.7
236.822	112.47
237.04	-18.6
237.257	1.88
237.475	61.27
237.692	14.17
237.909	34.64
238.127	32.6
238.344	-37.03
238.562	75.6
238.779	24.4
238.996	3.93
239.214	34.64
239.431	59.22
239.648	16.21
239.865	3.93
240.083	-30.89
240.3	61.27
240.517	-30.89
240.735	-16.55
240.952	20.31
241.169	-12.46
241.386	32.6
241.603	3.93
241.821	-16.55
242.038	57.17
242.255	24.4
242.472	94.04
242.689	-22.7
242.907	20.31
243.124	-14.51
243.341	28.5
243.558	-41.13
243.775	55.12
243.992	-22.7
244.209	110.42
244.426	32.6
244.643	-49.32
244.86	5.97
245.078	55.12
245.295	98.13
245.512	73.56
245.729	-8.36
245.946	65.36
246.163	42.84
246.38	53.08
246.597	16.21
246.814	24.4
247.031	26.45
247.248	46.93
247.464	14.17
247.681	-4.27
247.898	-6.31
248.115	83.8
248.332	53.08
248.549	65.36
248.766	3.93
248.983	3.93
249.2	46.93
249.417	59.22
249.633	51.03
249.85	1.88
250.067	18.26
250.284	8.02
250.501	-12.46
250.717	87.89
250.934	-43.18
251.151	46.93
251.368	-12.46
251.585	48.98
251.801	-2.22
252.018	48.98
252.235	53.08
252.451	28.5
252.668	51.03
252.885	16.21
253.102	5.97
253.318	69.46
253.535	73.56
253.752	-12.46
253.968	16.21
254.185	14.17
254.401	48.98
254.618	22.36
254.835	48.98
255.051	44.88
255.268	104.28
255.484	18.26
255.701	59.22
255.917	-47.27
256.134	8.02
256.351	67.41
256.567	32.6
256.784	-43.18
257	-22.7
257.217	81.75
257.433	-28.84
257.65	-24.75
257.866	42.84
258.082	20.31
258.299	24.4
258.515	-4.27
258.732	26.45
258.948	-24.75
259.165	-8.36
259.381	-41.13
259.597	-30.89
259.814	83.8
260.03	12.12
260.246	14.17
260.463	18.26
260.679	1.88
260.895	57.17
261.112	91.99
261.328	-8.36
261.544	94.04
261.761	77.65
261.977	38.74
262.193	-30.89
262.409	53.08
262.626	79.7
262.842	-8.36
263.058	-24.75
263.274	14.17
263.49	22.36
263.707	16.21
263.923	-20.65
264.139	-22.7
264.355	-4.27
264.571	77.65
264.787	53.08
265.004	8.02
265.22	79.7
265.436	24.4
265.652	-32.94
265.868	18.26
266.084	53.08
266.3	-4.27
266.516	22.36
266.732	46.93
266.948	36.69
267.164	16.21
267.38	10.07
267.596	16.21
267.812	44.88
268.028	89.94
268.244	48.98
268.46	89.94
268.676	36.69
268.892	83.8
269.108	-65.71
269.324	36.69
269.54	22.36
269.756	46.93
269.972	34.64
270.188	-4.27
270.403	57.17
270.619	79.7
270.835	-20.65
271.051	67.41
271.267	42.84
271.483	-22.7
271.698	20.31
271.914	77.65
272.13	38.74
272.346	-4.27
272.562	-10.41
272.777	-4.27
272.993	-24.75
273.209	3.93
273.425	-10.41
273.64	16.21
273.856	38.74
274.072	-51.37
274.287	10.07
274.503	-49.32
274.719	-0.17
274.934	-22.7
275.15	14.17
275.366	124.76
275.581	-37.03
275.797	26.45
276.012	34.64
276.228	67.41
276.444	24.4
276.659	83.8
276.875	42.84
277.09	36.69
277.306	44.88
277.521	12.12
277.737	34.64
277.952	3.93
278.168	51.03
278.383	71.51
278.599	24.4
278.814	-26.79
279.03	55.12
279.245	22.36
279.461	28.5
279.676	12.12
279.892	14.17
280.107	53.08
280.322	38.74
280.538	-18.6
280.753	20.31
280.969	22.36
281.184	-49.32
281.399	-39.08
281.615	38.74
281.83	-10.41
282.045	-49.32
282.26	85.84
282.476	34.64
282.691	46.93
282.906	75.6
283.122	-12.46
283.337	12.12
283.552	24.4
283.767	26.45
283.983	53.08
284.198	63.32
284.413	-0.17
284.628	22.36
284.843	34.64
285.058	20.31
285.274	20.31
285.489	36.69
285.704	71.51
285.919	-6.31
286.134	-69.8
286.349	8.02
286.564	-43.18
286.779	26.45
286.995	24.4
287.21	-30.89
287.425	20.31
287.64	-51.37
287.855	3.93
288.07	69.46
288.285	-4.27
288.5	18.26
288.715	-69.8
288.93	16.21
289.145	44.88
289.36	14.17
289.575	53.08
289.79	85.84
290.004	-14.51
290.219	-18.6
290.434	18.26
290.649	12.12
290.864	40.79
291.079	14.17
291.294	-2.22
291.509	18.26
291.724	36.69
291.938	-30.89
292.153	61.27
292.368	122.71
292.583	18.26
292.798	3.93
293.012	18.26
293.227	61.27
293.442	44.88
293.657	-41.13
293.871	36.69
294.086	-0.17
294.301	73.56
294.516	-37.03
294.73	14.17
294.945	63.32
295.16	46.93
295.374	18.26
295.589	20.31
295.804	28.5
296.018	42.84
296.233	1.88
296.447	63.32
296.662	61.27
296.877	3.93
297.091	71.51
297.306	57.17
297.52	-37.03
297.735	36.69
297.949	14.17
298.164	38.74
298.378	8.02
298.593	-0.17
298.807	65.36
299.022	-67.75
299.236	-20.65
299.451	32.6
299.665	3.93
299.88	63.32
300.094	42.84
300.309	51.03
300.523	61.27
300.737	57.17
300.952	73.56
301.166	-8.36
301.381	1.88
301.595	53.08
301.809	42.84
302.024	46.93
302.238	-26.79
302.452	94.04
302.667	-8.36
302.881	42.84
303.095	-18.6
303.309	10.07
303.524	20.31
303.738	5.97
303.952	-22.7
304.166	40.79
304.381	-37.03
304.595	81.75
304.809	16.21
305.023	-6.31
305.237	22.36
305.452	106.32
305.666	77.65
305.88	-4.27
306.094	-4.27
306.308	1.88
306.522	8.02
306.736	28.5
306.95	53.08
307.164	83.8
307.379	55.12
307.593	104.28
307.807	-20.65
308.021	22.36
308.235	75.6
308.449	10.07
308.663	-53.42
308.877	14.17
309.091	73.56
309.305	20.31
309.519	26.45
309.733	112.47
309.947	-28.84
310.161	55.12
310.374	20.31
310.588	24.4
310.802	102.23
311.016	98.13
311.23	1.88
311.444	48.98
311.658	-12.46
311.872	18.26
312.085	53.08
312.299	28.5
312.513	-6.31
312.727	69.46
312.941	63.32
313.154	10.07
313.368	14.17
313.582	34.64
313.796	16.21
314.009	44.88
314.223	10.07
314.437	18.26
314.651	-22.7
314.864	-2.22
315.078	1.88
315.292	3.93
315.505	26.45
315.719	100.18
315.933	-14.51
316.146	-8.36
316.36	-8.36
316.573	42.84
316.787	32.6
317.001	28.5
317.214	-10.41
317.428	-20.65
317.641	18.26
317.855	20.31
318.068	20.31
318.282	14.17
318.495	16.21
318.709	79.7
318.922	14.17
319.136	51.03
319.349	24.4
319.563	32.6
319.776	32.6
319.99	24.4
320.203	-4.27
320.417	-6.31
320.63	53.08
320.843	32.6
321.057	36.69
321.27	-0.17
321.483	77.65
321.697	-2.22
321.91	14.17
322.124	46.93
322.337	59.22
322.55	5.97
322.763	24.4
322.977	59.22
323.19	3.93
323.403	-28.84
323.617	61.27
323.83	-37.03
324.043	85.84
324.256	26.45
324.469	28.5
324.683	5.97
324.896	16.21
325.109	-6.31
325.322	12.12
325.535	63.32
325.748	96.08
325.962	36.69
326.175	-37.03
326.388	40.79
326.601	-14.51
326.814	-39.08
327.027	59.22
327.24	38.74
327.453	3.93
327.666	3.93
327.879	63.32
328.092	-12.46
328.305	22.36
328.518	18.26
328.731	5.97
328.944	30.55
329.157	40.79
329.37	18.26
329.583	75.6
329.796	81.75
330.009	44.88
330.222	-22.7
330.435	30.55
330.648	28.5
330.861	3.93
331.073	28.5
331.286	48.98
331.499	55.12
331.712	-20.65
331.925	-14.51
332.138	-30.89
332.35	12.12
332.563	79.7
332.776	-0.17
332.989	36.69
333.202	3.93
333.414	-30.89
333.627	79.7
333.84	44.88
334.053	81.75
334.265	14.17
334.478	71.51
334.691	-12.46
334.903	57.17
335.116	-2.22
335.329	36.69
335.541	85.84
335.754	87.89
335.966	28.5
336.179	48.98
336.392	3.93
336.604	48.98
336.817	32.6
337.029	67.41
337.242	55.12
337.454	-2.22
337.667	38.74
337.88	5.97
338.092	38.74
338.305	30.55
338.517	22.36
338.729	26.45
338.942	85.84
339.154	24.4
339.367	24.4
339.579	-0.17
339.792	-8.36
340.004	26.45
340.217	14.17
340.429	36.69
340.641	18.26
340.854	48.98
341.066	26.45
341.278	14.17
341.491	38.74
341.703	18.26
341.915	94.04
342.128	22.36
342.34	-18.6
342.552	-53.42
342.764	75.6
342.977	34.64
343.189	38.74
343.401	-8.36
343.613	46.93
343.826	63.32
344.038	18.26
344.25	48.98
344.462	46.93
344.674	-12.46
344.886	48.98
345.099	69.46
345.311	-8.36
345.523	120.66
345.735	-16.55
345.947	30.55
346.159	106.32
346.371	108.37
346.583	46.93
346.795	100.18
347.007	-10.41
347.219	118.61
347.431	26.45
347.643	57.17
347.855	63.32
348.067	-2.22
348.279	-4.27
348.491	51.03
348.703	51.03
348.915	48.98
349.127	-53.42
349.339	87.89
349.551	34.64
349.763	87.89
349.975	40.79
350.187	110.42
350.399	44.88
350.61	26.45
350.822	44.88
351.034	71.51
351.246	38.74
351.458	22.36
351.669	46.93
351.881	94.04
352.093	-26.79
352.305	-0.17
352.517	71.51
352.728	22.36
352.94	61.27
353.152	26.45
353.363	-4.27
353.575	24.4
353.787	63.32
353.999	46.93
354.21	61.27
354.422	34.64
354.633	18.26
354.845	32.6
355.057	-37.03
355.268	42.84
355.48	1.88
355.692	26.45
355.903	20.31
356.115	89.94
356.326	36.69
356.538	3.93
356.749	36.69
356.961	8.02
357.172	1.88
357.384	63.32
357.595	61.27
357.807	34.64
358.018	16.21
358.23	89.94
358.441	16.21
358.653	-12.46
358.864	10.07
359.075	-16.55
359.287	3.93
359.498	104.28
359.709	38.74
359.921	63.32
360.132	63.32
360.344	12.12
360.555	67.41
360.766	38.74
360.977	8.02
361.189	55.12
361.4	53.08
361.611	3.93
361.823	42.84
362.034	12.12
362.245	28.5
362.456	18.26
362.667	53.08
362.879	-16.55
363.09	98.13
363.301	53.08
363.512	-63.66
363.723	20.31
363.935	20.31
364.146	-4.27
364.357	14.17
364.568	38.74
364.779	-16.55
364.99	14.17
365.201	20.31
365.412	94.04
365.623	-0.17
365.834	73.56
366.045	-39.08
366.256	-32.94
366.467	16.21
366.678	-2.22
366.889	3.93
367.1	44.88
367.311	18.26
367.522	96.08
367.733	48.98
367.944	40.79
368.155	55.12
368.366	53.08
368.577	85.84
368.788	53.08
368.999	26.45
369.209	16.21
369.42	5.97
369.631	120.66
369.842	71.51
370.053	46.93
370.264	-0.17
370.474	96.08
370.685	44.88
370.896	8.02
371.107	-18.6
371.317	104.28
371.528	34.64
371.739	-18.6
371.95	48.98
372.16	42.84
372.371	20.31
372.582	42.84
372.792	20.31
373.003	30.55
373.214	34.64
373.424	38.74
373.635	18.26
373.846	53.08
374.056	36.69
374.267	36.69
374.477	42.84
374.688	61.27
374.898	53.08
375.109	34.64
375.319	14.17
375.53	77.65
375.74	67.41
375.951	-4.27
376.161	55.12
376.372	28.5
376.582	-6.31
376.793	65.36
377.003	-24.75
377.214	73.56
377.424	34.64
377.635	63.32
377.845	-12.46
378.055	91.99
378.266	26.45
378.476	-10.41
378.686	38.74
378.897	51.03
379.107	40.79
379.317	20.31
379.528	79.7
379.738	89.94
379.948	18.26
380.158	44.88
380.369	34.64
380.579	53.08
380.789	83.8
380.999	145.24
381.21	51.03
381.42	75.6
381.63	44.88
381.84	55.12
382.05	-59.56
382.261	114.52
382.471	91.99
382.681	44.88
382.891	28.5
383.101	102.23
383.311	5.97
383.521	128.85
383.731	24.4
383.941	55.12
384.151	77.65
384.361	16.21
384.571	38.74
384.781	53.08
384.991	67.41
385.201	40.79
385.411	87.89
385.621	12.12
385.831	3.93
386.041	36.69
386.251	104.28
386.461	22.36
386.671	20.31
386.881	63.32
387.091	61.27
387.301	71.51
387.511	40.79
387.72	73.56
387.93	24.4
388.14	-28.84
388.35	139.09
388.56	87.89
388.769	12.12
388.979	38.74
389.189	-18.6
389.399	32.6
389.609	38.74
389.818	75.6
390.028	14.17
390.238	65.36
390.447	1.88
390.657	18.26
390.867	87.89
391.076	28.5
391.286	36.69
391.496	53.08
391.705	1.88
391.915	79.7
392.125	16.21
392.334	55.12
392.544	75.6
392.753	77.65
392.963	12.12
393.172	65.36
393.382	-12.46
393.591	89.94
393.801	79.7
394.01	79.7
394.22	108.37
394.429	42.84
394.639	-16.55
394.848	137.04
395.058	96.08
395.267	83.8
395.477	22.36
395.686	91.99
395.895	20.31
396.105	57.17
396.314	16.21
396.524	59.22
396.733	48.98
396.942	85.84
397.152	28.5
397.361	225.11
397.57	38.74
397.78	57.17
397.989	85.84
398.198	18.26
398.407	32.6
398.617	102.23
398.826	34.64
399.035	149.33
399.244	192.34
399.453	94.04
399.663	91.99
399.872	81.75
400.081	77.65
400.29	40.79
400.499	96.08
400.708	106.32
400.917	30.55
401.127	91.99
401.336	42.84
401.545	124.76
401.754	104.28
401.963	87.89
402.172	36.69
402.381	59.22
402.59	38.74
402.799	94.04
403.008	112.47
403.217	57.17
403.426	69.46
403.635	120.66
403.844	149.33
404.053	118.61
404.262	73.56
404.471	130.9
404.68	130.9
404.888	65.36
405.097	106.32
405.306	159.57
405.515	69.46
405.724	106.32
405.933	122.71
406.142	128.85
406.35	106.32
406.559	94.04
406.768	151.38
406.977	165.71
407.185	128.85
407.394	118.61
407.603	128.85
407.812	167.76
408.02	61.27
408.229	137.04
408.438	210.77
408.646	202.58
408.855	192.34
409.064	249.68
409.272	137.04
409.481	237.39
409.69	175.95
409.898	151.38
410.107	243.54
410.315	126.8
410.524	157.52
410.733	147.28
410.941	251.73
411.15	292.69
411.358	241.49
411.567	229.2
411.775	253.78
411.984	225.11
412.192	227.15
412.401	278.35
412.609	266.07
412.818	352.08
413.026	288.59
413.234	321.36
413.443	335.7
413.651	323.41
413.86	294.74
414.068	434
414.276	352.08
414.485	407.38
414.693	374.61
414.901	462.67
415.11	509.77
415.318	503.63
415.526	460.62
415.734	483.15
415.943	493.39
416.151	503.63
416.359	507.73
416.567	550.73
416.776	503.63
416.984	646.99
417.192	616.27
417.4	618.32
417.608	589.64
417.817	638.8
418.025	743.24
418.233	778.06
418.441	692.04
418.649	714.57
418.857	802.63
419.065	849.74
419.273	835.4
419.481	878.41
419.689	915.27
419.897	917.32
420.105	943.94
420.313	970.57
420.521	976.71
420.729	1023.81
420.937	1021.77
421.145	1124.16
421.353	1126.21
421.561	1218.37
421.769	1263.43
421.977	1322.82
422.185	1220.42
422.393	1402.69
422.601	1421.12
422.809	1492.8
423.017	1521.47
423.224	1449.79
423.432	1576.77
423.64	1617.72
423.848	1718.08
424.056	1673.02
424.263	1744.7
424.471	1787.71
424.679	1679.16
424.887	1961.78
425.094	1896.25
425.302	1896.25
425.51	2045.75
425.718	2187.06
425.925	2232.12
426.133	2162.48
426.341	2389.81
426.548	2336.56
426.756	2434.86
426.964	2586.41
427.171	2647.85
427.379	2668.33
427.586	2694.96
427.794	2948.9
428.001	2918.18
428.209	2983.72
428.417	3055.4
428.624	3329.83
428.832	3254.05
429.039	3245.86
429.247	3260.2
429.454	3659.55
429.662	3720.99
429.869	3608.35
430.076	3847.96
430.284	3745.56
430.491	3880.73
430.699	4142.87
430.906	4044.57
431.114	4151.06
431.321	4192.02
431.528	4388.63
431.736	4648.72
431.943	4878.09
432.15	4630.29
432.358	4814.6
432.565	5091.08
432.772	5082.89
432.979	5287.68
433.187	5457.67
433.394	5422.85
433.601	5744.38
433.808	5867.26
434.016	5558.02
434.223	5986.04
434.43	6438.64
434.637	6168.31
434.844	6600.43
435.052	6641.39
435.259	6686.45
435.466	6729.45
435.673	6625.01
435.88	7073.51
436.087	7524.07
436.294	7571.17
436.501	7409.38
436.708	7630.56
436.915	7702.24
437.122	8152.79
437.329	7950.04
437.537	8552.15
437.743	8558.29
437.95	8533.72
438.157	8910.54
438.364	9109.19
438.571	9209.54
438.778	9350.85
438.985	10161.85
439.192	9750.21
439.399	10024.64
439.606	9848.51
439.813	10211
440.02	11019.95
440.227	10751.67
440.433	10770.1
440.64	10997.42
440.847	11058.86
441.054	11181.74
441.261	12109.47
441.467	11826.85
441.674	12134.04
441.881	12576.41
442.088	12861.07
442.294	12441.24
442.501	12777.11
442.708	12732.05
442.914	13549.19
443.121	14319.23
443.328	13803.14
443.534	14691.96
443.741	14108.29
443.948	14237.31
444.154	15287.92
444.361	15122.03
444.568	15294.06
444.774	14884.47
444.981	15496.81
445.187	15994.47
445.394	16578.14
445.6	16227.93
445.807	17509.96
446.013	16936.53
446.22	17165.9
446.426	18124.35
446.633	18339.39
446.839	18615.87
447.046	18132.54
447.252	19009.08
447.459	19152.43
447.665	19177.01
447.871	19936.81
448.078	20512.28
448.284	19578.41
448.491	20190.75
448.697	20983.32
448.903	21509.65
449.11	21542.41
449.316	20993.56
449.522	21632.52
449.728	22023.69
449.935	22314.5
450.141	22156.8
450.347	22937.08
450.553	22183.43
450.76	22607.36
450.966	23256.56
451.172	22724.09
451.378	23512.56
451.584	22674.94
451.791	23430.64
451.997	23539.18
452.203	23879.14
452.409	23997.93
452.615	23840.23
452.821	23076.34
453.027	22535.68
453.233	23946.73
453.44	23021.05
453.646	23197.17
453.852	23416.3
454.058	24004.07
454.264	23035.38
454.47	23600.62
454.676	22793.72
454.882	23705.07
455.088	21761.55
455.294	21841.42
455.5	22621.69
455.705	22711.8
455.911	21755.4
456.117	21366.29
456.323	21306.9
456.529	19752.49
456.735	20694.55
456.941	20264.48
457.147	19947.04
457.352	19549.74
457.558	19172.91
457.764	19379.76
457.97	18878.01
458.176	18333.25
458.381	18798.13
458.587	17481.29
458.793	17702.47
458.999	16668.25
459.204	18140.74
459.41	17415.76
459.616	16559.7
459.821	16330.33
460.027	16338.52
460.233	15998.56
460.438	15382.12
460.644	15382.12
460.85	14759.54
461.055	14507.64
461.261	14419.58
461.466	13307.53
461.672	12887.7
461.878	13956.74
462.083	13014.67
462.289	12793.49
462.494	12553.88
462.7	12015.26
462.905	11916.96
463.111	12152.48
463.316	12154.52
463.522	12123.8
463.727	12228.25
463.932	12152.48
464.138	11880.1
464.343	11939.49
464.549	11577
464.754	12062.37
464.959	11964.06
465.165	11873.95
465.37	11265.71
465.575	11056.81
465.781	11574.95
465.986	11527.85
466.191	11046.57
466.397	11032.24
466.602	10440.37
466.807	10694.32
467.012	10866.35
467.218	10786.48
467.423	10655.41
467.628	10684.08
467.833	11263.66
468.038	10624.69
468.244	10415.8
468.449	10837.68
468.654	10452.66
468.859	10395.32
469.064	10520.24
469.269	9998.01
469.474	10102.46
469.679	10030.78
469.885	9981.63
470.09	9975.49
470.295	9985.72
470.5	9651.91
470.705	9832.13
470.91	9531.08
471.115	9383.62
471.32	9623.23
471.525	9615.04
471.73	9217.74
471.935	9332.42
472.139	8980.17
472.344	9289.42
472.549	8971.98
472.754	9006.8
472.959	8750.8
473.164	8527.57
473.369	8515.28
473.574	8900.3
473.778	8584.91
473.983	8400.6
474.188	8523.48
474.393	8056.54
474.598	8281.81
474.802	8044.25
475.007	8009.44
475.212	8064.73
475.417	7759.58
475.621	7739.1
475.826	7737.06
476.031	7681.76
476.235	7511.78
476.44	7505.63
476.645	7321.32
476.849	7409.38
477.054	7167.72
477.259	7243.49
477.463	7257.83
477.668	6950.64
477.872	7001.83
478.077	6868.72
478.282	6764.27
478.486	6655.73
478.691	6737.65
478.895	6751.98
479.1	6829.81
479.304	6756.08
479.509	6524.66
479.713	6438.64
479.918	6604.53
480.122	6393.59
480.326	6510.32
480.531	6506.23
480.735	6104.82
480.94	6354.68
481.144	6713.07
481.348	6207.22
481.553	6328.05
481.757	6340.34
481.961	6268.66
482.166	6516.47
482.37	6248.18
482.574	6199.03
482.778	6311.67
482.983	6342.39
483.187	6229.75
483.391	6221.56
483.595	6178.55
483.8	6106.87
484.004	6129.4
484.208	6262.52
484.412	6213.37
484.616	6153.98
484.821	6289.14
485.025	6070.01
485.229	6252.28
485.433	6223.61
485.637	6135.54
485.841	6250.23
486.045	6192.89
486.249	6246.13
486.453	6266.61
486.657	6323.96
486.861	6373.11
487.065	6160.12
487.269	6328.05
487.473	6194.93
487.677	6356.72
487.881	6412.02
488.085	6334.2
488.289	6385.4
488.493	6340.34
488.697	6452.98
488.901	6344.44
489.105	6450.93
489.309	6502.13
489.512	6477.55
489.716	6389.49
489.92	6526.71
490.124	6577.9
490.328	6715.12
490.531	6610.67
490.735	6758.13
490.939	6715.12
491.143	6481.65
491.346	6565.62
491.55	6850.28
491.754	6967.02
491.958	7057.13
492.161	6739.69
492.365	6907.63
492.569	6872.81
492.772	6747.89
492.976	7040.75
493.18	7132.9
493.383	7093.99
493.587	7214.82
493.79	7284.45
493.994	7122.66
494.197	7268.07
494.401	7386.85
494.605	7464.68
494.808	7526.11
495.012	7681.76
495.215	7524.07
495.419	7677.66
495.622	7724.77
495.825	7767.77
496.029	7818.97
496.232	8029.91
496.436	7894.75
496.639	8240.86
496.843	8179.42
497.046	8277.72
497.249	8439.51
497.453	8494.8
497.656	8646.35
497.859	8615.63
498.063	8789.71
498.266	8922.83
498.469	8986.32
498.673	9029.32
498.876	9227.98
499.079	9326.28
499.282	9303.75
499.485	9717.44
499.689	9588.42
499.892	10047.16
500.095	9809.6
500.298	10077.88
500.501	10165.95
500.705	10401.46
500.908	10493.62
501.111	10520.24
501.314	10770.1
501.517	10600.12
501.72	11046.57
501.923	11034.28
502.126	11421.35
502.329	11493.03
502.532	11572.9
502.735	11617.96
502.938	11876
503.141	12234.39
503.344	12129.95
503.547	12136.09
503.75	12639.89
503.953	12437.14
504.156	12781.2
504.359	13047.44
504.562	12789.39
504.765	13469.32
504.968	13467.27
505.17	13518.47
505.373	13596.29
505.576	13921.92
505.779	14198.4
505.982	14220.92
506.185	14472.82
506.387	14591.61
506.59	14552.7
506.793	15156.85
506.996	15021.68
507.198	15412.84
507.401	15232.62
507.604	15658.6
507.807	15836.77
508.009	16258.65
508.212	16240.22
508.415	16565.85
508.617	16934.48
508.82	16711.25
509.022	16827.99
509.225	17157.71
509.428	17258.06
509.63	17540.68
509.833	17927.75
510.035	18337.34
510.238	18126.4
510.44	18394.68
510.643	18656.82
510.845	19027.51
511.048	19072.56
511.25	19185.2
511.453	19201.58
511.655	20037.16
511.858	19629.61
512.06	19998.24
512.262	20358.69
512.465	20211.23
512.667	20725.27
512.87	20819.48
513.072	21093.91
513.274	21585.42
513.477	21820.94
513.679	21745.16
513.881	22040.07
514.084	22287.87
514.286	22031.88
514.488	22547.97
514.69	23354.86
514.893	23465.46
515.095	23604.72
515.297	23815.66
515.499	23973.35
515.701	24573.41
515.904	24569.31
516.106	24462.82
516.308	24925.66
516.51	25077.21
516.712	25667.02
516.914	25540.05
517.116	25990.6
517.318	26209.73
517.52	26475.97
517.722	26535.36
517.925	26609.09
518.127	27049.4
518.329	27469.23
518.531	27108.79
518.733	27948.46
518.935	27948.46
519.136	28370.34
519.338	28538.27
519.54	28970.4
519.742	29011.35
519.944	29146.52
520.146	29904.27
520.348	29844.88
520.55	29992.33
520.752	30233.99
520.954	30821.76
521.155	30180.74
521.357	31012.22
521.559	31204.73
521.761	31628.66
521.963	31436.15
522.164	31929.71
522.366	32085.36
522.568	32040.3
522.77	32623.97
522.971	33045.85
523.173	32779.62
523.375	33021.28
523.576	33131.87
523.778	33260.89
523.98	33518.93
524.181	33793.36
524.383	33803.6
524.584	34567.49
524.786	34452.81
524.988	34321.74
525.189	35075.39
525.391	34884.93
525.592	35040.57
525.794	35140.93
525.995	35331.39
526.197	35372.35
526.398	35775.8
526.6	35614.01
526.801	35966.26
527.003	35972.4
527.204	35906.87
527.406	36650.28
527.607	36554.02
527.808	36726.05
528.01	36293.93
528.211	36670.76
528.412	37618.97
528.614	37154.08
528.815	37319.96
529.016	37606.68
529.218	37422.36
529.419	37428.51
529.62	37526.81
529.822	37731.61
530.023	37504.28
530.224	37893.4
530.425	37704.98
530.626	37629.21
530.828	37645.59
531.029	38493.45
531.23	38096.14
531.431	37944.59
531.632	38315.28
531.833	38429.96
532.035	38485.26
532.236	38796.55
532.437	38663.43
532.638	38528.27
532.839	39113.98
533.04	38812.93
533.241	38997.25
533.442	39492.86
533.643	39333.12
533.844	39068.93
534.045	39406.84
534.246	38626.57
534.447	39638.26
534.648	38962.43
534.849	39122.18
535.05	39152.9
535.251	39380.22
535.451	39427.32
535.652	39390.46
535.853	39038.21
536.054	39267.58
536.255	39478.52
536.456	39030.02
536.657	39857.4
536.857	39550.2
537.058	39386.36
537.259	40348.91
537.46	39789.81
537.66	39855.35
537.861	39814.39
538.062	39750.9
538.263	39888.12
538.463	39394.56
538.664	39523.58
538.865	39623.93
539.065	39935.22
539.266	39656.7
539.466	40385.77
539.667	39580.92
539.868	40135.92
540.068	40367.34
540.269	39752.95
540.469	40004.85
540.67	39646.46
540.87	40168.69
541.071	39816.44
541.271	40221.94
541.472	40232.18
541.672	39888.12
541.873	40109.3
542.073	39472.38
542.274	40082.67
542.474	39849.21
542.675	39978.23
542.875	40545.51
543.075	39597.31
543.276	40045.81
543.476	40125.68
543.676	40039.67
543.877	40060.15
544.077	40090.87
544.277	40353.01
544.478	39943.41
544.678	40271.09
544.878	39879.92
545.078	40326.38
545.279	39814.39
545.479	40158.45
545.679	40502.51
545.879	39873.78
546.079	40350.96
546.28	40099.06
546.48	39875.83
546.68	40486.12
546.88	40381.68
547.08	40361.2
547.28	40353.01
547.48	40111.35
547.68	40232.18
547.88	40010.99
548.081	40617.19
548.281	40316.14
548.481	39898.36
548.681	40158.45
548.881	40006.9
549.081	39892.21
549.28	40045.81
549.48	40389.87
549.68	40004.85
549.88	40652.01
550.08	40332.53
550.28	40484.08
550.48	40211.7
550.68	40076.53
550.88	40236.27
551.08	40215.79
551.279	40195.31
551.479	39988.47
551.679	40350.96
551.879	40162.54
552.079	40078.58
552.278	39890.16
552.478	40430.83
552.678	40266.99
552.878	40254.7
553.077	39734.52
553.277	39773.43
553.477	40776.94
553.676	39992.56
553.876	39910.64
554.076	39988.47
554.275	39781.62
554.475	39701.75
554.674	40301.81
554.874	39795.96
555.074	39767.29
555.273	39865.59
555.473	40254.7
555.672	39787.77
555.872	40119.54
556.071	40144.11
556.271	40070.39
556.47	39705.85
556.67	39718.14
556.869	39822.58
557.068	40113.39
557.268	39587.07
557.467	39849.21
557.667	40086.77
557.866	39738.61
558.065	39548.15
558.265	39693.56
558.464	39425.28
558.663	39806.2
558.863	39314.69
559.062	40228.08
559.261	39494.91
559.461	39884.02
559.66	39038.21
559.859	39632.12
560.058	39517.43
560.258	39427.32
560.457	39521.53
560.656	39660.79
560.855	39062.79
561.054	39628.02
561.253	38984.96
561.453	39187.71
561.652	39490.81
561.851	39402.75
562.05	39451.9
562.249	39167.23
562.448	39601.4
562.647	39363.84
562.846	39507.19
563.045	39245.05
563.244	38833.41
563.443	39599.35
563.642	38956.29
563.841	39054.59
564.04	38841.6
564.239	39507.19
564.438	38790.41
564.637	39120.13
564.836	38868.23
565.035	38876.42
565.234	39320.83
565.432	39015.68
565.631	38976.77
565.83	39064.83
566.029	39040.26
566.228	38808.84
566.427	38884.61
566.625	38728.97
566.824	38296.84
567.023	39048.45
567.222	38384.91
567.42	39185.66
567.619	38765.83
567.818	38442.25
568.016	38532.36
568.215	38925.57
568.414	38372.62
568.612	39144.7
568.811	38370.57
569.01	38440.2
569.208	37891.35
569.407	39210.24
569.605	38309.13
569.804	38722.82
570.002	38008.08
570.201	38458.63
570.4	37731.61
570.598	38001.94
570.797	37958.93
570.995	38231.31
571.193	37817.62
571.392	38479.11
571.59	37580.06
571.789	37834
571.987	37420.31
572.186	37780.76
572.384	37631.26
572.582	38143.25
572.781	37909.78
572.979	37260.57
573.177	37686.55
573.376	37510.42
573.574	37295.39
573.772	37580.06
573.971	37322.01
574.169	37145.89
574.367	37016.86
574.565	37244.19
574.763	36973.86
574.962	36637.99
575.16	36853.03
575.358	36857.12
575.556	36613.41
575.754	37365.02
575.952	36463.91
576.151	36826.4
576.349	36576.55
576.547	36539.69
576.745	35982.64
576.943	36515.11
577.141	36238.64
577.339	37002.53
577.537	36306.22
577.735	36355.37
577.933	35736.88
578.131	36011.31
578.329	35736.88
578.527	35454.26
578.725	35351.87
578.923	35839.28
579.121	35571
579.319	35585.33
579.516	36080.94
579.714	35507.51
579.912	35243.32
580.11	35265.85
580.308	35394.87
580.506	34975.04
580.704	34458.95
580.901	35108.16
581.099	34995.52
581.297	34680.13
581.495	34596.17
581.692	34921.79
581.89	34676.04
582.088	34979.14
582.285	34469.19
582.483	34837.83
582.681	34303.31
582.878	34467.14
583.076	33840.46
583.274	34587.97
583.471	33426.78
583.669	34114.89
583.866	34110.8
584.064	33934.67
584.262	33420.63
584.459	34194.76
584.657	33738.07
584.854	34092.37
585.052	33285.47
585.249	33578.32
585.447	33273.18
585.644	33074.52
585.841	32910.69
586.039	33224.03
586.236	32818.53
586.434	32902.5
586.631	32621.92
586.828	32757.09
587.026	32920.93
587.223	32740.71
587.42	32714.08
587.618	32568.68
587.815	32265.58
588.012	32204.14
588.21	32447.85
588.407	32185.71
588.604	32251.24
588.801	32060.78
588.999	32028.01
589.196	31772.02
589.393	32005.48
589.59	31776.11
589.787	31599.99
589.984	31616.37
590.182	31284.6
590.379	31483.25
590.576	31288.7
590.773	31421.81
590.97	31397.24
591.167	31292.79
591.364	30985.6
591.561	30911.87
591.758	30473.6
591.955	30533
592.152	30889.34
592.349	30848.38
592.546	30799.23
592.743	30815.62
592.94	30002.57
593.137	30676.35
593.334	30414.21
593.531	30246.28
593.727	30008.72
593.924	30057.87
594.121	29738.38
594.318	30000.52
594.515	29515.15
594.712	30141.83
594.908	29709.71
595.105	29650.32
595.302	29318.55
595.499	29269.4
595.696	29334.93
595.892	28929.44
596.089	29222.3
596.286	29062.55
596.482	29011.35
596.679	28947.87
596.876	28657.06
597.072	28458.4
597.269	28708.26
597.466	28353.96
597.662	28222.89
597.859	28401.06
598.055	28810.65
598.252	28306.85
598.448	28153.26
598.645	27895.21
598.841	28128.68
599.038	28069.29
599.234	28186.02
599.431	27618.74
599.627	27979.18
599.824	27839.92
600.02	27524.53
600.217	27725.23
600.413	27467.19
600.609	27307.44
600.806	27178.42
601.002	27338.16
601.198	26987.96
601.395	26920.38
601.591	26719.68
601.787	27043.26
601.984	26906.04
602.18	27098.55
602.376	26742.21
602.572	26361.28
602.769	26529.22
602.965	26238.4
603.161	26217.93
603.357	26150.34
603.553	26418.63
603.75	26076.62
603.946	25984.46
604.142	26179.01
604.338	25796.04
604.534	26017.22
604.73	25398.74
604.926	25617.87
605.122	25558.48
605.318	25337.3
605.514	25255.38
605.71	25130.45
605.906	25202.13
606.102	25554.38
606.298	25353.68
606.494	25290.2
606.69	25077.21
606.886	24974.81
607.082	24907.23
607.278	25386.45
607.474	24749.53
607.67	24907.23
607.866	24425.95
608.062	24939.99
608.257	24708.57
608.453	24878.55
608.649	25062.87
608.845	24395.23
609.041	24499.68
609.236	24509.92
609.432	24399.33
609.628	24038.89
609.824	24026.6
610.019	24073.7
610.215	24053.22
610.411	24333.79
610.606	24215.01
610.802	23999.98
610.998	23913.96
611.193	24083.94
611.389	23786.99
611.584	23682.54
611.78	23477.74
611.976	23340.53
612.171	23557.61
612.367	23492.08
612.562	23408.11
612.758	23203.32
612.953	23305.71
613.149	23649.77
613.344	23053.81
613.539	23653.87
613.735	23424.5
613.93	23348.72
614.126	23498.22
614.321	23047.67
614.517	22889.98
614.712	23285.23
614.907	22906.36
615.103	22836.73
615.298	23068.15
615.493	23006.71
615.688	22693.37
615.884	23105.01
616.079	22902.26
616.274	22621.69
616.47	22699.51
616.665	22666.75
616.86	22330.88
617.055	22461.95
617.25	22556.16
617.445	22578.68
617.641	21974.53
617.836	22388.22
618.031	21949.96
618.226	22320.64
618.421	22068.74
618.616	22124.04
618.811	21476.88
619.006	22322.69
619.201	21573.13
619.396	21777.93
619.591	21132.82
619.786	21704.2
619.981	21063.19
620.176	21470.73
620.371	21274.13
620.566	21300.75
620.761	21112.34
620.956	21202.45
621.151	20762.14
621.346	20893.21
621.541	20409.89
621.735	20842.01
621.93	20461.09
622.125	20461.09
622.32	20076.07
622.515	20217.38
622.709	19748.39
622.904	20022.82
623.099	19891.75
623.294	19605.03
623.488	19590.7
623.683	19756.58
623.878	19467.82
624.072	19459.63
624.267	19357.23
624.462	19342.89
624.656	18572.86
624.851	19250.74
625.046	18992.69
625.24	19017.27
625.435	18697.78
625.629	18576.95
625.824	18576.95
626.018	18499.13
626.213	17999.43
626.407	18366.01
626.602	17991.23
626.796	18173.5
626.991	17878.6
627.185	17725
627.38	17725
627.574	17614.41
627.768	17534.54
627.963	17219.15
628.157	17301.07
628.352	17313.36
628.546	17184.34
628.74	17131.09
628.935	17063.5
629.129	17008.21
629.323	16682.58
629.517	16842.32
629.712	16684.63
629.906	16244.32
630.1	16332.38
630.294	16359
630.489	16186.97
630.683	16297.56
630.877	15875.68
631.071	15785.57
631.265	16295.52
631.459	15705.7
631.653	15797.86
631.848	15761
632.042	15726.18
632.236	15584.87
632.43	15498.86
632.624	15646.31
632.818	15206
633.012	15011.44
633.206	15203.95
633.4	15185.52
633.594	14923.38
633.788	14997.1
633.982	15013.49
634.176	14737.01
634.369	14952.05
634.563	14710.39
634.757	14691.96
634.951	14489.21
635.145	14446.2
635.339	14468.73
635.533	14096
635.726	14378.62
635.92	13960.83
636.114	13911.68
636.308	13987.46
636.501	13915.78
636.695	13889.15
636.889	13794.95
637.083	13467.27
637.276	13743.75
637.47	13571.72
637.664	13629.06
637.857	13477.51
638.051	13235.85
638.244	13217.42
638.438	13276.81
638.632	13086.35
638.825	13018.77
639.019	13020.81
639.212	12924.56
639.406	13069.97
639.599	12918.42
639.793	13029.01
639.986	12570.26
640.18	12594.84
640.373	12412.57
640.567	12590.74
640.76	12433.05
640.954	12209.82
641.147	12416.66
641.34	12144.28
641.534	12152.48
641.727	12007.07
641.92	12029.6
642.114	12103.32
642.307	11927.2
642.5	11751.07
642.694	11507.37
642.887	11429.54
643.08	11810.47
643.273	11703.97
643.467	11568.8
643.66	11493.03
643.853	11196.07
644.046	11269.8
644.239	11243.18
644.432	11364.01
644.626	11118.25
644.819	11185.83
645.012	11226.79
645.205	10792.62
645.398	10895.02
645.591	10835.63
645.784	10735.28
645.977	10540.72
646.17	10647.22
646.363	10483.38
646.556	10454.71
646.749	10376.89
646.942	10507.96
647.135	10333.88
647.328	10288.82
647.521	10254.01
647.714	10229.43
647.907	10200.76
648.099	10012.35
648.292	10274.49
648.485	9963.2
648.678	9770.69
648.871	9686.72
649.064	9465.54
649.256	9678.53
649.449	9778.88
649.642	9463.49
649.835	9479.88
650.027	9391.81
650.22	9473.73
650.413	9285.32
650.605	9309.9
650.798	9371.33
650.991	9172.68
651.183	9219.78
651.376	8922.83
651.568	8980.17
651.761	8918.73
651.954	9008.84
652.146	8916.69
652.339	8875.73
652.531	8718.03
652.724	8617.68
652.916	8369.88
653.109	8517.33
653.301	8568.53
653.494	8691.41
653.686	8353.49
653.879	8509.14
654.071	8509.14
654.263	8312.53
654.456	8234.71
654.648	8359.64
654.84	8179.42
655.033	8140.51
655.225	7970.52
655.417	8052.44
655.61	8099.55
655.802	7986.91
655.994	7786.21
656.186	7831.26
656.379	7829.21
656.571	7708.38
656.763	7677.66
656.955	7534.31
657.148	7861.98
657.34	7567.07
657.532	7382.76
657.724	7515.87
657.916	7421.67
658.108	7374.56
658.3	7149.29
658.492	7327.46
658.684	7155.43
658.876	7225.06
659.068	7118.57
659.26	7059.18
659.452	7040.75
659.644	7044.84
659.836	6821.61
660.028	7048.94
660.22	6926.06
660.412	6903.53
660.604	6545.14
660.796	6655.73
660.988	6661.87
661.18	6545.14
661.372	6551.28
661.563	6524.66
661.755	6221.56
661.947	6448.88
662.139	6543.09
662.331	6334.2
662.522	6194.93
662.714	6227.7
662.906	6184.69
663.097	6278.9
663.289	6049.53
663.481	5893.88
663.673	5979.9
663.864	5838.59
664.056	5803.77
664.247	5791.48
664.439	5918.46
664.631	5762.81
664.822	5846.78
665.014	5662.46
665.205	5734.14
665.397	5691.13
665.588	5537.54
665.78	5603.07
665.971	5594.88
666.163	5666.56
666.354	5451.52
666.546	5428.99
666.737	5392.13
666.929	5306.12
667.12	5385.99
667.311	5353.22
667.503	5156.61
667.694	5299.97
667.885	5150.47
668.077	5279.49
668.268	5025.54
668.459	5084.94
668.651	4947.72
668.842	4972.3
669.033	5109.51
669.224	4812.56
669.416	4943.63
669.607	4728.59
669.798	4613.9
669.989	4919.05
670.18	4792.08
670.371	4738.83
670.563	4646.67
670.754	4685.58
670.945	4632.33
671.136	4618
671.327	4435.73
671.518	4339.48
671.709	4419.35
671.9	4663.05
672.091	4503.31
672.282	4386.58
672.473	4513.55
672.664	4499.22
672.855	4427.54
673.046	4476.69
673.237	4470.55
673.428	4263.7
673.619	4386.58
673.809	4364.05
674	4222.74
674.191	4284.18
674.382	4288.28
674.573	4196.12
674.764	4103.96
674.954	4132.63
675.145	4144.92
675.336	4124.44
675.527	4048.66
675.717	4009.75
675.908	4114.2
676.099	3995.42
676.289	3923.74
676.48	4052.76
676.671	3890.97
676.861	3981.08
677.052	3839.77
677.243	3720.99
677.433	3956.5
677.624	3852.06
677.814	3751.71
678.005	3856.15
678.195	3747.61
678.386	3778.33
678.576	3733.28
678.767	3759.9
678.957	3764
679.148	3641.12
679.338	3706.65
679.529	3766.04
679.719	3680.03
679.909	3634.97
680.1	3733.28
680.29	3585.82
680.481	3493.66
680.671	3665.69
680.861	3530.53
681.052	3559.2
681.242	3489.57
681.432	3655.45
681.622	3534.62
681.813	3446.56
682.003	3616.54
682.193	3446.56
682.383	3577.63
682.573	3583.77
682.764	3526.43
682.954	3491.62
683.144	3510.05
683.334	3452.7
683.524	3432.22
683.714	3376.93
683.904	3258.15
684.094	3383.07
684.284	3499.81
684.474	3446.56
684.664	3315.49
684.854	3430.18
685.044	3462.94
685.234	3254.05
685.424	3268.39
685.614	3233.57
685.804	3137.32
685.994	3391.27
686.184	3350.31
686.374	3274.53
686.564	3256.1
686.753	3292.96
686.943	3110.69
687.133	3282.72
687.323	3436.32
687.513	3260.2
687.702	3239.72
687.892	3118.89
688.082	3262.24
688.272	3178.28
688.461	3301.15
688.651	3229.48
688.841	3184.42
689.03	3176.23
689.22	3135.27
689.41	3233.57
689.599	3196.71
689.789	3125.03
689.979	3151.65
690.168	3217.19
690.358	3190.56
690.547	3045.16
690.737	3161.89
690.926	3079.97
691.116	3077.93
691.305	3266.34
691.495	3053.35
691.684	3073.83
691.874	3108.65
692.063	3170.08
692.252	3213.09
692.442	2981.67
692.631	2985.77
692.82	2996.01
693.01	3141.41
693.199	3161.89
693.388	3143.46
693.578	3071.78
693.767	2836.27
693.956	2977.58
694.146	2977.58
694.335	2862.89
694.524	2996.01
694.713	3075.88
694.902	2889.51
695.092	2903.85
695.281	2928.42
695.47	2942.76
695.659	2897.71
695.848	2783.02
696.037	2991.91
696.226	2905.9
696.415	2783.02
696.604	2856.75
696.793	2920.23
696.982	2801.45
697.171	2871.08
697.36	2737.96
697.549	2733.87
697.738	2946.86
697.927	2674.48
698.116	2821.93
698.305	2699.05
698.494	2828.07
698.683	2797.35
698.872	2742.06
699.061	2701.1
699.25	2688.81
699.438	2604.85
699.627	2684.72
699.816	2619.18
700.005	2533.17
700.193	2619.18
700.382	2731.82
700.571	2514.73
700.76	2531.12
700.948	2610.99
701.137	2588.46
701.326	2539.31
701.514	2486.06
701.703	2486.06
701.892	2465.58
702.08	2635.57
702.269	2406.19
702.457	2494.26
702.646	2500.4
702.834	2453.3
703.023	2352.95
703.212	2477.87
703.4	2414.38
703.589	2467.63
703.777	2432.82
703.965	2359.09
704.154	2393.9
704.342	2385.71
704.531	2350.9
704.719	2281.27
704.907	2387.76
705.096	2199.35
705.284	2273.07
705.472	2322.23
705.661	2303.79
705.849	2207.54
706.037	2285.36
706.226	2182.96
706.414	2322.23
706.602	2162.48
706.79	2232.12
706.979	2215.73
707.167	2162.48
707.355	2176.82
707.543	2240.31
707.731	2158.39
707.919	2072.37
708.107	2070.33
708.296	2137.91
708.484	2066.23
708.672	2154.29
708.86	2107.19
709.048	2031.41
709.236	2125.62
709.424	2078.52
709.612	1984.31
709.8	2029.37
709.988	1920.82
710.176	1947.45
710.364	2023.22
710.551	2002.74
710.739	1969.98
710.927	1881.91
711.115	1969.98
711.303	1976.12
711.491	1955.64
711.679	1890.1
711.866	1845.05
712.054	1834.81
712.242	1838.91
712.43	1945.4
712.617	1855.29
712.805	1830.71
712.993	1922.87
713.181	1863.48
713.368	1793.85
713.556	1814.33
713.744	1781.56
713.931	1759.03
714.119	1789.75
714.306	1750.84
714.494	1777.47
714.682	1761.08
714.869	1738.55
715.057	1644.35
715.244	1691.45
715.432	1826.62
715.619	1777.47
715.807	1691.45
715.994	1691.45
716.182	1636.16
716.369	1658.68
716.556	1593.15
716.744	1595.2
716.931	1685.31
717.119	1640.25
717.306	1646.4
717.493	1591.1
717.681	1580.86
717.868	1605.44
718.055	1564.48
718.242	1587.01
718.43	1535.81
718.617	1539.9
718.804	1554.24
718.991	1449.79
719.179	1541.95
719.366	1601.34
719.553	1472.32
719.74	1572.67
719.927	1466.17
720.114	1439.55
720.301	1482.56
720.488	1439.55
720.676	1439.55
720.863	1539.9
721.05	1402.69
721.237	1437.5
721.424	1412.93
721.611	1378.11
721.798	1417.02
721.985	1322.82
722.172	1480.51
722.358	1308.48
722.545	1386.3
722.732	1384.26
722.919	1339.2
723.106	1406.78
723.293	1296.19
723.48	1206.08
723.667	1308.48
723.853	1290.05
724.04	1242.95
724.227	1320.77
724.414	1357.63
724.6	1281.86
724.787	1355.58
724.974	1400.64
725.161	1236.8
725.347	1195.84
725.534	1255.23
725.72	1247.04
725.907	1259.33
726.094	1251.14
726.28	1261.38
726.467	1105.73
726.653	1099.59
726.84	1230.66
727.027	1228.61
727.213	1242.95
727.4	1126.21
727.586	1253.19
727.773	1224.51
727.959	1144.64
728.145	1152.84
728.332	1126.21
728.518	1085.25
728.705	1216.32
728.891	1120.07
729.077	1101.64
729.264	1247.04
729.45	1189.7
729.636	1093.44
729.823	1150.79
730.009	1183.56
730.195	1064.77
730.382	1091.4
730.568	1079.11
730.754	1079.11
730.94	980.81
731.126	1034.05
731.313	1109.83
731.499	1042.25
731.685	1029.96
731.871	1040.2
732.057	1048.39
732.243	980.81
732.429	1025.86
732.615	986.95
732.801	1011.53
732.987	925.51
733.173	933.7
733.359	1007.43
733.545	1075.01
733.731	843.59
733.917	993.09
734.103	986.95
734.289	989
734.475	958.28
734.661	1021.77
734.847	933.7
735.033	986.95
735.219	1019.72
735.404	913.22
735.59	915.27
735.776	862.02
735.962	970.57
736.148	909.13
736.333	876.36
736.519	970.57
736.705	921.42
736.89	862.02
737.076	874.31
737.262	923.46
737.447	847.69
737.633	878.41
737.819	898.89
738.004	935.75
738.19	843.59
738.375	788.3
738.561	907.08
738.747	819.02
738.932	804.68
739.118	915.27
739.303	857.93
739.489	712.52
739.674	786.25
739.859	819.02
740.045	780.11
740.23	763.72
740.416	786.25
740.601	816.97
740.786	689.99
740.972	724.81
741.157	829.26
741.342	741.19
741.528	714.57
741.713	741.19
741.898	800.59
742.084	763.72
742.269	771.91
742.454	827.21
742.639	821.06
742.824	743.24
743.01	630.6
743.195	677.71
743.38	706.38
743.565	724.81
743.75	724.81
743.935	808.78
744.12	730.95
744.305	730.95
744.49	644.94
744.675	692.04
744.86	661.32
745.045	659.28
745.23	677.71
745.415	702.28
745.6	681.8
745.785	653.13
745.97	745.29
746.155	651.08
746.34	724.81
746.525	710.47
746.71	569.16
746.895	575.31
747.079	614.22
747.264	749.39
747.449	706.38
747.634	642.89
747.819	663.37
748.003	591.69
748.188	626.51
748.373	577.36
748.557	575.31
748.742	638.8
748.927	610.12
749.111	530.25
749.296	575.31
749.481	653.13
749.665	630.6
749.85	489.29
750.034	634.7
750.219	653.13
750.404	597.84
750.588	593.74
750.773	595.79
750.957	481.1
751.141	454.48
751.326	515.92
751.51	558.92
751.695	546.64
751.879	534.35
752.064	495.44
752.248	585.55
752.432	608.08
752.617	560.97
752.801	577.36
752.985	446.29
753.17	554.83
753.354	550.73
753.538	515.92
753.722	546.64
753.907	470.86
754.091	499.53
754.275	499.53
754.459	468.81
754.643	569.16
754.828	450.38
755.012	511.82
755.196	487.25
755.38	554.83
755.564	411.47
755.748	472.91
755.932	483.15
756.116	520.01
756.3	505.68
756.484	468.81
756.668	472.91
756.852	497.49
757.036	507.73
757.22	425.81
757.404	429.9
757.588	481.1
757.772	438.09
757.956	376.66
758.14	497.49
758.323	390.99
758.507	446.29
758.691	425.81
758.875	321.36
759.059	419.66
759.242	415.57
759.426	415.57
759.61	423.76
759.794	444.24
759.977	380.75
760.161	472.91
760.345	311.12
760.528	382.8
760.712	360.27
760.895	419.66
761.079	440.14
761.263	372.56
761.446	364.37
761.63	434
761.813	419.66
761.997	360.27
762.18	300.88
762.364	444.24
762.547	350.03
762.731	407.38
762.914	442.19
763.098	356.18
763.281	364.37
763.464	362.32
763.648	374.61
763.831	331.6
764.015	321.36
764.198	429.9
764.381	374.61
764.564	374.61
764.748	329.55
764.931	425.81
765.114	382.8
765.297	347.98
765.481	450.38
765.664	362.32
765.847	311.12
766.03	327.5
766.213	429.9
766.397	352.08
766.58	350.03
766.763	360.27
766.946	341.84
767.129	372.56
767.312	321.36
767.495	352.08
767.678	372.56
767.861	376.66
768.044	319.31
768.227	347.98
768.41	352.08
768.593	325.46
768.776	313.17
768.959	313.17
769.142	323.41
769.324	390.99
769.507	325.46
769.69	372.56
769.873	268.11
770.056	376.66
770.239	331.6
770.421	356.18
770.604	290.64
770.787	286.54
770.97	356.18
771.152	358.22
771.335	278.35
771.518	390.99
771.7	372.56
771.883	333.65
772.066	304.98
772.248	335.7
772.431	354.13
772.613	325.46
772.796	302.93
772.978	311.12
773.161	343.89
773.343	282.45
773.526	313.17
773.708	343.89
773.891	282.45
774.073	286.54
774.256	319.31
774.438	376.66
774.621	278.35
774.803	298.83
774.985	343.89
775.168	347.98
775.35	343.89
775.532	296.78
775.715	339.79
775.897	298.83
776.079	341.84
776.261	300.88
776.444	302.93
776.626	266.07
776.808	376.66
776.99	288.59
777.173	268.11
777.355	276.31
777.537	333.65
777.719	331.6
777.901	270.16
778.083	239.44
778.265	218.96
778.447	278.35
778.629	245.59
778.811	304.98
778.993	290.64
779.175	309.07
779.357	282.45
779.539	243.54
779.721	337.74
779.903	268.11
780.085	327.5
780.267	325.46
780.449	188.24
780.631	284.5
780.812	288.59
780.994	245.59
781.176	153.43
781.358	204.63
781.54	223.06
781.721	221.01
781.903	307.02
782.085	204.63
782.267	243.54
782.448	243.54
782.63	245.59
782.812	198.48
782.993	221.01
783.175	151.38
783.357	200.53
783.538	233.3
783.72	255.83
783.901	259.92
784.083	216.91
784.264	259.92
784.446	167.76
784.627	227.15
784.809	206.67
784.99	218.96
785.172	182.1
785.353	161.62
785.535	151.38
785.716	204.63
785.897	188.24
786.079	149.33
786.26	157.52
786.441	237.39
786.623	182.1
786.804	218.96
786.985	196.43
787.167	253.78
787.348	165.71
787.529	178
787.71	212.82
787.891	190.29
788.073	184.15
788.254	186.19
788.435	208.72
788.616	155.47
788.797	165.71
788.978	55.12
789.159	161.62
789.34	202.58
789.522	206.67
789.703	184.15
789.884	89.94
790.065	171.86
790.246	106.32
790.427	167.76
790.607	155.47
790.788	186.19
790.969	135
791.15	173.91
791.331	116.56
791.512	104.28
791.693	118.61
791.874	194.39
792.054	159.57
792.235	157.52
792.416	137.04
792.597	190.29
792.778	135
792.958	141.14
793.139	44.88
793.32	141.14
793.5	135
793.681	87.89
793.862	122.71
794.042	135
794.223	106.32
794.404	165.71
794.584	96.08
794.765	106.32
794.945	122.71
795.126	159.57
795.306	204.63
795.487	157.52
795.667	112.47
795.848	155.47
796.028	155.47
796.209	108.37
796.389	147.28
796.57	190.29
796.75	114.52
796.93	145.24
797.111	120.66
797.291	139.09
797.471	122.71
797.652	155.47
797.832	126.8
798.012	120.66
798.192	63.32
798.373	51.03
798.553	63.32
798.733	71.51
798.913	112.47
799.093	141.14
799.274	110.42
799.454	163.67
799.634	85.84
799.814	188.24
799.994	106.32
800.174	130.9
800.354	110.42
800.534	145.24
800.714	67.41
800.894	94.04
801.074	75.6
801.254	192.34
801.434	135
801.614	120.66
801.794	106.32
801.974	323.41
802.154	192.34
802.334	65.36
802.514	59.22
802.693	77.65
802.873	98.13
803.053	61.27
803.233	1.88
803.413	116.56
803.592	165.71
803.772	126.8
803.952	81.75
804.131	10.07
804.311	89.94
804.491	71.51
804.67	67.41
804.85	75.6
805.03	67.41
805.209	126.8
805.389	67.41
805.568	104.28
805.748	145.24
805.928	114.52
806.107	114.52
806.287	32.6
806.466	102.23
806.646	75.6
806.825	128.85
807.004	108.37
807.184	108.37
807.363	104.28
807.543	77.65
807.722	55.12
807.901	36.69
808.081	63.32
808.26	59.22
808.439	38.74
808.619	116.56
808.798	67.41
808.977	104.28
809.156	98.13
809.336	38.74
809.515	145.24
809.694	30.55
809.873	128.85
810.052	40.79
810.231	98.13
810.411	77.65
810.59	91.99
810.769	42.84
810.948	114.52
811.127	69.46
811.306	69.46
811.485	34.64
811.664	147.28
811.843	20.31
812.022	67.41
812.201	75.6
812.38	118.61
812.559	79.7
812.737	124.76
812.916	30.55
813.095	22.36
813.274	12.12
813.453	55.12
813.632	128.85
813.811	89.94
813.989	104.28
814.168	46.93
814.347	87.89
814.526	85.84
814.704	89.94
814.883	87.89
815.062	48.98
815.24	141.14
815.419	42.84
815.598	55.12
815.776	73.56
815.955	69.46
816.133	8.02
816.312	91.99
816.49	48.98
816.669	202.58
816.847	14.17
817.026	32.6
817.204	128.85
817.383	57.17
817.561	89.94
817.74	51.03
817.918	10.07
818.097	57.17
818.275	26.45
818.453	61.27
818.632	26.45
818.81	116.56
818.988	30.55
819.167	55.12
819.345	48.98
819.523	61.27
819.701	14.17
819.879	89.94
820.058	48.98
820.236	40.79
820.414	65.36
820.592	116.56
820.77	24.4
820.948	20.31
821.127	53.08
821.305	110.42
821.483	22.36
821.661	106.32
821.839	24.4
822.017	28.5
822.195	104.28
822.373	89.94
822.551	16.21
822.729	34.64
822.907	79.7
823.085	77.65
823.262	-8.36
823.44	-18.6
823.618	26.45
823.796	65.36
823.974	42.84
824.152	61.27
824.329	79.7
824.507	28.5
824.685	10.07
824.863	16.21
825.04	24.4
825.218	44.88
825.396	28.5
825.574	55.12
825.751	108.37
825.929	81.75
826.107	38.74
826.284	40.79
826.462	108.37
826.639	102.23
826.817	20.31
826.994	112.47
827.172	-0.17
827.349	73.56
827.527	16.21
827.704	69.46
827.882	59.22
828.059	71.51
828.237	40.79
828.414	116.56
828.591	5.97
828.769	12.12
828.946	81.75
829.124	46.93
829.301	32.6
829.478	14.17
829.655	44.88
829.833	110.42
830.01	18.26
830.187	79.7
830.364	-51.37
830.542	53.08
830.719	20.31
830.896	8.02
831.073	-12.46
831.25	10.07
831.427	-28.84
831.604	-10.41
831.782	3.93
831.959	5.97
832.136	-18.6
832.313	53.08
832.49	48.98
832.667	67.41
832.844	-16.55
833.021	57.17
833.198	14.17
833.374	-6.31
833.551	87.89
833.728	-51.37
833.905	18.26
834.082	26.45
834.259	46.93
834.436	42.84
834.612	10.07
834.789	128.85
834.966	77.65
835.143	28.5
835.319	71.51
835.496	55.12
835.673	24.4
835.85	61.27
836.026	30.55
836.203	-16.55
836.38	18.26
836.556	59.22
836.733	-2.22
836.909	104.28
837.086	67.41
837.262	38.74
837.439	-30.89
837.616	18.26
837.792	3.93
837.968	100.18
838.145	16.21
838.321	-41.13
838.498	20.31
838.674	51.03
838.851	-8.36
839.027	55.12
839.203	36.69
839.38	-2.22
839.556	8.02
839.732	32.6
839.909	-2.22
840.085	46.93
840.261	53.08
840.437	44.88
840.614	44.88
840.79	5.97
840.966	-12.46
841.142	-2.22
841.318	22.36
841.494	75.6
841.671	44.88
841.847	36.69
842.023	44.88
842.199	102.23
842.375	14.17
842.551	77.65
842.727	10.07
842.903	114.52
843.079	-45.23
843.255	20.31
843.431	-0.17
843.607	-4.27
843.783	14.17
843.959	-14.51
844.134	5.97
844.31	71.51
844.486	55.12
844.662	36.69
844.838	24.4
845.013	61.27
845.189	63.32
845.365	-63.66
845.541	34.64
845.716	32.6
845.892	69.46
846.068	-22.7
846.244	-28.84
846.419	30.55
846.595	-45.23
846.77	5.97
846.946	79.7
847.122	26.45
847.297	28.5
847.473	22.36
847.648	-8.36
847.824	1.88
847.999	-39.08
848.175	30.55
848.35	48.98
848.526	28.5
848.701	12.12
848.876	-30.89
849.052	20.31
849.227	51.03
849.403	65.36
849.578	46.93
849.753	34.64
849.929	61.27
850.104	40.79
850.279	-41.13
850.454	53.08
850.63	79.7
850.805	20.31
850.98	24.4
851.155	3.93
851.33	14.17
851.505	12.12
851.681	12.12
851.856	20.31
852.031	28.5
852.206	-69.8
852.381	-18.6
852.556	18.26
852.731	36.69
852.906	81.75
853.081	24.4
853.256	-24.75
853.431	61.27
853.606	-32.94
853.781	-28.84
853.956	36.69
854.131	28.5
854.305	-63.66
854.48	-34.99
854.655	36.69
854.83	-43.18
855.005	16.21
855.18	3.93
855.354	16.21
855.529	24.4
855.704	28.5
855.879	20.31
856.053	30.55
856.228	5.97
856.403	75.6
856.577	61.27
856.752	-4.27
856.926	-84.14
857.101	-24.75
857.276	20.31
857.45	5.97
857.625	77.65
857.799	-18.6
857.974	-104.62
858.148	22.36
858.323	42.84
858.497	26.45
858.672	73.56
858.846	-10.41
859.02	79.7
859.195	67.41
859.369	12.12
859.543	26.45
859.718	24.4
859.892	26.45
860.066	-49.32
860.241	-22.7
860.415	14.17
860.589	-4.27
860.763	42.84
860.938	-16.55
861.112	67.41
861.286	18.26
861.46	77.65
861.634	-32.94
861.808	-2.22
861.982	38.74
862.157	8.02
862.331	28.5
862.505	5.97
862.679	-10.41
862.853	-10.41
863.027	28.5
863.201	48.98
863.375	22.36
863.549	53.08
863.722	-6.31
863.896	-2.22
864.07	-30.89
864.244	-28.84
864.418	8.02
864.592	28.5
864.766	-14.51
864.939	5.97
865.113	-24.75
865.287	73.56
865.461	14.17
865.634	-2.22
865.808	-10.41
865.982	67.41
866.156	-45.23
866.329	3.93
866.503	-28.84
866.676	102.23
866.85	-16.55
867.024	22.36
867.197	20.31
867.371	24.4
867.544	30.55
867.718	-14.51
867.891	-22.7
868.065	32.6
868.238	-49.32
868.412	-55.47
868.585	-51.37
868.759	3.93
868.932	36.69
869.105	3.93
869.279	-8.36
869.452	-30.89
869.625	-57.51
869.799	-39.08
869.972	-45.23
870.145	36.69
870.319	20.31
870.492	5.97
870.665	102.23
870.838	26.45
871.011	-39.08
871.185	-4.27
871.358	24.4
871.531	12.12
871.704	3.93
871.877	3.93
872.05	30.55
872.223	32.6
872.396	-6.31
872.569	3.93
872.742	5.97
872.915	32.6
873.088	-24.75
873.261	-14.51
873.434	3.93
873.607	28.5
873.78	67.41
873.953	-8.36
874.126	-24.75
874.299	51.03
874.471	42.84
874.644	16.21
874.817	-6.31
874.99	110.42
875.163	46.93
875.335	-22.7
875.508	36.69
875.681	-43.18
875.853	63.32
876.026	10.07
876.199	1.88
876.371	24.4
876.544	-4.27
876.717	28.5
876.889	-49.32
877.062	83.8
877.234	34.64
877.407	-26.79
877.579	-43.18
877.752	26.45
877.924	26.45
878.097	57.17
878.269	48.98
878.442	-16.55
878.614	18.26
878.786	30.55
878.959	-10.41
879.131	69.46
879.303	-39.08
879.476	38.74
879.648	-43.18
879.82	98.13
879.993	8.02
880.165	-14.51
880.337	-2.22
880.509	61.27
880.681	-22.7
880.854	3.93
881.026	-16.55
881.198	75.6
881.37	-0.17
881.542	-0.17
881.714	18.26
881.886	12.12
882.058	-2.22
882.23	94.04
882.402	-2.22
882.574	-2.22
882.746	-8.36
882.918	22.36
883.09	5.97
883.262	-45.23
883.434	-61.61
883.606	-18.6
883.778	28.5
883.95	22.36
884.122	18.26
884.293	81.75
884.465	-53.42
884.637	53.08
884.809	-10.41
884.98	-20.65
885.152	-6.31
885.324	14.17
885.496	-47.27
885.667	34.64
885.839	18.26
886.011	-16.55
886.182	-6.31
886.354	-18.6
886.525	3.93
886.697	-20.65
886.869	1.88
887.04	18.26
887.212	73.56
887.383	77.65
887.555	44.88
887.726	-47.27
887.897	48.98
888.069	5.97
888.24	53.08
888.412	3.93
888.583	-37.03
888.754	40.79
888.926	10.07
889.097	16.21
889.268	-2.22
889.44	26.45
889.611	18.26
889.782	1.88
889.953	10.07
890.125	69.46
890.296	-2.22
890.467	-18.6
890.638	-28.84
890.809	44.88
890.98	-28.84
891.151	102.23
891.323	63.32
891.494	-0.17
891.665	-4.27
891.836	-26.79
892.007	-10.41
892.178	-2.22
892.349	8.02
892.52	-4.27
892.691	34.64
892.862	3.93
893.032	36.69
893.203	-45.23
893.374	-45.23
893.545	59.22
893.716	14.17
893.887	36.69
894.057	-90.28
894.228	-0.17
894.399	-49.32
894.57	18.26
894.74	12.12
894.911	53.08
895.082	16.21
895.253	-39.08
895.423	22.36
895.594	-8.36
895.764	18.26
895.935	34.64
896.106	30.55
896.276	-51.37
896.447	-18.6
896.617	-28.84
896.788	14.17
896.958	-28.84
897.129	-61.61
897.299	-57.51
897.47	-18.6
897.64	-2.22
897.81	-34.99
897.981	32.6
898.151	-37.03
898.322	18.26
898.492	10.07
898.662	30.55
898.832	20.31
899.003	46.93
899.173	-37.03
899.343	-39.08
899.513	-14.51
