Data from USB4F104151__9__12-53-09-349.txt Node

Date: Fri Mar 14 12:53:09 EDT 2025
User: louis
Spectrometer: USB4F10415
Trigger mode: 4
Integration Time (sec): 1.000000E-2
Scans to average: 1
Electric dark correction enabled: true
Nonlinearity correction enabled: false
Boxcar width: 0
XAxis mode: Wavelengths
Number of Pixels in Spectrum: 3648
>>>>>Begin Spectral Data<<<<<
178.204	-5.46
178.424	-5.46
178.644	-5.46
178.864	-79.19
179.084	-48.47
179.304	10.92
179.524	17.07
179.744	49.83
179.964	-19.8
180.184	6.83
180.404	27.31
180.624	-48.47
180.844	2.73
181.064	-11.61
181.283	21.16
181.503	-25.94
181.723	-30.04
181.943	15.02
182.163	2.73
182.383	-1.37
182.602	70.31
182.822	8.87
183.042	47.79
183.262	10.92
183.482	53.93
183.701	-71
183.921	53.93
184.141	25.26
184.361	21.16
184.58	25.26
184.8	-27.99
185.02	12.97
185.239	39.59
185.459	-32.08
185.679	58.03
185.898	15.02
186.118	8.87
186.338	-42.32
186.557	80.55
186.777	10.92
186.997	76.46
187.216	4.78
187.436	90.79
187.655	15.02
187.875	84.65
188.095	12.97
188.314	43.69
188.534	-13.65
188.753	25.26
188.973	10.92
189.192	49.83
189.412	72.36
189.631	-5.46
189.851	0.68
190.07	53.93
190.29	66.22
190.509	21.16
190.729	31.4
190.948	78.51
191.168	43.69
191.387	33.45
191.607	47.79
191.826	8.87
192.045	29.35
192.265	80.55
192.484	72.36
192.704	74.41
192.923	103.08
193.142	76.46
193.362	55.98
193.581	39.59
193.8	33.45
194.02	117.42
194.239	-40.28
194.458	19.11
194.678	31.4
194.897	-3.41
195.116	35.5
195.335	-21.84
195.555	103.08
195.774	2.73
195.993	64.17
196.212	41.64
196.432	-1.37
196.651	-5.46
196.87	23.21
197.089	55.98
197.308	-46.42
197.528	37.55
197.747	62.12
197.966	55.98
198.185	0.68
198.404	23.21
198.623	74.41
198.842	23.21
199.062	35.5
199.281	41.64
199.5	-13.65
199.719	0.68
199.938	64.17
200.157	23.21
200.376	35.5
200.595	51.88
200.814	53.93
201.033	-15.7
201.252	51.88
201.471	17.07
201.69	23.21
201.909	39.59
202.128	0.68
202.347	103.08
202.566	23.21
202.785	70.31
203.004	33.45
203.223	23.21
203.442	60.07
203.661	6.83
203.879	-3.41
204.098	27.31
204.317	96.94
204.536	131.75
204.755	78.51
204.974	35.5
205.193	21.16
205.411	90.79
205.63	51.88
205.849	10.92
206.068	60.07
206.287	-3.41
206.505	76.46
206.724	37.55
206.943	23.21
207.162	37.55
207.381	-34.13
207.599	41.64
207.818	43.69
208.037	15.02
208.255	-9.56
208.474	72.36
208.693	80.55
208.911	35.5
209.13	-25.94
209.349	51.88
209.567	27.31
209.786	47.79
210.005	19.11
210.223	41.64
210.442	37.55
210.661	-23.89
210.879	55.98
211.098	-1.37
211.316	115.37
211.535	101.03
211.753	-44.37
211.972	45.74
212.191	23.21
212.409	21.16
212.628	-21.84
212.846	4.78
213.065	33.45
213.283	45.74
213.502	47.79
213.72	4.78
213.938	-3.41
214.157	64.17
214.375	6.83
214.594	35.5
214.812	49.83
215.031	84.65
215.249	37.55
215.467	43.69
215.686	2.73
215.904	-17.75
216.122	10.92
216.341	80.55
216.559	10.92
216.778	86.7
216.996	35.5
217.214	21.16
217.432	-15.7
217.651	-5.46
217.869	39.59
218.087	-23.89
218.306	66.22
218.524	0.68
218.742	17.07
218.96	47.79
219.179	-7.51
219.397	10.92
219.615	45.74
219.833	4.78
220.051	2.73
220.27	-27.99
220.488	43.69
220.706	82.6
220.924	33.45
221.142	-44.37
221.36	88.75
221.578	21.16
221.796	49.83
222.015	-1.37
222.233	62.12
222.451	6.83
222.669	17.07
222.887	62.12
223.105	10.92
223.323	101.03
223.541	6.83
223.759	39.59
223.977	0.68
224.195	74.41
224.413	4.78
224.631	8.87
224.849	25.26
225.067	35.5
225.285	-9.56
225.503	15.02
225.721	-34.13
225.939	-38.23
226.157	53.93
226.375	-3.41
226.592	78.51
226.81	-7.51
227.028	78.51
227.246	78.51
227.464	-3.41
227.682	41.64
227.9	53.93
228.117	2.73
228.335	0.68
228.553	53.93
228.771	37.55
228.989	-9.56
229.206	70.31
229.424	33.45
229.642	29.35
229.86	47.79
230.077	33.45
230.295	-25.94
230.513	15.02
230.731	47.79
230.948	25.26
231.166	35.5
231.384	58.03
231.601	80.55
231.819	12.97
232.037	-30.04
232.254	2.73
232.472	51.88
232.689	55.98
232.907	70.31
233.125	-17.75
233.342	-54.61
233.56	72.36
233.777	-5.46
233.995	8.87
234.213	76.46
234.43	31.4
234.648	6.83
234.865	-5.46
235.083	51.88
235.3	76.46
235.518	66.22
235.735	62.12
235.953	76.46
236.17	23.21
236.388	55.98
236.605	-52.56
236.822	96.94
237.04	19.11
237.257	25.26
237.475	19.11
237.692	76.46
237.909	41.64
238.127	-11.61
238.344	29.35
238.562	74.41
238.779	37.55
238.996	39.59
239.214	78.51
239.431	37.55
239.648	27.31
239.865	60.07
240.083	25.26
240.3	27.31
240.517	-9.56
240.735	10.92
240.952	66.22
241.169	2.73
241.386	23.21
241.603	160.42
241.821	-36.18
242.038	4.78
242.255	6.83
242.472	35.5
242.689	51.88
242.907	58.03
243.124	-1.37
243.341	53.93
243.558	-21.84
243.775	55.98
243.992	49.83
244.209	29.35
244.426	45.74
244.643	107.18
244.86	-15.7
245.078	82.6
245.295	-32.08
245.512	21.16
245.729	-21.84
245.946	4.78
246.163	68.27
246.38	17.07
246.597	55.98
246.814	2.73
247.031	15.02
247.248	41.64
247.464	-1.37
247.681	68.27
247.898	45.74
248.115	51.88
248.332	6.83
248.549	-1.37
248.766	27.31
248.983	37.55
249.2	90.79
249.417	60.07
249.633	0.68
249.85	53.93
250.067	17.07
250.284	-56.66
250.501	31.4
250.717	29.35
250.934	129.7
251.151	-21.84
251.368	-36.18
251.585	55.98
251.801	-81.24
252.018	53.93
252.235	27.31
252.451	66.22
252.668	27.31
252.885	35.5
253.102	66.22
253.318	6.83
253.535	8.87
253.752	29.35
253.968	58.03
254.185	39.59
254.401	25.26
254.618	-9.56
254.835	31.4
255.051	49.83
255.268	8.87
255.484	19.11
255.701	88.75
255.917	27.31
256.134	27.31
256.351	111.27
256.567	64.17
256.784	115.37
257	2.73
257.217	-13.65
257.433	-3.41
257.65	55.98
257.866	10.92
258.082	-9.56
258.299	35.5
258.515	21.16
258.732	29.35
258.948	-13.65
259.165	58.03
259.381	62.12
259.597	15.02
259.814	19.11
260.03	15.02
260.246	82.6
260.463	41.64
260.679	-1.37
260.895	-15.7
261.112	-27.99
261.328	-15.7
261.544	80.55
261.761	49.83
261.977	68.27
262.193	43.69
262.409	23.21
262.626	2.73
262.842	4.78
263.058	49.83
263.274	53.93
263.49	25.26
263.707	-46.42
263.923	107.18
264.139	25.26
264.355	-21.84
264.571	55.98
264.787	23.21
265.004	10.92
265.22	2.73
265.436	58.03
265.652	-25.94
265.868	47.79
266.084	72.36
266.3	35.5
266.516	-23.89
266.732	39.59
266.948	35.5
267.164	119.46
267.38	33.45
267.596	25.26
267.812	-23.89
268.028	70.31
268.244	17.07
268.46	10.92
268.676	6.83
268.892	12.97
269.108	45.74
269.324	117.42
269.54	53.93
269.756	94.89
269.972	8.87
270.188	62.12
270.403	4.78
270.619	88.75
270.835	27.31
271.051	37.55
271.267	39.59
271.483	4.78
271.698	70.31
271.914	12.97
272.13	103.08
272.346	-5.46
272.562	41.64
272.777	-27.99
272.993	-11.61
273.209	76.46
273.425	31.4
273.64	86.7
273.856	27.31
274.072	19.11
274.287	84.65
274.503	12.97
274.719	10.92
274.934	19.11
275.15	19.11
275.366	27.31
275.581	-19.8
275.797	-3.41
276.012	78.51
276.228	49.83
276.444	15.02
276.659	72.36
276.875	-13.65
277.09	51.88
277.306	19.11
277.521	51.88
277.737	2.73
277.952	60.07
278.168	66.22
278.383	62.12
278.599	43.69
278.814	58.03
279.03	21.16
279.245	15.02
279.461	25.26
279.676	45.74
279.892	12.97
280.107	37.55
280.322	-13.65
280.538	29.35
280.753	47.79
280.969	15.02
281.184	60.07
281.399	-27.99
281.615	92.84
281.83	23.21
282.045	19.11
282.26	27.31
282.476	29.35
282.691	88.75
282.906	10.92
283.122	25.26
283.337	-23.89
283.552	6.83
283.767	27.31
283.983	60.07
284.198	55.98
284.413	125.61
284.628	-5.46
284.843	29.35
285.058	-52.56
285.274	31.4
285.489	-5.46
285.704	47.79
285.919	-21.84
286.134	101.03
286.349	144.04
286.564	55.98
286.779	0.68
286.995	27.31
287.21	-23.89
287.425	78.51
287.64	27.31
287.855	78.51
288.07	90.79
288.285	33.45
288.5	64.17
288.715	-9.56
288.93	4.78
289.145	58.03
289.36	-7.51
289.575	88.75
289.79	41.64
290.004	64.17
290.219	68.27
290.434	96.94
290.649	39.59
290.864	78.51
291.079	72.36
291.294	-34.13
291.509	92.84
291.724	66.22
291.938	41.64
292.153	21.16
292.368	4.78
292.583	45.74
292.798	51.88
293.012	70.31
293.227	29.35
293.442	72.36
293.657	-5.46
293.871	47.79
294.086	92.84
294.301	66.22
294.516	41.64
294.73	-30.04
294.945	10.92
295.16	12.97
295.374	51.88
295.589	2.73
295.804	17.07
296.018	-3.41
296.233	80.55
296.447	80.55
296.662	45.74
296.877	-9.56
297.091	17.07
297.306	6.83
297.52	-3.41
297.735	15.02
297.949	29.35
298.164	35.5
298.378	39.59
298.593	43.69
298.807	33.45
299.022	62.12
299.236	19.11
299.451	-34.13
299.665	-3.41
299.88	43.69
300.094	12.97
300.309	-7.51
300.523	4.78
300.737	53.93
300.952	-3.41
301.166	82.6
301.381	-5.46
301.595	4.78
301.809	17.07
302.024	43.69
302.238	2.73
302.452	12.97
302.667	64.17
302.881	25.26
303.095	27.31
303.309	60.07
303.524	58.03
303.738	51.88
303.952	51.88
304.166	43.69
304.381	8.87
304.595	10.92
304.809	-15.7
305.023	76.46
305.237	12.97
305.452	27.31
305.666	35.5
305.88	-21.84
306.094	25.26
306.308	-1.37
306.522	68.27
306.736	-7.51
306.95	-36.18
307.164	45.74
307.379	70.31
307.593	70.31
307.807	96.94
308.021	-9.56
308.235	-23.89
308.449	-19.8
308.663	-21.84
308.877	72.36
309.091	-77.14
309.305	-7.51
309.519	-27.99
309.733	111.27
309.947	51.88
310.161	45.74
310.374	-17.75
310.588	62.12
310.802	-25.94
311.016	49.83
311.23	-21.84
311.444	109.23
311.658	15.02
311.872	15.02
312.085	49.83
312.299	86.7
312.513	21.16
312.727	37.55
312.941	31.4
313.154	29.35
313.368	4.78
313.582	109.23
313.796	64.17
314.009	58.03
314.223	84.65
314.437	23.21
314.651	68.27
314.864	19.11
315.078	-42.32
315.292	105.13
315.505	-23.89
315.719	6.83
315.933	74.41
316.146	62.12
316.36	-7.51
316.573	55.98
316.787	23.21
317.001	51.88
317.214	6.83
317.428	41.64
317.641	4.78
317.855	53.93
318.068	-32.08
318.282	-19.8
318.495	19.11
318.709	45.74
318.922	135.85
319.136	6.83
319.349	-91.48
319.563	43.69
319.776	27.31
319.99	37.55
320.203	111.27
320.417	17.07
320.63	41.64
320.843	51.88
321.057	31.4
321.27	90.79
321.483	29.35
321.697	19.11
321.91	0.68
322.124	62.12
322.337	12.97
322.55	35.5
322.763	25.26
322.977	25.26
323.19	8.87
323.403	101.03
323.617	60.07
323.83	-44.37
324.043	27.31
324.256	27.31
324.469	58.03
324.683	45.74
324.896	82.6
325.109	41.64
325.322	45.74
325.535	19.11
325.748	12.97
325.962	33.45
326.175	76.46
326.388	43.69
326.601	53.93
326.814	27.31
327.027	68.27
327.24	92.84
327.453	78.51
327.666	86.7
327.879	27.31
328.092	25.26
328.305	12.97
328.518	10.92
328.731	2.73
328.944	47.79
329.157	72.36
329.37	92.84
329.583	23.21
329.796	51.88
330.009	23.21
330.222	96.94
330.435	43.69
330.648	43.69
330.861	-36.18
331.073	53.93
331.286	43.69
331.499	98.99
331.712	58.03
331.925	72.36
332.138	62.12
332.35	31.4
332.563	43.69
332.776	90.79
332.989	49.83
333.202	27.31
333.414	15.02
333.627	35.5
333.84	115.37
334.053	23.21
334.265	-23.89
334.478	51.88
334.691	76.46
334.903	84.65
335.116	8.87
335.329	-38.23
335.541	121.51
335.754	60.07
335.966	33.45
336.179	70.31
336.392	49.83
336.604	29.35
336.817	23.21
337.029	27.31
337.242	12.97
337.454	17.07
337.667	72.36
337.88	53.93
338.092	64.17
338.305	-9.56
338.517	62.12
338.729	2.73
338.942	78.51
339.154	-34.13
339.367	4.78
339.579	121.51
339.792	-11.61
340.004	17.07
340.217	-27.99
340.429	60.07
340.641	55.98
340.854	53.93
341.066	98.99
341.278	53.93
341.491	19.11
341.703	98.99
341.915	-21.84
342.128	27.31
342.34	60.07
342.552	64.17
342.764	144.04
342.977	68.27
343.189	45.74
343.401	-36.18
343.613	-19.8
343.826	111.27
344.038	70.31
344.25	12.97
344.462	47.79
344.674	-1.37
344.886	-44.37
345.099	29.35
345.311	43.69
345.523	19.11
345.735	25.26
345.947	33.45
346.159	98.99
346.371	58.03
346.583	8.87
346.795	119.46
347.007	80.55
347.219	27.31
347.431	6.83
347.643	72.36
347.855	6.83
348.067	125.61
348.279	15.02
348.491	80.55
348.703	131.75
348.915	45.74
349.127	10.92
349.339	6.83
349.551	-1.37
349.763	4.78
349.975	-9.56
350.187	96.94
350.399	8.87
350.61	94.89
350.822	33.45
351.034	37.55
351.246	45.74
351.458	55.98
351.669	78.51
351.881	35.5
352.093	72.36
352.305	17.07
352.517	8.87
352.728	31.4
352.94	60.07
353.152	39.59
353.363	-21.84
353.575	92.84
353.787	41.64
353.999	15.02
354.21	66.22
354.422	6.83
354.633	35.5
354.845	62.12
355.057	74.41
355.268	70.31
355.48	37.55
355.692	55.98
355.903	60.07
356.115	90.79
356.326	64.17
356.538	117.42
356.749	27.31
356.961	113.32
357.172	10.92
357.384	92.84
357.595	115.37
357.807	-30.04
358.018	41.64
358.23	78.51
358.441	70.31
358.653	39.59
358.864	-3.41
359.075	21.16
359.287	58.03
359.498	127.66
359.709	41.64
359.921	125.61
360.132	-15.7
360.344	4.78
360.555	45.74
360.766	29.35
360.977	66.22
361.189	49.83
361.4	68.27
361.611	55.98
361.823	51.88
362.034	37.55
362.245	25.26
362.456	45.74
362.667	82.6
362.879	6.83
363.09	84.65
363.301	27.31
363.512	-15.7
363.723	51.88
363.935	49.83
364.146	39.59
364.357	51.88
364.568	74.41
364.779	86.7
364.99	55.98
365.201	31.4
365.412	21.16
365.623	12.97
365.834	31.4
366.045	101.03
366.256	109.23
366.467	107.18
366.678	21.16
366.889	74.41
367.1	58.03
367.311	-9.56
367.522	12.97
367.733	101.03
367.944	55.98
368.155	41.64
368.366	27.31
368.577	31.4
368.788	109.23
368.999	-11.61
369.209	53.93
369.42	127.66
369.631	76.46
369.842	96.94
370.053	29.35
370.264	47.79
370.474	21.16
370.685	98.99
370.896	53.93
371.107	35.5
371.317	70.31
371.528	45.74
371.739	39.59
371.95	23.21
372.16	70.31
372.371	12.97
372.582	47.79
372.792	29.35
373.003	68.27
373.214	55.98
373.424	86.7
373.635	60.07
373.846	68.27
374.056	76.46
374.267	17.07
374.477	121.51
374.688	49.83
374.898	66.22
375.109	86.7
375.319	33.45
375.53	43.69
375.74	35.5
375.951	129.7
376.161	-3.41
376.372	4.78
376.582	41.64
376.793	49.83
377.003	-38.23
377.214	55.98
377.424	133.8
377.635	68.27
377.845	92.84
378.055	92.84
378.266	35.5
378.476	2.73
378.686	127.66
378.897	76.46
379.107	35.5
379.317	121.51
379.528	33.45
379.738	8.87
379.948	-21.84
380.158	-3.41
380.369	27.31
380.579	51.88
380.789	33.45
380.999	58.03
381.21	78.51
381.42	64.17
381.63	29.35
381.84	82.6
382.05	8.87
382.261	115.37
382.471	37.55
382.681	119.46
382.891	68.27
383.101	29.35
383.311	23.21
383.521	70.31
383.731	78.51
383.941	92.84
384.151	2.73
384.361	23.21
384.571	154.28
384.781	17.07
384.991	8.87
385.201	43.69
385.411	51.88
385.621	25.26
385.831	19.11
386.041	49.83
386.251	21.16
386.461	90.79
386.671	58.03
386.881	-23.89
387.091	47.79
387.301	144.04
387.511	62.12
387.72	49.83
387.93	82.6
388.14	66.22
388.35	47.79
388.56	92.84
388.769	12.97
388.979	76.46
389.189	43.69
389.399	4.78
389.609	80.55
389.818	115.37
390.028	10.92
390.238	10.92
390.447	68.27
390.657	25.26
390.867	84.65
391.076	17.07
391.286	53.93
391.496	96.94
391.705	117.42
391.915	-21.84
392.125	55.98
392.334	131.75
392.544	82.6
392.753	60.07
392.963	39.59
393.172	82.6
393.382	15.02
393.591	125.61
393.801	58.03
394.01	68.27
394.22	123.56
394.429	29.35
394.639	51.88
394.848	21.16
395.058	60.07
395.267	41.64
395.477	94.89
395.686	76.46
395.895	64.17
396.105	133.8
396.314	113.32
396.524	47.79
396.733	78.51
396.942	148.14
397.152	45.74
397.361	123.56
397.57	66.22
397.78	55.98
397.989	90.79
398.198	62.12
398.407	62.12
398.617	62.12
398.826	70.31
399.035	113.32
399.244	137.9
399.453	68.27
399.663	76.46
399.872	74.41
400.081	141.99
400.29	115.37
400.499	47.79
400.708	96.94
400.917	72.36
401.127	123.56
401.336	19.11
401.545	117.42
401.754	33.45
401.963	55.98
402.172	92.84
402.381	76.46
402.59	117.42
402.799	88.75
403.008	72.36
403.217	166.57
403.426	58.03
403.635	109.23
403.844	111.27
404.053	137.9
404.262	154.28
404.471	96.94
404.68	127.66
404.888	121.51
405.097	119.46
405.306	150.18
405.515	146.09
405.724	164.52
405.933	92.84
406.142	121.51
406.35	19.11
406.559	141.99
406.768	119.46
406.977	158.38
407.185	123.56
407.394	162.47
407.603	107.18
407.812	199.34
408.02	174.76
408.229	158.38
408.438	201.38
408.646	150.18
408.855	230.06
409.064	191.14
409.272	203.43
409.481	187.05
409.69	160.42
409.898	291.49
410.107	187.05
410.315	326.31
410.524	283.3
410.733	275.11
410.941	230.06
411.15	232.1
411.358	236.2
411.567	250.53
411.775	225.96
411.984	307.88
412.192	412.32
412.401	307.88
412.609	363.17
412.818	371.37
413.026	416.42
413.234	342.69
413.443	322.21
413.651	395.94
413.86	400.04
414.068	420.52
414.276	426.66
414.485	463.52
414.693	426.66
414.901	518.82
415.11	494.24
415.318	533.15
415.526	533.15
415.734	463.52
415.943	527.01
416.151	594.59
416.359	647.84
416.567	629.41
416.776	668.32
416.984	625.31
417.192	688.8
417.4	570.02
417.608	682.66
417.817	783.01
418.025	696.99
418.233	891.55
418.441	823.97
418.649	862.88
418.857	826.01
419.065	920.22
419.273	946.84
419.481	952.99
419.689	977.56
419.897	1100.44
420.105	1032.86
420.313	1086.11
420.521	1061.53
420.729	1161.88
420.937	1274.52
421.145	1260.18
421.353	1223.32
421.561	1327.77
421.769	1381.01
421.977	1522.32
422.185	1395.35
422.393	1612.43
422.601	1510.04
422.809	1624.72
423.017	1591.95
423.224	1657.49
423.432	1684.11
423.64	1890.96
423.848	1929.87
424.056	1870.48
424.263	2024.08
424.471	2042.51
424.679	2077.32
424.887	2153.1
425.094	2171.53
425.302	2181.77
425.51	2417.29
425.718	2423.43
425.925	2312.84
426.133	2519.68
426.341	2552.45
426.548	2794.11
426.756	2736.77
426.964	2796.16
427.171	2960
427.379	3003
427.586	3097.21
427.794	3230.33
428.001	3218.04
428.209	3478.13
428.417	3480.18
428.624	3740.27
428.832	3635.83
429.039	3676.79
429.247	3572.34
429.454	3926.64
429.662	4180.59
429.869	3975.79
430.076	4244.07
430.284	4199.02
430.491	4373.1
430.699	4545.13
430.906	4508.26
431.114	4538.98
431.321	4776.55
431.528	4840.03
431.736	5173.85
431.943	5313.11
432.15	5198.43
432.358	5237.34
432.565	5560.92
432.772	5685.84
432.979	6015.57
433.187	6091.34
433.394	6167.12
433.601	6412.87
433.808	6552.13
434.016	6386.25
434.223	6750.79
434.43	7268.92
434.637	6955.58
434.844	7385.66
435.052	7471.67
435.259	7567.93
435.466	7617.08
435.673	7666.23
435.88	8106.54
436.087	8571.43
436.294	8403.5
436.501	8387.11
436.708	8495.66
436.915	8890.91
437.122	9312.8
437.329	9128.48
437.537	9482.78
437.743	9540.12
437.95	9560.6
438.157	10119.7
438.364	10338.83
438.571	10269.2
438.778	10543.63
438.985	11170.3
439.192	10820.1
439.399	11205.12
439.606	11004.42
439.813	11805.17
440.02	12448.24
440.227	12093.94
440.433	11995.64
440.64	12390.89
440.847	12290.54
441.054	12589.55
441.261	13447.65
441.467	13248.99
441.674	13437.41
441.881	14139.86
442.088	14307.79
442.294	14068.18
442.501	14330.32
442.708	14496.21
442.914	15053.25
443.121	15948.22
443.328	15419.84
443.534	16589.23
443.741	16079.29
443.948	15901.11
444.154	17283.49
444.361	16816.55
444.568	16976.3
444.774	17070.5
444.981	17265.06
445.187	17645.98
445.394	18274.71
445.6	18233.75
445.807	19941.75
446.013	19483.01
446.22	19509.63
446.426	20146.55
446.633	20654.45
446.839	21129.58
447.046	20195.7
447.252	21428.58
447.459	21660
447.665	21371.24
447.871	22573.39
448.078	23392.58
448.284	22186.33
448.491	23112.01
448.697	23570.75
448.903	24117.56
449.11	24453.43
449.316	24121.66
449.522	24475.96
449.728	24828.21
449.935	25020.72
450.141	25016.62
450.347	25477.41
450.553	25186.6
450.76	25137.45
450.966	25909.54
451.172	26122.52
451.378	26458.39
451.584	26200.35
451.791	26822.93
451.997	26579.22
452.203	27064.59
452.409	26939.66
452.615	26843.41
452.821	25874.72
453.027	25745.7
453.233	27146.51
453.44	26190.11
453.646	26179.87
453.852	26437.91
454.058	27076.88
454.264	26118.43
454.47	26771.73
454.676	26024.22
454.882	26923.28
455.088	24316.22
455.294	24779.06
455.5	25471.27
455.705	25489.7
455.911	24750.38
456.117	24215.87
456.323	23613.76
456.529	22382.93
456.735	23574.85
456.941	23017.8
457.147	22403.41
457.352	21537.12
457.558	21487.97
457.764	21887.32
457.97	21139.82
458.176	20736.37
458.381	20857.2
458.587	19786.11
458.793	19870.08
458.999	18852.24
459.204	20173.17
459.41	19724.67
459.616	18350.48
459.821	18231.7
460.027	18299.28
460.233	18028.95
460.438	17007.02
460.644	17183.14
460.85	16241.07
461.055	16245.17
461.261	16187.83
461.466	15012.29
461.672	14481.87
461.878	15927.74
462.083	14764.49
462.289	14365.14
462.494	14408.14
462.7	13517.28
462.905	13113.83
463.111	13480.41
463.316	13550.04
463.522	13455.84
463.727	13457.89
463.932	13197.79
464.138	13402.59
464.343	13318.62
464.549	12855.78
464.754	13455.84
464.959	13414.88
465.165	13535.71
465.37	12493.29
465.575	12380.65
465.781	12788.2
465.986	12722.66
466.191	12403.18
466.397	12380.65
466.602	11588.09
466.807	12249.58
467.012	12380.65
467.218	12009.97
467.423	12012.02
467.628	11997.68
467.833	12495.34
468.038	12022.26
468.244	11737.59
468.449	12179.95
468.654	11899.38
468.859	11657.72
469.064	11397.63
469.269	11229.7
469.474	11190.78
469.679	11534.84
469.885	11160.06
470.09	11155.97
470.295	11284.99
470.5	10560.01
470.705	10979.84
470.91	10756.61
471.115	10760.71
471.32	10787.33
471.525	10705.42
471.73	10347.02
471.935	10385.93
472.139	10029.59
472.344	10207.76
472.549	10105.36
472.754	9937.43
472.959	9935.38
473.164	9576.98
473.369	9599.51
473.574	9867.8
473.778	9542.17
473.983	9691.67
474.188	9497.11
474.393	9071.14
474.598	9194.01
474.802	8981.03
475.007	8978.98
475.212	9034.27
475.417	8589.86
475.621	8663.59
475.826	8778.28
476.031	8526.38
476.235	8348.2
476.44	8471.08
476.645	8251.95
476.849	8411.69
477.054	8262.19
477.259	8249.9
477.463	8049.2
477.668	7907.89
477.872	7936.56
478.077	7893.55
478.282	7699
478.486	7543.35
478.691	7594.55
478.895	7549.5
479.1	7221.82
479.304	7475.77
479.509	7238.2
479.713	7578.17
479.918	7318.08
480.122	7211.58
480.326	7117.37
480.531	7180.86
480.735	7109.18
480.94	7074.37
481.144	7483.96
481.348	7137.85
481.553	7127.61
481.757	6812.23
481.961	7162.43
482.166	7107.13
482.37	7023.17
482.574	6904.39
482.778	6988.35
482.983	7160.38
483.187	6791.75
483.391	7096.89
483.595	7060.03
483.8	6898.24
484.004	7033.41
484.208	7205.44
484.412	6838.85
484.616	7082.56
484.821	7088.7
485.025	6941.25
485.229	7139.9
485.433	6904.39
485.637	7074.37
485.841	6828.61
486.045	6988.35
486.249	7180.86
486.453	6916.67
486.657	7027.26
486.861	7068.22
487.065	6763.08
487.269	7043.65
487.473	6951.49
487.677	7084.61
487.881	7119.42
488.085	7051.84
488.289	7084.61
488.493	7144
488.697	7174.72
488.901	7051.84
489.105	7070.27
489.309	7248.44
489.512	7268.92
489.716	7328.31
489.92	7285.31
490.124	7408.19
490.328	7422.52
490.531	7189.05
490.735	7533.11
490.939	7529.02
491.143	7453.24
491.346	7408.19
491.55	7555.64
491.754	7621.17
491.958	7658.04
492.161	7699
492.365	7707.19
492.569	7545.4
492.772	7672.37
492.976	7774.77
493.18	7805.49
493.383	8047.15
493.587	8061.49
493.79	8012.34
493.994	8061.49
494.197	7930.42
494.401	8127.02
494.605	8249.9
494.808	8352.3
495.012	8415.79
495.215	8354.35
495.419	8526.38
495.622	8423.98
495.825	8720.93
496.029	8751.65
496.232	8997.41
496.436	8712.74
496.639	9032.22
496.843	9136.67
497.046	9388.57
497.249	9550.36
497.453	9435.67
497.656	9583.13
497.859	9450.01
498.063	9681.43
498.266	10060.31
498.469	9794.07
498.673	10271.25
498.876	10109.46
499.079	10170.9
499.282	10394.12
499.485	10621.45
499.689	10508.81
499.892	10910.21
500.095	10783.24
500.298	11127.3
500.501	11061.76
500.705	11430.4
500.908	11450.88
501.111	11938.29
501.314	11723.26
501.517	11788.79
501.72	11899.38
501.923	11842.04
502.126	12356.08
502.329	12585.45
502.532	12700.14
502.735	12716.52
502.938	12855.78
503.141	13089.25
503.344	13427.17
503.547	13429.21
503.75	13781.46
503.953	14090.71
504.156	13738.46
504.359	13980.12
504.562	14152.15
504.765	14481.87
504.968	14674.38
505.17	14717.39
505.373	14975.43
505.576	15047.11
505.779	15428.03
505.982	15448.51
506.185	15772.09
506.387	16114.1
506.59	16021.94
506.793	16284.08
506.996	16425.39
507.198	16753.07
507.401	16812.46
507.604	16908.71
507.807	17344.93
508.009	17535.39
508.212	17424.8
508.415	18016.66
508.617	18076.05
508.82	18063.77
509.022	18241.94
509.225	18721.17
509.428	18702.73
509.63	18901.39
509.833	19308.93
510.035	19366.28
510.238	19607.94
510.44	19790.2
510.643	20181.37
510.845	20500.85
511.048	20328.82
511.25	20748.65
511.453	20920.68
511.655	21674.34
511.858	21279.08
512.06	21629.28
512.262	21821.79
512.465	22135.13
512.667	22194.52
512.87	22397.27
513.072	22702.42
513.274	23165.26
513.477	23361.86
513.679	23427.4
513.881	23939.39
514.084	24031.55
514.286	24346.94
514.488	24131.9
514.69	24844.59
514.893	24762.67
515.095	25153.83
515.297	25577.76
515.499	25436.45
515.701	26052.89
515.904	26151.2
516.106	26362.14
516.308	26466.58
516.51	27336.97
516.712	26990.86
516.914	27232.52
517.116	27836.67
517.318	28197.12
517.52	27873.54
517.722	28014.85
517.925	28678.39
518.127	28680.44
518.329	29397.23
518.531	28999.92
518.733	29669.61
518.935	29837.54
519.136	29763.81
519.338	30501.08
519.54	30447.83
519.742	30701.78
519.944	31254.73
520.146	31367.37
520.348	31549.64
520.55	31756.49
520.752	31533.26
520.954	32659.64
521.155	32637.11
521.357	32708.79
521.559	32684.22
521.761	33607.85
521.963	33130.67
522.164	33550.51
522.366	33665.19
522.568	34011.3
522.77	34056.35
522.971	34805.91
523.173	34916.5
523.375	34949.27
523.576	34953.37
523.778	35078.29
523.98	35668.11
524.181	35688.59
524.383	35549.32
524.584	36130.95
524.786	36114.56
524.988	36364.42
525.189	36407.42
525.391	36923.51
525.592	37032.05
525.794	37234.8
525.995	37124.21
526.197	37548.14
526.398	37453.94
526.6	37578.86
526.801	37759.08
527.003	38047.85
527.204	37976.17
527.406	38619.23
527.607	38197.35
527.808	38860.89
528.01	38279.27
528.211	38301.79
528.412	39057.49
528.614	39032.92
528.815	39172.18
529.016	39526.48
529.218	38838.36
529.419	39503.95
529.62	39358.55
529.822	39297.11
530.023	39753.8
530.224	39903.31
530.425	39639.12
530.626	39653.45
530.828	39614.54
531.029	40536.13
531.23	39731.28
531.431	39796.81
531.632	40388.67
531.833	40470.59
532.035	39989.32
532.236	40427.59
532.437	40771.64
532.638	40446.02
532.839	40892.47
533.04	40796.22
533.241	40300.61
533.442	41033.78
533.643	40998.97
533.844	40847.42
534.045	40814.65
534.246	40806.46
534.447	41101.37
534.648	40941.63
534.849	40966.2
535.05	40976.44
535.251	40876.09
535.451	40695.87
535.652	41410.61
535.853	41304.12
536.054	41185.33
536.255	40892.47
536.456	41375.8
536.657	41865.26
536.857	41482.29
537.058	40919.1
537.259	41420.85
537.46	41580.59
537.66	41486.39
537.861	41730.09
538.062	41066.55
538.263	41424.95
538.463	41613.36
538.664	40951.87
538.865	41895.98
539.065	41717.81
539.266	41467.95
539.466	41883.69
539.667	41306.16
539.868	42061.86
540.068	41852.97
540.269	41543.73
540.469	42358.82
540.67	41582.64
540.87	41623.6
541.071	41740.33
541.271	42029.1
541.472	41279.54
541.672	41941.03
541.873	41771.05
542.073	41232.44
542.274	42258.47
542.474	41900.08
542.675	41996.33
542.875	42276.9
543.075	41981.99
543.276	41228.34
543.476	41920.55
543.676	41744.43
543.877	42111.02
544.077	41676.85
544.277	42051.62
544.478	42166.31
544.678	41791.53
544.878	42102.82
545.078	41838.64
545.279	41502.77
545.479	41572.4
545.679	41541.68
545.879	41922.6
546.079	42119.21
546.28	41818.16
546.48	41662.51
546.68	42002.47
546.88	41887.79
547.08	41842.73
547.28	41844.78
547.48	41433.14
547.68	42016.81
547.88	41990.19
548.081	42371.11
548.281	41756.72
548.481	41547.82
548.681	42426.4
548.881	42248.23
549.081	41943.08
549.28	41648.18
549.48	42053.67
549.68	41947.18
549.88	42371.11
550.08	41764.91
550.28	41895.98
550.48	41674.8
550.68	42145.83
550.88	41625.65
551.08	41592.88
551.279	41721.9
551.479	41564.21
551.679	41975.85
551.879	41615.41
552.079	41914.41
552.278	41877.55
552.478	41607.22
552.678	41748.53
552.878	41910.32
553.077	41476.15
553.277	41422.9
553.477	42260.52
553.676	41705.52
553.876	41863.21
554.076	41658.41
554.275	41697.33
554.475	40996.92
554.674	41324.6
554.874	41697.33
555.074	41523.25
555.273	41496.63
555.473	41852.97
555.672	41449.52
555.872	41637.94
556.071	41453.62
556.271	41443.38
556.47	41197.62
556.67	41457.71
556.869	41470
557.068	41664.56
557.268	41248.82
557.467	41334.84
557.667	41162.81
557.866	41435.19
558.065	41496.63
558.265	41115.7
558.464	41158.71
558.663	41365.56
558.863	40861.76
559.062	41705.52
559.261	40675.39
559.461	41779.25
559.66	40552.51
559.859	41052.22
560.058	40761.4
560.258	41314.36
560.457	40753.21
560.656	41289.78
560.855	40939.58
561.054	41089.08
561.253	40951.87
561.453	40736.83
561.652	41222.2
561.851	41177.14
562.05	40699.97
562.249	40577.09
562.448	40796.22
562.647	41166.9
562.846	40417.35
563.045	40896.57
563.244	40611.9
563.443	40951.87
563.642	40054.86
563.841	40808.51
564.04	40472.64
564.239	41107.51
564.438	40458.31
564.637	40597.57
564.836	40550.46
565.035	40536.13
565.234	40683.58
565.432	40544.32
565.631	40175.69
565.83	40595.52
566.029	40130.63
566.228	40362.05
566.427	40452.16
566.625	39641.17
566.824	40108.1
567.023	40368.19
567.222	39921.74
567.42	40120.39
567.619	40024.14
567.818	39962.7
568.016	39985.22
568.215	40366.15
568.414	39759.95
568.612	40288.32
568.811	39784.52
569.01	39796.81
569.208	39512.14
569.407	39995.46
569.605	39362.64
569.804	39782.48
570.002	39569.49
570.201	39422.03
570.4	39649.36
570.598	39008.34
570.797	39170.13
570.995	39458.9
571.193	39094.36
571.392	39536.72
571.59	39069.78
571.789	39041.11
571.987	39041.11
572.186	39295.06
572.384	39094.36
572.582	39086.17
572.781	39104.6
572.979	38547.55
573.177	38715.48
573.376	38832.22
573.574	38453.34
573.772	38809.69
573.971	38492.26
574.169	38541.41
574.367	37996.65
574.565	38529.12
574.763	38377.57
574.962	37718.12
575.16	37875.82
575.358	38135.91
575.556	37562.48
575.754	38010.98
575.952	37490.8
576.151	38234.21
576.349	37417.07
576.547	37546.09
576.745	37759.08
576.943	37834.86
577.141	37521.52
577.339	37566.57
577.537	37255.28
577.735	37314.67
577.933	37228.66
578.131	37226.61
578.329	37013.62
578.527	36530.3
578.725	36819.06
578.923	37353.58
579.121	36323.46
579.319	36659.32
579.516	36964.47
579.714	36530.3
579.912	36317.31
580.11	35958.92
580.308	36327.55
580.506	36339.84
580.704	36008.07
580.901	36124.8
581.099	36333.7
581.297	36092.04
581.495	35776.65
581.692	35997.83
581.89	35723.4
582.088	35715.21
582.285	35543.18
582.483	36069.51
582.681	35422.35
582.878	35225.75
583.076	35315.86
583.274	35627.15
583.471	34963.61
583.669	35199.12
583.866	34773.14
584.064	34992.28
584.262	34265.25
584.459	35342.48
584.657	34742.42
584.854	34318.49
585.052	33941.67
585.249	34691.23
585.447	34572.44
585.644	34384.03
585.841	33994.92
586.039	34162.85
586.236	33845.41
586.434	33622.19
586.631	33982.63
586.828	34238.62
587.026	34023.59
587.223	33296.56
587.42	33781.93
587.618	33757.35
587.815	33151.15
588.012	33450.16
588.21	33243.31
588.407	33376.43
588.604	33005.75
588.801	32841.91
588.999	32942.26
589.196	32850.1
589.393	32874.68
589.59	32737.46
589.787	32649.4
589.984	32590.01
590.182	32090.3
590.379	32551.1
590.576	32336.06
590.773	32317.63
590.97	31822.02
591.167	32463.04
591.364	31594.7
591.561	32121.02
591.758	31584.46
591.955	31713.48
592.152	31844.55
592.349	31299.79
592.546	31355.08
592.743	31340.75
592.94	30894.29
593.137	31154.38
593.334	31561.93
593.531	30879.96
593.727	30855.38
593.924	31238.35
594.121	30699.73
594.318	31006.93
594.515	30392.54
594.712	30775.51
594.908	30245.09
595.105	30646.49
595.302	30316.76
595.499	30261.47
595.696	29984.99
595.892	29960.42
596.089	30251.23
596.286	29905.12
596.482	29675.75
596.679	29980.9
596.876	29874.4
597.072	29622.5
597.269	29571.3
597.466	29257.96
597.662	29614.31
597.859	29389.03
598.055	29305.07
598.252	28979.44
598.448	29055.22
598.645	28969.2
598.841	28655.86
599.038	29081.84
599.234	28907.76
599.431	28606.71
599.627	28553.46
599.824	28627.19
600.02	28477.69
600.217	28391.67
600.413	28307.71
600.609	28152.06
600.806	28055.81
601.002	27867.39
601.198	27719.94
601.395	27740.42
601.591	27760.9
601.787	27771.14
601.984	27525.38
602.18	27646.21
602.376	27674.88
602.572	27238.67
602.769	27306.25
602.965	27187.47
603.161	27171.08
603.357	26988.81
603.553	26900.75
603.75	26910.99
603.946	26734.87
604.142	26968.34
604.338	26597.65
604.534	26863.89
604.73	26446.1
604.926	26485.01
605.122	26454.29
605.318	26239.26
605.514	25968.93
605.71	26358.04
605.906	25968.93
606.102	26007.84
606.298	25854.24
606.494	25889.06
606.69	25749.79
606.886	25819.42
607.082	25655.59
607.278	25547.04
607.474	25196.84
607.67	25536.81
607.866	25114.92
608.062	25241.9
608.257	25180.46
608.453	25413.93
608.649	25434.41
608.845	25063.72
609.041	24674.61
609.236	25565.48
609.432	24918.32
609.628	25143.59
609.824	24908.08
610.019	24828.21
610.215	24777.01
610.411	24791.34
610.606	24533.3
610.802	24826.16
610.998	24310.07
611.193	24533.3
611.389	24258.87
611.584	24140.09
611.78	24215.87
611.976	24396.09
612.171	24437.05
612.367	24312.12
612.562	24170.81
612.758	23441.73
612.953	24004.92
613.149	24029.5
613.344	23726.4
613.539	24133.95
613.735	23986.49
613.93	23701.83
614.126	23767.36
614.321	24019.26
614.517	23742.78
614.712	23400.77
614.907	23529.8
615.103	23888.19
615.298	23396.68
615.493	23540.04
615.688	23062.86
615.884	23769.41
616.079	23273.8
616.274	23171.4
616.47	23284.04
616.665	23048.52
616.86	22921.55
617.055	23382.34
617.25	22829.39
617.445	23109.96
617.641	22620.5
617.836	22751.57
618.031	22753.62
618.226	22899.02
618.421	22608.21
618.616	22970.7
618.811	22145.37
619.006	22726.99
619.201	22018.39
619.396	22311.25
619.591	22073.69
619.786	22067.55
619.981	21932.38
620.176	22176.09
620.371	21813.6
620.566	21893.47
620.761	21778.78
620.956	21563.75
621.151	21170.54
621.346	21500.26
621.541	21064.04
621.735	20935.02
621.93	20732.27
622.125	21115.24
622.32	20652.4
622.515	20603.25
622.709	20529.52
622.904	20554.1
623.099	20451.7
623.294	20494.71
623.488	19933.56
623.683	20029.82
623.878	19923.32
624.072	20050.3
624.267	19900.79
624.462	19591.55
624.656	19630.46
624.851	19560.83
625.046	19460.48
625.24	19274.12
625.435	18837.9
625.629	18829.71
625.824	19147.14
626.018	18846.09
626.213	18483.6
626.407	18780.56
626.602	18608.53
626.796	18479.5
626.991	18413.97
627.185	18012.57
627.38	18076.05
627.574	18157.97
627.768	17906.07
627.963	17861.02
628.157	17865.11
628.352	17697.18
628.546	17494.43
628.74	17662.37
628.935	17461.66
629.129	17596.83
629.323	17316.26
629.517	17166.76
629.712	16861.61
629.906	17222.05
630.1	16857.51
630.294	16990.63
630.489	16583.09
630.683	16791.98
630.877	16523.69
631.071	16372.14
631.265	16429.49
631.459	16363.95
631.653	16189.88
631.848	16222.64
632.042	15919.54
632.236	16095.67
632.43	15681.98
632.624	15786.43
632.818	15608.25
633.012	15450.56
633.206	15616.44
633.4	15542.72
633.594	15129.03
633.788	15319.49
633.982	15434.18
634.176	15319.49
634.369	15411.65
634.563	15202.75
634.757	14799.3
634.951	14942.66
635.145	14690.76
635.339	14797.26
635.533	14858.7
635.726	14717.39
635.92	14660.04
636.114	14391.76
636.308	14485.97
636.501	14402
636.695	14402
636.889	14367.18
637.083	14238.16
637.276	14076.37
637.47	14070.23
637.664	13894.1
637.857	13842.9
638.051	13679.07
638.244	13486.56
638.438	13634.01
638.632	13674.97
638.825	13449.69
639.019	13429.21
639.212	13414.88
639.406	13167.07
639.599	13386.21
639.793	13257.18
639.986	13054.44
640.18	12896.74
640.373	13232.61
640.567	12952.04
640.76	12888.55
640.954	12558.83
641.147	12589.55
641.34	12536.3
641.534	12560.88
641.727	12302.83
641.92	12368.37
642.114	12247.54
642.307	12214.77
642.5	12153.33
642.694	11932.15
642.887	11893.24
643.08	11979.25
643.273	11921.91
643.467	11809.27
643.66	11762.17
643.853	11614.71
644.046	11436.54
644.239	11663.86
644.432	11536.89
644.626	11225.6
644.819	11137.54
645.012	11426.3
645.205	11205.12
645.398	11049.47
645.591	11115.01
645.784	11186.69
645.977	11028.99
646.17	10932.74
646.363	10686.98
646.556	10805.77
646.749	10791.43
646.942	10676.74
647.135	10463.75
647.328	10560.01
647.521	10523.15
647.714	10426.89
647.907	10170.9
648.099	10154.51
648.292	10070.55
648.485	10168.85
648.678	9931.28
648.871	9822.74
649.064	10015.25
649.256	9994.77
649.449	9955.86
649.642	9875.99
649.835	9974.29
650.027	9501.21
650.22	9456.15
650.413	9497.11
650.605	9533.98
650.798	9507.35
650.991	9353.76
651.183	9359.9
651.376	9187.87
651.568	9343.52
651.761	9419.29
651.954	9212.45
652.146	9239.07
652.339	9050.66
652.531	8976.93
652.724	9224.73
652.916	8776.23
653.109	8837.67
653.301	8837.67
653.494	8847.91
653.686	8659.49
653.879	8804.9
654.071	8512.04
654.263	8505.9
654.456	8589.86
654.648	8569.38
654.84	8368.68
655.033	8479.27
655.225	8383.02
655.417	8397.35
655.61	8118.83
655.802	8141.36
655.994	8043.06
656.186	8067.63
656.379	7940.66
656.571	8073.78
656.763	7729.72
656.955	7770.68
657.148	7920.18
657.34	7815.73
657.532	7651.89
657.724	7670.33
657.916	7670.33
658.108	7627.32
658.3	7516.73
658.492	7379.51
658.684	7412.28
658.876	7404.09
659.068	7207.48
659.26	7170.62
659.452	7246.4
659.644	7180.86
659.836	7045.7
660.028	6994.5
660.22	7078.46
660.412	6797.89
660.604	6836.8
660.796	6838.85
660.988	6963.78
661.18	6683.2
661.372	6775.36
661.563	6648.39
661.755	6541.89
661.947	6675.01
662.139	6552.13
662.331	6570.57
662.522	6304.33
662.714	6484.55
662.906	6347.34
663.097	6267.47
663.289	6265.42
663.481	6263.37
663.673	6259.28
663.864	6212.17
664.056	6042.19
664.247	6029.9
664.439	6054.48
664.631	5968.46
664.822	5884.5
665.014	5923.41
665.205	5927.5
665.397	5753.43
665.588	5851.73
665.78	5640.79
665.971	5595.73
666.163	5720.66
666.354	5612.12
666.546	5632.6
666.737	5495.38
666.929	5429.85
667.12	5519.96
667.311	5476.95
667.503	5425.75
667.694	5319.26
667.885	5354.07
668.077	5364.31
668.268	5288.54
668.459	5120.6
668.651	5163.61
668.842	5143.13
669.033	5173.85
669.224	5065.31
669.416	5169.76
669.607	5136.99
669.798	4952.67
669.989	4864.61
670.18	4854.37
670.371	4844.13
670.563	4969.05
670.754	4960.86
670.945	4749.92
671.136	4711.01
671.327	4682.34
671.518	4809.31
671.709	4684.39
671.9	4799.07
672.091	4676.2
672.282	4491.88
672.473	4596.32
672.664	4579.94
672.855	4461.16
673.046	4422.25
673.237	4457.06
673.428	4358.76
673.619	4381.29
673.809	4465.25
674	4403.82
674.191	4323.94
674.382	4287.08
674.573	4295.27
674.764	4313.7
674.954	4295.27
675.145	4348.52
675.336	4264.55
675.527	4196.97
675.717	4133.48
675.908	4072.04
676.099	4108.91
676.289	3975.79
676.48	4180.59
676.671	4106.86
676.861	4024.94
677.052	4026.99
677.243	4106.86
677.433	3949.17
677.624	3906.16
677.814	3844.72
678.005	4008.56
678.195	3889.78
678.386	3826.29
678.576	3805.81
678.767	3875.44
678.957	3852.91
679.148	3869.3
679.338	3777.14
679.529	3961.45
679.719	3850.86
679.909	3797.62
680.1	3693.17
680.29	3678.83
680.481	3738.23
680.671	3707.51
680.861	3566.2
681.052	3719.79
681.242	3609.2
681.432	3611.25
681.622	3697.27
681.813	3697.27
682.003	3670.64
682.193	3551.86
682.383	3695.22
682.573	3637.88
682.764	3564.15
682.954	3476.09
683.144	3549.81
683.334	3568.24
683.524	3660.4
683.714	3459.7
683.904	3609.2
684.094	3590.77
684.284	3578.48
684.474	3611.25
684.664	3603.06
684.854	3359.35
685.044	3478.13
685.234	3299.96
685.424	3441.27
685.614	3428.98
685.804	3486.33
685.994	3457.65
686.184	3396.21
686.374	3486.33
686.564	3338.87
686.753	3467.89
686.943	3443.32
687.133	3334.78
687.323	3322.49
687.513	3404.41
687.702	3326.58
687.892	3252.86
688.082	3359.35
688.272	3439.22
688.461	3314.3
688.651	3336.82
688.841	3297.91
689.03	3383.93
689.22	3256.95
689.41	3373.69
689.599	3361.4
689.789	3410.55
689.979	3195.51
690.168	3275.38
690.358	3261.05
690.547	3224.19
690.737	3205.75
690.926	3232.38
691.116	3179.13
691.305	3379.83
691.495	3103.36
691.684	3170.94
691.874	3054.2
692.063	3246.71
692.252	3127.93
692.442	3132.03
692.631	3013.24
692.82	3140.22
693.01	3162.75
693.199	3154.55
693.388	3072.64
693.578	3125.88
693.767	3166.84
693.956	3177.08
694.146	3050.11
694.335	2931.33
694.524	3046.01
694.713	3025.53
694.902	3168.89
695.092	3009.15
695.281	2923.13
695.47	3103.36
695.659	2972.29
695.848	2992.77
696.037	2939.52
696.226	2888.32
696.415	2935.42
696.604	2976.38
696.793	2888.32
696.982	2851.46
697.171	3011.2
697.36	2871.93
697.549	2861.7
697.738	2927.23
697.927	2869.89
698.116	2855.55
698.305	2912.89
698.494	2867.84
698.683	2863.74
698.872	2833.02
699.061	2878.08
699.25	2927.23
699.438	2820.74
699.627	2876.03
699.816	2873.98
700.005	2876.03
700.193	2738.82
700.382	2714.24
700.571	2648.71
700.76	2597.51
700.948	2695.81
701.137	2624.13
701.326	2687.62
701.514	2601.6
701.703	2542.21
701.892	2607.75
702.08	2577.03
702.269	2536.07
702.457	2515.59
702.646	2574.98
702.834	2476.68
703.023	2531.97
703.212	2495.11
703.4	2402.95
703.589	2558.6
703.777	2499.2
703.965	2470.53
704.154	2460.29
704.342	2366.09
704.531	2392.71
704.719	2437.77
704.907	2435.72
705.096	2353.8
705.284	2445.96
705.472	2409.09
705.661	2411.14
705.849	2441.86
706.037	2337.41
706.226	2402.95
706.414	2228.87
706.602	2378.37
706.79	2474.63
706.979	2220.68
707.167	2228.87
707.355	2249.35
707.543	2361.99
707.731	2230.92
707.919	2378.37
708.107	2296.46
708.296	2241.16
708.484	2271.88
708.672	2198.15
708.86	2222.73
709.048	2144.91
709.236	2105.99
709.424	2232.97
709.612	2169.48
709.8	2077.32
709.988	2122.38
710.176	2114.19
710.364	2183.82
710.551	2196.11
710.739	2036.36
710.927	2151.05
711.115	2017.93
711.303	2093.71
711.491	2005.64
711.679	1893.01
711.866	2017.93
712.054	2087.56
712.242	1880.72
712.43	2026.12
712.617	2013.84
712.805	1884.81
712.993	2001.55
713.181	1954.44
713.368	1911.44
713.556	1936.01
713.744	1854.09
713.931	1817.23
714.119	1911.44
714.306	1919.63
714.494	1970.83
714.682	1759.89
714.869	1770.13
715.057	1843.85
715.244	1821.33
715.432	1880.72
715.619	1780.37
715.807	1757.84
715.994	1645.2
716.182	1737.36
716.369	1919.63
716.556	1747.6
716.744	1895.05
716.931	1735.31
717.119	1780.37
717.306	1794.7
717.493	1768.08
717.681	1694.35
717.868	1686.16
718.055	1665.68
718.242	1688.21
718.43	1692.3
718.617	1675.92
718.804	1591.95
718.991	1704.59
719.179	1591.95
719.366	1608.34
719.553	1600.15
719.74	1616.53
719.927	1555.09
720.114	1596.05
720.301	1546.9
720.488	1600.15
720.676	1514.13
720.863	1538.71
721.05	1526.42
721.237	1528.47
721.424	1624.72
721.611	1522.32
721.798	1442.45
721.985	1487.51
722.172	1442.45
722.358	1491.6
722.545	1428.12
722.732	1487.51
722.919	1389.21
723.106	1432.21
723.293	1393.3
723.48	1448.6
723.667	1407.64
723.853	1442.45
724.04	1497.75
724.227	1432.21
724.414	1354.39
724.6	1387.16
724.787	1389.21
724.974	1397.4
725.161	1219.22
725.347	1331.86
725.534	1360.53
725.72	1315.48
725.907	1301.14
726.094	1225.37
726.28	1254.04
726.467	1245.85
726.653	1270.42
726.84	1315.48
727.027	1346.2
727.213	1311.38
727.4	1272.47
727.586	1256.09
727.773	1241.75
727.959	1202.84
728.145	1276.57
728.332	1290.9
728.518	1208.98
728.705	1299.09
728.891	1278.62
729.077	1182.36
729.264	1219.22
729.45	1151.64
729.636	1215.13
729.823	1249.94
730.009	1125.02
730.195	1127.07
730.382	1022.62
730.568	1069.72
730.754	1221.27
730.94	1157.79
731.126	1114.78
731.313	1151.64
731.499	1125.02
731.685	1108.63
731.871	1028.76
732.057	1028.76
732.243	1055.39
732.429	1114.78
732.615	1114.78
732.801	1065.63
732.987	1092.25
733.173	1139.35
733.359	1057.43
733.545	1061.53
733.731	1012.38
733.917	1036.95
734.103	1014.43
734.289	1006.24
734.475	1028.76
734.661	1032.86
734.847	1053.34
735.033	1030.81
735.219	1092.25
735.404	1036.95
735.59	965.28
735.776	926.36
735.962	1051.29
736.148	1102.49
736.333	950.94
736.519	983.71
736.705	885.41
736.89	1045.15
737.076	940.7
737.262	936.6
737.447	948.89
737.633	823.97
737.819	924.32
738.004	959.13
738.19	891.55
738.375	944.8
738.561	977.56
738.747	1024.67
738.932	846.49
739.118	977.56
739.303	903.84
739.489	989.85
739.674	905.88
739.859	823.97
740.045	848.54
740.23	864.93
740.416	909.98
740.601	901.79
740.786	809.63
740.972	803.49
741.157	826.01
741.342	832.16
741.528	813.73
741.713	850.59
741.898	750.24
742.084	848.54
742.269	897.69
742.454	830.11
742.639	834.21
742.824	803.49
743.01	838.3
743.195	852.64
743.38	723.62
743.565	838.3
743.75	846.49
743.935	783.01
744.12	723.62
744.305	713.38
744.49	764.58
744.675	731.81
744.86	801.44
745.045	752.29
745.23	653.98
745.415	879.26
745.6	729.76
745.785	684.7
745.97	754.34
746.155	684.7
746.34	631.46
746.525	656.03
746.71	641.7
746.895	688.8
747.079	811.68
747.264	664.22
747.449	694.94
747.634	668.32
747.819	705.18
748.003	684.7
748.188	645.79
748.373	637.6
748.557	672.42
748.742	686.75
748.927	631.46
749.111	645.79
749.296	682.66
749.481	623.27
749.665	658.08
749.85	588.45
750.034	686.75
750.219	625.31
750.404	656.03
750.588	727.71
750.773	641.7
750.957	610.98
751.141	598.69
751.326	645.79
751.51	617.12
751.695	531.11
751.879	610.98
752.064	576.16
752.248	481.96
752.432	576.16
752.617	576.16
752.801	539.3
752.985	608.93
753.17	578.21
753.354	555.68
753.538	541.35
753.722	488.1
753.907	508.58
754.091	508.58
754.275	559.78
754.459	539.3
754.643	522.91
754.828	590.5
755.012	563.87
755.196	535.2
755.38	494.24
755.564	488.1
755.748	520.87
755.932	543.39
756.116	504.48
756.3	494.24
756.484	514.72
756.668	535.2
756.852	445.09
757.036	473.76
757.22	471.72
757.404	527.01
757.588	547.49
757.772	514.72
757.956	486.05
758.14	514.72
758.323	565.92
758.507	504.48
758.691	467.62
758.875	494.24
759.059	510.63
759.242	412.32
759.426	447.14
759.61	465.57
759.794	531.11
759.977	445.09
760.161	553.63
760.345	420.52
760.528	504.48
760.712	449.19
760.895	436.9
761.079	424.61
761.263	441
761.446	404.13
761.63	471.72
761.813	432.8
761.997	441
762.18	334.5
762.364	541.35
762.547	385.7
762.731	404.13
762.914	512.67
763.098	381.6
763.281	473.76
763.464	453.28
763.648	443.04
763.831	469.67
764.015	369.32
764.198	447.14
764.381	447.14
764.564	441
764.748	473.76
764.931	428.71
765.114	404.13
765.297	424.61
765.481	354.98
765.664	371.37
765.847	361.13
766.03	334.5
766.213	406.18
766.397	359.08
766.58	391.84
766.763	397.99
766.946	459.43
767.129	469.67
767.312	404.13
767.495	391.84
767.678	418.47
767.861	422.56
768.044	412.32
768.227	379.56
768.41	422.56
768.593	404.13
768.776	303.78
768.959	377.51
769.142	367.27
769.324	434.85
769.507	307.88
769.69	322.21
769.873	326.31
770.056	406.18
770.239	412.32
770.421	381.6
770.604	332.45
770.787	385.7
770.97	400.04
771.152	451.24
771.335	268.97
771.518	395.94
771.7	486.05
771.883	363.17
772.066	354.98
772.248	322.21
772.431	301.73
772.613	340.65
772.796	324.26
772.978	371.37
773.161	406.18
773.343	424.61
773.526	381.6
773.708	365.22
773.891	350.89
774.073	359.08
774.256	354.98
774.438	426.66
774.621	379.56
774.803	328.36
774.985	258.73
775.168	268.97
775.35	352.93
775.532	363.17
775.715	326.31
775.897	314.02
776.079	348.84
776.261	338.6
776.444	375.46
776.626	316.07
776.808	277.16
776.99	303.78
777.173	273.06
777.355	326.31
777.537	307.88
777.719	352.93
777.901	332.45
778.083	283.3
778.265	234.15
778.447	309.93
778.629	324.26
778.811	283.3
778.993	363.17
779.175	250.53
779.357	316.07
779.539	182.95
779.721	285.35
779.903	324.26
780.085	326.31
780.267	389.8
780.449	242.34
780.631	285.35
780.812	301.73
780.994	293.54
781.176	293.54
781.358	275.11
781.54	287.4
781.721	238.25
781.903	262.82
782.085	201.38
782.267	277.16
782.448	273.06
782.63	266.92
782.812	182.95
782.993	256.68
783.175	244.39
783.357	316.07
783.538	256.68
783.72	242.34
783.901	180.9
784.083	279.21
784.264	193.19
784.446	248.49
784.627	285.35
784.809	187.05
784.99	248.49
785.172	213.67
785.353	230.06
785.535	236.2
785.716	187.05
785.897	248.49
786.079	182.95
786.26	250.53
786.441	256.68
786.623	156.33
786.804	230.06
786.985	203.43
787.167	266.92
787.348	199.34
787.529	215.72
787.71	242.34
787.891	178.86
788.073	215.72
788.254	150.18
788.435	160.42
788.616	197.29
788.797	219.82
788.978	154.28
789.159	219.82
789.34	223.91
789.522	156.33
789.703	207.53
789.884	103.08
790.065	178.86
790.246	162.47
790.427	137.9
790.607	217.77
790.788	191.14
790.969	172.71
791.15	182.95
791.331	166.57
791.512	252.58
791.693	187.05
791.874	211.62
792.054	244.39
792.235	164.52
792.416	144.04
792.597	164.52
792.778	193.19
792.958	201.38
793.139	170.66
793.32	199.34
793.5	76.46
793.681	162.47
793.862	207.53
794.042	135.85
794.223	103.08
794.404	232.1
794.584	125.61
794.765	164.52
794.945	168.62
795.126	170.66
795.306	150.18
795.487	113.32
795.667	193.19
795.848	94.89
796.028	101.03
796.209	141.99
796.389	139.94
796.57	172.71
796.75	137.9
796.93	160.42
797.111	127.66
797.291	168.62
797.471	133.8
797.652	137.9
797.832	98.99
798.012	113.32
798.192	131.75
798.373	131.75
798.553	96.94
798.733	146.09
798.913	84.65
799.093	207.53
799.274	146.09
799.454	135.85
799.634	88.75
799.814	164.52
799.994	232.1
800.174	176.81
800.354	150.18
800.534	172.71
800.714	107.18
800.894	160.42
801.074	193.19
801.254	109.23
801.434	23.21
801.614	144.04
801.794	133.8
801.974	338.6
802.154	111.27
802.334	105.13
802.514	-15.7
802.693	0.68
802.873	127.66
803.053	80.55
803.233	146.09
803.413	101.03
803.592	80.55
803.772	119.46
803.952	72.36
804.131	144.04
804.311	178.86
804.491	164.52
804.67	127.66
804.85	117.42
805.03	152.23
805.209	123.56
805.389	109.23
805.568	60.07
805.748	146.09
805.928	152.23
806.107	64.17
806.287	96.94
806.466	119.46
806.646	133.8
806.825	88.75
807.004	10.92
807.184	49.83
807.363	121.51
807.543	129.7
807.722	86.7
807.901	98.99
808.081	101.03
808.26	78.51
808.439	144.04
808.619	78.51
808.798	129.7
808.977	70.31
809.156	113.32
809.336	125.61
809.515	82.6
809.694	105.13
809.873	131.75
810.052	121.51
810.231	53.93
810.411	131.75
810.59	109.23
810.769	92.84
810.948	64.17
811.127	21.16
811.306	78.51
811.485	66.22
811.664	45.74
811.843	66.22
812.022	76.46
812.201	41.64
812.38	43.69
812.559	41.64
812.737	53.93
812.916	33.45
813.095	113.32
813.274	33.45
813.453	123.56
813.632	68.27
813.811	139.94
813.989	84.65
814.168	72.36
814.347	-3.41
814.526	78.51
814.704	37.55
814.883	84.65
815.062	23.21
815.24	92.84
815.419	-19.8
815.598	84.65
815.776	25.26
815.955	101.03
816.133	17.07
816.312	68.27
816.49	84.65
816.669	47.79
816.847	64.17
817.026	178.86
817.204	55.98
817.383	23.21
817.561	84.65
817.74	31.4
817.918	94.89
818.097	53.93
818.275	88.75
818.453	53.93
818.632	-3.41
818.81	62.12
818.988	58.03
819.167	90.79
819.345	76.46
819.523	33.45
819.701	55.98
819.879	19.11
820.058	80.55
820.236	94.89
820.414	80.55
820.592	68.27
820.77	98.99
820.948	29.35
821.127	47.79
821.305	133.8
821.483	35.5
821.661	35.5
821.839	74.41
822.017	103.08
822.195	35.5
822.373	15.02
822.551	31.4
822.729	94.89
822.907	117.42
823.085	131.75
823.262	39.59
823.44	45.74
823.618	0.68
823.796	37.55
823.974	84.65
824.152	53.93
824.329	-1.37
824.507	78.51
824.685	23.21
824.863	88.75
825.04	82.6
825.218	39.59
825.396	6.83
825.574	55.98
825.751	86.7
825.929	-9.56
826.107	53.93
826.284	78.51
826.462	27.31
826.639	78.51
826.817	41.64
826.994	64.17
827.172	-1.37
827.349	119.46
827.527	0.68
827.704	139.94
827.882	72.36
828.059	92.84
828.237	55.98
828.414	78.51
828.591	113.32
828.769	62.12
828.946	86.7
829.124	158.38
829.301	64.17
829.478	80.55
829.655	-7.51
829.833	53.93
830.01	62.12
830.187	58.03
830.364	39.59
830.542	35.5
830.719	29.35
830.896	33.45
831.073	6.83
831.25	127.66
831.427	80.55
831.604	86.7
831.782	15.02
831.959	41.64
832.136	58.03
832.313	33.45
832.49	25.26
832.667	19.11
832.844	119.46
833.021	103.08
833.198	101.03
833.374	21.16
833.551	43.69
833.728	29.35
833.905	55.98
834.082	35.5
834.259	33.45
834.436	76.46
834.612	35.5
834.789	98.99
834.966	10.92
835.143	43.69
835.319	146.09
835.496	4.78
835.673	76.46
835.85	60.07
836.026	41.64
836.203	86.7
836.38	84.65
836.556	70.31
836.733	6.83
836.909	121.51
837.086	70.31
837.262	39.59
837.439	2.73
837.616	19.11
837.792	-44.37
837.968	-13.65
838.145	78.51
838.321	51.88
838.498	66.22
838.674	39.59
838.851	41.64
839.027	21.16
839.203	41.64
839.38	49.83
839.556	-25.94
839.732	33.45
839.909	27.31
840.085	94.89
840.261	27.31
840.437	74.41
840.614	72.36
840.79	-1.37
840.966	72.36
841.142	88.75
841.318	-3.41
841.494	58.03
841.671	127.66
841.847	25.26
842.023	8.87
842.199	78.51
842.375	33.45
842.551	70.31
842.727	-60.76
842.903	31.4
843.079	76.46
843.255	66.22
843.431	23.21
843.607	47.79
843.783	6.83
843.959	-1.37
844.134	31.4
844.31	101.03
844.486	-66.9
844.662	101.03
844.838	12.97
845.013	6.83
845.189	53.93
845.365	43.69
845.541	72.36
845.716	23.21
845.892	76.46
846.068	12.97
846.244	10.92
846.419	37.55
846.595	31.4
846.77	4.78
846.946	74.41
847.122	-30.04
847.297	6.83
847.473	55.98
847.648	17.07
847.824	29.35
847.999	35.5
848.175	-7.51
848.35	19.11
848.526	60.07
848.701	-30.04
848.876	78.51
849.052	-42.32
849.227	86.7
849.403	-7.51
849.578	39.59
849.753	23.21
849.929	96.94
850.104	27.31
850.279	-9.56
850.454	84.65
850.63	-11.61
850.805	-21.84
850.98	94.89
851.155	43.69
851.33	51.88
851.505	31.4
851.681	105.13
851.856	4.78
852.031	27.31
852.206	60.07
852.381	39.59
852.556	8.87
852.731	51.88
852.906	45.74
853.081	12.97
853.256	101.03
853.431	-3.41
853.606	19.11
853.781	-50.52
853.956	96.94
854.131	47.79
854.305	60.07
854.48	33.45
854.655	4.78
854.83	12.97
855.005	78.51
855.18	21.16
855.354	6.83
855.529	88.75
855.704	-30.04
855.879	47.79
856.053	-21.84
856.228	115.37
856.403	49.83
856.577	92.84
856.752	-11.61
856.926	64.17
857.101	-9.56
857.276	76.46
857.45	-44.37
857.625	21.16
857.799	21.16
857.974	-19.8
858.148	-19.8
858.323	90.79
858.497	-7.51
858.672	-15.7
858.846	68.27
859.02	15.02
859.195	12.97
859.369	41.64
859.543	12.97
859.718	-1.37
859.892	53.93
860.066	43.69
860.241	-19.8
860.415	29.35
860.589	49.83
860.763	-21.84
860.938	33.45
861.112	12.97
861.286	15.02
861.46	17.07
861.634	-44.37
861.808	-17.75
861.982	33.45
862.157	19.11
862.331	35.5
862.505	37.55
862.679	2.73
862.853	60.07
863.027	-5.46
863.201	78.51
863.375	-1.37
863.549	31.4
863.722	17.07
863.896	25.26
864.07	86.7
864.244	33.45
864.418	35.5
864.592	21.16
864.766	-3.41
864.939	117.42
865.113	-44.37
865.287	82.6
865.461	-48.47
865.634	49.83
865.808	-15.7
865.982	68.27
866.156	29.35
866.329	0.68
866.503	70.31
866.676	105.13
866.85	55.98
867.024	62.12
867.197	51.88
867.371	-5.46
867.544	78.51
867.718	-34.13
867.891	-60.76
868.065	2.73
868.238	-48.47
868.412	70.31
868.585	8.87
868.759	-42.32
868.932	82.6
869.105	53.93
869.279	25.26
869.452	45.74
869.625	60.07
869.799	-36.18
869.972	-13.65
870.145	31.4
870.319	6.83
870.492	-48.47
870.665	66.22
870.838	27.31
871.011	-68.95
871.185	53.93
871.358	-3.41
871.531	45.74
871.704	-58.71
871.877	-25.94
872.05	74.41
872.223	-21.84
872.396	39.59
872.569	-36.18
872.742	2.73
872.915	64.17
873.088	47.79
873.261	15.02
873.434	72.36
873.607	8.87
873.78	25.26
873.953	4.78
874.126	8.87
874.299	21.16
874.471	37.55
874.644	23.21
874.817	-21.84
874.99	2.73
875.163	4.78
875.335	21.16
875.508	27.31
875.681	68.27
875.853	-1.37
876.026	49.83
876.199	78.51
876.371	12.97
876.544	72.36
876.717	12.97
876.889	-36.18
877.062	29.35
877.234	27.31
877.407	21.16
877.579	12.97
877.752	39.59
877.924	37.55
878.097	25.26
878.269	62.12
878.442	33.45
878.614	70.31
878.786	-11.61
878.959	21.16
879.131	-25.94
879.303	-62.8
879.476	43.69
879.648	33.45
879.82	-77.14
879.993	51.88
880.165	35.5
880.337	-7.51
880.509	33.45
880.681	21.16
880.854	-85.33
881.026	25.26
881.198	12.97
881.37	-13.65
881.542	96.94
881.714	6.83
881.886	-7.51
882.058	8.87
882.23	103.08
882.402	35.5
882.574	-9.56
882.746	-7.51
882.918	62.12
883.09	98.99
883.262	80.55
883.434	2.73
883.606	80.55
883.778	21.16
883.95	80.55
884.122	25.26
884.293	-9.56
884.465	10.92
884.637	64.17
884.809	23.21
884.98	-71
885.152	80.55
885.324	94.89
885.496	-19.8
885.667	43.69
885.839	-30.04
886.011	49.83
886.182	51.88
886.354	84.65
886.525	19.11
886.697	29.35
886.869	27.31
887.04	74.41
887.212	19.11
887.383	33.45
887.555	0.68
887.726	23.21
887.897	-30.04
888.069	60.07
888.24	19.11
888.412	-23.89
888.583	-25.94
888.754	-32.08
888.926	33.45
889.097	86.7
889.268	55.98
889.44	-3.41
889.611	39.59
889.782	-32.08
889.953	-3.41
890.125	31.4
890.296	-54.61
890.467	64.17
890.638	6.83
890.809	-15.7
890.98	6.83
891.151	-7.51
891.323	78.51
891.494	-58.71
891.665	-34.13
891.836	-25.94
892.007	39.59
892.178	27.31
892.349	-19.8
892.52	37.55
892.691	27.31
892.862	-38.23
893.032	2.73
893.203	-40.28
893.374	-32.08
893.545	-3.41
893.716	27.31
893.887	29.35
894.057	-7.51
894.228	-30.04
894.399	-15.7
894.57	-5.46
894.74	41.64
894.911	35.5
895.082	-5.46
895.253	45.74
895.423	-21.84
895.594	23.21
895.764	-7.51
895.935	-23.89
896.106	-85.33
896.276	39.59
896.447	29.35
896.617	51.88
896.788	27.31
896.958	-30.04
897.129	43.69
897.299	-7.51
897.47	-50.52
897.64	53.93
897.81	53.93
897.981	23.21
898.151	-56.66
898.322	23.21
898.492	15.02
898.662	-17.75
898.832	-52.56
899.003	41.64
899.173	-30.04
899.343	90.79
899.513	-87.38
