Data from USB4F104151__85__12-54-48-538.txt Node

Date: Fri Mar 14 12:54:48 EDT 2025
User: louis
Spectrometer: USB4F10415
Trigger mode: 4
Integration Time (sec): 1.000000E-2
Scans to average: 1
Electric dark correction enabled: true
Nonlinearity correction enabled: false
Boxcar width: 0
XAxis mode: Wavelengths
Number of Pixels in Spectrum: 3648
>>>>>Begin Spectral Data<<<<<
178.204	-41.81
178.424	-41.81
178.644	-41.81
178.864	-17.24
179.084	58.54
179.304	-11.09
179.524	62.63
179.744	-7
179.964	89.26
180.184	-15.19
180.404	-0.85
180.624	-21.33
180.844	-13.14
181.064	-35.67
181.283	11.43
181.503	-56.15
181.723	-2.9
181.943	21.67
182.163	9.39
182.383	52.39
182.602	85.16
182.822	74.92
183.042	54.44
183.262	54.44
183.482	17.58
183.701	74.92
183.921	-25.43
184.141	95.4
184.361	38.06
184.58	38.06
184.8	79.02
185.02	11.43
185.239	-7
185.459	-17.24
185.679	-72.53
185.898	-25.43
186.118	-25.43
186.338	9.39
186.557	36.01
186.777	66.73
186.997	46.25
187.216	-11.09
187.436	3.24
187.655	17.58
187.875	3.24
188.095	-0.85
188.314	31.91
188.534	-2.9
188.753	38.06
188.973	-0.85
189.192	40.11
189.412	97.45
189.631	-19.29
189.851	9.39
190.07	15.53
190.29	25.77
190.509	40.11
190.729	-17.24
190.948	52.39
191.168	48.3
191.387	33.96
191.607	17.58
191.826	-13.14
192.045	-39.76
192.265	70.83
192.484	25.77
192.704	25.77
192.923	-29.52
193.142	52.39
193.362	-33.62
193.581	21.67
193.8	31.91
194.02	31.91
194.239	-29.52
194.458	-17.24
194.678	-27.48
194.897	-27.48
195.116	15.53
195.335	13.48
195.555	29.87
195.774	13.48
195.993	9.39
196.212	13.48
196.432	52.39
196.651	42.15
196.87	50.35
197.089	-43.86
197.308	19.63
197.528	-31.57
197.747	-29.52
197.966	23.72
198.185	13.48
198.404	-19.29
198.623	-29.52
198.842	9.39
199.062	21.67
199.281	29.87
199.5	38.06
199.719	93.35
199.938	31.91
200.157	-11.09
200.376	23.72
200.595	13.48
200.814	-4.95
201.033	1.19
201.252	33.96
201.471	31.91
201.69	-17.24
201.909	36.01
202.128	25.77
202.347	9.39
202.566	36.01
202.785	27.82
203.004	81.07
203.223	79.02
203.442	42.15
203.661	-21.33
203.879	-9.05
204.098	54.44
204.317	-11.09
204.536	74.92
204.755	54.44
204.974	42.15
205.193	19.63
205.411	70.83
205.63	27.82
205.849	25.77
206.068	1.19
206.287	76.97
206.505	-0.85
206.724	29.87
206.943	-31.57
207.162	-45.91
207.381	-7
207.599	107.69
207.818	17.58
208.037	64.68
208.255	-11.09
208.474	-23.38
208.693	117.93
208.911	79.02
209.13	38.06
209.349	-29.52
209.567	11.43
209.786	66.73
210.005	-13.14
210.223	58.54
210.442	3.24
210.661	-33.62
210.879	7.34
211.098	29.87
211.316	13.48
211.535	-2.9
211.753	-29.52
211.972	33.96
212.191	29.87
212.409	44.2
212.628	11.43
212.846	-47.96
213.065	33.96
213.283	62.63
213.502	31.91
213.72	107.69
213.938	9.39
214.157	56.49
214.375	3.24
214.594	52.39
214.812	1.19
215.031	72.87
215.249	17.58
215.467	85.16
215.686	-9.05
215.904	48.3
216.122	76.97
216.341	85.16
216.559	21.67
216.778	50.35
216.996	-50
217.214	95.4
217.432	-21.33
217.651	11.43
217.869	-21.33
218.087	46.25
218.306	52.39
218.524	-4.95
218.742	1.19
218.96	-31.57
219.179	1.19
219.397	52.39
219.615	1.19
219.833	40.11
220.051	42.15
220.27	58.54
220.488	-72.53
220.706	-29.52
220.924	3.24
221.142	25.77
221.36	44.2
221.578	-27.48
221.796	40.11
222.015	-52.05
222.233	50.35
222.451	56.49
222.669	36.01
222.887	-43.86
223.105	-39.76
223.323	23.72
223.541	-11.09
223.759	60.59
223.977	23.72
224.195	74.92
224.413	5.29
224.631	66.73
224.849	19.63
225.067	62.63
225.285	56.49
225.503	36.01
225.721	-19.29
225.939	33.96
226.157	-13.14
226.375	91.31
226.592	-56.15
226.81	-7
227.028	-25.43
227.246	-0.85
227.464	-19.29
227.682	52.39
227.9	1.19
228.117	-4.95
228.335	23.72
228.553	7.34
228.771	3.24
228.989	33.96
229.206	42.15
229.424	5.29
229.642	-11.09
229.86	33.96
230.077	-109.4
230.295	-54.1
230.513	68.78
230.731	-13.14
230.948	-60.24
231.166	-31.57
231.384	21.67
231.601	-13.14
231.819	11.43
232.037	40.11
232.254	-4.95
232.472	19.63
232.689	25.77
232.907	91.31
233.125	-37.72
233.342	-50
233.56	83.11
233.777	27.82
233.995	-29.52
234.213	50.35
234.43	21.67
234.648	27.82
234.865	27.82
235.083	36.01
235.3	3.24
235.518	-43.86
235.735	-47.96
235.953	-9.05
236.17	15.53
236.388	5.29
236.605	33.96
236.822	48.3
237.04	-7
237.257	5.29
237.475	-31.57
237.692	1.19
237.909	74.92
238.127	7.34
238.344	-2.9
238.562	-13.14
238.779	74.92
238.996	66.73
239.214	-13.14
239.431	62.63
239.648	7.34
239.865	44.2
240.083	-27.48
240.3	44.2
240.517	5.29
240.735	21.67
240.952	62.63
241.169	42.15
241.386	33.96
241.603	-19.29
241.821	-35.67
242.038	101.55
242.255	91.31
242.472	-17.24
242.689	74.92
242.907	56.49
243.124	9.39
243.341	-11.09
243.558	-21.33
243.775	7.34
243.992	31.91
244.209	-7
244.426	29.87
244.643	33.96
244.86	-45.91
245.078	5.29
245.295	3.24
245.512	64.68
245.729	46.25
245.946	-2.9
246.163	68.78
246.38	-13.14
246.597	76.97
246.814	13.48
247.031	50.35
247.248	9.39
247.464	58.54
247.681	23.72
247.898	-25.43
248.115	23.72
248.332	66.73
248.549	-7
248.766	40.11
248.983	44.2
249.2	19.63
249.417	85.16
249.633	50.35
249.85	48.3
250.067	38.06
250.284	-21.33
250.501	-4.95
250.717	9.39
250.934	-13.14
251.151	60.59
251.368	-76.63
251.585	58.54
251.801	17.58
252.018	-64.34
252.235	23.72
252.451	17.58
252.668	-2.9
252.885	-2.9
253.102	-58.2
253.318	5.29
253.535	3.24
253.752	13.48
253.968	66.73
254.185	-33.62
254.401	42.15
254.618	-7
254.835	-33.62
255.051	-11.09
255.268	3.24
255.484	-17.24
255.701	-7
255.917	60.59
256.134	-60.24
256.351	5.29
256.567	7.34
256.784	17.58
257	-29.52
257.217	50.35
257.433	91.31
257.65	17.58
257.866	72.87
258.082	76.97
258.299	-13.14
258.515	74.92
258.732	66.73
258.948	36.01
259.165	33.96
259.381	1.19
259.597	29.87
259.814	-0.85
260.03	79.02
260.246	54.44
260.463	-21.33
260.679	52.39
260.895	42.15
261.112	5.29
261.328	7.34
261.544	33.96
261.761	79.02
261.977	-109.4
262.193	17.58
262.409	3.24
262.626	-19.29
262.842	3.24
263.058	23.72
263.274	-27.48
263.49	-60.24
263.707	29.87
263.923	9.39
264.139	-15.19
264.355	79.02
264.571	13.48
264.787	17.58
265.004	17.58
265.22	-11.09
265.436	29.87
265.652	-23.38
265.868	-7
266.084	-27.48
266.3	54.44
266.516	-37.72
266.732	-13.14
266.948	44.2
267.164	-37.72
267.38	-7
267.596	25.77
267.812	3.24
268.028	13.48
268.244	-62.29
268.46	3.24
268.676	9.39
268.892	66.73
269.108	44.2
269.324	46.25
269.54	19.63
269.756	79.02
269.972	38.06
270.188	15.53
270.403	5.29
270.619	85.16
270.835	17.58
271.051	25.77
271.267	-33.62
271.483	-15.19
271.698	-25.43
271.914	83.11
272.13	31.91
272.346	19.63
272.562	81.07
272.777	50.35
272.993	36.01
273.209	50.35
273.425	-11.09
273.64	42.15
273.856	31.91
274.072	3.24
274.287	56.49
274.503	27.82
274.719	89.26
274.934	44.2
275.15	-35.67
275.366	-29.52
275.581	-29.52
275.797	3.24
276.012	-56.15
276.228	46.25
276.444	13.48
276.659	3.24
276.875	36.01
277.09	21.67
277.306	48.3
277.521	85.16
277.737	-35.67
277.952	19.63
278.168	27.82
278.383	87.21
278.599	42.15
278.814	36.01
279.03	19.63
279.245	50.35
279.461	33.96
279.676	50.35
279.892	29.87
280.107	17.58
280.322	9.39
280.538	76.97
280.753	68.78
280.969	1.19
281.184	27.82
281.399	113.83
281.615	5.29
281.83	19.63
282.045	1.19
282.26	58.54
282.476	9.39
282.691	-7
282.906	15.53
283.122	9.39
283.337	11.43
283.552	119.98
283.767	25.77
283.983	27.82
284.198	27.82
284.413	-15.19
284.628	-35.67
284.843	27.82
285.058	7.34
285.274	72.87
285.489	38.06
285.704	17.58
285.919	58.54
286.134	33.96
286.349	-54.1
286.564	-31.57
286.779	36.01
286.995	-7
287.21	58.54
287.425	-17.24
287.64	-13.14
287.855	62.63
288.07	60.59
288.285	-62.29
288.5	-2.9
288.715	5.29
288.93	-19.29
289.145	13.48
289.36	15.53
289.575	19.63
289.79	38.06
290.004	66.73
290.219	-23.38
290.434	-19.29
290.649	40.11
290.864	42.15
291.079	46.25
291.294	38.06
291.509	38.06
291.724	103.59
291.938	-0.85
292.153	19.63
292.368	27.82
292.583	36.01
292.798	1.19
293.012	-0.85
293.227	3.24
293.442	-33.62
293.657	54.44
293.871	27.82
294.086	38.06
294.301	36.01
294.516	3.24
294.73	17.58
294.945	19.63
295.16	3.24
295.374	-56.15
295.589	29.87
295.804	23.72
296.018	23.72
296.233	56.49
296.447	-27.48
296.662	-39.76
296.877	68.78
297.091	50.35
297.306	33.96
297.52	62.63
297.735	15.53
297.949	50.35
298.164	91.31
298.378	50.35
298.593	-56.15
298.807	7.34
299.022	58.54
299.236	79.02
299.451	23.72
299.665	54.44
299.88	52.39
300.094	40.11
300.309	64.68
300.523	48.3
300.737	29.87
300.952	25.77
301.166	11.43
301.381	-9.05
301.595	-15.19
301.809	52.39
302.024	76.97
302.238	-72.53
302.452	66.73
302.667	25.77
302.881	68.78
303.095	117.93
303.309	9.39
303.524	7.34
303.738	46.25
303.952	-0.85
304.166	31.91
304.381	-15.19
304.595	27.82
304.809	3.24
305.023	46.25
305.237	-19.29
305.452	-9.05
305.666	68.78
305.88	60.59
306.094	-62.29
306.308	11.43
306.522	31.91
306.736	54.44
306.95	25.77
307.164	-25.43
307.379	13.48
307.593	42.15
307.807	15.53
308.021	5.29
308.235	23.72
308.449	-7
308.663	-56.15
308.877	15.53
309.091	38.06
309.305	74.92
309.519	9.39
309.733	62.63
309.947	27.82
310.161	42.15
310.374	44.2
310.588	58.54
310.802	1.19
311.016	33.96
311.23	40.11
311.444	72.87
311.658	21.67
311.872	56.49
312.085	-19.29
312.299	54.44
312.513	52.39
312.727	15.53
312.941	-4.95
313.154	1.19
313.368	93.35
313.582	72.87
313.796	-19.29
314.009	-4.95
314.223	42.15
314.437	-68.44
314.651	29.87
314.864	52.39
315.078	97.45
315.292	85.16
315.505	-4.95
315.719	25.77
315.933	13.48
316.146	42.15
316.36	11.43
316.573	58.54
316.787	-13.14
317.001	25.77
317.214	-37.72
317.428	40.11
317.641	15.53
317.855	95.4
318.068	-29.52
318.282	101.55
318.495	48.3
318.709	-19.29
318.922	52.39
319.136	-17.24
319.349	50.35
319.563	-17.24
319.776	42.15
319.99	11.43
320.203	-68.44
320.417	50.35
320.63	38.06
320.843	54.44
321.057	-7
321.27	42.15
321.483	19.63
321.697	-7
321.91	64.68
322.124	36.01
322.337	38.06
322.55	79.02
322.763	-0.85
322.977	-9.05
323.19	31.91
323.403	17.58
323.617	25.77
323.83	62.63
324.043	50.35
324.256	1.19
324.469	-56.15
324.683	-11.09
324.896	-2.9
325.109	48.3
325.322	1.19
325.535	42.15
325.748	54.44
325.962	79.02
326.175	21.67
326.388	13.48
326.601	-13.14
326.814	-15.19
327.027	1.19
327.24	58.54
327.453	-0.85
327.666	79.02
327.879	-7
328.092	23.72
328.305	52.39
328.518	31.91
328.731	31.91
328.944	-11.09
329.157	15.53
329.37	-13.14
329.583	62.63
329.796	-9.05
330.009	-37.72
330.222	5.29
330.435	-13.14
330.648	87.21
330.861	46.25
331.073	33.96
331.286	52.39
331.499	23.72
331.712	64.68
331.925	36.01
332.138	21.67
332.35	-9.05
332.563	-15.19
332.776	5.29
332.989	50.35
333.202	-19.29
333.414	52.39
333.627	-66.39
333.84	11.43
334.053	1.19
334.265	3.24
334.478	-15.19
334.691	3.24
334.903	-7
335.116	70.83
335.329	89.26
335.541	3.24
335.754	3.24
335.966	11.43
336.179	-29.52
336.392	-27.48
336.604	40.11
336.817	31.91
337.029	87.21
337.242	5.29
337.454	1.19
337.667	7.34
337.88	13.48
338.092	27.82
338.305	11.43
338.517	25.77
338.729	85.16
338.942	-41.81
339.154	-11.09
339.367	46.25
339.579	33.96
339.792	-15.19
340.004	-13.14
340.217	58.54
340.429	48.3
340.641	-19.29
340.854	64.68
341.066	117.93
341.278	50.35
341.491	38.06
341.703	54.44
341.915	29.87
342.128	81.07
342.34	44.2
342.552	7.34
342.764	-21.33
342.977	38.06
343.189	21.67
343.401	64.68
343.613	13.48
343.826	38.06
344.038	5.29
344.25	15.53
344.462	33.96
344.674	29.87
344.886	17.58
345.099	38.06
345.311	50.35
345.523	36.01
345.735	-35.67
345.947	50.35
346.159	74.92
346.371	21.67
346.583	79.02
346.795	76.97
347.007	40.11
347.219	13.48
347.431	11.43
347.643	93.35
347.855	72.87
348.067	11.43
348.279	42.15
348.491	-29.52
348.703	3.24
348.915	27.82
349.127	-2.9
349.339	70.83
349.551	126.12
349.763	11.43
349.975	58.54
350.187	-4.95
350.399	-4.95
350.61	17.58
350.822	-19.29
351.034	36.01
351.246	-31.57
351.458	3.24
351.669	3.24
351.881	54.44
352.093	79.02
352.305	25.77
352.517	56.49
352.728	27.82
352.94	93.35
353.152	23.72
353.363	66.73
353.575	-15.19
353.787	38.06
353.999	58.54
354.21	38.06
354.422	25.77
354.633	5.29
354.845	7.34
355.057	54.44
355.268	29.87
355.48	17.58
355.692	-7
355.903	-43.86
356.115	83.11
356.326	36.01
356.538	66.73
356.749	89.26
356.961	87.21
357.172	-13.14
357.384	33.96
357.595	38.06
357.807	-9.05
358.018	72.87
358.23	17.58
358.441	-33.62
358.653	17.58
358.864	15.53
359.075	11.43
359.287	60.59
359.498	50.35
359.709	50.35
359.921	7.34
360.132	15.53
360.344	19.63
360.555	7.34
360.766	27.82
360.977	27.82
361.189	13.48
361.4	1.19
361.611	79.02
361.823	52.39
362.034	91.31
362.245	21.67
362.456	50.35
362.667	-15.19
362.879	-37.72
363.09	27.82
363.301	76.97
363.512	29.87
363.723	-33.62
363.935	99.5
364.146	-13.14
364.357	9.39
364.568	-4.95
364.779	42.15
364.99	79.02
365.201	7.34
365.412	36.01
365.623	5.29
365.834	-35.67
366.045	46.25
366.256	27.82
366.467	66.73
366.678	64.68
366.889	-23.38
367.1	29.87
367.311	36.01
367.522	38.06
367.733	3.24
367.944	9.39
368.155	-0.85
368.366	40.11
368.577	36.01
368.788	66.73
368.999	-15.19
369.209	-4.95
369.42	48.3
369.631	52.39
369.842	-23.38
370.053	-7
370.264	74.92
370.474	11.43
370.685	-0.85
370.896	36.01
371.107	25.77
371.317	95.4
371.528	48.3
371.739	19.63
371.95	5.29
372.16	81.07
372.371	-4.95
372.582	23.72
372.792	1.19
373.003	54.44
373.214	-27.48
373.424	-15.19
373.635	-11.09
373.846	87.21
374.056	83.11
374.267	-4.95
374.477	79.02
374.688	74.92
374.898	-23.38
375.109	33.96
375.319	-21.33
375.53	9.39
375.74	31.91
375.951	-9.05
376.161	40.11
376.372	1.19
376.582	29.87
376.793	13.48
377.003	13.48
377.214	25.77
377.424	-17.24
377.635	89.26
377.845	60.59
378.055	9.39
378.266	-15.19
378.476	46.25
378.686	13.48
378.897	40.11
379.107	23.72
379.317	38.06
379.528	15.53
379.738	52.39
379.948	19.63
380.158	5.29
380.369	62.63
380.579	-11.09
380.789	-23.38
380.999	9.39
381.21	15.53
381.42	83.11
381.63	40.11
381.84	29.87
382.05	3.24
382.261	-29.52
382.471	54.44
382.681	17.58
382.891	42.15
383.101	68.78
383.311	50.35
383.521	33.96
383.731	-17.24
383.941	60.59
384.151	5.29
384.361	5.29
384.571	48.3
384.781	115.88
384.991	7.34
385.201	76.97
385.411	17.58
385.621	54.44
385.831	107.69
386.041	31.91
386.251	68.78
386.461	62.63
386.671	48.3
386.881	101.55
387.091	60.59
387.301	-27.48
387.511	3.24
387.72	29.87
387.93	50.35
388.14	-15.19
388.35	56.49
388.56	40.11
388.769	56.49
388.979	-15.19
389.189	42.15
389.399	-25.43
389.609	60.59
389.818	79.02
390.028	56.49
390.238	54.44
390.447	44.2
390.657	-17.24
390.867	91.31
391.076	17.58
391.286	58.54
391.496	81.07
391.705	-13.14
391.915	48.3
392.125	-66.39
392.334	33.96
392.544	62.63
392.753	-9.05
392.963	42.15
393.172	-13.14
393.382	42.15
393.591	46.25
393.801	-31.57
394.01	31.91
394.22	50.35
394.429	101.55
394.639	13.48
394.848	81.07
395.058	93.35
395.267	81.07
395.477	70.83
395.686	-52.05
395.895	1.19
396.105	89.26
396.314	19.63
396.524	72.87
396.733	-21.33
396.942	-9.05
397.152	72.87
397.361	54.44
397.57	31.91
397.78	74.92
397.989	56.49
398.198	83.11
398.407	40.11
398.617	21.67
398.826	19.63
399.035	17.58
399.244	50.35
399.453	33.96
399.663	60.59
399.872	9.39
400.081	62.63
400.29	42.15
400.499	109.74
400.708	58.54
400.917	60.59
401.127	93.35
401.336	74.92
401.545	122.02
401.754	-7
401.963	119.98
402.172	-11.09
402.381	79.02
402.59	42.15
402.799	68.78
403.008	-13.14
403.217	-7
403.426	93.35
403.635	17.58
403.844	38.06
404.053	17.58
404.262	5.29
404.471	27.82
404.68	48.3
404.888	1.19
405.097	38.06
405.306	33.96
405.515	58.54
405.724	83.11
405.933	101.55
406.142	115.88
406.35	56.49
406.559	64.68
406.768	105.64
406.977	107.69
407.185	62.63
407.394	91.31
407.603	89.26
407.812	44.2
408.02	48.3
408.229	58.54
408.438	167.08
408.646	48.3
408.855	117.93
409.064	105.64
409.272	122.02
409.481	99.5
409.69	175.27
409.898	165.03
410.107	162.98
410.315	111.78
410.524	89.26
410.733	189.61
410.941	216.23
411.15	95.4
411.358	218.28
411.567	181.42
411.775	234.66
411.984	205.99
412.192	183.46
412.401	205.99
412.609	201.9
412.818	165.03
413.026	226.47
413.234	226.47
413.443	165.03
413.651	259.24
413.86	255.14
414.068	300.2
414.276	261.29
414.485	283.81
414.693	283.81
414.901	251.05
415.11	320.68
415.318	289.96
415.526	396.45
415.734	410.79
415.943	386.21
416.151	308.39
416.359	384.16
416.567	416.93
416.776	318.63
416.984	410.79
417.192	416.93
417.4	408.74
417.608	461.99
417.817	519.33
418.025	433.32
418.233	615.59
418.441	550.05
418.649	552.1
418.857	582.82
419.065	488.61
419.273	552.1
419.481	636.06
419.689	564.39
419.897	763.04
420.105	677.02
420.313	697.5
420.521	654.5
420.729	847.01
420.937	740.51
421.145	806.05
421.353	730.27
421.561	789.66
421.769	851.1
421.977	867.49
422.185	955.55
422.393	879.77
422.601	928.92
422.809	1002.65
423.017	980.12
423.224	1080.47
423.432	1051.8
423.64	1170.58
423.848	1211.54
424.056	1178.78
424.263	1195.16
424.471	1299.61
424.679	1291.41
424.887	1262.74
425.094	1336.47
425.302	1395.86
425.51	1459.35
425.718	1440.92
425.925	1393.81
426.133	1584.27
426.341	1582.23
426.548	1707.15
426.756	1598.61
426.964	1744.02
427.171	1846.41
427.379	1928.33
427.586	1932.43
427.794	1883.28
428.001	2137.23
428.209	2126.99
428.417	2178.19
428.624	2358.41
428.832	2323.59
429.039	2294.92
429.247	2329.74
429.454	2452.61
429.662	2622.59
429.869	2512
430.076	2573.44
430.284	2548.87
430.491	2704.51
430.699	2942.08
430.906	2815.1
431.114	2991.23
431.321	3021.95
431.528	3114.11
431.736	3279.99
431.943	3497.08
432.15	3345.53
432.358	3265.66
432.565	3681.39
432.772	3519.6
432.979	3796.08
433.187	3708.02
433.394	3810.42
433.601	3865.71
433.808	3980.4
434.016	3910.77
434.223	4179.05
434.43	4412.52
434.637	4471.91
434.844	4613.22
435.052	4510.82
435.259	4781.15
435.466	4818.02
435.673	4621.41
435.88	4838.5
436.087	5182.56
436.294	5313.63
436.501	5039.2
436.708	5260.38
436.915	5463.13
437.122	5706.84
437.329	5741.65
437.537	5866.58
437.743	5991.5
437.95	5866.58
438.157	6282.31
438.364	6417.48
438.571	6433.86
438.778	6554.69
438.985	6978.62
439.192	6763.59
439.399	6978.62
439.606	6857.79
439.813	7058.49
440.02	7670.84
440.227	7437.37
440.433	7316.54
440.64	7623.73
440.847	7670.84
441.054	7951.41
441.261	8340.52
441.467	8320.04
441.674	8498.22
441.881	8621.1
442.088	8662.05
442.294	8510.5
442.501	8793.12
442.708	9169.95
442.914	9309.21
443.121	9788.44
443.328	9419.8
443.534	10290.19
443.741	9958.42
443.948	9638.94
444.154	10494.99
444.361	10546.19
444.568	10415.12
444.774	10435.6
444.981	10791.94
445.187	10986.5
445.394	11420.67
445.6	11219.97
445.807	12518.38
446.013	11723.77
446.22	12047.35
446.426	12473.32
446.633	12735.46
446.839	13253.6
447.046	12686.31
447.252	13237.22
447.459	13384.67
447.665	13192.16
447.871	14083.03
448.078	14308.3
448.284	13681.63
448.491	14377.94
448.697	14650.32
448.903	14740.43
449.11	15055.81
449.316	14914.5
449.522	15158.21
449.728	15614.91
449.935	15868.86
450.141	15645.63
450.347	15989.69
450.553	15518.65
450.76	15668.16
450.966	16208.82
451.172	16036.79
451.378	16313.27
451.584	16169.91
451.791	16565.17
451.997	16569.26
452.203	16751.53
452.409	16677.8
452.615	16638.89
452.821	16149.43
453.027	15938.49
453.233	16769.96
453.44	15903.67
453.646	16462.77
453.852	16294.83
454.058	16855.98
454.264	16032.69
454.47	16425.9
454.676	16065.46
454.882	16595.89
455.088	15186.88
455.294	15598.52
455.5	15619
455.705	15854.52
455.911	14889.93
456.117	14721.99
456.323	14500.81
456.529	14121.94
456.735	14418.89
456.941	14281.68
457.147	13890.52
457.352	13179.87
457.558	13356
457.764	13468.64
457.97	12944.36
458.176	12891.11
458.381	12616.68
458.587	12162.03
458.793	12084.21
458.999	11432.96
459.204	12280.82
459.41	12018.68
459.616	11158.53
459.821	11076.61
460.027	11111.43
460.233	10982.4
460.438	10421.26
460.644	10503.18
460.85	10224.65
461.055	9821.2
461.261	9956.37
461.466	9227.29
461.672	8883.24
461.878	9303.07
462.083	8768.55
462.289	8582.18
462.494	8494.12
462.7	8238.12
462.905	7928.88
463.111	8346.67
463.316	8272.94
463.522	8145.97
463.727	8008.75
463.932	8178.73
464.138	8242.22
464.343	8105.01
464.549	7926.83
464.754	8035.38
464.959	8006.7
465.165	8162.35
465.37	7728.18
465.575	7545.91
465.781	7820.34
465.986	7771.19
466.191	7550.01
466.397	7459.9
466.602	7097.41
466.807	7142.46
467.012	7248.96
467.218	7281.72
467.423	7273.53
467.628	7324.73
467.833	7490.62
468.038	7218.24
468.244	7087.17
468.449	7394.36
468.654	7068.73
468.859	6886.47
469.064	6976.58
469.269	6655.05
469.474	6642.76
469.679	6949.95
469.885	6700.1
470.09	6929.47
470.295	6728.77
470.5	6589.51
470.705	6616.13
470.91	6343.75
471.115	6491.21
471.32	6507.59
471.525	6706.24
471.73	6374.47
471.935	6327.37
472.139	6034.51
472.344	6259.79
472.549	6091.85
472.754	6040.65
472.959	5878.86
473.164	5780.56
473.369	5862.48
473.574	6143.05
473.778	5778.51
473.983	5801.04
474.188	5942.35
474.393	5606.49
474.598	5547.09
474.802	5563.48
475.007	5424.22
475.212	5616.72
475.417	5319.77
475.621	5346.39
475.826	5413.98
476.031	5182.56
476.235	5088.35
476.44	5280.86
476.645	5084.25
476.849	5076.06
477.054	5022.81
477.259	4887.65
477.463	5035.1
477.668	4768.87
477.872	4850.78
478.077	4666.47
478.282	4516.97
478.486	4539.49
478.691	4695.14
478.895	4539.49
479.1	4645.99
479.304	4551.78
479.509	4346.98
479.713	4584.55
479.918	4416.62
480.122	4308.07
480.326	4449.38
480.531	4541.54
480.735	4361.32
480.94	4328.55
481.144	4488.29
481.348	4244.59
481.553	4209.77
481.757	4263.02
481.961	4224.11
482.166	4414.57
482.37	4197.48
482.574	4209.77
482.778	4314.22
482.983	4301.93
483.187	4322.41
483.391	4275.31
483.595	4263.02
483.8	4246.63
484.004	4326.5
484.208	4209.77
484.412	4287.59
484.616	4295.79
484.821	4418.66
485.025	4193.39
485.229	4244.59
485.433	4295.79
485.637	4199.53
485.841	4359.27
486.045	4185.19
486.249	4224.11
486.453	4181.1
486.657	4242.54
486.861	4260.97
487.065	4174.95
487.269	4222.06
487.473	4150.38
487.677	4285.55
487.881	4232.3
488.085	4299.88
488.289	4340.84
488.493	4312.17
488.697	4465.77
488.901	4326.5
489.105	4344.94
489.309	4209.77
489.512	4344.94
489.716	4328.55
489.92	4279.4
490.124	4342.89
490.328	4529.25
490.531	4367.46
490.735	4365.42
490.939	4426.86
491.143	4494.44
491.346	4428.9
491.55	4600.93
491.754	4422.76
491.958	4519.01
492.161	4521.06
492.365	4443.24
492.569	4537.45
492.772	4533.35
492.976	4543.59
493.18	4617.32
493.383	4734.05
493.587	4645.99
493.79	4787.3
493.994	4539.49
494.197	4648.04
494.401	4877.41
494.605	4807.78
494.808	4809.83
495.012	4869.22
495.215	4928.61
495.419	5071.97
495.622	4963.42
495.825	5063.77
496.029	5037.15
496.232	5260.38
496.436	5153.88
496.639	5207.13
496.843	5215.32
497.046	5307.48
497.249	5520.47
497.453	5442.65
497.656	5547.09
497.859	5375.06
498.063	5653.59
498.266	5760.08
498.469	5622.87
498.673	5696.6
498.876	5731.41
499.079	5805.14
499.282	5872.72
499.485	5954.64
499.689	6186.06
499.892	6054.99
500.095	6136.91
500.298	6528.07
500.501	6151.24
500.705	6370.38
500.908	6585.41
501.111	6597.7
501.314	6583.37
501.517	6720.58
501.72	6548.55
501.923	6624.33
502.126	7013.44
502.329	6999.1
502.532	7074.88
502.735	7300.16
502.938	7271.48
503.141	7255.1
503.344	7476.28
503.547	7414.84
503.75	7439.42
503.953	7658.55
504.156	7775.28
504.359	7695.41
504.562	7859.25
504.765	8096.82
504.968	8184.88
505.17	8260.65
505.373	8156.21
505.576	8166.45
505.779	8612.9
505.982	8401.96
506.185	8762.4
506.387	8715.3
506.59	8991.78
506.793	9012.26
506.996	9016.35
507.198	9358.36
507.401	9094.18
507.604	9122.85
507.807	9464.86
508.009	9661.46
508.212	9620.5
508.415	9651.22
508.617	9778.2
508.82	10048.53
509.022	9944.08
509.225	10040.34
509.428	10112.02
509.63	10370.06
509.833	10372.11
510.035	10744.84
510.238	10597.38
510.44	10816.52
510.643	11035.65
510.845	10992.64
511.048	10918.92
511.25	11267.07
511.453	11199.49
511.655	11637.75
511.858	11394.04
512.06	11494.4
512.262	11852.79
512.465	11684.86
512.667	11910.13
512.87	12153.84
513.072	12065.78
513.274	12432.36
513.477	12344.3
513.679	12596.2
513.881	12768.23
514.084	12934.12
514.286	12739.56
514.488	12979.17
514.69	13374.43
514.893	13603.8
515.095	13421.53
515.297	13679.58
515.499	13444.06
515.701	13845.46
515.904	14003.16
516.106	13896.66
516.308	14035.92
516.51	14193.62
516.712	14330.83
516.914	14459.85
517.116	14730.19
517.318	14584.78
517.52	15023.05
517.722	14953.41
517.925	14969.8
518.127	15166.4
518.329	15381.44
518.531	15522.75
518.733	15764.41
518.935	15788.99
519.136	15813.56
519.338	16024.5
519.54	15834.04
519.742	16161.72
519.944	16473.01
520.146	16604.08
520.348	16821.16
520.55	16835.5
520.752	16747.44
520.954	17257.38
521.155	17185.7
521.357	17425.31
521.559	17595.29
521.761	17613.73
521.963	17716.12
522.164	17777.56
522.366	17818.52
522.568	17963.93
522.77	18170.77
522.971	18394
523.173	18293.65
523.375	18437.01
523.576	18373.52
523.778	18420.63
523.98	18736.01
524.181	18789.26
524.383	19133.32
524.584	19215.24
524.786	19207.05
524.988	18961.29
525.189	19288.96
525.391	19530.62
525.592	19927.93
525.794	19635.07
525.995	19735.42
526.197	19921.79
526.398	19770.24
526.6	19913.59
526.801	19866.49
527.003	19934.07
527.204	20030.33
527.406	20093.82
527.607	20257.65
527.808	20286.33
528.01	20116.34
528.211	20108.15
528.412	20616.05
528.614	20308.85
528.815	20513.65
529.016	20661.1
529.218	20566.9
529.419	20568.94
529.62	20697.97
529.822	20749.17
530.023	20441.97
530.224	20724.59
530.425	20835.18
530.626	20392.82
530.828	20491.12
531.029	21095.27
531.23	20753.26
531.431	20548.47
531.632	20972.39
531.833	20951.91
532.035	21171.05
532.236	20968.3
532.437	21252.97
532.638	21173.1
532.839	21177.19
533.04	21310.31
533.241	20988.78
533.442	21392.23
533.643	21539.68
533.844	21123.94
534.045	21070.7
534.246	20835.18
534.447	21187.43
534.648	21349.22
534.849	21275.49
535.05	21377.89
535.251	21056.36
535.451	20980.59
535.652	21334.89
535.853	20908.91
536.054	21316.45
536.255	21166.95
536.456	21050.22
536.657	21463.91
536.857	21158.76
537.058	21185.38
537.259	21312.36
537.46	21203.82
537.66	21308.26
537.861	21295.97
538.062	21222.25
538.263	21199.72
538.463	21238.63
538.664	20939.63
538.865	21140.33
539.065	21379.94
539.266	20972.39
539.466	21332.84
539.667	20939.63
539.868	21314.41
540.068	21414.76
540.269	21224.29
540.469	21371.75
540.67	21185.38
540.87	20984.68
541.071	21214.05
541.271	21277.54
541.472	21082.98
541.672	21130.09
541.873	21119.85
542.073	21029.74
542.274	21349.22
542.474	20933.48
542.675	20974.44
542.875	21226.34
543.075	21158.76
543.276	20892.52
543.476	21228.39
543.676	21205.86
543.877	21091.18
544.077	21328.74
544.277	20972.39
544.478	21191.53
544.678	21169
544.878	21058.41
545.078	21269.35
545.279	20951.91
545.479	20757.36
545.679	21214.05
545.879	20898.67
546.079	21121.9
546.28	21142.38
546.48	21191.53
546.68	20890.48
546.88	21134.18
547.08	21089.13
547.28	20745.07
547.48	20812.65
547.68	20743.02
547.88	20878.19
548.081	21046.12
548.281	21082.98
548.481	20773.74
548.681	20960.11
548.881	20892.52
549.081	20976.49
549.28	20802.41
549.48	20831.08
549.68	20792.17
549.88	21212.01
550.08	21111.66
550.28	21119.85
550.48	20702.06
550.68	21003.11
550.88	20806.51
551.08	20931.44
551.279	20923.24
551.479	20401.01
551.679	20728.69
551.879	20900.72
552.079	21087.08
552.278	20749.17
552.478	20796.27
552.678	20763.5
552.878	20882.28
553.077	20568.94
553.277	20876.14
553.477	20986.73
553.676	20810.61
553.876	20855.66
554.076	20904.81
554.275	20618.1
554.475	20384.63
554.674	20872.04
554.874	20921.2
555.074	20437.87
555.273	20718.45
555.473	20953.96
555.672	20829.04
555.872	20421.49
556.071	20728.69
556.271	20867.95
556.47	20499.31
556.67	20403.06
556.869	20173.69
557.068	20417.4
557.268	20157.3
557.467	20540.27
557.667	20474.74
557.866	20255.61
558.065	20544.37
558.265	20063.1
558.464	20054.9
558.663	20476.79
558.863	19803
559.062	20628.34
559.261	20067.19
559.461	20341.62
559.66	20009.85
559.859	19997.56
560.058	20005.75
560.258	19960.7
560.457	19782.52
560.656	20046.71
560.855	19893.12
561.054	19876.73
561.253	20063.1
561.453	19811.2
561.652	19745.66
561.851	20132.73
562.05	19782.52
562.249	19778.43
562.448	20087.67
562.647	19807.1
562.846	19868.54
563.045	19499.91
563.244	19637.12
563.443	19948.41
563.642	19473.28
563.841	19800.96
564.04	19479.43
564.239	19784.57
564.438	19205
564.637	19520.38
564.836	19604.35
565.035	19346.31
565.234	19579.78
565.432	19524.48
565.631	19219.33
565.83	19381.12
566.029	19088.26
566.228	19088.26
566.427	19510.14
566.625	19196.81
566.824	19010.44
567.023	19323.78
567.222	19037.06
567.42	19385.22
567.619	19094.41
567.818	18940.81
568.016	18971.53
568.215	18959.24
568.414	18826.12
568.612	18742.16
568.811	18758.54
569.01	19043.21
569.208	18621.33
569.407	18717.58
569.605	18471.82
569.804	18629.52
570.002	18520.98
570.201	18514.83
570.4	18455.44
570.598	18424.72
570.797	18451.35
570.995	18563.98
571.193	18240.4
571.392	18338.71
571.59	18092.95
571.789	18135.96
571.987	18254.74
572.186	18125.72
572.384	17982.36
572.582	18162.58
572.781	18002.84
572.979	17965.98
573.177	17955.74
573.376	17998.74
573.574	17525.66
573.772	17965.98
573.971	17632.16
574.169	17654.69
574.367	17742.75
574.565	17781.66
574.763	17410.98
574.962	17589.15
575.16	17343.39
575.358	17634.21
575.556	17195.94
575.754	17595.29
575.952	17230.76
576.151	17634.21
576.349	17349.54
576.547	17003.43
576.745	17087.4
576.943	16974.76
577.141	17095.59
577.339	16991.14
577.537	16946.09
577.735	16946.09
577.933	16694.19
578.131	16868.27
578.329	16622.51
578.527	16501.68
578.725	16812.97
578.923	16729
579.121	16571.31
579.319	16632.75
579.516	16796.59
579.714	16651.18
579.912	16599.98
580.11	16544.69
580.308	16618.41
580.506	16556.97
580.704	16268.21
580.901	16556.97
581.099	16589.74
581.297	16212.92
581.495	16180.15
581.692	16436.14
581.89	16298.93
582.088	16120.76
582.285	15838.14
582.483	16266.16
582.681	15881.14
582.878	16057.27
583.076	15807.42
583.274	16165.81
583.471	15772.6
583.669	15838.14
583.866	15778.75
584.064	15741.88
584.262	15666.11
584.459	15774.65
584.657	15479.74
584.854	15657.92
585.052	15590.33
585.249	15238.08
585.447	15496.13
585.644	15283.14
585.841	15317.95
586.039	15279.04
586.236	15252.42
586.434	15373.25
586.631	15129.54
586.828	15201.22
587.026	15082.44
587.223	15031.24
587.42	15266.75
587.618	15041.48
587.815	14904.26
588.012	14898.12
588.21	14603.21
588.407	15150.02
588.604	14535.63
588.801	14422.99
588.999	14902.22
589.196	14543.82
589.393	14676.94
589.59	14605.26
589.787	14404.56
589.984	14586.83
590.182	14257.11
590.379	14379.98
590.576	14359.5
590.773	14343.12
590.97	14199.76
591.167	14377.94
591.364	14017.49
591.561	14281.68
591.758	13911
591.955	13925.33
592.152	14306.26
592.349	13915.09
592.546	13878.23
592.743	13939.67
592.94	13702.11
593.137	13802.46
593.334	13925.33
593.531	13741.02
593.727	13525.98
593.924	13628.38
594.121	13775.83
594.318	13595.61
594.515	13616.09
594.712	13710.3
594.908	13634.52
595.105	13634.52
595.302	13351.9
595.499	13386.72
595.696	13550.56
595.892	13210.59
596.089	13460.45
596.286	13241.31
596.482	13206.5
596.679	13194.21
596.876	13063.14
597.072	12977.12
597.269	13231.07
597.466	12846.05
597.662	12815.34
597.859	13095.91
598.055	13153.25
598.252	12833.77
598.448	12852.2
598.645	13020.13
598.841	12735.46
599.038	12866.53
599.234	12747.75
599.431	12526.57
599.627	12372.97
599.824	12727.27
600.02	12639.21
600.217	12526.57
600.413	12547.05
600.609	12461.04
600.806	12303.34
601.002	12395.5
601.198	12190.7
601.395	12157.94
601.591	12368.88
601.787	12055.54
601.984	12006.39
602.18	12268.53
602.376	11971.57
602.572	11944.95
602.769	11891.7
602.965	12071.92
603.161	11826.17
603.357	12000.24
603.553	11926.52
603.75	11965.43
603.946	11885.56
604.142	11799.54
604.338	11541.5
604.534	11676.66
604.73	11652.09
604.926	11559.93
605.122	11666.42
605.318	11521.02
605.514	11437.05
605.71	11185.15
605.906	11543.55
606.102	11346.94
606.298	11535.35
606.494	11246.59
606.69	11174.91
606.886	11328.51
607.082	11142.14
607.278	11396.09
607.474	10994.69
607.67	11158.53
607.866	10974.21
608.062	11006.98
608.257	11086.85
608.453	10916.87
608.649	10953.73
608.845	10982.4
609.041	10824.71
609.236	11101.19
609.432	11000.83
609.628	10867.72
609.824	10798.09
610.019	11035.65
610.215	10990.59
610.411	10812.42
610.606	10744.84
610.802	10906.63
610.998	10554.38
611.193	10765.32
611.389	10765.32
611.584	10597.38
611.78	10679.3
611.976	10728.45
612.171	10615.82
612.367	10646.54
612.562	10472.46
612.758	10294.29
612.953	10417.16
613.149	10560.52
613.344	10353.68
613.539	10421.26
613.735	10351.63
613.93	10378.25
614.126	10372.11
614.321	10384.4
614.517	10284.05
614.712	10144.78
614.907	10372.11
615.103	10165.26
615.298	10081.3
615.493	10298.38
615.688	10224.65
615.884	10425.36
616.079	10040.34
616.274	10109.97
616.47	10128.4
616.665	10036.24
616.86	9911.32
617.055	9964.56
617.25	9995.28
617.445	10052.63
617.641	9856.02
617.836	9962.51
618.031	9989.14
618.226	9796.63
618.421	9763.86
618.616	10028.05
618.811	9896.98
619.006	9882.64
619.201	9589.78
619.396	9739.29
619.591	9698.33
619.786	9571.35
619.981	9397.28
620.176	9346.08
620.371	9448.47
620.566	9452.57
620.761	9341.98
620.956	9647.13
621.151	9100.32
621.346	9391.13
621.541	9143.33
621.735	9081.89
621.93	9067.55
622.125	9137.18
622.32	8979.49
622.515	8993.83
622.709	8827.94
622.904	9030.69
623.099	8782.88
623.294	8936.48
623.488	8731.69
623.683	8819.75
623.878	8598.57
624.072	8547.37
624.267	8557.61
624.462	8588.33
624.656	8318
624.851	8639.53
625.046	8471.59
625.24	8322.09
625.435	8254.51
625.629	8172.59
625.824	8358.96
626.018	8383.53
626.213	7969.84
626.407	8164.4
626.602	8102.96
626.796	8043.57
626.991	7990.32
627.185	8008.75
627.38	7947.31
627.574	7844.91
627.768	7908.4
627.963	7734.32
628.157	7832.63
628.352	7836.72
628.546	7590.97
628.74	7724.08
628.935	7601.21
629.129	7654.45
629.323	7375.93
629.517	7341.11
629.712	7326.78
629.906	7441.47
630.1	7158.85
630.294	7320.63
630.489	7130.17
630.683	7345.21
630.877	7115.84
631.071	6939.71
631.265	7253.05
631.459	7031.87
631.653	6884.42
631.848	7064.64
632.042	7001.15
632.236	6947.9
632.43	6882.37
632.624	6827.07
632.818	6960.19
633.012	6599.75
633.206	6794.31
633.4	6847.55
633.594	6534.21
633.788	6665.28
633.982	6515.78
634.176	6626.37
634.369	6523.98
634.563	6448.2
634.757	6468.68
634.951	6437.96
635.145	6399.05
635.339	6296.65
635.533	6554.69
635.726	6368.33
635.92	6194.25
636.114	6259.79
636.308	6267.98
636.501	6198.35
636.695	6130.77
636.889	6169.68
637.083	6112.33
637.276	6120.53
637.47	5960.78
637.664	6036.56
637.857	5973.07
638.051	5749.84
638.244	5825.62
638.438	5829.71
638.632	5876.82
638.825	5844.05
639.019	5616.72
639.212	5719.12
639.406	5725.27
639.599	5698.64
639.793	5557.33
639.986	5596.25
640.18	5522.52
640.373	5594.2
640.567	5604.44
640.76	5422.17
640.954	5272.67
641.147	5379.16
641.34	5350.49
641.534	5491.8
641.727	5379.16
641.92	5379.16
642.114	5284.95
642.307	5127.26
642.5	5323.87
642.694	5272.67
642.887	5223.51
643.08	5147.74
643.273	5149.79
643.467	5094.49
643.66	4990.05
643.853	5026.91
644.046	4947.04
644.239	5221.47
644.432	5037.15
644.626	4883.55
644.819	4764.77
645.012	4795.49
645.205	4844.64
645.398	4807.78
645.591	4834.4
645.784	4871.26
645.977	4750.43
646.17	4637.8
646.363	4715.62
646.556	4547.69
646.749	4682.85
646.942	4727.91
647.135	4512.87
647.328	4478.05
647.521	4521.06
647.714	4535.4
647.907	4543.59
648.099	4445.29
648.292	4537.45
648.485	4447.33
648.678	4351.08
648.871	4349.03
649.064	4383.85
649.256	4289.64
649.449	4254.83
649.642	4265.07
649.835	4136.04
650.027	4236.39
650.22	4117.61
650.413	4252.78
650.605	4238.44
650.798	4164.72
650.991	4121.71
651.183	4072.56
651.376	4029.55
651.568	4035.69
651.761	3927.15
651.954	3925.1
652.146	4009.07
652.339	3964.01
652.531	3867.76
652.724	3992.69
652.916	3789.94
653.109	3941.49
653.301	3896.43
653.494	3861.62
653.686	3716.21
653.879	3843.18
654.071	3888.24
654.263	3748.98
654.456	3759.22
654.648	3841.14
654.84	3601.52
655.033	3748.98
655.225	3542.13
655.417	3646.58
655.61	3531.89
655.802	3671.15
655.994	3650.67
656.186	3564.66
656.379	3441.78
656.571	3540.08
656.763	3396.73
656.955	3470.45
657.148	3517.56
657.34	3480.69
657.532	3452.02
657.724	3312.76
657.916	3378.3
658.108	3333.24
658.3	3421.3
658.492	3196.03
658.684	3331.19
658.876	3290.23
659.068	3271.8
659.26	3226.75
659.452	3130.49
659.644	3067
659.836	3167.35
660.028	3163.26
660.22	3105.92
660.412	2972.8
660.604	3118.2
660.796	2966.65
660.988	3069.05
661.18	2991.23
661.372	2970.75
661.563	3126.39
661.755	3003.52
661.947	2933.89
662.139	2811.01
662.331	2829.44
662.522	2903.17
662.714	2845.82
662.906	2999.42
663.097	2835.58
663.289	2827.39
663.481	2815.1
663.673	2772.1
663.864	2808.96
664.056	2669.7
664.247	2763.9
664.439	2722.95
664.631	2702.47
664.822	2643.07
665.014	2745.47
665.205	2733.18
665.397	2620.55
665.588	2677.89
665.78	2624.64
665.971	2614.4
666.163	2610.31
666.354	2630.79
666.546	2499.72
666.737	2528.39
666.929	2632.83
667.12	2534.53
667.311	2487.43
667.503	2514.05
667.694	2530.44
667.885	2401.41
668.077	2473.09
668.268	2497.67
668.459	2466.95
668.651	2485.38
668.842	2415.75
669.033	2313.35
669.224	2385.03
669.416	2315.4
669.607	2376.84
669.798	2303.11
669.989	2419.85
670.18	2315.4
670.371	2215.05
670.563	2258.06
670.754	2303.11
670.945	2198.67
671.136	2231.43
671.327	2172.04
671.518	2321.54
671.709	2200.71
671.9	2264.2
672.091	2167.95
672.282	2325.64
672.473	2161.8
672.664	2153.61
672.855	2198.67
673.046	2196.62
673.237	2241.67
673.428	2126.99
673.619	2110.6
673.809	2176.14
674	2083.98
674.191	2200.71
674.382	2057.36
674.573	2188.43
674.764	2106.51
674.954	2081.93
675.145	2151.56
675.336	1993.87
675.527	1973.39
675.717	2079.88
675.908	2006.16
676.099	2057.36
676.289	2061.45
676.48	2000.01
676.671	1977.48
676.861	1995.92
677.052	1965.2
677.243	2049.16
677.433	2040.97
677.624	1961.1
677.814	2002.06
678.005	2053.26
678.195	1985.68
678.386	1989.77
678.576	1928.33
678.767	1987.72
678.957	1977.48
679.148	2002.06
679.338	2018.44
679.529	1885.33
679.719	1942.67
679.909	1983.63
680.1	1862.8
680.29	1914
680.481	1914
680.671	1920.14
680.861	1911.95
681.052	1926.29
681.242	1827.98
681.432	1897.61
681.622	1803.41
681.813	1918.09
682.003	1952.91
682.193	1928.33
682.383	1897.61
682.573	1860.75
682.764	1834.13
682.954	1926.29
683.144	1870.99
683.334	1787.02
683.524	1846.41
683.714	1836.17
683.904	1832.08
684.094	1854.61
684.284	1762.45
684.474	1948.81
684.664	1885.33
684.854	1819.79
685.044	1817.74
685.234	1848.46
685.424	1780.88
685.614	1842.32
685.804	1836.17
685.994	1776.78
686.184	1868.94
686.374	1774.74
686.564	1836.17
686.753	1696.91
686.943	1770.64
687.133	1703.06
687.323	1680.53
687.513	1674.39
687.702	1811.6
687.892	1655.95
688.082	1780.88
688.272	1713.3
688.461	1703.06
688.651	1696.91
688.841	1688.72
689.03	1721.49
689.22	1678.48
689.41	1768.59
689.599	1715.34
689.789	1707.15
689.979	1731.73
690.168	1592.47
690.358	1590.42
690.547	1643.67
690.737	1684.62
690.926	1662.1
691.116	1582.23
691.305	1612.95
691.495	1651.86
691.684	1602.71
691.874	1625.23
692.063	1576.08
692.252	1647.76
692.442	1526.93
692.631	1520.79
692.82	1621.14
693.01	1490.07
693.199	1623.19
693.388	1553.55
693.578	1539.22
693.767	1543.32
693.956	1518.74
694.146	1594.51
694.335	1539.22
694.524	1641.62
694.713	1545.36
694.902	1635.47
695.092	1580.18
695.281	1442.96
695.47	1555.6
695.659	1531.03
695.848	1455.25
696.037	1471.64
696.226	1524.88
696.415	1537.17
696.604	1590.42
696.793	1551.51
696.982	1483.92
697.171	1557.65
697.36	1488.02
697.549	1524.88
697.738	1445.01
697.927	1592.47
698.116	1438.87
698.305	1416.34
698.494	1500.31
698.683	1553.55
698.872	1451.16
699.061	1471.64
699.25	1412.25
699.438	1430.68
699.627	1404.05
699.816	1330.33
700.005	1363.09
700.193	1461.4
700.382	1375.38
700.571	1324.18
700.76	1408.15
700.948	1426.58
701.137	1447.06
701.326	1363.09
701.514	1330.33
701.703	1324.18
701.892	1455.25
702.08	1356.95
702.269	1426.58
702.457	1387.67
702.646	1434.77
702.834	1330.33
703.023	1404.05
703.212	1418.39
703.4	1238.17
703.589	1385.62
703.777	1320.09
703.965	1293.46
704.154	1344.66
704.342	1402.01
704.531	1318.04
704.719	1354.9
704.907	1334.42
705.096	1475.73
705.284	1303.7
705.472	1301.65
705.661	1295.51
705.849	1266.84
706.037	1229.98
706.226	1375.38
706.414	1322.13
706.602	1311.89
706.79	1385.62
706.979	1297.56
707.167	1424.53
707.355	1363.09
707.543	1285.27
707.731	1336.47
707.919	1313.94
708.107	1340.57
708.296	1270.94
708.484	1182.87
708.672	1283.22
708.86	1211.54
709.048	1277.08
709.236	1344.66
709.424	1213.59
709.612	1281.18
709.8	1287.32
709.988	1301.65
710.176	1244.31
710.364	1213.59
710.551	1266.84
710.739	1186.97
710.927	1168.54
711.115	1254.55
711.303	1180.82
711.491	1189.02
711.679	1170.58
711.866	1209.5
712.054	1109.15
712.242	1238.17
712.43	1297.56
712.617	1238.17
712.805	1195.16
712.993	1275.03
713.181	1336.47
713.368	1143.96
713.556	1166.49
713.744	1205.4
713.931	1182.87
714.119	1164.44
714.306	1176.73
714.494	1092.76
714.682	1258.65
714.869	1131.67
715.057	1098.91
715.244	1051.8
715.432	1105.05
715.619	1232.02
715.807	1182.87
715.994	1223.83
716.182	1227.93
716.369	1133.72
716.556	1160.34
716.744	1103
716.931	1082.52
717.119	1080.47
717.306	1123.48
717.493	1096.86
717.681	1084.57
717.868	1029.27
718.055	1150.11
718.242	1088.67
718.43	1078.43
718.617	1068.19
718.804	1189.02
718.991	1088.67
719.179	1051.8
719.366	1076.38
719.553	1148.06
719.74	1019.04
719.927	1135.77
720.114	1055.9
720.301	1117.34
720.488	1006.75
720.676	1074.33
720.863	1053.85
721.05	1105.05
721.237	1094.81
721.424	1084.57
721.611	1148.06
721.798	1062.04
721.985	1068.19
722.172	1029.27
722.358	1146.01
722.545	1029.27
722.732	1082.52
722.919	1010.84
723.106	1111.19
723.293	1068.19
723.48	1068.19
723.667	1068.19
723.853	978.08
724.04	1098.91
724.227	992.41
724.414	1090.71
724.6	1055.9
724.787	1029.27
724.974	1070.23
725.161	978.08
725.347	1037.47
725.534	1051.8
725.72	1019.04
725.907	1094.81
726.094	1012.89
726.28	1029.27
726.467	1086.62
726.653	1051.8
726.84	1045.66
727.027	1096.86
727.213	1062.04
727.4	984.22
727.586	1115.29
727.773	1031.32
727.959	1016.99
728.145	1010.84
728.332	1049.75
728.518	1090.71
728.705	1062.04
728.891	1025.18
729.077	1000.6
729.264	1082.52
729.45	1027.23
729.636	1062.04
729.823	1016.99
730.009	1002.65
730.195	1062.04
730.382	1029.27
730.568	1049.75
730.754	1043.61
730.94	976.03
731.126	1035.42
731.313	1119.39
731.499	1014.94
731.685	1014.94
731.871	1031.32
732.057	1053.85
732.243	1008.8
732.429	1000.6
732.615	1053.85
732.801	1098.91
732.987	1043.61
733.173	1008.8
733.359	1021.08
733.545	961.69
733.731	1008.8
733.917	957.6
734.103	928.92
734.289	1025.18
734.475	1027.23
734.661	1012.89
734.847	996.51
735.033	1031.32
735.219	904.35
735.404	1025.18
735.59	1078.43
735.776	990.36
735.962	887.97
736.148	1088.67
736.333	904.35
736.519	967.84
736.705	914.59
736.89	914.59
737.076	851.1
737.262	1002.65
737.447	992.41
737.633	982.17
737.819	969.88
738.004	971.93
738.19	943.26
738.375	949.4
738.561	863.39
738.747	1084.57
738.932	986.27
739.118	920.73
739.303	869.53
739.489	1006.75
739.674	928.92
739.859	961.69
740.045	982.17
740.23	949.4
740.416	988.32
740.601	920.73
740.786	890.01
740.972	898.2
741.157	951.45
741.342	953.5
741.528	857.25
741.713	933.02
741.898	906.4
742.084	894.11
742.269	918.68
742.454	869.53
742.639	949.4
742.824	924.83
743.01	883.87
743.195	920.73
743.38	924.83
743.565	933.02
743.75	976.03
743.935	847.01
744.12	834.72
744.305	937.12
744.49	904.35
744.675	844.96
744.86	814.24
745.045	808.09
745.23	836.77
745.415	865.44
745.6	918.68
745.785	871.58
745.97	853.15
746.155	922.78
746.34	898.2
746.525	890.01
746.71	867.49
746.895	820.38
747.079	806.05
747.264	822.43
747.449	851.1
747.634	918.68
747.819	787.61
748.003	859.29
748.188	801.95
748.373	867.49
748.557	799.9
748.742	769.18
748.927	781.47
749.111	814.24
749.296	859.29
749.481	789.66
749.665	869.53
749.85	760.99
750.034	793.76
750.219	752.8
750.404	771.23
750.588	726.18
750.773	724.13
750.957	810.14
751.141	777.37
751.326	838.81
751.51	711.84
751.695	740.51
751.879	670.88
752.064	720.03
752.248	709.79
752.432	720.03
752.617	756.9
752.801	785.57
752.985	765.09
753.17	683.17
753.354	648.35
753.538	701.6
753.722	720.03
753.907	754.85
754.091	697.5
754.275	730.27
754.459	664.74
754.643	683.17
754.828	654.5
755.012	701.6
755.196	656.54
755.38	605.35
755.564	595.11
755.748	625.83
755.932	636.06
756.116	677.02
756.3	638.11
756.484	621.73
756.668	631.97
756.852	615.59
757.036	593.06
757.22	558.24
757.404	560.29
757.588	634.02
757.772	607.39
757.956	613.54
758.14	636.06
758.323	625.83
758.507	564.39
758.691	582.82
758.875	525.47
759.059	736.42
759.242	509.09
759.426	588.96
759.61	543.91
759.794	576.67
759.977	486.56
760.161	566.43
760.345	480.42
760.528	468.13
760.712	556.19
760.895	529.57
761.079	517.28
761.263	611.49
761.446	550.05
761.63	476.32
761.813	558.24
761.997	515.23
762.18	539.81
762.364	533.67
762.547	482.47
762.731	539.81
762.914	531.62
763.098	468.13
763.281	486.56
763.464	603.3
763.648	523.43
763.831	539.81
764.015	535.71
764.198	566.43
764.381	447.65
764.564	591.01
764.748	447.65
764.931	502.95
765.114	533.67
765.297	414.88
765.481	509.09
765.664	449.7
765.847	484.52
766.03	449.7
766.213	502.95
766.397	509.09
766.58	492.71
766.763	507.04
766.946	496.8
767.129	476.32
767.312	466.08
767.495	447.65
767.678	447.65
767.861	439.46
768.044	507.04
768.227	539.81
768.41	484.52
768.593	494.76
768.776	423.08
768.959	447.65
769.142	545.95
769.324	351.4
769.507	443.56
769.69	449.7
769.873	429.22
770.056	427.17
770.239	468.13
770.421	488.61
770.604	498.85
770.787	490.66
770.97	468.13
771.152	406.69
771.335	425.12
771.518	439.46
771.7	451.75
771.883	330.92
772.066	361.64
772.248	410.79
772.431	480.42
772.613	459.94
772.796	365.73
772.978	388.26
773.161	418.98
773.343	335.01
773.526	427.17
773.708	421.03
773.891	353.45
774.073	431.27
774.256	380.07
774.438	427.17
774.621	398.5
774.803	410.79
774.985	427.17
775.168	367.78
775.35	330.92
775.532	361.64
775.715	355.49
775.897	365.73
776.079	427.17
776.261	451.75
776.444	386.21
776.626	388.26
776.808	322.73
776.99	466.08
777.173	320.68
777.355	322.73
777.537	341.16
777.719	320.68
777.901	326.82
778.083	304.29
778.265	345.25
778.447	357.54
778.629	281.77
778.811	365.73
778.993	316.58
779.175	298.15
779.357	279.72
779.539	255.14
779.721	341.16
779.903	302.25
780.085	275.62
780.267	312.49
780.449	210.09
780.631	332.97
780.812	267.43
780.994	322.73
781.176	292.01
781.358	330.92
781.54	279.72
781.721	351.4
781.903	300.2
782.085	238.76
782.267	298.15
782.448	380.07
782.63	316.58
782.812	224.42
782.993	322.73
783.175	253.09
783.357	238.76
783.538	259.24
783.72	242.85
783.901	193.7
784.083	267.43
784.264	205.99
784.446	175.27
784.627	201.9
784.809	238.76
784.99	249
785.172	279.72
785.353	257.19
785.535	265.38
785.716	234.66
785.897	173.22
786.079	232.62
786.26	132.26
786.441	244.9
786.623	224.42
786.804	238.76
786.985	224.42
787.167	218.28
787.348	271.53
787.529	181.42
787.71	265.38
787.891	162.98
788.073	144.55
788.254	228.52
788.435	265.38
788.616	173.22
788.797	203.94
788.978	210.09
789.159	156.84
789.34	230.57
789.522	136.36
789.703	242.85
789.884	234.66
790.065	259.24
790.246	128.17
790.427	191.66
790.607	187.56
790.788	259.24
790.969	181.42
791.15	218.28
791.331	271.53
791.512	144.55
791.693	185.51
791.874	263.33
792.054	165.03
792.235	177.32
792.416	173.22
792.597	167.08
792.778	193.7
792.958	146.6
793.139	167.08
793.32	165.03
793.5	189.61
793.681	165.03
793.862	160.94
794.042	216.23
794.223	109.74
794.404	93.35
794.584	191.66
794.765	175.27
794.945	115.88
795.126	177.32
795.306	236.71
795.487	167.08
795.667	197.8
795.848	183.46
796.028	76.97
796.209	152.74
796.389	156.84
796.57	205.99
796.75	197.8
796.93	175.27
797.111	183.46
797.291	128.17
797.471	154.79
797.652	150.7
797.832	72.87
798.012	169.13
798.192	105.64
798.373	79.02
798.553	126.12
798.733	210.09
798.913	107.69
799.093	169.13
799.274	146.6
799.454	105.64
799.634	169.13
799.814	70.83
799.994	165.03
800.174	193.7
800.354	162.98
800.534	136.36
800.714	117.93
800.894	105.64
801.074	142.5
801.254	124.07
801.434	113.83
801.614	76.97
801.794	167.08
801.974	349.35
802.154	113.83
802.334	156.84
802.514	185.51
802.693	138.41
802.873	103.59
803.053	124.07
803.233	19.63
803.413	83.11
803.592	42.15
803.772	27.82
803.952	95.4
804.131	156.84
804.311	144.55
804.491	162.98
804.67	99.5
804.85	50.35
805.03	189.61
805.209	169.13
805.389	150.7
805.568	76.97
805.748	115.88
805.928	138.41
806.107	111.78
806.287	64.68
806.466	148.65
806.646	117.93
806.825	66.73
807.004	128.17
807.184	152.74
807.363	113.83
807.543	105.64
807.722	134.31
807.901	124.07
808.081	99.5
808.26	70.83
808.439	40.11
808.619	25.77
808.798	171.18
808.977	68.78
809.156	76.97
809.336	119.98
809.515	144.55
809.694	132.26
809.873	54.44
810.052	115.88
810.231	60.59
810.411	148.65
810.59	68.78
810.769	68.78
810.948	154.79
811.127	36.01
811.306	117.93
811.485	38.06
811.664	83.11
811.843	48.3
812.022	111.78
812.201	109.74
812.38	25.77
812.559	111.78
812.737	74.92
812.916	52.39
813.095	42.15
813.274	152.74
813.453	60.59
813.632	122.02
813.811	89.26
813.989	50.35
814.168	31.91
814.347	93.35
814.526	83.11
814.704	66.73
814.883	158.89
815.062	58.54
815.24	148.65
815.419	23.72
815.598	66.73
815.776	83.11
815.955	113.83
816.133	91.31
816.312	107.69
816.49	101.55
816.669	103.59
816.847	117.93
817.026	130.22
817.204	101.55
817.383	79.02
817.561	7.34
817.74	107.69
817.918	134.31
818.097	1.19
818.275	15.53
818.453	177.32
818.632	156.84
818.81	76.97
818.988	68.78
819.167	62.63
819.345	58.54
819.523	117.93
819.701	44.2
819.879	130.22
820.058	74.92
820.236	56.49
820.414	95.4
820.592	-9.05
820.77	68.78
820.948	85.16
821.127	140.46
821.305	101.55
821.483	54.44
821.661	173.22
821.839	140.46
822.017	36.01
822.195	44.2
822.373	44.2
822.551	58.54
822.729	13.48
822.907	25.77
823.085	103.59
823.262	36.01
823.44	52.39
823.618	27.82
823.796	54.44
823.974	56.49
824.152	-43.86
824.329	-2.9
824.507	-7
824.685	87.21
824.863	33.96
825.04	111.78
825.218	52.39
825.396	136.36
825.574	138.41
825.751	21.67
825.929	48.3
826.107	64.68
826.284	144.55
826.462	66.73
826.639	85.16
826.817	46.25
826.994	130.22
827.172	-4.95
827.349	42.15
827.527	29.87
827.704	76.97
827.882	117.93
828.059	58.54
828.237	25.77
828.414	54.44
828.591	-13.14
828.769	113.83
828.946	38.06
829.124	46.25
829.301	7.34
829.478	66.73
829.655	87.21
829.833	60.59
830.01	-2.9
830.187	70.83
830.364	42.15
830.542	70.83
830.719	33.96
830.896	64.68
831.073	-39.76
831.25	52.39
831.427	54.44
831.604	99.5
831.782	17.58
831.959	50.35
832.136	50.35
832.313	33.96
832.49	31.91
832.667	83.11
832.844	23.72
833.021	27.82
833.198	13.48
833.374	50.35
833.551	36.01
833.728	58.54
833.905	5.29
834.082	66.73
834.259	72.87
834.436	72.87
834.612	68.78
834.789	76.97
834.966	13.48
835.143	74.92
835.319	-21.33
835.496	5.29
835.673	97.45
835.85	136.36
836.026	9.39
836.203	66.73
836.38	60.59
836.556	36.01
836.733	-64.34
836.909	50.35
837.086	46.25
837.262	27.82
837.439	42.15
837.616	-7
837.792	-60.24
837.968	66.73
838.145	99.5
838.321	-15.19
838.498	56.49
838.674	33.96
838.851	62.63
839.027	11.43
839.203	58.54
839.38	-45.91
839.556	17.58
839.732	60.59
839.909	15.53
840.085	36.01
840.261	52.39
840.437	68.78
840.614	46.25
840.79	7.34
840.966	-7
841.142	66.73
841.318	50.35
841.494	93.35
841.671	9.39
841.847	66.73
842.023	-0.85
842.199	-54.1
842.375	76.97
842.551	19.63
842.727	-4.95
842.903	25.77
843.079	-11.09
843.255	-23.38
843.431	1.19
843.607	72.87
843.783	-41.81
843.959	-70.48
844.134	25.77
844.31	54.44
844.486	17.58
844.662	19.63
844.838	-52.05
845.013	29.87
845.189	25.77
845.365	25.77
845.541	-68.44
845.716	70.83
845.892	64.68
846.068	-2.9
846.244	42.15
846.419	11.43
846.595	36.01
846.77	40.11
846.946	9.39
847.122	52.39
847.297	42.15
847.473	117.93
847.648	-9.05
847.824	23.72
847.999	7.34
848.175	-21.33
848.35	160.94
848.526	72.87
848.701	1.19
848.876	60.59
849.052	54.44
849.227	40.11
849.403	60.59
849.578	5.29
849.753	19.63
849.929	42.15
850.104	-41.81
850.279	111.78
850.454	38.06
850.63	21.67
850.805	-13.14
850.98	36.01
851.155	76.97
851.33	64.68
851.505	21.67
851.681	29.87
851.856	9.39
852.031	60.59
852.206	17.58
852.381	13.48
852.556	15.53
852.731	19.63
852.906	-19.29
853.081	72.87
853.256	42.15
853.431	3.24
853.606	50.35
853.781	40.11
853.956	-62.29
854.131	44.2
854.305	-7
854.48	97.45
854.655	23.72
854.83	9.39
855.005	52.39
855.18	58.54
855.354	3.24
855.529	52.39
855.704	13.48
855.879	60.59
856.053	25.77
856.228	1.19
856.403	15.53
856.577	38.06
856.752	1.19
856.926	25.77
857.101	70.83
857.276	25.77
857.45	7.34
857.625	74.92
857.799	13.48
857.974	36.01
858.148	46.25
858.323	15.53
858.497	56.49
858.672	-4.95
858.846	44.2
859.02	70.83
859.195	-25.43
859.369	11.43
859.543	25.77
859.718	-4.95
859.892	-39.76
860.066	-13.14
860.241	58.54
860.415	-7
860.589	-39.76
860.763	33.96
860.938	-82.77
861.112	17.58
861.286	13.48
861.46	81.07
861.634	17.58
861.808	66.73
861.982	17.58
862.157	48.3
862.331	1.19
862.505	-0.85
862.679	-54.1
862.853	91.31
863.027	3.24
863.201	9.39
863.375	52.39
863.549	-13.14
863.722	79.02
863.896	11.43
864.07	17.58
864.244	33.96
864.418	-29.52
864.592	38.06
864.766	50.35
864.939	-17.24
865.113	-29.52
865.287	50.35
865.461	17.58
865.634	-2.9
865.808	1.19
865.982	-39.76
866.156	31.91
866.329	13.48
866.503	40.11
866.676	-4.95
866.85	42.15
867.024	7.34
867.197	-37.72
867.371	-56.15
867.544	3.24
867.718	-17.24
867.891	1.19
868.065	-62.29
868.238	17.58
868.412	58.54
868.585	-33.62
868.759	70.83
868.932	-7
869.105	13.48
869.279	56.49
869.452	-11.09
869.625	91.31
869.799	36.01
869.972	50.35
870.145	-33.62
870.319	1.19
870.492	9.39
870.665	9.39
870.838	-27.48
871.011	17.58
871.185	-11.09
871.358	-13.14
871.531	27.82
871.704	-11.09
871.877	83.11
872.05	68.78
872.223	48.3
872.396	-4.95
872.569	-35.67
872.742	40.11
872.915	66.73
873.088	-29.52
873.261	44.2
873.434	48.3
873.607	60.59
873.78	21.67
873.953	29.87
874.126	-35.67
874.299	-15.19
874.471	-9.05
874.644	74.92
874.817	3.24
874.99	19.63
875.163	40.11
875.335	42.15
875.508	5.29
875.681	36.01
875.853	-29.52
876.026	13.48
876.199	48.3
876.371	-15.19
876.544	38.06
876.717	-35.67
876.889	17.58
877.062	-27.48
877.234	-45.91
877.407	3.24
877.579	-15.19
877.752	3.24
877.924	19.63
878.097	15.53
878.269	23.72
878.442	50.35
878.614	64.68
878.786	27.82
878.959	95.4
879.131	13.48
879.303	21.67
879.476	-54.1
879.648	54.44
879.82	60.59
879.993	1.19
880.165	-45.91
880.337	-0.85
880.509	-25.43
880.681	-4.95
880.854	13.48
881.026	56.49
881.198	36.01
881.37	-50
881.542	-0.85
881.714	19.63
881.886	42.15
882.058	-11.09
882.23	-4.95
882.402	70.83
882.574	-21.33
882.746	19.63
882.918	40.11
883.09	33.96
883.262	27.82
883.434	33.96
883.606	48.3
883.778	-27.48
883.95	52.39
884.122	17.58
884.293	-13.14
884.465	42.15
884.637	-17.24
884.809	27.82
884.98	-4.95
885.152	40.11
885.324	-27.48
885.496	52.39
885.667	19.63
885.839	13.48
886.011	11.43
886.182	9.39
886.354	-39.76
886.525	-11.09
886.697	-15.19
886.869	-15.19
887.04	-27.48
887.212	9.39
887.383	-15.19
887.555	-84.82
887.726	46.25
887.897	-7
888.069	40.11
888.24	-11.09
888.412	13.48
888.583	42.15
888.754	11.43
888.926	-64.34
889.097	-15.19
889.268	27.82
889.44	58.54
889.611	9.39
889.782	23.72
889.953	-35.67
890.125	-21.33
890.296	-2.9
890.467	31.91
890.638	-13.14
890.809	68.78
890.98	-17.24
891.151	89.26
891.323	17.58
891.494	38.06
891.665	-25.43
891.836	76.97
892.007	19.63
892.178	42.15
892.349	23.72
892.52	29.87
892.691	52.39
892.862	-33.62
893.032	-37.72
893.203	-15.19
893.374	-19.29
893.545	19.63
893.716	-45.91
893.887	29.87
894.057	48.3
894.228	36.01
894.399	-11.09
894.57	87.21
894.74	70.83
894.911	9.39
895.082	-17.24
895.253	-7
895.423	-17.24
895.594	56.49
895.764	48.3
895.935	-54.1
896.106	-29.52
896.276	-13.14
896.447	3.24
896.617	29.87
896.788	27.82
896.958	38.06
897.129	31.91
897.299	9.39
897.47	-21.33
897.64	9.39
897.81	-27.48
897.981	15.53
898.151	-2.9
898.322	27.82
898.492	52.39
898.662	46.25
898.832	-15.19
899.003	36.01
899.173	23.72
899.343	38.06
899.513	-39.76
