Data from USB4F104151__32__12-20-40-215.txt Node

Date: Wed Feb 19 12:20:40 EST 2025
User: louis
Spectrometer: USB4F10415
Trigger mode: 4
Integration Time (sec): 2.250200E-1
Scans to average: 1
Electric dark correction enabled: true
Nonlinearity correction enabled: false
Boxcar width: 0
XAxis mode: Wavelengths
Number of Pixels in Spectrum: 3648
>>>>>Begin Spectral Data<<<<<
178.204	-779.93
178.424	-779.93
178.644	-779.93
178.864	-824.99
179.084	-810.65
179.304	125.27
179.524	16.73
179.744	-46.76
179.964	-179.88
180.184	272.72
180.404	172.37
180.624	-224.94
180.844	-57
181.064	-38.57
181.283	237.91
181.503	-194.22
181.723	-83.63
181.943	-112.3
182.163	424.27
182.383	-224.94
182.602	-231.08
182.822	436.56
183.042	223.57
183.262	-267.94
183.482	-128.68
183.701	141.65
183.921	186.71
184.141	-222.89
184.361	-143.02
184.58	313.68
184.8	233.81
185.02	-206.5
185.239	61.78
185.459	272.72
185.679	432.46
185.898	-315.05
186.118	-372.39
186.338	254.29
186.557	323.92
186.777	-274.09
186.997	-233.13
187.216	223.57
187.436	475.47
187.655	-167.59
187.875	-32.43
188.095	176.47
188.314	291.15
188.534	-77.48
188.753	-218.79
188.973	420.17
189.192	495.95
189.412	-192.17
189.631	-210.6
189.851	272.72
190.07	465.23
190.29	-216.74
190.509	-241.32
190.729	233.81
190.948	434.51
191.168	-73.39
191.387	-192.17
191.607	229.71
191.826	260.43
192.045	-143.02
192.265	-192.17
192.484	258.39
192.704	211.28
192.923	-157.35
193.142	-11.95
193.362	330.06
193.581	323.92
193.8	-87.72
194.02	-91.82
194.239	211.28
194.458	321.87
194.678	-100.01
194.897	-233.13
195.116	282.96
195.335	227.67
195.555	-134.82
195.774	-251.56
195.993	307.54
196.212	176.47
196.432	-104.11
196.651	-216.74
196.87	88.4
197.089	571.72
197.308	-161.45
197.528	-140.97
197.747	2.39
197.966	254.29
198.185	-93.87
198.404	-247.46
198.623	225.62
198.842	295.25
199.062	-102.06
199.281	-179.88
199.5	166.23
199.719	274.77
199.938	-220.84
200.157	-202.41
200.376	332.11
200.595	442.7
200.814	-143.02
201.033	-161.45
201.252	450.89
201.471	192.85
201.69	-149.16
201.909	-171.69
202.128	266.58
202.347	317.78
202.566	-57
202.785	-319.14
203.004	186.71
203.223	528.72
203.442	-134.82
203.661	-317.09
203.879	252.24
204.098	397.65
204.317	-190.12
204.536	49.49
204.755	244.05
204.974	278.87
205.193	-304.81
205.411	-130.73
205.63	379.22
205.849	289.1
206.068	-218.79
206.287	-276.13
206.505	371.02
206.724	139.6
206.943	-237.22
207.162	-134.82
207.381	221.52
207.599	178.51
207.818	-165.54
208.037	-245.41
208.255	229.71
208.474	231.76
208.693	-149.16
208.911	-138.92
209.13	334.16
209.349	287.06
209.567	-46.76
209.786	-126.63
210.005	397.65
210.223	166.23
210.442	-392.87
210.661	-257.7
210.879	258.39
211.098	198.99
211.316	-149.16
211.535	-183.98
211.753	252.24
211.972	258.39
212.191	-130.73
212.409	-85.67
212.628	313.68
212.846	82.26
213.065	-239.27
213.283	-118.44
213.502	219.47
213.72	242
213.938	-192.17
214.157	-202.41
214.375	344.4
214.594	215.38
214.812	-188.07
215.031	-216.74
215.249	182.61
215.467	321.87
215.686	-136.87
215.904	-237.22
216.122	203.09
216.341	379.22
216.559	-114.34
216.778	-48.81
216.996	348.5
217.214	164.18
217.432	-108.2
217.651	-284.33
217.869	303.44
218.087	192.85
218.306	-179.88
218.524	-194.22
218.742	186.71
218.96	377.17
219.179	-104.11
219.397	-165.54
219.615	510.29
219.833	325.97
220.051	-116.39
220.27	-112.3
220.488	313.68
220.706	258.39
220.924	-198.31
221.142	-190.12
221.36	233.81
221.578	293.2
221.796	-157.35
222.015	-30.38
222.233	252.24
222.451	411.98
222.669	-73.39
222.887	-32.43
223.105	133.46
223.323	272.72
223.541	-186.02
223.759	-143.02
223.977	203.09
224.195	430.41
224.413	-5.8
224.631	-102.06
224.849	219.47
225.067	528.72
225.285	-79.53
225.503	-167.59
225.721	-7.85
225.939	158.03
226.157	-95.91
226.375	20.82
226.592	143.7
226.81	166.23
227.028	-46.76
227.246	-202.41
227.464	254.29
227.682	328.02
227.9	-122.54
228.117	-134.82
228.335	201.04
228.553	158.03
228.771	-220.84
228.989	-118.44
229.206	186.71
229.424	86.36
229.642	-212.65
229.86	-155.3
230.077	416.08
230.295	141.65
230.513	-112.3
230.731	-149.16
230.948	418.13
231.166	366.93
231.384	-134.82
231.601	-200.36
231.819	409.94
232.037	151.89
232.254	-30.38
232.472	-108.2
232.689	186.71
232.907	274.77
233.125	-186.02
233.342	-249.51
233.56	86.36
233.777	180.56
233.995	-161.45
234.213	-77.48
234.43	305.49
234.648	233.81
234.865	-138.92
235.083	4.44
235.3	209.23
235.518	233.81
235.735	-140.97
235.953	-116.39
236.17	141.65
236.388	145.75
236.605	63.83
236.822	-104.11
237.04	307.54
237.257	237.91
237.475	-208.55
237.692	-165.54
237.909	393.55
238.127	158.03
238.344	-28.33
238.562	-83.63
238.779	63.83
238.996	20.82
239.214	-112.3
239.431	-122.54
239.648	129.36
239.865	274.77
240.083	-83.63
240.3	-212.65
240.517	108.88
240.735	188.75
240.952	65.88
241.169	-157.35
241.386	307.54
241.603	180.56
241.821	-173.74
242.038	-118.44
242.255	422.22
242.472	82.26
242.689	-130.73
242.907	-157.35
243.124	186.71
243.341	164.18
243.558	-145.06
243.775	-175.78
243.992	-65.19
244.209	246.1
244.426	-102.06
244.643	-71.34
244.86	100.69
245.078	229.71
245.295	-7.85
245.512	-192.17
245.729	78.16
245.946	250.19
246.163	-100.01
246.38	-175.78
246.597	180.56
246.814	235.86
247.031	-102.06
247.248	-186.02
247.464	340.3
247.681	209.23
247.898	-97.96
248.115	-57
248.332	92.5
248.549	428.37
248.766	4.44
248.983	-116.39
249.2	282.96
249.417	373.07
249.633	-188.07
249.85	-34.47
250.067	188.75
250.284	155.99
250.501	-194.22
250.717	-95.91
250.934	123.22
251.151	145.75
251.368	-42.67
251.585	-134.82
251.801	227.67
252.018	61.78
252.235	-28.33
252.451	-198.31
252.668	207.19
252.885	297.3
253.102	-110.25
253.318	-116.39
253.535	188.75
253.752	131.41
253.968	-229.03
254.185	-269.99
254.401	289.1
254.618	225.62
254.835	-104.11
255.051	-93.87
255.268	391.5
255.484	250.19
255.701	-138.92
255.917	-97.96
256.134	74.07
256.351	190.8
256.567	-222.89
256.784	-32.43
257	-30.38
257.217	293.2
257.433	-1.71
257.65	-73.39
257.866	358.74
258.082	-3.75
258.299	-173.74
258.515	-87.72
258.732	164.18
258.948	135.51
259.165	-36.52
259.381	-247.46
259.597	289.1
259.814	268.63
260.03	-175.78
260.246	-179.88
260.463	393.55
260.679	287.06
260.895	-114.34
261.112	-93.87
261.328	174.42
261.544	139.6
261.761	-122.54
261.977	-161.45
262.193	16.73
262.409	385.36
262.626	8.53
262.842	-192.17
263.058	135.51
263.274	305.49
263.49	-61.1
263.707	-181.93
263.923	352.59
264.139	18.77
264.355	-67.24
264.571	-75.43
264.787	266.58
265.004	303.44
265.22	8.53
265.436	-124.58
265.652	94.55
265.868	258.39
266.084	-124.58
266.3	-192.17
266.516	-24.23
266.732	192.85
266.948	-95.91
267.164	-245.41
267.38	375.12
267.596	297.3
267.812	0.34
268.028	-100.01
268.244	115.03
268.46	246.1
268.676	-75.43
268.892	29.01
269.108	51.54
269.324	98.64
269.54	-61.1
269.756	-87.72
269.972	123.22
270.188	188.75
270.403	-130.73
270.619	-134.82
270.835	221.52
271.051	213.33
271.267	-93.87
271.483	-145.06
271.698	332.11
271.914	219.47
272.13	-16.04
272.346	-89.77
272.562	211.28
272.777	424.27
272.993	51.54
273.209	-81.58
273.425	258.39
273.64	-69.29
273.856	-61.1
274.072	-231.08
274.287	137.56
274.503	205.14
274.719	45.4
274.934	-138.92
275.15	55.64
275.366	88.4
275.581	-93.87
275.797	-100.01
276.012	170.32
276.228	80.21
276.444	-91.82
276.659	80.21
276.875	-13.99
277.09	24.92
277.306	-26.28
277.521	-57
277.737	237.91
277.952	225.62
278.168	-79.53
278.383	-118.44
278.599	96.6
278.814	213.33
279.03	-157.35
279.245	14.68
279.461	217.43
279.676	262.48
279.892	-93.87
280.107	-91.82
280.322	65.88
280.538	311.63
280.753	-167.59
280.969	-120.49
281.184	174.42
281.399	346.45
281.615	-59.05
281.83	106.84
282.045	74.07
282.26	29.01
282.476	-89.77
282.691	72.02
282.906	254.29
283.122	86.36
283.337	-75.43
283.552	20.82
283.767	133.46
283.983	160.08
284.198	-38.57
284.413	-91.82
284.628	12.63
284.843	125.27
285.058	-50.86
285.274	-52.91
285.489	94.55
285.704	250.19
285.919	-54.95
286.134	39.25
286.349	186.71
286.564	63.83
286.779	61.78
286.995	-11.95
287.21	-32.43
287.425	192.85
287.64	-44.71
287.855	176.47
288.07	-3.75
288.285	268.63
288.5	29.01
288.715	53.59
288.93	180.56
289.145	82.26
289.36	-11.95
289.575	-73.39
289.79	438.61
290.004	61.78
290.219	49.49
290.434	-67.24
290.649	72.02
290.864	104.79
291.079	-50.86
291.294	33.11
291.509	225.62
291.724	164.18
291.938	-52.91
292.153	-52.91
292.368	225.62
292.583	297.3
292.798	-34.47
293.012	-7.85
293.227	239.95
293.442	106.84
293.657	121.17
293.871	-26.28
294.086	166.23
294.301	237.91
294.516	53.59
294.73	47.44
294.945	102.74
295.16	184.66
295.374	-3.75
295.589	90.45
295.804	82.26
296.018	168.27
296.233	-30.38
296.447	98.64
296.662	88.4
296.877	325.97
297.091	24.92
297.306	69.97
297.52	94.55
297.735	217.43
297.949	57.68
298.164	-126.63
298.378	194.9
298.593	6.49
298.807	20.82
299.022	31.06
299.236	334.16
299.451	69.97
299.665	-9.9
299.88	-30.38
300.094	285.01
300.309	178.51
300.523	-61.1
300.737	20.82
300.952	295.25
301.166	160.08
301.381	-32.43
301.595	-122.54
301.809	112.98
302.024	178.51
302.238	-11.95
302.452	96.6
302.667	151.89
302.881	237.91
303.095	-16.04
303.309	14.68
303.524	-9.9
303.738	149.84
303.952	-63.15
304.166	-38.57
304.381	-36.52
304.595	260.43
304.809	-9.9
305.023	-5.8
305.237	45.4
305.452	61.78
305.666	31.06
305.88	86.36
306.094	313.68
306.308	217.43
306.522	-57
306.736	-5.8
306.95	282.96
307.164	39.25
307.379	-16.04
307.593	49.49
307.807	223.57
308.021	194.9
308.235	119.12
308.449	-93.87
308.663	143.7
308.877	481.61
309.091	-40.62
309.305	119.12
309.519	-28.33
309.733	260.43
309.947	-149.16
310.161	2.39
310.374	248.15
310.588	268.63
310.802	-116.39
311.016	-106.15
311.23	186.71
311.444	33.11
311.658	41.3
311.872	137.56
312.085	366.93
312.299	303.44
312.513	184.66
312.727	-120.49
312.941	39.25
313.154	104.79
313.368	-50.86
313.582	-18.09
313.796	252.24
314.009	135.51
314.223	153.94
314.437	100.69
314.651	235.86
314.864	-3.75
315.078	-42.67
315.292	-130.73
315.505	133.46
315.719	115.03
315.933	115.03
316.146	-75.43
316.36	67.92
316.573	291.15
316.787	205.14
317.001	43.35
317.214	37.2
317.428	192.85
317.641	-89.77
317.855	-75.43
318.068	188.75
318.282	178.51
318.495	110.93
318.709	-63.15
318.922	86.36
319.136	330.06
319.349	96.6
319.563	10.58
319.776	256.34
319.99	-36.52
320.203	4.44
320.417	-106.15
320.63	102.74
320.843	348.5
321.057	98.64
321.27	-61.1
321.483	291.15
321.697	289.1
321.91	-59.05
322.124	-13.99
322.337	166.23
322.55	31.06
322.763	-34.47
322.977	-67.24
323.19	76.12
323.403	115.03
323.617	82.26
323.83	258.39
324.043	176.47
324.256	233.81
324.469	-226.98
324.683	143.7
324.896	172.37
325.109	145.75
325.322	-116.39
325.535	20.82
325.748	336.21
325.962	100.69
326.175	-24.23
326.388	-7.85
326.601	209.23
326.814	119.12
327.027	65.88
327.24	104.79
327.453	16.73
327.666	186.71
327.879	125.27
328.092	67.92
328.305	180.56
328.518	117.08
328.731	18.77
328.944	-75.43
329.157	127.32
329.37	39.25
329.583	100.69
329.796	72.02
330.009	-44.71
330.222	268.63
330.435	78.16
330.648	26.96
330.861	133.46
331.073	84.31
331.286	63.83
331.499	-77.48
331.712	80.21
331.925	147.8
332.138	6.49
332.35	-81.58
332.563	180.56
332.776	354.64
332.989	-24.23
333.202	-85.67
333.414	143.7
333.627	147.8
333.84	-42.67
334.053	2.39
334.265	102.74
334.478	98.64
334.691	-44.71
334.903	94.55
335.116	51.54
335.329	104.79
335.541	37.2
335.754	203.09
335.966	102.74
336.179	162.13
336.392	18.77
336.604	0.34
336.817	211.28
337.029	276.82
337.242	-28.33
337.454	90.45
337.667	182.61
337.88	260.43
338.092	45.4
338.305	51.54
338.517	47.44
338.729	223.57
338.942	98.64
339.154	-83.63
339.367	-26.28
339.579	272.72
339.792	-61.1
340.004	37.2
340.217	129.36
340.429	172.37
340.641	24.92
340.854	-128.68
341.066	201.04
341.278	264.53
341.491	198.99
341.703	-11.95
341.915	72.02
342.128	203.09
342.34	-20.14
342.552	-104.11
342.764	78.16
342.977	135.51
343.189	84.31
343.401	100.69
343.613	53.59
343.826	88.4
344.038	-36.52
344.25	145.75
344.462	74.07
344.674	108.88
344.886	-77.48
345.099	-11.95
345.311	174.42
345.523	53.59
345.735	-124.58
345.947	47.44
346.159	178.51
346.371	162.13
346.583	53.59
346.795	31.06
347.007	10.58
347.219	194.9
347.431	45.4
347.643	104.79
347.855	131.41
348.067	287.06
348.279	37.2
348.491	-16.04
348.703	254.29
348.915	133.46
349.127	-91.82
349.339	61.78
349.551	96.6
349.763	237.91
349.975	-40.62
350.187	88.4
350.399	299.34
350.61	139.6
350.822	-34.47
351.034	-5.8
351.246	205.14
351.458	225.62
351.669	45.4
351.881	29.01
352.093	321.87
352.305	287.06
352.517	-30.38
352.728	4.44
352.94	176.47
353.152	188.75
353.363	-93.87
353.575	-28.33
353.787	471.37
353.999	231.76
354.21	141.65
354.422	-175.78
354.633	211.28
354.845	100.69
355.057	14.68
355.268	-36.52
355.48	364.88
355.692	-36.52
355.903	49.49
356.115	-136.87
356.326	-34.47
356.538	350.54
356.749	39.25
356.961	102.74
357.172	172.37
357.384	31.06
357.595	143.7
357.807	-11.95
358.018	98.64
358.23	231.76
358.441	-13.99
358.653	-16.04
358.864	168.27
359.075	53.59
359.287	2.39
359.498	65.88
359.709	186.71
359.921	219.47
360.132	104.79
360.344	-1.71
360.555	88.4
360.766	135.51
360.977	-124.58
361.189	88.4
361.4	108.88
361.611	266.58
361.823	78.16
362.034	24.92
362.245	-34.47
362.456	121.17
362.667	96.6
362.879	-89.77
363.09	184.66
363.301	184.66
363.512	-61.1
363.723	-134.82
363.935	24.92
364.146	315.73
364.357	-9.9
364.568	-3.75
364.779	14.68
364.99	272.72
365.201	59.73
365.412	94.55
365.623	-24.23
365.834	237.91
366.045	90.45
366.256	14.68
366.467	229.71
366.678	176.47
366.889	-20.14
367.1	-44.71
367.311	295.25
367.522	106.84
367.733	90.45
367.944	88.4
368.155	213.33
368.366	270.67
368.577	78.16
368.788	160.08
368.999	115.03
369.209	121.17
369.42	80.21
369.631	368.98
369.842	168.27
370.053	133.46
370.264	59.73
370.474	-18.09
370.685	311.63
370.896	125.27
371.107	137.56
371.317	47.44
371.528	192.85
371.739	317.78
371.95	35.16
372.16	-65.19
372.371	67.92
372.582	82.26
372.792	45.4
373.003	47.44
373.214	217.43
373.424	258.39
373.635	-1.71
373.846	117.08
374.056	188.75
374.267	250.19
374.477	100.69
374.688	-59.05
374.898	270.67
375.109	141.65
375.319	18.77
375.53	69.97
375.74	258.39
375.951	78.16
376.161	59.73
376.372	80.21
376.582	45.4
376.793	276.82
377.003	-40.62
377.214	-20.14
377.424	188.75
377.635	192.85
377.845	12.63
378.055	115.03
378.266	-36.52
378.476	129.36
378.686	74.07
378.897	67.92
379.107	291.15
379.317	231.76
379.528	-1.71
379.738	170.32
379.948	45.4
380.158	278.87
380.369	2.39
380.579	147.8
380.789	151.89
380.999	149.84
381.21	80.21
381.42	207.19
381.63	221.52
381.84	264.53
382.05	49.49
382.261	94.55
382.471	364.88
382.681	20.82
382.891	135.51
383.101	102.74
383.311	86.36
383.521	88.4
383.731	-79.53
383.941	160.08
384.151	194.9
384.361	10.58
384.571	-11.95
384.781	-24.23
384.991	358.74
385.201	377.17
385.411	125.27
385.621	53.59
385.831	270.67
386.041	186.71
386.251	53.59
386.461	137.56
386.671	168.27
386.881	194.9
387.091	12.63
387.301	145.75
387.511	209.23
387.72	168.27
387.93	153.94
388.14	-40.62
388.35	250.19
388.56	309.58
388.769	49.49
388.979	-20.14
389.189	98.64
389.399	244.05
389.609	63.83
389.818	88.4
390.028	223.57
390.238	198.99
390.447	-46.76
390.657	63.83
390.867	219.47
391.076	26.96
391.286	4.44
391.496	-9.9
391.705	221.52
391.915	422.22
392.125	57.68
392.334	47.44
392.544	266.58
392.753	153.94
392.963	22.87
393.172	2.39
393.382	115.03
393.591	344.4
393.801	16.73
394.01	47.44
394.22	276.82
394.429	139.6
394.639	33.11
394.848	102.74
395.058	223.57
395.267	55.64
395.477	108.88
395.686	4.44
395.895	555.34
396.105	299.34
396.314	37.2
396.524	86.36
396.733	115.03
396.942	416.08
397.152	74.07
397.361	174.42
397.57	149.84
397.78	141.65
397.989	164.18
398.198	313.68
398.407	117.08
398.617	231.76
398.826	4.44
399.035	-24.23
399.244	244.05
399.453	170.32
399.663	-3.75
399.872	-120.49
400.081	65.88
400.29	332.11
400.499	29.01
400.708	170.32
400.917	213.33
401.127	129.36
401.336	-18.09
401.545	270.67
401.754	307.54
401.963	207.19
402.172	82.26
402.381	53.59
402.59	155.99
402.799	168.27
403.008	174.42
403.217	86.36
403.426	186.71
403.635	-24.23
403.844	-32.43
404.053	-28.33
404.262	121.17
404.471	313.68
404.68	65.88
404.888	110.93
405.097	115.03
405.306	151.89
405.515	41.3
405.724	-128.68
405.933	260.43
406.142	198.99
406.35	61.78
406.559	59.73
406.768	153.94
406.977	387.41
407.185	106.84
407.394	141.65
407.603	16.73
407.812	184.66
408.02	151.89
408.229	59.73
408.438	235.86
408.646	-26.28
408.855	-20.14
409.064	2.39
409.272	143.7
409.481	164.18
409.69	-48.81
409.898	37.2
410.107	207.19
410.315	303.44
410.524	16.73
410.733	121.17
410.941	278.87
411.15	366.93
411.358	53.59
411.567	164.18
411.775	274.77
411.984	125.27
412.192	51.54
412.401	6.49
412.609	399.7
412.818	321.87
413.026	43.35
413.234	74.07
413.443	121.17
413.651	80.21
413.86	-52.91
414.068	246.1
414.276	407.89
414.485	129.36
414.693	141.65
414.901	209.23
415.11	291.15
415.318	158.03
415.526	84.31
415.734	168.27
415.943	166.23
416.151	389.46
416.359	80.21
416.567	125.27
416.776	278.87
416.984	303.44
417.192	117.08
417.4	-1.71
417.608	86.36
417.817	92.5
418.025	237.91
418.233	147.8
418.441	94.55
418.649	96.6
418.857	149.84
419.065	139.6
419.273	194.9
419.481	162.13
419.689	145.75
419.897	-28.33
420.105	139.6
420.313	242
420.521	184.66
420.729	153.94
420.937	119.12
421.145	139.6
421.353	121.17
421.561	229.71
421.769	278.87
421.977	135.51
422.185	242
422.393	160.08
422.601	348.5
422.809	368.98
423.017	74.07
423.224	110.93
423.432	373.07
423.64	239.95
423.848	43.35
424.056	10.58
424.263	368.98
424.471	217.43
424.679	223.57
424.887	37.2
425.094	379.22
425.302	368.98
425.51	-71.34
425.718	92.5
425.925	299.34
426.133	117.08
426.341	207.19
426.548	147.8
426.756	207.19
426.964	303.44
427.171	110.93
427.379	63.83
427.586	305.49
427.794	344.4
428.001	203.09
428.209	86.36
428.417	373.07
428.624	399.7
428.832	151.89
429.039	248.15
429.247	350.54
429.454	323.92
429.662	299.34
429.869	242
430.076	424.27
430.284	317.78
430.491	254.29
430.699	186.71
430.906	448.85
431.114	336.21
431.321	170.32
431.528	205.14
431.736	340.3
431.943	469.33
432.15	217.43
432.358	129.36
432.565	538.96
432.772	67.92
432.979	330.06
433.187	219.47
433.394	561.48
433.601	301.39
433.808	344.4
434.016	299.34
434.223	397.65
434.43	436.56
434.637	307.54
434.844	414.03
435.052	487.76
435.259	518.48
435.466	424.27
435.673	358.74
435.88	631.12
436.087	557.39
436.294	612.68
436.501	475.47
436.708	528.72
436.915	534.86
437.122	565.58
437.329	266.58
437.537	465.23
437.743	577.87
437.95	551.24
438.157	549.2
438.364	522.57
438.571	561.48
438.778	588.11
438.985	520.53
439.192	696.65
439.399	627.02
439.606	538.96
439.813	678.22
440.02	948.55
440.227	993.61
440.433	614.73
440.64	577.87
440.847	678.22
441.054	780.62
441.261	670.03
441.467	725.32
441.674	805.19
441.881	938.31
442.088	692.55
442.294	760.14
442.501	1100.1
442.708	1044.81
442.914	725.32
443.121	889.16
443.328	989.51
443.534	1194.31
443.741	932.17
443.948	747.85
444.154	1186.12
444.361	1337.66
444.568	1063.24
444.774	1145.16
444.981	1093.96
445.187	1405.25
445.394	1155.4
445.6	1239.36
445.807	1425.73
446.013	1364.29
446.22	1020.23
446.426	1442.11
446.633	1513.79
446.839	1808.7
447.046	1239.36
447.252	1524.03
447.459	1671.48
447.665	1724.73
447.871	1708.35
448.078	1960.25
448.284	1892.66
448.491	2052.41
448.697	1849.66
448.903	1907
449.11	2103.61
449.316	2079.03
449.522	2220.34
449.728	2169.14
449.935	2314.55
450.141	2396.46
450.347	2429.23
450.553	2322.74
450.76	2490.67
450.966	2697.52
451.172	2638.13
451.378	2570.54
451.584	2781.48
451.791	3057.96
451.997	2928.94
452.203	2902.31
452.409	3279.14
452.615	3197.22
452.821	2847.02
453.027	3074.34
453.233	3694.88
453.44	3359.01
453.646	3324.19
453.852	3301.67
454.058	3514.66
454.264	3805.47
454.47	3782.94
454.676	3633.44
454.882	3983.64
455.088	3772.7
455.294	3772.7
455.5	4028.7
455.705	4280.6
455.911	3981.59
456.117	3926.3
456.323	3979.54
456.529	3907.87
456.735	4221.2
456.941	4096.28
457.147	4182.29
457.352	4301.08
457.558	4157.72
457.764	4231.44
457.97	4280.6
458.176	4323.6
458.381	4415.76
458.587	4321.56
458.793	4239.64
458.999	4026.65
459.204	4301.08
459.41	4253.97
459.616	4114.71
459.821	4442.39
460.027	4225.3
460.233	4331.8
460.438	4159.77
460.644	4083.99
460.85	4159.77
461.055	4043.03
461.261	4122.9
461.466	3789.08
461.672	3799.32
461.878	3914.01
462.083	3647.77
462.289	3741.98
462.494	3805.47
462.7	3629.34
462.905	3424.55
463.111	3901.72
463.316	3895.58
463.522	3647.77
463.727	3518.75
463.932	3682.59
464.138	3600.67
464.343	3668.25
464.549	3537.18
464.754	3907.87
464.959	3764.51
465.165	3322.15
465.37	3258.66
465.575	3479.84
465.781	3449.12
465.986	3318.05
466.191	3180.84
466.397	3383.59
466.602	3246.37
466.807	3229.99
467.012	3156.26
467.218	3397.92
467.423	3166.5
467.628	3162.41
467.833	3209.51
468.038	3445.02
468.244	3174.69
468.449	3369.25
468.654	3246.37
468.859	3428.64
469.064	3258.66
469.269	2902.31
469.474	3215.65
469.679	3549.47
469.885	3281.19
470.09	3236.13
470.295	3242.28
470.5	3205.41
470.705	3457.31
470.91	3262.76
471.115	3244.32
471.32	3453.22
471.525	3680.54
471.73	3170.6
471.935	3293.48
472.139	3236.13
472.344	3277.09
472.549	3377.44
472.754	3496.22
472.959	3481.89
473.164	3410.21
473.369	3139.88
473.574	3471.65
473.778	3645.73
473.983	3461.41
474.188	3483.94
474.393	3229.99
474.598	3535.14
474.802	3524.9
475.007	3322.15
475.212	3461.41
475.417	3580.19
475.621	3586.33
475.826	3326.24
476.031	3410.21
476.235	3457.31
476.44	3533.09
476.645	3371.3
476.849	3268.9
477.054	3535.14
477.259	3512.61
477.463	3528.99
477.668	3598.62
477.872	3780.89
478.077	3453.22
478.282	3242.28
478.486	3428.64
478.691	3459.36
478.895	3676.45
479.1	3488.03
479.304	3481.89
479.509	3447.07
479.713	3729.69
479.918	3436.83
480.122	3356.96
480.326	3586.33
480.531	3627.29
480.735	3572
480.94	3406.11
481.144	3723.55
481.348	3469.6
481.553	3457.31
481.757	3324.19
481.961	3545.38
482.166	3703.07
482.37	3553.57
482.574	3494.18
482.778	3551.52
482.983	3684.64
483.187	3422.5
483.391	3668.25
483.595	3733.79
483.8	3782.94
484.004	3715.36
484.208	3676.45
484.412	3907.87
484.616	3856.67
484.821	3660.06
485.025	3623.2
485.229	3825.95
485.433	3934.49
485.637	3844.38
485.841	3784.99
486.045	4102.42
486.249	4077.85
486.453	3641.63
486.657	3721.5
486.861	3899.67
487.065	3901.72
487.269	4006.17
487.473	3821.85
487.677	4079.9
487.881	4565.26
488.085	4045.08
488.289	4264.21
488.493	4116.76
488.697	4487.44
488.901	4331.8
489.105	4133.14
489.309	4221.2
489.512	4624.65
489.716	4239.64
489.92	4423.95
490.124	4638.99
490.328	4708.62
490.531	4421.91
490.735	4561.17
490.939	4634.89
491.143	4661.52
491.346	4569.36
491.55	4585.74
491.754	4667.66
491.958	4915.47
492.161	4790.54
492.365	4735.25
492.569	4903.18
492.772	4987.15
492.976	5060.87
493.18	4970.76
493.383	5150.98
493.587	5167.37
493.79	5237
493.994	5028.1
494.197	5277.96
494.401	5327.11
494.605	5237
494.808	5413.12
495.012	5660.93
495.215	5638.4
495.419	5570.82
495.622	5423.36
495.825	5691.65
496.029	5671.17
496.232	5863.68
496.436	5634.3
496.639	6019.32
496.843	5703.93
497.046	5880.06
497.249	6052.09
497.453	6121.72
497.656	6031.61
497.859	6191.35
498.063	6156.54
498.266	6439.16
498.469	6148.34
498.673	6363.38
498.876	6334.71
499.079	6545.65
499.282	6559.99
499.485	6680.82
499.689	6852.84
499.892	7100.65
500.095	6781.17
500.298	7071.98
500.501	6836.46
500.705	7350.5
500.908	7162.09
501.111	7223.53
501.314	7295.21
501.517	7610.59
501.72	7672.03
501.923	7518.43
502.126	7737.57
502.329	7938.27
502.532	7891.16
502.735	7911.64
502.938	8227.03
503.141	8253.66
503.344	8251.61
503.547	8306.9
503.75	8425.68
503.953	8681.68
504.156	8779.98
504.359	8655.06
504.562	8888.53
504.765	8960.2
504.968	9318.6
505.17	9203.91
505.373	9121.99
505.576	9539.78
505.779	9443.53
505.982	9537.73
506.185	9699.52
506.387	10039.48
506.59	10127.55
506.793	10076.35
506.996	10117.31
507.198	10571.96
507.401	10465.46
507.604	10371.26
507.807	10514.61
508.009	10838.19
508.212	10903.73
508.415	10850.48
508.617	10889.39
508.82	11118.76
509.022	11391.14
509.225	11620.52
509.428	11497.64
509.63	11743.39
509.833	11808.93
510.035	12521.62
510.238	11878.56
510.44	12308.63
510.643	12619.92
510.845	12464.28
511.048	12497.05
511.25	12882.06
511.453	12945.55
511.655	13463.69
511.858	13185.16
512.06	13643.91
512.262	13557.89
512.465	13576.33
512.667	13967.49
512.87	14020.74
513.072	14332.03
513.274	13973.63
513.477	14110.85
513.679	14577.78
513.881	14887.03
514.084	14790.77
514.286	14889.07
514.488	15247.47
514.69	15628.39
514.893	15640.68
515.095	15339.63
515.297	15759.46
515.499	16007.27
515.701	16103.52
515.904	16572.5
516.106	16631.9
516.308	16967.76
516.51	16736.34
516.712	16695.38
516.914	17381.45
517.116	17369.16
517.318	17397.84
517.52	17442.89
517.722	17756.23
517.925	18053.19
518.127	18346.05
518.329	18495.55
518.531	18524.22
518.733	18888.76
518.935	18890.81
519.136	19034.16
519.338	19380.27
519.54	19566.63
519.742	19513.39
519.944	19857.45
520.146	20242.46
520.348	20611.1
520.55	20264.99
520.752	20420.64
520.954	20740.12
521.155	20729.88
521.357	20928.53
521.559	21329.94
521.761	21790.73
521.963	21555.21
522.164	21618.7
522.366	21821.45
522.568	22198.27
522.77	22448.13
522.971	22599.68
523.173	22540.29
523.375	23050.23
523.576	22429.7
523.778	22994.93
523.98	23191.54
524.181	23126
524.383	23560.17
524.584	23638
524.786	23525.36
524.988	23310.32
525.189	24025.06
525.391	24164.32
525.592	24170.47
525.794	23996.39
525.995	24195.04
526.197	24604.64
526.398	24752.09
526.6	24981.46
526.801	25083.86
527.003	24651.74
527.204	24838.11
527.406	25817.04
527.607	25468.88
527.808	25444.31
528.01	25264.08
528.211	25542.61
528.412	25972.68
528.614	25989.06
528.815	25839.56
529.016	26486.72
529.218	25907.15
529.419	26296.26
529.62	25872.33
529.822	26312.64
530.023	25937.87
530.224	26099.66
530.425	26650.56
530.626	26236.87
530.828	26099.66
531.029	26544.06
531.23	26687.42
531.431	26759.1
531.632	26830.78
531.833	26523.58
532.035	26658.75
532.236	26585.02
532.437	26992.57
532.638	26494.91
532.839	26546.11
533.04	27137.98
533.241	26922.94
533.442	27402.16
533.643	26769.34
533.844	26838.97
534.045	27199.41
534.246	26793.92
534.447	27115.45
534.648	26963.9
534.849	27430.83
535.05	27039.67
535.251	26746.81
535.451	27310
535.652	27262.9
535.853	26922.94
536.054	26924.99
536.255	27414.45
536.456	27133.88
536.657	27580.34
536.857	27094.97
537.058	27453.36
537.259	27529.14
537.46	27258.81
537.66	27172.79
537.861	27627.44
538.062	27461.55
538.263	26900.41
538.463	26886.08
538.664	27303.86
538.865	27479.99
539.065	27582.38
539.266	27189.17
539.466	27436.98
539.667	27164.6
539.868	27414.45
540.068	27291.57
540.269	27629.49
540.469	27750.32
540.67	27107.26
540.87	27303.86
541.071	27359.16
541.271	27498.42
541.472	27613.1
541.672	27303.86
541.873	27498.42
542.073	27140.02
542.274	27584.43
542.474	27152.31
542.675	27654.06
542.875	27684.78
543.075	27137.98
543.276	27140.02
543.476	27742.13
543.676	27672.5
543.877	27295.67
544.077	27537.33
544.277	27746.22
544.478	27598.77
544.678	27594.67
544.878	27408.31
545.078	27488.18
545.279	27326.39
545.479	27629.49
545.679	27424.69
545.879	27527.09
546.079	27772.85
546.28	27463.6
546.48	27428.79
546.68	27705.26
546.88	27733.93
547.08	27690.93
547.28	27725.74
547.48	27281.33
547.68	27735.98
547.88	27453.36
548.081	27531.19
548.281	27328.44
548.481	27807.66
548.681	27778.99
548.881	27535.28
549.081	27918.25
549.28	27731.89
549.48	27801.52
549.68	27781.04
549.88	27889.58
550.08	27822
550.28	27754.41
550.48	27682.73
550.68	28106.66
550.88	27735.98
551.08	27547.57
551.279	28155.82
551.479	28010.41
551.679	28063.66
551.879	27889.58
552.079	27828.14
552.278	28176.3
552.478	28045.23
552.678	27686.83
552.878	27940.78
553.077	27852.72
553.277	27748.27
553.477	28090.28
553.676	27811.76
553.876	27905.96
554.076	28086.18
554.275	27838.38
554.475	27178.93
554.674	28168.1
554.874	27908.01
555.074	27461.55
555.273	27807.66
555.473	27916.2
555.672	27568.05
555.872	27502.51
556.071	27733.93
556.271	28315.56
556.47	27627.44
556.67	27613.1
556.869	27738.03
557.068	27522.99
557.268	27760.56
557.467	27793.33
557.667	27541.43
557.866	27619.25
558.065	27525.04
558.265	27310
558.464	27287.48
558.663	27471.79
558.863	27342.77
559.062	27461.55
559.261	27039.67
559.461	27549.62
559.66	27285.43
559.859	27269.05
560.058	26863.55
560.258	27008.95
560.457	27021.24
560.656	27185.08
560.855	26865.6
561.054	27219.89
561.253	26752.96
561.453	27066.3
561.652	26664.89
561.851	27039.67
562.05	26834.88
562.249	26609.6
562.448	26863.55
562.647	26386.37
562.846	26423.23
563.045	26779.58
563.244	26394.56
563.443	26994.62
563.642	26208.2
563.841	26367.94
564.04	26070.98
564.239	26613.7
564.438	26001.35
564.637	25800.65
564.836	26113.99
565.035	25849.8
565.234	25921.48
565.432	25778.12
565.631	25905.1
565.83	25735.12
566.029	25862.09
566.228	25280.47
566.427	25591.76
566.625	25493.46
566.824	25604.05
567.023	25565.14
567.222	24801.24
567.42	25497.55
567.619	25284.56
567.818	24995.8
568.016	25085.91
568.215	24907.74
568.414	25047
568.612	24995.8
568.811	24711.13
569.01	25057.24
569.208	24283.11
569.407	24528.86
569.605	24221.67
569.804	24750.04
570.002	24229.86
570.201	24375.27
570.4	24264.68
570.598	23889.9
570.797	23988.2
570.995	23937
571.193	23873.51
571.392	24092.65
571.59	23691.24
571.789	23941.1
571.987	23746.54
572.186	23470.06
572.384	23437.3
572.582	23382
572.781	23658.48
572.979	22915.06
573.177	23298.03
573.376	23244.79
573.574	23115.76
573.772	23156.72
573.971	22923.26
574.169	22530.05
574.367	22517.76
574.565	22933.5
574.763	22558.72
574.962	22179.84
575.16	22345.73
575.358	22603.77
575.556	22007.81
575.754	22564.86
575.952	21880.84
576.151	22362.11
576.349	22151.17
576.547	21946.37
576.745	21800.97
576.943	22204.42
577.141	21760.01
577.339	21573.64
577.537	21843.98
577.735	21868.55
577.933	21864.46
578.131	21526.54
578.329	21557.26
578.527	21487.63
578.725	21643.28
578.923	21557.26
579.121	21084.18
579.319	21016.6
579.516	21463.05
579.714	21377.04
579.912	21012.5
580.11	20891.67
580.308	20840.47
580.506	20793.37
580.704	20602.91
580.901	20852.76
581.099	21278.74
581.297	20582.43
581.495	20799.51
581.692	20568.09
581.89	20860.95
582.088	20832.28
582.285	20441.12
582.483	20432.93
582.681	20572.19
582.878	20529.18
583.076	20264.99
583.274	20574.24
583.471	20484.12
583.669	20385.82
583.866	20082.72
584.064	20283.42
584.262	20041.76
584.459	20121.63
584.657	19836.97
584.854	20215.84
585.052	20060.2
585.249	20019.24
585.447	19707.94
585.644	19714.09
585.841	20090.91
586.039	19894.31
586.236	19540.01
586.434	19701.8
586.631	19580.97
586.828	19220.53
587.026	19523.63
587.223	19494.96
587.42	19591.21
587.618	19474.48
587.815	19187.76
588.012	19533.87
588.21	19335.21
588.407	19787.82
588.604	19525.68
588.801	19126.32
588.999	19077.17
589.196	19193.9
589.393	19275.82
589.59	19298.35
589.787	19234.86
589.984	19056.69
590.182	18929.72
590.379	18882.61
590.576	19210.29
590.773	18905.14
590.97	18745.4
591.167	19095.6
591.364	18737.21
591.561	19052.59
591.758	18802.74
591.955	19052.59
592.152	18870.33
592.349	18761.78
592.546	18620.47
592.743	18806.84
592.94	18356.29
593.137	18554.94
593.334	18954.29
593.531	18495.55
593.727	19011.64
593.924	18774.07
594.121	18688.06
594.318	18624.57
594.515	18655.29
594.712	18669.62
594.908	18456.64
595.105	18346.05
595.302	18569.27
595.499	18599.99
595.696	18606.14
595.892	18245.69
596.089	18673.72
596.286	18309.18
596.482	18475.07
596.679	18643
596.876	18327.61
597.072	18368.57
597.269	17981.51
597.466	18425.92
597.662	18255.93
597.859	18133.06
598.055	18612.28
598.252	18407.48
598.448	18524.22
598.645	18102.34
598.841	18337.85
599.038	18262.08
599.234	18540.6
599.431	18251.84
599.627	18350.14
599.824	18139.2
600.02	18147.39
600.217	18407.48
600.413	17920.07
600.609	18110.53
600.806	18401.34
601.002	18124.86
601.198	17797.19
601.395	18120.77
601.591	18149.44
601.787	18311.23
601.984	17895.49
602.18	18335.81
602.376	18063.43
602.572	17858.63
602.769	18171.97
602.965	17950.79
603.161	18427.96
603.357	17799.24
603.553	18020.42
603.75	18131.01
603.946	17883.2
604.142	17926.21
604.338	17823.81
604.534	17793.09
604.73	17717.32
604.926	17756.23
605.122	17805.38
605.318	17752.13
605.514	17573.96
605.71	17674.31
605.906	17637.45
606.102	17623.11
606.298	17934.4
606.494	17866.82
606.69	18214.98
606.886	17844.29
607.082	17420.36
607.278	17631.3
607.474	17504.33
607.67	17774.66
607.866	17320.01
608.062	18073.67
608.257	17653.83
608.453	17561.67
608.649	17586.25
608.845	17647.69
609.041	17680.46
609.236	17682.5
609.432	17422.41
609.628	17571.91
609.824	17414.22
610.019	17582.15
610.215	17514.57
610.411	17455.18
610.606	17422.41
610.802	17451.08
610.998	17526.86
611.193	17565.77
611.389	17139.79
611.584	17670.22
611.78	17178.7
611.976	17256.53
612.171	17848.39
612.367	17555.53
612.562	17522.76
612.758	17176.66
612.953	17061.97
613.149	17580.11
613.344	17346.64
613.539	17465.42
613.735	17401.93
613.93	17467.47
614.126	17424.46
614.321	17287.25
614.517	17338.44
614.712	17481.8
614.907	17473.61
615.103	17352.78
615.298	17139.79
615.493	17463.37
615.688	17037.39
615.884	17299.53
616.079	17010.77
616.274	17397.84
616.47	16857.17
616.665	17111.12
616.86	17057.87
617.055	16928.85
617.25	17129.55
617.445	16959.57
617.641	16656.47
617.836	17236.05
618.031	17076.3
618.226	17299.53
618.421	16875.6
618.616	17100.88
618.811	16713.81
619.006	16650.33
619.201	16814.16
619.396	17256.53
619.591	16404.57
619.786	16851.03
619.981	16470.11
620.176	16765.01
620.371	16640.09
620.566	16615.51
620.761	16375.9
620.956	16765.01
621.151	16371.8
621.346	16652.38
621.541	16078.94
621.735	16453.72
621.93	16490.59
622.125	16238.69
622.32	16109.66
622.515	16197.73
622.709	16099.42
622.904	16119.9
623.099	15546.47
623.294	16169.05
623.488	16119.9
623.683	16060.51
623.878	15700.07
624.072	16023.65
624.267	15517.8
624.462	15685.73
624.656	15540.33
624.851	15908.96
625.046	15747.17
625.24	15517.8
625.435	15159.41
625.629	15474.79
625.824	15632.49
626.018	15317.1
626.213	15102.06
626.407	15349.87
626.602	15413.35
626.796	15384.68
626.991	15118.45
627.185	15069.3
627.38	15036.53
627.574	15194.22
627.768	14887.03
627.963	15097.97
628.157	14704.76
628.352	14696.57
628.546	14415.99
628.74	14868.59
628.935	14686.33
629.129	14751.86
629.323	14643.32
629.517	14403.71
629.712	14700.66
629.906	14506.1
630.1	14526.58
630.294	14829.68
630.489	14530.68
630.683	14508.15
630.877	14426.23
631.071	14471.29
631.265	14358.65
631.459	14135.42
631.653	14073.98
631.848	14538.87
632.042	14051.45
632.236	14014.59
632.43	14028.93
632.624	14172.29
632.818	13860.99
633.012	13697.16
633.206	13596.81
633.4	13856.9
633.594	13987.97
633.788	13623.43
633.982	13805.7
634.176	13744.26
634.369	13564.04
634.563	13418.63
634.757	12968.08
634.951	13443.21
635.145	13617.29
635.339	13336.71
635.533	13119.63
635.726	13148.3
635.92	12822.67
636.114	12656.79
636.308	12937.36
636.501	12853.39
636.695	12968.08
636.889	12478.61
637.083	12507.29
637.276	12538.01
637.47	12288.15
637.664	12298.39
637.857	12339.35
638.051	12234.91
638.244	12069.02
638.438	12304.54
638.632	12030.11
638.825	11870.37
639.019	12251.29
639.212	11657.38
639.406	11727.01
639.599	11454.63
639.793	11405.48
639.986	11215.02
640.18	11503.78
640.373	11466.92
640.567	11184.3
640.76	10901.68
640.954	10940.59
641.147	10893.49
641.34	10817.71
641.534	10533.04
641.727	10326.2
641.92	10694.83
642.114	10385.59
642.307	10219.71
642.5	10236.09
642.694	10066.11
642.887	10029.24
643.08	10006.72
643.273	9863.36
643.467	9877.69
643.66	9666.75
643.853	9224.39
644.046	9611.46
644.239	9416.9
644.432	9371.85
644.626	8954.06
644.819	8884.43
645.012	9255.11
645.205	9185.48
645.398	8800.46
645.591	8956.11
645.784	8650.96
645.977	8566.99
646.17	8599.76
646.363	8528.08
646.556	8288.47
646.749	8212.7
646.942	8425.68
647.135	8327.38
647.328	8321.24
647.521	8247.51
647.714	7817.44
647.907	7891.16
648.099	7848.16
648.292	7962.84
648.485	7854.3
648.678	7721.18
648.871	7704.8
649.064	7577.83
649.256	7487.72
649.449	7252.2
649.642	7479.52
649.835	7295.21
650.027	7057.64
650.22	7354.6
650.413	7413.99
650.605	7287.01
650.798	7035.11
650.991	6861.04
651.183	7133.42
651.376	6883.56
651.568	7055.59
651.761	6848.75
651.954	6973.67
652.146	7065.83
652.339	6764.78
652.531	6838.51
652.724	6719.73
652.916	6639.86
653.109	6303.99
653.301	6578.42
653.494	6877.42
653.686	6689.01
653.879	6498.55
654.071	6541.55
654.263	6543.6
654.456	6232.31
654.648	6287.61
654.84	6318.32
655.033	6312.18
655.225	6494.45
655.417	5951.74
655.61	6127.86
655.802	6498.55
655.994	6342.9
656.186	6047.99
656.379	6209.78
656.571	6074.62
656.763	5933.31
656.955	5869.82
657.148	5921.02
657.34	6062.33
657.532	5695.74
657.724	5742.85
657.916	5859.58
658.108	5898.49
658.3	5796.09
658.492	5669.12
658.684	5214.47
658.876	5656.83
659.068	5312.77
659.26	5210.37
659.452	5402.88
659.644	5531.9
659.836	5437.7
660.028	5177.61
660.22	5024.01
660.412	5189.89
660.604	5058.82
660.796	5093.64
660.988	4899.08
661.18	4993.29
661.372	4940.04
661.563	4827.4
661.755	4798.73
661.947	4696.33
662.139	4786.44
662.331	4677.9
662.522	4454.67
662.714	4475.15
662.906	4428.05
663.097	4395.28
663.289	4245.78
663.481	4124.95
663.673	4411.67
663.864	4133.14
664.056	4382.99
664.247	3957.02
664.439	4360.47
664.631	4108.57
664.822	3938.59
665.014	4174.1
665.205	4090.13
665.397	3744.03
665.588	3914.01
665.78	4004.12
665.971	3877.15
666.163	3881.24
666.354	3485.98
666.546	3795.23
666.737	3584.29
666.929	3541.28
667.12	3522.85
667.311	3633.44
667.503	3631.39
667.694	3586.33
667.885	3498.27
668.077	3578.14
668.268	3199.27
668.459	3307.81
668.651	3469.6
668.842	3449.12
669.033	3121.45
669.224	3160.36
669.416	3412.26
669.607	3334.43
669.798	3158.31
669.989	3182.88
670.18	2951.46
670.371	3334.43
670.563	2892.07
670.754	3176.74
670.945	3053.86
671.136	3279.14
671.327	2918.7
671.518	3004.71
671.709	3043.62
671.9	3172.64
672.091	3160.36
672.282	3017
672.473	2763.05
672.664	2996.52
672.855	3014.95
673.046	2826.54
673.237	2865.45
673.428	2939.18
673.619	2994.47
673.809	2849.07
674	2822.44
674.191	2945.32
674.382	2953.51
674.573	2789.67
674.764	2740.52
674.954	3129.64
675.145	2752.81
675.336	2627.89
675.527	2668.84
675.717	2746.67
675.908	2818.35
676.099	2687.28
676.289	2711.85
676.48	2609.45
676.671	2773.29
676.861	2658.6
677.052	2695.47
677.243	2849.07
677.433	2881.83
677.624	2756.91
677.814	2730.28
678.005	2738.48
678.195	2902.31
678.386	2783.53
678.576	2670.89
678.767	2720.04
678.957	2914.6
679.148	2777.39
679.338	2851.11
679.529	2941.22
679.719	2924.84
679.909	2969.9
680.1	2810.15
680.29	3103.01
680.481	2715.95
680.671	2847.02
680.861	2754.86
681.052	3055.91
681.242	2896.17
681.432	2984.23
681.622	2894.12
681.813	2810.15
682.003	2933.03
682.193	2824.49
682.383	2939.18
682.573	3088.68
682.764	3125.54
682.954	3092.77
683.144	3354.91
683.334	3203.36
683.524	3295.52
683.714	3324.19
683.904	3350.82
684.094	3383.59
684.284	3293.48
684.474	3334.43
684.664	3414.31
684.854	3584.29
685.044	3467.55
685.234	3346.72
685.424	3494.18
685.614	3404.07
685.804	3840.28
685.994	3518.75
686.184	3666.21
686.374	3834.14
686.564	3838.23
686.753	3793.18
686.943	3666.21
687.133	3940.63
687.323	3914.01
687.513	3969.3
687.702	3946.78
687.892	4249.88
688.082	4294.93
688.272	4165.91
688.461	4344.08
688.651	4540.69
688.841	4690.19
689.03	4401.43
689.22	4387.09
689.41	4722.96
689.599	4790.54
689.789	4583.7
689.979	4708.62
690.168	4874.51
690.358	4806.92
690.547	4849.93
690.737	4952.33
690.926	5124.36
691.116	5177.61
691.305	5087.5
691.495	5091.59
691.684	5316.87
691.874	5239.05
692.063	5366.02
692.252	5464.32
692.442	5701.89
692.631	5492.99
692.82	5396.74
693.01	5542.14
693.199	5767.42
693.388	5859.58
693.578	5865.72
693.767	5845.24
693.956	5994.75
694.146	6103.29
694.335	6009.08
694.524	5892.35
694.713	6373.62
694.902	6177.02
695.092	6111.48
695.281	6369.52
695.47	6363.38
695.659	6281.46
695.848	6283.51
696.037	6383.86
696.226	6592.75
696.415	6625.52
696.604	6846.7
696.793	6588.66
696.982	6658.29
697.171	6869.23
697.36	6623.47
697.549	6742.25
697.738	6535.41
697.927	6750.45
698.116	6873.32
698.305	6818.03
698.494	7233.77
698.683	6924.52
698.872	6897.9
699.061	6887.66
699.25	7047.4
699.438	7272.68
699.627	6922.48
699.816	7246.05
700.005	7127.27
700.193	7102.7
700.382	7147.75
700.571	7219.43
700.76	7379.17
700.948	7598.31
701.137	7080.17
701.326	7403.75
701.514	7110.89
701.703	7377.12
701.892	7276.77
702.08	7301.35
702.269	7401.7
702.457	7452.9
702.646	7370.98
702.834	7231.72
703.023	7438.56
703.212	7530.72
703.4	7284.97
703.589	7260.39
703.777	7323.88
703.965	7434.47
704.154	7231.72
704.342	7438.56
704.531	7575.78
704.719	7393.51
704.907	7416.04
705.096	7094.51
705.284	7397.6
705.472	7399.65
705.661	7450.85
705.849	7409.89
706.037	7563.49
706.226	7573.73
706.414	7420.13
706.602	7432.42
706.79	7756
706.979	7413.99
707.167	7360.74
707.355	7291.11
707.543	7704.8
707.731	7604.45
707.919	7432.42
708.107	7207.14
708.296	7497.95
708.484	7192.81
708.672	7350.5
708.86	7358.69
709.048	7256.29
709.236	7532.77
709.424	7274.73
709.612	7409.89
709.8	7182.57
709.988	7381.22
710.176	7463.14
710.364	7311.59
710.551	7377.12
710.739	7485.67
710.927	7194.86
711.115	7137.51
711.303	7409.89
711.491	7483.62
711.679	7010.54
711.866	7104.74
712.054	7364.84
712.242	7205.1
712.43	7307.49
712.617	7141.61
712.805	7397.6
712.993	7174.38
713.181	6904.04
713.368	7039.21
713.556	7117.03
713.744	6918.38
713.931	7147.75
714.119	6959.34
714.306	7114.98
714.494	7018.73
714.682	6940.91
714.869	6707.44
715.057	6938.86
715.244	6772.97
715.432	7010.54
715.619	6727.92
715.807	6936.81
715.994	6916.33
716.182	6729.97
716.369	6852.84
716.556	6926.57
716.744	6746.35
716.931	6705.39
717.119	6729.97
717.306	6863.08
717.493	6924.52
717.681	6594.8
717.868	6539.51
718.055	6885.61
718.242	6660.34
718.43	6539.51
718.617	6420.72
718.804	6488.31
718.991	6623.47
719.179	6349.04
719.366	6426.87
719.553	6410.48
719.74	6478.07
719.927	6267.13
720.114	6181.11
720.301	6338.8
720.488	6392.05
720.676	6052.09
720.863	6387.96
721.05	6697.2
721.237	6260.98
721.424	6213.88
721.611	6160.63
721.798	6293.75
721.985	5935.35
722.172	6031.61
722.358	6041.85
722.545	6289.65
722.732	6150.39
722.919	6250.74
723.106	5937.4
723.293	6131.96
723.48	6002.94
723.667	5921.02
723.853	5863.68
724.04	6035.71
724.227	5998.84
724.414	5744.89
724.6	5658.88
724.787	6027.51
724.974	6062.33
725.161	5812.48
725.347	5658.88
725.534	5845.24
725.72	5800.19
725.907	5550.34
726.094	5710.08
726.28	5474.56
726.467	5665.02
726.653	5368.07
726.84	5763.33
727.027	5744.89
727.213	5474.56
727.4	5480.71
727.586	5292.29
727.773	5632.26
727.959	5560.58
728.145	5310.72
728.332	5452.03
728.518	5413.12
728.705	5370.12
728.891	5200.13
729.077	5257.48
729.264	5386.5
729.45	5253.38
729.636	5320.96
729.823	5153.03
730.009	5396.74
730.195	5409.03
730.382	5327.11
730.568	5140.74
730.754	5363.97
730.94	5165.32
731.126	5093.64
731.313	5087.5
731.499	5099.78
731.685	5257.48
731.871	5062.92
732.057	5165.32
732.243	5239.05
732.429	5097.74
732.615	4876.55
732.801	4808.97
732.987	4948.23
733.173	4958.47
733.359	4808.97
733.545	4974.86
733.731	4878.6
733.917	5146.89
734.103	4747.53
734.289	4725.01
734.475	4808.97
734.661	5126.41
734.847	4784.4
735.033	4868.36
735.219	5017.86
735.404	4854.03
735.59	4694.29
735.776	4450.58
735.962	4782.35
736.148	4819.21
736.333	4702.48
736.519	4464.91
736.705	4706.57
736.89	4608.27
737.076	4454.67
737.262	4403.47
737.447	4557.07
737.633	4536.59
737.819	4647.18
738.004	4346.13
738.19	4450.58
738.375	4548.88
738.561	4481.3
738.747	4276.5
738.932	4262.16
739.118	4581.65
739.303	4380.95
739.489	4329.75
739.674	4387.09
739.859	4229.4
740.045	4129.05
740.23	4299.03
740.416	4030.74
740.601	4247.83
740.786	4055.32
740.972	3981.59
741.157	4135.19
741.342	3944.73
741.528	3993.88
741.713	4133.14
741.898	3961.11
742.084	4045.08
742.269	4020.5
742.454	3991.83
742.639	4233.49
742.824	4049.18
743.01	4083.99
743.195	4124.95
743.38	4047.13
743.565	3987.74
743.75	3819.8
743.935	3795.23
744.12	4043.03
744.305	3752.22
744.49	3854.62
744.675	3592.48
744.86	3830.04
745.045	3909.91
745.23	3610.91
745.415	3574.05
745.6	3889.43
745.785	3678.49
745.97	3680.54
746.155	3496.22
746.34	3733.79
746.525	3662.11
746.71	3612.96
746.895	3256.61
747.079	3385.63
747.264	3438.88
747.449	3467.55
747.634	3379.49
747.819	3576.09
748.003	3479.84
748.188	3258.66
748.373	3385.63
748.557	3453.22
748.742	3518.75
748.927	3191.08
749.111	3137.83
749.296	3236.13
749.481	3320.1
749.665	3332.39
749.85	3113.25
750.034	3344.67
750.219	3285.28
750.404	2986.28
750.588	2963.75
750.773	2992.42
750.957	3189.03
751.141	2973.99
751.326	3199.27
751.51	2967.85
751.695	2973.99
751.879	3084.58
752.064	3066.15
752.248	3027.24
752.432	3076.39
752.617	2785.58
752.801	2953.51
752.985	2853.16
753.17	3094.82
753.354	2828.59
753.538	2777.39
753.722	2918.7
753.907	2752.81
754.091	2640.17
754.275	2689.32
754.459	2591.02
754.643	2607.41
754.828	2679.08
755.012	2591.02
755.196	2535.73
755.38	2728.24
755.564	2523.44
755.748	2412.85
755.932	2660.65
756.116	2609.45
756.3	2541.87
756.484	2638.13
756.668	2726.19
756.852	2371.89
757.036	2353.46
757.22	2330.93
757.404	2511.15
757.588	2455.86
757.772	2404.66
757.956	2265.39
758.14	2607.41
758.323	2197.81
758.507	2273.59
758.691	2208.05
758.875	2539.82
759.059	2507.06
759.242	2001.21
759.426	2189.62
759.61	2220.34
759.794	2136.37
759.977	2191.67
760.161	2488.62
760.345	2332.98
760.528	2242.87
760.712	2083.13
760.895	1929.53
761.079	1952.06
761.263	1849.66
761.446	1800.51
761.63	1761.59
761.813	2107.7
761.997	1743.16
762.18	1945.91
762.364	1911.1
762.547	1767.74
762.731	1839.42
762.914	1880.38
763.098	1712.44
763.281	1814.84
763.464	1718.59
763.648	1851.71
763.831	1749.31
764.015	1784.12
764.198	1945.91
764.381	1808.7
764.564	1704.25
764.748	2042.17
764.931	1964.34
765.114	1765.69
765.297	1868.09
765.481	1794.36
765.664	1945.91
765.847	1651
766.03	1757.5
766.213	1728.83
766.397	1814.84
766.58	1618.24
766.763	1757.5
766.946	1786.17
767.129	1814.84
767.312	1788.22
767.495	1767.74
767.678	1827.13
767.861	1921.34
768.044	1665.34
768.227	1814.84
768.41	1833.27
768.593	1896.76
768.776	1904.95
768.959	1671.48
769.142	1997.11
769.324	1802.55
769.507	1769.79
769.69	1757.5
769.873	1839.42
770.056	2036.02
770.239	1714.49
770.421	1872.18
770.604	1915.19
770.787	1726.78
770.97	1767.74
771.152	1669.44
771.335	1855.8
771.518	1702.2
771.7	1720.64
771.883	1849.66
772.066	1724.73
772.248	1784.12
772.431	1720.64
772.613	1734.97
772.796	1687.87
772.978	1741.11
773.161	1874.23
773.343	1438.02
773.526	1704.25
773.708	1532.22
773.891	1423.68
774.073	1663.29
774.256	1632.57
774.438	1894.71
774.621	1493.31
774.803	1519.93
774.985	1601.85
775.168	1782.07
775.35	1474.88
775.532	1597.76
775.715	1399.1
775.897	1677.63
776.079	1497.41
776.261	1521.98
776.444	1597.76
776.626	1415.49
776.808	1368.38
776.99	1311.04
777.173	1546.56
777.355	1493.31
777.537	1311.04
777.719	1456.45
777.901	1327.43
778.083	1444.16
778.265	1261.89
778.447	1356.1
778.629	1298.75
778.811	1454.4
778.993	1401.15
779.175	1331.52
779.357	1429.82
779.539	1337.66
779.721	1390.91
779.903	1337.66
780.085	1341.76
780.267	1409.34
780.449	1225.03
780.631	1349.95
780.812	1569.09
780.994	1243.46
781.176	1155.4
781.358	1177.92
781.54	1261.89
781.721	1392.96
781.903	1110.34
782.085	1251.65
782.267	1478.97
782.448	1145.16
782.63	1143.11
782.812	1229.12
782.993	1225.03
783.175	1325.38
783.357	1059.14
783.538	1141.06
783.72	1147.2
783.901	1194.31
784.083	1130.82
784.264	1132.87
784.446	958.79
784.627	958.79
784.809	1081.67
784.99	1055.05
785.172	1286.47
785.353	1055.05
785.535	1055.05
785.716	827.72
785.897	966.98
786.079	1028.42
786.26	909.64
786.441	1044.81
786.623	862.54
786.804	911.69
786.985	919.88
787.167	897.35
787.348	1077.57
787.529	1050.95
787.71	1057.09
787.891	917.83
788.073	983.37
788.254	749.9
788.435	1079.62
788.616	952.65
788.797	887.11
788.978	858.44
789.159	786.76
789.34	956.74
789.522	1061.19
789.703	880.97
789.884	870.73
790.065	903.5
790.246	1067.33
790.427	840.01
790.607	997.7
790.788	907.59
790.969	753.99
791.15	862.54
791.331	819.53
791.512	807.24
791.693	682.31
791.874	850.25
792.054	915.78
792.235	880.97
792.416	719.18
792.597	667.98
792.778	786.76
792.958	741.71
793.139	921.93
793.32	731.47
793.5	606.54
793.681	833.86
793.862	921.93
794.042	737.61
794.223	532.81
794.404	643.4
794.584	500.05
794.765	813.38
794.945	725.32
795.126	862.54
795.306	983.37
795.487	680.27
795.667	665.93
795.848	672.08
796.028	758.09
796.209	678.22
796.389	760.14
796.57	579.92
796.75	624.97
796.93	614.73
797.111	592.2
797.291	641.36
797.471	794.95
797.652	713.03
797.832	590.16
798.012	661.84
798.192	620.88
798.373	432.46
798.553	647.5
798.733	729.42
798.913	518.48
799.093	723.27
799.274	604.49
799.454	534.86
799.634	778.57
799.814	772.43
799.994	708.94
800.174	661.84
800.354	700.75
800.534	524.62
800.714	653.64
800.894	465.23
801.074	516.43
801.254	508.24
801.434	702.79
801.614	459.09
801.794	463.18
801.974	4190.49
802.154	428.37
802.334	557.39
802.514	528.72
802.693	667.98
802.873	416.08
803.053	631.12
803.233	606.54
803.413	543.05
803.592	432.46
803.772	381.26
803.952	522.57
804.131	399.7
804.311	594.25
804.491	498
804.67	465.23
804.85	442.7
805.03	579.92
805.209	536.91
805.389	553.29
805.568	471.37
805.748	401.74
805.928	498
806.107	670.03
806.287	524.62
806.466	520.53
806.646	510.29
806.825	487.76
807.004	477.52
807.184	549.2
807.363	440.65
807.543	608.59
807.722	381.26
807.901	686.41
808.081	483.66
808.26	149.84
808.439	498
808.619	420.17
808.798	332.11
808.977	532.81
809.156	577.87
809.336	504.14
809.515	383.31
809.694	498
809.873	405.84
810.052	373.07
810.231	512.33
810.411	532.81
810.59	553.29
810.769	493.9
810.948	465.23
811.127	219.47
811.306	438.61
811.485	340.3
811.664	452.94
811.843	553.29
812.022	465.23
812.201	258.39
812.38	254.29
812.559	387.41
812.737	518.48
812.916	196.95
813.095	313.68
813.274	446.8
813.453	450.89
813.632	297.3
813.811	487.76
813.989	266.58
814.168	483.66
814.347	227.67
814.526	332.11
814.704	561.48
814.883	725.32
815.062	145.75
815.24	256.34
815.419	297.3
815.598	514.38
815.776	137.56
815.955	291.15
816.133	166.23
816.312	330.06
816.49	297.3
816.669	332.11
816.847	379.22
817.026	395.6
817.204	295.25
817.383	205.14
817.561	362.83
817.74	454.99
817.918	350.54
818.097	162.13
818.275	330.06
818.453	446.8
818.632	393.55
818.81	244.05
818.988	323.92
819.167	242
819.345	285.01
819.523	278.87
819.701	422.22
819.879	401.74
820.058	321.87
820.236	252.24
820.414	473.42
820.592	285.01
820.77	426.32
820.948	223.57
821.127	348.5
821.305	434.51
821.483	76.12
821.661	336.21
821.839	393.55
822.017	311.63
822.195	235.86
822.373	266.58
822.551	364.88
822.729	340.3
822.907	256.34
823.085	297.3
823.262	379.22
823.44	287.06
823.618	293.2
823.796	233.81
823.974	252.24
824.152	209.23
824.329	184.66
824.507	258.39
824.685	438.61
824.863	352.59
825.04	282.96
825.218	272.72
825.396	389.46
825.574	309.58
825.751	246.1
825.929	198.99
826.107	176.47
826.284	430.41
826.462	256.34
826.639	194.9
826.817	178.51
826.994	305.49
827.172	198.99
827.349	315.73
827.527	332.11
827.704	319.82
827.882	434.51
828.059	198.99
828.237	258.39
828.414	334.16
828.591	59.73
828.769	229.71
828.946	182.61
829.124	475.47
829.301	414.03
829.478	188.75
829.655	358.74
829.833	280.91
830.01	22.87
830.187	391.5
830.364	356.69
830.542	354.64
830.719	270.67
830.896	282.96
831.073	352.59
831.25	323.92
831.427	133.46
831.604	205.14
831.782	258.39
831.959	373.07
832.136	217.43
832.313	301.39
832.49	293.2
832.667	346.45
832.844	160.08
833.021	321.87
833.198	301.39
833.374	328.02
833.551	258.39
833.728	143.7
833.905	424.27
834.082	37.2
834.259	323.92
834.436	254.29
834.612	137.56
834.789	463.18
834.966	256.34
835.143	184.66
835.319	143.7
835.496	280.91
835.673	162.13
835.85	219.47
836.026	405.84
836.203	342.35
836.38	211.28
836.556	184.66
836.733	233.81
836.909	514.38
837.086	168.27
837.262	12.63
837.439	254.29
837.616	196.95
837.792	141.65
837.968	121.17
838.145	12.63
838.321	227.67
838.498	143.7
838.674	358.74
838.851	229.71
839.027	219.47
839.203	188.75
839.38	237.91
839.556	237.91
839.732	325.97
839.909	104.79
840.085	123.22
840.261	166.23
840.437	332.11
840.614	135.51
840.79	164.18
840.966	366.93
841.142	266.58
841.318	102.74
841.494	203.09
841.671	299.34
841.847	94.55
842.023	112.98
842.199	98.64
842.375	389.46
842.551	-7.85
842.727	63.83
842.903	242
843.079	198.99
843.255	418.13
843.431	168.27
843.607	219.47
843.783	-18.09
843.959	285.01
844.134	162.13
844.31	285.01
844.486	221.52
844.662	223.57
844.838	108.88
845.013	198.99
845.189	328.02
845.365	246.1
845.541	88.4
845.716	293.2
845.892	409.94
846.068	223.57
846.244	86.36
846.419	160.08
846.595	106.84
846.77	55.64
846.946	248.15
847.122	129.36
847.297	205.14
847.473	541.01
847.648	47.44
847.824	80.21
847.999	-48.81
848.175	278.87
848.35	235.86
848.526	371.02
848.701	375.12
848.876	350.54
849.052	309.58
849.227	194.9
849.403	176.47
849.578	246.1
849.753	217.43
849.929	61.78
850.104	90.45
850.279	151.89
850.454	129.36
850.63	213.33
850.805	280.91
850.98	250.19
851.155	145.75
851.33	242
851.505	33.11
851.681	364.88
851.856	61.78
852.031	170.32
852.206	205.14
852.381	16.73
852.556	131.41
852.731	29.01
852.906	362.83
853.081	334.16
853.256	186.71
853.431	125.27
853.606	227.67
853.781	176.47
853.956	-42.67
854.131	88.4
854.305	125.27
854.48	96.6
854.655	49.49
854.83	123.22
855.005	117.08
855.18	198.99
855.354	98.64
855.529	110.93
855.704	172.37
855.879	280.91
856.053	45.4
856.228	115.03
856.403	67.92
856.577	160.08
856.752	-22.19
856.926	96.6
857.101	256.34
857.276	12.63
857.45	201.04
857.625	225.62
857.799	239.95
857.974	137.56
858.148	-87.72
858.323	119.12
858.497	184.66
858.672	65.88
858.846	65.88
859.02	186.71
859.195	98.64
859.369	178.51
859.543	192.85
859.718	143.7
859.892	217.43
860.066	266.58
860.241	143.7
860.415	51.54
860.589	235.86
860.763	201.04
860.938	92.5
861.112	100.69
861.286	141.65
861.46	213.33
861.634	119.12
861.808	129.36
861.982	115.03
862.157	98.64
862.331	94.55
862.505	-44.71
862.679	37.2
862.853	119.12
863.027	63.83
863.201	180.56
863.375	102.74
863.549	242
863.722	145.75
863.896	198.99
864.07	37.2
864.244	139.6
864.418	229.71
864.592	143.7
864.766	258.39
864.939	203.09
865.113	51.54
865.287	248.15
865.461	39.25
865.634	149.84
865.808	61.78
865.982	37.2
866.156	94.55
866.329	-40.62
866.503	149.84
866.676	119.12
866.85	252.24
867.024	117.08
867.197	311.63
867.371	78.16
867.544	203.09
867.718	53.59
867.891	219.47
868.065	-52.91
868.238	106.84
868.412	295.25
868.585	119.12
868.759	90.45
868.932	127.32
869.105	14.68
869.279	170.32
869.452	-63.15
869.625	270.67
869.799	143.7
869.972	-18.09
870.145	129.36
870.319	358.74
870.492	67.92
870.665	76.12
870.838	0.34
871.011	-102.06
871.185	110.93
871.358	67.92
871.531	160.08
871.704	67.92
871.877	108.88
872.05	33.11
872.223	76.12
872.396	356.69
872.569	231.76
872.742	26.96
872.915	164.18
873.088	86.36
873.261	41.3
873.434	180.56
873.607	102.74
873.78	379.22
873.953	-59.05
874.126	180.56
874.299	100.69
874.471	63.83
874.644	100.69
874.817	192.85
874.99	178.51
875.163	127.32
875.335	194.9
875.508	18.77
875.681	176.47
875.853	176.47
876.026	250.19
876.199	192.85
876.371	76.12
876.544	102.74
876.717	151.89
876.889	129.36
877.062	90.45
877.234	47.44
877.407	72.02
877.579	102.74
877.752	90.45
877.924	299.34
878.097	258.39
878.269	131.41
878.442	180.56
878.614	225.62
878.786	211.28
878.959	102.74
879.131	141.65
879.303	-57
879.476	162.13
879.648	209.23
879.82	14.68
879.993	168.27
880.165	55.64
880.337	-18.09
880.509	186.71
880.681	-42.67
880.854	94.55
881.026	158.03
881.198	266.58
881.37	115.03
881.542	104.79
881.714	94.55
881.886	-16.04
882.058	219.47
882.23	158.03
882.402	92.5
882.574	117.08
882.746	194.9
882.918	348.5
883.09	151.89
883.262	98.64
883.434	321.87
883.606	-20.14
883.778	61.78
883.95	198.99
884.122	94.55
884.293	280.91
884.465	137.56
884.637	211.28
884.809	10.58
884.98	164.18
885.152	196.95
885.324	196.95
885.496	8.53
885.667	94.55
885.839	-16.04
886.011	45.4
886.182	176.47
886.354	270.67
886.525	231.76
886.697	10.58
886.869	59.73
887.04	143.7
887.212	219.47
887.383	231.76
887.555	158.03
887.726	106.84
887.897	41.3
888.069	166.23
888.24	272.72
888.412	86.36
888.583	76.12
888.754	94.55
888.926	-87.72
889.097	88.4
889.268	-18.09
889.44	65.88
889.611	47.44
889.782	-71.34
889.953	-63.15
890.125	205.14
890.296	-16.04
890.467	55.64
890.638	-48.81
890.809	55.64
890.98	90.45
891.151	213.33
891.323	250.19
891.494	67.92
891.665	180.56
891.836	86.36
892.007	20.82
892.178	137.56
892.349	242
892.52	104.79
892.691	84.31
892.862	-24.23
893.032	-48.81
893.203	90.45
893.374	201.04
893.545	151.89
893.716	63.83
893.887	287.06
894.057	-13.99
894.228	39.25
894.399	37.2
894.57	344.4
894.74	112.98
894.911	82.26
895.082	112.98
895.253	22.87
895.423	55.64
895.594	180.56
895.764	237.91
895.935	24.92
896.106	162.13
896.276	29.01
896.447	201.04
896.617	-81.58
896.788	-57
896.958	-18.09
897.129	22.87
897.299	-24.23
897.47	244.05
897.64	72.02
897.81	14.68
897.981	162.13
898.151	61.78
898.322	84.31
898.492	239.95
898.662	41.3
898.832	33.11
899.003	59.73
899.173	252.24
899.343	49.49
899.513	-16.04
