Data from USB4F104151__31__12-20-33-690.txt Node

Date: Wed Feb 19 12:20:33 EST 2025
User: louis
Spectrometer: USB4F10415
Trigger mode: 4
Integration Time (sec): 2.250200E-1
Scans to average: 1
Electric dark correction enabled: true
Nonlinearity correction enabled: false
Boxcar width: 0
XAxis mode: Wavelengths
Number of Pixels in Spectrum: 3648
>>>>>Begin Spectral Data<<<<<
178.204	-872.61
178.424	-872.61
178.644	-872.61
178.864	-872.61
179.084	-858.27
179.304	94.04
179.524	65.36
179.744	-4.27
179.964	-143.53
180.184	331.6
180.404	169.81
180.624	-303.27
180.844	-127.14
181.064	16.21
181.283	149.33
181.503	-143.53
181.723	-104.62
181.943	-86.19
182.163	415.57
182.383	-196.78
182.602	-200.87
182.822	313.17
183.042	264.02
183.262	-174.25
183.482	-194.73
183.701	137.04
183.921	249.68
184.141	-133.29
184.361	-77.99
184.58	276.31
184.8	159.57
185.02	-254.12
185.239	-82.09
185.459	266.07
185.679	366.42
185.898	-301.22
186.118	-268.45
186.338	251.73
186.557	343.89
186.777	-172.2
186.997	-252.07
187.216	161.62
187.436	493.39
187.655	-161.96
187.875	3.93
188.095	245.59
188.314	333.65
188.534	-77.99
188.753	-254.12
188.973	427.85
189.192	477.01
189.412	-239.78
189.631	-190.63
189.851	298.83
190.07	446.29
190.29	-194.73
190.509	-213.16
190.729	198.48
190.948	378.7
191.168	-65.71
191.387	-223.4
191.607	145.24
191.826	272.21
192.045	-182.44
192.265	-247.97
192.484	329.55
192.704	206.67
192.923	-88.23
193.142	-59.56
193.362	317.26
193.581	364.37
193.8	-118.95
194.02	-145.58
194.239	192.34
194.458	304.98
194.678	-143.53
194.897	-274.6
195.116	268.11
195.335	235.35
195.555	-178.34
195.774	-227.5
195.993	388.94
196.212	102.23
196.432	-155.82
196.651	-202.92
196.87	214.87
197.089	599.88
197.308	-164.01
197.528	-125.1
197.747	81.75
197.966	251.73
198.185	-43.18
198.404	-219.3
198.623	259.92
198.842	362.32
199.062	-47.27
199.281	-75.95
199.5	194.39
199.719	259.92
199.938	-215.21
200.157	-192.68
200.376	323.41
200.595	378.7
200.814	-82.09
201.033	-135.34
201.252	468.81
201.471	190.29
201.69	-159.91
201.909	-94.38
202.128	235.35
202.347	298.83
202.566	-135.34
202.785	-319.65
203.004	143.19
203.223	485.2
203.442	-135.34
203.661	-239.78
203.879	288.59
204.098	368.46
204.317	-180.39
204.536	-71.85
204.755	272.21
204.974	294.74
205.193	-321.7
205.411	-139.43
205.63	309.07
205.849	307.02
206.068	-202.92
206.287	-233.64
206.505	356.18
206.724	221.01
206.943	-227.5
207.162	-161.96
207.381	192.34
207.599	118.61
207.818	-30.89
208.037	-215.21
208.255	229.2
208.474	302.93
208.693	-204.97
208.911	-202.92
209.13	335.7
209.349	290.64
209.567	-18.6
209.786	-149.67
210.005	354.13
210.223	241.49
210.442	-280.74
210.661	-299.17
210.879	321.36
211.098	167.76
211.316	-202.92
211.535	-250.02
211.753	241.49
211.972	190.29
212.191	-149.67
212.409	-80.04
212.628	374.61
212.846	130.9
213.065	-260.26
213.283	-57.51
213.502	184.15
213.72	206.67
213.938	-247.97
214.157	-235.69
214.375	298.83
214.594	198.48
214.812	-190.63
215.031	-135.34
215.249	149.33
215.467	239.44
215.686	-92.33
215.904	-168.1
216.122	274.26
216.341	436.05
216.559	-32.94
216.778	-51.37
216.996	380.75
217.214	61.27
217.432	-112.81
217.651	-229.54
217.869	216.91
218.087	192.34
218.306	-293.03
218.524	-96.43
218.742	175.95
218.96	272.21
219.179	-112.81
219.397	-209.06
219.615	526.16
219.833	247.63
220.051	-207.02
220.27	-77.99
220.488	331.6
220.706	304.98
220.924	-217.26
221.142	-252.07
221.36	304.98
221.578	198.48
221.796	-176.3
222.015	-77.99
222.233	253.78
222.451	499.53
222.669	-178.34
222.887	-176.3
223.105	38.74
223.323	130.9
223.541	-127.14
223.759	-92.33
223.977	173.91
224.195	436.05
224.413	-88.23
224.631	-164.01
224.849	221.01
225.067	446.29
225.285	-53.42
225.503	-219.3
225.721	28.5
225.939	292.69
226.157	-114.86
226.375	55.12
226.592	135
226.81	196.43
227.028	-34.99
227.246	-123.05
227.464	208.72
227.682	382.8
227.9	-96.43
228.117	-80.04
228.335	286.54
228.553	65.36
228.771	-215.21
228.989	-196.78
229.206	380.75
229.424	149.33
229.642	-168.1
229.86	-123.05
230.077	440.14
230.295	198.48
230.513	-94.38
230.731	-194.73
230.948	421.71
231.166	415.57
231.384	-94.38
231.601	-61.61
231.819	395.09
232.037	85.84
232.254	-118.95
232.472	-149.67
232.689	167.76
232.907	292.69
233.125	-186.54
233.342	-215.21
233.56	161.62
233.777	67.41
233.995	-145.58
234.213	-92.33
234.43	300.88
234.648	208.72
234.865	-223.4
235.083	-125.1
235.3	243.54
235.518	231.25
235.735	-100.52
235.953	-22.7
236.17	171.86
236.388	137.04
236.605	3.93
236.822	-125.1
237.04	337.74
237.257	200.53
237.475	-174.25
237.692	-61.61
237.909	325.46
238.127	157.52
238.344	-30.89
238.562	-82.09
238.779	-22.7
238.996	42.84
239.214	-49.32
239.431	-159.91
239.648	141.14
239.865	182.1
240.083	-57.51
240.3	-217.26
240.517	149.33
240.735	214.87
240.952	26.45
241.169	-155.82
241.386	249.68
241.603	124.76
241.821	-135.34
242.038	-94.38
242.255	362.32
242.472	100.18
242.689	-53.42
242.907	-133.29
243.124	190.29
243.341	286.54
243.558	-125.1
243.775	-250.02
243.992	26.45
244.209	278.35
244.426	-84.14
244.643	-116.9
244.86	145.24
245.078	268.11
245.295	-90.28
245.512	-200.87
245.729	69.46
245.946	327.5
246.163	-114.86
246.38	-159.91
246.597	208.72
246.814	175.95
247.031	-51.37
247.248	-229.54
247.464	356.18
247.681	245.59
247.898	-88.23
248.115	-90.28
248.332	132.95
248.549	403.28
248.766	18.26
248.983	-118.95
249.2	323.41
249.417	261.97
249.633	-178.34
249.85	-22.7
250.067	192.34
250.284	130.9
250.501	-153.77
250.717	-141.48
250.934	-28.84
251.151	190.29
251.368	-61.61
251.585	-94.38
251.801	221.01
252.018	79.7
252.235	-0.17
252.451	-149.67
252.668	200.53
252.885	409.42
253.102	-14.51
253.318	-47.27
253.535	186.19
253.752	79.7
253.968	-207.02
254.185	-276.65
254.401	198.48
254.618	255.83
254.835	-84.14
255.051	-116.9
255.268	280.4
255.484	192.34
255.701	-47.27
255.917	-61.61
256.134	59.22
256.351	182.1
256.567	-200.87
256.784	-12.46
257	-0.17
257.217	341.84
257.433	81.75
257.65	-67.75
257.866	390.99
258.082	32.6
258.299	-139.43
258.515	-92.33
258.732	167.76
258.948	87.89
259.165	-102.57
259.381	-135.34
259.597	272.21
259.814	67.41
260.03	-188.58
260.246	-127.14
260.463	325.46
260.679	327.5
260.895	-37.03
261.112	-114.86
261.328	194.39
261.544	55.12
261.761	-129.19
261.977	-141.48
262.193	28.5
262.409	321.36
262.626	42.84
262.842	-118.95
263.058	44.88
263.274	280.4
263.49	-2.22
263.707	-161.96
263.923	372.56
264.139	1.88
264.355	-123.05
264.571	-141.48
264.787	286.54
265.004	366.42
265.22	-41.13
265.436	-135.34
265.652	237.39
265.868	331.6
266.084	-198.82
266.3	-172.2
266.516	59.22
266.732	190.29
266.948	-102.57
267.164	-223.4
267.38	302.93
267.596	233.3
267.812	44.88
268.028	-47.27
268.244	135
268.46	155.47
268.676	-32.94
268.892	-45.23
269.108	55.12
269.324	59.22
269.54	-141.48
269.756	-67.75
269.972	5.97
270.188	255.83
270.403	-229.54
270.619	-116.9
270.835	233.3
271.051	163.67
271.267	-102.57
271.483	-188.58
271.698	315.22
271.914	270.16
272.13	10.07
272.346	-88.23
272.562	192.34
272.777	425.81
272.993	-4.27
273.209	-170.15
273.425	233.3
273.64	-26.79
273.856	-114.86
274.072	-227.5
274.287	83.8
274.503	264.02
274.719	63.32
274.934	-209.06
275.15	14.17
275.366	204.63
275.581	-174.25
275.797	-102.57
276.012	122.71
276.228	182.1
276.444	-4.27
276.659	147.28
276.875	73.56
277.09	126.8
277.306	-104.62
277.521	-16.55
277.737	186.19
277.952	196.43
278.168	-34.99
278.383	-53.42
278.599	116.56
278.814	321.36
279.03	-84.14
279.245	-22.7
279.461	151.38
279.676	173.91
279.892	-94.38
280.107	-192.68
280.322	-0.17
280.538	157.52
280.753	-121
280.969	-86.19
281.184	266.07
281.399	276.31
281.615	48.98
281.83	34.64
282.045	-39.08
282.26	8.02
282.476	-104.62
282.691	55.12
282.906	186.19
283.122	212.82
283.337	-14.51
283.552	-8.36
283.767	42.84
283.983	124.76
284.198	-67.75
284.413	-159.91
284.628	-30.89
284.843	161.62
285.058	-125.1
285.274	-139.43
285.489	65.36
285.704	175.95
285.919	-84.14
286.134	-59.56
286.349	141.14
286.564	53.08
286.779	48.98
286.995	8.02
287.21	-14.51
287.425	218.96
287.64	-63.66
287.855	114.52
288.07	-12.46
288.285	286.54
288.5	-0.17
288.715	-90.28
288.93	128.85
289.145	34.64
289.36	-92.33
289.575	-67.75
289.79	376.66
290.004	-6.31
290.219	81.75
290.434	-63.66
290.649	169.81
290.864	63.32
291.079	1.88
291.294	-34.99
291.509	233.3
291.724	175.95
291.938	-71.85
292.153	-145.58
292.368	149.33
292.583	212.82
292.798	26.45
293.012	12.12
293.227	223.06
293.442	139.09
293.657	-16.55
293.871	-6.31
294.086	208.72
294.301	323.41
294.516	34.64
294.73	-10.41
294.945	36.69
295.16	126.8
295.374	-18.6
295.589	-61.61
295.804	132.95
296.018	59.22
296.233	-75.95
296.447	112.47
296.662	73.56
296.877	280.4
297.091	-16.55
297.306	-6.31
297.52	165.71
297.735	157.52
297.949	69.46
298.164	-135.34
298.378	251.73
298.593	55.12
298.807	-73.9
299.022	30.55
299.236	333.65
299.451	36.69
299.665	-10.41
299.88	87.89
300.094	294.74
300.309	132.95
300.523	-53.42
300.737	-28.84
300.952	264.02
301.166	196.43
301.381	-73.9
301.595	-129.19
301.809	79.7
302.024	206.67
302.238	-24.75
302.452	77.65
302.667	135
302.881	231.25
303.095	57.17
303.309	83.8
303.524	96.08
303.738	180.05
303.952	-4.27
304.166	22.36
304.381	-90.28
304.595	317.26
304.809	61.27
305.023	-18.6
305.237	120.66
305.452	122.71
305.666	-53.42
305.88	-34.99
306.094	257.87
306.308	221.01
306.522	10.07
306.736	159.57
306.95	286.54
307.164	63.32
307.379	18.26
307.593	81.75
307.807	264.02
308.021	214.87
308.235	87.89
308.449	-71.85
308.663	135
308.877	530.25
309.091	-2.22
309.305	24.4
309.519	-69.8
309.733	175.95
309.947	-67.75
310.161	-30.89
310.374	83.8
310.588	325.46
310.802	-108.71
311.016	-14.51
311.23	118.61
311.444	12.12
311.658	8.02
311.872	206.67
312.085	290.64
312.299	298.83
312.513	116.56
312.727	-37.03
312.941	34.64
313.154	173.91
313.368	71.51
313.582	-55.47
313.796	173.91
314.009	77.65
314.223	87.89
314.437	-26.79
314.651	257.87
314.864	22.36
315.078	-82.09
315.292	-30.89
315.505	169.81
315.719	182.1
315.933	124.76
316.146	-92.33
316.36	83.8
316.573	221.01
316.787	216.91
317.001	61.27
317.214	98.13
317.428	163.67
317.641	-6.31
317.855	-43.18
318.068	241.49
318.282	202.58
318.495	173.91
318.709	-71.85
318.922	182.1
319.136	335.7
319.349	5.97
319.563	10.07
319.776	216.91
319.99	-14.51
320.203	-39.08
320.417	-28.84
320.63	108.37
320.843	245.59
321.057	85.84
321.27	55.12
321.483	288.59
321.697	184.15
321.91	5.97
322.124	-20.65
322.337	165.71
322.55	83.8
322.763	1.88
322.977	-8.36
323.19	28.5
323.403	145.24
323.617	85.84
323.83	200.53
324.043	163.67
324.256	165.71
324.469	-241.83
324.683	83.8
324.896	130.9
325.109	75.6
325.322	-114.86
325.535	-4.27
325.748	356.18
325.962	116.56
326.175	53.08
326.388	-59.56
326.601	165.71
326.814	118.61
327.027	5.97
327.24	59.22
327.453	-100.52
327.666	223.06
327.879	141.14
328.092	16.21
328.305	286.54
328.518	114.52
328.731	12.12
328.944	-88.23
329.157	194.39
329.37	36.69
329.583	130.9
329.796	71.51
330.009	-75.95
330.222	235.35
330.435	79.7
330.648	10.07
330.861	165.71
331.073	120.66
331.286	34.64
331.499	-4.27
331.712	147.28
331.925	102.23
332.138	77.65
332.35	-45.23
332.563	110.42
332.776	345.94
332.989	-90.28
333.202	-37.03
333.414	139.09
333.627	130.9
333.84	-26.79
334.053	118.61
334.265	112.47
334.478	24.4
334.691	28.5
334.903	155.47
335.116	118.61
335.329	34.64
335.541	85.84
335.754	239.44
335.966	167.76
336.179	200.53
336.392	-10.41
336.604	18.26
336.817	130.9
337.029	184.15
337.242	-24.75
337.454	20.31
337.667	253.78
337.88	325.46
338.092	104.28
338.305	87.89
338.517	38.74
338.729	202.58
338.942	1.88
339.154	-73.9
339.367	22.36
339.579	266.07
339.792	-129.19
340.004	8.02
340.217	128.85
340.429	208.72
340.641	-127.14
340.854	-69.8
341.066	145.24
341.278	210.77
341.491	137.04
341.703	-73.9
341.915	14.17
342.128	386.9
342.34	34.64
342.552	-77.99
342.764	153.43
342.977	163.67
343.189	40.79
343.401	137.04
343.613	-53.42
343.826	147.28
344.038	-22.7
344.25	65.36
344.462	67.41
344.674	200.53
344.886	-104.62
345.099	24.4
345.311	196.43
345.523	116.56
345.735	-80.04
345.947	57.17
346.159	239.44
346.371	208.72
346.583	30.55
346.795	79.7
347.007	40.79
347.219	231.25
347.431	83.8
347.643	198.48
347.855	128.85
348.067	278.35
348.279	-18.6
348.491	-22.7
348.703	241.49
348.915	206.67
349.127	-57.51
349.339	79.7
349.551	124.76
349.763	270.16
349.975	14.17
350.187	-43.18
350.399	366.42
350.61	128.85
350.822	-26.79
351.034	-14.51
351.246	290.64
351.458	120.66
351.669	20.31
351.881	-14.51
352.093	286.54
352.305	255.83
352.517	-69.8
352.728	75.6
352.94	98.13
353.152	272.21
353.363	-71.85
353.575	44.88
353.787	440.14
353.999	182.1
354.21	163.67
354.422	-57.51
354.633	216.91
354.845	151.38
355.057	91.99
355.268	1.88
355.48	292.69
355.692	1.88
355.903	77.65
356.115	-57.51
356.326	-65.71
356.538	364.37
356.749	-30.89
356.961	91.99
357.172	153.43
357.384	42.84
357.595	202.58
357.807	53.08
358.018	104.28
358.23	163.67
358.441	-18.6
358.653	-24.75
358.864	112.47
359.075	51.03
359.287	51.03
359.498	32.6
359.709	192.34
359.921	165.71
360.132	114.52
360.344	-96.43
360.555	59.22
360.766	233.3
360.977	-69.8
361.189	104.28
361.4	114.52
361.611	280.4
361.823	94.04
362.034	73.56
362.245	-63.66
362.456	229.2
362.667	139.09
362.879	-172.2
363.09	249.68
363.301	247.63
363.512	12.12
363.723	-37.03
363.935	218.96
364.146	261.97
364.357	-20.65
364.568	-22.7
364.779	24.4
364.99	307.02
365.201	-32.94
365.412	94.04
365.623	-18.6
365.834	171.86
366.045	100.18
366.256	18.26
366.467	149.33
366.678	175.95
366.889	69.46
367.1	28.5
367.311	298.83
367.522	116.56
367.733	89.94
367.944	3.93
368.155	145.24
368.366	255.83
368.577	34.64
368.788	149.33
368.999	61.27
369.209	171.86
369.42	143.19
369.631	386.9
369.842	178
370.053	214.87
370.264	-86.19
370.474	16.21
370.685	309.07
370.896	137.04
371.107	96.08
371.317	61.27
371.528	149.33
371.739	356.18
371.95	63.32
372.16	22.36
372.371	-8.36
372.582	94.04
372.792	-10.41
373.003	100.18
373.214	206.67
373.424	292.69
373.635	38.74
373.846	196.43
374.056	139.09
374.267	102.23
374.477	91.99
374.688	3.93
374.898	315.22
375.109	128.85
375.319	14.17
375.53	-6.31
375.74	286.54
375.951	118.61
376.161	145.24
376.372	-0.17
376.582	108.37
376.793	264.02
377.003	-47.27
377.214	-26.79
377.424	227.15
377.635	157.52
377.845	51.03
378.055	139.09
378.266	85.84
378.476	173.91
378.686	106.32
378.897	34.64
379.107	282.45
379.317	321.36
379.528	-39.08
379.738	59.22
379.948	110.42
380.158	208.72
380.369	73.56
380.579	104.28
380.789	206.67
380.999	206.67
381.21	114.52
381.42	212.82
381.63	122.71
381.84	237.39
382.05	55.12
382.261	141.14
382.471	210.77
382.681	118.61
382.891	108.37
383.101	73.56
383.311	-2.22
383.521	145.24
383.731	-69.8
383.941	216.91
384.151	245.59
384.361	132.95
384.571	53.08
384.781	44.88
384.991	345.94
385.201	405.33
385.411	216.91
385.621	135
385.831	253.78
386.041	167.76
386.251	108.37
386.461	165.71
386.671	184.15
386.881	210.77
387.091	30.55
387.301	132.95
387.511	178
387.72	137.04
387.93	104.28
388.14	5.97
388.35	122.71
388.56	319.31
388.769	67.41
388.979	3.93
389.189	96.08
389.399	202.58
389.609	73.56
389.818	75.6
390.028	182.1
390.238	223.06
390.447	-39.08
390.657	57.17
390.867	210.77
391.076	1.88
391.286	10.07
391.496	83.8
391.705	270.16
391.915	427.85
392.125	36.69
392.334	57.17
392.544	411.47
392.753	151.38
392.963	18.26
393.172	8.02
393.382	155.47
393.591	440.14
393.801	-32.94
394.01	118.61
394.22	270.16
394.429	159.57
394.639	104.28
394.848	85.84
395.058	225.11
395.267	132.95
395.477	128.85
395.686	173.91
395.895	597.84
396.105	407.38
396.314	61.27
396.524	32.6
396.733	114.52
396.942	388.94
397.152	104.28
397.361	157.52
397.57	235.35
397.78	223.06
397.989	137.04
398.198	268.11
398.407	200.53
398.617	184.15
398.826	126.8
399.035	26.45
399.244	309.07
399.453	249.68
399.663	1.88
399.872	18.26
400.081	106.32
400.29	397.14
400.499	20.31
400.708	173.91
400.917	302.93
401.127	173.91
401.336	71.51
401.545	345.94
401.754	331.6
401.963	221.01
402.172	155.47
402.381	-6.31
402.59	282.45
402.799	225.11
403.008	190.29
403.217	67.41
403.426	311.12
403.635	1.88
403.844	32.6
404.053	51.03
404.262	186.19
404.471	280.4
404.68	116.56
404.888	91.99
405.097	139.09
405.306	343.89
405.515	98.13
405.724	3.93
405.933	397.14
406.142	229.2
406.35	126.8
406.559	167.76
406.768	198.48
406.977	532.3
407.185	135
407.394	145.24
407.603	132.95
407.812	216.91
408.02	268.11
408.229	126.8
408.438	333.65
408.646	-28.84
408.855	1.88
409.064	83.8
409.272	149.33
409.481	280.4
409.69	-8.36
409.898	-30.89
410.107	270.16
410.315	315.22
410.524	85.84
410.733	40.79
410.941	214.87
411.15	362.32
411.358	192.34
411.567	231.25
411.775	216.91
411.984	247.63
412.192	141.14
412.401	-0.17
412.609	434
412.818	393.04
413.026	141.14
413.234	132.95
413.443	198.48
413.651	186.19
413.86	-88.23
414.068	272.21
414.276	565.07
414.485	143.19
414.693	239.44
414.901	225.11
415.11	356.18
415.318	229.2
415.526	157.52
415.734	214.87
415.943	313.17
416.151	456.53
416.359	102.23
416.567	120.66
416.776	304.98
416.984	372.56
417.192	218.96
417.4	73.56
417.608	221.01
417.817	182.1
418.025	259.92
418.233	77.65
418.441	143.19
418.649	87.89
418.857	116.56
419.065	147.28
419.273	251.73
419.481	302.93
419.689	161.62
419.897	83.8
420.105	264.02
420.313	472.91
420.521	288.59
420.729	149.33
420.937	190.29
421.145	165.71
421.353	137.04
421.561	259.92
421.769	366.42
421.977	202.58
422.185	225.11
422.393	171.86
422.601	304.98
422.809	376.66
423.017	202.58
423.224	116.56
423.432	460.62
423.64	294.74
423.848	124.76
424.056	89.94
424.263	511.82
424.471	319.31
424.679	352.08
424.887	153.43
425.094	556.88
425.302	419.66
425.51	81.75
425.718	255.83
425.925	354.13
426.133	214.87
426.341	333.65
426.548	290.64
426.756	235.35
426.964	411.47
427.171	264.02
427.379	274.26
427.586	448.33
427.794	401.23
428.001	302.93
428.209	382.8
428.417	511.82
428.624	536.4
428.832	321.36
429.039	307.02
429.247	503.63
429.454	434
429.662	438.09
429.869	309.07
430.076	515.92
430.284	546.64
430.491	327.5
430.699	409.42
430.906	683.85
431.114	528.21
431.321	460.62
431.528	456.53
431.736	532.3
431.943	485.2
432.15	438.09
432.358	362.32
432.565	806.73
432.772	229.2
432.979	563.02
433.187	483.15
433.394	722.76
433.601	599.88
433.808	646.99
434.016	683.85
434.223	726.86
434.43	671.56
434.637	589.64
434.844	710.47
435.052	790.35
435.259	831.3
435.466	786.25
435.673	700.23
435.88	1007.43
436.087	972.61
436.294	1001.29
436.501	911.18
436.708	851.78
436.915	1017.67
437.122	972.61
437.329	773.96
437.537	943.94
437.743	1011.53
437.95	1072.96
438.157	929.61
438.364	1101.64
438.571	1171.27
438.778	1062.73
438.985	1222.47
439.192	1328.96
439.399	1230.66
439.606	1124.16
439.813	1353.54
440.02	1617.72
440.227	1666.88
440.433	1277.76
440.64	1386.3
440.847	1421.12
441.054	1498.94
441.261	1468.22
441.467	1488.7
441.674	1617.72
441.881	1748.79
442.088	1552.19
442.294	1607.48
442.501	1931.06
442.708	1920.82
442.914	1750.84
443.121	1912.63
443.328	2051.89
443.534	2289.46
443.741	1969.98
443.948	1926.97
444.154	2230.07
444.361	2424.62
444.568	2221.88
444.774	2221.88
444.981	2275.12
445.187	2598.7
445.394	2469.68
445.6	2393.9
445.807	2842.41
446.013	2809.64
446.22	2606.89
446.426	2924.33
446.633	3071.78
446.839	3313.44
447.046	2912.04
447.252	3157.8
447.459	3276.58
447.665	3098.41
447.871	3366.69
448.078	3731.23
448.284	3538.72
448.491	3745.56
448.697	3929.88
448.903	4069.14
449.11	4144.92
449.316	4110.1
449.522	4304.66
449.728	4224.79
449.935	4603.66
450.141	4626.19
450.347	4779.79
450.553	4618
450.76	5007.11
450.966	5062.41
451.172	5168.9
451.378	5482.24
451.584	5674.75
451.791	5943.03
451.997	5660.41
452.203	5844.73
452.409	6356.72
452.615	6266.61
452.821	6029.05
453.027	6131.45
453.233	7055.08
453.44	6528.75
453.646	6651.63
453.852	6844.14
454.058	7044.84
454.264	7184.1
454.47	7399.14
454.676	7261.93
454.882	8025.82
455.088	7567.07
455.294	7636.7
455.5	7812.83
455.705	8138.46
455.911	7945.95
456.117	7892.7
456.323	8173.27
456.529	7956.19
456.735	8296.15
456.941	8115.93
457.147	8244.95
457.352	8279.77
457.558	8310.49
457.764	8441.56
457.97	8455.89
458.176	8521.43
458.381	8611.54
458.587	8367.83
458.793	8521.43
458.999	7956.19
459.204	8824.53
459.41	8531.67
459.616	8177.37
459.821	8605.39
460.027	8507.09
460.233	8255.19
460.438	8130.27
460.644	8287.96
460.85	8054.49
461.055	8072.92
461.261	8003.29
461.466	7388.9
461.672	7509.73
461.878	7648.99
462.083	7554.79
462.289	7239.4
462.494	7306.98
462.7	7116.52
462.905	6844.14
463.111	7306.98
463.316	7407.33
463.522	6985.45
463.727	6950.64
463.932	7296.74
464.138	7169.77
464.343	7012.07
464.549	6895.34
464.754	7380.71
464.959	7335.65
465.165	6868.72
465.37	6758.13
465.575	6686.45
465.781	6936.3
465.986	6766.32
466.191	6622.96
466.397	6559.47
466.602	6405.88
466.807	6522.61
467.012	6549.23
467.218	6590.19
467.423	6543.09
467.628	6424.31
467.833	6524.66
468.038	6629.1
468.244	6442.74
468.449	6688.5
468.654	6522.61
468.859	6549.23
469.064	6528.75
469.269	6272.76
469.474	6362.87
469.679	6819.57
469.885	6573.81
470.09	6534.9
470.295	6520.56
470.5	6758.13
470.705	6711.02
470.91	6432.5
471.115	6563.57
471.32	6807.28
471.525	6989.55
471.73	6465.27
471.935	6565.62
472.139	6661.87
472.344	6450.93
472.549	6661.87
472.754	6582
472.959	6829.81
473.164	6659.82
473.369	6508.27
473.574	6876.91
473.778	6856.43
473.983	7059.18
474.188	6977.26
474.393	6637.3
474.598	6962.92
474.802	6973.16
475.007	6827.76
475.212	6823.66
475.417	6852.33
475.621	6993.64
475.826	6858.48
476.031	6801.13
476.235	6876.91
476.44	7005.93
476.645	6989.55
476.849	6891.24
477.054	7085.8
477.259	6854.38
477.463	7055.08
477.668	6993.64
477.872	7280.36
478.077	6985.45
478.282	6600.43
478.486	6770.41
478.691	6883.05
478.895	6889.2
479.1	7032.55
479.304	7005.93
479.509	6715.12
479.713	7235.3
479.918	6788.85
480.122	6813.42
480.326	6958.83
480.531	7132.9
480.735	6950.64
480.94	6850.28
481.144	7304.93
481.348	6766.32
481.553	6665.97
481.757	6868.72
481.961	7296.74
482.166	7259.88
482.37	6973.16
482.574	6897.39
482.778	7143.14
482.983	7370.47
483.187	7048.94
483.391	7149.29
483.595	7315.17
483.8	7372.52
484.004	7153.38
484.208	7067.37
484.412	7687.9
484.616	7562.98
484.821	7419.62
485.025	7249.64
485.229	7481.06
485.433	7653.09
485.637	7499.49
485.841	7407.33
486.045	7743.2
486.249	7800.54
486.453	7655.14
486.657	7671.52
486.861	7755.49
487.065	7796.45
487.269	7849.69
487.473	7902.94
487.677	7976.67
487.881	8568.53
488.085	7956.19
488.289	8177.37
488.493	8238.81
488.697	8509.14
488.901	8365.78
489.105	8376.02
489.309	8603.35
489.512	8720.08
489.716	8677.07
489.92	8660.69
490.124	8793.81
490.328	8812.24
490.531	8937.16
490.735	9000.65
490.939	8949.45
491.143	9012.94
491.346	8847.05
491.55	9082.57
491.754	9225.93
491.958	9496.26
492.161	9371.33
492.365	9246.41
492.569	9633.47
492.772	9688.77
492.976	9701.06
493.18	9565.89
493.383	9920.19
493.587	10161.85
493.79	10012.35
493.994	9721.54
494.197	10047.16
494.401	10188.47
494.605	10026.68
494.808	10268.34
495.012	10473.14
495.215	10577.59
495.419	10620.6
495.622	10495.67
495.825	10817.2
496.029	10718.9
496.232	10749.62
496.436	10673.84
496.639	11372.2
496.843	11275.95
497.046	11093.68
497.249	11327.14
497.453	11501.22
497.656	11447.97
497.859	11679.4
498.063	11734.69
498.266	12005.02
498.469	11832.99
498.673	11832.99
498.876	12035.74
499.079	12228.25
499.282	12082.84
499.485	12553.88
499.689	12521.11
499.892	12848.79
500.095	12541.59
500.298	12871.31
500.501	12777.11
500.705	13151.88
500.908	13403.78
501.111	13129.36
501.314	13561.48
501.517	13854.34
501.72	13885.06
501.923	13586.05
502.126	14046.85
502.329	14567.03
502.532	14487.16
502.735	14270.08
502.938	14749.3
503.141	14853.75
503.344	14913.14
503.547	15074.93
503.75	14896.75
503.953	15210.09
504.156	15519.34
504.359	15629.93
504.562	15631.97
504.765	16043.62
504.968	16119.39
505.17	16043.62
505.373	16084.58
505.576	16801.36
505.779	16748.12
505.982	16811.6
506.185	17096.27
506.387	17151.57
506.59	17610.31
506.793	17677.9
506.996	17774.15
507.198	18468.41
507.401	18126.4
507.604	18433.6
507.807	18417.21
508.009	18882.1
508.212	18994.74
508.415	18597.43
508.617	18968.12
508.82	19330.61
509.022	19676.71
509.225	19889.7
509.428	20104.74
509.63	20334.11
509.833	20260.38
510.035	20774.42
510.238	20559.39
510.44	20661.79
510.643	21558.8
510.845	21487.12
511.048	21184.02
511.25	22054.4
511.453	21952.01
511.655	22625.79
511.858	22302.21
512.06	22892.02
512.262	22636.03
512.465	22896.12
512.667	22930.94
512.87	23516.65
513.072	23832.04
513.274	24223.2
513.477	23940.58
513.679	24587.74
513.881	24966.62
514.084	24516.06
514.286	24835.55
514.488	25288.15
514.69	25853.39
514.893	25822.67
515.095	25908.68
515.297	26322.37
515.499	26435.01
515.701	26596.8
515.904	26803.64
516.106	27299.25
516.308	27403.7
516.51	27590.06
516.712	27594.16
516.914	28093.86
517.116	28761.5
517.318	28736.93
517.52	28923.29
517.722	29054.36
517.925	29836.69
518.127	29666.7
518.329	30100.87
518.531	30045.58
518.733	30651.78
518.935	30745.98
519.136	30975.36
519.338	31466.87
519.54	31438.2
519.742	31729.01
519.944	31995.25
520.146	32623.97
520.348	32666.98
520.55	32957.79
520.752	32832.86
520.954	33690.96
521.155	33598.8
521.357	33848.66
521.559	34387.27
521.761	34815.3
521.963	34557.25
522.164	35050.81
522.366	35126.59
522.568	35288.38
522.77	35736.88
522.971	35839.28
523.173	35394.87
523.375	36429.1
523.576	36265.26
523.778	36054.32
523.98	37094.69
524.181	37160.22
524.383	36922.66
524.584	37469.47
524.786	37942.55
524.988	37588.25
525.189	38098.19
525.391	38231.31
525.592	38237.45
525.794	38212.88
525.995	38536.46
526.197	38851.84
526.398	38798.6
526.6	39249.15
526.801	39384.32
527.003	39552.25
527.204	39382.27
527.406	39836.92
527.607	39793.91
527.808	39933.17
528.01	39752.95
528.211	39914.74
528.412	40631.53
528.614	40629.48
528.815	40471.79
529.016	41465.05
529.218	40797.41
529.419	41020.64
529.62	40563.95
529.822	41182.43
530.023	41186.53
530.224	40989.92
530.425	41172.19
530.626	40948.96
530.828	41145.57
531.029	41798.87
531.23	41258.21
531.431	41383.13
531.632	41835.73
531.833	42024.15
532.035	42022.1
532.236	41675.99
532.437	41989.33
532.638	41753.82
532.839	41884.89
533.04	42964.17
533.241	42128.59
533.442	42538.19
533.643	42202.32
533.844	42106.07
534.045	42599.63
534.246	42011.86
534.447	42337.49
534.648	42298.58
534.849	42628.3
535.05	42403.02
535.251	42282.19
535.451	42603.72
535.652	42609.87
535.853	42149.07
536.054	42384.59
536.255	42507.47
536.456	42280.14
536.657	43246.79
536.857	42198.23
537.058	42413.26
537.259	42585.29
537.46	42749.13
537.66	42452.17
537.861	42814.66
538.062	42364.11
538.263	42640.59
538.463	42915.01
538.664	42525.9
538.865	43074.76
539.065	42837.19
539.266	42556.62
539.466	43009.22
539.667	42269.9
539.868	43191.49
540.068	42878.15
540.269	43009.22
540.469	43363.52
540.67	42869.96
540.87	42405.07
541.071	42990.79
541.271	43007.17
541.472	42775.75
541.672	43203.78
541.873	42820.81
542.073	42470.61
542.274	43234.5
542.474	42738.89
542.675	42833.1
542.875	43316.42
543.075	42861.77
543.276	42632.39
543.476	43199.68
543.676	43361.47
543.877	42933.45
544.077	43214.02
544.277	43273.41
544.478	42894.53
544.678	42847.43
544.878	43115.72
545.078	43099.33
545.279	43205.83
545.479	43017.41
545.679	43078.85
545.879	43457.73
546.079	43793.59
546.28	43496.64
546.48	43254.98
546.68	43642.04
546.88	43844.79
547.08	43719.87
547.28	43435.2
547.48	42953.93
547.68	43429.05
547.88	42939.59
548.081	43656.38
548.281	43355.33
548.481	43533.5
548.681	43756.73
548.881	43709.63
549.081	43697.34
549.28	43166.91
549.48	43842.74
549.68	43293.89
549.88	44336.3
550.08	43365.57
550.28	43930.81
550.48	43877.56
550.68	44203.19
550.88	44141.75
551.08	43750.59
551.279	43703.48
551.479	43490.49
551.679	44180.66
551.879	43750.59
552.079	43807.93
552.278	43734.2
552.478	43791.55
552.678	44123.32
552.878	44061.88
553.077	43418.81
553.277	43687.1
553.477	43830.46
553.676	44197.04
553.876	44113.08
554.076	44031.16
554.275	43844.79
554.475	43723.96
554.674	44164.28
554.874	43656.38
555.074	43652.28
555.273	44037.3
555.473	44074.16
555.672	43824.31
555.872	43562.17
556.071	43814.07
556.271	44225.71
556.47	43814.07
556.67	43340.99
556.869	43695.29
557.068	43732.15
557.268	43691.19
557.467	43482.3
557.667	43574.46
557.866	43500.73
558.065	43877.56
558.265	43453.63
558.464	43115.72
558.663	43889.85
558.863	43472.06
559.062	43517.12
559.261	42808.52
559.461	44217.52
559.66	42820.81
559.859	43044.04
560.058	42632.39
560.258	42792.14
560.457	43011.27
560.656	43132.1
560.855	42753.22
561.054	43064.52
561.253	42802.38
561.453	42865.86
561.652	43121.86
561.851	43035.84
562.05	42681.55
562.249	42292.43
562.448	43095.24
562.647	43005.13
562.846	42769.61
563.045	42659.02
563.244	42054.87
563.443	42661.07
563.642	41936.09
563.841	42241.23
564.04	41938.13
564.239	42712.27
564.438	42284.24
564.637	41909.46
564.836	42171.6
565.035	41651.42
565.234	41835.73
565.432	41741.53
565.631	41757.91
565.83	41903.32
566.029	41215.2
566.228	41442.52
566.427	41278.69
566.625	41235.68
566.824	41071.84
567.023	41518.3
567.222	40692.97
567.42	41039.08
567.619	41100.51
567.818	40723.69
568.016	41034.98
568.215	41069.79
568.414	40424.68
568.612	40938.72
568.811	40297.71
569.01	40502.51
569.208	39539.96
569.407	40381.68
569.605	40117.49
569.804	40342.77
570.002	39742.71
570.201	39603.45
570.4	39556.35
570.598	39589.11
570.797	39619.83
570.995	39283.97
571.193	38929.67
571.392	39429.37
571.59	38966.53
571.789	39089.41
571.987	38831.36
572.186	38843.65
572.384	38659.34
572.582	38966.53
572.781	39116.03
572.979	37856.53
573.177	38735.11
573.376	38530.31
573.574	38104.34
573.772	38112.53
573.971	38155.54
574.169	37741.85
574.367	37633.3
574.565	38171.92
574.763	37483.8
574.962	37371.16
575.16	37088.54
575.358	37530.9
575.556	37260.57
575.754	37565.72
575.952	36873.51
576.151	37412.12
576.349	36961.57
576.547	36578.6
576.745	36543.78
576.943	37111.07
577.141	36988.19
577.339	36988.19
577.537	36408.62
577.735	36707.62
577.933	36508.97
578.131	36140.33
578.329	36062.51
578.527	35884.34
578.725	36484.39
578.923	36080.94
579.121	35665.21
579.319	35999.02
579.516	36074.8
579.714	35908.91
579.912	35333.43
580.11	35525.94
580.308	35302.71
580.506	35153.21
580.704	34958.66
580.901	35341.63
581.099	35878.19
581.297	35347.77
581.495	34860.35
581.692	35663.16
581.89	35208.51
582.088	35151.16
582.285	34800.96
582.483	35165.5
582.681	34975.04
582.878	34827.59
583.076	34440.52
583.274	35097.92
583.471	34952.51
583.669	34661.7
583.866	34166.09
584.064	34665.8
584.262	33877.33
584.459	34239.82
584.657	34260.3
584.854	34643.27
585.052	33901.9
585.249	34094.41
585.447	33985.87
585.644	33768.79
585.841	34112.84
586.039	34217.29
586.236	33387.86
586.434	33512.79
586.631	33621.33
586.828	33525.08
587.026	33660.24
587.223	33529.17
587.42	33351
587.618	33492.31
587.815	33357.14
588.012	33484.12
588.21	33090.91
588.407	33496.41
588.604	33185.11
588.801	33424.73
588.999	33205.59
589.196	33226.07
589.393	32996.7
589.59	33011.04
589.787	32980.32
589.984	32802.14
590.182	32527.72
590.379	32986.46
590.576	33111.39
590.773	32724.32
590.97	32658.79
591.167	33154.4
591.364	32308.58
591.561	32986.46
591.758	32718.18
591.955	32617.83
592.152	33021.28
592.349	32507.24
592.546	32742.75
592.743	32714.08
592.94	32343.4
593.137	32249.19
593.334	32912.74
593.531	32318.82
593.727	32603.49
593.924	32488.81
594.121	32019.82
594.318	32697.7
594.515	32247.15
594.712	32535.91
594.908	32177.51
595.105	32128.36
595.302	32144.75
595.499	32167.27
595.696	32331.11
595.892	31956.33
596.089	32302.44
596.286	32183.66
596.482	32226.67
596.679	32413.03
596.876	32304.49
597.072	32050.54
597.269	32015.72
597.466	31901.04
597.662	31991.15
597.859	32318.82
598.055	32550.24
598.252	32044.4
598.448	32279.91
598.645	31855.98
598.841	31755.63
599.038	31911.28
599.234	31995.25
599.431	31829.36
599.627	31835.5
599.824	31966.57
600.02	31839.6
600.217	31794.54
600.413	31669.62
600.609	32040.3
600.806	32013.68
601.002	32081.26
601.198	31720.82
601.395	31663.47
601.591	32013.68
601.787	32023.92
601.984	31671.67
602.18	32109.93
602.376	31843.7
602.572	31649.14
602.769	31655.28
602.965	31606.13
603.161	32177.51
603.357	31466.87
603.553	31604.08
603.75	31837.55
603.946	32021.87
604.142	31833.46
604.338	31368.57
604.534	31921.52
604.73	31370.61
604.926	31491.44
605.122	31688.05
605.318	31536.5
605.514	31649.14
605.71	31184.25
605.906	31509.88
606.102	31550.84
606.298	31450.49
606.494	31612.27
606.69	31358.33
606.886	31573.36
607.082	31475.06
607.278	31450.49
607.474	31075.71
607.67	31866.22
607.866	31016.32
608.062	31944.05
608.257	31073.66
608.453	31360.37
608.649	31614.32
608.845	31171.96
609.041	31200.63
609.236	31606.13
609.432	31176.06
609.628	31559.03
609.824	31360.37
610.019	31454.58
610.215	31552.88
610.411	31747.44
610.606	31409.53
610.802	31341.94
610.998	31315.32
611.193	31647.09
611.389	31225.21
611.584	31346.04
611.78	31073.66
611.976	31626.61
612.171	31655.28
612.367	31626.61
612.562	31546.74
612.758	31098.23
612.953	31122.81
613.149	31335.8
613.344	30975.36
613.539	31556.98
613.735	31180.15
613.93	31456.63
614.126	31169.91
614.321	31448.44
614.517	31118.71
614.712	31425.91
614.907	31237.5
615.103	31597.94
615.298	31032.7
615.493	31710.58
615.688	30997.88
615.884	31612.27
616.079	30840.19
616.274	31204.73
616.47	31307.13
616.665	31073.66
616.86	30842.24
617.055	31180.15
617.25	30885.25
617.445	31485.3
617.641	31042.94
617.836	31475.06
618.031	30977.4
618.226	31282.55
618.421	30934.4
618.616	31389.05
618.811	30834.05
619.006	31405.43
619.201	30440.84
619.396	30938.49
619.591	30399.88
619.786	30752.13
619.981	30389.64
620.176	30827.9
620.371	30428.55
620.566	30320.01
620.761	30360.97
620.956	30797.18
621.151	30008.72
621.346	30295.43
621.541	29726.1
621.735	30154.12
621.93	29758.86
622.125	29703.57
622.32	29216.15
622.515	29607.31
622.709	29785.49
622.904	29824.4
623.099	29226.39
623.294	29625.75
623.488	29506.96
623.683	29447.57
623.878	29154.71
624.072	29595.03
624.267	29382.04
624.462	29023.64
624.656	28745.12
624.851	28894.62
625.046	28827.04
625.24	28325.29
625.435	28700.06
625.629	28542.37
625.824	28704.16
626.018	28452.26
626.213	28091.82
626.407	28536.23
626.602	28083.62
626.796	28263.85
626.991	28140.97
627.185	27766.19
627.38	27925.93
627.574	28100.01
627.768	27862.44
627.963	27762.09
628.157	27391.41
628.352	27483.57
628.546	27284.92
628.74	27796.91
628.935	26996.15
629.129	27475.38
629.323	27026.87
629.517	27110.84
629.712	26906.04
629.906	27143.61
630.1	26707.39
630.294	27274.68
630.489	26893.75
630.683	26785.21
630.877	26426.82
631.071	26353.09
631.265	26641.85
631.459	26254.79
631.653	25929.16
631.848	26394.05
632.042	26564.03
632.236	26312.13
632.43	26150.34
632.624	26248.64
632.818	25884.11
633.012	25714.12
633.206	25603.53
633.4	25880.01
633.594	25619.92
633.788	25581.01
633.982	25656.78
634.176	25427.41
634.369	24765.92
634.563	24679.9
634.757	24679.9
634.951	25120.21
635.145	25173.46
635.339	24378.85
635.533	24718.81
635.726	24886.75
635.92	24317.41
636.114	24151.52
636.308	23821.8
636.501	24153.57
636.695	24258.02
636.889	23688.68
637.083	23397.87
637.276	23191.03
637.47	23414.26
637.664	23215.6
637.857	23012.85
638.051	23000.57
638.244	23047.67
638.438	22926.84
638.632	22828.54
638.825	22351.36
639.019	22488.57
639.212	21853.7
639.406	22078.98
639.599	22089.22
639.793	21736.97
639.986	21509.65
640.18	21816.84
640.373	21579.28
640.567	21227.03
640.76	21257.74
640.954	20803.1
641.147	20708.89
641.34	20518.43
641.534	20583.96
641.727	20418.08
641.92	20428.32
642.114	20235.81
642.307	19562.03
642.5	19815.97
642.694	19131.95
642.887	19369.52
643.08	19539.5
643.273	19359.28
643.467	19199.54
643.66	18916.92
643.853	18908.72
644.046	18335.29
644.239	18529.85
644.432	18185.79
644.626	17950.28
644.819	17935.94
645.012	18030.15
645.205	17792.58
645.398	17796.68
645.591	17495.63
645.784	17380.94
645.977	16883.28
646.17	17081.94
646.363	16615
646.556	16686.68
646.749	16748.12
646.942	16373.34
647.135	16547.42
647.328	16385.63
647.521	16299.61
647.714	15853.16
647.907	16164.45
648.099	15601.26
648.292	16100.96
648.485	15545.96
648.678	15511.14
648.871	15392.36
649.064	15148.65
649.256	15212.14
649.449	14976.62
649.642	15087.22
649.835	14870.13
650.027	14872.18
650.22	14761.59
650.413	14575.22
650.605	14583.41
650.798	14689.91
650.991	14052.99
651.183	14450.3
651.376	14257.79
651.568	14327.42
651.761	13876.87
651.954	14231.16
652.146	13880.96
652.339	13964.93
652.531	13704.84
652.724	13569.67
652.916	13526.66
653.109	13479.56
653.301	13631.11
653.494	13569.67
653.686	13225.61
653.879	13618.82
654.071	13356.68
654.263	13248.14
654.456	13201.04
654.648	13065.87
654.84	12658.32
655.033	12818.07
655.225	13067.92
655.417	12576.41
655.61	12555.93
655.802	12861.07
655.994	12703.38
656.186	12240.54
656.379	12402.33
656.571	12134.04
656.763	12265.11
656.955	12099.23
657.148	12297.88
657.34	12371.61
657.532	11751.07
657.724	11787.94
657.916	11826.85
658.108	11880.1
658.3	11941.54
658.492	11826.85
658.684	11400.87
658.876	11724.45
659.068	11230.89
659.26	11087.53
659.452	10964.65
659.644	11237.03
659.836	11210.41
660.028	10868.4
660.22	10739.38
660.412	10852.02
660.604	10604.21
660.796	10608.31
660.988	10520.24
661.18	10630.84
661.372	10245.82
661.563	10170.04
661.755	9844.42
661.947	9985.72
662.139	9957.05
662.331	9871.04
662.522	9729.73
662.714	9701.06
662.906	9449.16
663.097	9305.8
663.289	9309.9
663.481	9219.78
663.673	9391.81
663.864	8943.31
664.056	8865.49
664.247	9121.48
664.439	9047.76
664.631	8761.04
664.822	8693.46
665.014	8689.36
665.205	8632.02
665.397	8347.35
665.588	8435.41
665.78	8492.76
665.971	8505.04
666.163	8193.75
666.354	7925.47
666.546	7798.49
666.737	7896.8
666.929	7692
667.12	7534.31
667.311	7829.21
667.503	7655.14
667.694	7722.72
667.885	7491.3
668.077	7608.03
668.268	7130.86
668.459	7452.39
668.651	7161.58
668.842	7208.68
669.033	7079.66
669.224	6840.04
669.416	7147.24
669.607	7034.6
669.798	6653.68
669.989	6838
670.18	6647.54
670.371	6809.33
670.563	6526.71
670.754	6606.58
670.945	6432.5
671.136	6647.54
671.327	6493.94
671.518	6371.06
671.709	6326
671.9	6686.45
672.091	6506.23
672.282	6176.5
672.473	5916.41
672.664	6254.33
672.855	6192.89
673.046	6076.15
673.237	6168.31
673.428	6014.71
673.619	6203.13
673.809	5947.13
674	5859.07
674.191	6199.03
674.382	5814.01
674.573	5785.34
674.764	5844.73
674.954	6014.71
675.145	5752.57
675.336	5646.08
675.527	5736.19
675.717	5762.81
675.908	5682.94
676.099	5474.05
676.289	5517.06
676.48	5547.78
676.671	5773.05
676.861	5678.85
677.052	5461.76
677.243	5609.22
677.433	5641.98
677.624	5367.56
677.814	5551.87
678.005	5435.14
678.195	5738.24
678.386	5291.78
678.576	5512.96
678.767	5334.79
678.957	5482.24
679.148	5508.87
679.338	5648.13
679.529	5654.27
679.719	5302.02
679.909	5689.09
680.1	5361.41
680.29	5707.52
680.481	5326.6
680.671	5603.07
680.861	5691.13
681.052	5758.72
681.242	5533.44
681.432	5736.19
681.622	5474.05
681.813	5611.26
682.003	5674.75
682.193	5699.33
682.383	5631.74
682.573	5768.96
682.764	5893.88
682.954	5781.25
683.144	5840.64
683.334	6088.44
683.524	5965.56
683.714	6061.82
683.904	6000.38
684.094	6278.9
684.284	6237.94
684.474	6321.91
684.664	6158.07
684.854	6328.05
685.044	6481.65
685.234	6272.76
685.424	6409.97
685.614	6239.99
685.804	6680.3
685.994	6549.23
686.184	6803.18
686.374	6895.34
686.564	6688.5
686.753	6936.3
686.943	6809.33
687.133	6938.35
687.323	7087.85
687.513	7167.72
687.702	7137
687.892	7384.8
688.082	7411.43
688.272	7360.23
688.461	7542.5
688.651	7874.27
688.841	7872.22
689.03	7620.32
689.22	7548.64
689.41	8197.85
689.599	8017.63
689.789	7962.33
689.979	8177.37
690.168	8439.51
690.358	8416.98
690.547	8154.84
690.737	8503
690.926	8609.49
691.116	8701.65
691.305	8802
691.495	8748.75
691.684	8849.1
691.874	8877.77
692.063	9037.52
692.252	9219.78
692.442	9402.05
692.631	9240.26
692.82	9313.99
693.01	9438.92
693.199	9742.02
693.388	9682.63
693.578	9832.13
693.767	9813.7
693.956	9957.05
694.146	9973.44
694.335	10026.68
694.524	9887.42
694.713	10383.03
694.902	10190.52
695.092	10245.82
695.281	10178.23
695.47	10491.57
695.659	10553.01
695.848	10557.11
696.037	10538.68
696.226	10675.89
696.415	10890.93
696.604	10997.42
696.793	10895.02
696.982	11087.53
697.171	11157.16
697.36	10722.99
697.549	10974.89
697.738	10733.23
697.927	10938.03
698.116	10884.78
698.305	11118.25
698.494	11533.99
698.683	11325.1
698.872	11331.24
699.061	11056.81
699.25	11474.6
699.438	11439.78
699.627	11353.77
699.816	11466.41
700.005	11450.02
700.193	11345.58
700.382	11527.85
700.571	11396.78
700.76	11867.81
700.948	11861.66
701.137	11241.13
701.326	11765.41
701.514	11667.11
701.703	11775.65
701.892	11710.11
702.08	11753.12
702.269	11681.44
702.457	11413.16
702.646	11587.24
702.834	11552.42
703.023	12000.93
703.212	11851.42
703.4	11630.24
703.589	11497.13
703.777	11892.38
703.965	11767.46
704.154	11744.93
704.342	11632.29
704.531	11583.14
704.719	11333.29
704.907	11693.73
705.096	11390.63
705.284	11622.05
705.472	11869.86
705.661	11759.27
705.849	11634.34
706.037	11816.61
706.226	11732.64
706.414	11652.77
706.602	11486.89
706.79	11939.49
706.979	11380.39
707.167	11462.31
707.355	11249.32
707.543	11837.09
707.731	11685.54
707.919	11560.61
708.107	11409.06
708.296	11460.26
708.484	11355.82
708.672	11548.33
708.86	11271.85
709.048	11599.52
709.236	11361.96
709.424	11511.46
709.612	11458.21
709.8	11171.5
709.988	11316.9
710.176	11343.53
710.364	11343.53
710.551	11361.96
710.739	11173.55
710.927	10989.23
711.115	11032.24
711.303	11525.8
711.491	11396.78
711.679	10913.45
711.866	10895.02
712.054	11128.49
712.242	11058.86
712.43	10993.33
712.617	10831.54
712.805	10942.13
712.993	11075.24
713.181	10600.12
713.368	10841.78
713.556	10954.41
713.744	10665.65
713.931	10655.41
714.119	10882.74
714.306	10796.72
714.494	10686.13
714.682	10448.57
714.869	10471.09
715.057	10491.57
715.244	10084.03
715.432	10495.67
715.619	10176.19
715.807	10409.65
715.994	10514.1
716.182	10153.66
716.369	10180.28
716.556	10499.77
716.744	10008.25
716.931	9825.98
717.119	10143.42
717.306	10178.23
717.493	10245.82
717.681	9875.13
717.868	9723.58
718.055	10026.68
718.242	10022.59
718.43	9711.3
718.617	9653.95
718.804	9868.99
718.991	10045.12
719.179	9662.15
719.366	9324.23
719.553	9805.5
719.74	9572.04
719.927	9428.68
720.114	9209.54
720.301	9146.06
720.488	9197.26
720.676	9084.62
720.863	9291.46
721.05	9742.02
721.237	9508.55
721.424	9197.26
721.611	9144.01
721.798	9070.28
721.985	9025.23
722.172	9213.64
722.358	8910.54
722.545	9279.18
722.732	8818.38
722.919	8912.59
723.106	8693.46
723.293	9055.95
723.48	8904.4
723.667	8644.31
723.853	8715.98
724.04	8853.2
724.227	8687.31
724.414	8457.94
724.6	8228.57
724.787	8746.7
724.974	8625.87
725.161	8333.01
725.347	8136.41
725.534	8543.95
725.72	8257.24
725.907	8068.83
726.094	8154.84
726.28	8279.77
726.467	7974.62
726.653	7812.83
726.84	7958.24
727.027	8279.77
727.213	7970.52
727.4	8044.25
727.586	7925.47
727.773	7980.76
727.959	7839.45
728.145	7939.8
728.332	7763.68
728.518	7737.06
728.705	8158.94
728.891	7493.35
729.077	7565.03
729.264	7513.83
729.45	7696.1
729.636	7599.84
729.823	7560.93
730.009	7653.09
730.195	7558.88
730.382	7515.87
730.568	7372.52
730.754	7423.72
730.94	7337.7
731.126	7341.8
731.313	7247.59
731.499	7337.7
731.685	7272.17
731.871	7300.84
732.057	7274.21
732.243	7298.79
732.429	7198.44
732.615	7204.58
732.801	7053.03
732.987	7130.86
733.173	7089.9
733.359	6909.68
733.545	7167.72
733.731	6991.59
733.917	7169.77
734.103	6772.46
734.289	6901.48
734.475	6692.59
734.661	6979.31
734.847	6600.43
735.033	6754.03
735.219	6856.43
735.404	6733.55
735.59	6440.69
735.776	6563.57
735.962	6764.27
736.148	6674.16
736.333	6442.74
736.519	6506.23
736.705	6334.2
736.89	6500.08
737.076	6344.44
737.262	6225.65
737.447	6291.19
737.633	6360.82
737.819	6301.43
738.004	5967.61
738.19	6274.81
738.375	6350.58
738.561	6360.82
738.747	5973.75
738.932	6076.15
739.118	6196.98
739.303	5947.13
739.489	6182.65
739.674	6041.34
739.859	5746.43
740.045	5971.71
740.23	5867.26
740.416	5678.85
740.601	5740.29
740.786	5783.29
740.972	5555.97
741.157	5754.62
741.342	5646.08
741.528	5633.79
741.713	5707.52
741.898	5555.97
742.084	5719.81
742.269	5603.07
742.454	5355.27
742.639	5680.89
742.824	5400.32
743.01	5416.71
743.195	5428.99
743.38	5490.43
743.565	5492.48
743.75	5347.08
743.935	5314.31
744.12	5545.73
744.305	5082.89
744.49	5123.85
744.675	5162.76
744.86	5279.49
745.045	5193.48
745.23	5076.74
745.415	4945.67
745.6	5213.96
745.785	5136.13
745.97	4998.92
746.155	4769.55
746.34	5175.05
746.525	5060.36
746.71	4886.28
746.895	4755.21
747.079	4720.4
747.264	4759.31
747.449	4818.7
747.634	4622.09
747.819	4919.05
748.003	4513.55
748.188	4460.31
748.373	4583.18
748.557	4613.9
748.742	4599.57
748.927	4495.12
749.111	4384.53
749.296	4544.27
749.481	4560.66
749.665	4521.74
749.85	4167.45
750.034	4329.24
750.219	4259.6
750.404	4216.6
750.588	4022.04
750.773	4261.65
750.957	4177.69
751.141	4063
751.326	4050.71
751.51	3972.89
751.695	3995.42
751.879	4060.95
752.064	4138.77
752.248	4065.05
752.432	4290.32
752.617	3995.42
752.801	3968.79
752.985	3925.79
753.17	4183.83
753.354	3731.23
753.538	3831.58
753.722	3827.48
753.907	3661.6
754.091	3499.81
754.275	3559.2
754.459	3606.3
754.643	3458.85
754.828	3643.17
755.012	3432.22
755.196	3522.34
755.38	3575.58
755.564	3366.69
755.748	3395.36
755.932	3567.39
756.116	3471.14
756.3	3454.75
756.484	3381.03
756.668	3624.73
756.852	3178.28
757.036	3194.66
757.22	3182.37
757.404	3114.79
757.588	3233.57
757.772	3116.84
757.956	3141.41
758.14	3452.7
758.323	3063.59
758.507	3190.56
758.691	2940.71
758.875	3321.63
759.059	3090.21
759.242	2791.21
759.426	2950.95
759.61	3112.74
759.794	2967.34
759.977	2795.31
760.161	3172.13
760.345	3055.4
760.528	2963.24
760.712	2649.9
760.895	2770.73
761.079	2711.34
761.263	2629.42
761.446	2502.45
761.63	2498.35
761.813	2615.09
761.997	2467.63
762.18	2443.06
762.364	2574.13
762.547	2463.54
762.731	2516.78
762.914	2574.13
763.098	2336.56
763.281	2447.15
763.464	2295.6
763.648	2494.26
763.831	2346.8
764.015	2400.05
764.198	2590.51
764.381	2344.75
764.564	2408.24
764.748	2551.6
764.931	2451.25
765.114	2330.42
765.297	2387.76
765.481	2389.81
765.664	2451.25
765.847	2318.13
766.03	2512.69
766.213	2453.3
766.397	2502.45
766.58	2408.24
766.763	2510.64
766.946	2451.25
767.129	2443.06
767.312	2379.57
767.495	2461.49
767.678	2492.21
767.861	2531.12
768.044	2393.9
768.227	2436.91
768.41	2400.05
768.593	2574.13
768.776	2520.88
768.959	2258.74
769.142	2660.14
769.324	2463.54
769.507	2334.51
769.69	2236.21
769.873	2574.13
770.056	2686.76
770.239	2359.09
770.421	2529.07
770.604	2443.06
770.787	2404.14
770.97	2277.17
771.152	2311.99
771.335	2522.93
771.518	2254.64
771.7	2328.37
771.883	2455.34
772.066	2389.81
772.248	2338.61
772.431	2459.44
772.613	2178.87
772.796	2346.8
772.978	2402.1
773.161	2238.26
773.343	2099
773.526	2109.24
773.708	2004.79
773.891	2109.24
774.073	2199.35
774.256	2205.49
774.438	2633.52
774.621	1965.88
774.803	2074.42
774.985	2123.57
775.168	2070.33
775.35	2047.8
775.532	2099
775.715	1982.26
775.897	2197.3
776.079	1918.78
776.261	2035.51
776.444	2023.22
776.626	1972.02
776.808	2012.98
776.99	1906.49
777.173	2019.13
777.355	1922.87
777.537	1875.77
777.719	1871.67
777.901	1914.68
778.083	1847.1
778.265	1675.07
778.447	1916.73
778.629	1888.06
778.811	1797.95
778.993	1953.59
779.175	1853.24
779.357	1888.06
779.539	1605.44
779.721	1812.28
779.903	1683.26
780.085	1935.16
780.267	1830.71
780.449	1558.33
780.631	1754.94
780.812	1945.4
780.994	1689.4
781.176	1578.81
781.358	1503.04
781.54	1713.98
781.721	1824.57
781.903	1605.44
782.085	1494.85
782.267	1789.75
782.448	1439.55
782.63	1478.46
782.812	1650.49
782.993	1730.36
783.175	1689.4
783.357	1412.93
783.538	1670.97
783.72	1412.93
783.901	1570.62
784.083	1445.7
784.264	1400.64
784.446	1347.39
784.627	1328.96
784.809	1466.17
784.99	1345.34
785.172	1533.76
785.353	1388.35
785.535	1335.1
785.716	1210.18
785.897	1257.28
786.079	1339.2
786.26	1302.34
786.441	1423.17
786.623	1126.21
786.804	1355.58
786.985	1251.14
787.167	1230.66
787.348	1351.49
787.529	1320.77
787.71	1195.84
787.891	1312.58
788.073	1177.41
788.254	1132.36
788.435	1290.05
788.616	1128.26
788.797	1128.26
788.978	1191.75
789.159	1148.74
789.34	1193.8
789.522	1226.56
789.703	1130.31
789.884	1212.23
790.065	1197.89
790.246	1382.21
790.427	1085.25
790.607	1142.6
790.788	1054.53
790.969	1029.96
791.15	1097.54
791.331	958.28
791.512	1027.91
791.693	948.04
791.874	847.69
792.054	1226.56
792.235	1013.57
792.416	1064.77
792.597	847.69
792.778	1017.67
792.958	939.85
793.139	1091.4
793.32	1001.29
793.5	804.68
793.681	1134.4
793.862	1193.8
794.042	982.85
794.223	773.96
794.404	831.3
794.584	728.91
794.765	917.32
794.945	847.69
795.126	915.27
795.306	1034.05
795.487	964.42
795.667	771.91
795.848	843.59
796.028	978.76
796.209	933.7
796.389	1011.53
796.57	763.72
796.75	857.93
796.93	945.99
797.111	790.35
797.291	751.43
797.471	952.13
797.652	821.06
797.832	765.77
798.012	853.83
798.192	812.87
798.373	700.23
798.553	739.15
798.733	851.78
798.913	683.85
799.093	718.67
799.274	749.39
799.454	837.45
799.634	894.79
799.814	939.85
799.994	827.21
800.174	685.9
800.354	790.35
800.534	677.71
800.714	763.72
800.894	493.39
801.074	673.61
801.254	671.56
801.434	808.78
801.614	642.89
801.794	618.32
801.974	4579.09
802.154	681.8
802.334	669.52
802.514	579.4
802.693	716.62
802.873	472.91
803.053	810.82
803.233	737.1
803.413	741.19
803.592	556.88
803.772	608.08
803.952	655.18
804.131	479.05
804.311	675.66
804.491	685.9
804.67	614.22
804.85	526.16
805.03	706.38
805.209	829.26
805.389	665.42
805.568	608.08
805.748	530.25
805.928	571.21
806.107	718.67
806.287	718.67
806.466	669.52
806.646	536.4
806.825	626.51
807.004	638.8
807.184	599.88
807.363	565.07
807.543	646.99
807.722	487.25
807.901	589.64
808.081	567.12
808.26	401.23
808.439	616.27
808.619	524.11
808.798	528.21
808.977	733
809.156	706.38
809.336	630.6
809.515	595.79
809.694	395.09
809.873	397.14
810.052	567.12
810.231	653.13
810.411	558.92
810.59	794.44
810.769	438.09
810.948	612.17
811.127	390.99
811.306	507.73
811.485	477.01
811.664	530.25
811.843	628.56
812.022	585.55
812.201	434
812.38	345.94
812.559	495.44
812.737	593.74
812.916	347.98
813.095	464.72
813.274	573.26
813.453	528.21
813.632	427.85
813.811	497.49
813.989	374.61
814.168	487.25
814.347	309.07
814.526	399.18
814.704	573.26
814.883	720.71
815.062	329.55
815.24	323.41
815.419	345.94
815.598	560.97
815.776	225.11
815.955	313.17
816.133	184.15
816.312	429.9
816.49	378.7
816.669	407.38
816.847	397.14
817.026	530.25
817.204	360.27
817.383	362.32
817.561	315.22
817.74	474.96
817.918	368.46
818.097	345.94
818.275	388.94
818.453	395.09
818.632	411.47
818.81	296.78
818.988	372.56
819.167	333.65
819.345	370.51
819.523	214.87
819.701	419.66
819.879	415.57
820.058	427.85
820.236	339.79
820.414	401.23
820.592	309.07
820.77	298.83
820.948	278.35
821.127	411.47
821.305	456.53
821.483	116.56
821.661	403.28
821.839	409.42
822.017	208.72
822.195	210.77
822.373	329.55
822.551	493.39
822.729	470.86
822.907	264.02
823.085	311.12
823.262	485.2
823.44	321.36
823.618	290.64
823.796	298.83
823.974	345.94
824.152	280.4
824.329	345.94
824.507	364.37
824.685	653.13
824.863	411.47
825.04	175.95
825.218	288.59
825.396	376.66
825.574	436.05
825.751	331.6
825.929	280.4
826.107	241.49
826.284	485.2
826.462	350.03
826.639	243.54
826.817	202.58
826.994	345.94
827.172	149.33
827.349	345.94
827.527	272.21
827.704	347.98
827.882	380.75
828.059	272.21
828.237	325.46
828.414	390.99
828.591	73.56
828.769	249.68
828.946	241.49
829.124	462.67
829.301	352.08
829.478	192.34
829.655	452.43
829.833	257.87
830.01	73.56
830.187	382.8
830.364	339.79
830.542	388.94
830.719	272.21
830.896	194.39
831.073	411.47
831.25	370.51
831.427	194.39
831.604	266.07
831.782	225.11
831.959	315.22
832.136	221.01
832.313	366.42
832.49	278.35
832.667	362.32
832.844	145.24
833.021	413.52
833.198	337.74
833.374	352.08
833.551	259.92
833.728	114.52
833.905	438.09
834.082	120.66
834.259	366.42
834.436	358.22
834.612	255.83
834.789	411.47
834.966	206.67
835.143	233.3
835.319	245.59
835.496	319.31
835.673	218.96
835.85	268.11
836.026	388.94
836.203	436.05
836.38	186.19
836.556	175.95
836.733	157.52
836.909	511.82
837.086	149.33
837.262	-53.42
837.439	221.01
837.616	143.19
837.792	208.72
837.968	141.14
838.145	-24.75
838.321	284.5
838.498	231.25
838.674	319.31
838.851	352.08
839.027	186.19
839.203	124.76
839.38	339.79
839.556	233.3
839.732	231.25
839.909	157.52
840.085	157.52
840.261	237.39
840.437	272.21
840.614	225.11
840.79	214.87
840.966	331.6
841.142	307.02
841.318	186.19
841.494	190.29
841.671	380.75
841.847	208.72
842.023	71.51
842.199	139.09
842.375	536.4
842.551	55.12
842.727	87.89
842.903	272.21
843.079	149.33
843.255	372.56
843.431	253.78
843.607	257.87
843.783	-20.65
843.959	286.54
844.134	216.91
844.31	274.26
844.486	221.01
844.662	155.47
844.838	202.58
845.013	161.62
845.189	440.14
845.365	276.31
845.541	259.92
845.716	218.96
845.892	397.14
846.068	184.15
846.244	186.19
846.419	114.52
846.595	128.85
846.77	75.6
846.946	247.63
847.122	53.08
847.297	225.11
847.473	489.29
847.648	61.27
847.824	180.05
847.999	5.97
848.175	198.48
848.35	317.26
848.526	366.42
848.701	427.85
848.876	331.6
849.052	364.37
849.227	163.67
849.403	274.26
849.578	161.62
849.753	249.68
849.929	165.71
850.104	5.97
850.279	231.25
850.454	282.45
850.63	202.58
850.805	276.31
850.98	276.31
851.155	194.39
851.33	194.39
851.505	77.65
851.681	378.7
851.856	85.84
852.031	126.8
852.206	253.78
852.381	94.04
852.556	110.42
852.731	42.84
852.906	302.93
853.081	337.74
853.256	241.49
853.431	89.94
853.606	247.63
853.781	59.22
853.956	16.21
854.131	116.56
854.305	118.61
854.48	161.62
854.655	81.75
854.83	71.51
855.005	221.01
855.18	225.11
855.354	155.47
855.529	44.88
855.704	227.15
855.879	272.21
856.053	132.95
856.228	186.19
856.403	96.08
856.577	292.69
856.752	-6.31
856.926	137.04
857.101	243.54
857.276	42.84
857.45	231.25
857.625	229.2
857.799	337.74
857.974	182.1
858.148	-77.99
858.323	114.52
858.497	175.95
858.672	132.95
858.846	169.81
859.02	255.83
859.195	67.41
859.369	122.71
859.543	98.13
859.718	169.81
859.892	257.87
860.066	300.88
860.241	126.8
860.415	8.02
860.589	196.43
860.763	194.39
860.938	124.76
861.112	147.28
861.286	106.32
861.46	280.4
861.634	221.01
861.808	178
861.982	104.28
862.157	53.08
862.331	114.52
862.505	16.21
862.679	61.27
862.853	163.67
863.027	96.08
863.201	137.04
863.375	89.94
863.549	165.71
863.722	198.48
863.896	227.15
864.07	51.03
864.244	157.52
864.418	214.87
864.592	79.7
864.766	233.3
864.939	126.8
865.113	91.99
865.287	223.06
865.461	77.65
865.634	231.25
865.808	89.94
865.982	42.84
866.156	28.5
866.329	-22.7
866.503	139.09
866.676	223.06
866.85	204.63
867.024	77.65
867.197	280.4
867.371	73.56
867.544	225.11
867.718	34.64
867.891	235.35
868.065	-18.6
868.238	161.62
868.412	356.18
868.585	155.47
868.759	85.84
868.932	157.52
869.105	-63.66
869.279	182.1
869.452	22.36
869.625	282.45
869.799	110.42
869.972	91.99
870.145	124.76
870.319	374.61
870.492	44.88
870.665	71.51
870.838	51.03
871.011	-110.76
871.185	-16.55
871.358	100.18
871.531	200.53
871.704	104.28
871.877	190.29
872.05	1.88
872.223	1.88
872.396	399.18
872.569	264.02
872.742	-41.13
872.915	206.67
873.088	89.94
873.261	46.93
873.434	216.91
873.607	44.88
873.78	337.74
873.953	-8.36
874.126	112.47
874.299	182.1
874.471	161.62
874.644	204.63
874.817	198.48
874.99	272.21
875.163	130.9
875.335	159.57
875.508	46.93
875.681	212.82
875.853	231.25
876.026	165.71
876.199	237.39
876.371	73.56
876.544	124.76
876.717	171.86
876.889	100.18
877.062	214.87
877.234	87.89
877.407	87.89
877.579	110.42
877.752	100.18
877.924	270.16
878.097	272.21
878.269	126.8
878.442	159.57
878.614	296.78
878.786	126.8
878.959	112.47
879.131	100.18
879.303	-88.23
879.476	100.18
879.648	264.02
879.82	114.52
879.993	141.14
880.165	188.24
880.337	-8.36
880.509	186.19
880.681	-47.27
880.854	167.76
881.026	229.2
881.198	173.91
881.37	91.99
881.542	182.1
881.714	106.32
881.886	26.45
882.058	104.28
882.23	120.66
882.402	98.13
882.574	143.19
882.746	274.26
882.918	350.03
883.09	175.95
883.262	104.28
883.434	186.19
883.606	-20.65
883.778	91.99
883.95	241.49
884.122	104.28
884.293	251.73
884.465	51.03
884.637	253.78
884.809	44.88
884.98	218.96
885.152	192.34
885.324	114.52
885.496	-16.55
885.667	87.89
885.839	69.46
886.011	83.8
886.182	294.74
886.354	161.62
886.525	83.8
886.697	-4.27
886.869	87.89
887.04	83.8
887.212	268.11
887.383	261.97
887.555	163.67
887.726	81.75
887.897	126.8
888.069	81.75
888.24	218.96
888.412	116.56
888.583	102.23
888.754	36.69
888.926	-145.58
889.097	3.93
889.268	-2.22
889.44	81.75
889.611	-61.61
889.782	-67.75
889.953	-73.9
890.125	135
890.296	-2.22
890.467	79.7
890.638	89.94
890.809	-22.7
890.98	161.62
891.151	173.91
891.323	229.2
891.494	-28.84
891.665	231.25
891.836	200.53
892.007	53.08
892.178	89.94
892.349	239.44
892.52	61.27
892.691	153.43
892.862	42.84
893.032	-63.66
893.203	114.52
893.374	118.61
893.545	75.6
893.716	124.76
893.887	165.71
894.057	8.02
894.228	8.02
894.399	83.8
894.57	327.5
894.74	94.04
894.911	100.18
895.082	77.65
895.253	59.22
895.423	188.24
895.594	178
895.764	200.53
895.935	12.12
896.106	100.18
896.276	46.93
896.447	188.24
896.617	59.22
896.788	-45.23
896.958	53.08
897.129	28.5
897.299	75.6
897.47	251.73
897.64	98.13
897.81	69.46
897.981	190.29
898.151	44.88
898.322	175.95
898.492	184.15
898.662	16.21
898.832	-28.84
899.003	-18.6
899.173	165.71
899.343	14.17
899.513	59.22
