Data from USB4F104151__33__12-20-50-115.txt Node

Date: Wed Feb 19 12:20:50 EST 2025
User: louis
Spectrometer: USB4F10415
Trigger mode: 4
Integration Time (sec): 2.250200E-1
Scans to average: 1
Electric dark correction enabled: true
Nonlinearity correction enabled: false
Boxcar width: 0
XAxis mode: Wavelengths
Number of Pixels in Spectrum: 3648
>>>>>Begin Spectral Data<<<<<
178.204	-761.67
178.424	-761.67
178.644	-761.67
178.864	-765.77
179.084	-792.39
179.304	178.34
179.524	133.29
179.744	-8.02
179.964	-151.38
180.184	217.26
180.404	207.02
180.624	-266.07
180.844	-87.89
181.064	-55.12
181.283	108.71
181.503	-141.14
181.723	-135
181.943	-91.99
182.163	426.15
182.383	-286.54
182.602	-196.43
182.822	495.78
183.042	258.21
183.262	-186.19
183.482	-173.91
183.701	200.87
183.921	309.41
184.141	-180.05
184.361	-157.52
184.58	254.12
184.8	127.14
185.02	-233.3
185.239	-34.64
185.459	290.98
185.679	403.62
185.898	-247.63
186.118	-200.53
186.338	213.16
186.557	370.85
186.777	-167.76
186.997	-210.77
187.216	164.01
187.436	536.74
187.655	-122.71
187.875	-30.55
188.095	196.78
188.314	372.9
188.534	-128.85
188.753	-284.5
188.973	372.9
189.192	432.29
189.412	-251.73
189.631	-231.25
189.851	274.6
190.07	415.91
190.29	-161.62
190.509	-159.57
190.729	159.91
190.948	424.1
191.168	4.27
191.387	-223.06
191.607	94.38
191.826	325.8
192.045	-143.19
192.265	-175.95
192.484	252.07
192.704	166.06
192.923	-139.09
193.142	26.79
193.362	362.66
193.581	387.24
193.8	-81.75
194.02	-184.15
194.239	198.82
194.458	403.62
194.678	-165.71
194.897	-231.25
195.116	215.21
195.335	311.46
195.555	-167.76
195.774	-298.83
195.993	401.57
196.212	116.9
196.432	-118.61
196.651	-198.48
196.87	200.87
197.089	467.11
197.308	-180.05
197.528	-112.47
197.747	88.23
197.966	184.49
198.185	-30.55
198.404	-163.67
198.623	280.74
198.842	346.28
199.062	-96.08
199.281	-94.04
199.5	260.26
199.719	274.6
199.938	-124.76
200.157	-198.48
200.376	352.42
200.595	446.63
200.814	-85.84
201.033	-178
201.252	516.26
201.471	282.79
201.69	-202.58
201.909	-167.76
202.128	340.13
202.347	305.32
202.566	-198.48
202.785	-290.64
203.004	143.53
203.223	522.4
203.442	-186.19
203.661	-282.45
203.879	278.69
204.098	374.95
204.317	-237.39
204.536	-59.22
204.755	336.04
204.974	295.08
205.193	-341.84
205.411	26.79
205.63	297.13
205.849	250.02
206.068	-137.04
206.287	-296.78
206.505	266.41
206.724	151.72
206.943	-169.81
207.162	-132.95
207.381	188.58
207.599	184.49
207.818	-128.85
208.037	-268.11
208.255	243.88
208.474	250.02
208.693	-143.19
208.911	-161.62
209.13	354.47
209.349	331.94
209.567	-18.26
209.786	-182.1
210.005	383.14
210.223	192.68
210.442	-327.5
210.661	-198.48
210.879	297.13
211.098	233.64
211.316	-145.24
211.535	-110.42
211.753	274.6
211.972	327.85
212.191	-141.14
212.409	-171.86
212.628	352.42
212.846	34.99
213.065	-206.67
213.283	-132.95
213.502	256.17
213.72	241.83
213.938	-102.23
214.157	-188.24
214.375	313.51
214.594	110.76
214.812	-137.04
215.031	-143.19
215.249	233.64
215.467	256.17
215.686	-186.19
215.904	-116.56
216.122	305.32
216.341	338.09
216.559	-44.88
216.778	-51.03
216.996	510.11
217.214	262.31
217.432	-61.27
217.651	-188.24
217.869	268.45
218.087	229.54
218.306	-141.14
218.524	-165.71
218.742	180.39
218.96	448.68
219.179	-110.42
219.397	-251.73
219.615	532.64
219.833	340.13
220.051	-202.58
220.27	-94.04
220.488	315.56
220.706	239.78
220.924	-253.78
221.142	-200.53
221.36	321.7
221.578	254.12
221.796	-194.39
222.015	-55.12
222.233	233.64
222.451	397.48
222.669	-79.7
222.887	-69.46
223.105	86.19
223.323	207.02
223.541	-141.14
223.759	-135
223.977	204.97
224.195	479.4
224.413	-96.08
224.631	-161.62
224.849	258.21
225.067	489.64
225.285	-42.84
225.503	-18.26
225.721	-55.12
225.939	217.26
226.157	-153.43
226.375	67.75
226.592	135.34
226.81	149.67
227.028	-5.97
227.246	-104.28
227.464	288.93
227.682	250.02
227.9	-135
228.117	-79.7
228.335	272.55
228.553	225.45
228.771	-270.16
228.989	-120.66
229.206	258.21
229.424	137.38
229.642	-173.91
229.86	-116.56
230.077	383.14
230.295	168.1
230.513	-51.03
230.731	-169.81
230.948	506.02
231.166	428.2
231.384	-188.24
231.601	-210.77
231.819	549.03
232.037	106.67
232.254	-116.56
232.472	-153.43
232.689	86.19
232.907	356.52
233.125	-173.91
233.342	-186.19
233.56	151.72
233.777	65.71
233.995	-202.58
234.213	-51.03
234.43	364.71
234.648	256.17
234.865	-108.37
235.083	-51.03
235.3	280.74
235.518	264.36
235.735	-137.04
235.953	-104.28
236.17	254.12
236.388	155.82
236.605	24.75
236.822	-145.24
237.04	280.74
237.257	213.16
237.475	-151.38
237.692	-153.43
237.909	338.09
238.127	174.25
238.344	32.94
238.562	-89.94
238.779	28.84
238.996	49.32
239.214	-42.84
239.431	-112.47
239.648	39.08
239.865	309.41
240.083	-104.28
240.3	-151.38
240.517	157.86
240.735	184.49
240.952	121
241.169	-184.15
241.386	356.52
241.603	182.44
241.821	-122.71
242.038	-145.24
242.255	403.62
242.472	2.22
242.689	-24.4
242.907	-137.04
243.124	133.29
243.341	157.86
243.558	-69.46
243.775	-157.52
243.992	28.84
244.209	243.88
244.426	-3.93
244.643	-104.28
244.86	250.02
245.078	301.22
245.295	-75.6
245.512	-194.39
245.729	194.73
245.946	295.08
246.163	-173.91
246.38	-175.95
246.597	282.79
246.814	227.5
247.031	-79.7
247.248	-188.24
247.464	356.52
247.681	143.53
247.898	-83.8
248.115	26.79
248.332	125.1
248.549	389.28
248.766	0.17
248.983	-30.55
249.2	340.13
249.417	311.46
249.633	-98.13
249.85	18.6
250.067	250.02
250.284	192.68
250.501	-141.14
250.717	-85.84
250.934	63.66
251.151	198.82
251.368	-75.6
251.585	-75.6
251.801	280.74
252.018	34.99
252.235	37.03
252.451	-212.82
252.668	252.07
252.885	309.41
253.102	-57.17
253.318	-188.24
253.535	190.63
253.752	170.15
253.968	-130.9
254.185	-182.1
254.401	254.12
254.618	272.55
254.835	-53.08
255.051	-98.13
255.268	301.22
255.484	256.17
255.701	-110.42
255.917	-130.9
256.134	75.95
256.351	254.12
256.567	-139.09
256.784	28.84
257	8.36
257.217	303.27
257.433	73.9
257.65	-143.19
257.866	366.76
258.082	18.6
258.299	-77.65
258.515	-10.07
258.732	129.19
258.948	121
259.165	-10.07
259.381	-202.58
259.597	317.61
259.814	184.49
260.03	-130.9
260.246	-118.61
260.463	309.41
260.679	313.51
260.895	-71.51
261.112	-22.36
261.328	155.82
261.544	94.38
261.761	-128.85
261.977	-192.34
262.193	49.32
262.409	293.03
262.626	6.31
262.842	-163.67
263.058	147.62
263.274	293.03
263.49	2.22
263.707	-198.48
263.923	321.7
264.139	73.9
264.355	-77.65
264.571	10.41
264.787	262.31
265.004	397.48
265.22	-61.27
265.436	-71.51
265.652	174.25
265.868	301.22
266.084	-169.81
266.3	-100.18
266.516	75.95
266.732	198.82
266.948	-79.7
267.164	-173.91
267.38	372.9
267.596	323.75
267.812	-20.31
268.028	-30.55
268.244	137.38
268.46	254.12
268.676	-69.46
268.892	10.41
269.108	41.13
269.324	53.42
269.54	-165.71
269.756	-120.66
269.972	22.7
270.188	180.39
270.403	-110.42
270.619	-102.23
270.835	239.78
271.051	239.78
271.267	-124.76
271.483	-169.81
271.698	247.97
271.914	293.03
272.13	4.27
272.346	-30.55
272.562	151.72
272.777	395.43
272.993	14.51
273.209	-22.36
273.425	247.97
273.64	51.37
273.856	-171.86
274.072	-210.77
274.287	73.9
274.503	364.71
274.719	63.66
274.934	-137.04
275.15	0.17
275.366	170.15
275.581	-139.09
275.797	-65.36
276.012	192.68
276.228	157.86
276.444	-5.97
276.659	116.9
276.875	102.57
277.09	26.79
277.306	-28.5
277.521	59.56
277.737	149.67
277.952	159.91
278.168	-75.6
278.383	18.6
278.599	104.62
278.814	268.45
279.03	-63.32
279.245	65.71
279.461	118.95
279.676	188.58
279.892	18.6
280.107	-126.8
280.322	59.56
280.538	303.27
280.753	-132.95
280.969	22.7
281.184	116.9
281.399	305.32
281.615	-102.23
281.83	59.56
282.045	88.23
282.26	51.37
282.476	-73.56
282.691	59.56
282.906	225.45
283.122	168.1
283.337	39.08
283.552	41.13
283.767	151.72
283.983	256.17
284.198	-59.22
284.413	-63.32
284.628	20.65
284.843	202.92
285.058	-114.52
285.274	-51.03
285.489	118.95
285.704	284.84
285.919	-20.31
286.134	51.37
286.349	135.34
286.564	51.37
286.779	37.03
286.995	-24.4
287.21	-20.31
287.425	190.63
287.64	-120.66
287.855	139.43
288.07	-51.03
288.285	286.89
288.5	2.22
288.715	-16.21
288.93	98.47
289.145	28.84
289.36	-94.04
289.575	-34.64
289.79	297.13
290.004	80.04
290.219	34.99
290.434	-1.88
290.649	104.62
290.864	84.14
291.079	-114.52
291.294	47.27
291.509	198.82
291.724	178.34
291.938	-57.17
292.153	-32.6
292.368	166.06
292.583	250.02
292.798	51.37
293.012	100.52
293.227	151.72
293.442	149.67
293.657	67.75
293.871	39.08
294.086	221.35
294.301	338.09
294.516	86.19
294.73	108.71
294.945	67.75
295.16	161.96
295.374	6.31
295.589	110.76
295.804	139.43
296.018	71.85
296.233	-22.36
296.447	77.99
296.662	168.1
296.877	358.57
297.091	47.27
297.306	-46.93
297.52	137.38
297.735	164.01
297.949	80.04
298.164	-202.58
298.378	141.48
298.593	63.66
298.807	-83.8
299.022	28.84
299.236	360.61
299.451	41.13
299.665	59.56
299.88	18.6
300.094	239.78
300.309	170.15
300.523	-57.17
300.737	-69.46
300.952	237.74
301.166	288.93
301.381	-67.41
301.595	-192.34
301.809	178.34
302.024	118.95
302.238	-42.84
302.452	88.23
302.667	247.97
302.881	295.08
303.095	153.77
303.309	37.03
303.524	127.14
303.738	170.15
303.952	-55.12
304.166	114.86
304.381	-42.84
304.595	358.57
304.809	20.65
305.023	-65.36
305.237	88.23
305.452	59.56
305.666	-3.93
305.88	92.33
306.094	241.83
306.308	204.97
306.522	-51.03
306.736	32.94
306.95	194.73
307.164	-3.93
307.379	-16.21
307.593	90.28
307.807	303.27
308.021	221.35
308.235	200.87
308.449	-63.32
308.663	108.71
308.877	643.23
309.091	16.55
309.305	137.38
309.519	-3.93
309.733	223.4
309.947	-32.6
310.161	-46.93
310.374	121
310.588	282.79
310.802	-87.89
311.016	-32.6
311.23	170.15
311.444	116.9
311.658	30.89
311.872	151.72
312.085	280.74
312.299	356.52
312.513	180.39
312.727	20.65
312.941	86.19
313.154	159.91
313.368	4.27
313.582	-18.26
313.796	174.25
314.009	186.54
314.223	96.43
314.437	43.18
314.651	325.8
314.864	-32.6
315.078	-32.6
315.292	8.36
315.505	168.1
315.719	149.67
315.933	159.91
316.146	-85.84
316.36	51.37
316.573	239.78
316.787	198.82
317.001	82.09
317.214	-26.45
317.428	182.44
317.641	-38.74
317.855	-1.88
318.068	174.25
318.282	137.38
318.495	86.19
318.709	0.17
318.922	164.01
319.136	356.52
319.349	98.47
319.563	4.27
319.776	288.93
319.99	-102.23
320.203	96.43
320.417	37.03
320.63	121
320.843	288.93
321.057	71.85
321.27	-44.88
321.483	250.02
321.697	229.54
321.91	59.56
322.124	-28.5
322.337	200.87
322.55	86.19
322.763	-10.07
322.977	-53.08
323.19	77.99
323.403	77.99
323.617	26.79
323.83	170.15
324.043	116.9
324.256	190.63
324.469	-235.35
324.683	151.72
324.896	59.56
325.109	161.96
325.322	-34.64
325.535	24.75
325.748	301.22
325.962	116.9
326.175	59.56
326.388	-34.64
326.601	245.93
326.814	155.82
327.027	14.51
327.24	100.52
327.453	-42.84
327.666	247.97
327.879	219.3
328.092	16.55
328.305	297.13
328.518	155.82
328.731	10.41
328.944	-100.18
329.157	164.01
329.37	129.19
329.583	157.86
329.796	45.23
330.009	-22.36
330.222	237.74
330.435	96.43
330.648	-10.07
330.861	176.3
331.073	209.06
331.286	145.58
331.499	26.79
331.712	151.72
331.925	86.19
332.138	92.33
332.35	39.08
332.563	-10.07
332.776	305.32
332.989	-5.97
333.202	-114.52
333.414	168.1
333.627	217.26
333.84	-5.97
334.053	84.14
334.265	112.81
334.478	59.56
334.691	4.27
334.903	112.81
335.116	55.47
335.329	166.06
335.541	-14.17
335.754	204.97
335.966	176.3
336.179	53.42
336.392	53.42
336.604	26.79
336.817	176.3
337.029	237.74
337.242	-94.04
337.454	63.66
337.667	243.88
337.88	325.8
338.092	84.14
338.305	45.23
338.517	84.14
338.729	196.78
338.942	125.1
339.154	-63.32
339.367	43.18
339.579	200.87
339.792	-48.98
340.004	116.9
340.217	121
340.429	209.06
340.641	-91.99
340.854	-132.95
341.066	217.26
341.278	299.17
341.491	237.74
341.703	24.75
341.915	143.53
342.128	299.17
342.34	139.43
342.552	-3.93
342.764	139.43
342.977	159.91
343.189	37.03
343.401	137.38
343.613	-10.07
343.826	225.45
344.038	-26.45
344.25	106.67
344.462	100.52
344.674	155.82
344.886	-20.31
345.099	37.03
345.311	250.02
345.523	127.14
345.735	-94.04
345.947	-30.55
346.159	182.44
346.371	202.92
346.583	34.99
346.795	184.49
347.007	100.52
347.219	282.79
347.431	51.37
347.643	247.97
347.855	75.95
348.067	286.89
348.279	-24.4
348.491	-22.36
348.703	303.27
348.915	231.59
349.127	-59.22
349.339	75.95
349.551	149.67
349.763	321.7
349.975	53.42
350.187	22.7
350.399	424.1
350.61	260.26
350.822	20.65
351.034	53.42
351.246	317.61
351.458	200.87
351.669	77.99
351.881	16.55
352.093	383.14
352.305	256.17
352.517	-63.32
352.728	86.19
352.94	116.9
353.152	313.51
353.363	-61.27
353.575	71.85
353.787	409.76
353.999	225.45
354.21	147.62
354.422	-28.5
354.633	151.72
354.845	143.53
355.057	61.61
355.268	-38.74
355.48	262.31
355.692	59.56
355.903	14.51
356.115	-139.09
356.326	-20.31
356.538	368.81
356.749	-20.31
356.961	100.52
357.172	194.73
357.384	77.99
357.595	213.16
357.807	32.94
358.018	157.86
358.23	266.41
358.441	-139.09
358.653	28.84
358.864	178.34
359.075	84.14
359.287	16.55
359.498	26.79
359.709	239.78
359.921	157.86
360.132	200.87
360.344	-51.03
360.555	39.08
360.766	239.78
360.977	0.17
361.189	125.1
361.4	104.62
361.611	231.59
361.823	133.29
362.034	-24.4
362.245	-20.31
362.456	174.25
362.667	192.68
362.879	-104.28
363.09	297.13
363.301	207.02
363.512	-14.17
363.723	-30.55
363.935	198.82
364.146	317.61
364.357	47.27
364.568	22.7
364.779	4.27
364.99	444.58
365.201	-18.26
365.412	135.34
365.623	-38.74
365.834	211.11
366.045	-14.17
366.256	53.42
366.467	338.09
366.678	166.06
366.889	47.27
367.1	14.51
367.311	264.36
367.522	108.71
367.733	118.95
367.944	18.6
368.155	155.82
368.366	252.07
368.577	88.23
368.788	149.67
368.999	137.38
369.209	151.72
369.42	166.06
369.631	397.48
369.842	284.84
370.053	155.82
370.264	10.41
370.474	-77.65
370.685	211.11
370.896	176.3
371.107	61.61
371.317	-1.88
371.528	221.35
371.739	356.52
371.95	100.52
372.16	116.9
372.371	61.61
372.582	92.33
372.792	10.41
373.003	92.33
373.214	202.92
373.424	182.44
373.635	37.03
373.846	116.9
374.056	196.78
374.267	192.68
374.477	51.37
374.688	-28.5
374.898	301.22
375.109	94.38
375.319	80.04
375.53	125.1
375.74	288.93
375.951	55.47
376.161	77.99
376.372	39.08
376.582	217.26
376.793	209.06
377.003	-8.02
377.214	-46.93
377.424	319.65
377.635	207.02
377.845	2.22
378.055	145.58
378.266	-22.36
378.476	114.86
378.686	57.51
378.897	88.23
379.107	327.85
379.317	235.69
379.528	-63.32
379.738	84.14
379.948	37.03
380.158	301.22
380.369	125.1
380.579	45.23
380.789	159.91
380.999	233.64
381.21	141.48
381.42	204.97
381.63	61.61
381.84	194.73
382.05	75.95
382.261	110.76
382.471	333.99
382.681	110.76
382.891	190.63
383.101	137.38
383.311	16.55
383.521	90.28
383.731	-1.88
383.941	188.58
384.151	266.41
384.361	131.24
384.571	-10.07
384.781	82.09
384.991	290.98
385.201	424.1
385.411	207.02
385.621	39.08
385.831	290.98
386.041	147.62
386.251	63.66
386.461	184.49
386.671	153.77
386.881	219.3
387.091	55.47
387.301	145.58
387.511	86.19
387.72	188.58
387.93	100.52
388.14	-75.6
388.35	145.58
388.56	325.8
388.769	43.18
388.979	121
389.189	24.75
389.399	211.11
389.609	41.13
389.818	84.14
390.028	237.74
390.238	141.48
390.447	-3.93
390.657	14.51
390.867	172.2
391.076	0.17
391.286	-18.26
391.496	-16.21
391.705	200.87
391.915	340.13
392.125	55.47
392.334	94.38
392.544	366.76
392.753	110.76
392.963	102.57
393.172	39.08
393.382	100.52
393.591	374.95
393.801	-69.46
394.01	77.99
394.22	305.32
394.429	213.16
394.639	67.75
394.848	90.28
395.058	241.83
395.267	192.68
395.477	82.09
395.686	75.95
395.895	546.98
396.105	383.14
396.314	112.81
396.524	116.9
396.733	125.1
396.942	354.47
397.152	80.04
397.361	174.25
397.57	198.82
397.78	192.68
397.989	151.72
398.198	262.31
398.407	168.1
398.617	166.06
398.826	86.19
399.035	20.65
399.244	227.5
399.453	215.21
399.663	-18.26
399.872	-102.23
400.081	88.23
400.29	338.09
400.499	-34.64
400.708	250.02
400.917	186.54
401.127	161.96
401.336	41.13
401.545	288.93
401.754	325.8
401.963	217.26
402.172	84.14
402.381	84.14
402.59	264.36
402.799	194.73
403.008	202.92
403.217	12.46
403.426	202.92
403.635	-3.93
403.844	-36.69
404.053	10.41
404.262	170.15
404.471	274.6
404.68	75.95
404.888	149.67
405.097	239.78
405.306	188.58
405.515	53.42
405.724	10.41
405.933	309.41
406.142	188.58
406.35	118.95
406.559	114.86
406.768	219.3
406.977	512.16
407.185	65.71
407.394	102.57
407.603	18.6
407.812	190.63
408.02	188.58
408.229	69.8
408.438	264.36
408.646	71.85
408.855	51.37
409.064	37.03
409.272	178.34
409.481	262.31
409.69	-16.21
409.898	-20.31
410.107	256.17
410.315	366.76
410.524	47.27
410.733	88.23
410.941	237.74
411.15	288.93
411.358	157.86
411.567	149.67
411.775	305.32
411.984	202.92
412.192	137.38
412.401	37.03
412.609	395.43
412.818	280.74
413.026	114.86
413.234	45.23
413.443	211.11
413.651	123.05
413.86	-89.94
414.068	239.78
414.276	501.92
414.485	157.86
414.693	166.06
414.901	250.02
415.11	254.12
415.318	223.4
415.526	143.53
415.734	178.34
415.943	309.41
416.151	348.33
416.359	-8.02
416.567	184.49
416.776	333.99
416.984	311.46
417.192	196.78
417.4	84.14
417.608	125.1
417.817	125.1
418.025	190.63
418.233	108.71
418.441	176.3
418.649	92.33
418.857	186.54
419.065	149.67
419.273	80.04
419.481	274.6
419.689	153.77
419.897	104.62
420.105	131.24
420.313	393.38
420.521	149.67
420.729	137.38
420.937	192.68
421.145	90.28
421.353	215.21
421.561	237.74
421.769	329.89
421.977	65.71
422.185	221.35
422.393	207.02
422.601	317.61
422.809	317.61
423.017	247.97
423.224	137.38
423.432	356.52
423.64	231.59
423.848	90.28
424.056	53.42
424.263	503.97
424.471	313.51
424.679	288.93
424.887	92.33
425.094	510.11
425.302	391.33
425.51	106.67
425.718	247.97
425.925	262.31
426.133	174.25
426.341	311.46
426.548	231.59
426.756	317.61
426.964	399.52
427.171	290.98
427.379	266.41
427.586	362.66
427.794	487.59
428.001	327.85
428.209	274.6
428.417	553.12
428.624	479.4
428.832	319.65
429.039	319.65
429.247	413.86
429.454	514.21
429.662	372.9
429.869	424.1
430.076	506.02
430.284	420
430.491	428.2
430.699	487.59
430.906	731.3
431.114	575.65
431.321	389.28
431.528	514.21
431.736	577.7
431.943	557.22
432.15	467.11
432.358	420
432.565	845.98
432.772	313.51
432.979	559.27
433.187	532.64
433.394	739.49
433.601	592.03
433.808	610.47
434.016	624.8
434.223	778.4
434.43	704.67
434.637	604.32
434.844	800.93
435.052	768.16
435.259	848.03
435.466	741.54
435.673	641.18
435.88	837.79
436.087	1001.63
436.294	960.67
436.501	882.85
436.708	870.56
436.915	936.09
437.122	964.76
437.329	725.15
437.537	893.09
437.743	1005.72
437.95	1040.54
438.157	940.19
438.364	1032.35
438.571	1073.31
438.778	1011.87
438.985	1114.27
439.192	1134.75
439.399	1106.07
439.606	1042.59
439.813	1237.14
440.02	1552.53
440.227	1568.91
440.433	1181.85
440.64	1185.94
440.847	1237.14
441.054	1362.07
441.261	1274.01
441.467	1386.65
441.674	1360.02
441.881	1632.4
442.088	1337.49
442.294	1452.18
442.501	1609.87
442.708	1753.23
442.914	1530
443.121	1732.75
443.328	1861.77
443.534	1968.27
443.741	1765.52
443.948	1726.61
444.154	2107.53
444.361	2287.75
444.568	2046.09
444.774	1900.69
444.981	1896.59
445.187	2214.02
445.394	2054.28
445.6	2191.5
445.807	2553.99
446.013	2459.78
446.22	2232.46
446.426	2539.65
446.633	2627.71
446.839	2924.67
447.046	2424.97
447.252	2664.58
447.459	2760.83
447.665	2967.68
447.871	2967.68
448.078	3397.75
448.284	3334.26
448.491	3375.22
448.697	3371.13
448.903	3461.24
449.11	3661.94
449.316	3565.68
449.522	3795.06
449.728	3831.92
449.935	4098.16
450.141	4089.96
450.347	4286.57
450.553	4081.77
450.76	4462.69
450.966	4624.48
451.172	4546.66
451.378	4726.88
451.584	4874.34
451.791	5294.17
451.997	5220.44
452.203	5261.4
452.409	5775.44
452.615	5722.2
452.821	5404.76
453.027	5384.28
453.233	6166.6
453.44	5875.79
453.646	5894.22
453.852	6127.69
454.058	6275.15
454.264	6613.06
454.47	6768.71
454.676	6643.78
454.882	7239.74
455.088	6772.8
455.294	6752.32
455.5	6987.84
455.705	7317.56
455.911	7417.91
456.117	7194.68
456.323	7284.8
456.529	7137.34
456.735	7753.78
456.941	7446.59
457.147	7147.58
457.352	7458.87
457.558	7536.7
457.764	7643.19
457.97	7669.81
458.176	7659.57
458.381	7692.34
458.587	7843.89
458.793	7489.59
458.999	7389.24
459.204	7946.29
459.41	7747.64
459.616	7497.78
459.821	7817.27
460.027	7538.74
460.233	7565.37
460.438	7426.11
460.644	7387.19
460.85	7335.99
461.055	7041.09
461.261	7114.81
461.466	6772.8
461.672	6783.04
461.878	6940.74
462.083	6918.21
462.289	6533.19
462.494	6608.97
462.7	6316.11
462.905	6084.69
463.111	6496.33
463.316	6535.24
463.522	6373.45
463.727	6262.86
463.932	6531.14
464.138	6475.85
464.343	6359.11
464.549	6271.05
464.754	6502.47
464.959	6387.79
465.165	6299.72
465.37	6062.16
465.575	5920.85
465.781	6088.78
465.986	6152.27
466.191	5961.81
466.397	6084.69
466.602	5789.78
466.807	5662.8
467.012	5771.35
467.218	6015.05
467.423	5935.18
467.628	5656.66
467.833	5877.84
468.038	6053.97
468.244	5560.41
468.449	5861.46
468.654	5718.1
468.859	6027.34
469.064	5808.21
469.269	5478.49
469.474	5552.21
469.679	5996.62
469.885	5933.14
470.09	5797.97
470.295	5849.17
470.5	5898.32
470.705	6133.84
470.91	5900.37
471.115	5795.92
471.32	6070.35
471.525	6168.65
471.73	5699.67
471.935	5982.29
472.139	5728.34
472.344	5871.7
472.549	5992.53
472.754	6015.05
472.959	6049.87
473.164	5931.09
473.369	5984.34
473.574	6324.3
473.778	6299.72
473.983	6211.66
474.188	6336.59
474.393	5830.74
474.598	6383.69
474.802	6344.78
475.007	6176.84
475.212	6082.64
475.417	6254.67
475.621	6264.91
475.826	6062.16
476.031	6236.24
476.235	6060.11
476.44	6340.68
476.645	6064.21
476.849	6101.07
477.054	6242.38
477.259	6135.89
477.463	6066.25
477.668	6223.95
477.872	6602.82
478.077	6131.79
478.282	6053.97
478.486	6105.17
478.691	6211.66
478.895	6297.67
479.1	6481.99
479.304	6387.79
479.509	6074.45
479.713	6420.55
479.918	6195.28
480.122	6027.34
480.326	6289.48
480.531	6422.6
480.735	6305.87
480.94	6213.71
481.144	6615.11
481.348	6338.63
481.553	6027.34
481.757	6191.18
481.961	6269
482.166	6459.46
482.37	6295.63
482.574	6215.76
482.778	6307.91
482.983	6660.17
483.187	6123.6
483.391	6373.45
483.595	6281.29
483.8	6588.49
484.004	6514.76
484.208	6586.44
484.412	6887.49
484.616	6715.46
484.821	6705.22
485.025	6488.14
485.229	6844.48
485.433	6885.44
485.637	6725.7
485.841	6475.85
486.045	7092.29
486.249	7172.16
486.453	6907.97
486.657	6963.26
486.861	6893.63
487.065	7092.29
487.269	7065.66
487.473	6991.94
487.677	7518.26
487.881	7630.9
488.085	7125.05
488.289	7428.15
488.493	7286.84
488.697	7680.05
488.901	7708.73
489.105	7587.89
489.309	7678.01
489.512	8013.87
489.716	7819.32
489.92	7897.14
490.124	7925.81
490.328	8282.16
490.531	8058.93
490.735	8239.15
490.939	8108.08
491.143	8362.03
491.346	8124.46
491.55	8525.86
491.754	8470.57
491.958	8595.5
492.161	8622.12
492.365	8493.1
492.569	8622.12
492.772	9035.81
492.976	8767.52
493.18	8945.7
493.383	9080.86
493.587	9277.47
493.79	9371.68
493.994	8970.27
494.197	9297.95
494.401	9455.64
494.605	9431.07
494.808	9564.18
495.012	9910.29
495.215	10123.28
495.419	10113.04
495.622	9852.95
495.825	9900.05
496.029	9963.54
496.232	10086.42
496.436	10031.12
496.639	10721.29
496.843	10397.71
497.046	10424.33
497.249	10917.89
497.453	11130.88
497.656	10991.62
497.859	10895.36
498.063	10971.14
498.266	11544.57
498.469	11339.77
498.673	11472.89
498.876	11595.77
499.079	11788.28
499.282	11753.46
499.485	11945.97
499.689	12066.8
499.892	12443.63
500.095	12124.15
500.298	12447.72
500.501	12412.91
500.705	12910.57
500.908	12896.23
501.111	12746.73
501.314	13068.26
501.517	13535.2
501.72	13539.29
501.923	13314.02
502.126	13621.21
502.329	14288.85
502.532	14317.52
502.735	14245.84
502.938	14917.58
503.141	14522.32
503.344	14616.52
503.547	15077.32
503.75	14997.45
503.953	15476.67
504.156	15542.21
504.359	15560.64
504.562	15581.12
504.765	15886.26
504.968	16218.04
505.17	16443.31
505.373	16312.24
505.576	16920.49
505.779	17117.09
505.982	17043.37
506.185	17235.88
506.387	17422.24
506.59	17829.79
506.793	17725.34
506.996	17852.31
507.198	18681.74
507.401	18718.61
507.604	18333.59
507.807	18724.75
508.009	19173.25
508.212	19443.59
508.415	19310.47
508.617	19455.87
508.82	19560.32
509.022	19935.1
509.225	20361.08
509.428	20371.32
509.63	20680.56
509.833	20440.95
510.035	21204.84
510.238	21139.3
510.44	21309.29
510.643	21698.4
510.845	22318.93
511.048	22091.61
511.25	22470.48
511.453	22552.4
511.655	23250.76
511.858	23082.83
512.06	23621.44
512.262	23373.64
512.465	23742.27
512.667	24241.98
512.87	24348.47
513.072	24719.15
513.274	24919.85
513.477	25376.55
513.679	25538.34
513.881	25567.01
514.084	25976.61
514.286	26099.48
514.488	26369.82
514.69	27344.65
514.893	26963.73
515.095	27336.46
515.297	27676.42
515.499	27709.19
515.701	27811.59
515.904	28354.3
516.106	28751.6
516.308	29171.44
516.51	28991.22
516.712	29198.06
516.914	29916.9
517.116	29769.44
517.318	30213.85
517.52	30389.98
517.722	30949.07
517.925	31123.15
518.127	31467.21
518.329	31647.43
518.531	31610.57
518.733	32509.63
518.935	32304.83
519.136	32509.63
519.338	32911.03
519.54	33408.68
519.742	33291.95
519.944	33937.06
520.146	34602.65
520.348	34748.06
520.55	34690.71
520.752	34713.24
520.954	35206.8
521.155	35456.65
521.357	35346.06
521.559	36560.51
521.761	36773.5
521.963	36423.29
522.164	36804.22
522.366	37156.47
522.568	37340.78
522.77	37949.03
522.971	38223.46
523.173	37820.01
523.375	38569.57
523.576	38172.26
523.778	38305.38
523.98	39073.37
524.181	39298.64
524.383	39644.75
524.584	39700.04
524.786	39700.04
524.988	39632.46
525.189	40398.4
525.391	40666.69
525.592	40367.68
525.794	40543.81
525.995	41420.34
526.197	41092.66
526.398	40986.17
526.6	41600.56
526.801	41641.52
527.003	41373.24
527.204	41934.38
527.406	42319.4
527.607	42329.64
527.808	42767.9
528.01	42079.78
528.211	42681.89
528.412	43249.17
528.614	42823.2
528.815	43107.86
529.016	43320.85
529.218	43197.98
529.419	43558.42
529.62	43245.08
529.822	43542.03
530.023	43437.59
530.224	43648.53
530.425	43503.12
530.626	43447.83
530.828	43365.91
531.029	44660.23
531.23	44242.44
531.431	43812.37
531.632	44324.36
531.833	44623.36
532.035	44269.06
532.236	44379.65
532.437	44594.69
532.638	44531.2
532.839	44434.95
533.04	44848.64
533.241	44410.37
533.442	45121.02
533.643	44537.35
533.844	44787.2
534.045	44961.28
534.246	44348.93
534.447	44609.03
534.648	44684.8
534.849	45194.75
535.05	44594.69
535.251	44582.4
535.451	44936.7
535.652	44852.73
535.853	44887.55
536.054	44875.26
536.255	45006.33
536.456	44576.26
536.657	45428.21
536.857	45073.91
537.058	45258.23
537.259	45565.43
537.46	45467.12
537.66	44623.36
537.861	45579.76
538.062	45291
538.263	45291
538.463	45315.58
538.664	45563.38
538.865	45456.89
539.065	45622.77
539.266	45247.99
539.466	45665.78
539.667	45022.72
539.868	45729.26
540.068	44848.64
540.269	45225.46
540.469	45680.11
540.67	45342.2
540.87	45692.4
541.071	45164.03
541.271	45870.57
541.472	45714.93
541.672	45622.77
541.873	45141.5
542.073	44901.89
542.274	46169.58
542.474	45547
542.675	45317.62
542.875	46235.11
543.075	45657.59
543.276	45172.22
543.476	46550.5
543.676	45223.42
543.877	45551.09
544.077	45860.33
544.277	46077.42
544.478	45639.15
544.678	46075.37
544.878	45835.76
545.078	45932.01
545.279	45489.65
545.479	44899.84
545.679	45688.31
545.879	45880.81
546.079	46075.37
546.28	45626.87
546.48	45790.7
546.68	46263.78
546.88	46319.08
547.08	46183.91
547.28	45981.17
547.48	45807.09
547.68	45768.18
547.88	45868.53
548.081	46495.21
548.281	46261.74
548.481	45530.61
548.681	46269.93
548.881	45884.91
549.081	45934.06
549.28	45921.77
549.48	46175.72
549.68	45747.7
549.88	46654.95
550.08	46183.91
550.28	46536.16
550.48	46245.35
550.68	46595.56
550.88	46382.57
551.08	45997.55
551.279	46372.33
551.479	46185.96
551.679	46675.43
551.879	46357.99
552.079	46632.42
552.278	46644.71
552.478	46437.86
552.678	46542.31
552.878	46749.15
553.077	46284.26
553.277	46212.59
553.477	46753.25
553.676	46491.11
553.876	46706.15
554.076	46478.82
554.275	46501.35
554.475	46155.24
554.674	46755.3
554.874	46722.53
555.074	46153.19
555.273	46323.18
555.473	46949.85
555.672	46282.22
555.872	46198.25
556.071	46749.15
556.271	46738.91
556.47	46376.42
556.67	46269.93
556.869	46269.93
557.068	46233.07
557.268	46390.76
557.467	45927.92
557.667	46126.57
557.866	46491.11
558.065	46210.54
558.265	45876.72
558.464	45651.44
558.663	45936.11
558.863	45751.79
559.062	46495.21
559.261	45510.13
559.461	46513.64
559.66	45630.96
559.859	45647.35
560.058	45506.04
560.258	45772.27
560.457	45258.23
560.656	45579.76
560.855	45553.14
561.054	46065.13
561.253	45456.89
561.453	45268.47
561.652	45743.6
561.851	45440.5
562.05	45209.08
562.249	44602.88
562.448	45114.87
562.647	45600.24
562.846	45241.85
563.045	44924.41
563.244	44795.39
563.443	45704.69
563.642	44557.83
563.841	44832.25
564.04	44234.25
564.239	45174.27
564.438	44799.49
564.637	44723.71
564.836	44688.9
565.035	44041.74
565.234	44480
565.432	44160.52
565.631	44011.02
565.83	44324.36
566.029	44183.05
566.228	44064.27
566.427	43918.86
566.625	43460.12
566.824	43171.35
567.023	43755.02
567.222	42968.6
567.42	43640.34
567.619	43316.76
567.818	42917.4
568.016	43132.44
568.215	43378.2
568.414	43294.23
568.612	43253.27
568.811	42831.39
569.01	42880.54
569.208	42395.17
569.407	42952.22
569.605	42186.28
569.804	42780.19
570.002	42112.55
570.201	42384.93
570.4	41938.47
570.598	41993.77
570.797	42051.11
570.995	41440.82
571.193	41287.22
571.392	41815.6
571.59	41199.16
571.789	41459.25
571.987	41100.86
572.186	41379.38
572.384	40996.41
572.582	41080.38
572.781	41270.84
572.979	39990.86
573.177	40648.25
573.376	40480.32
573.574	40531.52
573.772	40922.68
573.971	40369.73
574.169	39896.65
574.367	39636.56
574.565	40220.23
574.763	40205.89
574.962	39822.92
575.16	39151.19
575.358	39652.94
575.556	39341.65
575.754	39847.5
575.952	39300.69
576.151	39804.49
576.349	39269.97
576.547	38989.4
576.745	39290.45
576.943	39087.7
577.141	38915.67
577.339	38766.17
577.537	38559.33
577.735	38700.64
577.933	38336.1
578.131	38473.31
578.329	38444.64
578.527	38028.9
578.725	38368.87
578.923	38028.9
579.121	38170.21
579.319	37840.49
579.516	37977.7
579.714	37965.42
579.912	37731.95
580.11	37523.05
580.308	37838.44
580.506	37768.81
580.704	36818.55
580.901	37447.28
581.099	37953.13
581.297	37185.14
581.495	37080.69
581.692	37135.99
581.89	36798.07
582.088	37330.55
582.285	36820.6
582.483	37363.31
582.681	36861.56
582.878	36728.44
583.076	36472.45
583.274	36822.65
583.471	36787.83
583.669	36644.48
583.866	36251.27
584.064	36615.8
584.262	36083.33
584.459	36316.8
584.657	35968.65
584.854	36726.39
585.052	35772.04
585.249	36277.89
585.447	35935.88
585.644	35554.96
585.841	36034.18
586.039	36077.19
586.236	35526.28
586.434	35681.93
586.631	35303.06
586.828	35382.93
587.026	35425.93
587.223	35331.73
587.42	35169.94
587.618	35284.62
587.815	35038.87
588.012	35331.73
588.21	34909.85
588.407	35258
588.604	35034.77
588.801	35194.51
588.999	34756.25
589.196	34608.79
589.393	34803.35
589.59	34913.94
589.787	34926.23
589.984	34692.76
590.182	34608.79
590.379	34717.34
590.576	34768.54
590.773	34893.46
590.97	34889.37
591.167	34846.36
591.364	34602.65
591.561	34735.77
591.758	34367.13
591.955	34252.45
592.152	34852.5
592.349	34164.39
592.546	34449.05
592.743	34428.57
592.94	33887.91
593.137	34387.61
593.334	34381.47
593.531	34307.74
593.727	34533.02
593.924	33982.12
594.121	33920.68
594.318	34496.16
594.515	33459.88
594.712	34350.75
594.908	33980.07
595.105	33842.85
595.302	34178.72
595.499	33662.63
595.696	34006.69
595.892	33693.35
596.089	33896.1
596.286	33805.99
596.482	34064.03
596.679	33924.77
596.876	34096.8
597.072	33719.98
597.269	33564.33
597.466	33345.2
597.662	33502.89
597.859	33545.9
598.055	33885.86
598.252	33928.87
598.448	33967.78
598.645	33543.85
598.841	33593
599.038	34109.09
599.234	34133.67
599.431	33244.85
599.627	33236.66
599.824	33902.25
600.02	33343.15
600.217	33494.7
600.413	33334.96
600.609	33769.13
600.806	33713.83
601.002	33711.78
601.198	33119.92
601.395	33492.65
601.591	33701.54
601.787	33441.45
601.984	33326.77
602.18	33767.08
602.376	33646.25
602.572	33148.59
602.769	33816.23
602.965	32816.82
603.161	33433.26
603.357	33134.26
603.553	33234.61
603.75	33425.07
603.946	33144.5
604.142	33302.19
604.338	33050.29
604.534	33500.84
604.73	33160.88
604.926	33328.81
605.122	33433.26
605.318	33269.42
605.514	33062.58
605.71	33074.87
605.906	32892.6
606.102	33076.91
606.298	33451.69
606.494	32806.58
606.69	33173.17
606.886	33453.74
607.082	32759.48
607.278	33064.63
607.474	32372.41
607.67	33558.19
607.866	32427.71
608.062	32997.04
608.257	32714.42
608.453	33007.28
608.649	33230.51
608.845	32509.63
609.041	32765.62
609.236	32841.4
609.432	33060.53
609.628	32874.17
609.824	32886.45
610.019	33005.24
610.215	32859.83
610.411	32964.28
610.606	32769.72
610.802	33124.02
610.998	33009.33
611.193	33099.44
611.389	32763.57
611.584	33253.04
611.78	32571.07
611.976	32339.65
612.171	32927.41
612.367	32923.32
612.562	32804.53
612.758	32714.42
612.953	32308.93
613.149	32927.41
613.344	32327.36
613.539	33142.45
613.735	32644.79
613.93	32671.42
614.126	32829.11
614.321	32675.51
614.517	32628.41
614.712	32446.14
614.907	32847.54
615.103	32863.93
615.298	32147.14
615.493	32765.62
615.688	32290.49
615.884	33195.7
616.079	31979.2
616.274	32913.08
616.47	32630.46
616.665	32456.38
616.86	32304.83
617.055	32554.68
617.25	32267.97
617.445	32814.77
617.641	31831.75
617.836	32788.15
618.031	32171.71
618.226	32693.94
618.421	32288.45
618.616	32542.39
618.811	32024.26
619.006	32495.29
619.201	31520.46
619.396	32126.66
619.591	31514.31
619.786	32362.17
619.981	31477.45
620.176	32163.52
620.371	31399.63
620.566	31334.09
620.761	31831.75
620.956	31946.44
621.151	31172.3
621.346	31579.85
621.541	30971.6
621.735	31624.9
621.93	31182.54
622.125	31332.04
622.32	30459.61
622.515	30734.04
622.709	31069.9
622.904	30478.04
623.099	30770.9
623.294	30908.12
623.488	30605.02
623.683	30672.6
623.878	30115.55
624.072	30600.92
624.267	30168.8
624.462	30287.58
624.656	29853.41
624.851	30312.16
625.046	30158.56
625.24	29875.94
625.435	29574.89
625.629	29812.45
625.824	29650.66
626.018	29701.86
626.213	29181.68
626.407	29675.24
626.602	29052.66
626.796	29355.75
626.991	29263.6
627.185	29282.03
627.38	28942.07
627.574	28714.74
627.768	28589.81
627.963	28516.09
628.157	28686.07
628.352	28843.76
628.546	28260.09
628.74	29032.18
628.935	28243.71
629.129	28274.43
629.323	28456.7
629.517	28202.75
629.712	28053.25
629.906	28049.15
630.1	27576.07
630.294	28133.12
630.489	27928.32
630.683	28118.78
630.877	27449.1
631.071	27772.67
631.265	27692.8
631.459	27592.45
631.653	27141.9
631.848	27488.01
632.042	27377.42
632.236	27055.89
632.43	26781.46
632.624	27291.4
632.818	26949.39
633.012	26650.39
633.206	26496.79
633.4	26541.85
633.594	26423.06
633.788	26498.84
633.982	26316.57
634.176	26623.76
634.369	26136.35
634.563	26068.76
634.757	25827.1
634.951	26216.22
635.145	26271.51
635.339	25757.47
635.533	25843.49
635.726	25327.4
635.92	25012.01
636.114	25112.36
636.308	24926
636.501	25007.92
636.695	25085.74
636.889	24350.52
637.083	24450.87
637.276	24571.7
637.47	24037.18
637.664	24074.04
637.857	23910.21
638.051	24133.43
638.244	23805.76
638.438	23781.18
638.632	23365.45
638.825	22968.14
639.019	23261
639.212	22595.41
639.406	22865.74
639.599	22775.63
639.793	22501.2
639.986	22116.19
640.18	22234.97
640.373	22312.79
640.567	21796.7
640.76	21817.18
640.954	21645.15
641.147	21288.81
641.34	21231.46
641.534	21178.22
641.727	21022.57
641.92	20954.99
642.114	20416.37
642.307	20354.93
642.5	20285.3
642.694	20041.59
642.887	19902.33
643.08	19992.44
643.273	19533.7
643.467	19656.57
643.66	19107.72
643.853	18937.74
644.046	18868.11
644.239	19050.38
644.432	18732.94
644.626	18182.04
644.819	18227.09
645.012	18147.22
645.205	18329.49
645.398	18055.06
645.591	17622.94
645.784	17678.24
645.977	17463.2
646.17	17268.64
646.363	17149.86
646.556	16795.56
646.749	16760.75
646.942	17057.7
647.135	16818.09
647.328	16730.03
647.521	16684.97
647.714	16037.81
647.907	16271.28
648.099	16041.91
648.292	16426.93
648.485	16074.68
648.678	15560.64
648.871	15628.22
649.064	15570.88
649.256	15331.26
649.449	15169.48
649.642	14964.68
649.835	14983.11
650.027	14704.59
650.22	14620.62
650.413	14786.51
650.605	15028.17
650.798	14589.9
650.991	14391.25
651.183	14573.52
651.376	14270.42
651.568	14251.99
651.761	13690.84
651.954	14180.31
652.146	13787.1
652.339	13799.38
652.531	14168.02
652.724	13696.99
652.916	13447.13
653.109	13258.72
653.301	13400.03
653.494	13625.31
653.686	13168.61
653.879	13279.2
654.071	13287.39
654.263	13144.03
654.456	13033.44
654.648	13205.47
654.84	12779.5
655.033	12732.39
655.225	12775.4
655.417	12433.39
655.61	12814.31
655.802	12810.22
655.994	12625.9
656.186	12357.61
656.379	12218.35
656.571	12275.7
656.763	12189.68
656.955	12152.82
657.148	11980.79
657.34	12142.58
657.532	11741.18
657.724	11622.39
657.916	11599.87
658.108	11812.85
658.3	11485.18
658.492	11483.13
658.684	11028.48
658.876	11382.78
659.068	11143.17
659.26	10835.97
659.452	10848.26
659.644	11118.59
659.836	10989.57
660.028	10721.29
660.22	10405.9
660.412	10709
660.604	10453
660.796	10280.97
660.988	9941.01
661.18	10319.89
661.372	10057.75
661.563	10078.22
661.755	9713.69
661.947	9748.5
662.139	9752.6
662.331	9603.1
662.522	9320.48
662.714	9400.35
662.906	9308.19
663.097	8892.45
663.289	8996.9
663.481	8906.79
663.673	8892.45
663.864	8568.87
664.056	8626.22
664.247	8542.25
664.439	8624.17
664.631	8292.4
664.822	8144.94
665.014	8339.5
665.205	8097.84
665.397	7948.34
665.588	7909.43
665.78	8015.92
665.971	7923.76
666.163	7669.81
666.354	7608.37
666.546	7493.69
666.737	7374.91
666.929	7348.28
667.12	7155.77
667.311	7446.59
667.503	7116.86
667.694	6967.36
667.885	7088.19
668.077	7096.38
668.268	6592.58
668.459	6793.28
668.651	6955.07
668.842	6860.87
669.033	6615.11
669.224	6342.73
669.416	6799.43
669.607	6414.41
669.798	6395.98
669.989	6182.99
670.18	6150.22
670.371	6363.21
670.563	5879.89
670.754	6279.24
670.945	5916.75
671.136	6226
671.327	5924.94
671.518	5791.83
671.709	5965.9
671.9	6010.96
672.091	6000.72
672.282	5716.05
672.473	5621.84
672.664	5615.7
672.855	5834.83
673.046	5707.86
673.237	5787.73
673.428	5767.25
673.619	5797.97
673.809	5451.86
674	5498.97
674.191	5707.86
674.382	5638.23
674.573	5369.94
674.764	5331.03
674.954	5707.86
675.145	5245.02
675.336	5218.4
675.527	5302.36
675.717	5316.7
675.908	5204.06
676.099	5318.75
676.289	5189.72
676.48	5154.91
676.671	5374.04
676.861	5259.35
677.052	4997.21
677.243	5277.79
677.433	5122.14
677.624	5267.55
677.814	5058.65
678.005	5345.37
678.195	5433.43
678.386	5167.2
678.576	5105.76
678.767	5077.09
678.957	5136.48
679.148	5312.6
679.338	5263.45
679.529	5230.68
679.719	5177.44
679.909	5345.37
680.1	5025.89
680.29	5378.14
680.481	5081.18
680.671	5271.64
680.861	5242.97
681.052	5503.06
681.242	5304.41
681.432	5562.45
681.622	5312.6
681.813	5345.37
682.003	5378.14
682.193	5462.1
682.383	5474.39
682.573	5605.46
682.764	5664.85
682.954	5775.44
683.144	5767.25
683.334	5640.28
683.524	5675.09
683.714	5730.39
683.904	5865.55
684.094	5978.19
684.284	5951.57
684.474	6137.93
684.664	6129.74
684.854	6369.35
685.044	6277.19
685.234	6258.76
685.424	6305.87
685.614	6299.72
685.804	6613.06
685.994	6709.32
686.184	6516.81
686.374	6776.9
686.564	6903.87
686.753	6979.65
686.943	6836.29
687.133	7170.11
687.323	7088.19
687.513	7301.18
687.702	7223.36
687.892	7385.15
688.082	7628.85
688.272	7737.4
688.461	7667.77
688.651	8218.67
688.841	8114.22
689.03	7819.32
689.22	7985.2
689.41	8435.75
689.599	8450.09
689.789	8394.79
689.979	8441.9
690.168	8632.36
690.358	8781.86
690.547	8835.11
690.737	8728.61
690.926	9429.02
691.116	8867.88
691.305	9226.27
691.495	9201.69
691.684	9316.38
691.874	9576.47
692.063	9650.2
692.252	9441.31
692.442	10002.45
692.631	9543.71
692.82	9887.76
693.01	9994.26
693.199	10237.97
693.388	10201.1
693.578	9967.63
693.767	10176.53
693.956	10543.11
694.146	10489.87
694.335	10573.83
694.524	10631.18
694.713	11044.87
694.902	10852.36
695.092	10815.49
695.281	10717.19
695.47	11233.28
695.659	10850.31
695.848	11071.49
696.037	11210.75
696.226	11563
696.415	11089.92
696.604	11511.8
696.793	11454.46
696.982	11642.87
697.171	11759.61
697.36	11538.43
697.549	11487.23
697.738	11479.04
697.927	11630.59
698.116	11884.53
698.305	11677.69
698.494	12089.33
698.683	11884.53
698.872	11935.73
699.061	11804.66
699.25	11991.03
699.438	12146.67
699.627	11843.57
699.816	12095.47
700.005	12025.84
700.193	12023.8
700.382	12222.45
700.571	12163.06
700.76	12234.74
700.948	12386.29
701.137	12111.86
701.326	12124.15
701.514	12122.1
701.703	12414.96
701.892	12072.95
702.08	12058.61
702.269	12435.44
702.457	12093.43
702.646	12255.22
702.834	12199.92
703.023	12355.57
703.212	12548.08
703.4	12204.02
703.589	12056.56
703.777	12214.26
703.965	12148.72
704.154	11929.59
704.342	12027.89
704.531	12263.41
704.719	11925.49
704.907	12330.99
705.096	11915.25
705.284	12146.67
705.472	12099.57
705.661	11933.68
705.849	12175.34
706.037	12355.57
706.226	12054.51
706.414	11876.34
706.602	11814.9
706.79	11991.03
706.979	11970.55
707.167	11939.83
707.355	11552.76
707.543	12093.43
707.731	12005.36
707.919	11913.2
708.107	11577.34
708.296	11599.87
708.484	11618.3
708.672	11900.92
708.86	11837.43
709.048	11794.42
709.236	11767.8
709.424	11829.24
709.612	11649.02
709.8	11380.73
709.988	11618.3
710.176	11552.76
710.364	11687.93
710.551	11798.52
710.739	11532.28
710.927	11374.59
711.115	11470.84
711.303	11519.99
711.491	11626.49
711.679	11188.22
711.866	11309.05
712.054	11362.3
712.242	11333.63
712.43	11290.62
712.617	11245.57
712.805	11272.19
712.993	11096.07
713.181	10870.79
713.368	10928.13
713.556	11272.19
713.744	10764.29
713.931	11147.26
714.119	10770.44
714.306	11065.35
714.494	10993.67
714.682	10807.3
714.869	10522.63
715.057	10889.22
715.244	10684.42
715.432	10831.88
715.619	10399.76
715.807	10567.69
715.994	10528.78
716.182	10526.73
716.369	10747.91
716.556	10639.37
716.744	10250.25
716.931	10217.49
717.119	10139.66
717.306	10135.57
717.493	10256.4
717.681	10022.93
717.868	9965.59
718.055	10270.73
718.242	10217.49
718.43	9969.68
718.617	9893.91
718.804	10024.98
718.991	9977.87
719.179	9867.28
719.366	9574.42
719.553	10008.59
719.74	9545.75
719.927	9539.61
720.114	9504.79
720.301	9426.97
720.488	9302.04
720.676	9363.48
720.863	9562.14
721.05	9891.86
721.237	9406.49
721.424	9095.2
721.611	9250.85
721.798	9105.44
721.985	9072.67
722.172	9068.58
722.358	9146.4
722.545	9295.9
722.732	9170.97
722.919	9259.04
723.106	8904.74
723.293	8910.88
723.48	8972.32
723.667	8816.68
723.853	8945.7
724.04	9050.14
724.227	8980.51
724.414	8484.91
724.6	8546.34
724.787	8906.79
724.974	8845.35
725.161	8687.65
725.347	8243.24
725.534	8560.68
725.72	8466.47
725.907	8157.23
726.094	8300.59
726.28	8321.07
726.467	8239.15
726.653	7901.23
726.84	8177.71
727.027	8343.6
727.213	7807.03
727.4	8120.37
727.586	7952.43
727.773	8163.37
727.959	8038.45
728.145	7983.15
728.332	7718.96
728.518	7811.12
728.705	7927.86
728.891	7630.9
729.077	7901.23
729.264	7675.96
729.45	7469.11
729.636	7792.69
729.823	7411.77
730.009	7829.56
730.195	7776.31
730.382	7501.88
730.568	7348.28
730.754	7510.07
730.94	7358.52
731.126	7415.87
731.313	7440.44
731.499	7485.5
731.685	7538.74
731.871	7333.95
732.057	7376.95
732.243	7401.53
732.429	7331.9
732.615	7204.92
732.801	7020.61
732.987	7014.46
733.173	7229.5
733.359	6723.65
733.545	7186.49
733.731	7118.91
733.917	7114.81
734.103	6828.1
734.289	6852.67
734.475	6996.03
734.661	6996.03
734.847	6600.77
735.033	6676.55
735.219	6895.68
735.404	6754.37
735.59	6555.72
735.776	6408.26
735.962	6789.19
736.148	6666.31
736.333	6602.82
736.519	6518.86
736.705	6694.98
736.89	6520.9
737.076	6391.88
737.262	6279.24
737.447	6438.98
737.633	6408.26
737.819	6357.07
738.004	6342.73
738.19	6336.59
738.375	6393.93
738.561	6289.48
738.747	6117.45
738.932	6080.59
739.118	6352.97
739.303	6066.25
739.489	6148.17
739.674	6041.68
739.859	5734.48
740.045	5941.33
740.23	5697.62
740.416	5650.52
740.601	5945.42
740.786	5714
740.972	5621.84
741.157	5673.04
741.342	5568.6
741.528	5722.2
741.713	5738.58
741.898	5646.42
742.084	5701.72
742.269	5634.13
742.454	5505.11
742.639	5883.98
742.824	5494.87
743.01	5636.18
743.195	5429.34
743.38	5531.73
743.565	5433.43
743.75	5208.16
743.935	5099.61
744.12	5431.38
744.305	5126.24
744.49	5396.57
744.675	5029.98
744.86	5265.5
745.045	5208.16
745.23	5003.36
745.415	4903.01
745.6	5412.95
745.785	5060.7
745.97	5038.17
746.155	5077.09
746.34	5156.96
746.525	4950.11
746.71	4898.91
746.895	4640.87
747.079	4853.86
747.264	4870.24
747.449	4698.21
747.634	4761.7
747.819	4745.31
748.003	4665.44
748.188	4552.81
748.373	4548.71
748.557	4659.3
748.742	4780.13
748.927	4542.57
749.111	4386.92
749.296	4407.4
749.481	4522.09
749.665	4227.18
749.85	4239.47
750.034	4458.6
750.219	4362.34
750.404	4214.89
750.588	4175.98
750.773	4182.12
750.957	4294.76
751.141	4020.33
751.326	4280.43
751.51	4139.12
751.695	4044.91
751.879	3956.85
752.064	4104.3
752.248	3883.12
752.432	4149.36
752.617	3782.77
752.801	3956.85
752.985	3952.75
753.17	4130.92
753.354	3881.07
753.538	3733.62
753.722	3797.1
753.907	3682.42
754.091	3604.6
754.275	3688.56
754.459	3602.55
754.643	3524.72
754.828	3600.5
755.012	3451
755.196	3471.48
755.38	3668.08
755.564	3319.93
755.748	3571.83
755.932	3592.31
756.116	3549.3
756.3	3451
756.484	3221.63
756.668	3590.26
756.852	3190.91
757.036	3346.55
757.22	3147.9
757.404	3176.57
757.588	3221.63
757.772	3360.89
757.956	3137.66
758.14	3391.61
758.323	3027.07
758.507	3004.54
758.691	3094.65
758.875	3283.06
759.059	3350.65
759.242	2922.62
759.426	3041.4
759.61	2951.29
759.794	2898.05
759.977	2900.09
760.161	3229.82
760.345	3158.14
760.528	3004.54
760.712	2633.86
760.895	2689.15
761.079	2746.5
761.263	2654.34
761.446	2427.01
761.63	2336.9
761.813	2734.21
761.997	2646.15
762.18	2586.76
762.364	2648.19
762.547	2345.09
762.731	2551.94
762.914	2617.47
763.098	2467.97
763.281	2576.52
763.464	2537.6
763.648	2455.69
763.831	2386.05
764.015	2447.49
764.198	2728.07
764.381	2451.59
764.564	2406.53
764.748	2556.04
764.931	2705.54
765.114	2318.47
765.297	2361.48
765.481	2400.39
765.664	2441.35
765.847	2373.77
766.03	2494.6
766.213	2386.05
766.397	2513.03
766.58	2316.42
766.763	2502.79
766.946	2572.42
767.129	2572.42
767.312	2363.53
767.495	2488.45
767.678	2369.67
767.861	2640
768.044	2289.8
768.227	2439.3
768.41	2427.01
768.593	2560.13
768.776	2543.75
768.959	2418.82
769.142	2762.88
769.324	2375.81
769.507	2418.82
769.69	2373.77
769.873	2449.54
770.056	2746.5
770.239	2384.01
770.421	2441.35
770.604	2597
770.787	2259.08
770.97	2164.87
771.152	2146.44
771.335	2531.46
771.518	2312.33
771.7	2306.18
771.883	2547.84
772.066	2302.09
772.248	2502.79
772.431	2267.27
772.613	2300.04
772.796	2412.68
772.978	2441.35
773.161	2414.73
773.343	2271.37
773.526	2261.13
773.708	2158.73
773.891	1984.65
774.073	2191.5
774.256	2168.97
774.438	2500.74
774.621	2044.04
774.803	2166.92
774.985	2119.82
775.168	2246.79
775.35	2121.87
775.532	2201.74
775.715	2107.53
775.897	2197.64
776.079	2044.04
776.261	1992.84
776.444	2246.79
776.626	1925.26
776.808	1960.08
776.99	1880.21
777.173	2052.24
777.355	2044.04
777.537	1853.58
777.719	1966.22
777.901	1998.99
778.083	1853.58
778.265	1919.12
778.447	1855.63
778.629	1878.16
778.811	1951.88
778.993	1892.49
779.175	1855.63
779.357	1894.54
779.539	1704.08
779.721	1857.68
779.903	1794.19
780.085	1814.67
780.267	1902.73
780.449	1724.56
780.631	1810.58
780.812	2013.32
780.994	1734.8
781.176	1597.59
781.358	1583.25
781.54	1742.99
781.721	1759.38
781.903	1523.86
782.085	1544.34
782.267	1910.93
782.448	1566.87
782.63	1595.54
782.812	1697.94
782.993	1714.32
783.175	1667.22
783.357	1550.48
783.538	1616.02
783.72	1460.37
783.901	1564.82
784.083	1536.15
784.264	1618.07
784.446	1423.51
784.627	1331.35
784.809	1417.37
784.99	1427.6
785.172	1468.56
785.353	1593.49
785.535	1351.83
785.716	1325.21
785.897	1525.91
786.079	1378.45
786.26	1372.31
786.441	1362.07
786.623	1290.39
786.804	1355.93
786.985	1398.93
787.167	1327.25
787.348	1427.6
787.529	1394.84
787.71	1253.53
787.891	1304.73
788.073	1286.3
788.254	1312.92
788.435	1353.88
788.616	1177.75
788.797	1255.58
788.978	1280.15
789.159	1218.71
789.34	1364.12
789.522	1271.96
789.703	1204.38
789.884	1321.11
790.065	1333.4
790.246	1546.39
790.427	1124.51
790.607	1175.7
790.788	1167.51
790.969	1089.69
791.15	1306.77
791.331	1081.5
791.512	1052.83
791.693	1108.12
791.874	1108.12
792.054	1337.49
792.235	1157.27
792.416	1077.4
792.597	1122.46
792.778	1177.75
792.958	1061.02
793.139	1200.28
793.32	1163.42
793.5	987.29
793.681	1165.46
793.862	1321.11
794.042	1087.64
794.223	886.94
794.404	1132.7
794.584	893.09
794.765	1005.72
794.945	1005.72
795.126	1013.92
795.306	1095.83
795.487	1056.92
795.667	946.33
795.848	876.7
796.028	1038.49
796.209	975
796.389	975
796.57	862.37
796.75	839.84
796.93	1026.2
797.111	858.27
797.291	919.71
797.471	1071.26
797.652	985.24
797.832	901.28
798.012	936.09
798.192	929.95
798.373	831.65
798.553	919.71
798.733	934.04
798.913	895.13
799.093	968.86
799.274	852.13
799.454	950.43
799.634	1075.35
799.814	977.05
799.994	999.58
800.174	909.47
800.354	1034.39
800.534	768.16
800.714	866.46
800.894	628.9
801.074	782.49
801.254	870.56
801.434	972.96
801.614	768.16
801.794	835.74
801.974	4458.6
802.154	739.49
802.334	805.02
802.514	778.4
802.693	860.32
802.873	608.42
803.053	839.84
803.233	839.84
803.413	815.26
803.592	704.67
803.772	764.06
803.952	753.82
804.131	585.89
804.311	802.97
804.491	788.64
804.67	698.53
804.85	686.24
805.03	778.4
805.209	835.74
805.389	657.57
805.568	784.54
805.748	741.54
805.928	735.39
806.107	821.41
806.287	825.5
806.466	770.21
806.646	671.9
806.825	747.68
807.004	684.19
807.184	669.86
807.363	696.48
807.543	839.84
807.722	522.4
807.901	807.07
808.081	690.34
808.26	450.72
808.439	612.51
808.619	626.85
808.798	596.13
808.977	821.41
809.156	882.85
809.336	725.15
809.515	680.1
809.694	516.26
809.873	716.96
810.052	583.84
810.231	802.97
810.411	692.38
810.59	815.26
810.769	651.42
810.948	612.51
811.127	428.2
811.306	592.03
811.485	542.88
811.664	698.53
811.843	673.95
812.022	731.3
812.201	581.79
812.38	530.59
812.559	618.66
812.737	655.52
812.916	370.85
813.095	514.21
813.274	776.35
813.453	596.13
813.632	530.59
813.811	690.34
813.989	481.44
814.168	592.03
814.347	301.22
814.526	587.94
814.704	848.03
814.883	749.73
815.062	417.96
815.24	524.45
815.419	440.48
815.598	649.38
815.776	331.94
815.955	401.57
816.133	303.27
816.312	614.56
816.49	385.19
816.669	493.73
816.847	587.94
817.026	571.55
817.204	436.39
817.383	491.68
817.561	358.57
817.74	604.32
817.918	428.2
818.097	440.48
818.275	503.97
818.453	598.18
818.632	497.83
818.81	340.13
818.988	463.01
819.167	374.95
819.345	442.53
819.523	336.04
819.701	514.21
819.879	575.65
820.058	444.58
820.236	356.52
820.414	528.55
820.592	448.68
820.77	424.1
820.948	348.33
821.127	399.52
821.305	561.31
821.483	315.56
821.661	512.16
821.839	463.01
822.017	323.75
822.195	313.51
822.373	426.15
822.551	508.07
822.729	542.88
822.907	280.74
823.085	430.24
823.262	432.29
823.44	393.38
823.618	323.75
823.796	348.33
823.974	454.82
824.152	342.18
824.329	420
824.507	440.48
824.685	499.88
824.863	438.44
825.04	256.17
825.218	344.23
825.396	409.76
825.574	524.45
825.751	442.53
825.929	362.66
826.107	288.93
826.284	452.77
826.462	321.7
826.639	331.94
826.817	315.56
826.994	366.76
827.172	237.74
827.349	452.77
827.527	479.4
827.704	360.61
827.882	514.21
828.059	325.8
828.237	342.18
828.414	448.68
828.591	92.33
828.769	239.78
828.946	280.74
829.124	501.92
829.301	465.06
829.478	258.21
829.655	405.67
829.833	454.82
830.01	77.99
830.187	483.49
830.364	360.61
830.542	495.78
830.719	379.04
830.896	405.67
831.073	383.14
831.25	440.48
831.427	333.99
831.604	258.21
831.782	342.18
831.959	407.72
832.136	323.75
832.313	325.8
832.49	331.94
832.667	364.71
832.844	225.45
833.021	549.03
833.198	319.65
833.374	327.85
833.551	360.61
833.728	176.3
833.905	475.3
834.082	77.99
834.259	385.19
834.436	362.66
834.612	166.06
834.789	420
834.966	217.26
835.143	176.3
835.319	211.11
835.496	389.28
835.673	250.02
835.85	393.38
836.026	340.13
836.203	438.44
836.38	192.68
836.556	280.74
836.733	325.8
836.909	608.42
837.086	327.85
837.262	149.67
837.439	377
837.616	342.18
837.792	239.78
837.968	241.83
838.145	141.48
838.321	270.5
838.498	329.89
838.674	407.72
838.851	354.47
839.027	243.88
839.203	254.12
839.38	313.51
839.556	301.22
839.732	372.9
839.909	276.65
840.085	209.06
840.261	260.26
840.437	336.04
840.614	274.6
840.79	284.84
840.966	411.81
841.142	299.17
841.318	153.77
841.494	168.1
841.671	487.59
841.847	207.02
842.023	110.76
842.199	227.5
842.375	561.31
842.551	75.95
842.727	125.1
842.903	338.09
843.079	229.54
843.255	424.1
843.431	217.26
843.607	288.93
843.783	-10.07
843.959	364.71
844.134	159.91
844.31	354.47
844.486	243.88
844.662	231.59
844.838	243.88
845.013	219.3
845.189	495.78
845.365	360.61
845.541	272.55
845.716	288.93
845.892	473.25
846.068	178.34
846.244	135.34
846.419	108.71
846.595	211.11
846.77	143.53
846.946	256.17
847.122	219.3
847.297	180.39
847.473	561.31
847.648	84.14
847.824	149.67
847.999	45.23
848.175	266.41
848.35	266.41
848.526	295.08
848.701	424.1
848.876	354.47
849.052	348.33
849.227	221.35
849.403	290.98
849.578	213.16
849.753	258.21
849.929	223.4
850.104	166.06
850.279	159.91
850.454	182.44
850.63	164.01
850.805	327.85
850.98	217.26
851.155	247.97
851.33	188.58
851.505	100.52
851.681	397.48
851.856	145.58
852.031	145.58
852.206	346.28
852.381	112.81
852.556	86.19
852.731	61.61
852.906	420
853.081	290.98
853.256	274.6
853.431	141.48
853.606	225.45
853.781	102.57
853.956	18.6
854.131	192.68
854.305	159.91
854.48	125.1
854.655	92.33
854.83	184.49
855.005	243.88
855.18	254.12
855.354	123.05
855.529	71.85
855.704	194.73
855.879	256.17
856.053	71.85
856.228	170.15
856.403	174.25
856.577	290.98
856.752	34.99
856.926	176.3
857.101	319.65
857.276	57.51
857.45	231.59
857.625	211.11
857.799	274.6
857.974	276.65
858.148	-8.02
858.323	71.85
858.497	180.39
858.672	188.58
858.846	121
859.02	202.92
859.195	155.82
859.369	229.54
859.543	188.58
859.718	190.63
859.892	233.64
860.066	227.5
860.241	84.14
860.415	59.56
860.589	168.1
860.763	186.54
860.938	180.39
861.112	86.19
861.286	182.44
861.46	321.7
861.634	223.4
861.808	133.29
861.982	149.67
862.157	96.43
862.331	96.43
862.505	14.51
862.679	-55.12
862.853	186.54
863.027	84.14
863.201	88.23
863.375	96.43
863.549	190.63
863.722	157.86
863.896	217.26
864.07	37.03
864.244	207.02
864.418	196.78
864.592	55.47
864.766	221.35
864.939	188.58
865.113	129.19
865.287	227.5
865.461	43.18
865.634	200.87
865.808	98.47
865.982	96.43
866.156	159.91
866.329	-77.65
866.503	182.44
866.676	237.74
866.85	204.97
867.024	123.05
867.197	301.22
867.371	43.18
867.544	192.68
867.718	12.46
867.891	209.06
868.065	6.31
868.238	215.21
868.412	268.45
868.585	112.81
868.759	-1.88
868.932	143.53
869.105	0.17
869.279	135.34
869.452	4.27
869.625	317.61
869.799	192.68
869.972	-30.55
870.145	45.23
870.319	389.28
870.492	164.01
870.665	141.48
870.838	39.08
871.011	-143.19
871.185	202.92
871.358	80.04
871.531	207.02
871.704	75.95
871.877	233.64
872.05	80.04
872.223	71.85
872.396	309.41
872.569	217.26
872.742	47.27
872.915	170.15
873.088	80.04
873.261	12.46
873.434	209.06
873.607	8.36
873.78	454.82
873.953	37.03
874.126	133.29
874.299	151.72
874.471	67.75
874.644	133.29
874.817	184.49
874.99	321.7
875.163	86.19
875.335	213.16
875.508	-10.07
875.681	184.49
875.853	174.25
876.026	143.53
876.199	223.4
876.371	2.22
876.544	80.04
876.717	170.15
876.889	94.38
877.062	204.97
877.234	22.7
877.407	123.05
877.579	211.11
877.752	100.52
877.924	346.28
878.097	192.68
878.269	200.87
878.442	123.05
878.614	223.4
878.786	215.21
878.959	75.95
879.131	176.3
879.303	-22.36
879.476	110.76
879.648	235.69
879.82	77.99
879.993	145.58
880.165	45.23
880.337	65.71
880.509	110.76
880.681	-1.88
880.854	102.57
881.026	159.91
881.198	186.54
881.37	127.14
881.542	172.2
881.714	149.67
881.886	71.85
882.058	239.78
882.23	153.77
882.402	92.33
882.574	184.49
882.746	282.79
882.918	344.23
883.09	145.58
883.262	121
883.434	342.18
883.606	-61.27
883.778	88.23
883.95	280.74
884.122	118.95
884.293	331.94
884.465	135.34
884.637	125.1
884.809	112.81
884.98	217.26
885.152	106.67
885.324	168.1
885.496	149.67
885.667	151.72
885.839	106.67
886.011	151.72
886.182	293.03
886.354	247.97
886.525	129.19
886.697	-10.07
886.869	-36.69
887.04	102.57
887.212	295.08
887.383	252.07
887.555	174.25
887.726	116.9
887.897	88.23
888.069	90.28
888.24	286.89
888.412	170.15
888.583	127.14
888.754	37.03
888.926	4.27
889.097	73.9
889.268	-1.88
889.44	-10.07
889.611	18.6
889.782	-81.75
889.953	39.08
890.125	209.06
890.296	0.17
890.467	100.52
890.638	28.84
890.809	55.47
890.98	94.38
891.151	233.64
891.323	217.26
891.494	24.75
891.665	198.82
891.836	116.9
892.007	34.99
892.178	192.68
892.349	288.93
892.52	45.23
892.691	116.9
892.862	26.79
893.032	55.47
893.203	108.71
893.374	63.66
893.545	108.71
893.716	41.13
893.887	270.5
894.057	86.19
894.228	82.09
894.399	53.42
894.57	286.89
894.74	63.66
894.911	63.66
895.082	108.71
895.253	30.89
895.423	110.76
895.594	190.63
895.764	204.97
895.935	-53.08
896.106	143.53
896.276	34.99
896.447	207.02
896.617	-5.97
896.788	-77.65
896.958	-79.7
897.129	118.95
897.299	30.89
897.47	272.55
897.64	231.59
897.81	18.6
897.981	282.79
898.151	55.47
898.322	92.33
898.492	209.06
898.662	-26.45
898.832	4.27
899.003	22.7
899.173	276.65
899.343	-89.94
899.513	-40.79
