Data from USB4F104151__83__12-36-55-912.txt Node

Date: Fri Mar 14 12:36:55 EDT 2025
User: louis
Spectrometer: USB4F10415
Trigger mode: 4
Integration Time (sec): 2.000000E-2
Scans to average: 1
Electric dark correction enabled: true
Nonlinearity correction enabled: false
Boxcar width: 0
XAxis mode: Wavelengths
Number of Pixels in Spectrum: 3648
>>>>>Begin Spectral Data<<<<<
178.204	-84.14
178.424	-84.14
178.644	-84.14
178.864	-118.95
179.084	-112.81
179.304	-67.75
179.524	3.93
179.744	-0.17
179.964	26.45
180.184	-4.27
180.404	32.6
180.624	-4.27
180.844	42.84
181.064	-61.61
181.283	-53.42
181.503	73.56
181.723	12.12
181.943	-45.23
182.163	14.17
182.383	85.84
182.602	5.97
182.822	3.93
183.042	53.08
183.262	53.08
183.482	48.98
183.701	51.03
183.921	-18.6
184.141	-53.42
184.361	51.03
184.58	-51.37
184.8	-18.6
185.02	-0.17
185.239	46.93
185.459	18.26
185.679	75.6
185.898	18.26
186.118	59.22
186.338	-57.51
186.557	26.45
186.777	-2.22
186.997	3.93
187.216	-20.65
187.436	-4.27
187.655	22.36
187.875	122.71
188.095	-6.31
188.314	81.75
188.534	89.94
188.753	26.45
188.973	34.64
189.192	40.79
189.412	46.93
189.631	77.65
189.851	12.12
190.07	-10.41
190.29	1.88
190.509	-24.75
190.729	30.55
190.948	65.36
191.168	98.13
191.387	67.41
191.607	-16.55
191.826	18.26
192.045	5.97
192.265	26.45
192.484	36.69
192.704	-28.84
192.923	-37.03
193.142	5.97
193.362	12.12
193.581	1.88
193.8	26.45
194.02	18.26
194.239	24.4
194.458	42.84
194.678	-26.79
194.897	18.26
195.116	28.5
195.335	36.69
195.555	-2.22
195.774	5.97
195.993	22.36
196.212	-20.65
196.432	-20.65
196.651	-59.56
196.87	-4.27
197.089	42.84
197.308	89.94
197.528	22.36
197.747	8.02
197.966	28.5
198.185	145.24
198.404	3.93
198.623	-14.51
198.842	30.55
199.062	14.17
199.281	51.03
199.5	26.45
199.719	46.93
199.938	40.79
200.157	1.88
200.376	-34.99
200.595	32.6
200.814	32.6
201.033	40.79
201.252	61.27
201.471	-8.36
201.69	20.31
201.909	108.37
202.128	96.08
202.347	-10.41
202.566	-4.27
202.785	-8.36
203.004	71.51
203.223	5.97
203.442	51.03
203.661	57.17
203.879	-24.75
204.098	98.13
204.317	38.74
204.536	67.41
204.755	51.03
204.974	5.97
205.193	-12.46
205.411	38.74
205.63	16.21
205.849	-4.27
206.068	-20.65
206.287	-4.27
206.505	65.36
206.724	14.17
206.943	116.56
207.162	3.93
207.381	55.12
207.599	3.93
207.818	16.21
208.037	18.26
208.255	20.31
208.474	-14.51
208.693	30.55
208.911	-18.6
209.13	26.45
209.349	53.08
209.567	59.22
209.786	-30.89
210.005	-39.08
210.223	10.07
210.442	1.88
210.661	1.88
210.879	3.93
211.098	24.4
211.316	-18.6
211.535	91.99
211.753	-0.17
211.972	36.69
212.191	-14.51
212.409	55.12
212.628	73.56
212.846	57.17
213.065	96.08
213.283	89.94
213.502	53.08
213.72	53.08
213.938	30.55
214.157	38.74
214.375	-26.79
214.594	24.4
214.812	-30.89
215.031	14.17
215.249	59.22
215.467	10.07
215.686	-65.71
215.904	-12.46
216.122	20.31
216.341	96.08
216.559	73.56
216.778	20.31
216.996	40.79
217.214	77.65
217.432	63.32
217.651	-2.22
217.869	51.03
218.087	-4.27
218.306	24.4
218.524	-12.46
218.742	18.26
218.96	75.6
219.179	46.93
219.397	81.75
219.615	67.41
219.833	63.32
220.051	-8.36
220.27	32.6
220.488	42.84
220.706	10.07
220.924	-6.31
221.142	44.88
221.36	12.12
221.578	46.93
221.796	-49.32
222.015	51.03
222.233	12.12
222.451	96.08
222.669	-4.27
222.887	94.04
223.105	24.4
223.323	28.5
223.541	-4.27
223.759	26.45
223.977	16.21
224.195	57.17
224.413	55.12
224.631	71.51
224.849	8.02
225.067	16.21
225.285	-4.27
225.503	-20.65
225.721	-80.04
225.939	1.88
226.157	44.88
226.375	87.89
226.592	46.93
226.81	1.88
227.028	69.46
227.246	57.17
227.464	-75.95
227.682	-12.46
227.9	-22.7
228.117	-22.7
228.335	108.37
228.553	34.64
228.771	79.7
228.989	-30.89
229.206	94.04
229.424	38.74
229.642	-0.17
229.86	-34.99
230.077	12.12
230.295	42.84
230.513	-18.6
230.731	57.17
230.948	-8.36
231.166	75.6
231.384	-43.18
231.601	12.12
231.819	69.46
232.037	48.98
232.254	1.88
232.472	1.88
232.689	36.69
232.907	-12.46
233.125	24.4
233.342	-47.27
233.56	22.36
233.777	30.55
233.995	14.17
234.213	16.21
234.43	-10.41
234.648	-8.36
234.865	-45.23
235.083	14.17
235.3	14.17
235.518	38.74
235.735	22.36
235.953	14.17
236.17	3.93
236.388	51.03
236.605	26.45
236.822	-10.41
237.04	40.79
237.257	3.93
237.475	-2.22
237.692	-4.27
237.909	-2.22
238.127	-77.99
238.344	51.03
238.562	10.07
238.779	77.65
238.996	14.17
239.214	38.74
239.431	1.88
239.648	-53.42
239.865	75.6
240.083	44.88
240.3	38.74
240.517	-45.23
240.735	38.74
240.952	34.64
241.169	-6.31
241.386	51.03
241.603	16.21
241.821	16.21
242.038	106.32
242.255	30.55
242.472	26.45
242.689	59.22
242.907	87.89
243.124	-6.31
243.341	69.46
243.558	-8.36
243.775	67.41
243.992	-22.7
244.209	1.88
244.426	3.93
244.643	-8.36
244.86	79.7
245.078	14.17
245.295	83.8
245.512	1.88
245.729	67.41
245.946	3.93
246.163	-28.84
246.38	81.75
246.597	-12.46
246.814	20.31
247.031	-37.03
247.248	55.12
247.464	14.17
247.681	36.69
247.898	-26.79
248.115	53.08
248.332	73.56
248.549	120.66
248.766	57.17
248.983	55.12
249.2	14.17
249.417	104.28
249.633	-63.66
249.85	114.52
250.067	18.26
250.284	12.12
250.501	5.97
250.717	53.08
250.934	40.79
251.151	55.12
251.368	22.36
251.585	-0.17
251.801	-16.55
252.018	-6.31
252.235	57.17
252.451	-16.55
252.668	16.21
252.885	104.28
253.102	16.21
253.318	38.74
253.535	8.02
253.752	46.93
253.968	48.98
254.185	-10.41
254.401	28.5
254.618	34.64
254.835	59.22
255.051	48.98
255.268	57.17
255.484	26.45
255.701	-32.94
255.917	73.56
256.134	8.02
256.351	-28.84
256.567	57.17
256.784	5.97
257	-47.27
257.217	34.64
257.433	85.84
257.65	46.93
257.866	65.36
258.082	106.32
258.299	16.21
258.515	48.98
258.732	-18.6
258.948	5.97
259.165	-2.22
259.381	51.03
259.597	51.03
259.814	22.36
260.03	89.94
260.246	14.17
260.463	12.12
260.679	5.97
260.895	-0.17
261.112	-34.99
261.328	-26.79
261.544	-0.17
261.761	108.37
261.977	-59.56
262.193	10.07
262.409	16.21
262.626	5.97
262.842	53.08
263.058	-18.6
263.274	75.6
263.49	48.98
263.707	38.74
263.923	24.4
264.139	-12.46
264.355	22.36
264.571	53.08
264.787	-39.08
265.004	81.75
265.22	59.22
265.436	38.74
265.652	44.88
265.868	48.98
266.084	-14.51
266.3	51.03
266.516	51.03
266.732	51.03
266.948	22.36
267.164	75.6
267.38	38.74
267.596	89.94
267.812	28.5
268.028	51.03
268.244	14.17
268.46	-2.22
268.676	10.07
268.892	22.36
269.108	22.36
269.324	28.5
269.54	81.75
269.756	14.17
269.972	20.31
270.188	85.84
270.403	-28.84
270.619	-10.41
270.835	100.18
271.051	55.12
271.267	-4.27
271.483	22.36
271.698	-2.22
271.914	69.46
272.13	3.93
272.346	-6.31
272.562	10.07
272.777	73.56
272.993	18.26
273.209	-8.36
273.425	48.98
273.64	30.55
273.856	30.55
274.072	36.69
274.287	-22.7
274.503	34.64
274.719	20.31
274.934	18.26
275.15	-37.03
275.366	61.27
275.581	1.88
275.797	-0.17
276.012	42.84
276.228	-34.99
276.444	-20.65
276.659	61.27
276.875	34.64
277.09	-18.6
277.306	141.14
277.521	-4.27
277.737	61.27
277.952	94.04
278.168	-59.56
278.383	22.36
278.599	5.97
278.814	1.88
279.03	10.07
279.245	94.04
279.461	20.31
279.676	28.5
279.892	44.88
280.107	36.69
280.322	51.03
280.538	122.71
280.753	104.28
280.969	98.13
281.184	16.21
281.399	18.26
281.615	-6.31
281.83	65.36
282.045	112.47
282.26	28.5
282.476	24.4
282.691	44.88
282.906	-43.18
283.122	85.84
283.337	36.69
283.552	122.71
283.767	48.98
283.983	94.04
284.198	65.36
284.413	-22.7
284.628	14.17
284.843	79.7
285.058	38.74
285.274	1.88
285.489	-2.22
285.704	38.74
285.919	57.17
286.134	-10.41
286.349	12.12
286.564	24.4
286.779	-20.65
286.995	5.97
287.21	-34.99
287.425	44.88
287.64	59.22
287.855	104.28
288.07	-24.75
288.285	22.36
288.5	83.8
288.715	89.94
288.93	79.7
289.145	20.31
289.36	10.07
289.575	63.32
289.79	8.02
290.004	-26.79
290.219	36.69
290.434	10.07
290.649	85.84
290.864	73.56
291.079	12.12
291.294	32.6
291.509	16.21
291.724	20.31
291.938	10.07
292.153	22.36
292.368	30.55
292.583	28.5
292.798	-6.31
293.012	51.03
293.227	8.02
293.442	63.32
293.657	18.26
293.871	112.47
294.086	-20.65
294.301	96.08
294.516	-0.17
294.73	10.07
294.945	71.51
295.16	67.41
295.374	46.93
295.589	77.65
295.804	63.32
296.018	-14.51
296.233	106.32
296.447	12.12
296.662	12.12
296.877	53.08
297.091	87.89
297.306	-30.89
297.52	-18.6
297.735	48.98
297.949	-47.27
298.164	42.84
298.378	55.12
298.593	89.94
298.807	63.32
299.022	102.23
299.236	-28.84
299.451	51.03
299.665	-18.6
299.88	116.56
300.094	67.41
300.309	34.64
300.523	-4.27
300.737	3.93
300.952	116.56
301.166	28.5
301.381	38.74
301.595	-47.27
301.809	38.74
302.024	3.93
302.238	20.31
302.452	46.93
302.667	-14.51
302.881	32.6
303.095	100.18
303.309	-10.41
303.524	34.64
303.738	-22.7
303.952	16.21
304.166	22.36
304.381	30.55
304.595	16.21
304.809	28.5
305.023	32.6
305.237	8.02
305.452	26.45
305.666	32.6
305.88	32.6
306.094	57.17
306.308	-45.23
306.522	104.28
306.736	14.17
306.95	34.64
307.164	12.12
307.379	28.5
307.593	67.41
307.807	14.17
308.021	20.31
308.235	30.55
308.449	63.32
308.663	137.04
308.877	24.4
309.091	106.32
309.305	-28.84
309.519	28.5
309.733	53.08
309.947	20.31
310.161	16.21
310.374	85.84
310.588	61.27
310.802	-2.22
311.016	-12.46
311.23	3.93
311.444	100.18
311.658	112.47
311.872	14.17
312.085	24.4
312.299	24.4
312.513	73.56
312.727	1.88
312.941	67.41
313.154	87.89
313.368	26.45
313.582	34.64
313.796	12.12
314.009	26.45
314.223	87.89
314.437	12.12
314.651	55.12
314.864	79.7
315.078	-6.31
315.292	-47.27
315.505	51.03
315.719	34.64
315.933	91.99
316.146	14.17
316.36	34.64
316.573	65.36
316.787	38.74
317.001	63.32
317.214	-20.65
317.428	100.18
317.641	-16.55
317.855	38.74
318.068	67.41
318.282	10.07
318.495	57.17
318.709	34.64
318.922	1.88
319.136	104.28
319.349	141.14
319.563	94.04
319.776	44.88
319.99	96.08
320.203	83.8
320.417	108.37
320.63	55.12
320.843	139.09
321.057	22.36
321.27	30.55
321.483	40.79
321.697	48.98
321.91	46.93
322.124	57.17
322.337	34.64
322.55	73.56
322.763	30.55
322.977	46.93
323.19	5.97
323.403	94.04
323.617	-4.27
323.83	61.27
324.043	24.4
324.256	48.98
324.469	44.88
324.683	112.47
324.896	28.5
325.109	42.84
325.322	-10.41
325.535	96.08
325.748	61.27
325.962	-18.6
326.175	91.99
326.388	73.56
326.601	118.61
326.814	30.55
327.027	26.45
327.24	73.56
327.453	14.17
327.666	57.17
327.879	-28.84
328.092	91.99
328.305	24.4
328.518	40.79
328.731	61.27
328.944	46.93
329.157	48.98
329.37	85.84
329.583	79.7
329.796	87.89
330.009	24.4
330.222	61.27
330.435	51.03
330.648	40.79
330.861	30.55
331.073	32.6
331.286	48.98
331.499	83.8
331.712	24.4
331.925	59.22
332.138	96.08
332.35	40.79
332.563	51.03
332.776	69.46
332.989	14.17
333.202	55.12
333.414	122.71
333.627	46.93
333.84	40.79
334.053	46.93
334.265	61.27
334.478	42.84
334.691	63.32
334.903	30.55
335.116	5.97
335.329	-57.51
335.541	53.08
335.754	48.98
335.966	51.03
336.179	73.56
336.392	108.37
336.604	46.93
336.817	89.94
337.029	130.9
337.242	1.88
337.454	87.89
337.667	26.45
337.88	61.27
338.092	32.6
338.305	69.46
338.517	22.36
338.729	87.89
338.942	89.94
339.154	30.55
339.367	53.08
339.579	5.97
339.792	12.12
340.004	51.03
340.217	71.51
340.429	24.4
340.641	12.12
340.854	67.41
341.066	61.27
341.278	94.04
341.491	83.8
341.703	-10.41
341.915	71.51
342.128	137.04
342.34	40.79
342.552	30.55
342.764	32.6
342.977	10.07
343.189	57.17
343.401	61.27
343.613	-20.65
343.826	26.45
344.038	104.28
344.25	32.6
344.462	-67.75
344.674	65.36
344.886	5.97
345.099	87.89
345.311	-2.22
345.523	8.02
345.735	51.03
345.947	100.18
346.159	48.98
346.371	67.41
346.583	30.55
346.795	38.74
347.007	40.79
347.219	104.28
347.431	89.94
347.643	83.8
347.855	73.56
348.067	46.93
348.279	-4.27
348.491	-51.37
348.703	61.27
348.915	65.36
349.127	26.45
349.339	-2.22
349.551	48.98
349.763	51.03
349.975	36.69
350.187	55.12
350.399	34.64
350.61	63.32
350.822	61.27
351.034	63.32
351.246	36.69
351.458	59.22
351.669	3.93
351.881	85.84
352.093	36.69
352.305	89.94
352.517	40.79
352.728	87.89
352.94	40.79
353.152	71.51
353.363	85.84
353.575	116.56
353.787	83.8
353.999	75.6
354.21	28.5
354.422	-4.27
354.633	59.22
354.845	20.31
355.057	8.02
355.268	63.32
355.48	57.17
355.692	48.98
355.903	51.03
356.115	40.79
356.326	-4.27
356.538	59.22
356.749	87.89
356.961	75.6
357.172	57.17
357.384	51.03
357.595	26.45
357.807	44.88
358.018	16.21
358.23	20.31
358.441	51.03
358.653	57.17
358.864	55.12
359.075	73.56
359.287	46.93
359.498	42.84
359.709	22.36
359.921	128.85
360.132	20.31
360.344	53.08
360.555	46.93
360.766	100.18
360.977	46.93
361.189	32.6
361.4	-8.36
361.611	122.71
361.823	46.93
362.034	63.32
362.245	-0.17
362.456	106.32
362.667	91.99
362.879	-8.36
363.09	38.74
363.301	24.4
363.512	57.17
363.723	40.79
363.935	-16.55
364.146	40.79
364.357	8.02
364.568	55.12
364.779	79.7
364.99	26.45
365.201	71.51
365.412	135
365.623	22.36
365.834	71.51
366.045	26.45
366.256	24.4
366.467	110.42
366.678	46.93
366.889	71.51
367.1	69.46
367.311	65.36
367.522	28.5
367.733	128.85
367.944	69.46
368.155	94.04
368.366	71.51
368.577	106.32
368.788	120.66
368.999	38.74
369.209	139.09
369.42	79.7
369.631	112.47
369.842	79.7
370.053	61.27
370.264	112.47
370.474	-2.22
370.685	77.65
370.896	40.79
371.107	108.37
371.317	32.6
371.528	8.02
371.739	5.97
371.95	16.21
372.16	59.22
372.371	8.02
372.582	-2.22
372.792	30.55
373.003	73.56
373.214	63.32
373.424	40.79
373.635	83.8
373.846	26.45
374.056	12.12
374.267	87.89
374.477	75.6
374.688	34.64
374.898	63.32
375.109	85.84
375.319	-4.27
375.53	14.17
375.74	104.28
375.951	20.31
376.161	94.04
376.372	81.75
376.582	59.22
376.793	40.79
377.003	89.94
377.214	51.03
377.424	59.22
377.635	69.46
377.845	14.17
378.055	75.6
378.266	-20.65
378.476	36.69
378.686	-12.46
378.897	77.65
379.107	79.7
379.317	48.98
379.528	73.56
379.738	32.6
379.948	120.66
380.158	18.26
380.369	44.88
380.579	53.08
380.789	24.4
380.999	94.04
381.21	67.41
381.42	116.56
381.63	18.26
381.84	120.66
382.05	67.41
382.261	36.69
382.471	38.74
382.681	55.12
382.891	73.56
383.101	106.32
383.311	48.98
383.521	59.22
383.731	-4.27
383.941	71.51
384.151	96.08
384.361	85.84
384.571	-0.17
384.781	87.89
384.991	94.04
385.201	100.18
385.411	-4.27
385.621	28.5
385.831	22.36
386.041	73.56
386.251	118.61
386.461	22.36
386.671	24.4
386.881	81.75
387.091	44.88
387.301	44.88
387.511	59.22
387.72	55.12
387.93	65.36
388.14	55.12
388.35	65.36
388.56	81.75
388.769	122.71
388.979	120.66
389.189	75.6
389.399	94.04
389.609	59.22
389.818	120.66
390.028	112.47
390.238	128.85
390.447	110.42
390.657	55.12
390.867	65.36
391.076	61.27
391.286	71.51
391.496	77.65
391.705	98.13
391.915	110.42
392.125	42.84
392.334	18.26
392.544	57.17
392.753	132.95
392.963	104.28
393.172	85.84
393.382	57.17
393.591	104.28
393.801	83.8
394.01	120.66
394.22	91.99
394.429	79.7
394.639	83.8
394.848	108.37
395.058	26.45
395.267	51.03
395.477	91.99
395.686	112.47
395.895	171.86
396.105	116.56
396.314	139.09
396.524	118.61
396.733	143.19
396.942	155.47
397.152	188.24
397.361	108.37
397.57	128.85
397.78	79.7
397.989	94.04
398.198	210.77
398.407	180.05
398.617	143.19
398.826	69.46
399.035	124.76
399.244	77.65
399.453	120.66
399.663	167.76
399.872	67.41
400.081	98.13
400.29	91.99
400.499	75.6
400.708	120.66
400.917	169.81
401.127	122.71
401.336	85.84
401.545	147.28
401.754	200.53
401.963	237.39
402.172	104.28
402.381	128.85
402.59	110.42
402.799	145.24
403.008	223.06
403.217	147.28
403.426	149.33
403.635	98.13
403.844	118.61
404.053	204.63
404.262	169.81
404.471	173.91
404.68	171.86
404.888	143.19
405.097	141.14
405.306	188.24
405.515	184.15
405.724	173.91
405.933	206.67
406.142	135
406.35	225.11
406.559	225.11
406.768	173.91
406.977	200.53
407.185	304.98
407.394	200.53
407.603	161.62
407.812	229.2
408.02	364.37
408.229	274.26
408.438	339.79
408.646	194.39
408.855	294.74
409.064	268.11
409.272	325.46
409.481	280.4
409.69	366.42
409.898	352.08
410.107	411.47
410.315	343.89
410.524	407.38
410.733	479.05
410.941	423.76
411.15	395.09
411.358	407.38
411.567	470.86
411.775	399.18
411.984	442.19
412.192	526.16
412.401	591.69
412.609	653.13
412.818	548.68
413.026	554.83
413.234	585.55
413.443	671.56
413.651	653.13
413.86	696.14
414.068	769.87
414.276	802.63
414.485	771.91
414.693	759.63
414.901	892.74
415.11	788.3
415.318	849.74
415.526	821.06
415.734	966.47
415.943	968.52
416.151	1107.78
416.359	993.09
416.567	1091.4
416.776	1079.11
416.984	1171.27
417.192	1173.32
417.4	1261.38
417.608	1167.17
417.817	1195.84
418.025	1222.47
418.233	1365.82
418.441	1337.15
418.649	1505.09
418.857	1521.47
419.065	1580.86
419.273	1539.9
419.481	1564.48
419.689	1773.37
419.897	1748.79
420.105	1847.1
420.313	1929.02
420.521	1869.62
420.729	1935.16
420.937	2072.37
421.145	2201.4
421.353	2191.16
421.561	2240.31
421.769	2338.61
421.977	2451.25
422.185	2512.69
422.393	2557.74
422.601	2709.29
422.809	2592.56
423.017	2805.55
423.224	2936.62
423.432	2899.75
423.64	3086.12
423.848	3305.25
424.056	3270.44
424.263	3368.74
424.471	3403.55
424.679	3538.72
424.887	3788.57
425.094	3766.04
425.302	3684.13
425.51	3948.31
425.718	4097.81
425.925	4163.35
426.133	4327.19
426.341	4583.18
426.548	4671.25
426.756	4781.84
426.964	4775.69
427.171	4966.15
427.379	5099.27
427.586	5322.5
427.794	5347.08
428.001	5672.7
428.209	6035.19
428.417	6004.47
428.624	6323.96
428.832	6170.36
429.039	6180.6
429.247	6276.85
429.454	6835.95
429.662	7349.99
429.869	7034.6
430.076	7370.47
430.284	7112.42
430.491	7386.85
430.699	7870.17
430.906	7851.74
431.114	7937.76
431.321	8158.94
431.528	8447.7
431.736	8976.08
431.943	9643.71
432.15	9242.31
432.358	9316.04
432.565	9715.39
432.772	9742.02
432.979	10206.91
433.187	10380.98
433.394	10585.78
433.601	11087.53
433.808	11249.32
434.016	11185.83
434.223	11622.05
434.43	12365.46
434.637	11933.34
434.844	12754.58
435.052	13035.15
435.259	13022.86
435.466	13160.08
435.673	12852.88
435.88	13858.43
436.087	14632.57
436.294	14530.17
436.501	14296.7
436.708	14573.17
436.915	14933.62
437.122	15513.19
437.329	15658.6
437.537	16346.72
437.743	16531.03
437.95	16291.42
438.157	17090.13
438.364	17405.52
438.571	17702.47
438.778	17870.4
438.985	19465.77
439.192	18675.26
439.399	19250.74
439.606	18648.63
439.813	19963.43
440.02	21214.74
440.227	20968.98
440.433	20708.89
440.64	21222.93
440.847	21026.32
441.054	22054.4
441.261	22799.87
441.467	22672.89
441.674	23100.92
441.881	24167.91
442.088	24102.37
442.294	23907.82
442.501	24141.28
442.708	24919.51
442.914	25855.43
443.121	26891.71
443.328	26336.71
443.534	28284.33
443.741	27440.56
443.948	27106.74
444.154	29003.16
444.361	28951.96
444.568	29062.55
444.774	29423
444.981	29474.2
445.187	30127.5
445.394	31595.89
445.6	31145.34
445.807	34035.02
446.013	32671.07
446.22	33322.33
446.426	35108.16
446.633	34796.87
446.839	36134.19
447.046	34858.31
447.252	36633.89
447.459	36404.52
447.665	36359.47
447.871	37580.06
448.078	39345.4
448.284	37514.52
448.491	38864.13
448.697	39800.05
448.903	40809.7
449.11	41172.19
449.316	40645.87
449.522	40973.54
449.728	42126.55
449.935	42398.93
450.141	42493.13
450.347	43570.36
450.553	42165.46
450.76	42552.52
450.966	44006.58
451.172	43701.43
451.378	44911.78
451.584	43527.36
451.791	44717.23
451.997	44680.36
452.203	45517.98
452.409	45479.07
452.615	45401.25
452.821	43963.57
453.027	43214.02
453.233	45290.66
453.44	43685.05
453.646	44356.78
453.852	44043.45
454.058	44995.75
454.264	43252.93
454.47	44614.83
454.676	43457.73
454.882	45245.6
455.088	41276.64
455.294	41868.5
455.5	42149.07
455.705	42534.09
455.911	41303.26
456.117	40254.7
456.323	39531.77
456.529	37774.61
456.735	39417.08
456.941	38296.84
457.147	37883.16
457.352	36683.05
457.558	36330.79
457.764	35945.78
457.97	35499.32
458.176	35034.43
458.381	34766.15
458.587	33072.48
458.793	33097.05
458.999	31257.98
459.204	33865.04
459.41	32652.64
459.616	30471.56
459.821	30666.11
460.027	30459.27
460.233	29887.89
460.438	28302.76
460.644	29015.45
460.85	27758
461.055	27178.42
461.261	26615.23
461.466	24806.87
461.672	24434.14
461.878	25994.7
462.083	24010.21
462.289	23799.27
462.494	23533.04
462.7	22803.96
462.905	21868.04
463.111	22595.07
463.316	22558.21
463.522	21911.05
463.727	22232.58
463.932	22287.87
464.138	22224.39
464.343	22195.71
464.549	21534.22
464.754	22277.63
464.959	21839.37
465.165	21872.14
465.37	20862.49
465.575	20569.63
465.781	21100.05
465.986	21351.95
466.191	20416.03
466.397	20452.89
466.602	19033.65
466.807	19959.33
467.012	19742.25
467.218	19682.86
467.423	19635.75
467.628	19740.2
467.833	20446.75
468.038	19486.25
468.244	19211.82
468.449	19889.7
468.654	19019.32
468.859	19039.79
469.064	18890.29
469.269	18296.38
469.474	18292.29
469.679	18619.96
469.885	18355.77
470.09	18521.66
470.295	18355.77
470.5	17976.9
470.705	17915.46
470.91	17677.9
471.115	17714.76
471.32	17886.79
471.525	17526.35
471.73	17135.18
471.935	17436.24
472.139	16498.27
472.344	16936.53
472.549	16512.6
472.754	16393.82
472.959	16244.32
473.164	15834.72
473.369	15468.14
473.574	16078.43
473.778	15935.07
473.983	15769.19
474.188	15953.51
474.393	14886.51
474.598	14970.48
474.802	14993.01
475.007	14827.12
475.212	14993.01
475.417	14483.06
475.621	14466.68
475.826	14589.56
476.031	14079.61
476.235	13833.86
476.44	14290.56
476.645	13942.4
476.849	14038.66
477.054	13442.7
477.259	13434.5
477.463	13555.33
477.668	12996.24
477.872	13205.13
478.077	13012.62
478.282	12736.15
478.486	12648.08
478.691	12521.11
478.895	12431
479.1	12512.92
479.304	12449.43
479.509	12228.25
479.713	12291.74
479.918	12060.32
480.122	11736.74
480.326	12056.22
480.531	11972.25
480.735	11832.99
480.94	11706.02
481.144	12211.87
481.348	11570.85
481.553	11517.61
481.757	11634.34
481.961	11568.8
482.166	11837.09
482.37	11837.09
482.574	11722.4
482.778	11366.06
482.983	11777.7
483.187	11509.41
483.391	11468.45
483.595	11419.3
483.8	11556.52
484.004	11493.03
484.208	11378.34
484.412	11685.54
484.616	11427.49
484.821	11620
485.025	11443.88
485.229	11490.98
485.433	11415.21
485.637	11493.03
485.841	11560.61
486.045	11325.1
486.249	11568.8
486.453	11572.9
486.657	11402.92
486.861	11777.7
487.065	11277.99
487.269	11552.42
487.473	11419.3
487.677	11638.44
487.881	11937.44
488.085	11558.56
488.289	11636.39
488.493	11603.62
488.697	11599.52
488.901	11544.23
489.105	11583.14
489.309	11779.75
489.512	11728.55
489.716	11574.95
489.92	11583.14
490.124	11460.26
490.328	11714.21
490.531	11728.55
490.735	11585.19
490.939	12105.37
491.143	11931.3
491.346	11929.25
491.55	12064.41
491.754	12009.12
491.958	12181.15
492.161	12164.76
492.365	12121.76
492.569	12287.64
492.772	12060.32
492.976	12347.03
493.18	12420.76
493.383	12631.7
493.587	12549.78
493.79	12727.96
493.994	12713.62
494.197	12859.03
494.401	12549.78
494.605	12783.25
494.808	13211.28
495.012	13196.94
495.215	13186.7
495.419	13164.17
495.622	13145.74
495.825	13518.47
496.029	13426.31
496.232	13510.28
496.436	13743.75
496.639	14098.05
496.843	13801.09
497.046	14210.68
497.249	14169.73
497.453	14433.91
497.656	14380.67
497.859	14534.26
498.063	14794.36
498.266	14976.62
498.469	15156.85
498.673	15169.13
498.876	15234.67
499.079	15601.26
499.282	15564.39
499.485	15806.05
499.689	16008.8
499.892	16158.3
500.095	16037.47
500.298	16696.92
500.501	16424.54
500.705	17086.03
500.908	16848.47
501.111	17122.9
501.314	17612.36
501.517	17600.07
501.72	17909.32
501.923	17688.14
502.126	18161.22
502.329	18454.08
502.532	18673.21
502.735	18505.27
502.938	19097.14
503.141	19353.13
503.344	19568.17
503.547	19299.89
503.75	19942.95
503.953	19908.13
504.156	20016.68
504.359	20334.11
504.562	20639.26
504.765	20852.25
504.968	21028.37
505.17	21323.28
505.373	21290.51
505.576	21726.73
505.779	21958.15
505.982	22167.04
506.185	22519.29
506.387	22681.08
506.59	22773.24
506.793	23385.58
506.996	23369.2
507.198	23977.45
507.401	23692.78
507.604	24002.02
507.807	24454.62
508.009	24784.35
508.212	24503.78
508.415	25007.58
508.617	25247.19
508.82	25443.79
509.022	25468.37
509.225	25980.36
509.428	26346.95
509.63	26318.28
509.833	26801.6
510.035	27182.52
510.238	27067.83
510.44	27358.64
510.643	27862.44
510.845	27968.94
511.048	27801.01
511.25	28724.64
511.453	28599.71
511.655	29765.01
511.858	29486.48
512.06	29603.22
512.262	29822.35
512.465	30160.27
512.667	30473.6
512.87	30723.46
513.072	30801.28
513.274	31470.97
513.477	31774.06
513.679	32210.28
513.881	32263.53
514.084	32357.74
514.286	32626.02
514.488	32615.78
514.69	33590.61
514.893	33908.05
515.095	34364.74
515.297	33971.53
515.499	34096.46
515.701	34657.6
515.904	35196.22
516.106	35454.26
516.308	35321.15
516.51	35890.48
516.712	36187.44
516.914	36615.46
517.116	37129.5
517.318	36654.37
517.52	37418.27
517.722	37242.14
517.925	37793.04
518.127	38440.2
518.329	38694.15
518.531	38647.05
518.733	39429.37
518.935	39822.58
519.136	39650.55
519.338	40330.48
519.54	40355.05
519.742	40807.65
519.944	40625.39
520.146	41270.5
520.348	41663.71
520.55	41800.92
520.752	42087.64
520.954	42763.46
521.155	42194.13
521.357	42933.45
521.559	43150.53
521.761	44131.51
521.963	44010.68
522.164	43812.02
522.366	43973.81
522.568	44647.6
522.77	44926.12
522.971	45698.2
523.173	44862.63
523.375	45274.27
523.576	45587.61
523.778	46019.74
523.98	46630.03
524.181	46513.3
524.383	46451.86
524.584	47025.29
524.786	47166.6
524.988	46535.82
525.189	47883.39
525.391	47651.97
525.592	47885.43
525.794	48491.63
525.995	48413.81
526.197	47977.59
526.398	48845.93
526.6	48661.61
526.801	49030.25
527.003	48977
527.204	49239.14
527.406	49468.51
527.607	50017.37
527.808	50506.83
528.01	49493.09
528.211	50082.91
528.412	50762.83
528.614	50250.84
528.815	50158.68
529.016	50707.54
529.218	50318.42
529.419	50613.33
529.62	50449.49
529.822	50717.78
530.023	51121.23
530.224	51070.03
530.425	50811.98
530.626	50816.08
530.828	50396.24
531.029	51758.14
531.23	51143.75
531.431	51350.6
531.632	51590.21
531.833	51817.53
532.035	51008.59
532.236	52067.39
532.437	52001.85
532.638	51221.58
532.839	51706.94
533.04	51786.82
533.241	51049.55
533.442	52098.11
533.643	51754.05
533.844	51924.03
534.045	51723.33
534.246	51358.79
534.447	52274.23
534.648	51627.07
534.849	51944.51
535.05	51774.53
535.251	51704.9
535.451	51706.94
535.652	51262.54
535.853	51606.59
536.054	51835.97
536.255	51936.32
536.456	51010.63
536.657	52681.78
536.857	52102.2
537.058	51334.21
537.259	51749.95
537.46	51946.56
537.66	51801.15
537.861	52247.61
538.062	51450.95
538.263	52157.5
538.463	51448.9
538.664	51831.87
538.865	52104.25
539.065	51711.04
539.266	51405.89
539.466	51868.73
539.667	51252.3
539.868	52368.44
540.068	51444.8
540.269	51352.65
540.469	52079.67
540.67	51422.28
540.87	51790.91
541.071	51590.21
541.271	52071.48
541.472	51545.15
541.672	51260.49
541.873	50975.82
542.073	51135.56
542.274	52040.76
542.474	51289.16
542.675	51123.27
542.875	51768.38
543.075	51475.52
543.276	50945.1
543.476	51895.36
543.676	51209.29
543.877	51786.82
544.077	51151.94
544.277	50947.15
544.478	51033.16
544.678	51289.16
544.878	50916.43
545.078	51158.09
545.279	50967.63
545.479	50760.78
545.679	51186.76
545.879	51254.34
546.079	51139.66
546.28	51194.95
546.48	50426.96
546.68	51024.97
546.88	51385.41
547.08	50588.75
547.28	50844.75
547.48	50476.12
547.68	50881.61
547.88	50623.57
548.081	51491.91
548.281	50646.1
548.481	50783.31
548.681	51323.97
548.881	51147.85
549.081	51158.09
549.28	50388.05
549.48	51309.64
549.68	50416.72
549.88	51272.77
550.08	50771.02
550.28	50553.94
550.48	50429.01
550.68	50988.11
550.88	50562.13
551.08	50570.32
551.279	50627.66
551.479	50426.96
551.679	50857.04
551.879	50312.28
552.079	50519.12
552.278	50279.51
552.478	50359.38
552.678	49994.84
552.878	50424.92
553.077	50459.73
553.277	50216.02
553.477	51035.21
553.676	50340.95
553.876	50433.11
554.076	50007.13
554.275	49738.85
554.475	49663.07
554.674	49912.92
554.874	50451.54
555.074	50099.29
555.273	49878.11
555.473	50363.48
555.672	49812.57
555.872	49699.93
556.071	49992.79
556.271	49937.5
556.47	49542.24
556.67	49230.95
556.869	49513.57
557.068	49910.88
557.268	49413.22
557.467	49488.99
557.667	49312.87
557.866	49357.92
558.065	49402.98
558.265	49208.42
558.464	49063.02
558.663	49486.95
558.863	48600.18
559.062	49562.72
559.261	48415.86
559.461	49339.49
559.66	48948.33
559.859	49034.35
560.058	48495.73
560.258	48864.36
560.457	48721.01
560.656	49075.3
560.855	48649.33
561.054	48786.54
561.253	48067.7
561.453	48626.8
561.652	48473.2
561.851	48843.88
562.05	48108.66
562.249	48022.65
562.448	48727.15
562.647	48280.69
562.846	48413.81
563.045	48067.7
563.244	47438.98
563.443	48387.19
563.642	47623.29
563.841	47752.32
564.04	47500.42
564.239	48024.7
564.438	47269
564.637	47805.56
564.836	47469.7
565.035	46873.74
565.234	47455.36
565.432	46834.83
565.631	46982.28
565.83	47076.49
566.029	46965.9
566.228	46998.66
566.427	46898.31
566.625	46634.13
566.824	46113.94
567.023	46683.28
567.222	46245.01
567.42	46544.02
567.619	45958.3
567.818	46247.06
568.016	46019.74
568.215	46341.27
568.414	46007.45
568.612	46578.83
568.811	45767.83
569.01	45847.71
569.208	45085.86
569.407	45849.75
569.605	45380.77
569.804	45862.04
570.002	45190.31
570.201	45382.82
570.4	44688.56
570.598	44666.03
570.797	45079.72
570.995	44774.57
571.193	44446.9
571.392	44758.19
571.59	44500.14
571.789	44391.6
571.987	44471.47
572.186	44209.33
572.384	43793.59
572.582	43906.23
572.781	44369.07
572.979	43637.95
573.177	43875.51
573.376	44016.82
573.574	44025.01
573.772	43760.83
573.971	43670.71
574.169	43410.62
574.367	43033.8
574.565	43576.51
574.763	42996.93
574.962	43007.17
575.16	42577.1
575.358	42652.87
575.556	42573
575.754	42689.74
575.952	42474.7
576.151	42603.72
576.349	42052.82
576.547	42392.78
576.745	42304.72
576.943	41854.17
577.141	41958.61
577.339	42177.75
577.537	41743.58
577.735	41522.4
577.933	41628.89
578.131	41901.27
578.329	41225.44
578.527	41088.23
578.725	41047.27
578.923	41678.04
579.121	41116.9
579.319	40805.61
579.516	41331.93
579.714	40948.96
579.912	40709.35
580.11	40740.07
580.308	40699.11
580.506	40592.62
580.704	40006.9
580.901	40522.99
581.099	40262.89
581.297	39548.15
581.495	39900.4
581.692	39998.71
581.89	39789.81
582.088	40129.78
582.285	39388.41
582.483	39998.71
582.681	39492.86
582.878	39507.19
583.076	39261.44
583.274	39271.68
583.471	39007.49
583.669	39316.73
583.866	39296.25
584.064	38802.69
584.262	38384.91
584.459	38987.01
584.657	38616.33
584.854	38593.8
585.052	38194.45
585.249	38100.24
585.447	38106.38
585.644	37877.01
585.841	38321.42
586.039	38599.94
586.236	37369.12
586.434	37633.3
586.631	37709.08
586.828	37565.72
587.026	37774.61
587.223	37598.49
587.42	37649.69
587.618	37270.81
587.815	37201.18
588.012	37041.44
588.21	36922.66
588.407	37127.45
588.604	36519.21
588.801	36236.59
588.999	36666.66
589.196	36578.6
589.393	36246.83
589.59	36119.85
589.787	36183.34
589.984	36334.89
590.182	35753.27
590.379	36371.75
590.576	35812.66
590.773	35480.89
590.97	35487.03
591.167	35249.47
591.364	35179.84
591.561	35446.07
591.758	35026.24
591.955	35251.52
592.152	35419.45
592.349	35278.14
592.546	34876.74
592.743	34919.74
592.94	34389.32
593.137	34960.7
593.334	34649.41
593.531	34215.24
593.727	34256.2
593.924	34379.08
594.121	33705.3
594.318	34569.54
594.515	33760.59
594.712	33975.63
594.908	33641.81
595.105	34172.24
595.302	33570.13
595.499	33799.51
595.696	33316.18
595.892	33111.39
596.089	33514.84
596.286	33355.1
596.482	33385.82
596.679	33084.76
596.876	33201.5
597.072	33148.25
597.269	32830.82
597.466	32804.19
597.662	32611.68
597.859	32738.66
598.055	32566.63
598.252	31972.72
598.448	32228.71
598.645	32243.05
598.841	32017.77
599.038	31892.85
599.234	32064.88
599.431	31716.72
599.627	31804.78
599.824	31835.5
600.02	31804.78
600.217	31593.84
600.413	31174.01
600.609	31233.4
600.806	30811.52
601.002	31227.26
601.198	30963.07
601.395	30541.19
601.591	30717.31
601.787	30682.5
601.984	30354.82
602.18	30842.24
602.376	30272.9
602.572	30475.65
602.769	30457.22
602.965	29980.04
603.161	30080.39
603.357	29961.61
603.553	30338.44
603.75	29869.45
603.946	29660.56
604.142	29810.06
604.338	29281.69
604.534	29662.61
604.73	29269.4
604.926	29334.93
605.122	29402.52
605.318	29287.83
605.514	28921.24
605.71	28808.61
605.906	28966.3
606.102	28890.52
606.298	28732.83
606.494	28814.75
606.69	28978.59
606.886	28759.45
607.082	28560.8
607.278	28689.82
607.474	28280.23
607.67	28378.53
607.866	28288.42
608.062	28689.82
608.257	28132.78
608.453	27979.18
608.649	28077.48
608.845	28036.52
609.041	28202.41
609.236	28173.74
609.432	27766.19
609.628	28083.62
609.824	27868.59
610.019	27637.17
610.215	27598.26
610.411	27860.4
610.606	27606.45
610.802	27334.07
610.998	27241.91
611.193	27573.68
611.389	27354.55
611.584	26957.24
611.78	27213.24
611.976	27004.35
612.171	26803.64
612.367	27153.85
612.562	26903.99
612.758	26555.84
612.953	26648
613.149	27114.94
613.344	26774.97
613.539	27229.62
613.735	26629.57
613.93	26584.51
614.126	26588.61
614.321	26785.21
614.517	26447.3
614.712	26314.18
614.907	26437.06
615.103	26381.76
615.298	26101.19
615.493	26666.43
615.688	25904.59
615.884	26545.6
616.079	25644.49
616.274	26049.99
616.47	26013.13
616.665	26267.08
616.86	26009.03
617.055	25857.48
617.25	25882.06
617.445	25886.15
617.641	25353.68
617.836	26086.86
618.031	25236.95
618.226	25855.43
618.421	25165.27
618.616	25658.83
618.811	25009.62
619.006	25312.72
619.201	25017.82
619.396	25075.16
619.591	24647.13
619.786	25071.06
619.981	24557.02
620.176	24821.21
620.371	24374.75
620.566	24638.94
620.761	24452.58
620.956	24471.01
621.151	23811.56
621.346	24153.57
621.541	23526.89
621.735	24016.36
621.93	23326.19
622.125	23494.13
622.32	23295.47
622.515	23604.72
622.709	23285.23
622.904	23008.76
623.099	22851.06
623.294	22935.03
623.488	22769.15
623.683	22844.92
623.878	22554.11
624.072	22326.78
624.267	22380.03
624.462	22179.33
624.656	21968.39
624.851	22105.6
625.046	21847.56
625.24	21954.05
625.435	21497.36
625.629	21616.14
625.824	21386.77
626.018	21321.23
626.213	20944.41
626.407	20946.45
626.602	20950.55
626.796	20895.25
626.991	20919.83
627.185	20616.73
627.38	20274.72
627.574	20272.67
627.768	20338.21
627.963	19977.76
628.157	20166.18
628.352	19881.51
628.546	19461.68
628.74	19994.15
628.935	19621.42
629.129	19736.1
629.323	19363.37
629.517	19263.02
629.712	19140.15
629.906	18832.95
630.1	18689.59
630.294	19037.75
630.489	18396.73
630.683	19054.13
630.877	18658.87
631.071	18595.39
631.265	18472.51
631.459	18187.84
631.653	17995.33
631.848	18187.84
632.042	18097.73
632.236	18150.98
632.43	17575.5
632.624	17946.18
632.818	17899.08
633.012	17722.95
633.206	17690.18
633.4	17638.98
633.594	17215.05
633.788	17612.36
633.982	17135.18
634.176	17317.45
634.369	16719.45
634.563	16741.97
634.757	16848.47
634.951	16701.01
635.145	16735.83
635.339	16834.13
635.533	16391.77
635.726	16334.43
635.92	16311.9
636.114	16031.33
636.308	16141.92
636.501	16227.93
636.695	15912.55
636.889	16029.28
637.083	15861.35
637.276	15496.81
637.47	15689.32
637.664	15550.06
637.857	15545.96
638.051	15367.79
638.244	15212.14
638.438	15175.28
638.632	15171.18
638.825	14990.96
639.019	15072.88
639.212	14808.69
639.406	14966.38
639.599	14790.26
639.793	14757.49
639.986	14493.3
640.18	14628.47
640.373	14382.71
640.567	14263.93
640.76	14091.9
640.954	14081.66
641.147	14020.22
641.34	14024.32
641.534	14052.99
641.727	13911.68
641.92	13713.03
642.114	13698.69
642.307	13641.35
642.5	13753.99
642.694	13495.94
642.887	13362.83
643.08	13588.1
643.273	13006.48
643.467	13219.47
643.66	13086.35
643.853	13151.88
644.046	12760.72
644.239	12879.5
644.432	13108.88
644.626	12664.47
644.819	12840.59
645.012	12674.71
645.205	12596.89
645.398	12555.93
645.591	12463.77
645.784	12459.67
645.977	12416.66
646.17	12349.08
646.363	12242.59
646.556	12078.75
646.749	12117.66
646.942	12132
647.135	11972.25
647.328	11892.38
647.521	11687.59
647.714	11826.85
647.907	11615.91
648.099	11599.52
648.292	11566.76
648.485	11712.16
648.678	11601.57
648.871	11536.04
649.064	11284.14
649.256	11349.67
649.449	11191.98
649.642	11148.97
649.835	10999.47
650.027	11036.33
650.22	10948.27
650.413	10993.33
650.605	10999.47
650.798	10741.43
650.991	10778.29
651.183	10741.43
651.376	10520.24
651.568	10620.6
651.761	10571.44
651.954	10471.09
652.146	10196.67
652.339	10458.81
652.531	10407.61
652.724	10348.22
652.916	9862.85
653.109	10090.17
653.301	10036.92
653.494	10012.35
653.686	9905.85
653.879	9991.87
654.071	9797.31
654.263	9811.65
654.456	9912
654.648	9621.19
654.84	9508.55
655.033	9787.07
655.225	9440.97
655.417	9445.06
655.61	9445.06
655.802	9496.26
655.994	9248.46
656.186	9514.69
656.379	9283.27
656.571	9201.35
656.763	9078.47
656.955	9125.58
657.148	9176.78
657.34	8918.73
657.532	9125.58
657.724	8718.03
657.916	8996.56
658.108	8777.42
658.3	8720.08
658.492	8648.4
658.684	8548.05
658.876	8695.5
659.068	8478.42
659.26	8539.86
659.452	8439.51
659.644	8490.71
659.836	8392.41
660.028	8353.49
660.22	8367.83
660.412	8154.84
660.604	7982.81
660.796	8138.46
660.988	8036.06
661.18	8247
661.372	7841.5
661.563	8140.51
661.755	7800.54
661.947	7945.95
662.139	7835.36
662.331	7683.81
662.522	7849.69
662.714	7751.39
662.906	7683.81
663.097	7610.08
663.289	7597.79
663.481	7573.22
663.673	7700.19
663.864	7618.27
664.056	7528.16
664.247	7575.27
664.439	7450.34
664.631	7237.35
664.822	7304.93
665.014	7298.79
665.205	7243.49
665.397	7382.76
665.588	7239.4
665.78	7311.08
665.971	7139.05
666.163	7200.49
666.354	7188.2
666.546	6944.49
666.737	6860.52
666.929	6928.11
667.12	6799.09
667.311	6842.09
667.503	6870.76
667.694	6989.55
667.885	6813.42
668.077	6663.92
668.268	6745.84
668.459	6594.29
668.651	6518.51
668.842	6751.98
669.033	6518.51
669.224	6504.18
669.416	6393.59
669.607	6606.58
669.798	6653.68
669.989	6543.09
670.18	6545.14
670.371	6239.99
670.563	6223.61
670.754	6225.65
670.945	6299.38
671.136	6176.5
671.327	6211.32
671.518	6225.65
671.709	6211.32
671.9	6100.73
672.091	6012.67
672.282	6070.01
672.473	5940.99
672.664	6172.41
672.855	5973.75
673.046	5891.84
673.237	6024.95
673.428	5967.61
673.619	5773.05
673.809	5760.77
674	5674.75
674.191	5891.84
674.382	5625.6
674.573	5791.48
674.764	5707.52
674.954	5836.54
675.145	5758.72
675.336	5723.9
675.527	5654.27
675.717	5760.77
675.908	5457.67
676.099	5644.03
676.289	5553.92
676.48	5494.53
676.671	5586.69
676.861	5459.71
677.052	5312.26
677.243	5365.51
677.433	5478.15
677.624	5486.34
677.814	5332.74
678.005	5437.19
678.195	5336.84
678.386	5418.75
678.576	5367.56
678.767	5320.45
678.957	5357.32
679.148	5365.51
679.338	5259.01
679.529	5324.55
679.719	5428.99
679.909	5336.84
680.1	5334.79
680.29	5250.82
680.481	5129.99
680.671	5170.95
680.861	5185.29
681.052	5146.37
681.242	5191.43
681.432	5156.61
681.622	5048.07
681.813	5015.3
682.003	4994.83
682.193	4800.27
682.383	4964.11
682.573	4876.04
682.764	4726.54
682.954	4976.39
683.144	4914.95
683.334	4869.9
683.524	4941.58
683.714	4843.28
683.904	4820.75
684.094	4837.13
684.284	4779.79
684.474	4882.19
684.664	4845.32
684.854	4978.44
685.044	4849.42
685.234	4642.57
685.424	4824.84
685.614	4636.43
685.804	4626.19
685.994	4712.21
686.184	4687.63
686.374	4736.78
686.564	4529.94
686.753	4527.89
686.943	4656.91
687.133	4538.13
687.323	4431.63
687.513	4542.22
687.702	4474.64
687.892	4425.49
688.082	4540.18
688.272	4468.5
688.461	4384.53
688.651	4560.66
688.841	4341.52
689.03	4476.69
689.22	4265.75
689.41	4321.04
689.599	4177.69
689.789	4298.52
689.979	4329.24
690.168	4175.64
690.358	4194.07
690.547	4159.25
690.737	4095.77
690.926	4106.01
691.116	4028.18
691.305	4177.69
691.495	4067.1
691.684	4196.12
691.874	4132.63
692.063	3968.79
692.252	4251.41
692.442	3901.21
692.631	3788.57
692.82	3895.07
693.01	3987.22
693.199	3933.98
693.388	3827.48
693.578	3850.01
693.767	3825.43
693.956	3886.87
694.146	3952.41
694.335	3784.48
694.524	3790.62
694.713	3800.86
694.902	3856.15
695.092	3796.76
695.281	3757.85
695.47	3751.71
695.659	3723.04
695.848	3643.17
696.037	3761.95
696.226	3788.57
696.415	3784.48
696.604	3807
696.793	3649.31
696.982	3630.88
697.171	3729.18
697.36	3637.02
697.549	3643.17
697.738	3651.36
697.927	3553.06
698.116	3450.66
698.305	3594.01
698.494	3489.57
698.683	3620.64
698.872	3514.14
699.061	3677.98
699.25	3567.39
699.438	3559.2
699.627	3546.91
699.816	3632.93
700.005	3557.15
700.193	3473.18
700.382	3548.96
700.571	3520.29
700.76	3442.46
700.948	3573.53
701.137	3497.76
701.326	3424.03
701.514	3403.55
701.703	3374.88
701.892	3292.96
702.08	3481.38
702.269	3473.18
702.457	3426.08
702.646	3364.64
702.834	3317.54
703.023	3532.58
703.212	3383.07
703.4	3356.45
703.589	3311.39
703.777	3260.2
703.965	3290.92
704.154	3286.82
704.342	3196.71
704.531	3348.26
704.719	3313.44
704.907	3229.48
705.096	3249.96
705.284	3249.96
705.472	3225.38
705.661	3272.48
705.849	3227.43
706.037	3239.72
706.226	3135.27
706.414	3206.95
706.602	3194.66
706.79	3260.2
706.979	3262.24
707.167	3204.9
707.355	3213.09
707.543	3004.2
707.731	3231.52
707.919	3215.14
708.107	3178.28
708.296	3039.01
708.484	3057.45
708.672	3120.93
708.86	3067.69
709.048	3219.24
709.236	3102.5
709.424	2971.43
709.612	3145.51
709.8	3133.22
709.988	3053.35
710.176	3045.16
710.364	3094.31
710.551	3022.63
710.739	3018.54
710.927	3082.02
711.115	3049.25
711.303	2996.01
711.491	3051.3
711.679	3030.82
711.866	3194.66
712.054	2953
712.242	2955.05
712.43	2983.72
712.617	3039.01
712.805	3049.25
712.993	2932.52
713.181	2938.66
713.368	2842.41
713.556	2979.62
713.744	2959.14
713.931	2830.12
714.119	2891.56
714.306	2860.84
714.494	2981.67
714.682	2879.27
714.869	2940.71
715.057	2950.95
715.244	2889.51
715.432	2895.66
715.619	2871.08
715.807	2817.83
715.994	2858.79
716.182	2893.61
716.369	2850.6
716.556	2844.46
716.744	2879.27
716.931	2799.4
717.119	2842.41
717.306	2869.03
717.493	2776.87
717.681	2955.05
717.868	2801.45
718.055	2768.68
718.242	2748.2
718.43	2766.64
718.617	2674.48
718.804	2694.96
718.991	2721.58
719.179	2823.98
719.366	2750.25
719.553	2780.97
719.74	2658.09
719.927	2617.13
720.114	2748.2
720.301	2731.82
720.488	2590.51
720.676	2592.56
720.863	2707.24
721.05	2656.04
721.237	2701.1
721.424	2529.07
721.611	2596.65
721.798	2508.59
721.985	2680.62
722.172	2656.04
722.358	2621.23
722.545	2576.17
722.732	2621.23
722.919	2676.52
723.106	2541.36
723.293	2549.55
723.48	2748.2
723.667	2637.61
723.853	2561.84
724.04	2518.83
724.227	2551.6
724.414	2461.49
724.6	2572.08
724.787	2479.92
724.974	2553.65
725.161	2430.77
725.347	2479.92
725.534	2537.26
725.72	2488.11
725.907	2496.3
726.094	2453.3
726.28	2578.22
726.467	2557.74
726.653	2412.34
726.84	2502.45
727.027	2475.82
727.213	2420.53
727.4	2512.69
727.586	2563.89
727.773	2465.58
727.959	2408.24
728.145	2588.46
728.332	2475.82
728.518	2451.25
728.705	2465.58
728.891	2441.01
729.077	2357.04
729.264	2414.38
729.45	2428.72
729.636	2348.85
729.823	2244.4
730.009	2398
730.195	2344.75
730.382	2379.57
730.568	2373.43
730.754	2428.72
730.94	2400.05
731.126	2342.71
731.313	2391.86
731.499	2354.99
731.685	2350.9
731.871	2400.05
732.057	2305.84
732.243	2252.59
732.429	2297.65
732.615	2365.23
732.801	2365.23
732.987	2289.46
733.173	2324.27
733.359	2293.55
733.545	2228.02
733.731	2256.69
733.917	2416.43
734.103	2254.64
734.289	2309.94
734.475	2254.64
734.661	2266.93
734.847	2303.79
735.033	2299.7
735.219	2266.93
735.404	2330.42
735.59	2197.3
735.776	2144.05
735.962	2264.88
736.148	2379.57
736.333	2209.59
736.519	2244.4
736.705	2271.03
736.89	2131.76
737.076	2160.44
737.262	2129.72
737.447	2129.72
737.633	2164.53
737.819	2148.15
738.004	2086.71
738.19	2260.79
738.375	2242.36
738.561	2252.59
738.747	2150.2
738.932	2049.85
739.118	2187.06
739.303	2133.81
739.489	2115.38
739.674	2076.47
739.859	2039.61
740.045	2115.38
740.23	2131.76
740.416	1969.98
740.601	2129.72
740.786	1976.12
740.972	2105.14
741.157	1967.93
741.342	2000.69
741.528	2101.05
741.713	1947.45
741.898	1908.54
742.084	1918.78
742.269	2117.43
742.454	2053.94
742.639	2021.17
742.824	1937.21
743.01	2055.99
743.195	1961.78
743.38	1980.22
743.565	1988.41
743.75	1918.78
743.935	1834.81
744.12	1814.33
744.305	1814.33
744.49	1875.77
744.675	1982.26
744.86	1888.06
745.045	1863.48
745.23	1777.47
745.415	1834.81
745.6	1906.49
745.785	1875.77
745.97	1781.56
746.155	1789.75
746.34	1793.85
746.525	1937.21
746.71	1767.23
746.895	1709.88
747.079	1677.12
747.264	1693.5
747.449	1699.64
747.634	1660.73
747.819	1687.36
748.003	1632.06
748.188	1654.59
748.373	1689.4
748.557	1705.79
748.742	1685.31
748.927	1652.54
749.111	1644.35
749.296	1642.3
749.481	1656.64
749.665	1638.2
749.85	1611.58
750.034	1632.06
750.219	1500.99
750.404	1523.52
750.588	1605.44
750.773	1529.66
750.957	1417.02
751.141	1480.51
751.326	1552.19
751.51	1523.52
751.695	1492.8
751.879	1519.42
752.064	1521.47
752.248	1445.7
752.432	1513.28
752.617	1539.9
752.801	1464.13
752.985	1380.16
753.17	1378.11
753.354	1351.49
753.538	1478.46
753.722	1369.92
753.907	1357.63
754.091	1367.87
754.275	1355.58
754.459	1392.45
754.643	1378.11
754.828	1236.8
755.012	1283.91
755.196	1265.47
755.38	1283.91
755.564	1228.61
755.748	1220.42
755.932	1343.3
756.116	1244.99
756.3	1216.32
756.484	1269.57
756.668	1271.62
756.852	1152.84
757.036	1185.6
757.22	1247.04
757.404	1163.08
757.588	1189.7
757.772	1201.99
757.956	1257.28
758.14	1093.44
758.323	1179.46
758.507	1095.49
758.691	1120.07
758.875	1146.69
759.059	1105.73
759.242	1093.44
759.426	1154.88
759.61	1079.11
759.794	1058.63
759.977	1204.03
760.161	1095.49
760.345	1081.16
760.528	1009.48
760.712	1058.63
760.895	1068.87
761.079	896.84
761.263	1019.72
761.446	999.24
761.63	986.95
761.813	1015.62
761.997	993.09
762.18	1013.57
762.364	956.23
762.547	991.05
762.731	929.61
762.914	956.23
763.098	960.33
763.281	952.13
763.464	898.89
763.648	931.66
763.831	945.99
764.015	915.27
764.198	923.46
764.381	945.99
764.564	950.09
764.748	939.85
764.931	948.04
765.114	882.5
765.297	1048.39
765.481	909.13
765.664	913.22
765.847	927.56
766.03	935.75
766.213	917.32
766.397	857.93
766.58	907.08
766.763	958.28
766.946	880.46
767.129	859.98
767.312	855.88
767.495	833.35
767.678	960.33
767.861	917.32
768.044	864.07
768.227	907.08
768.41	870.22
768.593	905.03
768.776	874.31
768.959	886.6
769.142	870.22
769.324	804.68
769.507	780.11
769.69	857.93
769.873	788.3
770.056	773.96
770.239	845.64
770.421	782.15
770.604	800.59
770.787	876.36
770.97	784.2
771.152	786.25
771.335	847.69
771.518	872.26
771.7	825.16
771.883	806.73
772.066	773.96
772.248	819.02
772.431	782.15
772.613	810.82
772.796	800.59
772.978	763.72
773.161	816.97
773.343	794.44
773.526	655.18
773.708	655.18
773.891	759.63
774.073	704.33
774.256	769.87
774.438	726.86
774.621	780.11
774.803	761.67
774.985	687.95
775.168	724.81
775.35	730.95
775.532	663.37
775.715	603.98
775.897	653.13
776.079	700.23
776.261	700.23
776.444	700.23
776.626	655.18
776.808	642.89
776.99	663.37
777.173	689.99
777.355	661.32
777.537	640.84
777.719	661.32
777.901	640.84
778.083	634.7
778.265	585.55
778.447	587.6
778.629	614.22
778.811	644.94
778.993	630.6
779.175	663.37
779.357	591.69
779.539	616.27
779.721	628.56
779.903	636.75
780.085	563.02
780.267	540.49
780.449	595.79
780.631	587.6
780.812	573.26
780.994	581.45
781.176	542.54
781.358	454.48
781.54	552.78
781.721	546.64
781.903	565.07
782.085	511.82
782.267	554.83
782.448	524.11
782.63	472.91
782.812	440.14
782.993	567.12
783.175	571.21
783.357	444.24
783.538	513.87
783.72	448.33
783.901	448.33
784.083	468.81
784.264	456.53
784.446	407.38
784.627	431.95
784.809	403.28
784.99	513.87
785.172	509.77
785.353	474.96
785.535	477.01
785.716	442.19
785.897	374.61
786.079	372.56
786.26	481.1
786.441	434
786.623	335.7
786.804	411.47
786.985	470.86
787.167	466.77
787.348	358.22
787.529	444.24
787.71	413.52
787.891	452.43
788.073	407.38
788.254	321.36
788.435	421.71
788.616	253.78
788.797	345.94
788.978	352.08
789.159	444.24
789.34	399.18
789.522	302.93
789.703	411.47
789.884	397.14
790.065	403.28
790.246	390.99
790.427	390.99
790.607	405.33
790.788	397.14
790.969	350.03
791.15	421.71
791.331	360.27
791.512	323.41
791.693	321.36
791.874	370.51
792.054	339.79
792.235	411.47
792.416	358.22
792.597	270.16
792.778	313.17
792.958	345.94
793.139	317.26
793.32	282.45
793.5	210.77
793.681	343.89
793.862	321.36
794.042	266.07
794.223	329.55
794.404	331.6
794.584	198.48
794.765	294.74
794.945	307.02
795.126	313.17
795.306	313.17
795.487	284.5
795.667	339.79
795.848	173.91
796.028	288.59
796.209	311.12
796.389	239.44
796.57	259.92
796.75	216.91
796.93	247.63
797.111	264.02
797.291	286.54
797.471	270.16
797.652	216.91
797.832	321.36
798.012	294.74
798.192	245.59
798.373	286.54
798.553	186.19
798.733	286.54
798.913	204.63
799.093	210.77
799.274	245.59
799.454	325.46
799.634	206.67
799.814	298.83
799.994	210.77
800.174	278.35
800.354	241.49
800.534	161.62
800.714	171.86
800.894	237.39
801.074	221.01
801.254	266.07
801.434	239.44
801.614	249.68
801.794	237.39
801.974	649.04
802.154	178
802.334	290.64
802.514	212.82
802.693	247.63
802.873	163.67
803.053	264.02
803.233	294.74
803.413	239.44
803.592	241.49
803.772	114.52
803.952	257.87
804.131	159.57
804.311	196.43
804.491	253.78
804.67	141.14
804.85	180.05
805.03	231.25
805.209	270.16
805.389	151.38
805.568	132.95
805.748	194.39
805.928	227.15
806.107	151.38
806.287	231.25
806.466	229.2
806.646	157.52
806.825	194.39
807.004	173.91
807.184	165.71
807.363	223.06
807.543	173.91
807.722	227.15
807.901	214.87
808.081	171.86
808.26	128.85
808.439	188.24
808.619	190.29
808.798	186.19
808.977	233.3
809.156	235.35
809.336	112.47
809.515	173.91
809.694	151.38
809.873	206.67
810.052	192.34
810.231	135
810.411	149.33
810.59	214.87
810.769	102.23
810.948	198.48
811.127	214.87
811.306	98.13
811.485	180.05
811.664	200.53
811.843	118.61
812.022	147.28
812.201	169.81
812.38	69.46
812.559	145.24
812.737	112.47
812.916	155.47
813.095	128.85
813.274	83.8
813.453	139.09
813.632	186.19
813.811	139.09
813.989	128.85
814.168	75.6
814.347	71.51
814.526	51.03
814.704	194.39
814.883	188.24
815.062	120.66
815.24	137.04
815.419	69.46
815.598	161.62
815.776	61.27
815.955	153.43
816.133	163.67
816.312	77.65
816.49	96.08
816.669	100.18
816.847	196.43
817.026	149.33
817.204	128.85
817.383	120.66
817.561	89.94
817.74	118.61
817.918	194.39
818.097	243.54
818.275	151.38
818.453	132.95
818.632	173.91
818.81	77.65
818.988	102.23
819.167	87.89
819.345	132.95
819.523	157.52
819.701	153.43
819.879	108.37
820.058	155.47
820.236	20.31
820.414	100.18
820.592	79.7
820.77	130.9
820.948	141.14
821.127	120.66
821.305	145.24
821.483	83.8
821.661	128.85
821.839	63.32
822.017	55.12
822.195	112.47
822.373	122.71
822.551	112.47
822.729	122.71
822.907	96.08
823.085	91.99
823.262	116.56
823.44	171.86
823.618	171.86
823.796	100.18
823.974	106.32
824.152	53.08
824.329	57.17
824.507	112.47
824.685	65.36
824.863	79.7
825.04	63.32
825.218	171.86
825.396	40.79
825.574	122.71
825.751	137.04
825.929	98.13
826.107	89.94
826.284	40.79
826.462	147.28
826.639	102.23
826.817	85.84
826.994	104.28
827.172	69.46
827.349	112.47
827.527	55.12
827.704	59.22
827.882	196.43
828.059	130.9
828.237	63.32
828.414	188.24
828.591	110.42
828.769	77.65
828.946	65.36
829.124	153.43
829.301	32.6
829.478	63.32
829.655	67.41
829.833	65.36
830.01	10.07
830.187	116.56
830.364	83.8
830.542	1.88
830.719	114.52
830.896	73.56
831.073	94.04
831.25	100.18
831.427	94.04
831.604	53.08
831.782	20.31
831.959	77.65
832.136	-10.41
832.313	63.32
832.49	-6.31
832.667	12.12
832.844	61.27
833.021	57.17
833.198	79.7
833.374	104.28
833.551	57.17
833.728	71.51
833.905	96.08
834.082	79.7
834.259	114.52
834.436	94.04
834.612	26.45
834.789	147.28
834.966	151.38
835.143	71.51
835.319	48.98
835.496	28.5
835.673	51.03
835.85	104.28
836.026	46.93
836.203	22.36
836.38	89.94
836.556	34.64
836.733	67.41
836.909	147.28
837.086	32.6
837.262	34.64
837.439	-22.7
837.616	40.79
837.792	38.74
837.968	71.51
838.145	57.17
838.321	83.8
838.498	114.52
838.674	40.79
838.851	75.6
839.027	151.38
839.203	112.47
839.38	44.88
839.556	63.32
839.732	85.84
839.909	3.93
840.085	69.46
840.261	-8.36
840.437	8.02
840.614	59.22
840.79	75.6
840.966	79.7
841.142	-2.22
841.318	85.84
841.494	44.88
841.671	22.36
841.847	57.17
842.023	18.26
842.199	69.46
842.375	83.8
842.551	-18.6
842.727	85.84
842.903	102.23
843.079	-12.46
843.255	26.45
843.431	57.17
843.607	110.42
843.783	57.17
843.959	120.66
844.134	63.32
844.31	24.4
844.486	61.27
844.662	-0.17
844.838	-0.17
845.013	24.4
845.189	83.8
845.365	57.17
845.541	-10.41
845.716	73.56
845.892	16.21
846.068	75.6
846.244	81.75
846.419	67.41
846.595	22.36
846.77	85.84
846.946	73.56
847.122	163.67
847.297	26.45
847.473	79.7
847.648	-4.27
847.824	79.7
847.999	8.02
848.175	-8.36
848.35	59.22
848.526	128.85
848.701	-4.27
848.876	36.69
849.052	-41.13
849.227	28.5
849.403	24.4
849.578	-12.46
849.753	34.64
849.929	94.04
850.104	-39.08
850.279	91.99
850.454	67.41
850.63	16.21
850.805	38.74
850.98	16.21
851.155	12.12
851.33	94.04
851.505	22.36
851.681	63.32
851.856	16.21
852.031	102.23
852.206	75.6
852.381	34.64
852.556	63.32
852.731	16.21
852.906	53.08
853.081	12.12
853.256	59.22
853.431	24.4
853.606	30.55
853.781	94.04
853.956	5.97
854.131	-16.55
854.305	-22.7
854.48	24.4
854.655	61.27
854.83	16.21
855.005	38.74
855.18	3.93
855.354	26.45
855.529	36.69
855.704	-41.13
855.879	77.65
856.053	-14.51
856.228	36.69
856.403	51.03
856.577	-0.17
856.752	10.07
856.926	26.45
857.101	10.07
857.276	18.26
857.45	8.02
857.625	137.04
857.799	40.79
857.974	8.02
858.148	46.93
858.323	-2.22
858.497	53.08
858.672	8.02
858.846	46.93
859.02	-4.27
859.195	24.4
859.369	63.32
859.543	12.12
859.718	46.93
859.892	12.12
860.066	32.6
860.241	28.5
860.415	-65.71
860.589	26.45
860.763	20.31
860.938	16.21
861.112	85.84
861.286	24.4
861.46	-28.84
861.634	34.64
861.808	81.75
861.982	-24.75
862.157	81.75
862.331	18.26
862.505	1.88
862.679	32.6
862.853	-32.94
863.027	22.36
863.201	48.98
863.375	5.97
863.549	46.93
863.722	75.6
863.896	48.98
864.07	73.56
864.244	-10.41
864.418	-4.27
864.592	16.21
864.766	10.07
864.939	87.89
865.113	-43.18
865.287	118.61
865.461	22.36
865.634	-30.89
865.808	14.17
865.982	-59.56
866.156	-0.17
866.329	44.88
866.503	32.6
866.676	30.55
866.85	14.17
867.024	5.97
867.197	-26.79
867.371	53.08
867.544	18.26
867.718	3.93
867.891	65.36
868.065	-73.9
868.238	-26.79
868.412	55.12
868.585	-55.47
868.759	79.7
868.932	-24.75
869.105	-20.65
869.279	26.45
869.452	-22.7
869.625	-10.41
869.799	18.26
869.972	48.98
870.145	-24.75
870.319	65.36
870.492	-18.6
870.665	-18.6
870.838	30.55
871.011	10.07
871.185	44.88
871.358	75.6
871.531	61.27
871.704	3.93
871.877	-2.22
872.05	38.74
872.223	-24.75
872.396	42.84
872.569	22.36
872.742	-57.51
872.915	83.8
873.088	8.02
873.261	34.64
873.434	-45.23
873.607	30.55
873.78	28.5
873.953	-73.9
874.126	-24.75
874.299	1.88
874.471	-0.17
874.644	24.4
874.817	26.45
874.99	38.74
875.163	18.26
875.335	24.4
875.508	-8.36
875.681	28.5
875.853	24.4
876.026	5.97
876.199	-2.22
876.371	18.26
876.544	18.26
876.717	-0.17
876.889	73.56
877.062	79.7
877.234	1.88
877.407	-0.17
877.579	48.98
877.752	-39.08
877.924	-18.6
878.097	16.21
878.269	-32.94
878.442	46.93
878.614	-43.18
878.786	-39.08
878.959	-43.18
879.131	3.93
879.303	-94.38
879.476	65.36
879.648	-24.75
879.82	10.07
879.993	-32.94
880.165	20.31
880.337	-43.18
880.509	-8.36
880.681	-30.89
880.854	48.98
881.026	36.69
881.198	61.27
881.37	-18.6
881.542	5.97
881.714	51.03
881.886	71.51
882.058	26.45
882.23	-14.51
882.402	-8.36
882.574	14.17
882.746	-34.99
882.918	67.41
883.09	32.6
883.262	20.31
883.434	-12.46
883.606	-39.08
883.778	22.36
883.95	61.27
884.122	61.27
884.293	22.36
884.465	-0.17
884.637	63.32
884.809	-22.7
884.98	57.17
885.152	-10.41
885.324	3.93
885.496	8.02
885.667	57.17
885.839	-61.61
886.011	42.84
886.182	-51.37
886.354	61.27
886.525	24.4
886.697	-24.75
886.869	-43.18
887.04	-26.79
887.212	-0.17
887.383	69.46
887.555	-28.84
887.726	-4.27
887.897	48.98
888.069	48.98
888.24	81.75
888.412	-20.65
888.583	36.69
888.754	-65.71
888.926	-2.22
889.097	18.26
889.268	32.6
889.44	3.93
889.611	96.08
889.782	38.74
889.953	-22.7
890.125	44.88
890.296	59.22
890.467	-53.42
890.638	-14.51
890.809	85.84
890.98	73.56
891.151	-2.22
891.323	26.45
891.494	48.98
891.665	-45.23
891.836	-2.22
892.007	-24.75
892.178	16.21
892.349	1.88
892.52	-2.22
892.691	26.45
892.862	34.64
893.032	-53.42
893.203	-20.65
893.374	63.32
893.545	-12.46
893.716	46.93
893.887	18.26
894.057	22.36
894.228	-16.55
894.399	40.79
894.57	34.64
894.74	16.21
894.911	-20.65
895.082	30.55
895.253	-20.65
895.423	-8.36
895.594	-18.6
895.764	-32.94
895.935	24.4
896.106	-43.18
896.276	-10.41
896.447	14.17
896.617	-10.41
896.788	38.74
896.958	-10.41
897.129	-8.36
897.299	-30.89
897.47	8.02
897.64	16.21
897.81	-34.99
897.981	51.03
898.151	3.93
898.322	-26.79
898.492	22.36
898.662	5.97
898.832	18.26
899.003	34.64
899.173	65.36
899.343	-14.51
899.513	-24.75
