Data from USB4F104151__97__12-37-12-770.txt Node

Date: Fri Mar 14 12:37:12 EDT 2025
User: louis
Spectrometer: USB4F10415
Trigger mode: 4
Integration Time (sec): 2.000000E-2
Scans to average: 1
Electric dark correction enabled: true
Nonlinearity correction enabled: false
Boxcar width: 0
XAxis mode: Wavelengths
Number of Pixels in Spectrum: 3648
>>>>>Begin Spectral Data<<<<<
178.204	-85.67
178.424	-85.67
178.644	-85.67
178.864	-50.86
179.084	-54.95
179.304	0.34
179.524	-32.43
179.744	4.44
179.964	24.92
180.184	-3.75
180.404	-36.52
180.624	-40.62
180.844	33.11
181.064	-67.24
181.283	0.34
181.503	29.01
181.723	88.4
181.943	-69.29
182.163	76.12
182.383	80.21
182.602	53.59
182.822	31.06
183.042	18.77
183.262	29.01
183.482	69.97
183.701	2.39
183.921	22.87
184.141	-16.04
184.361	-38.57
184.58	57.68
184.8	-7.85
185.02	49.49
185.239	80.21
185.459	98.64
185.679	26.96
185.898	-63.15
186.118	90.45
186.338	35.16
186.557	72.02
186.777	65.88
186.997	29.01
187.216	-22.19
187.436	-20.14
187.655	55.64
187.875	37.2
188.095	18.77
188.314	76.12
188.534	24.92
188.753	41.3
188.973	74.07
189.192	51.54
189.412	112.98
189.631	112.98
189.851	41.3
190.07	16.73
190.29	10.58
190.509	33.11
190.729	74.07
190.948	49.49
191.168	72.02
191.387	59.73
191.607	57.68
191.826	76.12
192.045	-13.99
192.265	22.87
192.484	67.92
192.704	80.21
192.923	-20.14
193.142	41.3
193.362	63.83
193.581	59.73
193.8	53.59
194.02	57.68
194.239	29.01
194.458	84.31
194.678	14.68
194.897	20.82
195.116	10.58
195.335	96.6
195.555	47.44
195.774	72.02
195.993	80.21
196.212	2.39
196.432	88.4
196.651	-38.57
196.87	82.26
197.089	12.63
197.308	10.58
197.528	104.79
197.747	-48.81
197.966	39.25
198.185	57.68
198.404	49.49
198.623	139.6
198.842	88.4
199.062	2.39
199.281	12.63
199.5	14.68
199.719	82.26
199.938	-40.62
200.157	76.12
200.376	49.49
200.595	86.36
200.814	100.69
201.033	61.78
201.252	125.27
201.471	123.22
201.69	108.88
201.909	59.73
202.128	84.31
202.347	12.63
202.566	43.35
202.785	57.68
203.004	-26.28
203.223	149.84
203.442	69.97
203.661	37.2
203.879	49.49
204.098	31.06
204.317	-13.99
204.536	-3.75
204.755	76.12
204.974	98.64
205.193	29.01
205.411	119.12
205.63	53.59
205.849	45.4
206.068	43.35
206.287	14.68
206.505	88.4
206.724	53.59
206.943	20.82
207.162	39.25
207.381	29.01
207.599	-30.38
207.818	82.26
208.037	37.2
208.255	2.39
208.474	22.87
208.693	35.16
208.911	20.82
209.13	35.16
209.349	76.12
209.567	0.34
209.786	35.16
210.005	53.59
210.223	39.25
210.442	41.3
210.661	74.07
210.879	49.49
211.098	74.07
211.316	76.12
211.535	100.69
211.753	47.44
211.972	51.54
212.191	6.49
212.409	55.64
212.628	41.3
212.846	131.41
213.065	88.4
213.283	63.83
213.502	0.34
213.72	49.49
213.938	6.49
214.157	43.35
214.375	12.63
214.594	102.74
214.812	31.06
215.031	65.88
215.249	49.49
215.467	108.88
215.686	76.12
215.904	26.96
216.122	-9.9
216.341	104.79
216.559	-7.85
216.778	106.84
216.996	57.68
217.214	47.44
217.432	0.34
217.651	65.88
217.869	33.11
218.087	16.73
218.306	72.02
218.524	16.73
218.742	63.83
218.96	59.73
219.179	-38.57
219.397	65.88
219.615	100.69
219.833	22.87
220.051	41.3
220.27	102.74
220.488	76.12
220.706	14.68
220.924	57.68
221.142	22.87
221.36	33.11
221.578	72.02
221.796	6.49
222.015	35.16
222.233	20.82
222.451	43.35
222.669	33.11
222.887	129.36
223.105	-26.28
223.323	-7.85
223.541	8.53
223.759	88.4
223.977	47.44
224.195	59.73
224.413	33.11
224.631	-13.99
224.849	55.64
225.067	33.11
225.285	0.34
225.503	6.49
225.721	-34.47
225.939	41.3
226.157	78.16
226.375	110.93
226.592	20.82
226.81	94.55
227.028	90.45
227.246	147.8
227.464	80.21
227.682	104.79
227.9	53.59
228.117	55.64
228.335	94.55
228.553	80.21
228.771	41.3
228.989	49.49
229.206	92.5
229.424	67.92
229.642	20.82
229.86	63.83
230.077	22.87
230.295	112.98
230.513	90.45
230.731	39.25
230.948	119.12
231.166	65.88
231.384	47.44
231.601	102.74
231.819	63.83
232.037	-42.67
232.254	45.4
232.472	49.49
232.689	55.64
232.907	-1.71
233.125	-24.23
233.342	22.87
233.56	84.31
233.777	43.35
233.995	20.82
234.213	-16.04
234.43	45.4
234.648	78.16
234.865	6.49
235.083	119.12
235.3	82.26
235.518	92.5
235.735	61.78
235.953	63.83
236.17	20.82
236.388	88.4
236.605	59.73
236.822	67.92
237.04	14.68
237.257	100.69
237.475	92.5
237.692	88.4
237.909	78.16
238.127	31.06
238.344	-22.19
238.562	33.11
238.779	-3.75
238.996	49.49
239.214	51.54
239.431	149.84
239.648	45.4
239.865	106.84
240.083	39.25
240.3	84.31
240.517	18.77
240.735	8.53
240.952	0.34
241.169	112.98
241.386	53.59
241.603	96.6
241.821	-38.57
242.038	61.78
242.255	-18.09
242.472	65.88
242.689	123.22
242.907	10.58
243.124	74.07
243.341	65.88
243.558	37.2
243.775	10.58
243.992	33.11
244.209	65.88
244.426	100.69
244.643	78.16
244.86	-50.86
245.078	31.06
245.295	51.54
245.512	26.96
245.729	98.64
245.946	53.59
246.163	24.92
246.38	67.92
246.597	12.63
246.814	-11.95
247.031	63.83
247.248	16.73
247.464	88.4
247.681	41.3
247.898	10.58
248.115	-34.47
248.332	0.34
248.549	80.21
248.766	94.55
248.983	53.59
249.2	43.35
249.417	80.21
249.633	37.2
249.85	-16.04
250.067	65.88
250.284	88.4
250.501	8.53
250.717	10.58
250.934	57.68
251.151	39.25
251.368	20.82
251.585	41.3
251.801	14.68
252.018	29.01
252.235	12.63
252.451	6.49
252.668	18.77
252.885	29.01
253.102	35.16
253.318	20.82
253.535	37.2
253.752	74.07
253.968	16.73
254.185	-9.9
254.401	72.02
254.618	55.64
254.835	6.49
255.051	12.63
255.268	53.59
255.484	59.73
255.701	-11.95
255.917	39.25
256.134	6.49
256.351	10.58
256.567	10.58
256.784	-16.04
257	-7.85
257.217	121.17
257.433	41.3
257.65	35.16
257.866	90.45
258.082	153.94
258.299	10.58
258.515	92.5
258.732	10.58
258.948	-7.85
259.165	35.16
259.381	110.93
259.597	63.83
259.814	67.92
260.03	8.53
260.246	53.59
260.463	57.68
260.679	47.44
260.895	-5.8
261.112	88.4
261.328	-9.9
261.544	37.2
261.761	92.5
261.977	-9.9
262.193	41.3
262.409	47.44
262.626	24.92
262.842	63.83
263.058	24.92
263.274	6.49
263.49	-13.99
263.707	82.26
263.923	63.83
264.139	92.5
264.355	41.3
264.571	67.92
264.787	100.69
265.004	45.4
265.22	22.87
265.436	10.58
265.652	67.92
265.868	45.4
266.084	53.59
266.3	69.97
266.516	6.49
266.732	24.92
266.948	6.49
267.164	57.68
267.38	57.68
267.596	119.12
267.812	96.6
268.028	22.87
268.244	78.16
268.46	24.92
268.676	90.45
268.892	-22.19
269.108	127.32
269.324	-18.09
269.54	33.11
269.756	61.78
269.972	-7.85
270.188	39.25
270.403	45.4
270.619	69.97
270.835	92.5
271.051	33.11
271.267	65.88
271.483	88.4
271.698	49.49
271.914	12.63
272.13	-5.8
272.346	72.02
272.562	47.44
272.777	117.08
272.993	72.02
273.209	39.25
273.425	-69.29
273.64	18.77
273.856	76.12
274.072	0.34
274.287	80.21
274.503	74.07
274.719	31.06
274.934	86.36
275.15	0.34
275.366	84.31
275.581	-50.86
275.797	41.3
276.012	37.2
276.228	12.63
276.444	59.73
276.659	53.59
276.875	10.58
277.09	20.82
277.306	4.44
277.521	22.87
277.737	55.64
277.952	88.4
278.168	69.97
278.383	31.06
278.599	51.54
278.814	69.97
279.03	94.55
279.245	22.87
279.461	76.12
279.676	33.11
279.892	-7.85
280.107	16.73
280.322	37.2
280.538	-18.09
280.753	-36.52
280.969	57.68
281.184	-3.75
281.399	98.64
281.615	61.78
281.83	43.35
282.045	112.98
282.26	92.5
282.476	72.02
282.691	59.73
282.906	39.25
283.122	102.74
283.337	-36.52
283.552	8.53
283.767	0.34
283.983	76.12
284.198	14.68
284.413	61.78
284.628	57.68
284.843	78.16
285.058	155.99
285.274	94.55
285.489	26.96
285.704	74.07
285.919	41.3
286.134	-5.8
286.349	65.88
286.564	24.92
286.779	63.83
286.995	78.16
287.21	35.16
287.425	39.25
287.64	96.6
287.855	65.88
288.07	18.77
288.285	41.3
288.5	74.07
288.715	43.35
288.93	94.55
289.145	61.78
289.36	86.36
289.575	72.02
289.79	82.26
290.004	53.59
290.219	31.06
290.434	-3.75
290.649	41.3
290.864	37.2
291.079	149.84
291.294	41.3
291.509	72.02
291.724	104.79
291.938	45.4
292.153	41.3
292.368	76.12
292.583	108.88
292.798	35.16
293.012	33.11
293.227	45.4
293.442	117.08
293.657	69.97
293.871	67.92
294.086	57.68
294.301	104.79
294.516	39.25
294.73	33.11
294.945	47.44
295.16	20.82
295.374	6.49
295.589	104.79
295.804	33.11
296.018	92.5
296.233	110.93
296.447	57.68
296.662	24.92
296.877	37.2
297.091	29.01
297.306	55.64
297.52	35.16
297.735	82.26
297.949	76.12
298.164	92.5
298.378	55.64
298.593	39.25
298.807	22.87
299.022	78.16
299.236	104.79
299.451	127.32
299.665	29.01
299.88	72.02
300.094	43.35
300.309	45.4
300.523	53.59
300.737	112.98
300.952	76.12
301.166	92.5
301.381	12.63
301.595	57.68
301.809	65.88
302.024	106.84
302.238	12.63
302.452	18.77
302.667	47.44
302.881	78.16
303.095	43.35
303.309	125.27
303.524	24.92
303.738	80.21
303.952	55.64
304.166	115.03
304.381	6.49
304.595	127.32
304.809	22.87
305.023	57.68
305.237	88.4
305.452	14.68
305.666	172.37
305.88	74.07
306.094	94.55
306.308	72.02
306.522	33.11
306.736	20.82
306.95	2.39
307.164	78.16
307.379	10.58
307.593	84.31
307.807	10.58
308.021	131.41
308.235	88.4
308.449	129.36
308.663	-32.43
308.877	67.92
309.091	74.07
309.305	108.88
309.519	-16.04
309.733	57.68
309.947	20.82
310.161	55.64
310.374	39.25
310.588	63.83
310.802	51.54
311.016	22.87
311.23	53.59
311.444	80.21
311.658	8.53
311.872	24.92
312.085	49.49
312.299	55.64
312.513	74.07
312.727	2.39
312.941	-7.85
313.154	8.53
313.368	18.77
313.582	94.55
313.796	47.44
314.009	108.88
314.223	65.88
314.437	88.4
314.651	0.34
314.864	18.77
315.078	-11.95
315.292	102.74
315.505	123.22
315.719	104.79
315.933	33.11
316.146	49.49
316.36	26.96
316.573	8.53
316.787	59.73
317.001	127.32
317.214	4.44
317.428	20.82
317.641	10.58
317.855	63.83
318.068	37.2
318.282	29.01
318.495	80.21
318.709	63.83
318.922	135.51
319.136	92.5
319.349	98.64
319.563	41.3
319.776	55.64
319.99	-26.28
320.203	106.84
320.417	57.68
320.63	82.26
320.843	72.02
321.057	14.68
321.27	57.68
321.483	92.5
321.697	18.77
321.91	-1.71
322.124	59.73
322.337	41.3
322.55	37.2
322.763	61.78
322.977	88.4
323.19	92.5
323.403	61.78
323.617	80.21
323.83	35.16
324.043	22.87
324.256	80.21
324.469	51.54
324.683	141.65
324.896	69.97
325.109	74.07
325.322	41.3
325.535	72.02
325.748	45.4
325.962	47.44
326.175	82.26
326.388	104.79
326.601	63.83
326.814	76.12
327.027	53.59
327.24	67.92
327.453	51.54
327.666	69.97
327.879	45.4
328.092	57.68
328.305	20.82
328.518	90.45
328.731	43.35
328.944	26.96
329.157	69.97
329.37	37.2
329.583	117.08
329.796	57.68
330.009	14.68
330.222	53.59
330.435	2.39
330.648	29.01
330.861	2.39
331.073	67.92
331.286	96.6
331.499	51.54
331.712	22.87
331.925	86.36
332.138	37.2
332.35	51.54
332.563	-3.75
332.776	67.92
332.989	-40.62
333.202	63.83
333.414	14.68
333.627	74.07
333.84	74.07
334.053	98.64
334.265	65.88
334.478	49.49
334.691	90.45
334.903	37.2
335.116	74.07
335.329	106.84
335.541	74.07
335.754	49.49
335.966	96.6
336.179	82.26
336.392	41.3
336.604	24.92
336.817	82.26
337.029	14.68
337.242	55.64
337.454	133.46
337.667	39.25
337.88	108.88
338.092	49.49
338.305	76.12
338.517	43.35
338.729	98.64
338.942	88.4
339.154	86.36
339.367	43.35
339.579	82.26
339.792	94.55
340.004	49.49
340.217	49.49
340.429	88.4
340.641	100.69
340.854	-30.38
341.066	59.73
341.278	96.6
341.491	59.73
341.703	43.35
341.915	82.26
342.128	86.36
342.34	84.31
342.552	8.53
342.764	137.56
342.977	37.2
343.189	26.96
343.401	14.68
343.613	41.3
343.826	100.69
344.038	61.78
344.25	74.07
344.462	51.54
344.674	119.12
344.886	80.21
345.099	106.84
345.311	61.78
345.523	86.36
345.735	33.11
345.947	33.11
346.159	33.11
346.371	35.16
346.583	69.97
346.795	145.75
347.007	76.12
347.219	80.21
347.431	80.21
347.643	41.3
347.855	67.92
348.067	80.21
348.279	49.49
348.491	69.97
348.703	6.49
348.915	90.45
349.127	108.88
349.339	78.16
349.551	121.17
349.763	84.31
349.975	74.07
350.187	90.45
350.399	88.4
350.61	92.5
350.822	26.96
351.034	-9.9
351.246	86.36
351.458	47.44
351.669	41.3
351.881	57.68
352.093	37.2
352.305	31.06
352.517	100.69
352.728	74.07
352.94	39.25
353.152	65.88
353.363	92.5
353.575	78.16
353.787	155.99
353.999	74.07
354.21	188.75
354.422	47.44
354.633	82.26
354.845	112.98
355.057	86.36
355.268	41.3
355.48	72.02
355.692	74.07
355.903	41.3
356.115	41.3
356.326	49.49
356.538	96.6
356.749	43.35
356.961	78.16
357.172	51.54
357.384	94.55
357.595	94.55
357.807	24.92
358.018	80.21
358.23	57.68
358.441	119.12
358.653	63.83
358.864	51.54
359.075	35.16
359.287	6.49
359.498	98.64
359.709	53.59
359.921	49.49
360.132	45.4
360.344	84.31
360.555	24.92
360.766	59.73
360.977	16.73
361.189	57.68
361.4	59.73
361.611	115.03
361.823	53.59
362.034	61.78
362.245	35.16
362.456	110.93
362.667	61.78
362.879	74.07
363.09	133.46
363.301	149.84
363.512	57.68
363.723	61.78
363.935	53.59
364.146	121.17
364.357	51.54
364.568	29.01
364.779	2.39
364.99	4.44
365.201	76.12
365.412	115.03
365.623	53.59
365.834	90.45
366.045	76.12
366.256	69.97
366.467	137.56
366.678	82.26
366.889	35.16
367.1	29.01
367.311	63.83
367.522	29.01
367.733	63.83
367.944	74.07
368.155	110.93
368.366	74.07
368.577	45.4
368.788	18.77
368.999	74.07
369.209	160.08
369.42	119.12
369.631	24.92
369.842	41.3
370.053	69.97
370.264	72.02
370.474	90.45
370.685	125.27
370.896	33.11
371.107	82.26
371.317	47.44
371.528	53.59
371.739	61.78
371.95	78.16
372.16	65.88
372.371	2.39
372.582	98.64
372.792	125.27
373.003	96.6
373.214	65.88
373.424	78.16
373.635	76.12
373.846	133.46
374.056	33.11
374.267	-40.62
374.477	112.98
374.688	45.4
374.898	106.84
375.109	74.07
375.319	96.6
375.53	98.64
375.74	88.4
375.951	74.07
376.161	80.21
376.372	211.28
376.582	158.03
376.793	106.84
377.003	24.92
377.214	39.25
377.424	84.31
377.635	76.12
377.845	53.59
378.055	88.4
378.266	82.26
378.476	57.68
378.686	49.49
378.897	123.22
379.107	51.54
379.317	69.97
379.528	110.93
379.738	55.64
379.948	18.77
380.158	119.12
380.369	112.98
380.579	127.32
380.789	43.35
380.999	78.16
381.21	102.74
381.42	158.03
381.63	24.92
381.84	26.96
382.05	-9.9
382.261	102.74
382.471	16.73
382.681	84.31
382.891	106.84
383.101	143.7
383.311	41.3
383.521	86.36
383.731	55.64
383.941	74.07
384.151	61.78
384.361	94.55
384.571	110.93
384.781	67.92
384.991	137.56
385.201	84.31
385.411	88.4
385.621	59.73
385.831	65.88
386.041	110.93
386.251	67.92
386.461	55.64
386.671	125.27
386.881	57.68
387.091	51.54
387.301	63.83
387.511	39.25
387.72	145.75
387.93	135.51
388.14	8.53
388.35	53.59
388.56	149.84
388.769	110.93
388.979	45.4
389.189	80.21
389.399	100.69
389.609	117.08
389.818	86.36
390.028	82.26
390.238	125.27
390.447	53.59
390.657	125.27
390.867	55.64
391.076	10.58
391.286	39.25
391.496	72.02
391.705	94.55
391.915	119.12
392.125	92.5
392.334	86.36
392.544	149.84
392.753	166.23
392.963	65.88
393.172	98.64
393.382	125.27
393.591	76.12
393.801	78.16
394.01	100.69
394.22	80.21
394.429	149.84
394.639	149.84
394.848	137.56
395.058	125.27
395.267	129.36
395.477	84.31
395.686	162.13
395.895	172.37
396.105	186.71
396.314	180.56
396.524	94.55
396.733	115.03
396.942	106.84
397.152	123.22
397.361	125.27
397.57	69.97
397.78	133.46
397.989	141.65
398.198	190.8
398.407	121.17
398.617	137.56
398.826	98.64
399.035	145.75
399.244	174.42
399.453	160.08
399.663	174.42
399.872	127.32
400.081	131.41
400.29	235.86
400.499	72.02
400.708	174.42
400.917	127.32
401.127	151.89
401.336	115.03
401.545	203.09
401.754	201.04
401.963	164.18
402.172	155.99
402.381	123.22
402.59	219.47
402.799	209.23
403.008	229.71
403.217	217.43
403.426	219.47
403.635	88.4
403.844	278.87
404.053	223.57
404.262	211.28
404.471	201.04
404.68	213.33
404.888	244.05
405.097	252.24
405.306	270.67
405.515	209.23
405.724	285.01
405.933	242
406.142	205.14
406.35	254.29
406.559	201.04
406.768	258.39
406.977	278.87
407.185	315.73
407.394	309.58
407.603	262.48
407.812	348.5
408.02	332.11
408.229	285.01
408.438	307.54
408.646	311.63
408.855	309.58
409.064	399.7
409.272	360.78
409.481	467.28
409.69	368.98
409.898	391.5
410.107	381.26
410.315	475.47
410.524	459.09
410.733	465.23
410.941	428.37
411.15	547.15
411.358	448.85
411.567	598.35
411.775	514.38
411.984	557.39
412.192	518.48
412.401	612.68
412.609	706.89
412.818	665.93
413.026	696.65
413.234	667.98
413.443	706.89
413.651	739.66
413.86	735.56
414.068	799.05
414.276	803.15
414.485	833.86
414.693	971.08
414.901	991.56
415.11	975.17
415.318	893.26
415.526	940.36
415.734	1098.05
415.943	1048.9
416.151	1134.92
416.359	1081.67
416.567	1261.89
416.776	1190.21
416.984	1225.03
417.192	1364.29
417.4	1343.81
417.608	1435.97
417.817	1464.64
418.025	1552.7
418.233	1550.65
418.441	1554.75
418.649	1745.21
418.857	1769.79
419.065	1753.4
419.273	1767.74
419.481	2066.74
419.689	2019.64
419.897	2128.18
420.105	2089.27
420.313	2140.47
420.521	2197.81
420.729	2294.07
420.937	2234.68
421.145	2545.97
421.353	2476.34
421.561	2674.99
421.769	2705.71
421.977	2679.08
422.185	2826.54
422.393	2922.79
422.601	3115.3
422.809	3105.06
423.017	3158.31
423.224	3207.46
423.432	3422.5
423.64	3447.07
423.848	3778.84
424.056	3805.47
424.263	3905.82
424.471	4012.31
424.679	4059.42
424.887	4323.6
425.094	4335.89
425.302	4249.88
425.51	4444.43
425.718	4624.65
425.925	4657.42
426.133	4888.84
426.341	5228.81
426.548	5380.36
426.756	5427.46
426.964	5404.93
427.171	5802.24
427.379	5988.6
427.586	6035.71
427.794	6275.32
428.001	6461.68
428.209	6719.73
428.417	6697.2
428.624	7194.86
428.832	7098.6
429.039	7168.23
429.247	7205.1
429.454	7829.73
429.662	8235.22
429.869	7891.16
430.076	8472.79
430.284	8059.1
430.491	8495.32
430.699	9044.17
430.906	9033.93
431.114	8806.61
431.321	9447.62
431.528	9437.38
431.736	10277.05
431.943	10496.18
432.15	10477.75
432.358	10565.81
432.565	10913.97
432.772	11155.63
432.979	11684
433.187	11696.29
433.394	11849.89
433.601	12507.29
433.808	12540.05
434.016	12576.92
434.223	13191.31
434.43	13926.53
434.637	13740.16
434.844	14123.13
435.052	14770.29
435.259	14860.4
435.466	14927.99
435.673	14776.44
435.88	15786.08
436.087	16390.24
436.294	16494.68
436.501	15982.69
436.708	16480.35
436.915	17154.13
437.122	17913.92
437.329	17905.73
437.537	18477.12
437.743	18769.97
437.95	18307.13
438.157	19652.65
438.364	20023.33
438.571	19951.65
438.778	20080.67
438.985	22093.83
439.192	21297.17
439.399	21854.22
439.606	21194.77
439.813	22675.45
440.02	23820.27
440.227	23492.59
440.433	23390.19
440.64	23996.39
440.847	23941.1
441.054	24645.6
441.261	25958.35
441.467	25802.7
441.674	26589.12
441.881	26990.52
442.088	26963.9
442.294	26957.75
442.501	27805.61
442.708	28307.37
442.914	29251.48
443.121	30455.68
443.328	29669.26
443.534	31819.63
443.741	31086.46
443.948	30601.09
444.154	32941.92
444.361	32374.63
444.568	32943.97
444.774	32790.37
444.981	33148.76
445.187	34203.47
445.394	35641.14
445.6	35192.64
445.807	38594.31
446.013	36736.8
446.22	37594.9
446.426	39032.58
446.633	39413.5
446.839	40857.32
447.046	38864.64
447.252	41101.03
447.459	41547.48
447.665	40967.91
447.871	43089.6
448.078	45020.84
448.284	42673.87
448.491	44066.48
448.697	45311.65
448.903	46311.06
449.11	46171.8
449.316	45764.25
449.522	46909.07
449.728	48045.69
449.935	48090.74
450.141	47992.44
450.347	49096.3
450.553	47675.01
450.76	48287.35
450.966	50241.11
451.172	49194.6
451.378	50308.69
451.584	49385.06
451.791	50523.73
451.997	50361.94
452.203	51254.86
452.409	51480.13
452.615	50974.28
452.821	49530.47
453.027	48950.89
453.233	51361.35
453.44	49507.94
453.646	50128.47
453.852	50353.75
454.058	50867.79
454.264	49184.36
454.47	50591.31
454.676	49178.21
454.882	51013.19
455.088	46489.23
455.294	47685.25
455.5	48455.28
455.705	48627.31
455.911	46745.23
456.117	45729.44
456.323	45588.13
456.529	43034.31
456.735	44433.07
456.941	43740.86
457.147	42733.26
457.352	41670.36
457.558	41123.55
457.764	41570.01
457.97	40445.68
458.176	39558.91
458.381	39849.72
458.587	37828.37
458.793	37959.44
458.999	35475.26
459.204	38483.72
459.41	37345.05
459.616	34920.26
459.821	35174.2
460.027	34660.16
460.233	33777.49
460.438	32401.25
460.644	32630.63
460.85	31399.8
461.055	30605.19
461.261	30691.2
461.466	28401.57
461.672	27668.4
461.878	29790.09
462.083	27555.76
462.289	26922.94
462.494	26892.22
462.7	25515.98
462.905	24995.8
463.111	26107.85
463.316	26050.5
463.522	25274.32
463.727	25591.76
463.932	25153.49
464.138	24905.69
464.343	25513.94
464.549	24557.53
464.754	25399.25
464.959	24963.03
465.165	24741.85
465.37	23805.93
465.575	23261.17
465.781	24289.25
465.986	24305.63
466.191	23404.53
466.397	22669.31
466.602	21911.56
466.807	22859.77
467.012	22609.92
467.218	22564.86
467.423	22333.44
467.628	22337.54
467.833	23336.95
468.038	22507.52
468.244	21663.75
468.449	22689.79
468.654	21964.81
468.859	22042.63
469.064	21471.25
469.269	20842.52
469.474	21430.29
469.679	21391.37
469.885	20803.61
470.09	21213.2
470.295	21014.55
470.5	20500.51
470.705	20486.17
470.91	20217.89
471.115	20080.67
471.32	20584.48
471.525	20125.73
471.73	19943.46
471.935	19572.78
472.139	18800.69
472.344	19101.75
472.549	18888.76
472.754	18931.76
472.959	18673.72
473.164	18169.92
473.369	17823.81
473.574	18456.64
473.778	18116.67
473.983	18036.8
474.188	17938.5
474.393	17221.71
474.598	17326.16
474.802	16975.95
475.007	17068.11
475.212	16879.7
475.417	16402.52
475.621	16273.5
475.826	16687.19
476.031	16160.86
476.235	15984.74
476.44	16093.28
476.645	15714.41
476.849	15612.01
477.054	15622.25
477.259	15233.13
477.463	15358.06
477.668	15059.06
477.872	14999.66
478.077	14612.6
478.282	14354.55
478.486	14508.15
478.691	14270.59
478.895	14415.99
479.1	14213.24
479.304	14143.61
479.509	13975.68
479.713	14219.39
479.918	13891.71
480.122	13330.57
480.326	13746.31
480.531	13826.18
480.735	13537.41
480.94	13418.63
481.144	13873.28
481.348	13185.16
481.553	13299.85
481.757	12931.22
481.961	13324.43
482.166	13377.67
482.37	13273.23
482.574	13101.2
482.778	13189.26
482.983	13439.11
483.187	13181.07
483.391	13312.14
483.595	13271.18
483.8	13045.9
484.004	13267.08
484.208	13326.47
484.412	12920.98
484.616	13238.41
484.821	13269.13
485.025	13072.53
485.229	13385.87
485.433	13207.69
485.637	13424.78
485.841	12986.51
486.045	13006.99
486.249	13228.17
486.453	13045.9
486.657	13191.31
486.861	13301.9
487.065	12992.66
487.269	13013.13
487.473	13125.77
487.677	13185.16
487.881	13250.7
488.085	13203.6
488.289	13144.2
488.493	13211.79
488.697	13332.62
488.901	13258.89
489.105	13219.98
489.309	13332.62
489.512	13140.11
489.716	13285.51
489.92	12982.42
490.124	13346.95
490.328	13502.6
490.531	13328.52
490.735	13449.35
490.939	13754.5
491.143	13334.67
491.346	13467.78
491.55	13715.59
491.754	13701.25
491.958	13734.02
492.161	13635.72
492.365	13760.64
492.569	13787.27
492.772	13482.12
492.976	13975.68
493.18	13779.08
493.383	14387.32
493.587	14276.73
493.79	14256.25
493.994	14166.14
494.197	14356.6
494.401	14473.34
494.605	14502.01
494.808	14866.55
495.012	14811.25
495.215	14897.27
495.419	15163.5
495.622	14860.4
495.825	15349.87
496.029	15089.78
496.232	15394.92
496.436	15417.45
496.639	15777.89
496.843	15816.8
497.046	16054.37
497.249	16093.28
497.453	16269.41
497.656	16490.59
497.859	16281.69
498.063	16492.63
498.266	16801.88
498.469	16758.87
498.673	17104.98
498.876	17412.17
499.079	17569.87
499.282	17444.94
499.485	17891.4
499.689	18044.99
499.892	18223.17
500.095	18456.64
500.298	18798.65
500.501	18583.61
500.705	19103.79
500.908	19466.28
501.111	19290.16
501.314	19556.39
501.517	19511.34
501.72	20115.49
501.923	19927.08
502.126	20551.71
502.329	20697.11
502.532	21010.45
502.735	20989.97
502.938	21258.26
503.141	21479.44
503.344	22085.64
503.547	21696.52
503.75	22028.29
503.953	22747.13
504.156	22427.65
504.359	22890.49
504.562	22982.65
504.765	23422.96
504.968	23668.72
505.17	23623.66
505.373	24211.43
505.576	24784.86
505.779	24547.29
505.982	24852.44
506.185	25599.95
506.387	25741.26
506.59	25583.57
506.793	26167.24
506.996	25864.14
507.198	26712
507.401	26623.94
507.604	26890.17
507.807	27637.68
508.009	27897.77
508.212	27772.85
508.415	28137.38
508.617	28571.55
508.82	27973.55
509.022	28491.68
509.225	29310.87
509.428	29595.54
509.63	29495.19
509.833	29675.41
510.035	30676.87
510.238	30455.68
510.44	30674.82
510.643	31330.17
510.845	31590.26
511.048	31240.06
511.25	31874.93
511.453	32110.44
511.655	33154.91
511.858	32642.92
512.06	33136.48
512.262	33288.03
512.465	33374.04
512.667	34191.18
512.87	34449.22
513.072	34674.5
513.274	34957.12
513.477	35432.25
513.679	35960.62
513.881	35952.43
514.084	36509.48
514.286	36370.22
514.488	36874.02
514.69	37932.82
514.893	37447.45
515.095	38078.22
515.297	38088.46
515.499	38399.76
515.701	39169.79
515.904	38895.36
516.106	39474.94
516.308	40058.61
516.51	40392.43
516.712	40408.81
516.914	40687.34
517.116	41641.69
517.318	41907.93
517.52	41770.71
517.722	42204.88
517.925	42059.48
518.127	43192
518.329	43278.02
518.531	43132.61
518.733	43945.65
518.935	44461.74
519.136	44195.51
519.338	44940.97
519.54	45000.36
519.742	45684.38
519.944	45833.88
520.146	46569.1
520.348	46806.67
520.55	46710.41
520.752	47115.91
520.954	47867.51
521.155	47703.68
521.357	48064.12
521.559	48584.3
521.761	49280.61
521.963	48952.94
522.164	49092.2
522.366	49669.73
522.568	49952.35
522.77	50536.02
522.971	51023.43
523.173	50613.84
523.375	51351.11
523.576	51308.1
523.778	51289.67
523.98	51920.45
524.181	51889.73
524.383	52045.37
524.584	52733.49
524.786	52596.27
524.988	52547.12
525.189	53110.31
525.391	53630.5
525.592	54003.23
525.794	54056.48
525.995	53837.34
526.197	54455.83
526.398	54572.56
526.6	54887.95
526.801	54773.27
527.003	55146
527.204	55002.64
527.406	55694.85
527.607	55682.56
527.808	56096.25
528.01	55295.5
528.211	55746.05
528.412	56636.92
528.614	56677.88
528.815	56563.19
529.016	56845.81
529.218	56505.85
529.419	56759.8
529.62	56835.57
529.822	56598.01
530.023	57255.4
530.224	57126.38
530.425	57032.18
530.626	56628.73
530.828	56954.35
531.029	58039.78
531.23	57200.11
531.431	57521.64
531.632	57419.24
531.833	57415.15
532.035	57595.37
532.236	57603.56
532.437	58107.36
532.638	57632.23
532.839	58060.26
533.04	58045.92
533.241	57312.75
533.442	58715.61
533.643	57970.14
533.844	58011.1
534.045	57986.53
534.246	57656.81
534.447	58052.06
534.648	57591.27
534.849	58174.94
535.05	57791.97
535.251	58275.29
535.451	58340.83
535.652	58170.85
535.853	57898.47
536.054	58424.79
536.255	58240.48
536.456	57753.06
536.657	58836.44
536.857	57740.77
537.058	58064.35
537.259	58279.39
537.46	58013.15
537.66	58324.44
537.861	58430.94
538.062	57859.55
538.263	58424.79
538.463	57880.03
538.664	58105.31
538.865	58127.84
539.065	58310.11
539.266	57648.61
539.466	58109.41
539.667	57638.37
539.868	58793.43
540.068	58004.96
540.269	57871.84
540.469	58256.86
540.67	57656.81
540.87	58412.51
541.071	58355.16
541.271	58097.12
541.472	58009.06
541.672	57705.96
541.873	57812.45
542.073	57386.47
542.274	58295.77
542.474	57656.81
542.675	57382.38
542.875	58138.08
543.075	57595.37
543.276	57449.96
543.476	58220
543.676	57665
543.877	57845.22
544.077	57959.9
544.277	57755.11
544.478	57253.36
544.678	57480.68
544.878	57517.54
545.078	57763.3
545.279	57308.65
545.479	57368.04
545.679	57648.61
545.879	58101.21
546.079	57933.28
546.28	57245.16
546.48	56944.11
546.68	58316.25
546.88	57636.33
547.08	57267.69
547.28	57153.01
547.48	56624.63
547.68	57529.83
547.88	57202.16
548.081	57472.49
548.281	57417.19
548.481	57296.36
548.681	57810.4
548.881	57458.15
549.081	57386.47
549.28	57089.52
549.48	57507.3
549.68	57267.69
549.88	57761.25
550.08	56718.84
550.28	57038.32
550.48	56940.02
550.68	57724.39
550.88	57169.39
551.08	57417.19
551.279	57390.57
551.479	57023.98
551.679	57476.58
551.879	57026.03
552.079	56995.31
552.278	57050.61
552.478	56886.77
552.678	56940.02
552.878	57497.06
553.077	57097.71
553.277	56565.24
553.477	57128.43
553.676	56583.67
553.876	56579.57
554.076	56874.48
554.275	56456.7
554.475	56176.12
554.674	56684.02
554.874	56759.8
555.074	56141.31
555.273	56849.91
555.473	56786.42
555.672	56604.15
555.872	56585.72
556.071	56440.31
556.271	56786.42
556.47	56102.4
556.67	56241.66
556.869	56141.31
557.068	56137.21
557.268	55977.47
557.467	56352.25
557.667	56354.3
557.866	56045.05
558.065	55936.51
558.265	56167.93
558.464	55725.57
558.663	56428.02
558.863	55463.43
559.062	56294.91
559.261	55461.38
559.461	55952.9
559.66	55340.55
559.859	55748.1
560.058	55653.89
560.258	55436.81
560.457	55014.93
560.656	55498.25
560.855	55139.85
561.054	55662.08
561.253	54347.29
561.453	55160.33
561.652	55662.08
561.851	55621.12
562.05	54935.06
562.249	54461.97
562.448	55438.86
562.647	54648.34
562.846	54912.53
563.045	54703.63
563.244	54564.37
563.443	55096.84
563.642	53761.57
563.841	54699.54
564.04	54150.68
564.239	54341.14
564.438	54068.76
564.637	53847.58
564.836	54236.7
565.035	53456.42
565.234	53702.18
565.432	53724.71
565.631	53495.33
565.83	53593.64
566.029	53218.86
566.228	52880.94
566.427	53179.95
566.625	52880.94
566.824	52678.19
567.023	52919.85
567.222	52393.53
567.42	53128.75
567.619	52491.83
567.818	52532.79
568.016	52196.92
568.215	52641.33
568.414	52145.72
568.612	52672.05
568.811	52020.8
569.01	52346.42
569.208	51539.52
569.407	51783.23
569.605	51521.09
569.804	52086.33
570.002	51506.76
570.201	51664.45
570.4	51322.44
570.598	51197.51
570.797	50976.33
570.995	51045.96
571.193	50411.09
571.392	51238.47
571.59	50536.02
571.789	50433.62
571.987	50452.05
572.186	50218.58
572.384	50501.2
572.582	50468.44
572.781	50634.32
572.979	49682.02
573.177	49725.02
573.376	50038.36
573.574	49307.24
573.772	49735.26
573.971	49583.71
574.169	49550.95
574.367	49231.46
574.565	49333.86
574.763	49159.78
574.962	48832.11
575.16	48215.67
575.358	48578.16
575.556	48514.67
575.754	48770.67
575.952	48193.14
576.151	48608.88
576.349	47718.01
576.547	48254.58
576.745	48074.36
576.943	48113.27
577.141	47785.6
577.339	48057.98
577.537	47801.98
577.735	47474.3
577.933	47081.09
578.131	47691.39
578.329	46952.07
578.527	46761.61
578.725	46481.04
578.923	46712.46
579.121	46835.34
579.319	46870.15
579.516	46952.07
579.714	46421.65
579.912	46028.44
580.11	46325.39
580.308	46069.4
580.506	45760.16
580.704	45325.99
580.901	45754.01
581.099	45809.31
581.297	45663.9
581.495	45407.9
581.692	45649.56
581.89	45151.91
582.088	45235.88
582.285	44842.67
582.483	45258.4
582.681	45264.55
582.878	44492.46
583.076	44596.91
583.274	44830.38
583.471	44072.63
583.669	44236.47
583.866	44025.53
584.064	44232.37
584.262	43556.54
584.459	44109.49
584.657	43583.16
584.854	43988.66
585.052	43212.48
585.249	43374.27
585.447	43257.54
585.644	42960.58
585.841	43085.51
586.039	43491.01
586.236	42755.78
586.434	42510.03
586.631	42548.94
586.828	42376.91
587.026	42391.25
587.223	42510.03
587.42	41924.31
587.618	42389.2
587.815	41768.66
588.012	41690.84
588.21	41273.06
588.407	41883.35
588.604	41291.49
588.801	40990.44
588.999	40842.98
589.196	40988.39
589.393	41408.22
589.59	40969.96
589.787	40640.23
589.984	40316.65
590.182	40720.1
590.379	40945.38
590.576	40111.86
590.773	40283.89
590.97	40066.8
591.167	40077.04
591.364	39620.34
591.561	40107.76
591.758	39384.83
591.955	39470.84
592.152	39786.23
592.349	39034.63
592.546	39048.96
592.743	39089.92
592.94	38946.56
593.137	38936.32
593.334	38969.09
593.531	37988.11
593.727	38762.25
593.924	38698.76
594.121	38420.24
594.318	38260.49
594.515	37525.27
594.712	38280.97
594.908	38014.74
595.105	37965.59
595.302	37492.51
595.499	37775.12
595.696	37375.77
595.892	37191.45
596.089	37560.09
596.286	37107.49
596.482	36994.85
596.679	36919.07
596.876	37336.86
597.072	36765.48
597.269	36839.2
597.466	36595.49
597.662	36247.34
597.859	36554.54
598.055	36730.66
598.252	36144.94
598.448	36038.45
598.645	35657.53
598.841	35718.96
599.038	35542.84
599.234	35989.3
599.431	35254.08
599.627	35084.09
599.824	35639.09
600.02	35233.6
600.217	34914.11
600.413	34862.91
600.609	34832.19
600.806	34912.06
601.002	34881.35
601.198	34461.51
601.395	34625.35
601.591	34340.68
601.787	34277.19
601.984	34060.11
602.18	34426.7
602.376	33863.5
602.572	34174.8
602.769	33873.74
602.965	33638.23
603.161	33714
603.357	33210.2
603.553	33165.15
603.75	33388.38
603.946	32882.53
604.142	33482.58
604.338	32923.49
604.534	32943.97
604.73	32708.45
604.926	32710.5
605.122	32716.64
605.318	32454.5
605.514	32268.14
605.71	32024.43
605.906	32135.02
606.102	31762.29
606.298	32055.15
606.494	31934.32
606.69	32118.64
606.886	32184.17
607.082	31537.01
607.278	31608.69
607.474	31477.62
607.67	31750
607.866	30906.24
608.062	31354.74
608.257	31321.98
608.453	31072.12
608.649	31192.95
608.845	30758.78
609.041	30758.78
609.236	31285.11
609.432	30738.3
609.628	30656.39
609.824	30791.55
610.019	30488.45
610.215	30660.48
610.411	30543.75
610.606	30504.84
610.802	30420.87
610.998	30492.55
611.193	30388.1
611.389	30078.86
611.584	29894.54
611.78	29812.62
611.976	29970.32
612.171	29939.6
612.367	30232.46
612.562	29771.66
612.758	29378.45
612.953	29497.24
613.149	29935.5
613.344	29419.41
613.539	30117.77
613.735	29534.1
613.93	29427.6
614.126	29394.84
614.321	29527.95
614.517	29032.35
614.712	28952.48
614.907	28837.79
615.103	29128.6
615.298	29198.23
615.493	29063.07
615.688	28585.89
615.884	29009.82
616.079	28624.8
616.274	29030.3
616.47	28884.89
616.665	28467.11
616.86	28211.11
617.055	28235.69
617.25	28237.73
617.445	28270.5
617.641	27877.29
617.836	28108.71
618.031	27985.83
618.226	27910.06
618.421	27783.09
618.616	27860.91
618.811	27594.67
619.006	27709.36
619.201	27236.28
619.396	27334.58
619.591	26941.37
619.786	27568.05
619.981	26748.86
620.176	27174.84
620.371	26544.06
620.566	26666.94
620.761	26451.91
620.956	26869.69
621.151	25976.78
621.346	26316.74
621.541	25751.5
621.735	26070.98
621.93	25483.22
622.125	26099.66
622.32	25098.2
622.515	25577.42
622.709	25556.94
622.904	25335.76
623.099	25042.9
623.294	24872.92
623.488	24866.78
623.683	24629.21
623.878	24469.47
624.072	24657.89
624.267	24391.65
624.462	24467.42
624.656	24119.27
624.851	23914.47
625.046	23805.93
625.24	23613.42
625.435	23633.9
625.629	23484.4
625.824	23076.85
626.018	23478.26
626.213	22783.99
626.407	23287.79
626.602	22540.29
626.796	22636.54
626.991	22814.71
627.185	22824.95
627.38	22540.29
627.574	22212.61
627.768	21862.41
627.963	21958.66
628.157	21706.76
628.352	21946.37
628.546	21178.39
628.74	21747.72
628.935	21178.39
629.129	21436.43
629.323	20992.02
629.517	21008.4
629.712	21024.79
629.906	20916.25
630.1	20480.03
630.294	20643.87
630.489	20621.34
630.683	20738.07
630.877	20385.82
631.071	20133.92
631.265	20066.34
631.459	20135.97
631.653	19845.16
631.848	19822.63
632.042	19748.9
632.236	19560.49
632.43	19218.48
632.624	19652.65
632.818	19226.67
633.012	19167.28
633.206	18825.27
633.4	18886.71
633.594	18255.93
633.788	18802.74
633.982	18903.09
634.176	18661.43
634.369	18602.04
634.563	18532.41
634.757	18214.98
634.951	18229.31
635.145	18178.11
635.339	17977.41
635.533	17940.55
635.726	18122.82
635.92	17547.34
636.114	17662.02
636.308	17461.32
636.501	17455.18
636.695	17446.99
636.889	17076.3
637.083	17358.92
637.276	17123.41
637.47	16842.84
637.664	16990.29
637.857	16928.85
638.051	16722.01
638.244	16668.76
638.438	16470.11
638.632	16445.53
638.825	16439.39
639.019	15951.97
639.212	16126.05
639.406	16359.52
639.599	16109.66
639.793	16048.22
639.986	15851.62
640.18	15886.43
640.373	15896.67
640.567	15491.18
640.76	15800.42
640.954	15497.32
641.147	15298.67
641.34	15214.7
641.534	15145.07
641.727	15167.6
641.92	14835.83
642.114	14909.55
642.307	14784.63
642.5	14678.13
642.694	14542.97
642.887	14434.43
643.08	14540.92
643.273	14487.67
643.467	14377.08
643.66	14198.91
643.853	14215.29
644.046	13801.6
644.239	14000.26
644.432	13938.82
644.626	14057.6
644.819	13873.28
645.012	13709.44
645.205	13518.98
645.398	13674.63
645.591	13244.56
645.784	13715.59
645.977	13392.01
646.17	13011.09
646.363	13271.18
646.556	12943.5
646.749	12984.46
646.942	13125.77
647.135	12775.57
647.328	12810.39
647.521	12673.17
647.714	12585.11
647.907	12677.27
648.099	12480.66
648.292	12693.65
648.485	12597.4
648.678	12421.27
648.871	12208.28
649.064	12208.28
649.256	12302.49
649.449	12105.88
649.642	12150.94
649.835	12046.49
650.027	11886.75
650.22	11819.17
650.413	11526.31
650.605	11962.53
650.798	11724.96
650.991	11593.89
651.183	11610.28
651.376	11417.77
651.568	11581.6
651.761	11434.15
651.954	11364.52
652.146	11278.51
652.339	11174.06
652.531	10918.06
652.724	10924.21
652.916	10877.1
653.109	10905.77
653.301	11014.32
653.494	10909.87
653.686	10553.52
653.879	10815.66
654.071	10795.18
654.263	10559.67
654.456	10875.06
654.648	10494.13
654.84	10346.68
655.033	10385.59
655.225	10303.67
655.417	10404.02
655.61	10043.58
655.802	10287.29
655.994	10143.93
656.186	10127.55
656.379	10027.2
656.571	10068.16
656.763	9832.64
656.955	9961.66
657.148	9814.21
657.34	9865.41
657.532	9787.58
657.724	9525.44
657.916	9812.16
658.108	9550.02
658.3	9652.42
658.492	9427.14
658.684	9486.53
658.876	9314.5
659.068	9142.47
659.26	9281.74
659.452	9324.74
659.644	9339.08
659.836	8941.77
660.028	8999.12
660.22	8990.92
660.412	9195.72
660.604	8904.91
660.796	8888.53
660.988	8749.26
661.18	8757.46
661.372	8603.86
661.563	8921.29
661.755	8632.53
661.947	8669.39
662.139	8405.21
662.331	8556.75
662.522	8470.74
662.714	8401.11
662.906	8333.53
663.097	8501.46
663.289	8159.45
663.481	8241.37
663.673	8280.28
663.864	8186.07
664.056	8179.93
664.247	8138.97
664.439	7999.71
664.631	8016.09
664.822	8120.54
665.014	8087.77
665.205	7741.66
665.397	7921.88
665.588	7944.41
665.78	7854.3
665.971	7700.7
666.163	7893.21
666.354	7702.75
666.546	7616.74
666.737	7637.22
666.929	7483.62
667.12	7686.37
667.311	7362.79
667.503	7452.9
667.694	7631.07
667.885	7313.64
668.077	7170.28
668.268	7256.29
668.459	7250.15
668.651	7282.92
668.842	7231.72
669.033	7031.02
669.224	7026.92
669.416	6985.96
669.607	6977.77
669.798	6998.25
669.989	6932.72
670.18	6969.58
670.371	6916.33
670.563	6777.07
670.754	6873.32
670.945	6775.02
671.136	7037.16
671.327	6752.49
671.518	6867.18
671.709	6844.65
671.9	6746.35
672.091	6750.45
672.282	6600.94
672.473	6484.21
672.664	6568.18
672.855	6592.75
673.046	6510.83
673.237	6506.74
673.428	6598.9
673.619	6549.75
673.809	6508.79
674	6396.15
674.191	6555.89
674.382	6306.04
674.573	6263.03
674.764	6379.76
674.954	6357.24
675.145	6285.56
675.336	6385.91
675.527	6355.19
675.717	6283.51
675.908	6113.53
676.099	6168.82
676.289	6021.37
676.48	6242.55
676.671	6084.86
676.861	6056.18
677.052	5966.07
677.243	5990.65
677.433	6043.9
677.624	6013.18
677.814	6037.75
678.005	5976.31
678.195	5861.63
678.386	5773.57
678.576	5855.48
678.767	5974.27
678.957	5826.81
679.148	5918.97
679.338	5779.71
679.529	5773.57
679.719	5804.28
679.909	5904.64
680.1	5832.96
680.29	5654.78
680.481	5765.37
680.671	5671.17
680.861	5630.21
681.052	5685.5
681.242	5568.77
681.432	5667.07
681.622	5671.17
681.813	5585.15
682.003	5546.24
682.193	5550.34
682.383	5615.87
682.573	5470.47
682.764	5382.4
682.954	5404.93
683.144	5607.68
683.334	5441.79
683.524	5574.91
683.714	5482.75
683.904	5351.68
684.094	5368.07
684.284	5458.18
684.474	5402.88
684.664	5392.64
684.854	5359.88
685.044	5419.27
685.234	5265.67
685.424	5292.29
685.614	5165.32
685.804	5185.8
685.994	5107.98
686.184	5273.86
686.374	5202.18
686.564	5144.84
686.753	5243.14
686.943	5140.74
687.133	5222.66
687.323	5114.12
687.513	5036.3
687.702	5079.3
687.892	4983.05
688.082	4897.03
688.272	5017.86
688.461	4921.61
688.651	4905.23
688.841	4792.59
689.03	4833.55
689.22	4792.59
689.41	4778.25
689.599	4841.74
689.789	4798.73
689.979	4870.41
690.168	4825.36
690.358	4686.09
690.547	4679.95
690.737	4618.51
690.926	4718.86
691.116	4743.44
691.305	4600.08
691.495	4538.64
691.684	4546.83
691.874	4589.84
692.063	4530.45
692.252	4550.93
692.442	4518.16
692.631	4497.68
692.82	4421.91
693.01	4471.06
693.199	4395.28
693.388	4389.14
693.578	4538.64
693.767	4364.56
693.956	4411.67
694.146	4346.13
694.335	4301.08
694.524	4335.89
694.713	4280.6
694.902	4239.64
695.092	4419.86
695.281	4190.49
695.47	4172.05
695.659	4210.97
695.848	4202.77
696.037	4083.99
696.226	4120.85
696.415	4114.71
696.604	4264.21
696.793	4196.63
696.982	4288.79
697.171	4157.72
697.36	4188.44
697.549	4016.41
697.738	4108.57
697.927	3995.93
698.116	4073.75
698.305	3926.3
698.494	4045.08
698.683	4135.19
698.872	4043.03
699.061	4028.7
699.25	3950.87
699.438	3881.24
699.627	3985.69
699.816	3852.57
700.005	4032.79
700.193	4004.12
700.382	3897.63
700.571	3895.58
700.76	3924.25
700.948	3909.91
701.137	4057.37
701.326	3811.61
701.514	3914.01
701.703	3875.1
701.892	3797.28
702.08	3807.52
702.269	3934.49
702.457	3741.98
702.646	3799.32
702.834	3770.65
703.023	3711.26
703.212	3809.56
703.4	3768.6
703.589	3551.52
703.777	3803.42
703.965	3762.46
704.154	3705.12
704.342	3744.03
704.531	3563.81
704.719	3694.88
704.907	3744.03
705.096	3651.87
705.284	3612.96
705.472	3658.01
705.661	3510.56
705.849	3682.59
706.037	3604.77
706.226	3668.25
706.414	3598.62
706.602	3580.19
706.79	3660.06
706.979	3430.69
707.167	3563.81
707.355	3492.13
707.543	3424.55
707.731	3451.17
707.919	3639.58
708.107	3500.32
708.296	3473.7
708.484	3459.36
708.672	3537.18
708.86	3506.46
709.048	3598.62
709.236	3549.47
709.424	3428.64
709.612	3389.73
709.8	3473.7
709.988	3473.7
710.176	3301.67
710.364	3492.13
710.551	3418.4
710.739	3455.26
710.927	3359.01
711.115	3338.53
711.303	3492.13
711.491	3330.34
711.679	3324.19
711.866	3322.15
712.054	3410.21
712.242	3197.22
712.43	3516.7
712.617	3244.32
712.805	3311.91
712.993	3246.37
713.181	3219.75
713.368	3311.91
713.556	3324.19
713.744	3219.75
713.931	3264.8
714.119	3221.8
714.306	3215.65
714.494	3182.88
714.682	3125.54
714.869	3324.19
715.057	3254.56
715.244	3172.64
715.432	3229.99
715.619	3072.29
715.807	3252.52
715.994	3103.01
716.182	3197.22
716.369	3193.12
716.556	3186.98
716.744	3039.53
716.931	3141.93
717.119	3051.81
717.306	2990.38
717.493	3113.25
717.681	3055.91
717.868	3053.86
718.055	2988.33
718.242	3062.05
718.43	3047.72
718.617	3123.49
718.804	2980.14
718.991	2963.75
719.179	2945.32
719.366	3057.96
719.553	2937.13
719.74	3023.14
719.927	3062.05
720.114	2937.13
720.301	2965.8
720.488	2959.66
720.676	2988.33
720.863	3051.81
721.05	2879.79
721.237	2935.08
721.424	2896.17
721.611	2916.65
721.798	2971.94
721.985	2881.83
722.172	2787.63
722.358	2820.39
722.545	2863.4
722.732	2896.17
722.919	2879.79
723.106	2789.67
723.293	2885.93
723.48	2892.07
723.667	2883.88
723.853	2908.46
724.04	2842.92
724.227	2722.09
724.414	2720.04
724.6	2804.01
724.787	2687.28
724.974	2808.11
725.161	2707.76
725.347	2689.32
725.534	2681.13
725.72	2746.67
725.907	2730.28
726.094	2744.62
726.28	2736.43
726.467	2619.69
726.653	2761
726.84	2683.18
727.027	2758.96
727.213	2685.23
727.4	2558.25
727.586	2711.85
727.773	2613.55
727.959	2707.76
728.145	2650.41
728.332	2615.6
728.518	2652.46
728.705	2601.26
728.891	2591.02
729.077	2679.08
729.264	2578.73
729.45	2490.67
729.636	2699.56
729.823	2611.5
730.009	2683.18
730.195	2556.21
730.382	2642.22
730.568	2482.48
730.754	2474.29
730.94	2629.93
731.126	2603.31
731.313	2703.66
731.499	2531.63
731.685	2627.89
731.871	2498.86
732.057	2621.74
732.243	2552.11
732.429	2365.75
732.615	2484.53
732.801	2611.5
732.987	2472.24
733.173	2545.97
733.359	2451.76
733.545	2521.39
733.731	2505.01
733.917	2468.14
734.103	2437.42
734.289	2406.7
734.475	2392.37
734.661	2486.58
734.847	2380.08
735.033	2423.09
735.219	2435.38
735.404	2378.03
735.59	2470.19
735.776	2367.79
735.962	2466.1
736.148	2414.9
736.333	2337.07
736.519	2410.8
736.705	2332.98
736.89	2361.65
737.076	2332.98
737.262	2345.27
737.447	2326.83
737.633	2255.15
737.819	2398.51
738.004	2425.14
738.19	2234.68
738.375	2314.55
738.561	2369.84
738.747	2369.84
738.932	2234.68
739.118	2328.88
739.303	2150.71
739.489	2257.2
739.674	2246.96
739.859	2179.38
740.045	2281.78
740.23	2171.19
740.416	2136.37
740.601	2173.24
740.786	2130.23
740.972	2107.7
741.157	2142.52
741.342	2171.19
741.528	2224.44
741.713	2122.04
741.898	2128.18
742.084	2087.22
742.269	2105.65
742.454	2154.8
742.639	2079.03
742.824	2124.08
743.01	2119.99
743.195	2179.38
743.38	1982.78
743.565	2046.26
743.75	2087.22
743.935	1980.73
744.12	2029.88
744.305	1939.77
744.49	1892.66
744.675	2068.79
744.86	2027.83
745.045	1993.01
745.23	1954.1
745.415	1907
745.6	1997.11
745.785	1995.06
745.97	1978.68
746.155	1915.19
746.34	1958.2
746.525	1845.56
746.71	1929.53
746.895	1771.83
747.079	1927.48
747.264	1974.58
747.449	1765.69
747.634	1974.58
747.819	1759.55
748.003	1849.66
748.188	1757.5
748.373	1759.55
748.557	1753.4
748.742	1841.47
748.927	1679.68
749.111	1753.4
749.296	1669.44
749.481	1775.93
749.665	1583.42
749.85	1777.98
750.034	1673.53
750.219	1720.64
750.404	1747.26
750.588	1677.63
750.773	1593.66
750.957	1655.1
751.141	1716.54
751.326	1608
751.51	1499.45
751.695	1595.71
751.879	1577.28
752.064	1702.2
752.248	1618.24
752.432	1507.65
752.617	1564.99
752.801	1501.5
752.985	1526.08
753.17	1491.26
753.354	1509.69
753.538	1562.94
753.722	1425.73
753.907	1497.41
754.091	1421.63
754.275	1452.35
754.459	1444.16
754.643	1446.21
754.828	1388.86
755.012	1415.49
755.196	1302.85
755.38	1323.33
755.564	1306.95
755.748	1321.28
755.932	1337.66
756.116	1302.85
756.3	1241.41
756.484	1286.47
756.668	1278.27
756.852	1268.03
757.036	1270.08
757.22	1313.09
757.404	1306.95
757.588	1278.27
757.772	1352
757.956	1288.51
758.14	1206.59
758.323	1128.77
758.507	1311.04
758.691	1165.64
758.875	1257.79
759.059	1261.89
759.242	1177.92
759.426	1102.15
759.61	1132.87
759.794	1206.59
759.977	1114.44
760.161	1233.22
760.345	1120.58
760.528	1130.82
760.712	1087.81
760.895	1161.54
761.079	1110.34
761.263	1087.81
761.446	1093.96
761.63	1046.85
761.813	1147.2
761.997	1147.2
762.18	1079.62
762.364	1157.44
762.547	1020.23
762.731	1124.68
762.914	1106.24
763.098	1106.24
763.281	979.27
763.464	1091.91
763.648	1079.62
763.831	1100.1
764.015	1089.86
764.198	1032.52
764.381	1026.37
764.564	1114.44
764.748	1036.61
764.931	1001.8
765.114	1016.13
765.297	923.98
765.481	1034.57
765.664	1001.8
765.847	948.55
766.03	1067.33
766.213	985.41
766.397	977.22
766.58	893.26
766.763	983.37
766.946	1001.8
767.129	921.93
767.312	909.64
767.495	903.5
767.678	938.31
767.861	981.32
768.044	1042.76
768.227	969.03
768.41	997.7
768.593	856.39
768.776	948.55
768.959	934.22
769.142	923.98
769.324	835.91
769.507	862.54
769.69	866.63
769.873	854.34
770.056	928.07
770.239	897.35
770.421	880.97
770.604	854.34
770.787	852.3
770.97	938.31
771.152	842.06
771.335	897.35
771.518	950.6
771.7	901.45
771.883	850.25
772.066	821.58
772.248	885.06
772.431	848.2
772.613	817.48
772.796	794.95
772.978	858.44
773.161	844.1
773.343	768.33
773.526	799.05
773.708	766.28
773.891	792.91
774.073	807.24
774.256	797
774.438	827.72
774.621	747.85
774.803	749.9
774.985	745.8
775.168	772.43
775.35	721.23
775.532	713.03
775.715	729.42
775.897	756.04
776.079	708.94
776.261	753.99
776.444	745.8
776.626	686.41
776.808	674.12
776.99	655.69
777.173	715.08
777.355	741.71
777.537	641.36
777.719	725.32
777.901	637.26
778.083	624.97
778.265	594.25
778.447	678.22
778.629	680.27
778.811	670.03
778.993	629.07
779.175	606.54
779.357	649.55
779.539	704.84
779.721	577.87
779.903	596.3
780.085	655.69
780.267	547.15
780.449	592.2
780.631	647.5
780.812	557.39
780.994	604.49
781.176	555.34
781.358	602.44
781.54	518.48
781.721	616.78
781.903	588.11
782.085	571.72
782.267	551.24
782.448	498
782.63	543.05
782.812	489.81
782.993	563.53
783.175	547.15
783.357	592.2
783.538	526.67
783.72	500.05
783.901	463.18
784.083	545.1
784.264	534.86
784.446	444.75
784.627	450.89
784.809	489.81
784.99	467.28
785.172	522.57
785.353	493.9
785.535	471.37
785.716	411.98
785.897	510.29
786.079	493.9
786.26	498
786.441	506.19
786.623	360.78
786.804	479.57
786.985	481.61
787.167	428.37
787.348	387.41
787.529	409.94
787.71	454.99
787.891	483.66
788.073	389.46
788.254	401.74
788.435	418.13
788.616	416.08
788.797	420.17
788.978	414.03
789.159	371.02
789.34	383.31
789.522	375.12
789.703	414.03
789.884	379.22
790.065	432.46
790.246	379.22
790.427	409.94
790.607	387.41
790.788	305.49
790.969	323.92
791.15	375.12
791.331	368.98
791.512	282.96
791.693	313.68
791.874	336.21
792.054	411.98
792.235	381.26
792.416	379.22
792.597	295.25
792.778	354.64
792.958	366.93
793.139	323.92
793.32	381.26
793.5	254.29
793.681	432.46
793.862	330.06
794.042	313.68
794.223	299.34
794.404	368.98
794.584	301.39
794.765	346.45
794.945	332.11
795.126	395.6
795.306	307.54
795.487	270.67
795.667	391.5
795.848	336.21
796.028	299.34
796.209	285.01
796.389	291.15
796.57	342.35
796.75	223.57
796.93	254.29
797.111	348.5
797.291	342.35
797.471	311.63
797.652	332.11
797.832	282.96
798.012	393.55
798.192	311.63
798.373	379.22
798.553	334.16
798.733	227.67
798.913	194.9
799.093	229.71
799.274	307.54
799.454	246.1
799.634	278.87
799.814	244.05
799.994	328.02
800.174	260.43
800.354	264.53
800.534	254.29
800.714	237.91
800.894	244.05
801.074	270.67
801.254	219.47
801.434	309.58
801.614	248.15
801.794	256.34
801.974	561.48
802.154	246.1
802.334	196.95
802.514	225.62
802.693	231.76
802.873	219.47
803.053	301.39
803.233	233.81
803.413	223.57
803.592	256.34
803.772	166.23
803.952	229.71
804.131	203.09
804.311	246.1
804.491	256.34
804.67	137.56
804.85	252.24
805.03	266.58
805.209	155.99
805.389	170.32
805.568	172.37
805.748	192.85
805.928	229.71
806.107	225.62
806.287	215.38
806.466	172.37
806.646	223.57
806.825	209.23
807.004	242
807.184	176.47
807.363	254.29
807.543	246.1
807.722	319.82
807.901	229.71
808.081	188.75
808.26	209.23
808.439	172.37
808.619	203.09
808.798	215.38
808.977	215.38
809.156	252.24
809.336	137.56
809.515	223.57
809.694	184.66
809.873	194.9
810.052	225.62
810.231	250.19
810.411	119.12
810.59	209.23
810.769	121.17
810.948	143.7
811.127	170.32
811.306	153.94
811.485	211.28
811.664	250.19
811.843	225.62
812.022	221.52
812.201	182.61
812.38	198.99
812.559	215.38
812.737	203.09
812.916	141.65
813.095	182.61
813.274	158.03
813.453	215.38
813.632	262.48
813.811	147.8
813.989	160.08
814.168	168.27
814.347	65.88
814.526	174.42
814.704	137.56
814.883	231.76
815.062	125.27
815.24	180.56
815.419	147.8
815.598	188.75
815.776	166.23
815.955	239.95
816.133	139.6
816.312	198.99
816.49	117.08
816.669	172.37
816.847	205.14
817.026	115.03
817.204	141.65
817.383	172.37
817.561	108.88
817.74	110.93
817.918	149.84
818.097	151.89
818.275	141.65
818.453	158.03
818.632	166.23
818.81	123.22
818.988	172.37
819.167	110.93
819.345	135.51
819.523	160.08
819.701	168.27
819.879	121.17
820.058	106.84
820.236	160.08
820.414	145.75
820.592	135.51
820.77	94.55
820.948	192.85
821.127	110.93
821.305	158.03
821.483	108.88
821.661	166.23
821.839	133.46
822.017	180.56
822.195	55.64
822.373	176.47
822.551	178.51
822.729	92.5
822.907	72.02
823.085	158.03
823.262	135.51
823.44	108.88
823.618	145.75
823.796	166.23
823.974	121.17
824.152	88.4
824.329	90.45
824.507	180.56
824.685	45.4
824.863	117.08
825.04	155.99
825.218	139.6
825.396	137.56
825.574	141.65
825.751	86.36
825.929	137.56
826.107	106.84
826.284	86.36
826.462	123.22
826.639	141.65
826.817	106.84
826.994	96.6
827.172	94.55
827.349	90.45
827.527	82.26
827.704	180.56
827.882	151.89
828.059	88.4
828.237	47.44
828.414	198.99
828.591	80.21
828.769	112.98
828.946	155.99
829.124	147.8
829.301	112.98
829.478	106.84
829.655	117.08
829.833	18.77
830.01	76.12
830.187	127.32
830.364	78.16
830.542	158.03
830.719	162.13
830.896	61.78
831.073	61.78
831.25	80.21
831.427	129.36
831.604	110.93
831.782	61.78
831.959	47.44
832.136	115.03
832.313	125.27
832.49	74.07
832.667	121.17
832.844	57.68
833.021	33.11
833.198	119.12
833.374	119.12
833.551	94.55
833.728	65.88
833.905	102.74
834.082	96.6
834.259	133.46
834.436	92.5
834.612	55.64
834.789	104.79
834.966	86.36
835.143	98.64
835.319	100.69
835.496	106.84
835.673	51.54
835.85	51.54
836.026	168.27
836.203	106.84
836.38	88.4
836.556	59.73
836.733	100.69
836.909	147.8
837.086	57.68
837.262	127.32
837.439	61.78
837.616	35.16
837.792	86.36
837.968	96.6
838.145	10.58
838.321	108.88
838.498	59.73
838.674	76.12
838.851	55.64
839.027	51.54
839.203	131.41
839.38	100.69
839.556	84.31
839.732	110.93
839.909	41.3
840.085	115.03
840.261	92.5
840.437	82.26
840.614	41.3
840.79	29.01
840.966	55.64
841.142	78.16
841.318	88.4
841.494	-7.85
841.671	94.55
841.847	33.11
842.023	78.16
842.199	112.98
842.375	123.22
842.551	86.36
842.727	35.16
842.903	2.39
843.079	18.77
843.255	72.02
843.431	76.12
843.607	88.4
843.783	20.82
843.959	63.83
844.134	104.79
844.31	151.89
844.486	84.31
844.662	69.97
844.838	43.35
845.013	18.77
845.189	96.6
845.365	82.26
845.541	53.59
845.716	31.06
845.892	20.82
846.068	35.16
846.244	-28.33
846.419	76.12
846.595	115.03
846.77	-3.75
846.946	65.88
847.122	88.4
847.297	16.73
847.473	65.88
847.648	74.07
847.824	22.87
847.999	37.2
848.175	123.22
848.35	-18.09
848.526	102.74
848.701	90.45
848.876	121.17
849.052	57.68
849.227	-52.91
849.403	80.21
849.578	31.06
849.753	74.07
849.929	78.16
850.104	78.16
850.279	31.06
850.454	110.93
850.63	55.64
850.805	53.59
850.98	76.12
851.155	-5.8
851.33	78.16
851.505	55.64
851.681	37.2
851.856	94.55
852.031	82.26
852.206	47.44
852.381	53.59
852.556	61.78
852.731	74.07
852.906	26.96
853.081	29.01
853.256	74.07
853.431	98.64
853.606	14.68
853.781	41.3
853.956	18.77
854.131	76.12
854.305	-22.19
854.48	90.45
854.655	61.78
854.83	69.97
855.005	22.87
855.18	104.79
855.354	51.54
855.529	112.98
855.704	12.63
855.879	67.92
856.053	37.2
856.228	69.97
856.403	86.36
856.577	96.6
856.752	39.25
856.926	12.63
857.101	22.87
857.276	96.6
857.45	63.83
857.625	63.83
857.799	49.49
857.974	45.4
858.148	45.4
858.323	82.26
858.497	65.88
858.672	53.59
858.846	80.21
859.02	98.64
859.195	33.11
859.369	63.83
859.543	61.78
859.718	31.06
859.892	80.21
860.066	47.44
860.241	53.59
860.415	72.02
860.589	24.92
860.763	37.2
860.938	33.11
861.112	4.44
861.286	55.64
861.46	12.63
861.634	-40.62
861.808	47.44
861.982	-24.23
862.157	-30.38
862.331	84.31
862.505	37.2
862.679	100.69
862.853	47.44
863.027	39.25
863.201	26.96
863.375	31.06
863.549	39.25
863.722	55.64
863.896	80.21
864.07	12.63
864.244	-7.85
864.418	0.34
864.592	12.63
864.766	31.06
864.939	72.02
865.113	24.92
865.287	43.35
865.461	61.78
865.634	57.68
865.808	-52.91
865.982	45.4
866.156	-20.14
866.329	-26.28
866.503	12.63
866.676	12.63
866.85	45.4
867.024	100.69
867.197	2.39
867.371	102.74
867.544	22.87
867.718	16.73
867.891	31.06
868.065	24.92
868.238	90.45
868.412	123.22
868.585	-16.04
868.759	10.58
868.932	63.83
869.105	6.49
869.279	43.35
869.452	67.92
869.625	41.3
869.799	59.73
869.972	12.63
870.145	-7.85
870.319	6.49
870.492	22.87
870.665	53.59
870.838	-24.23
871.011	43.35
871.185	108.88
871.358	-9.9
871.531	145.75
871.704	-9.9
871.877	22.87
872.05	-54.95
872.223	86.36
872.396	26.96
872.569	59.73
872.742	18.77
872.915	22.87
873.088	67.92
873.261	49.49
873.434	31.06
873.607	14.68
873.78	47.44
873.953	39.25
874.126	-13.99
874.299	-7.85
874.471	-34.47
874.644	51.54
874.817	123.22
874.99	2.39
875.163	-28.33
875.335	31.06
875.508	-16.04
875.681	57.68
875.853	-22.19
876.026	16.73
876.199	-79.53
876.371	26.96
876.544	129.36
876.717	14.68
876.889	-13.99
877.062	59.73
877.234	-7.85
877.407	0.34
877.579	-20.14
877.752	-1.71
877.924	59.73
878.097	84.31
878.269	-9.9
878.442	33.11
878.614	45.4
878.786	8.53
878.959	-65.19
879.131	24.92
879.303	72.02
879.476	63.83
879.648	-3.75
879.82	-22.19
879.993	86.36
880.165	92.5
880.337	-30.38
880.509	65.88
880.681	-46.76
880.854	74.07
881.026	2.39
881.198	29.01
881.37	67.92
881.542	-1.71
881.714	-28.33
881.886	22.87
882.058	-50.86
882.23	84.31
882.402	16.73
882.574	14.68
882.746	29.01
882.918	16.73
883.09	90.45
883.262	-11.95
883.434	61.78
883.606	-16.04
883.778	41.3
883.95	29.01
884.122	18.77
884.293	82.26
884.465	65.88
884.637	49.49
884.809	6.49
884.98	43.35
885.152	2.39
885.324	69.97
885.496	61.78
885.667	-32.43
885.839	-67.24
886.011	135.51
886.182	16.73
886.354	63.83
886.525	-34.47
886.697	22.87
886.869	-5.8
887.04	92.5
887.212	22.87
887.383	18.77
887.555	69.97
887.726	29.01
887.897	-26.28
888.069	31.06
888.24	18.77
888.412	45.4
888.583	35.16
888.754	41.3
888.926	-26.28
889.097	-34.47
889.268	-46.76
889.44	49.49
889.611	94.55
889.782	12.63
889.953	-13.99
890.125	96.6
890.296	-46.76
890.467	37.2
890.638	-16.04
890.809	-36.52
890.98	-77.48
891.151	67.92
891.323	92.5
891.494	-30.38
891.665	55.64
891.836	51.54
892.007	-3.75
892.178	6.49
892.349	74.07
892.52	0.34
892.691	-16.04
892.862	35.16
893.032	65.88
893.203	-13.99
893.374	8.53
893.545	74.07
893.716	0.34
893.887	123.22
894.057	-30.38
894.228	26.96
894.399	-7.85
894.57	39.25
894.74	22.87
894.911	47.44
895.082	-22.19
895.253	33.11
895.423	45.4
895.594	59.73
895.764	20.82
895.935	78.16
896.106	0.34
896.276	24.92
896.447	8.53
896.617	96.6
896.788	-46.76
896.958	22.87
897.129	-38.57
897.299	39.25
897.47	88.4
897.64	-44.71
897.81	-9.9
897.981	86.36
898.151	-1.71
898.322	-22.19
898.492	2.39
898.662	-54.95
898.832	-34.47
899.003	16.73
899.173	-16.04
899.343	-26.28
899.513	35.16
