Data from USB4F104151__35__12-35-37-041.txt Node

Date: Fri Mar 14 12:35:37 EDT 2025
User: louis
Spectrometer: USB4F10415
Trigger mode: 4
Integration Time (sec): 2.000000E-2
Scans to average: 1
Electric dark correction enabled: true
Nonlinearity correction enabled: false
Boxcar width: 0
XAxis mode: Wavelengths
Number of Pixels in Spectrum: 3648
>>>>>Begin Spectral Data<<<<<
178.204	-76.63
178.424	-76.63
178.644	-76.63
178.864	-133.97
179.084	-99.16
179.304	7.34
179.524	11.43
179.744	54.44
179.964	-31.57
180.184	17.58
180.404	54.44
180.624	-11.09
180.844	50.35
181.064	-82.77
181.283	-33.62
181.503	-9.05
181.723	-27.48
181.943	-25.43
182.163	74.92
182.383	17.58
182.602	87.21
182.822	48.3
183.042	85.16
183.262	-37.72
183.482	11.43
183.701	-50
183.921	25.77
184.141	29.87
184.361	19.63
184.58	21.67
184.8	-52.05
185.02	5.29
185.239	44.2
185.459	-33.62
185.679	9.39
185.898	-54.1
186.118	-4.95
186.338	-31.57
186.557	48.3
186.777	-39.76
186.997	5.29
187.216	23.72
187.436	46.25
187.655	17.58
187.875	23.72
188.095	-41.81
188.314	44.2
188.534	95.4
188.753	33.96
188.973	29.87
189.192	23.72
189.412	17.58
189.631	19.63
189.851	13.48
190.07	72.87
190.29	-4.95
190.509	138.41
190.729	-25.43
190.948	52.39
191.168	142.5
191.387	66.73
191.607	-4.95
191.826	-0.85
192.045	48.3
192.265	-11.09
192.484	-31.57
192.704	56.49
192.923	15.53
193.142	33.96
193.362	-27.48
193.581	-31.57
193.8	-21.33
194.02	54.44
194.239	81.07
194.458	46.25
194.678	-21.33
194.897	44.2
195.116	81.07
195.335	3.24
195.555	46.25
195.774	-9.05
195.993	31.91
196.212	40.11
196.432	52.39
196.651	-19.29
196.87	25.77
197.089	72.87
197.308	21.67
197.528	62.63
197.747	17.58
197.966	15.53
198.185	44.2
198.404	-45.91
198.623	56.49
198.842	40.11
199.062	23.72
199.281	44.2
199.5	-17.24
199.719	19.63
199.938	-47.96
200.157	-4.95
200.376	99.5
200.595	54.44
200.814	-0.85
201.033	23.72
201.252	40.11
201.471	23.72
201.69	58.54
201.909	7.34
202.128	33.96
202.347	50.35
202.566	46.25
202.785	52.39
203.004	13.48
203.223	109.74
203.442	-4.95
203.661	3.24
203.879	-4.95
204.098	48.3
204.317	-45.91
204.536	40.11
204.755	44.2
204.974	-0.85
205.193	-58.2
205.411	-13.14
205.63	54.44
205.849	46.25
206.068	42.15
206.287	17.58
206.505	52.39
206.724	76.97
206.943	31.91
207.162	40.11
207.381	27.82
207.599	9.39
207.818	54.44
208.037	31.91
208.255	15.53
208.474	-25.43
208.693	21.67
208.911	42.15
209.13	48.3
209.349	-11.09
209.567	29.87
209.786	23.72
210.005	-19.29
210.223	70.83
210.442	-35.67
210.661	-4.95
210.879	44.2
211.098	17.58
211.316	87.21
211.535	97.45
211.753	-35.67
211.972	44.2
212.191	56.49
212.409	38.06
212.628	31.91
212.846	-13.14
213.065	31.91
213.283	38.06
213.502	-19.29
213.72	17.58
213.938	-17.24
214.157	-13.14
214.375	11.43
214.594	29.87
214.812	13.48
215.031	19.63
215.249	-43.86
215.467	29.87
215.686	23.72
215.904	29.87
216.122	33.96
216.341	27.82
216.559	62.63
216.778	66.73
216.996	5.29
217.214	-7
217.432	-29.52
217.651	-29.52
217.869	-62.29
218.087	21.67
218.306	33.96
218.524	-4.95
218.742	38.06
218.96	38.06
219.179	44.2
219.397	23.72
219.615	60.59
219.833	72.87
220.051	15.53
220.27	70.83
220.488	83.11
220.706	27.82
220.924	19.63
221.142	27.82
221.36	13.48
221.578	-25.43
221.796	79.02
222.015	7.34
222.233	-7
222.451	25.77
222.669	-50
222.887	58.54
223.105	1.19
223.323	-0.85
223.541	62.63
223.759	19.63
223.977	25.77
224.195	81.07
224.413	97.45
224.631	15.53
224.849	13.48
225.067	60.59
225.285	13.48
225.503	31.91
225.721	-27.48
225.939	5.29
226.157	50.35
226.375	81.07
226.592	29.87
226.81	-43.86
227.028	48.3
227.246	81.07
227.464	-7
227.682	40.11
227.9	50.35
228.117	13.48
228.335	36.01
228.553	5.29
228.771	3.24
228.989	38.06
229.206	130.22
229.424	-19.29
229.642	13.48
229.86	-35.67
230.077	33.96
230.295	1.19
230.513	40.11
230.731	107.69
230.948	-29.52
231.166	54.44
231.384	58.54
231.601	68.78
231.819	29.87
232.037	81.07
232.254	46.25
232.472	21.67
232.689	7.34
232.907	74.92
233.125	15.53
233.342	52.39
233.56	52.39
233.777	21.67
233.995	-27.48
234.213	95.4
234.43	15.53
234.648	-4.95
234.865	15.53
235.083	48.3
235.3	25.77
235.518	19.63
235.735	44.2
235.953	81.07
236.17	25.77
236.388	9.39
236.605	13.48
236.822	19.63
237.04	-0.85
237.257	70.83
237.475	54.44
237.692	72.87
237.909	-4.95
238.127	29.87
238.344	-15.19
238.562	56.49
238.779	-2.9
238.996	-47.96
239.214	15.53
239.431	54.44
239.648	-11.09
239.865	62.63
240.083	-4.95
240.3	33.96
240.517	-76.63
240.735	-9.05
240.952	99.5
241.169	97.45
241.386	87.21
241.603	21.67
241.821	36.01
242.038	-2.9
242.255	87.21
242.472	-0.85
242.689	27.82
242.907	70.83
243.124	33.96
243.341	27.82
243.558	60.59
243.775	19.63
243.992	-0.85
244.209	25.77
244.426	15.53
244.643	9.39
244.86	7.34
245.078	36.01
245.295	-37.72
245.512	27.82
245.729	48.3
245.946	62.63
246.163	101.55
246.38	-13.14
246.597	99.5
246.814	23.72
247.031	42.15
247.248	-15.19
247.464	21.67
247.681	27.82
247.898	25.77
248.115	33.96
248.332	46.25
248.549	-2.9
248.766	7.34
248.983	5.29
249.2	-23.38
249.417	-0.85
249.633	25.77
249.85	3.24
250.067	17.58
250.284	44.2
250.501	44.2
250.717	81.07
250.934	19.63
251.151	13.48
251.368	11.43
251.585	42.15
251.801	48.3
252.018	-11.09
252.235	27.82
252.451	-19.29
252.668	-47.96
252.885	50.35
253.102	11.43
253.318	25.77
253.535	-4.95
253.752	29.87
253.968	23.72
254.185	9.39
254.401	-27.48
254.618	21.67
254.835	70.83
255.051	36.01
255.268	64.68
255.484	85.16
255.701	23.72
255.917	89.26
256.134	-29.52
256.351	52.39
256.567	1.19
256.784	44.2
257	-50
257.217	48.3
257.433	81.07
257.65	7.34
257.866	50.35
258.082	52.39
258.299	5.29
258.515	70.83
258.732	44.2
258.948	-17.24
259.165	50.35
259.381	66.73
259.597	1.19
259.814	-11.09
260.03	15.53
260.246	72.87
260.463	-15.19
260.679	36.01
260.895	3.24
261.112	3.24
261.328	21.67
261.544	36.01
261.761	15.53
261.977	44.2
262.193	7.34
262.409	5.29
262.626	46.25
262.842	58.54
263.058	46.25
263.274	81.07
263.49	11.43
263.707	21.67
263.923	40.11
264.139	58.54
264.355	50.35
264.571	27.82
264.787	25.77
265.004	33.96
265.22	115.88
265.436	5.29
265.652	9.39
265.868	29.87
266.084	33.96
266.3	79.02
266.516	-2.9
266.732	33.96
266.948	-13.14
267.164	103.59
267.38	40.11
267.596	3.24
267.812	42.15
268.028	29.87
268.244	-19.29
268.46	33.96
268.676	7.34
268.892	60.59
269.108	33.96
269.324	11.43
269.54	19.63
269.756	48.3
269.972	-35.67
270.188	113.83
270.403	-74.58
270.619	-11.09
270.835	3.24
271.051	38.06
271.267	46.25
271.483	60.59
271.698	44.2
271.914	-19.29
272.13	-27.48
272.346	19.63
272.562	7.34
272.777	17.58
272.993	46.25
273.209	25.77
273.425	38.06
273.64	38.06
273.856	50.35
274.072	-13.14
274.287	5.29
274.503	-21.33
274.719	72.87
274.934	3.24
275.15	-35.67
275.366	68.78
275.581	-7
275.797	31.91
276.012	15.53
276.228	-25.43
276.444	7.34
276.659	-11.09
276.875	31.91
277.09	54.44
277.306	46.25
277.521	40.11
277.737	46.25
277.952	23.72
278.168	33.96
278.383	7.34
278.599	-21.33
278.814	19.63
279.03	-33.62
279.245	-2.9
279.461	-50
279.676	-15.19
279.892	-7
280.107	3.24
280.322	-15.19
280.538	19.63
280.753	-72.53
280.969	15.53
281.184	3.24
281.399	38.06
281.615	27.82
281.83	9.39
282.045	138.41
282.26	48.3
282.476	64.68
282.691	-7
282.906	-13.14
283.122	60.59
283.337	15.53
283.552	101.55
283.767	5.29
283.983	21.67
284.198	66.73
284.413	97.45
284.628	-7
284.843	74.92
285.058	58.54
285.274	48.3
285.489	-9.05
285.704	15.53
285.919	33.96
286.134	46.25
286.349	-56.15
286.564	-2.9
286.779	29.87
286.995	36.01
287.21	1.19
287.425	109.74
287.64	44.2
287.855	21.67
288.07	66.73
288.285	33.96
288.5	3.24
288.715	31.91
288.93	79.02
289.145	-4.95
289.36	44.2
289.575	21.67
289.79	15.53
290.004	3.24
290.219	66.73
290.434	9.39
290.649	29.87
290.864	109.74
291.079	27.82
291.294	111.78
291.509	17.58
291.724	-15.19
291.938	56.49
292.153	60.59
292.368	-56.15
292.583	21.67
292.798	52.39
293.012	21.67
293.227	36.01
293.442	46.25
293.657	-29.52
293.871	-11.09
294.086	33.96
294.301	5.29
294.516	-37.72
294.73	68.78
294.945	-74.58
295.16	-25.43
295.374	46.25
295.589	54.44
295.804	72.87
296.018	33.96
296.233	62.63
296.447	13.48
296.662	46.25
296.877	36.01
297.091	33.96
297.306	87.21
297.52	91.31
297.735	87.21
297.949	54.44
298.164	132.26
298.378	5.29
298.593	15.53
298.807	1.19
299.022	38.06
299.236	72.87
299.451	83.11
299.665	1.19
299.88	54.44
300.094	140.46
300.309	40.11
300.523	60.59
300.737	42.15
300.952	29.87
301.166	13.48
301.381	-13.14
301.595	31.91
301.809	70.83
302.024	-7
302.238	-17.24
302.452	-4.95
302.667	89.26
302.881	-31.57
303.095	25.77
303.309	11.43
303.524	-31.57
303.738	42.15
303.952	-11.09
304.166	40.11
304.381	44.2
304.595	38.06
304.809	-33.62
305.023	-2.9
305.237	54.44
305.452	-62.29
305.666	25.77
305.88	50.35
306.094	25.77
306.308	91.31
306.522	42.15
306.736	83.11
306.95	79.02
307.164	3.24
307.379	9.39
307.593	115.88
307.807	27.82
308.021	95.4
308.235	62.63
308.449	-31.57
308.663	13.48
308.877	144.55
309.091	11.43
309.305	36.01
309.519	-0.85
309.733	1.19
309.947	-64.34
310.161	27.82
310.374	52.39
310.588	25.77
310.802	-9.05
311.016	1.19
311.23	38.06
311.444	21.67
311.658	-11.09
311.872	38.06
312.085	56.49
312.299	15.53
312.513	9.39
312.727	62.63
312.941	25.77
313.154	64.68
313.368	68.78
313.582	19.63
313.796	-25.43
314.009	93.35
314.223	87.21
314.437	72.87
314.651	-13.14
314.864	38.06
315.078	62.63
315.292	44.2
315.505	-29.52
315.719	66.73
315.933	103.59
316.146	-43.86
316.36	58.54
316.573	76.97
316.787	113.83
317.001	56.49
317.214	-19.29
317.428	68.78
317.641	38.06
317.855	50.35
318.068	48.3
318.282	79.02
318.495	44.2
318.709	-2.9
318.922	44.2
319.136	44.2
319.349	25.77
319.563	36.01
319.776	56.49
319.99	54.44
320.203	70.83
320.417	52.39
320.63	66.73
320.843	50.35
321.057	27.82
321.27	-13.14
321.483	-9.05
321.697	7.34
321.91	111.78
322.124	54.44
322.337	44.2
322.55	42.15
322.763	-0.85
322.977	5.29
323.19	27.82
323.403	38.06
323.617	5.29
323.83	70.83
324.043	109.74
324.256	23.72
324.469	21.67
324.683	11.43
324.896	1.19
325.109	79.02
325.322	36.01
325.535	54.44
325.748	62.63
325.962	17.58
326.175	46.25
326.388	50.35
326.601	89.26
326.814	56.49
327.027	13.48
327.24	103.59
327.453	50.35
327.666	44.2
327.879	23.72
328.092	93.35
328.305	19.63
328.518	46.25
328.731	-19.29
328.944	72.87
329.157	15.53
329.37	89.26
329.583	70.83
329.796	152.74
330.009	1.19
330.222	-4.95
330.435	54.44
330.648	54.44
330.861	38.06
331.073	42.15
331.286	23.72
331.499	42.15
331.712	44.2
331.925	38.06
332.138	27.82
332.35	15.53
332.563	-9.05
332.776	52.39
332.989	25.77
333.202	87.21
333.414	5.29
333.627	91.31
333.84	66.73
334.053	54.44
334.265	54.44
334.478	83.11
334.691	95.4
334.903	-52.05
335.116	-47.96
335.329	-29.52
335.541	101.55
335.754	70.83
335.966	48.3
336.179	7.34
336.392	109.74
336.604	1.19
336.817	33.96
337.029	126.12
337.242	79.02
337.454	19.63
337.667	-11.09
337.88	15.53
338.092	3.24
338.305	-35.67
338.517	171.18
338.729	70.83
338.942	15.53
339.154	5.29
339.367	7.34
339.579	66.73
339.792	64.68
340.004	62.63
340.217	74.92
340.429	83.11
340.641	9.39
340.854	31.91
341.066	31.91
341.278	-37.72
341.491	3.24
341.703	-56.15
341.915	66.73
342.128	19.63
342.34	68.78
342.552	15.53
342.764	38.06
342.977	27.82
343.189	15.53
343.401	58.54
343.613	-4.95
343.826	64.68
344.038	64.68
344.25	19.63
344.462	11.43
344.674	3.24
344.886	46.25
345.099	44.2
345.311	3.24
345.523	31.91
345.735	-13.14
345.947	70.83
346.159	89.26
346.371	40.11
346.583	48.3
346.795	79.02
347.007	-15.19
347.219	15.53
347.431	-13.14
347.643	36.01
347.855	17.58
348.067	5.29
348.279	1.19
348.491	64.68
348.703	46.25
348.915	17.58
349.127	60.59
349.339	-27.48
349.551	13.48
349.763	85.16
349.975	56.49
350.187	48.3
350.399	68.78
350.61	15.53
350.822	23.72
351.034	97.45
351.246	62.63
351.458	7.34
351.669	89.26
351.881	7.34
352.093	36.01
352.305	132.26
352.517	62.63
352.728	9.39
352.94	56.49
353.152	31.91
353.363	74.92
353.575	-19.29
353.787	81.07
353.999	36.01
354.21	66.73
354.422	38.06
354.633	7.34
354.845	64.68
355.057	42.15
355.268	60.59
355.48	130.22
355.692	-0.85
355.903	54.44
356.115	-2.9
356.326	54.44
356.538	74.92
356.749	29.87
356.961	87.21
357.172	97.45
357.384	9.39
357.595	150.7
357.807	81.07
358.018	99.5
358.23	50.35
358.441	62.63
358.653	-13.14
358.864	66.73
359.075	-60.24
359.287	52.39
359.498	66.73
359.709	46.25
359.921	9.39
360.132	33.96
360.344	62.63
360.555	15.53
360.766	3.24
360.977	50.35
361.189	62.63
361.4	68.78
361.611	58.54
361.823	97.45
362.034	103.59
362.245	60.59
362.456	58.54
362.667	74.92
362.879	-37.72
363.09	13.48
363.301	56.49
363.512	13.48
363.723	81.07
363.935	64.68
364.146	27.82
364.357	48.3
364.568	54.44
364.779	-0.85
364.99	66.73
365.201	83.11
365.412	101.55
365.623	-25.43
365.834	46.25
366.045	72.87
366.256	23.72
366.467	19.63
366.678	23.72
366.889	74.92
367.1	-25.43
367.311	101.55
367.522	15.53
367.733	13.48
367.944	50.35
368.155	50.35
368.366	79.02
368.577	83.11
368.788	60.59
368.999	-15.19
369.209	56.49
369.42	95.4
369.631	173.22
369.842	56.49
370.053	62.63
370.264	105.64
370.474	52.39
370.685	72.87
370.896	27.82
371.107	89.26
371.317	85.16
371.528	50.35
371.739	19.63
371.95	85.16
372.16	93.35
372.371	-62.29
372.582	72.87
372.792	111.78
373.003	124.07
373.214	105.64
373.424	66.73
373.635	93.35
373.846	105.64
374.056	38.06
374.267	40.11
374.477	66.73
374.688	-29.52
374.898	46.25
375.109	42.15
375.319	64.68
375.53	91.31
375.74	29.87
375.951	23.72
376.161	-2.9
376.372	25.77
376.582	50.35
376.793	115.88
377.003	87.21
377.214	3.24
377.424	29.87
377.635	23.72
377.845	-39.76
378.055	93.35
378.266	54.44
378.476	95.4
378.686	33.96
378.897	11.43
379.107	33.96
379.317	38.06
379.528	62.63
379.738	156.84
379.948	44.2
380.158	83.11
380.369	72.87
380.579	95.4
380.789	-4.95
380.999	3.24
381.21	17.58
381.42	56.49
381.63	68.78
381.84	64.68
382.05	46.25
382.261	165.03
382.471	87.21
382.681	107.69
382.891	46.25
383.101	72.87
383.311	-9.05
383.521	46.25
383.731	113.83
383.941	152.74
384.151	115.88
384.361	81.07
384.571	101.55
384.781	72.87
384.991	19.63
385.201	91.31
385.411	74.92
385.621	-21.33
385.831	46.25
386.041	70.83
386.251	52.39
386.461	36.01
386.671	7.34
386.881	19.63
387.091	25.77
387.301	54.44
387.511	29.87
387.72	60.59
387.93	52.39
388.14	11.43
388.35	5.29
388.56	122.02
388.769	58.54
388.979	48.3
389.189	-4.95
389.399	48.3
389.609	58.54
389.818	17.58
390.028	62.63
390.238	81.07
390.447	97.45
390.657	85.16
390.867	68.78
391.076	23.72
391.286	126.12
391.496	23.72
391.705	36.01
391.915	101.55
392.125	95.4
392.334	91.31
392.544	117.93
392.753	97.45
392.963	79.02
393.172	60.59
393.382	95.4
393.591	36.01
393.801	50.35
394.01	132.26
394.22	101.55
394.429	122.02
394.639	66.73
394.848	81.07
395.058	40.11
395.267	70.83
395.477	74.92
395.686	56.49
395.895	113.83
396.105	93.35
396.314	60.59
396.524	105.64
396.733	117.93
396.942	101.55
397.152	83.11
397.361	142.5
397.57	93.35
397.78	158.89
397.989	105.64
398.198	134.31
398.407	93.35
398.617	111.78
398.826	126.12
399.035	126.12
399.244	138.41
399.453	165.03
399.663	122.02
399.872	148.65
400.081	124.07
400.29	197.8
400.499	136.36
400.708	173.22
400.917	97.45
401.127	142.5
401.336	70.83
401.545	158.89
401.754	126.12
401.963	193.7
402.172	144.55
402.381	115.88
402.59	126.12
402.799	224.42
403.008	128.17
403.217	222.38
403.426	208.04
403.635	119.98
403.844	218.28
404.053	171.18
404.262	193.7
404.471	128.17
404.68	191.66
404.888	140.46
405.097	193.7
405.306	201.9
405.515	238.76
405.724	218.28
405.933	242.85
406.142	205.99
406.35	222.38
406.559	216.23
406.768	271.53
406.977	287.91
407.185	285.86
407.394	185.51
407.603	230.57
407.812	369.83
408.02	398.5
408.229	232.62
408.438	328.87
408.646	341.16
408.855	310.44
409.064	222.38
409.272	394.4
409.481	371.88
409.69	384.16
409.898	410.79
410.107	410.79
410.315	451.75
410.524	433.32
410.733	402.6
410.941	398.5
411.15	459.94
411.358	410.79
411.567	482.47
411.775	470.18
411.984	513.19
412.192	574.63
412.401	613.54
412.609	529.57
412.818	674.98
413.026	654.5
413.234	728.22
413.443	713.89
413.651	654.5
413.86	812.19
414.068	740.51
414.276	885.92
414.485	728.22
414.693	820.38
414.901	984.22
415.11	949.4
415.318	998.56
415.526	1027.23
415.734	1010.84
415.943	1094.81
416.151	1092.76
416.359	1078.43
416.567	1111.19
416.776	1324.18
416.984	1229.98
417.192	1320.09
417.4	1264.79
417.608	1287.32
417.817	1406.1
418.025	1485.97
418.233	1514.64
418.441	1416.34
418.649	1584.27
418.857	1705.1
419.065	1713.3
419.273	1799.31
419.481	1873.04
419.689	1832.08
419.897	1985.68
420.105	1985.68
420.313	2081.93
420.521	2176.14
420.729	2178.19
420.937	2231.43
421.145	2389.13
421.353	2419.85
421.561	2595.97
421.769	2667.65
421.977	2651.27
422.185	2569.35
422.393	3011.71
422.601	2999.42
422.809	3058.81
423.017	3124.35
423.224	3155.07
423.432	3230.84
423.64	3249.27
423.848	3636.34
424.056	3419.25
424.263	3818.61
424.471	3755.12
424.679	3802.22
424.887	4082.8
425.094	4158.57
425.302	4246.63
425.51	4285.55
425.718	4562.02
425.925	4568.16
426.133	4840.54
426.341	4967.52
426.548	5217.37
426.756	5262.43
426.964	5188.7
427.171	5592.15
427.379	5796.95
427.586	5618.77
427.794	6073.42
428.001	6306.89
428.209	6587.46
428.417	6202.44
428.624	7021.63
428.832	6753.35
429.039	6802.5
429.247	6736.96
429.454	7656.5
429.662	7873.59
429.869	7470.14
430.076	7969.84
430.284	7996.46
430.491	8008.75
430.699	8643.62
430.906	8662.05
431.114	8641.57
431.321	8922.15
431.528	9241.63
431.736	9704.47
431.943	10294.29
432.15	9860.12
432.358	10218.51
432.565	10478.6
432.772	10634.25
432.979	11105.28
433.187	11191.3
433.394	11353.09
433.601	12155.89
433.808	12080.11
434.016	12047.35
434.223	12561.39
434.43	13427.68
434.637	12874.73
434.844	13827.03
435.052	13902.81
435.259	14093.27
435.466	14138.32
435.673	14095.32
435.88	14881.74
436.087	15723.45
436.294	15401.92
436.501	15248.32
436.708	15659.96
436.915	16114.61
437.122	16935.85
437.329	16776.11
437.537	17527.71
437.743	17599.39
437.95	17603.49
438.157	18301.84
438.364	19114.89
438.571	19118.98
438.778	18992.01
438.985	21152.62
439.192	20190.07
439.399	20652.91
439.606	20081.53
439.813	21629.79
440.02	22772.56
440.227	22313.81
440.433	22092.63
440.64	22659.92
440.847	22829.9
441.054	23106.38
441.261	24701.75
441.467	24429.37
441.674	24914.73
441.881	25670.43
442.088	25699.11
442.294	25598.76
442.501	25922.34
442.708	26503.96
442.914	27767.55
443.121	28951.28
443.328	28017.41
443.534	30116.58
443.741	29330.16
443.948	28973.81
444.154	30716.63
444.361	30857.94
444.568	30999.25
444.774	30804.69
444.981	31390.41
445.187	32383.68
445.394	33819.3
445.6	33440.43
445.807	36287.1
446.013	34747.03
446.22	35404.43
446.426	36868.73
446.633	36993.65
446.839	38720.09
447.046	36555.39
447.252	38642.27
447.459	38808.15
447.665	38589.02
447.871	40651.33
448.078	42228.26
448.284	40110.66
448.491	41644.59
448.697	42621.47
448.903	43360.79
449.11	43670.03
449.316	42719.77
449.522	43688.46
449.728	44734.98
449.935	45439.48
450.141	45343.22
450.347	46242.28
450.553	44667.39
450.76	45556.21
450.966	47018.46
451.172	46461.41
451.378	47720.91
451.584	46508.52
451.791	47405.53
451.997	47364.57
452.203	48372.17
452.409	48470.47
452.615	48273.87
452.821	46504.42
453.027	46221.8
453.233	48331.21
453.44	46391.78
453.646	46946.78
453.852	47174.11
454.058	48263.63
454.264	46844.38
454.47	47540.69
454.676	46633.44
454.882	47817.17
455.088	44014.09
455.294	44515.84
455.5	45210.1
455.705	45822.45
455.911	43520.53
456.117	42670.62
456.323	42154.54
456.529	40081.99
456.735	41800.24
456.941	40593.98
457.147	40125
457.352	38871.64
457.558	38427.23
457.764	38650.46
457.97	38054.5
458.176	37366.38
458.381	37151.35
458.587	35551.88
458.793	35455.63
458.999	33557.16
459.204	35490.45
459.41	35089.04
459.616	32430.78
459.821	32699.06
460.027	32723.64
460.233	31955.65
460.438	30321.37
460.644	30591.7
460.85	29082.35
461.055	28908.27
461.261	28488.44
461.466	26393.37
461.672	25774.88
461.878	27560.71
462.083	25701.15
462.289	25353
462.494	24904.49
462.7	23860.03
462.905	23399.24
463.111	24138.55
463.316	24632.11
463.522	23667.52
463.727	23688
463.932	23432.01
464.138	23380.81
464.343	23610.18
464.549	22598.48
464.754	23673.67
464.959	23296.84
465.165	23253.83
465.37	22262.61
465.575	21597.03
465.781	22635.35
465.986	22723.41
466.191	21816.16
466.397	21304.17
466.602	20149.11
466.807	21054.31
467.012	21314.41
467.218	21099.37
467.423	20800.37
467.628	20992.87
467.833	21992.28
468.038	21025.64
468.244	20132.73
468.449	21021.55
468.654	20386.68
468.859	20511.6
469.064	20028.28
469.269	19352.45
469.474	19399.55
469.679	20056.95
469.885	19274.63
470.09	19805.05
470.295	19487.62
470.5	19067.78
470.705	19319.68
470.91	18729.87
471.115	18566.03
471.32	18879.37
471.525	18457.49
471.73	18342.8
471.935	18230.16
472.139	17632.16
472.344	17900.44
472.549	17496.99
472.754	17394.59
472.959	17177.51
473.164	16794.54
473.369	16675.76
473.574	16931.75
473.778	16948.14
473.983	16530.35
474.188	16923.56
474.393	16053.17
474.598	16155.57
474.802	15942.58
475.007	15989.69
475.212	15813.56
475.417	15420.35
475.621	15473.6
475.826	15336.38
476.031	15152.07
476.235	14795.72
476.44	14941.13
476.645	14736.33
476.849	14695.37
477.054	14328.78
477.259	14212.05
477.463	14250.96
477.668	13929.43
477.872	14060.5
478.077	13638.62
478.282	13544.41
478.486	13515.74
478.691	13427.68
478.895	13290.46
479.1	12970.98
479.304	13331.42
479.509	12696.55
479.713	12958.69
479.918	12823.53
480.122	12686.31
480.326	12891.11
480.531	12782.57
480.735	12663.79
480.94	12467.18
481.144	12915.69
481.348	12336.11
481.553	12383.21
481.757	12284.91
481.961	12444.65
482.166	12448.75
482.37	12446.7
482.574	12137.46
482.778	12418.03
482.983	12401.65
483.187	12131.31
483.391	12571.63
483.595	12221.42
483.8	12094.45
484.004	12391.41
484.208	12233.71
484.412	12411.89
484.616	12098.55
484.821	12153.84
485.025	12256.24
485.229	12428.27
485.433	12131.31
485.637	12284.91
485.841	12231.66
486.045	12143.6
486.249	12184.56
486.453	12241.9
486.657	12289.01
486.861	12303.34
487.065	12092.4
487.269	12286.96
487.473	11983.86
487.677	12233.71
487.881	12434.41
488.085	12141.55
488.289	12241.9
488.493	12272.62
488.697	12334.06
488.901	12246
489.105	12250.1
489.309	12352.49
489.512	12469.23
489.716	12313.58
489.92	12350.45
490.124	12358.64
490.328	12438.51
490.531	12545
490.735	12485.61
490.939	12712.94
491.143	12583.91
491.346	12645.35
491.55	12825.57
491.754	12846.05
491.958	12930.02
492.161	12932.07
492.365	12803.05
492.569	12884.97
492.772	12751.85
492.976	13007.84
493.18	13116.39
493.383	13327.33
493.587	13458.4
493.79	13489.12
493.994	13392.86
494.197	13343.71
494.401	13558.75
494.605	13530.08
494.808	13704.15
495.012	13972.44
495.215	13808.6
495.419	14056.4
495.622	14031.83
495.825	14283.73
496.029	14023.64
496.232	14656.46
496.436	14552.01
496.639	14777.29
496.843	14900.17
497.046	15125.44
497.249	15346.62
497.453	15375.3
497.656	15508.41
497.859	15526.85
498.063	15662.01
498.266	16067.51
498.469	15985.59
498.673	16223.16
498.876	16282.55
499.079	16622.51
499.282	16296.88
499.485	17181.6
499.689	17034.15
499.892	17316.77
500.095	17408.93
500.298	17703.84
500.501	17597.34
500.705	17888.15
500.908	18115.48
501.111	18553.74
501.314	18695.05
501.517	18402.19
501.72	19035.02
501.923	18998.15
502.126	19563.39
502.329	19747.71
502.532	19934.07
502.735	20077.43
502.938	20384.63
503.141	20288.37
503.344	20644.72
503.547	20904.81
503.75	20988.78
503.953	21601.12
504.156	21760.86
504.359	21635.94
504.562	21957.47
504.765	22580.05
504.968	22621.01
505.17	22977.36
505.373	23063.37
505.576	23716.67
505.779	23759.68
505.982	23751.49
506.185	24187.71
506.387	24171.32
506.59	24507.19
506.793	25068.33
506.996	24884.01
507.198	25787.17
507.401	25332.52
507.604	25985.82
507.807	26338.07
508.009	26354.46
508.212	26712.85
508.415	26954.51
508.617	27468.55
508.82	27546.37
509.022	27476.74
509.225	28140.29
509.428	28334.84
509.63	28842.74
509.833	28711.67
510.035	29385.45
510.238	29307.63
510.44	29823.72
510.643	30161.63
510.845	30546.65
511.048	30434.01
511.25	30829.27
511.453	31324.88
511.655	32185.02
511.858	31738.57
512.06	31746.76
512.262	32252.61
512.465	32697.02
512.667	32959.16
512.87	33170.1
513.072	33288.88
513.274	34192.03
513.477	34368.16
513.679	34607.77
513.881	34865.81
514.084	35177.11
514.286	35539.6
514.488	35535.5
514.69	36782.71
514.893	36696.7
515.095	36704.89
515.297	37167.73
515.499	37341.81
515.701	37433.97
515.904	38392.42
516.106	38480.48
516.308	38691.42
516.51	39002.71
516.712	39570
516.914	39649.87
517.116	40462.91
517.318	40374.85
517.52	40723.01
517.722	40968.76
517.925	41329.2
518.127	41904.68
518.329	42275.37
518.531	41925.16
518.733	42934.81
518.935	43227.67
519.136	43450.9
519.338	44233.22
519.54	43944.46
519.742	44575.23
519.944	44827.13
520.146	45474.29
520.348	45328.89
520.55	45867.5
520.752	45586.93
520.954	46805.47
521.155	46475.75
521.357	46844.38
521.559	47192.54
521.761	48157.13
521.963	47749.59
522.164	47690.19
522.366	48304.59
522.568	48456.14
522.77	48703.94
522.971	49482.17
523.173	49484.22
523.375	49643.96
523.576	49719.73
523.778	49850.8
523.98	50272.68
524.181	50549.16
524.383	50440.62
524.584	51239.32
524.786	51280.28
524.988	51122.59
525.189	51384.73
525.391	52081.04
525.592	51851.67
525.794	52132.24
525.995	52509.07
526.197	52611.46
526.398	52668.81
526.6	53037.44
526.801	53043.59
527.003	53531
527.204	53213.57
527.406	53569.91
527.607	53715.32
527.808	54030.71
528.01	53088.64
528.211	53893.49
528.412	54667.62
528.614	53971.32
528.815	54081.91
529.016	54792.55
529.218	54131.06
529.419	54759.78
529.62	54210.93
529.822	54325.61
530.023	54856.04
530.224	54763.88
530.425	54288.75
530.626	54249.84
530.828	54471.02
531.029	55558.49
531.23	54702.44
531.431	54557.03
531.632	55091.55
531.833	55392.61
532.035	55230.82
532.236	54937.96
532.437	55126.37
532.638	54886.76
532.839	55216.48
533.04	55423.32
533.241	54710.63
533.442	55736.66
533.643	55120.23
533.844	55126.37
534.045	55034.21
534.246	54985.06
534.447	55441.76
534.648	54727.02
534.849	55044.45
535.05	54417.77
535.251	54894.95
535.451	54354.29
535.652	54944.1
535.853	55204.19
536.054	54425.96
536.255	54870.37
536.456	54335.85
536.657	55034.21
536.857	54593.9
537.058	54317.42
537.259	54825.32
537.46	54876.52
537.66	54374.76
537.861	54585.71
538.062	54282.61
538.263	54483.31
538.463	53983.6
538.664	54174.06
538.865	54626.67
539.065	54597.99
539.266	53911.92
539.466	54897
539.667	53959.03
539.868	54767.97
540.068	54344.05
540.269	53961.08
540.469	53936.5
540.67	54114.67
540.87	54012.27
541.071	53713.27
541.271	54067.57
541.472	53780.85
541.672	53301.63
541.873	53856.63
542.073	53197.18
542.274	54071.67
542.474	53916.02
542.675	53256.57
542.875	54114.67
543.075	53586.3
543.276	52951.43
543.476	53825.91
543.676	53205.37
543.877	53324.16
544.077	53504.38
544.277	53494.14
544.478	53188.99
544.678	53643.64
544.878	53789.05
545.078	53444.99
545.279	53006.72
545.479	52717.96
545.679	53457.27
545.879	53371.26
546.079	53119.36
546.28	52980.1
546.48	52578.7
546.68	53082.5
546.88	53131.65
547.08	53119.36
547.28	53168.51
547.48	52615.56
547.68	52818.31
547.88	52464.01
548.081	53182.85
548.281	52947.33
548.481	52853.12
548.681	53092.74
548.881	52720.01
549.081	52504.97
549.28	51958.16
549.48	53141.89
549.68	52603.27
549.88	53447.04
550.08	52343.18
550.28	52726.15
550.48	52461.96
550.68	52965.76
550.88	52461.96
551.08	52443.53
551.279	52656.52
551.479	52562.31
551.679	52949.38
551.879	52636.04
552.079	52957.57
552.278	52455.82
552.478	52406.67
552.678	52396.43
552.878	52779.4
553.077	52390.28
553.277	52109.71
553.477	53078.4
553.676	52265.36
553.876	52234.64
554.076	52271.5
554.275	51796.37
554.475	51523.99
554.674	52048.27
554.874	51990.93
555.074	51571.1
555.273	52521.35
555.473	52312.46
555.672	51857.81
555.872	52228.49
556.071	52500.87
556.271	52294.03
556.47	51898.77
556.67	51775.89
556.869	51425.69
557.068	52062.61
557.268	51548.57
557.467	51653.01
557.667	51775.89
557.866	51544.47
558.065	51497.37
558.265	51100.06
558.464	51478.94
558.663	51693.97
558.863	50946.47
559.062	52054.42
559.261	50418.09
559.461	51847.57
559.66	50778.53
559.859	51347.87
560.058	50862.5
560.258	50928.03
560.457	50762.15
560.656	50907.55
560.855	50899.36
561.054	50835.87
561.253	50909.6
561.453	50364.84
561.652	51036.58
561.851	50817.44
562.05	50510.25
562.249	50401.71
562.448	50356.65
562.647	50493.86
562.846	50297.26
563.045	50426.28
563.244	49746.36
563.443	50561.45
563.642	49777.08
563.841	49836.47
564.04	49600.95
564.239	50129.33
564.438	49564.09
564.637	50039.22
564.836	49672.63
565.035	49105.34
565.234	49533.37
565.432	49007.04
565.631	49338.81
565.83	49232.32
566.029	48912.83
566.228	48529.86
566.427	48878.02
566.625	48638.4
566.824	48300.49
567.023	48832.96
567.222	48050.64
567.42	48742.85
567.619	48460.23
567.818	48511.43
568.016	47999.44
568.215	48486.85
568.414	47716.82
568.612	48146.89
568.811	47759.83
569.01	47956.43
569.208	47335.9
569.407	47464.92
569.605	47313.37
569.804	47768.02
570.002	46612.96
570.201	47417.82
570.4	46901.73
570.598	46799.33
570.797	46572
570.995	46879.2
571.193	46287.34
571.392	46928.35
571.59	46352.87
571.789	46234.09
571.987	45881.84
572.186	46242.28
572.384	45789.68
572.582	45832.69
572.781	45859.31
572.979	45292.02
573.177	45638.13
573.376	45744.62
573.574	45203.96
573.772	45877.74
573.971	44917.25
574.169	44640.77
574.367	44732.93
574.565	45048.32
574.763	44341.77
574.962	44679.68
575.16	44405.25
575.358	44354.05
575.556	43762.19
575.754	44519.94
575.952	43596.31
576.151	44155.4
576.349	43665.94
576.547	43541.01
576.745	43667.98
576.943	43508.24
577.141	43248.15
577.339	43772.43
577.537	43256.34
577.735	43106.84
577.933	42902.04
578.131	42883.61
578.329	42598.94
578.527	41980.46
578.725	42244.65
578.923	42410.53
579.121	42312.23
579.319	42220.07
579.516	42236.45
579.714	42033.71
579.912	41933.35
580.11	41480.75
580.308	41325.11
580.506	41996.84
580.704	40798.78
580.901	41654.83
581.099	41339.44
581.297	40815.16
581.495	40907.32
581.692	41024.06
581.89	40614.46
582.088	41110.07
582.285	40585.79
582.483	40800.83
582.681	40290.88
582.878	39795.28
583.076	40151.62
583.274	40274.5
583.471	39782.99
583.669	39877.19
583.866	39897.67
584.064	40165.96
584.262	39150.17
584.459	39871.05
584.657	38879.83
584.854	39789.13
585.052	38664.8
585.249	39144.02
585.447	38984.28
585.644	38728.28
585.841	38668.89
586.039	39000.66
586.236	38148.71
586.434	38546.01
586.631	38208.1
586.828	38171.24
587.026	38230.63
587.223	38150.76
587.42	37845.61
587.618	38134.37
587.815	37755.5
588.012	37583.47
588.21	37362.29
588.407	37870.18
588.604	37628.52
588.801	37241.46
588.999	37292.66
589.196	37139.06
589.393	36788.86
589.59	37212.79
589.787	37067.38
589.984	36743.8
590.182	36072.07
590.379	36721.27
590.576	36696.7
590.773	36407.94
590.97	36135.56
591.167	36276.87
591.364	35781.26
591.561	36000.39
591.758	35621.52
591.955	35576.46
592.152	35965.57
592.349	35676.81
592.546	35609.23
592.743	35680.91
592.94	34933.4
593.137	35517.07
593.334	35472.01
593.531	34794.14
593.727	34955.93
593.924	34777.75
594.121	34503.32
594.318	35089.04
594.515	34265.76
594.712	34882.2
594.908	34376.35
595.105	34663.07
595.302	34142.88
595.499	34388.64
595.696	34159.27
595.892	33745.58
596.089	34353.82
596.286	34015.91
596.482	33561.26
596.679	33833.64
596.876	34040.48
597.072	33561.26
597.269	33567.4
597.466	33108.66
597.662	33106.61
597.859	32996.02
598.055	33174.19
598.252	32987.83
598.448	33186.48
598.645	32821.94
598.841	32692.92
599.038	32539.32
599.234	32664.25
599.431	32291.52
599.627	32410.3
599.824	32389.82
600.02	32133.82
600.217	32262.85
600.413	31812.29
600.609	32039.62
600.806	31660.74
601.002	32256.7
601.198	31662.79
601.395	31980.23
601.591	31533.77
601.787	31490.76
601.984	31464.14
602.18	31580.87
602.376	31310.54
602.572	31169.23
602.769	31314.64
602.965	31070.93
603.161	31027.92
603.357	30825.17
603.553	30651.09
603.75	30882.52
603.946	30603.99
604.142	30610.14
604.338	30419.67
604.534	30472.92
604.73	30141.15
604.926	30257.88
605.122	30173.92
605.318	30417.63
605.514	29760.23
605.71	30085.86
605.906	29874.91
606.102	29903.59
606.298	29887.2
606.494	29493.99
606.69	29895.39
606.886	29571.82
607.082	29629.16
607.278	29733.6
607.474	28914.42
607.67	29479.66
607.866	28971.76
608.062	29481.7
608.257	28945.14
608.453	29002.48
608.649	29178.61
608.845	28881.65
609.041	28855.03
609.236	29129.45
609.432	28949.23
609.628	28830.45
609.824	28748.53
610.019	28572.41
610.215	28553.97
610.411	28586.74
610.606	28019.46
610.802	28492.54
610.998	28238.59
611.193	28422.9
611.389	28472.06
611.584	28429.05
611.78	28101.37
611.976	28054.27
612.171	28263.16
612.367	28054.27
612.562	28310.27
612.758	27810.56
612.953	27740.93
613.149	27665.16
613.344	27357.96
613.539	27880.19
613.735	27734.79
613.93	28115.71
614.126	27476.74
614.321	27499.27
614.517	27441.93
614.712	27394.82
614.907	27153.16
615.103	27360.01
615.298	27122.44
615.493	27280.14
615.688	26708.76
615.884	27499.27
616.079	26899.22
616.274	26745.62
616.47	27247.37
616.665	27022.09
616.86	26964.75
617.055	27030.29
617.25	26512.15
617.445	26972.94
617.641	26239.77
617.836	26463
618.031	26014.49
618.226	26792.72
618.421	26290.97
618.616	26264.35
618.811	25922.34
619.006	26229.53
619.201	25791.27
619.396	25764.64
619.591	25375.53
619.786	25684.77
619.981	25510.69
620.176	25494.31
620.371	24884.01
620.566	25121.58
620.761	25180.97
620.956	25103.15
621.151	24724.27
621.346	25000.75
621.541	24408.89
621.735	24707.89
621.93	24415.03
622.125	24359.73
622.32	24044.35
622.515	24156.99
622.709	24046.4
622.904	23874.37
623.099	23647.04
623.294	23882.56
623.488	23513.92
623.683	23475.01
623.878	23034.7
624.072	23364.42
624.267	23018.32
624.462	22750.03
624.656	22397.78
624.851	22698.83
625.046	22473.56
625.24	22537.04
625.435	21973.85
625.629	22309.72
625.824	22287.19
626.018	22094.68
626.213	21715.81
626.407	21465.96
626.602	21519.2
626.796	21515.11
626.991	21535.59
627.185	21615.46
627.38	21357.41
627.574	21181.29
627.768	21103.46
627.963	21042.03
628.157	20691.82
628.352	20743.02
628.546	20556.66
628.74	21042.03
628.935	20327.28
629.129	20282.23
629.323	19929.98
629.517	19946.36
629.712	19899.26
629.906	19934.07
630.1	19526.53
630.294	19626.88
630.489	19417.99
630.683	19733.37
630.877	19479.43
631.071	19110.79
631.265	19235.72
631.459	19198.85
631.653	19041.16
631.848	18791.31
632.042	18754.44
632.236	18795.4
632.43	18572.18
632.624	18525.07
632.818	18334.61
633.012	18017.18
633.206	18113.43
633.4	18453.39
633.594	17785.76
633.788	17867.67
633.982	17818.52
634.176	17724.32
634.369	17611.68
634.563	17664.93
634.757	17437.6
634.951	17324.96
635.145	17226.66
635.339	17228.71
635.533	16937.9
635.726	17036.2
635.92	16745.39
636.114	16612.27
636.308	16708.52
636.501	16442.29
636.695	16618.41
636.889	16313.27
637.083	16186.29
637.276	16151.48
637.47	16298.93
637.664	16126.9
637.857	16001.97
638.051	15985.59
638.244	15893.43
638.438	15813.56
638.632	15530.94
638.825	15307.71
639.019	15606.72
639.212	15320
639.406	15455.17
639.599	15330.24
639.793	15379.39
639.986	14928.84
640.18	15061.96
640.373	14801.86
640.567	14556.11
640.76	14818.25
640.954	14588.88
641.147	14459.85
641.34	14279.63
641.534	14439.37
641.727	14246.87
641.92	14267.34
642.114	14042.07
642.307	14072.79
642.5	13994.97
642.694	13734.87
642.887	13894.61
643.08	14175.19
643.273	13474.78
643.467	13644.76
643.66	13347.81
643.853	13341.66
644.046	13521.88
644.239	13345.76
644.432	13263.84
644.626	12956.64
644.819	12925.93
645.012	13102.05
645.205	13073.38
645.398	12798.95
645.591	12551.15
645.784	12817.38
645.977	12444.65
646.17	12594.15
646.363	12356.59
646.556	11863.03
646.749	12524.52
646.942	12340.21
647.135	11871.22
647.328	12178.42
647.521	11906.04
647.714	11873.27
647.907	11908.08
648.099	11803.64
648.292	11852.79
648.485	11643.9
648.678	11582.46
648.871	11447.29
649.064	11289.6
649.256	11566.07
649.449	11244.54
649.642	11213.82
649.835	11119.62
650.027	10904.58
650.22	11052.03
650.413	10761.22
650.605	11179.01
650.798	10857.48
650.991	10531.85
651.183	10945.54
651.376	10585.1
651.568	10699.78
651.761	10486.79
651.954	10548.23
652.146	10552.33
652.339	10464.27
652.531	10583.05
652.724	10038.29
652.916	9989.14
653.109	10054.67
653.301	10083.34
653.494	10218.51
653.686	9827.35
653.879	10128.4
654.071	9755.67
654.263	9649.18
654.456	9784.34
654.648	9589.78
654.84	9509.91
655.033	9581.59
655.225	9643.03
655.417	9507.87
655.61	9638.94
655.802	9430.04
655.994	9423.9
656.186	9391.13
656.379	9147.42
656.571	9358.36
656.763	9073.7
656.955	9092.13
657.148	9077.79
657.34	8999.97
657.532	8854.56
657.724	8989.73
657.916	8789.03
658.108	8926.24
658.3	8852.52
658.492	8932.39
658.684	8688.68
658.876	8555.56
659.068	8590.38
659.26	8457.26
659.452	8594.47
659.644	8397.87
659.836	8422.44
660.028	8336.43
660.22	8135.73
660.412	8172.59
660.604	8221.74
660.796	8105.01
660.988	8078.38
661.18	8059.95
661.372	7990.32
661.563	8008.75
661.755	7830.58
661.947	7889.97
662.139	7869.49
662.331	7896.11
662.522	7810.1
662.714	7611.45
662.906	7586.87
663.097	7756.85
663.289	7480.38
663.481	7760.95
663.673	7476.28
663.864	7502.9
664.056	7279.68
664.247	7414.84
664.439	7392.31
664.631	7312.44
664.822	7255.1
665.014	7226.43
665.205	7146.56
665.397	7042.11
665.588	7148.61
665.78	6956.1
665.971	6943.81
666.163	7019.58
666.354	6888.51
666.546	6954.05
666.737	6773.83
666.929	6831.17
667.12	6870.08
667.311	6804.55
667.503	6777.92
667.694	6634.57
667.885	6696
668.077	6648.9
668.268	6501.45
668.459	6466.63
668.651	6573.13
668.842	6730.82
669.033	6313.03
669.224	6323.27
669.416	6362.19
669.607	6440.01
669.798	6321.23
669.989	6233.16
670.18	6229.07
670.371	6284.36
670.563	6108.24
670.754	6282.31
670.945	6050.89
671.136	6229.07
671.327	6024.27
671.518	6042.7
671.709	5995.6
671.9	6141
672.091	6007.89
672.282	5917.78
672.473	6153.29
672.664	6011.98
672.855	5956.69
673.046	5801.04
673.237	5993.55
673.428	5825.62
673.619	5907.54
673.809	5878.86
674	5827.67
674.191	5794.9
674.382	5545.05
674.573	5663.83
674.764	5708.88
674.954	5657.68
675.145	5610.58
675.336	5508.18
675.527	5606.49
675.717	5755.99
675.908	5549.14
676.099	5538.9
676.289	5557.33
676.48	5477.46
676.671	5528.66
676.861	5600.34
677.052	5332.06
677.243	5516.37
677.433	5366.87
677.624	5383.26
677.814	5362.78
678.005	5409.88
678.195	5268.57
678.386	5452.89
678.576	5311.58
678.767	5420.12
678.957	5198.94
679.148	5348.44
679.338	5178.46
679.529	5319.77
679.719	5172.32
679.909	5373.02
680.1	5205.08
680.29	5348.44
680.481	5280.86
680.671	5137.5
680.861	5104.73
681.052	5102.68
681.242	5129.31
681.432	5254.23
681.622	5078.11
681.813	5043.29
682.003	5157.98
682.193	5055.58
682.383	5014.62
682.573	5092.44
682.764	5092.44
682.954	5061.73
683.144	4916.32
683.334	4834.4
683.524	4947.04
683.714	5031.01
683.904	4893.79
684.094	4977.76
684.284	4977.76
684.474	4983.9
684.664	4975.71
684.854	4932.7
685.044	4715.62
685.234	4930.66
685.424	4914.27
685.614	4858.98
685.804	4951.14
685.994	4914.27
686.184	4734.05
686.374	4781.15
686.564	4697.19
686.753	4789.35
686.943	4689
687.133	4754.53
687.323	4764.77
687.513	4596.84
687.702	4758.63
687.892	4658.28
688.082	4772.96
688.272	4727.91
688.461	4623.46
688.651	4641.89
688.841	4490.34
689.03	4584.55
689.22	4484.2
689.41	4492.39
689.599	4455.53
689.789	4545.64
689.979	4428.9
690.168	4314.22
690.358	4492.39
690.547	4480.1
690.737	4547.69
690.926	4385.9
691.116	4381.8
691.305	4336.74
691.495	4449.38
691.684	4240.49
691.874	4441.19
692.063	4533.35
692.252	4326.5
692.442	4394.09
692.631	4269.16
692.82	4291.69
693.01	4340.84
693.199	4267.11
693.388	4379.75
693.578	4357.22
693.767	4396.14
693.956	4398.18
694.146	4267.11
694.335	4256.87
694.524	4256.87
694.713	4271.21
694.902	4115.56
695.092	4318.31
695.281	4318.31
695.47	4260.97
695.659	4205.67
695.848	4066.41
696.037	4136.04
696.226	4187.24
696.415	4125.8
696.604	4293.74
696.793	4187.24
696.982	3968.11
697.171	4066.41
697.36	4189.29
697.549	4097.13
697.738	4162.67
697.927	4056.17
698.116	4082.8
698.305	4041.84
698.494	4297.83
698.683	3900.53
698.872	4027.5
699.061	4021.36
699.25	4105.32
699.438	4009.07
699.627	4052.08
699.816	4158.57
700.005	4017.26
700.193	4025.45
700.382	3929.2
700.571	3847.28
700.76	3904.62
700.948	3968.11
701.137	3945.58
701.326	3912.81
701.514	3834.99
701.703	3886.19
701.892	3841.14
702.08	3808.37
702.269	4041.84
702.457	3847.28
702.646	3927.15
702.834	3945.58
703.023	3937.39
703.212	3888.24
703.4	3925.1
703.589	3845.23
703.777	3767.41
703.965	3802.22
704.154	3724.4
704.342	3830.9
704.531	3800.18
704.719	3681.39
704.907	3703.92
705.096	3667.06
705.284	3746.93
705.472	3656.82
705.661	3593.33
705.849	3636.34
706.037	3685.49
706.226	3585.14
706.414	3673.2
706.602	3538.04
706.79	3650.67
706.979	3597.43
707.167	3470.45
707.355	3591.28
707.543	3535.99
707.731	3568.76
707.919	3468.41
708.107	3517.56
708.296	3478.65
708.484	3599.48
708.672	3521.65
708.86	3507.32
709.048	3468.41
709.236	3439.73
709.424	3454.07
709.612	3587.19
709.8	3359.86
709.988	3378.3
710.176	3452.02
710.364	3308.66
710.551	3323
710.739	3406.97
710.927	3392.63
711.115	3300.47
711.303	3329.14
711.491	3294.33
711.679	3191.93
711.866	3353.72
712.054	3265.66
712.242	3105.92
712.43	3169.4
712.617	3245.18
712.805	3275.9
712.993	3249.27
713.181	3148.92
713.368	3265.66
713.556	3185.79
713.744	3140.73
713.931	3132.54
714.119	3118.2
714.306	3173.5
714.494	3079.29
714.682	3128.44
714.869	2997.37
715.057	3040.38
715.244	3079.29
715.432	3116.16
715.619	3091.58
715.807	3032.19
715.994	3032.19
716.182	3073.15
716.369	3116.16
716.556	3024
716.744	3083.39
716.931	2989.18
717.119	3015.8
717.306	2991.23
717.493	2837.63
717.681	2860.16
717.868	2913.41
718.055	3007.61
718.242	2874.49
718.43	2927.74
718.617	2903.17
718.804	2835.58
718.991	2815.1
719.179	2831.49
719.366	2921.6
719.553	2874.49
719.74	2817.15
719.927	2835.58
720.114	2733.18
720.301	2747.52
720.488	2768
720.676	2772.1
720.863	2659.46
721.05	2768
721.237	2759.81
721.424	2739.33
721.611	2595.97
721.798	2610.31
721.985	2716.8
722.172	2694.27
722.358	2638.98
722.545	2661.51
722.732	2677.89
722.919	2641.03
723.106	2643.07
723.293	2589.83
723.48	2534.53
723.667	2647.17
723.853	2479.24
724.04	2591.88
724.227	2460.81
724.414	2399.37
724.6	2577.54
724.787	2407.56
724.974	2501.76
725.161	2552.96
725.347	2407.56
725.534	2575.49
725.72	2464.9
725.907	2489.48
726.094	2477.19
726.28	2428.04
726.467	2407.56
726.653	2448.52
726.84	2354.31
727.027	2446.47
727.213	2391.17
727.4	2366.6
727.586	2294.92
727.773	2382.98
727.959	2344.07
728.145	2430.09
728.332	2407.56
728.518	2323.59
728.705	2448.52
728.891	2229.38
729.077	2376.84
729.264	2403.46
729.45	2313.35
729.636	2331.78
729.823	2245.77
730.009	2405.51
730.195	2313.35
730.382	2421.89
730.568	2174.09
730.754	2329.74
730.94	2327.69
731.126	2311.3
731.313	2294.92
731.499	2331.78
731.685	2364.55
731.871	2262.15
732.057	2186.38
732.243	2167.95
732.429	2194.57
732.615	2112.65
732.801	2155.66
732.987	2364.55
733.173	2088.07
733.359	2135.18
733.545	2135.18
733.731	2092.17
733.917	2075.79
734.103	2196.62
734.289	1961.1
734.475	2206.86
734.661	2075.79
734.847	2100.36
735.033	2018.44
735.219	2036.88
735.404	2178.19
735.59	2024.59
735.776	2043.02
735.962	2116.75
736.148	2049.16
736.333	1983.63
736.519	2063.5
736.705	2057.36
736.89	2024.59
737.076	1844.37
737.262	1866.89
737.447	2012.3
737.633	1979.53
737.819	1971.34
738.004	2010.25
738.19	1866.89
738.375	1991.82
738.561	1907.85
738.747	1852.56
738.932	1952.91
739.118	1914
739.303	1885.33
739.489	1866.89
739.674	1807.5
739.859	1866.89
740.045	1891.47
740.23	1901.71
740.416	1842.32
740.601	1948.81
740.786	1819.79
740.972	1938.57
741.157	1848.46
741.342	1666.19
741.528	1844.37
741.713	1764.5
741.898	1723.54
742.084	1823.89
742.269	1711.25
742.454	1705.1
742.639	1817.74
742.824	1811.6
743.01	1715.34
743.195	1676.43
743.38	1725.58
743.565	1715.34
743.75	1649.81
743.935	1776.78
744.12	1719.44
744.305	1569.94
744.49	1676.43
744.675	1680.53
744.86	1647.76
745.045	1709.2
745.23	1741.97
745.415	1641.62
745.6	1608.85
745.785	1633.43
745.97	1614.99
746.155	1539.22
746.34	1504.4
746.525	1651.86
746.71	1651.86
746.895	1500.31
747.079	1604.75
747.264	1543.32
747.449	1459.35
747.634	1442.96
747.819	1469.59
748.003	1504.4
748.188	1457.3
748.373	1459.35
748.557	1496.21
748.742	1397.91
748.927	1463.44
749.111	1416.34
749.296	1469.59
749.481	1420.44
749.665	1332.37
749.85	1432.72
750.034	1393.81
750.219	1375.38
750.404	1340.57
750.588	1340.57
750.773	1307.8
750.957	1324.18
751.141	1354.9
751.326	1369.24
751.51	1287.32
751.695	1287.32
751.879	1291.41
752.064	1330.33
752.248	1281.18
752.432	1315.99
752.617	1236.12
752.801	1336.47
752.985	1176.73
753.17	1232.02
753.354	1248.41
753.538	1178.78
753.722	1193.11
753.907	1205.4
754.091	1199.26
754.275	1189.02
754.459	1207.45
754.643	1152.15
754.828	1098.91
755.012	1029.27
755.196	1139.87
755.38	1113.24
755.564	1201.3
755.748	1129.63
755.932	1082.52
756.116	1078.43
756.3	1100.95
756.484	1086.62
756.668	1082.52
756.852	1023.13
757.036	984.22
757.22	953.5
757.404	1057.95
757.588	982.17
757.772	1025.18
757.956	978.08
758.14	951.45
758.323	947.36
758.507	1072.28
758.691	1043.61
758.875	1062.04
759.059	1055.9
759.242	971.93
759.426	986.27
759.61	916.64
759.794	926.88
759.977	947.36
760.161	1014.94
760.345	912.54
760.528	957.6
760.712	971.93
760.895	1045.66
761.079	912.54
761.263	922.78
761.446	838.81
761.63	855.2
761.813	902.3
761.997	871.58
762.18	914.59
762.364	855.2
762.547	885.92
762.731	820.38
762.914	830.62
763.098	955.55
763.281	830.62
763.464	824.48
763.648	812.19
763.831	867.49
764.015	836.77
764.198	828.57
764.381	826.53
764.564	838.81
764.748	783.52
764.931	801.95
765.114	730.27
765.297	791.71
765.481	781.47
765.664	763.04
765.847	844.96
766.03	736.42
766.213	847.01
766.397	758.94
766.58	765.09
766.763	795.81
766.946	717.98
767.129	775.33
767.312	758.94
767.495	840.86
767.678	769.18
767.861	797.85
768.044	756.9
768.227	765.09
768.41	674.98
768.593	804
768.776	744.61
768.959	769.18
769.142	726.18
769.324	720.03
769.507	799.9
769.69	773.28
769.873	793.76
770.056	740.51
770.239	642.21
770.421	771.23
770.604	726.18
770.787	763.04
770.97	705.7
771.152	709.79
771.335	711.84
771.518	699.55
771.7	744.61
771.883	783.52
772.066	623.78
772.248	625.83
772.431	713.89
772.613	732.32
772.796	726.18
772.978	650.4
773.161	691.36
773.343	672.93
773.526	603.3
773.708	615.59
773.891	679.07
774.073	677.02
774.256	586.91
774.438	703.65
774.621	619.68
774.803	613.54
774.985	591.01
775.168	519.33
775.35	631.97
775.532	631.97
775.715	646.3
775.897	584.87
776.079	629.92
776.261	693.41
776.444	582.82
776.626	570.53
776.808	568.48
776.99	609.44
777.173	599.2
777.355	572.58
777.537	576.67
777.719	593.06
777.901	627.87
778.083	591.01
778.265	498.85
778.447	527.52
778.629	435.36
778.811	496.8
778.993	484.52
779.175	582.82
779.357	529.57
779.539	539.81
779.721	543.91
779.903	482.47
780.085	445.6
780.267	556.19
780.449	490.66
780.631	441.51
780.812	507.04
780.994	437.41
781.176	578.72
781.358	488.61
781.54	472.23
781.721	388.26
781.903	492.71
782.085	515.23
782.267	513.19
782.448	418.98
782.63	521.38
782.812	404.64
782.993	468.13
783.175	478.37
783.357	439.46
783.538	502.95
783.72	474.28
783.901	455.84
784.083	455.84
784.264	521.38
784.446	416.93
784.627	302.25
784.809	345.25
784.99	404.64
785.172	386.21
785.353	349.35
785.535	335.01
785.716	369.83
785.897	386.21
786.079	400.55
786.26	386.21
786.441	341.16
786.623	398.5
786.804	367.78
786.985	281.77
787.167	371.88
787.348	375.97
787.529	287.91
787.71	392.36
787.891	320.68
788.073	371.88
788.254	363.69
788.435	335.01
788.616	287.91
788.797	320.68
788.978	361.64
789.159	312.49
789.34	316.58
789.522	289.96
789.703	302.25
789.884	281.77
790.065	296.1
790.246	310.44
790.427	300.2
790.607	314.53
790.788	326.82
790.969	294.05
791.15	316.58
791.331	310.44
791.512	335.01
791.693	234.66
791.874	246.95
792.054	310.44
792.235	296.1
792.416	240.81
792.597	285.86
792.778	265.38
792.958	294.05
793.139	304.29
793.32	267.43
793.5	193.7
793.681	345.25
793.862	236.71
794.042	255.14
794.223	199.85
794.404	273.57
794.584	257.19
794.765	265.38
794.945	267.43
795.126	261.29
795.306	263.33
795.487	259.24
795.667	236.71
795.848	230.57
796.028	259.24
796.209	269.48
796.389	287.91
796.57	275.62
796.75	214.18
796.93	240.81
797.111	189.61
797.291	191.66
797.471	230.57
797.652	193.7
797.832	234.66
798.012	244.9
798.192	240.81
798.373	203.94
798.553	183.46
798.733	183.46
798.913	203.94
799.093	236.71
799.274	224.42
799.454	218.28
799.634	271.53
799.814	128.17
799.994	214.18
800.174	249
800.354	218.28
800.534	148.65
800.714	261.29
800.894	195.75
801.074	70.83
801.254	146.6
801.434	224.42
801.614	195.75
801.794	197.8
801.974	593.06
802.154	187.56
802.334	193.7
802.514	169.13
802.693	195.75
802.873	226.47
803.053	212.14
803.233	167.08
803.413	119.98
803.592	189.61
803.772	199.85
803.952	134.31
804.131	187.56
804.311	189.61
804.491	181.42
804.67	115.88
804.85	193.7
805.03	158.89
805.209	160.94
805.389	126.12
805.568	95.4
805.748	234.66
805.928	156.84
806.107	140.46
806.287	160.94
806.466	158.89
806.646	187.56
806.825	148.65
807.004	81.07
807.184	138.41
807.363	181.42
807.543	205.99
807.722	181.42
807.901	169.13
808.081	205.99
808.26	136.36
808.439	171.18
808.619	105.64
808.798	246.95
808.977	150.7
809.156	173.22
809.336	193.7
809.515	169.13
809.694	128.17
809.873	212.14
810.052	154.79
810.231	126.12
810.411	158.89
810.59	169.13
810.769	107.69
810.948	167.08
811.127	72.87
811.306	160.94
811.485	152.74
811.664	107.69
811.843	160.94
812.022	136.36
812.201	99.5
812.38	124.07
812.559	81.07
812.737	101.55
812.916	113.83
813.095	136.36
813.274	189.61
813.453	115.88
813.632	136.36
813.811	208.04
813.989	119.98
814.168	107.69
814.347	128.17
814.526	203.94
814.704	169.13
814.883	126.12
815.062	91.31
815.24	124.07
815.419	97.45
815.598	74.92
815.776	93.35
815.955	113.83
816.133	60.59
816.312	89.26
816.49	93.35
816.669	138.41
816.847	177.32
817.026	119.98
817.204	111.78
817.383	105.64
817.561	115.88
817.74	146.6
817.918	68.78
818.097	58.54
818.275	122.02
818.453	93.35
818.632	64.68
818.81	109.74
818.988	128.17
819.167	162.98
819.345	85.16
819.523	56.49
819.701	74.92
819.879	160.94
820.058	76.97
820.236	93.35
820.414	99.5
820.592	113.83
820.77	128.17
820.948	122.02
821.127	29.87
821.305	167.08
821.483	46.25
821.661	138.41
821.839	126.12
822.017	52.39
822.195	19.63
822.373	76.97
822.551	119.98
822.729	122.02
822.907	66.73
823.085	74.92
823.262	148.65
823.44	158.89
823.618	72.87
823.796	7.34
823.974	140.46
824.152	85.16
824.329	85.16
824.507	5.29
824.685	87.21
824.863	68.78
825.04	62.63
825.218	111.78
825.396	40.11
825.574	74.92
825.751	64.68
825.929	50.35
826.107	40.11
826.284	13.48
826.462	199.85
826.639	62.63
826.817	40.11
826.994	109.74
827.172	93.35
827.349	87.21
827.527	103.59
827.704	79.02
827.882	83.11
828.059	132.26
828.237	72.87
828.414	56.49
828.591	9.39
828.769	117.93
828.946	62.63
829.124	93.35
829.301	105.64
829.478	87.21
829.655	62.63
829.833	38.06
830.01	62.63
830.187	54.44
830.364	85.16
830.542	119.98
830.719	89.26
830.896	124.07
831.073	95.4
831.25	87.21
831.427	138.41
831.604	36.01
831.782	46.25
831.959	113.83
832.136	46.25
832.313	74.92
832.49	68.78
832.667	36.01
832.844	105.64
833.021	76.97
833.198	87.21
833.374	36.01
833.551	50.35
833.728	21.67
833.905	115.88
834.082	54.44
834.259	97.45
834.436	54.44
834.612	38.06
834.789	25.77
834.966	52.39
835.143	27.82
835.319	62.63
835.496	81.07
835.673	91.31
835.85	62.63
836.026	54.44
836.203	25.77
836.38	66.73
836.556	31.91
836.733	3.24
836.909	81.07
837.086	9.39
837.262	-2.9
837.439	52.39
837.616	44.2
837.792	-0.85
837.968	36.01
838.145	66.73
838.321	15.53
838.498	48.3
838.674	109.74
838.851	21.67
839.027	74.92
839.203	103.59
839.38	52.39
839.556	-7
839.732	54.44
839.909	-2.9
840.085	27.82
840.261	31.91
840.437	42.15
840.614	50.35
840.79	126.12
840.966	9.39
841.142	21.67
841.318	97.45
841.494	33.96
841.671	54.44
841.847	58.54
842.023	17.58
842.199	74.92
842.375	48.3
842.551	-4.95
842.727	-19.29
842.903	38.06
843.079	42.15
843.255	81.07
843.431	54.44
843.607	19.63
843.783	-31.57
843.959	62.63
844.134	15.53
844.31	58.54
844.486	42.15
844.662	52.39
844.838	56.49
845.013	-9.05
845.189	99.5
845.365	99.5
845.541	48.3
845.716	91.31
845.892	13.48
846.068	76.97
846.244	9.39
846.419	42.15
846.595	29.87
846.77	23.72
846.946	-17.24
847.122	27.82
847.297	-11.09
847.473	60.59
847.648	70.83
847.824	17.58
847.999	9.39
848.175	40.11
848.35	83.11
848.526	79.02
848.701	79.02
848.876	13.48
849.052	11.43
849.227	25.77
849.403	9.39
849.578	7.34
849.753	44.2
849.929	40.11
850.104	21.67
850.279	115.88
850.454	29.87
850.63	11.43
850.805	31.91
850.98	27.82
851.155	11.43
851.33	60.59
851.505	58.54
851.681	40.11
851.856	40.11
852.031	52.39
852.206	36.01
852.381	-2.9
852.556	66.73
852.731	48.3
852.906	33.96
853.081	-9.05
853.256	21.67
853.431	99.5
853.606	-31.57
853.781	52.39
853.956	-39.76
854.131	60.59
854.305	-9.05
854.48	17.58
854.655	-7
854.83	-19.29
855.005	-21.33
855.18	62.63
855.354	-15.19
855.529	93.35
855.704	-11.09
855.879	128.17
856.053	-29.52
856.228	21.67
856.403	-23.38
856.577	5.29
856.752	17.58
856.926	13.48
857.101	13.48
857.276	9.39
857.45	70.83
857.625	76.97
857.799	19.63
857.974	11.43
858.148	31.91
858.323	40.11
858.497	58.54
858.672	-33.62
858.846	-27.48
859.02	66.73
859.195	-35.67
859.369	79.02
859.543	-13.14
859.718	109.74
859.892	-50
860.066	23.72
860.241	7.34
860.415	-7
860.589	23.72
860.763	13.48
860.938	5.29
861.112	54.44
861.286	-43.86
861.46	33.96
861.634	64.68
861.808	40.11
861.982	-9.05
862.157	-11.09
862.331	3.24
862.505	-68.44
862.679	-52.05
862.853	50.35
863.027	68.78
863.201	64.68
863.375	15.53
863.549	5.29
863.722	-27.48
863.896	1.19
864.07	33.96
864.244	-0.85
864.418	48.3
864.592	29.87
864.766	3.24
864.939	89.26
865.113	27.82
865.287	-19.29
865.461	58.54
865.634	21.67
865.808	19.63
865.982	27.82
866.156	-31.57
866.329	29.87
866.503	-17.24
866.676	7.34
866.85	36.01
867.024	46.25
867.197	21.67
867.371	-39.76
867.544	40.11
867.718	-37.72
867.891	-11.09
868.065	62.63
868.238	11.43
868.412	56.49
868.585	9.39
868.759	48.3
868.932	5.29
869.105	-76.63
869.279	11.43
869.452	-50
869.625	17.58
869.799	-7
869.972	44.2
870.145	62.63
870.319	31.91
870.492	33.96
870.665	-2.9
870.838	21.67
871.011	-4.95
871.185	-21.33
871.358	-68.44
871.531	87.21
871.704	-60.24
871.877	-39.76
872.05	46.25
872.223	23.72
872.396	-13.14
872.569	70.83
872.742	-52.05
872.915	-21.33
873.088	-0.85
873.261	48.3
873.434	21.67
873.607	-11.09
873.78	-37.72
873.953	-64.34
874.126	-15.19
874.299	5.29
874.471	-39.76
874.644	23.72
874.817	31.91
874.99	27.82
875.163	-19.29
875.335	-66.39
875.508	-45.91
875.681	85.16
875.853	1.19
876.026	-25.43
876.199	7.34
876.371	64.68
876.544	-23.38
876.717	46.25
876.889	-0.85
877.062	21.67
877.234	44.2
877.407	-70.48
877.579	-50
877.752	21.67
877.924	-23.38
878.097	-37.72
878.269	-33.62
878.442	-9.05
878.614	-43.86
878.786	-29.52
878.959	54.44
879.131	27.82
879.303	-33.62
879.476	38.06
879.648	11.43
879.82	54.44
879.993	-25.43
880.165	-21.33
880.337	-0.85
880.509	19.63
880.681	1.19
880.854	40.11
881.026	46.25
881.198	93.35
881.37	19.63
881.542	11.43
881.714	60.59
881.886	-17.24
882.058	-33.62
882.23	-39.76
882.402	-47.96
882.574	-23.38
882.746	79.02
882.918	81.07
883.09	7.34
883.262	-7
883.434	-29.52
883.606	-43.86
883.778	44.2
883.95	38.06
884.122	-33.62
884.293	-0.85
884.465	17.58
884.637	70.83
884.809	-2.9
884.98	3.24
885.152	-41.81
885.324	52.39
885.496	-39.76
885.667	-27.48
885.839	-0.85
886.011	44.2
886.182	93.35
886.354	58.54
886.525	33.96
886.697	-56.15
886.869	-41.81
887.04	5.29
887.212	-4.95
887.383	19.63
887.555	11.43
887.726	-23.38
887.897	-4.95
888.069	33.96
888.24	-33.62
888.412	36.01
888.583	74.92
888.754	85.16
888.926	-17.24
889.097	-11.09
889.268	-37.72
889.44	5.29
889.611	-9.05
889.782	1.19
889.953	-4.95
890.125	44.2
890.296	-21.33
890.467	25.77
890.638	-78.68
890.809	-13.14
890.98	-41.81
891.151	13.48
891.323	48.3
891.494	25.77
891.665	-9.05
891.836	52.39
892.007	-7
892.178	62.63
892.349	13.48
892.52	-25.43
892.691	11.43
892.862	25.77
893.032	-15.19
893.203	74.92
893.374	11.43
893.545	21.67
893.716	-66.39
893.887	38.06
894.057	-17.24
894.228	27.82
894.399	-27.48
894.57	19.63
894.74	-29.52
894.911	-47.96
895.082	3.24
895.253	9.39
895.423	23.72
895.594	-56.15
895.764	-27.48
895.935	1.19
896.106	56.49
896.276	-17.24
896.447	46.25
896.617	79.02
896.788	11.43
896.958	-47.96
897.129	13.48
897.299	-23.38
897.47	44.2
897.64	27.82
897.81	-62.29
897.981	36.01
898.151	-17.24
898.322	13.48
898.492	-29.52
898.662	-13.14
898.832	36.01
899.003	1.19
899.173	-9.05
899.343	9.39
899.513	15.53
