Data from USB4F104151__91__12-37-07-411.txt Node

Date: Fri Mar 14 12:37:07 EDT 2025
User: louis
Spectrometer: USB4F10415
Trigger mode: 4
Integration Time (sec): 2.000000E-2
Scans to average: 1
Electric dark correction enabled: true
Nonlinearity correction enabled: false
Boxcar width: 0
XAxis mode: Wavelengths
Number of Pixels in Spectrum: 3648
>>>>>Begin Spectral Data<<<<<
178.204	-72.7
178.424	-72.7
178.644	-72.7
178.864	-72.7
179.084	-95.23
179.304	-37.89
179.524	-21.5
179.744	-93.18
179.964	58.37
180.184	-23.55
180.404	13.31
180.624	37.89
180.844	39.94
181.064	-44.03
181.283	15.36
181.503	7.17
181.723	48.13
181.943	-31.74
182.163	80.89
182.383	-7.17
182.602	-9.22
182.822	39.94
183.042	23.55
183.262	11.26
183.482	9.22
183.701	-27.65
183.921	70.65
184.141	-15.36
184.361	35.84
184.58	44.03
184.8	-13.31
185.02	-54.27
185.239	37.89
185.459	21.5
185.679	105.47
185.898	-46.08
186.118	-27.65
186.338	-11.26
186.557	39.94
186.777	33.79
186.997	23.55
187.216	27.65
187.436	84.99
187.655	13.31
187.875	58.37
188.095	-11.26
188.314	15.36
188.534	39.94
188.753	74.75
188.973	15.36
189.192	5.12
189.412	76.8
189.631	21.5
189.851	11.26
190.07	44.03
190.29	13.31
190.509	21.5
190.729	54.27
190.948	54.27
191.168	140.29
191.387	56.32
191.607	58.37
191.826	52.22
192.045	1.02
192.265	64.51
192.484	-50.18
192.704	87.04
192.923	17.41
193.142	93.18
193.362	60.42
193.581	41.98
193.8	23.55
194.02	48.13
194.239	-37.89
194.458	52.22
194.678	68.61
194.897	-21.5
195.116	5.12
195.335	66.56
195.555	33.79
195.774	-23.55
195.993	27.65
196.212	25.6
196.432	50.18
196.651	-54.27
196.87	39.94
197.089	72.7
197.308	27.65
197.528	56.32
197.747	109.57
197.966	62.46
198.185	72.7
198.404	44.03
198.623	60.42
198.842	5.12
199.062	60.42
199.281	31.74
199.5	-58.37
199.719	39.94
199.938	33.79
200.157	58.37
200.376	17.41
200.595	13.31
200.814	9.22
201.033	-13.31
201.252	76.8
201.471	-23.55
201.69	41.98
201.909	21.5
202.128	-1.02
202.347	95.23
202.566	23.55
202.785	60.42
203.004	37.89
203.223	52.22
203.442	25.6
203.661	-54.27
203.879	25.6
204.098	74.75
204.317	76.8
204.536	-5.12
204.755	25.6
204.974	-31.74
205.193	11.26
205.411	84.99
205.63	15.36
205.849	89.09
206.068	52.22
206.287	29.7
206.505	-19.46
206.724	54.27
206.943	7.17
207.162	23.55
207.381	-5.12
207.599	56.32
207.818	17.41
208.037	-52.22
208.255	-21.5
208.474	-7.17
208.693	70.65
208.911	-11.26
209.13	54.27
209.349	54.27
209.567	-21.5
209.786	99.33
210.005	27.65
210.223	41.98
210.442	11.26
210.661	-46.08
210.879	60.42
211.098	62.46
211.316	11.26
211.535	5.12
211.753	-7.17
211.972	15.36
212.191	66.56
212.409	82.94
212.628	17.41
212.846	31.74
213.065	-41.98
213.283	84.99
213.502	5.12
213.72	17.41
213.938	93.18
214.157	1.02
214.375	1.02
214.594	52.22
214.812	23.55
215.031	74.75
215.249	50.18
215.467	19.46
215.686	60.42
215.904	64.51
216.122	27.65
216.341	62.46
216.559	50.18
216.778	19.46
216.996	9.22
217.214	68.61
217.432	11.26
217.651	60.42
217.869	-39.94
218.087	9.22
218.306	60.42
218.524	56.32
218.742	60.42
218.96	58.37
219.179	-17.41
219.397	3.07
219.615	107.52
219.833	31.74
220.051	23.55
220.27	58.37
220.488	1.02
220.706	13.31
220.924	78.85
221.142	-27.65
221.36	1.02
221.578	33.79
221.796	-7.17
222.015	-23.55
222.233	58.37
222.451	80.89
222.669	-5.12
222.887	89.09
223.105	33.79
223.323	31.74
223.541	9.22
223.759	13.31
223.977	21.5
224.195	80.89
224.413	19.46
224.631	25.6
224.849	-3.07
225.067	93.18
225.285	-39.94
225.503	23.55
225.721	-21.5
225.939	9.22
226.157	19.46
226.375	70.65
226.592	54.27
226.81	-9.22
227.028	7.17
227.246	72.7
227.464	7.17
227.682	56.32
227.9	11.26
228.117	117.76
228.335	-15.36
228.553	11.26
228.771	64.51
228.989	29.7
229.206	5.12
229.424	39.94
229.642	-52.22
229.86	-3.07
230.077	15.36
230.295	11.26
230.513	109.57
230.731	56.32
230.948	64.51
231.166	19.46
231.384	41.98
231.601	33.79
231.819	58.37
232.037	1.02
232.254	29.7
232.472	-23.55
232.689	54.27
232.907	148.48
233.125	35.84
233.342	56.32
233.56	23.55
233.777	48.13
233.995	62.46
234.213	76.8
234.43	7.17
234.648	50.18
234.865	72.7
235.083	-19.46
235.3	39.94
235.518	-21.5
235.735	37.89
235.953	-15.36
236.17	-21.5
236.388	70.65
236.605	44.03
236.822	-39.94
237.04	-23.55
237.257	17.41
237.475	-33.79
237.692	23.55
237.909	-9.22
238.127	58.37
238.344	-1.02
238.562	27.65
238.779	1.02
238.996	-1.02
239.214	15.36
239.431	21.5
239.648	64.51
239.865	-17.41
240.083	3.07
240.3	7.17
240.517	37.89
240.735	37.89
240.952	15.36
241.169	74.75
241.386	68.61
241.603	15.36
241.821	21.5
242.038	41.98
242.255	7.17
242.472	-37.89
242.689	140.29
242.907	62.46
243.124	5.12
243.341	23.55
243.558	-21.5
243.775	66.56
243.992	-46.08
244.209	50.18
244.426	111.61
244.643	70.65
244.86	70.65
245.078	41.98
245.295	62.46
245.512	50.18
245.729	-62.46
245.946	41.98
246.163	39.94
246.38	54.27
246.597	13.31
246.814	89.09
247.031	50.18
247.248	-44.03
247.464	68.61
247.681	9.22
247.898	109.57
248.115	33.79
248.332	9.22
248.549	37.89
248.766	76.8
248.983	17.41
249.2	58.37
249.417	70.65
249.633	-21.5
249.85	11.26
250.067	58.37
250.284	21.5
250.501	17.41
250.717	44.03
250.934	-44.03
251.151	27.65
251.368	33.79
251.585	89.09
251.801	15.36
252.018	82.94
252.235	-23.55
252.451	50.18
252.668	70.65
252.885	54.27
253.102	68.61
253.318	11.26
253.535	-56.32
253.752	31.74
253.968	11.26
254.185	-1.02
254.401	21.5
254.618	58.37
254.835	3.07
255.051	95.23
255.268	5.12
255.484	31.74
255.701	-17.41
255.917	27.65
256.134	19.46
256.351	78.85
256.567	-50.18
256.784	31.74
257	-27.65
257.217	25.6
257.433	13.31
257.65	50.18
257.866	-11.26
258.082	-27.65
258.299	19.46
258.515	13.31
258.732	-17.41
258.948	78.85
259.165	50.18
259.381	84.99
259.597	-11.26
259.814	74.75
260.03	7.17
260.246	74.75
260.463	46.08
260.679	109.57
260.895	41.98
261.112	29.7
261.328	-27.65
261.544	3.07
261.761	56.32
261.977	50.18
262.193	35.84
262.409	84.99
262.626	62.46
262.842	21.5
263.058	76.8
263.274	29.7
263.49	13.31
263.707	21.5
263.923	39.94
264.139	5.12
264.355	-13.31
264.571	58.37
264.787	62.46
265.004	93.18
265.22	74.75
265.436	39.94
265.652	99.33
265.868	-23.55
266.084	13.31
266.3	19.46
266.516	-5.12
266.732	113.66
266.948	7.17
267.164	-23.55
267.38	11.26
267.596	99.33
267.812	134.14
268.028	3.07
268.244	44.03
268.46	39.94
268.676	7.17
268.892	-15.36
269.108	-31.74
269.324	66.56
269.54	15.36
269.756	105.47
269.972	41.98
270.188	25.6
270.403	58.37
270.619	60.42
270.835	19.46
271.051	41.98
271.267	-1.02
271.483	68.61
271.698	-31.74
271.914	91.13
272.13	-19.46
272.346	80.89
272.562	60.42
272.777	-21.5
272.993	15.36
273.209	39.94
273.425	3.07
273.64	29.7
273.856	-3.07
274.072	50.18
274.287	-27.65
274.503	-23.55
274.719	15.36
274.934	-13.31
275.15	-29.7
275.366	-52.22
275.581	54.27
275.797	27.65
276.012	35.84
276.228	99.33
276.444	70.65
276.659	-9.22
276.875	15.36
277.09	33.79
277.306	60.42
277.521	17.41
277.737	3.07
277.952	82.94
278.168	58.37
278.383	54.27
278.599	23.55
278.814	87.04
279.03	21.5
279.245	-15.36
279.461	64.51
279.676	78.85
279.892	17.41
280.107	31.74
280.322	80.89
280.538	39.94
280.753	-41.98
280.969	91.13
281.184	29.7
281.399	21.5
281.615	7.17
281.83	35.84
282.045	-21.5
282.26	-5.12
282.476	35.84
282.691	44.03
282.906	31.74
283.122	-9.22
283.337	66.56
283.552	82.94
283.767	48.13
283.983	23.55
284.198	-19.46
284.413	-54.27
284.628	-3.07
284.843	82.94
285.058	44.03
285.274	-5.12
285.489	44.03
285.704	99.33
285.919	62.46
286.134	17.41
286.349	25.6
286.564	80.89
286.779	103.42
286.995	66.56
287.21	29.7
287.425	39.94
287.64	48.13
287.855	62.46
288.07	1.02
288.285	78.85
288.5	13.31
288.715	29.7
288.93	52.22
289.145	115.71
289.36	3.07
289.575	50.18
289.79	93.18
290.004	68.61
290.219	44.03
290.434	29.7
290.649	13.31
290.864	52.22
291.079	48.13
291.294	50.18
291.509	93.18
291.724	9.22
291.938	25.6
292.153	15.36
292.368	50.18
292.583	-7.17
292.798	72.7
293.012	39.94
293.227	58.37
293.442	25.6
293.657	84.99
293.871	103.42
294.086	48.13
294.301	107.52
294.516	17.41
294.73	50.18
294.945	27.65
295.16	48.13
295.374	48.13
295.589	33.79
295.804	37.89
296.018	39.94
296.233	27.65
296.447	29.7
296.662	15.36
296.877	5.12
297.091	76.8
297.306	48.13
297.52	19.46
297.735	31.74
297.949	84.99
298.164	84.99
298.378	52.22
298.593	19.46
298.807	68.61
299.022	21.5
299.236	9.22
299.451	9.22
299.665	17.41
299.88	33.79
300.094	52.22
300.309	76.8
300.523	39.94
300.737	35.84
300.952	44.03
301.166	25.6
301.381	7.17
301.595	62.46
301.809	5.12
302.024	50.18
302.238	-3.07
302.452	95.23
302.667	37.89
302.881	37.89
303.095	68.61
303.309	54.27
303.524	68.61
303.738	13.31
303.952	-5.12
304.166	54.27
304.381	-13.31
304.595	11.26
304.809	39.94
305.023	111.61
305.237	-13.31
305.452	50.18
305.666	-7.17
305.88	93.18
306.094	5.12
306.308	50.18
306.522	29.7
306.736	95.23
306.95	58.37
307.164	-1.02
307.379	-44.03
307.593	93.18
307.807	-11.26
308.021	44.03
308.235	93.18
308.449	13.31
308.663	91.13
308.877	56.32
309.091	140.29
309.305	23.55
309.519	25.6
309.733	62.46
309.947	29.7
310.161	80.89
310.374	66.56
310.588	74.75
310.802	17.41
311.016	29.7
311.23	25.6
311.444	31.74
311.658	-15.36
311.872	39.94
312.085	58.37
312.299	62.46
312.513	58.37
312.727	23.55
312.941	82.94
313.154	-9.22
313.368	29.7
313.582	19.46
313.796	80.89
314.009	33.79
314.223	84.99
314.437	23.55
314.651	58.37
314.864	31.74
315.078	27.65
315.292	23.55
315.505	58.37
315.719	-3.07
315.933	68.61
316.146	-7.17
316.36	113.66
316.573	29.7
316.787	74.75
317.001	46.08
317.214	-3.07
317.428	39.94
317.641	-21.5
317.855	72.7
318.068	-60.42
318.282	21.5
318.495	23.55
318.709	58.37
318.922	91.13
319.136	9.22
319.349	87.04
319.563	27.65
319.776	-11.26
319.99	68.61
320.203	54.27
320.417	46.08
320.63	5.12
320.843	56.32
321.057	93.18
321.27	15.36
321.483	41.98
321.697	-11.26
321.91	5.12
322.124	19.46
322.337	17.41
322.55	121.85
322.763	-3.07
322.977	19.46
323.19	-7.17
323.403	97.28
323.617	64.51
323.83	35.84
324.043	37.89
324.256	62.46
324.469	21.5
324.683	89.09
324.896	-31.74
325.109	-11.26
325.322	-11.26
325.535	39.94
325.748	95.23
325.962	56.32
326.175	35.84
326.388	99.33
326.601	60.42
326.814	93.18
327.027	70.65
327.24	70.65
327.453	25.6
327.666	11.26
327.879	46.08
328.092	48.13
328.305	33.79
328.518	15.36
328.731	-70.65
328.944	11.26
329.157	13.31
329.37	3.07
329.583	95.23
329.796	74.75
330.009	46.08
330.222	84.99
330.435	29.7
330.648	46.08
330.861	-1.02
331.073	41.98
331.286	70.65
331.499	48.13
331.712	19.46
331.925	54.27
332.138	95.23
332.35	99.33
332.563	35.84
332.776	93.18
332.989	68.61
333.202	17.41
333.414	-33.79
333.627	11.26
333.84	39.94
334.053	21.5
334.265	21.5
334.478	58.37
334.691	78.85
334.903	27.65
335.116	-5.12
335.329	31.74
335.541	93.18
335.754	48.13
335.966	103.42
336.179	46.08
336.392	13.31
336.604	91.13
336.817	13.31
337.029	144.38
337.242	33.79
337.454	150.53
337.667	60.42
337.88	-5.12
338.092	23.55
338.305	113.66
338.517	52.22
338.729	35.84
338.942	99.33
339.154	5.12
339.367	11.26
339.579	87.04
339.792	46.08
340.004	33.79
340.217	62.46
340.429	48.13
340.641	15.36
340.854	15.36
341.066	35.84
341.278	48.13
341.491	93.18
341.703	27.65
341.915	-21.5
342.128	-1.02
342.34	54.27
342.552	62.46
342.764	39.94
342.977	13.31
343.189	27.65
343.401	82.94
343.613	58.37
343.826	64.51
344.038	25.6
344.25	33.79
344.462	13.31
344.674	70.65
344.886	60.42
345.099	21.5
345.311	5.12
345.523	91.13
345.735	74.75
345.947	25.6
346.159	103.42
346.371	82.94
346.583	119.81
346.795	132.09
347.007	44.03
347.219	39.94
347.431	21.5
347.643	66.56
347.855	5.12
348.067	76.8
348.279	46.08
348.491	25.6
348.703	23.55
348.915	56.32
349.127	64.51
349.339	39.94
349.551	19.46
349.763	52.22
349.975	19.46
350.187	41.98
350.399	105.47
350.61	7.17
350.822	80.89
351.034	11.26
351.246	35.84
351.458	-5.12
351.669	13.31
351.881	111.61
352.093	95.23
352.305	64.51
352.517	37.89
352.728	50.18
352.94	23.55
353.152	91.13
353.363	54.27
353.575	15.36
353.787	52.22
353.999	52.22
354.21	44.03
354.422	21.5
354.633	27.65
354.845	21.5
355.057	33.79
355.268	60.42
355.48	44.03
355.692	9.22
355.903	37.89
356.115	123.9
356.326	11.26
356.538	91.13
356.749	56.32
356.961	89.09
357.172	62.46
357.384	21.5
357.595	125.95
357.807	84.99
358.018	7.17
358.23	70.65
358.441	93.18
358.653	60.42
358.864	54.27
359.075	5.12
359.287	54.27
359.498	56.32
359.709	60.42
359.921	56.32
360.132	72.7
360.344	74.75
360.555	82.94
360.766	72.7
360.977	23.55
361.189	66.56
361.4	-15.36
361.611	72.7
361.823	87.04
362.034	44.03
362.245	-25.6
362.456	52.22
362.667	101.37
362.879	56.32
363.09	44.03
363.301	66.56
363.512	13.31
363.723	89.09
363.935	5.12
364.146	115.71
364.357	37.89
364.568	19.46
364.779	9.22
364.99	89.09
365.201	39.94
365.412	142.33
365.623	-35.84
365.834	37.89
366.045	62.46
366.256	128
366.467	25.6
366.678	64.51
366.889	134.14
367.1	50.18
367.311	76.8
367.522	78.85
367.733	64.51
367.944	68.61
368.155	107.52
368.366	117.76
368.577	121.85
368.788	58.37
368.999	121.85
369.209	15.36
369.42	113.66
369.631	103.42
369.842	-9.22
370.053	7.17
370.264	91.13
370.474	-15.36
370.685	76.8
370.896	99.33
371.107	91.13
371.317	93.18
371.528	128
371.739	66.56
371.95	21.5
372.16	19.46
372.371	44.03
372.582	35.84
372.792	76.8
373.003	5.12
373.214	80.89
373.424	74.75
373.635	58.37
373.846	107.52
374.056	11.26
374.267	68.61
374.477	19.46
374.688	48.13
374.898	25.6
375.109	91.13
375.319	97.28
375.53	33.79
375.74	54.27
375.951	25.6
376.161	76.8
376.372	68.61
376.582	78.85
376.793	84.99
377.003	68.61
377.214	58.37
377.424	138.24
377.635	25.6
377.845	58.37
378.055	66.56
378.266	56.32
378.476	64.51
378.686	50.18
378.897	52.22
379.107	15.36
379.317	113.66
379.528	33.79
379.738	158.72
379.948	25.6
380.158	62.46
380.369	84.99
380.579	162.81
380.789	111.61
380.999	128
381.21	5.12
381.42	87.04
381.63	23.55
381.84	103.42
382.05	64.51
382.261	27.65
382.471	25.6
382.681	9.22
382.891	74.75
383.101	17.41
383.311	31.74
383.521	35.84
383.731	44.03
383.941	56.32
384.151	50.18
384.361	107.52
384.571	39.94
384.781	115.71
384.991	99.33
385.201	101.37
385.411	66.56
385.621	48.13
385.831	70.65
386.041	99.33
386.251	-25.6
386.461	93.18
386.671	5.12
386.881	58.37
387.091	66.56
387.301	109.57
387.511	11.26
387.72	74.75
387.93	13.31
388.14	27.65
388.35	97.28
388.56	78.85
388.769	105.47
388.979	19.46
389.189	33.79
389.399	-9.22
389.609	119.81
389.818	138.24
390.028	-5.12
390.238	84.99
390.447	27.65
390.657	121.85
390.867	107.52
391.076	54.27
391.286	76.8
391.496	113.66
391.705	41.98
391.915	162.81
392.125	39.94
392.334	29.7
392.544	84.99
392.753	48.13
392.963	68.61
393.172	125.95
393.382	3.07
393.591	171.01
393.801	54.27
394.01	101.37
394.22	52.22
394.429	103.42
394.639	91.13
394.848	132.09
395.058	78.85
395.267	111.61
395.477	91.13
395.686	187.39
395.895	105.47
396.105	150.53
396.314	93.18
396.524	58.37
396.733	29.7
396.942	150.53
397.152	78.85
397.361	138.24
397.57	76.8
397.78	84.99
397.989	60.42
398.198	209.92
398.407	140.29
398.617	113.66
398.826	128
399.035	128
399.244	125.95
399.453	70.65
399.663	76.8
399.872	107.52
400.081	113.66
400.29	183.29
400.499	76.8
400.708	111.61
400.917	158.72
401.127	164.86
401.336	142.33
401.545	148.48
401.754	156.67
401.963	162.81
402.172	201.72
402.381	99.33
402.59	142.33
402.799	179.2
403.008	203.77
403.217	146.43
403.426	197.63
403.635	109.57
403.844	130.05
404.053	179.2
404.262	185.34
404.471	160.77
404.68	205.82
404.888	150.53
405.097	109.57
405.306	197.63
405.515	168.96
405.724	166.91
405.933	185.34
406.142	257.02
406.35	136.19
406.559	230.4
406.768	179.2
406.977	297.98
407.185	289.79
407.394	281.6
407.603	201.72
407.812	304.12
408.02	320.51
408.229	279.55
408.438	257.02
408.646	250.88
408.855	314.36
409.064	263.16
409.272	340.99
409.481	340.99
409.69	283.64
409.898	338.94
410.107	381.95
410.315	386.04
410.524	420.86
410.733	437.24
410.941	369.66
411.15	459.77
411.358	445.43
411.567	551.93
411.775	494.58
411.984	576.5
412.192	541.69
412.401	564.22
412.609	556.02
412.818	758.77
413.026	660.47
413.234	691.19
413.443	631.8
413.651	721.91
413.86	670.71
414.068	719.86
414.276	748.53
414.485	787.44
414.693	906.23
414.901	850.93
415.11	889.84
415.318	889.84
415.526	879.6
415.734	863.22
415.943	975.86
416.151	1047.54
416.359	1051.63
416.567	1084.4
416.776	1115.12
416.984	1174.51
417.192	1207.28
417.4	1307.63
417.608	1276.91
417.817	1326.06
418.025	1350.64
418.233	1516.52
418.441	1362.92
418.649	1506.28
418.857	1635.3
419.065	1643.49
419.273	1586.15
419.481	1645.54
419.689	1817.57
419.897	1907.68
420.105	1928.16
420.313	1989.6
420.521	1911.78
420.729	2171.87
420.937	2077.66
421.145	2302.94
421.353	2235.36
421.561	2327.52
421.769	2438.11
421.977	2474.97
422.185	2558.94
422.393	2657.24
422.601	2796.5
422.809	2880.47
423.017	2919.38
423.224	2997.2
423.432	3126.22
423.64	3128.27
423.848	3455.95
424.056	3394.51
424.263	3632.07
424.471	3617.74
424.679	3627.98
424.887	3820.49
425.094	4012.99
425.302	3914.69
425.51	4162.5
425.718	4324.29
425.925	4381.63
426.133	4412.35
426.341	4678.58
426.548	4897.72
426.756	4955.06
426.964	5082.03
427.171	5264.3
427.379	5499.82
427.586	5436.33
427.794	5821.35
428.001	5995.43
428.209	6124.45
428.417	6058.92
428.624	6546.33
428.832	6562.72
429.039	6482.85
429.247	6513.56
429.454	7021.46
429.662	7533.45
429.869	7148.43
430.076	7689.1
430.284	7494.54
430.491	7791.5
430.699	8317.83
430.906	8233.86
431.114	8272.77
431.321	8739.71
431.528	8739.71
431.736	9304.95
431.943	9743.21
432.15	9431.92
432.358	9749.36
432.565	10068.84
432.772	10191.72
432.979	10586.97
433.187	10906.46
433.394	11090.77
433.601	11613.01
433.808	11432.79
434.016	11653.97
434.223	12034.89
434.43	12806.97
434.637	12540.74
434.844	13247.29
435.052	13474.61
435.259	13554.48
435.466	13527.86
435.673	13124.41
435.88	14398.24
436.087	15119.13
436.294	14928.67
436.501	14791.45
436.708	14994.2
436.915	15541.01
437.122	16165.64
437.329	16265.99
437.537	16843.52
437.743	16900.86
437.95	16931.58
438.157	17674.99
438.364	18410.22
438.571	18541.29
438.778	18436.84
438.985	19972.82
439.192	19313.37
439.399	20071.12
439.606	19428.06
439.813	20482.76
440.02	21775.03
440.227	21621.43
440.433	21330.62
440.64	21916.34
440.847	22016.69
441.054	22543.02
441.261	23722.65
441.467	23683.73
441.674	24042.13
441.881	24978.05
442.088	24953.48
442.294	24613.51
442.501	25123.46
442.708	25803.38
442.914	27185.76
443.121	27785.82
443.328	27103.84
443.534	29254.21
443.741	28172.88
443.948	27877.97
444.154	30192.18
444.361	30057.01
444.568	30116.4
444.774	30081.59
444.981	30261.81
445.187	31242.79
445.394	32537.1
445.6	31793.69
445.807	35267.05
446.013	33892.86
446.22	34691.57
446.426	35883.48
446.633	36243.93
446.839	37085.64
447.046	35312.1
447.252	37933.5
447.459	37589.44
447.665	37706.18
447.871	39657.89
448.078	41095.56
448.284	39072.17
448.491	40266.14
448.697	41634.18
448.903	42340.73
449.11	42656.12
449.316	41732.48
449.522	42512.76
449.728	43823.46
449.935	43872.61
450.141	43997.54
450.347	44927.31
450.553	43516.26
450.76	43888.99
450.966	45844.8
451.172	45134.16
451.378	46055.75
451.584	45390.16
451.791	46674.23
451.997	46131.52
452.203	46952.76
452.409	47108.4
452.615	46750.01
452.821	45191.5
453.027	44599.64
453.233	47087.92
453.44	45150.54
453.646	45791.56
453.852	45893.96
454.058	46672.18
454.264	44869.97
454.47	45896
454.676	45185.36
454.882	46694.71
455.088	42676.6
455.294	42910.07
455.5	44220.77
455.705	44220.77
455.911	42697.08
456.117	41816.45
456.323	40931.73
456.529	39029.16
456.735	41013.65
456.941	39784.86
457.147	39049.64
457.352	38058.43
457.558	37401.03
457.764	37466.56
457.97	36940.24
458.176	36583.89
458.381	36080.09
458.587	34417.14
458.793	34228.73
458.999	32348.69
459.204	34722.29
459.41	34058.74
459.616	31365.67
459.821	32086.55
460.027	32029.21
460.233	30829.1
460.438	29180.48
460.644	29966.9
460.85	28512.84
461.055	27742.81
461.261	28158.55
461.466	25850.49
461.672	24697.48
461.878	27058.79
462.083	25127.55
462.289	24576.65
462.494	24208.01
462.7	23298.72
462.905	22743.72
463.111	23683.73
463.316	23575.19
463.522	23157.41
463.727	22796.96
463.932	22813.35
464.138	22897.31
464.343	22719.14
464.549	22112.94
464.754	22909.6
464.959	22512.3
465.165	22622.89
465.37	21557.94
465.575	20976.32
465.781	22117.04
465.986	22059.7
466.191	21416.63
466.397	20896.45
466.602	19720.92
466.807	20859.59
467.012	20601.54
467.218	20396.74
467.423	20189.9
467.628	20406.98
467.833	21369.53
468.038	19968.72
468.244	20073.17
468.449	20579.01
468.654	19821.27
468.859	19571.41
469.064	19790.55
469.269	18836.19
469.474	19145.44
469.679	19305.18
469.885	19055.33
470.09	19190.49
470.295	18877.15
470.5	18496.23
470.705	18602.72
470.91	18131.69
471.115	18117.36
471.32	18561.76
471.525	18182.89
471.73	17830.64
471.935	17650.42
472.139	17203.96
472.344	17394.42
472.549	17296.12
472.754	16935.68
472.959	16685.83
473.164	16302.86
473.369	16325.38
473.574	16974.59
473.778	16509.7
473.983	16282.38
474.188	16411.4
474.393	15616.79
474.598	15737.62
474.802	15356.69
475.007	15520.53
475.212	15336.21
475.417	14934.81
475.621	14924.57
475.826	15074.07
476.031	14625.57
476.235	14269.22
476.44	14654.24
476.645	14353.19
476.849	14416.68
477.054	14140.2
477.259	13986.6
477.463	14113.58
477.668	13415.22
477.872	13794.09
478.077	13308.72
478.282	13175.61
478.486	13075.26
478.691	13019.96
478.895	12843.84
479.1	12856.12
479.304	13009.72
479.509	12577.6
479.713	12694.33
479.918	12405.57
480.122	12235.59
480.326	12424
480.531	12512.07
480.735	12102.47
480.94	12038.98
481.144	12731.2
481.348	11961.16
481.553	12032.84
481.757	11774.8
481.961	12084.04
482.166	12118.86
482.37	12204.87
482.574	11750.22
482.778	11877.19
482.983	12190.53
483.187	11967.31
483.391	11989.83
483.595	11959.11
483.8	11846.48
484.004	11772.75
484.208	12131.14
484.412	11807.56
484.616	11975.5
484.821	12131.14
485.025	11848.52
485.229	12120.9
485.433	11995.98
485.637	12063.56
485.841	11729.74
486.045	11696.97
486.249	11961.16
486.453	11713.36
486.657	11791.18
486.861	12077.9
487.065	11602.77
487.269	11985.74
487.473	11801.42
487.677	12002.12
487.881	12016.46
488.085	11907.91
488.289	11778.89
488.493	11959.11
488.697	12096.33
488.901	11819.85
489.105	12125
489.309	12059.46
489.512	11973.45
489.716	11914.06
489.92	11934.54
490.124	11866.95
490.328	12260.16
490.531	12174.15
490.735	12206.92
490.939	12208.97
491.143	11899.72
491.346	12184.39
491.55	12278.6
491.754	12239.69
491.958	12553.02
492.161	12393.28
492.365	12305.22
492.569	12602.18
492.772	12624.7
492.976	12659.52
493.18	12708.67
493.383	12804.92
493.587	12962.62
493.79	13075.26
493.994	12958.52
494.197	13128.5
494.401	13173.56
494.605	13110.07
494.808	13245.24
495.012	13329.2
495.215	13507.38
495.419	13646.64
495.622	13454.13
495.825	13534
496.029	14105.38
496.232	13935.4
496.436	14035.75
496.639	14287.65
496.843	14420.77
497.046	14570.27
497.249	14586.66
497.453	14742.3
497.656	14793.5
497.859	14936.86
498.063	15016.73
498.266	15528.72
498.469	15385.37
498.673	15676.18
498.876	15754
499.079	16171.79
499.282	15876.88
499.485	16442.12
499.689	16415.49
499.892	16526.08
500.095	16411.4
500.298	17085.18
500.501	16861.95
500.705	17230.59
500.908	17832.69
501.111	17625.84
501.314	17883.89
501.517	18146.03
501.72	18170.6
501.923	18402.02
502.126	18244.33
502.329	18924.26
502.532	19133.15
502.735	19100.38
502.938	19350.23
503.141	19532.5
503.344	19866.32
503.547	19913.42
503.75	20302.54
503.953	20290.25
504.156	20640.45
504.359	20650.69
504.562	20910.78
504.765	21592.76
504.968	21875.38
505.17	21738.16
505.373	22002.35
505.576	22037.17
505.779	22643.37
505.982	22561.45
506.185	23085.73
506.387	23106.21
506.59	23374.49
506.793	23925.39
506.996	23661.21
507.198	24398.48
507.401	24337.04
507.604	24578.7
507.807	25199.23
508.009	25406.08
508.212	25387.64
508.415	25770.61
508.617	26110.58
508.82	25834.1
509.022	25887.35
509.225	26886.76
509.428	26731.11
509.63	26851.94
509.833	27021.92
510.035	27732.57
510.238	27386.46
510.44	28074.58
510.643	28420.69
510.845	28580.43
511.048	28850.76
511.25	29076.04
511.453	29332.03
511.655	30356.02
511.858	30116.4
512.06	30018.1
512.262	30313.01
512.465	30523.95
512.667	31412.77
512.87	31455.78
513.072	31826.46
513.274	31722.01
513.477	32258.58
513.679	32500.24
513.881	32743.95
514.084	33030.66
514.286	33114.63
514.488	33440.26
514.69	34263.54
514.893	34449.91
515.095	34824.68
515.297	34804.2
515.499	35076.58
515.701	35441.12
515.904	35901.92
516.106	35881.44
516.308	36544.98
516.51	36694.48
516.712	36768.21
516.914	37306.82
517.116	37970.36
517.318	38044.09
517.52	37855.68
517.722	38457.78
517.925	39184.81
518.127	39473.57
518.329	39567.78
518.531	39451.05
518.733	40100.25
518.935	40292.76
519.136	40712.59
519.338	41357.7
519.54	40964.49
519.742	41718.15
519.944	41726.34
520.146	42512.76
520.348	42652.02
520.55	42897.78
520.752	43057.52
520.954	43827.56
521.155	43397.48
521.357	44294.49
521.559	44382.55
521.761	44605.78
521.963	44732.76
522.164	45181.26
522.366	45142.35
522.568	45719.88
522.77	45850.95
522.971	46506.3
523.173	46420.28
523.375	46756.15
523.576	46862.64
523.778	46760.25
523.98	47825.19
524.181	47874.34
524.383	47808.81
524.584	48584.99
524.786	48408.86
524.988	48210.21
525.189	48810.26
525.391	49264.91
525.592	49176.85
525.794	49565.96
525.995	49707.27
526.197	49705.23
526.398	49508.62
526.6	50147.59
526.801	50366.72
527.003	50551.04
527.204	50278.66
527.406	50788.6
527.607	50831.61
527.808	51269.87
528.01	50387.2
528.211	51382.51
528.412	51753.19
528.614	52058.34
528.815	51753.19
529.016	52275.43
529.218	51333.36
529.419	51960.04
529.62	52451.55
529.822	52046.05
530.023	52494.56
530.224	52408.54
530.425	52267.23
530.626	52201.7
530.828	51966.18
531.029	53354.71
531.23	52601.05
531.431	52519.13
531.632	53008.6
531.833	53045.46
532.035	52867.29
532.236	53049.56
532.437	53133.53
532.638	52785.37
532.839	53299.41
533.04	53534.93
533.241	52601.05
533.442	53582.03
533.643	53268.69
533.844	53375.19
534.045	53303.51
534.246	52742.36
534.447	53366.99
534.648	53049.56
534.849	53893.32
535.05	53151.96
535.251	53248.21
535.451	53303.51
535.652	53514.45
535.853	53502.16
536.054	53211.35
536.255	53522.64
536.456	53215.44
536.657	53506.26
536.857	53158.1
537.058	53387.47
537.259	53323.99
537.46	53170.39
537.66	53262.55
537.861	53297.36
538.062	53233.88
538.263	53815.5
538.463	53680.33
538.664	53371.09
538.865	53514.45
539.065	53342.42
539.266	52754.65
539.466	53887.18
539.667	53303.51
539.868	53760.2
540.068	53162.2
540.269	53076.18
540.469	53366.99
540.67	53268.69
540.87	53080.28
541.071	52953.3
541.271	53481.68
541.472	53137.62
541.672	52879.58
541.873	52930.78
542.073	52975.83
542.274	53301.46
542.474	52887.77
542.675	52955.35
542.875	53467.34
543.075	53268.69
543.276	52136.16
543.476	53551.31
543.676	52711.64
543.877	52920.54
544.077	52986.07
544.277	52594.91
544.478	53022.93
544.678	52642.01
544.878	52920.54
545.078	52533.47
545.279	52785.37
545.479	52981.98
545.679	53014.74
545.879	52764.89
546.079	52529.37
546.28	52754.65
546.48	52558.05
546.68	53184.72
546.88	52934.87
547.08	52156.64
547.28	52824.28
547.48	52297.95
547.68	52787.42
547.88	52181.22
548.081	53094.61
548.281	52599.01
548.481	51964.14
548.681	52953.3
548.881	52238.56
549.081	52230.37
549.28	52340.96
549.48	52824.28
549.68	52515.04
549.88	53256.4
550.08	52238.56
550.28	52517.09
550.48	52326.63
550.68	52728.03
550.88	52472.03
551.08	52402.4
551.279	52330.72
551.479	51548.4
551.679	52627.68
551.879	52021.48
552.079	52955.35
552.278	52234.47
552.478	52177.12
552.678	51988.71
552.878	52728.03
553.077	52332.77
553.277	51937.51
553.477	52386.02
553.676	51992.81
553.876	52230.37
554.076	52306.15
554.275	51904.74
554.475	51605.74
554.674	52115.68
554.874	52332.77
555.074	51634.41
555.273	52007.14
555.473	51681.52
555.672	51710.19
555.872	51925.22
556.071	51794.15
556.271	51962.09
556.47	51583.21
556.67	50923.77
556.869	51114.23
557.068	51636.46
557.268	51241.2
557.467	51349.74
557.667	51230.96
557.866	51093.75
558.065	50966.77
558.265	51362.03
558.464	50878.71
558.663	51540.21
558.863	50839.8
559.062	51413.23
559.261	50929.91
559.461	51310.83
559.66	50929.91
559.859	50915.58
560.058	50659.58
560.258	50397.44
560.457	49928.45
560.656	50475.26
560.855	50327.81
561.054	50305.28
561.253	49998.09
561.453	50008.32
561.652	50284.8
561.851	50426.11
562.05	50184.45
562.249	49938.69
562.448	50069.76
562.647	49963.27
562.846	49885.45
563.045	49817.86
563.244	49559.82
563.443	50163.97
563.642	49514.76
563.841	49611.02
564.04	49201.43
564.239	49602.83
564.438	49029.4
564.637	49166.61
564.836	48935.19
565.035	48783.64
565.234	48881.94
565.432	48662.81
565.631	48478.49
565.83	48834.84
566.029	48605.47
566.228	48496.92
566.427	48513.31
566.625	48253.22
566.824	47892.77
567.023	48449.82
567.222	47585.58
567.42	48597.27
567.619	47968.55
567.818	47743.27
568.016	47630.63
568.215	47939.88
568.414	47821.09
568.612	48015.65
568.811	47221.04
569.01	47743.27
569.208	47180.08
569.407	47554.86
569.605	46991.67
569.804	47067.44
570.002	46606.65
570.201	47112.5
570.4	46498.11
570.598	46473.53
570.797	46448.96
570.995	46620.98
571.193	45756.74
571.392	46491.96
571.59	46147.9
571.789	46420.28
571.987	46092.61
572.186	46088.51
572.384	45781.32
572.582	45769.03
572.781	45865.28
572.979	45062.48
573.177	45803.85
573.376	45597
573.574	44663.13
573.772	45123.92
573.971	44788.05
574.169	44638.55
574.367	44542.3
574.565	44585.3
574.763	44128.61
574.962	44487
575.16	44517.72
575.358	44468.57
575.556	43913.57
575.754	44339.55
575.952	43827.56
576.151	44312.92
576.349	43667.81
576.547	43721.06
576.745	43618.66
576.943	43964.77
577.141	43663.72
577.339	43551.08
577.537	43135.34
577.735	43016.56
577.933	42500.47
578.131	43139.44
578.329	42869.11
578.527	42166.65
578.725	43002.22
578.923	42791.28
579.121	41988.48
579.319	42475.9
579.516	42262.91
579.714	41984.38
579.912	41853.31
580.11	42000.77
580.308	41650.56
580.506	41761.15
580.704	41058.7
580.901	41705.86
581.099	41716.1
581.297	40888.72
581.495	41390.47
581.692	41003.41
581.89	41163.15
582.088	40980.88
582.285	40569.24
582.483	40894.86
582.681	40511.89
582.878	40448.41
583.076	40292.76
583.274	40765.84
583.471	39393.7
583.669	39924.13
583.866	39877.02
584.064	40313.24
584.262	39770.53
584.459	39621.03
584.657	39479.72
584.854	39940.51
585.052	38883.76
585.249	39106.99
585.447	39322.02
585.644	39203.24
585.841	39141.8
586.039	39295.4
586.236	38410.68
586.434	38353.33
586.631	38476.21
586.828	38326.71
587.026	38736.3
587.223	38070.72
587.42	38222.26
587.618	37939.65
587.815	37358.02
588.012	37831.1
588.21	37460.42
588.407	37874.11
588.604	37118.41
588.801	37132.75
588.999	37372.36
589.196	36993.48
589.393	37114.31
589.59	36702.67
589.787	37013.96
589.984	36399.57
590.182	36231.64
590.379	36602.32
590.576	36391.38
590.773	36268.5
590.97	36231.64
591.167	36237.78
591.364	35938.78
591.561	35811.81
591.758	35328.48
591.955	35703.26
592.152	35738.08
592.349	35486.18
592.546	35527.14
592.743	35703.26
592.94	35146.22
593.137	35160.55
593.334	35207.65
593.531	34662.9
593.727	35285.48
593.924	34761.2
594.121	34359.8
594.318	34488.82
594.515	34056.7
594.712	34249.21
594.908	34085.37
595.105	34410.99
595.302	33817.08
595.499	34056.7
595.696	33929.72
595.892	33843.71
596.089	33548.8
596.286	33618.43
596.482	33849.85
596.679	33579.52
596.876	33505.79
597.072	33153.54
597.269	33430.02
597.466	32942.6
597.662	32676.37
597.859	32913.93
598.055	32913.93
598.252	32793.1
598.448	32518.67
598.645	32915.98
598.841	31891.99
599.038	32379.41
599.234	32432.66
599.431	31902.23
599.627	31736.35
599.824	32043.54
600.02	31490.59
600.217	31689.24
600.413	31611.42
600.609	31425.06
600.806	31203.88
601.002	31461.92
601.198	31109.67
601.395	30986.79
601.591	31181.35
601.787	30941.74
601.984	30511.66
602.18	31015.46
602.376	30673.45
602.572	30528.05
602.769	30528.05
602.965	30132.79
603.161	30454.32
603.357	29760.06
603.553	30503.47
603.75	30399.02
603.946	29639.23
604.142	29887.03
604.338	29387.33
604.534	29731.39
604.73	29151.81
604.926	29440.57
605.122	29387.33
605.318	29456.96
605.514	28789.32
605.71	29270.59
605.906	28654.15
606.102	28910.15
606.298	28856.9
606.494	28879.43
606.69	28922.44
606.886	28721.74
607.082	28344.91
607.278	28695.11
607.474	28306
607.67	28316.24
607.866	27804.25
608.062	28623.44
608.257	28168.79
608.453	28199.51
608.649	28148.31
608.845	28007
609.041	28262.99
609.236	27902.55
609.432	27609.69
609.628	27525.72
609.824	27691.61
610.019	27411.04
610.215	27662.94
610.411	27671.13
610.606	27155.04
610.802	27472.48
610.998	27597.4
611.193	27644.51
611.389	27187.81
611.584	27046.5
611.78	26962.53
611.976	27183.71
612.171	27075.17
612.367	27023.97
612.562	26966.63
612.758	26757.74
612.953	26471.02
613.149	26901.09
613.344	26516.08
613.539	26870.37
613.735	26837.61
613.93	26743.4
614.126	26145.39
614.321	26624.62
614.517	26552.94
614.712	26319.47
614.907	26344.05
615.103	26632.81
615.298	26131.06
615.493	26364.53
615.688	25881.21
615.884	26294.89
616.079	25621.11
616.274	26245.74
616.47	25537.15
616.665	25870.97
616.86	25772.66
617.055	25651.83
617.25	25789.05
617.445	25672.31
617.641	25526.91
617.836	25330.3
618.031	25301.63
618.226	25424.51
618.421	25166.46
618.616	25406.08
618.811	24791.69
619.006	25434.75
619.201	24687.24
619.396	25025.15
619.591	24656.52
619.786	24875.65
619.981	24144.53
620.176	24222.35
620.371	24126.1
620.566	24210.06
620.761	24205.97
620.956	24115.86
621.151	23767.7
621.346	23929.49
621.541	23491.23
621.735	23984.79
621.93	23480.99
622.125	23335.58
622.32	23134.88
622.515	23437.98
622.709	22956.71
622.904	23042.72
623.099	22907.55
623.294	22758.05
623.488	22440.62
623.683	22483.62
623.878	22059.7
624.072	22258.35
624.267	22489.77
624.462	22074.03
624.656	21850.8
624.851	21971.63
625.046	21689.01
625.24	21564.09
625.435	21541.56
625.629	21217.98
625.824	21209.79
626.018	21007.04
626.213	20755.14
626.407	21072.57
626.602	20523.72
626.796	20763.33
626.991	20239.05
627.185	20497.1
627.38	20237
627.574	20409.03
627.768	20116.17
627.963	20054.73
628.157	19817.17
628.352	19946.19
628.546	19409.62
628.74	19860.18
628.935	19342.04
629.129	19501.78
629.323	19145.44
629.517	19188.44
629.712	19010.27
629.906	19174.11
630.1	18424.55
630.294	18668.26
630.489	18664.16
630.683	18735.84
630.877	18328.3
631.071	18381.54
631.265	18408.17
631.459	18057.96
631.653	17982.19
631.848	18076.4
632.042	17787.63
632.236	18195.18
632.43	17674.99
632.624	17582.84
632.818	17666.8
633.012	17289.98
633.206	17394.42
633.4	17392.37
633.594	17201.91
633.788	17246.97
633.982	17195.77
634.176	17062.65
634.369	16823.04
634.563	16968.45
634.757	16751.36
634.951	16644.87
635.145	16554.76
635.339	16362.25
635.533	16159.5
635.726	16347.91
635.92	15837.97
636.114	16517.89
636.308	16040.72
636.501	16020.24
636.695	16018.19
636.889	15930.12
637.083	15860.49
637.276	15758.1
637.47	15467.28
637.664	15573.78
637.857	15379.22
638.051	15301.4
638.244	15321.88
638.438	15174.42
638.632	15010.59
638.825	14805.79
639.019	14904.09
639.212	14682.91
639.406	14928.67
639.599	14635.81
639.793	14652.19
639.986	14455.59
640.18	14727.97
640.373	14527.27
640.567	14261.03
640.76	14162.73
640.954	14076.71
641.147	14132.01
641.34	13919.02
641.534	13900.59
641.727	13984.55
641.92	13933.36
642.114	13607.73
642.307	13579.06
642.5	13558.58
642.694	13378.36
642.887	13423.41
643.08	13402.93
643.273	13153.08
643.467	13237.05
643.66	13138.74
643.853	13103.93
644.046	12929.85
644.239	12972.86
644.432	12813.12
644.626	12854.08
644.819	12565.31
645.012	12720.96
645.205	12749.63
645.398	12786.49
645.591	12378.95
645.784	12501.83
645.977	12303.17
646.17	12520.26
646.363	12165.96
646.556	12069.7
646.749	12045.13
646.942	12190.53
647.135	12094.28
647.328	11715.41
647.521	12043.08
647.714	11666.25
647.907	11627.34
648.099	11694.93
648.292	11739.98
648.485	11565.9
648.678	11434.83
648.871	11342.67
649.064	11295.57
649.256	11197.27
649.449	11281.24
649.642	11193.17
649.835	11133.78
650.027	11240.28
650.22	10881.88
650.413	10933.08
650.605	10804.06
650.798	10885.98
650.991	10750.81
651.183	10681.18
651.376	10660.7
651.568	10695.52
651.761	10627.93
651.954	10623.84
652.146	10464.1
652.339	10441.57
652.531	10371.94
652.724	10244.96
652.916	10050.41
653.109	10122.09
653.301	10066.79
653.494	10103.65
653.686	9950.06
653.879	10079.08
654.071	9988.97
654.263	9915.24
654.456	9796.46
654.648	10029.93
654.84	9374.58
655.033	10003.3
655.225	9636.72
655.417	9405.3
655.61	9610.09
655.802	9421.68
655.994	9614.19
656.186	9503.6
656.379	9388.91
656.571	9304.95
656.763	9180.02
656.955	9132.92
657.148	9306.99
657.34	9208.69
657.532	8934.26
657.724	9051
657.916	9024.37
658.108	8921.98
658.3	8795
658.492	8733.56
658.684	8799.1
658.876	8745.85
659.068	8825.72
659.26	8661.88
659.452	8674.17
659.644	8676.22
659.836	8551.29
660.028	8565.63
660.22	8170.37
660.412	8346.5
660.604	8360.83
660.796	8414.08
660.988	8151.94
661.18	8016.77
661.372	8080.26
661.563	8258.43
661.755	8029.06
661.947	8045.45
662.139	8094.6
662.331	7971.72
662.522	7779.21
662.714	7873.42
662.906	7820.17
663.097	7707.53
663.289	7637.9
663.481	7486.35
663.673	7584.65
663.864	7560.08
664.056	7316.37
664.247	7617.42
664.439	7439.25
664.631	7625.61
664.822	7359.38
665.014	7357.33
665.205	7484.3
665.397	7297.94
665.588	7242.64
665.78	7261.07
665.971	7287.7
666.163	7406.48
666.354	6949.78
666.546	7031.7
666.737	7216.02
666.929	6986.65
667.12	7054.23
667.311	7074.71
667.503	6861.72
667.694	6892.44
667.885	7015.32
668.077	6744.99
668.268	6798.23
668.459	6816.66
668.651	6747.03
668.842	6728.6
669.033	6687.64
669.224	6585.24
669.416	6603.68
669.607	6532
669.798	6603.68
669.989	6624.15
670.18	6454.17
670.371	6413.21
670.563	6380.45
670.754	6454.17
670.945	6212.51
671.136	6366.11
671.327	6286.24
671.518	6282.14
671.709	6282.14
671.9	6159.27
672.091	6214.56
672.282	6263.71
672.473	6144.93
672.664	6202.27
672.855	5907.37
673.046	6044.58
673.237	6323.1
673.428	6118.31
673.619	6042.53
673.809	5893.03
674	6095.78
674.191	5981.09
674.382	5968.8
674.573	5968.8
674.764	5933.99
674.954	6022.05
675.145	5778.34
675.336	5893.03
675.527	5766.06
675.717	5886.89
675.908	5682.09
676.099	5868.45
676.289	5671.85
676.48	5571.5
676.671	5759.91
676.861	5651.37
677.052	5624.75
677.243	5534.64
677.433	5600.17
677.624	5553.07
677.814	5591.98
678.005	5585.83
678.195	5456.81
678.386	5563.31
678.576	5538.73
678.767	5467.05
678.957	5229.49
679.148	5528.49
679.338	5272.5
679.529	5278.64
679.719	5368.75
679.909	5381.04
680.1	5307.31
680.29	5479.34
680.481	5131.19
680.671	5301.17
680.861	5120.95
681.052	5276.59
681.242	5178.29
681.432	5499.82
681.622	5223.34
681.813	5125.04
682.003	5139.38
682.193	5112.75
682.383	5161.91
682.573	5112.75
682.764	5204.91
682.954	4985.78
683.144	5147.57
683.334	5129.14
683.524	5065.65
683.714	5086.13
683.904	4938.68
684.094	5008.31
684.284	4910.01
684.474	5077.94
684.664	4985.78
684.854	4873.14
685.044	4944.82
685.234	4936.63
685.424	5020.6
685.614	4836.28
685.804	4963.25
685.994	4719.54
686.184	4764.6
686.374	4899.77
686.564	4717.5
686.753	4701.11
686.943	4680.63
687.133	4651.96
687.323	4674.49
687.513	4572.09
687.702	4742.07
687.892	4473.79
688.082	4570.04
688.272	4531.13
688.461	4531.13
688.651	4561.85
688.841	4604.86
689.03	4490.17
689.22	4572.09
689.41	4654.01
689.599	4520.89
689.789	4506.56
689.979	4359.1
690.168	4465.6
690.358	4375.49
690.547	4338.62
690.737	4326.33
690.926	4314.05
691.116	4316.09
691.305	4406.2
691.495	4133.82
691.684	4357.05
691.874	4344.77
692.063	4144.06
692.252	4203.46
692.442	4207.55
692.631	4056
692.82	4154.3
693.01	4127.68
693.199	4121.54
693.388	4027.33
693.578	4062.15
693.767	3926.98
693.956	4002.75
694.146	4043.71
694.335	3998.66
694.524	3972.04
694.713	4056
694.902	4086.72
695.092	4006.85
695.281	3894.21
695.47	3826.63
695.659	3947.46
695.848	3859.4
696.037	3951.56
696.226	3902.4
696.415	3797.96
696.604	3840.97
696.793	3867.59
696.982	3912.64
697.171	3853.25
697.36	3775.43
697.549	3820.49
697.738	3888.07
697.927	3730.38
698.116	3845.06
698.305	3869.64
698.494	3861.45
698.683	3802.05
698.872	3865.54
699.061	3664.84
699.25	3713.99
699.438	3679.18
699.627	3691.46
699.816	3705.8
700.005	3675.08
700.193	3566.54
700.382	3617.74
700.571	3810.25
700.76	3642.31
700.948	3722.18
701.137	3795.91
701.326	3695.56
701.514	3609.54
701.703	3574.73
701.892	3562.44
702.08	3597.26
702.269	3572.68
702.457	3570.63
702.646	3613.64
702.834	3433.42
703.023	3482.57
703.212	3564.49
703.4	3451.85
703.589	3541.96
703.777	3492.81
703.965	3392.46
704.154	3599.31
704.342	3355.6
704.531	3380.17
704.719	3441.61
704.907	3431.37
705.096	3355.6
705.284	3234.77
705.472	3421.13
705.661	3447.76
705.849	3328.97
706.037	3425.23
706.226	3353.55
706.414	3339.21
706.602	3202
706.79	3279.82
706.979	3187.66
707.167	3128.27
707.355	3410.89
707.543	3298.25
707.731	3312.59
707.919	3236.81
708.107	3230.67
708.296	3310.54
708.484	3179.47
708.672	3181.52
708.86	3202
709.048	3236.81
709.236	3312.59
709.424	3281.87
709.612	3183.57
709.8	3087.31
709.988	3097.55
710.176	3304.4
710.364	3337.17
710.551	3228.62
710.739	3204.05
710.927	3093.46
711.115	3210.19
711.303	3052.5
711.491	3097.55
711.679	3054.55
711.866	3138.51
712.054	3165.14
712.242	3036.11
712.43	3173.33
712.617	2966.48
712.805	3068.88
712.993	2968.53
713.181	3048.4
713.368	3048.4
713.556	3062.74
713.744	3064.79
713.931	3044.31
714.119	3052.5
714.306	3060.69
714.494	3001.3
714.682	3003.35
714.869	2939.86
715.057	2937.81
715.244	3011.54
715.432	3058.64
715.619	2995.15
715.807	2915.28
715.994	2954.19
716.182	2876.37
716.369	2857.94
716.556	2933.72
716.744	2976.72
716.931	3005.39
717.119	2751.45
717.306	2919.38
717.493	2857.94
717.681	2937.81
717.868	2876.37
718.055	2839.51
718.242	2919.38
718.43	2866.13
718.617	2952.15
718.804	2888.66
718.991	2792.41
719.179	2814.93
719.366	2929.62
719.553	2786.26
719.74	2831.32
719.927	2728.92
720.114	2737.11
720.301	2812.89
720.488	2728.92
720.676	2870.23
720.863	2790.36
721.05	2753.49
721.237	2694.1
721.424	2823.12
721.611	2704.34
721.798	2481.11
721.985	2712.53
722.172	2735.06
722.358	2728.92
722.545	2726.87
722.732	2575.32
722.919	2618.33
723.106	2753.49
723.293	2649.05
723.48	2595.8
723.667	2610.14
723.853	2585.56
724.04	2749.4
724.227	2622.42
724.414	2599.9
724.6	2687.96
724.787	2597.85
724.974	2663.38
725.161	2591.7
725.347	2651.1
725.534	2618.33
725.72	2485.21
725.907	2622.42
726.094	2565.08
726.28	2546.65
726.467	2415.58
726.653	2569.18
726.84	2550.75
727.027	2667.48
727.213	2499.55
727.4	2638.81
727.586	2474.97
727.773	2505.69
727.959	2442.2
728.145	2505.69
728.332	2479.07
728.518	2655.19
728.705	2659.29
728.891	2444.25
729.077	2474.97
729.264	2446.3
729.45	2477.02
729.636	2526.17
729.823	2655.19
730.009	2423.77
730.195	2440.15
730.382	2399.2
730.568	2374.62
730.754	2462.68
730.94	2468.83
731.126	2395.1
731.313	2528.22
731.499	2622.42
731.685	2462.68
731.871	2423.77
732.057	2388.96
732.243	2315.23
732.429	2348
732.615	2540.51
732.801	2345.95
732.987	2296.8
733.173	2376.67
733.359	2413.53
733.545	2317.28
733.731	2366.43
733.917	2395.1
734.103	2270.17
734.289	2380.76
734.475	2317.28
734.661	2343.9
734.847	2214.88
735.033	2405.34
735.219	2339.8
735.404	2415.58
735.59	2284.51
735.776	2163.68
735.962	2329.56
736.148	2407.39
736.333	2218.97
736.519	2372.57
736.705	2208.73
736.89	2161.63
737.076	2270.17
737.262	2145.25
737.447	2268.13
737.633	2270.17
737.819	2304.99
738.004	2159.58
738.19	2139.1
738.375	2196.45
738.561	2233.31
738.747	2147.3
738.932	2071.52
739.118	2216.93
739.303	2229.21
739.489	2135.01
739.674	2094.05
739.859	2124.77
740.045	2143.2
740.23	2165.73
740.416	1983.46
740.601	2194.4
740.786	2124.77
740.972	2087.9
741.157	1950.69
741.342	2159.58
741.528	2001.89
741.713	2020.32
741.898	2096.1
742.084	1997.79
742.269	2044.9
742.454	2120.67
742.639	2061.28
742.824	1985.51
743.01	1969.12
743.195	1981.41
743.38	1958.88
743.565	1942.5
743.75	1823.72
743.935	1893.35
744.12	2020.32
744.305	1903.59
744.49	1876.96
744.675	1952.74
744.86	1790.95
745.045	1864.68
745.23	1768.42
745.415	1969.12
745.6	1715.17
745.785	1930.21
745.97	1850.34
746.155	1825.76
746.34	1862.63
746.525	1782.76
746.71	1928.16
746.895	1749.99
747.079	1809.38
747.264	1758.18
747.449	1821.67
747.634	1793
747.819	1833.96
748.003	1809.38
748.188	1588.2
748.373	1721.32
748.557	1766.37
748.742	1788.9
748.927	1602.54
749.111	1639.4
749.296	1629.16
749.481	1682.41
749.665	1580.01
749.85	1678.31
750.034	1547.24
750.219	1651.69
750.404	1537
750.588	1549.29
750.773	1543.14
750.957	1545.19
751.141	1588.2
751.326	1612.78
751.51	1526.76
751.695	1475.56
751.879	1500.14
752.064	1600.49
752.248	1375.21
752.432	1532.9
752.617	1534.95
752.801	1416.17
752.985	1491.95
753.17	1440.75
753.354	1426.41
753.538	1487.85
753.722	1448.94
753.907	1416.17
754.091	1356.78
754.275	1436.65
754.459	1371.12
754.643	1238
754.828	1285.1
755.012	1305.58
755.196	1311.72
755.38	1238
755.564	1319.92
755.748	1307.63
755.932	1358.83
756.116	1295.34
756.3	1246.19
756.484	1246.19
756.668	1287.15
756.852	1240.05
757.036	1250.28
757.22	1330.16
757.404	1192.94
757.588	1176.56
757.772	1221.61
757.956	1221.61
758.14	1227.76
758.323	1209.33
758.507	1225.71
758.691	1115.12
758.875	1205.23
759.059	1156.08
759.242	1143.79
759.426	1096.69
759.61	1090.54
759.794	1133.55
759.977	1166.32
760.161	1111.02
760.345	1166.32
760.528	1065.97
760.712	1047.54
760.895	1111.02
761.079	998.38
761.263	1033.2
761.446	967.67
761.63	1096.69
761.813	975.86
761.997	1047.54
762.18	1031.15
762.364	1039.34
762.547	996.34
762.731	979.95
762.914	1055.73
763.098	957.43
763.281	973.81
763.464	1008.62
763.648	1037.3
763.831	959.47
764.015	994.29
764.198	1020.91
764.381	934.9
764.564	906.23
764.748	1082.35
764.931	910.32
765.114	918.51
765.297	988.14
765.481	973.81
765.664	910.32
765.847	984.05
766.03	943.09
766.213	869.36
766.397	885.75
766.58	947.19
766.763	922.61
766.946	883.7
767.129	832.5
767.312	842.74
767.495	963.57
767.678	859.12
767.861	941.04
768.044	887.79
768.227	861.17
768.41	908.27
768.593	951.28
768.776	889.84
768.959	814.07
769.142	797.68
769.324	879.6
769.507	893.94
769.69	881.65
769.873	838.64
770.056	844.79
770.239	807.92
770.421	898.03
770.604	828.4
770.787	891.89
770.97	838.64
771.152	818.16
771.335	863.22
771.518	760.82
771.7	814.07
771.883	814.07
772.066	742.39
772.248	721.91
772.431	789.49
772.613	734.2
772.796	750.58
772.978	742.39
773.161	781.3
773.343	836.6
773.526	742.39
773.708	795.64
773.891	721.91
774.073	717.81
774.256	709.62
774.438	732.15
774.621	764.92
774.803	672.76
774.985	742.39
775.168	730.1
775.35	660.47
775.532	713.72
775.715	594.93
775.897	642.04
776.079	744.44
776.261	644.09
776.444	715.77
776.626	603.13
776.808	668.66
776.99	660.47
777.173	594.93
777.355	685.05
777.537	633.85
777.719	627.7
777.901	609.27
778.083	611.32
778.265	584.7
778.447	644.09
778.629	625.65
778.811	603.13
778.993	576.5
779.175	599.03
779.357	660.47
779.539	564.22
779.721	580.6
779.903	646.13
780.085	570.36
780.267	523.26
780.449	562.17
780.631	586.74
780.812	543.74
780.994	576.5
781.176	566.26
781.358	592.89
781.54	465.91
781.721	613.37
781.903	508.92
782.085	623.61
782.267	490.49
782.448	590.84
782.63	515.06
782.812	533.5
782.993	545.78
783.175	472.06
783.357	455.67
783.538	455.67
783.72	498.68
783.901	484.34
784.083	484.34
784.264	467.96
784.446	386.04
784.627	445.43
784.809	492.54
784.99	508.92
785.172	463.86
785.353	492.54
785.535	488.44
785.716	470.01
785.897	414.71
786.079	478.2
786.26	500.73
786.441	472.06
786.623	424.95
786.804	322.56
786.985	363.51
787.167	377.85
787.348	435.19
787.529	453.63
787.71	367.61
787.891	424.95
788.073	334.84
788.254	363.51
788.435	445.43
788.616	367.61
788.797	381.95
788.978	371.71
789.159	437.24
789.34	390.14
789.522	365.56
789.703	320.51
789.884	334.84
790.065	435.19
790.246	340.99
790.427	347.13
790.607	429.05
790.788	347.13
790.969	361.47
791.15	324.6
791.331	398.33
791.512	363.51
791.693	332.79
791.874	345.08
792.054	322.56
792.235	334.84
792.416	330.75
792.597	332.79
792.778	326.65
792.958	367.61
793.139	224.25
793.32	328.7
793.5	275.45
793.681	324.6
793.862	293.88
794.042	318.46
794.223	283.64
794.404	322.56
794.584	285.69
794.765	287.74
794.945	261.12
795.126	291.84
795.306	330.75
795.487	316.41
795.667	254.97
795.848	265.21
796.028	318.46
796.209	207.87
796.389	248.83
796.57	314.36
796.75	205.82
796.93	257.02
797.111	254.97
797.291	279.55
797.471	248.83
797.652	273.4
797.832	330.75
798.012	283.64
798.192	228.35
798.373	224.25
798.553	232.44
798.733	224.25
798.913	197.63
799.093	185.34
799.274	265.21
799.454	312.32
799.634	293.88
799.814	197.63
799.994	289.79
800.174	244.73
800.354	318.46
800.534	265.21
800.714	191.49
800.894	244.73
801.074	232.44
801.254	160.77
801.434	218.11
801.614	300.03
801.794	185.34
801.974	693.24
802.154	234.49
802.334	244.73
802.514	209.92
802.693	214.01
802.873	177.15
803.053	185.34
803.233	160.77
803.413	214.01
803.592	173.05
803.772	199.68
803.952	203.77
804.131	234.49
804.311	224.25
804.491	218.11
804.67	207.87
804.85	238.59
805.03	246.78
805.209	302.08
805.389	140.29
805.568	111.61
805.748	148.48
805.928	216.06
806.107	177.15
806.287	205.82
806.466	252.92
806.646	203.77
806.825	173.05
807.004	173.05
807.184	197.63
807.363	244.73
807.543	226.3
807.722	164.86
807.901	171.01
808.081	173.05
808.26	107.52
808.439	244.73
808.619	205.82
808.798	128
808.977	107.52
809.156	160.77
809.336	142.33
809.515	265.21
809.694	177.15
809.873	156.67
810.052	211.96
810.231	95.23
810.411	138.24
810.59	162.81
810.769	173.05
810.948	140.29
811.127	164.86
811.306	134.14
811.485	168.96
811.664	158.72
811.843	173.05
812.022	234.49
812.201	199.68
812.38	148.48
812.559	109.57
812.737	132.09
812.916	166.91
813.095	185.34
813.274	136.19
813.453	211.96
813.632	152.57
813.811	132.09
813.989	148.48
814.168	138.24
814.347	111.61
814.526	103.42
814.704	140.29
814.883	199.68
815.062	162.81
815.24	95.23
815.419	168.96
815.598	152.57
815.776	189.44
815.955	113.66
816.133	97.28
816.312	173.05
816.49	107.52
816.669	179.2
816.847	179.2
817.026	154.62
817.204	130.05
817.383	117.76
817.561	74.75
817.74	144.38
817.918	107.52
818.097	162.81
818.275	148.48
818.453	128
818.632	146.43
818.81	152.57
818.988	82.94
819.167	179.2
819.345	105.47
819.523	107.52
819.701	134.14
819.879	117.76
820.058	123.9
820.236	158.72
820.414	64.51
820.592	177.15
820.77	175.1
820.948	58.37
821.127	46.08
821.305	97.28
821.483	113.66
821.661	132.09
821.839	39.94
822.017	115.71
822.195	68.61
822.373	58.37
822.551	78.85
822.729	132.09
822.907	82.94
823.085	134.14
823.262	64.51
823.44	121.85
823.618	125.95
823.796	113.66
823.974	58.37
824.152	119.81
824.329	78.85
824.507	101.37
824.685	93.18
824.863	60.42
825.04	95.23
825.218	109.57
825.396	74.75
825.574	115.71
825.751	78.85
825.929	148.48
826.107	89.09
826.284	105.47
826.462	164.86
826.639	44.03
826.817	37.89
826.994	80.89
827.172	93.18
827.349	144.38
827.527	132.09
827.704	11.26
827.882	136.19
828.059	58.37
828.237	72.7
828.414	72.7
828.591	113.66
828.769	78.85
828.946	68.61
829.124	72.7
829.301	138.24
829.478	115.71
829.655	144.38
829.833	44.03
830.01	103.42
830.187	82.94
830.364	62.46
830.542	101.37
830.719	64.51
830.896	74.75
831.073	72.7
831.25	52.22
831.427	35.84
831.604	35.84
831.782	-15.36
831.959	74.75
832.136	136.19
832.313	80.89
832.49	35.84
832.667	27.65
832.844	113.66
833.021	113.66
833.198	56.32
833.374	107.52
833.551	48.13
833.728	89.09
833.905	33.79
834.082	19.46
834.259	23.55
834.436	82.94
834.612	44.03
834.789	144.38
834.966	181.25
835.143	27.65
835.319	-1.02
835.496	19.46
835.673	66.56
835.85	117.76
836.026	76.8
836.203	46.08
836.38	113.66
836.556	46.08
836.733	-17.41
836.909	109.57
837.086	48.13
837.262	29.7
837.439	23.55
837.616	25.6
837.792	9.22
837.968	48.13
838.145	17.41
838.321	82.94
838.498	121.85
838.674	33.79
838.851	56.32
839.027	41.98
839.203	9.22
839.38	48.13
839.556	87.04
839.732	91.13
839.909	111.61
840.085	52.22
840.261	52.22
840.437	97.28
840.614	19.46
840.79	105.47
840.966	113.66
841.142	103.42
841.318	33.79
841.494	44.03
841.671	103.42
841.847	95.23
842.023	113.66
842.199	80.89
842.375	99.33
842.551	50.18
842.727	-29.7
842.903	109.57
843.079	35.84
843.255	80.89
843.431	-48.13
843.607	134.14
843.783	21.5
843.959	76.8
844.134	60.42
844.31	50.18
844.486	21.5
844.662	-31.74
844.838	72.7
845.013	66.56
845.189	76.8
845.365	15.36
845.541	27.65
845.716	93.18
845.892	60.42
846.068	35.84
846.244	44.03
846.419	134.14
846.595	80.89
846.77	21.5
846.946	1.02
847.122	-15.36
847.297	-5.12
847.473	48.13
847.648	68.61
847.824	-5.12
847.999	-21.5
848.175	31.74
848.35	72.7
848.526	76.8
848.701	-9.22
848.876	66.56
849.052	62.46
849.227	60.42
849.403	-29.7
849.578	66.56
849.753	80.89
849.929	50.18
850.104	21.5
850.279	41.98
850.454	37.89
850.63	91.13
850.805	9.22
850.98	-68.61
851.155	48.13
851.33	105.47
851.505	27.65
851.681	66.56
851.856	7.17
852.031	91.13
852.206	1.02
852.381	48.13
852.556	33.79
852.731	125.95
852.906	21.5
853.081	35.84
853.256	-3.07
853.431	101.37
853.606	-50.18
853.781	25.6
853.956	60.42
854.131	95.23
854.305	-1.02
854.48	44.03
854.655	41.98
854.83	9.22
855.005	39.94
855.18	-44.03
855.354	33.79
855.529	39.94
855.704	46.08
855.879	74.75
856.053	-9.22
856.228	15.36
856.403	-15.36
856.577	44.03
856.752	15.36
856.926	39.94
857.101	52.22
857.276	19.46
857.45	78.85
857.625	31.74
857.799	56.32
857.974	-27.65
858.148	27.65
858.323	41.98
858.497	35.84
858.672	72.7
858.846	41.98
859.02	74.75
859.195	46.08
859.369	33.79
859.543	-17.41
859.718	60.42
859.892	11.26
860.066	35.84
860.241	78.85
860.415	-37.89
860.589	-56.32
860.763	27.65
860.938	-23.55
861.112	1.02
861.286	3.07
861.46	66.56
861.634	-7.17
861.808	-5.12
861.982	46.08
862.157	31.74
862.331	48.13
862.505	-35.84
862.679	15.36
862.853	56.32
863.027	11.26
863.201	15.36
863.375	-1.02
863.549	13.31
863.722	-23.55
863.896	54.27
864.07	-80.89
864.244	39.94
864.418	33.79
864.592	39.94
864.766	56.32
864.939	11.26
865.113	19.46
865.287	25.6
865.461	50.18
865.634	-13.31
865.808	-19.46
865.982	82.94
866.156	-66.56
866.329	25.6
866.503	54.27
866.676	97.28
866.85	87.04
867.024	1.02
867.197	33.79
867.371	29.7
867.544	87.04
867.718	-31.74
867.891	27.65
868.065	-46.08
868.238	39.94
868.412	95.23
868.585	-27.65
868.759	25.6
868.932	-13.31
869.105	41.98
869.279	-19.46
869.452	54.27
869.625	1.02
869.799	27.65
869.972	5.12
870.145	19.46
870.319	-29.7
870.492	17.41
870.665	72.7
870.838	-37.89
871.011	-33.79
871.185	3.07
871.358	-35.84
871.531	50.18
871.704	44.03
871.877	48.13
872.05	-1.02
872.223	50.18
872.396	1.02
872.569	84.99
872.742	-13.31
872.915	46.08
873.088	-31.74
873.261	107.52
873.434	-1.02
873.607	-9.22
873.78	46.08
873.953	44.03
874.126	52.22
874.299	9.22
874.471	39.94
874.644	37.89
874.817	111.61
874.99	52.22
875.163	50.18
875.335	-29.7
875.508	27.65
875.681	-7.17
875.853	46.08
876.026	76.8
876.199	84.99
876.371	-3.07
876.544	-29.7
876.717	-35.84
876.889	31.74
877.062	5.12
877.234	5.12
877.407	13.31
877.579	-31.74
877.752	78.85
877.924	68.61
878.097	37.89
878.269	64.51
878.442	-17.41
878.614	-31.74
878.786	3.07
878.959	31.74
879.131	37.89
879.303	33.79
879.476	64.51
879.648	25.6
879.82	48.13
879.993	-93.18
880.165	33.79
880.337	9.22
880.509	50.18
880.681	7.17
880.854	29.7
881.026	54.27
881.198	52.22
881.37	35.84
881.542	52.22
881.714	21.5
881.886	11.26
882.058	31.74
882.23	31.74
882.402	13.31
882.574	-9.22
882.746	3.07
882.918	-17.41
883.09	82.94
883.262	66.56
883.434	27.65
883.606	-5.12
883.778	41.98
883.95	21.5
884.122	-60.42
884.293	68.61
884.465	101.37
884.637	97.28
884.809	-11.26
884.98	15.36
885.152	5.12
885.324	84.99
885.496	-25.6
885.667	41.98
885.839	25.6
886.011	23.55
886.182	37.89
886.354	46.08
886.525	35.84
886.697	37.89
886.869	-1.02
887.04	3.07
887.212	-1.02
887.383	58.37
887.555	-13.31
887.726	1.02
887.897	-37.89
888.069	19.46
888.24	25.6
888.412	-41.98
888.583	9.22
888.754	-101.37
888.926	7.17
889.097	-7.17
889.268	11.26
889.44	27.65
889.611	11.26
889.782	70.65
889.953	17.41
890.125	62.46
890.296	-5.12
890.467	-17.41
890.638	-37.89
890.809	17.41
890.98	-5.12
891.151	52.22
891.323	37.89
891.494	13.31
891.665	-11.26
891.836	72.7
892.007	52.22
892.178	52.22
892.349	29.7
892.52	-31.74
892.691	-33.79
892.862	13.31
893.032	-15.36
893.203	-19.46
893.374	21.5
893.545	3.07
893.716	11.26
893.887	-56.32
894.057	21.5
894.228	33.79
894.399	56.32
894.57	60.42
894.74	19.46
894.911	25.6
895.082	62.46
895.253	-19.46
895.423	-5.12
895.594	52.22
895.764	-21.5
895.935	19.46
896.106	-5.12
896.276	-80.89
896.447	3.07
896.617	19.46
896.788	9.22
896.958	13.31
897.129	7.17
897.299	50.18
897.47	17.41
897.64	-41.98
897.81	-89.09
897.981	-1.02
898.151	-35.84
898.322	19.46
898.492	7.17
898.662	87.04
898.832	27.65
899.003	-15.36
899.173	54.27
899.343	-37.89
899.513	-17.41
