Data from USB4F104151__51__12-36-07-878.txt Node

Date: Fri Mar 14 12:36:07 EDT 2025
User: louis
Spectrometer: USB4F10415
Trigger mode: 4
Integration Time (sec): 2.000000E-2
Scans to average: 1
Electric dark correction enabled: true
Nonlinearity correction enabled: false
Boxcar width: 0
XAxis mode: Wavelengths
Number of Pixels in Spectrum: 3648
>>>>>Begin Spectral Data<<<<<
178.204	-77.14
178.424	-77.14
178.644	-77.14
178.864	-17.75
179.084	-64.85
179.304	23.21
179.524	64.17
179.744	31.4
179.964	2.73
180.184	35.5
180.404	-50.52
180.624	-79.19
180.844	39.59
181.064	-32.08
181.283	-44.37
181.503	-34.13
181.723	43.69
181.943	12.97
182.163	-7.51
182.383	-5.46
182.602	17.07
182.822	21.16
183.042	31.4
183.262	-9.56
183.482	51.88
183.701	60.07
183.921	-44.37
184.141	82.6
184.361	103.08
184.58	15.02
184.8	74.41
185.02	35.5
185.239	62.12
185.459	10.92
185.679	43.69
185.898	-42.32
186.118	31.4
186.338	53.93
186.557	72.36
186.777	-1.37
186.997	27.31
187.216	84.65
187.436	72.36
187.655	43.69
187.875	47.79
188.095	35.5
188.314	21.16
188.534	15.02
188.753	21.16
188.973	45.74
189.192	62.12
189.412	84.65
189.631	74.41
189.851	41.64
190.07	29.35
190.29	-3.41
190.509	39.59
190.729	-9.56
190.948	53.93
191.168	15.02
191.387	60.07
191.607	27.31
191.826	31.4
192.045	35.5
192.265	-7.51
192.484	-7.51
192.704	-9.56
192.923	-9.56
193.142	51.88
193.362	-9.56
193.581	107.18
193.8	-1.37
194.02	74.41
194.239	96.94
194.458	72.36
194.678	41.64
194.897	17.07
195.116	45.74
195.335	-1.37
195.555	33.45
195.774	43.69
195.993	64.17
196.212	-11.61
196.432	-9.56
196.651	33.45
196.87	-23.89
197.089	144.04
197.308	6.83
197.528	29.35
197.747	41.64
197.966	66.22
198.185	31.4
198.404	37.55
198.623	72.36
198.842	4.78
199.062	-13.65
199.281	31.4
199.5	27.31
199.719	72.36
199.938	35.5
200.157	53.93
200.376	119.46
200.595	66.22
200.814	84.65
201.033	-54.61
201.252	109.23
201.471	76.46
201.69	17.07
201.909	29.35
202.128	2.73
202.347	49.83
202.566	33.45
202.785	66.22
203.004	-52.56
203.223	105.13
203.442	43.69
203.661	-21.85
203.879	39.59
204.098	-21.85
204.317	43.69
204.536	70.31
204.755	12.97
204.974	62.12
205.193	49.83
205.411	170.66
205.63	-5.46
205.849	37.55
206.068	33.45
206.287	21.16
206.505	60.07
206.724	39.59
206.943	-30.04
207.162	39.59
207.381	25.26
207.599	68.27
207.818	37.55
208.037	66.22
208.255	-5.46
208.474	64.17
208.693	60.07
208.911	-3.41
209.13	43.69
209.349	90.79
209.567	35.5
209.786	35.5
210.005	39.59
210.223	47.79
210.442	49.83
210.661	33.45
210.879	45.74
211.098	-27.99
211.316	-7.51
211.535	31.4
211.753	35.5
211.972	41.64
212.191	15.02
212.409	64.17
212.628	23.21
212.846	53.93
213.065	76.46
213.283	70.31
213.502	72.36
213.72	17.07
213.938	33.45
214.157	66.22
214.375	96.94
214.594	-9.56
214.812	60.07
215.031	29.35
215.249	35.5
215.467	162.47
215.686	8.87
215.904	45.74
216.122	49.83
216.341	-9.56
216.559	41.64
216.778	6.83
216.996	66.22
217.214	-5.46
217.432	45.74
217.651	72.36
217.869	58.03
218.087	58.03
218.306	10.92
218.524	55.98
218.742	-44.37
218.96	19.11
219.179	92.84
219.397	55.98
219.615	43.69
219.833	-27.99
220.051	15.02
220.27	58.03
220.488	70.31
220.706	70.31
220.924	-9.56
221.142	115.37
221.36	-13.65
221.578	41.64
221.796	70.31
222.015	25.26
222.233	-5.46
222.451	92.84
222.669	2.73
222.887	27.31
223.105	17.07
223.323	-17.75
223.541	70.31
223.759	129.7
223.977	43.69
224.195	80.55
224.413	12.97
224.631	15.02
224.849	62.12
225.067	152.23
225.285	8.87
225.503	12.97
225.721	64.17
225.939	111.27
226.157	-40.28
226.375	101.03
226.592	-34.13
226.81	-13.65
227.028	37.55
227.246	66.22
227.464	55.98
227.682	25.26
227.9	17.07
228.117	49.83
228.335	8.87
228.553	74.41
228.771	25.26
228.989	58.03
229.206	-17.75
229.424	49.83
229.642	80.55
229.86	-1.37
230.077	60.07
230.295	84.65
230.513	-48.47
230.731	25.26
230.948	82.6
231.166	80.55
231.384	4.78
231.601	47.79
231.819	76.46
232.037	74.41
232.254	62.12
232.472	70.31
232.689	6.83
232.907	39.59
233.125	23.21
233.342	-36.18
233.56	66.22
233.777	55.98
233.995	37.55
234.213	64.17
234.43	6.83
234.648	-1.37
234.865	-9.56
235.083	76.46
235.3	25.26
235.518	6.83
235.735	115.37
235.953	55.98
236.17	33.45
236.388	6.83
236.605	19.11
236.822	96.94
237.04	43.69
237.257	105.13
237.475	-42.32
237.692	37.55
237.909	41.64
238.127	64.17
238.344	6.83
238.562	53.93
238.779	-46.42
238.996	-36.18
239.214	133.8
239.431	25.26
239.648	-21.85
239.865	8.87
240.083	146.09
240.3	60.07
240.517	51.88
240.735	-21.85
240.952	105.13
241.169	78.51
241.386	35.5
241.603	49.83
241.821	10.92
242.038	8.87
242.255	-5.46
242.472	25.26
242.689	29.35
242.907	-13.65
243.124	29.35
243.341	-9.56
243.558	88.75
243.775	39.59
243.992	60.07
244.209	78.51
244.426	39.59
244.643	33.45
244.86	78.51
245.078	-23.89
245.295	86.7
245.512	49.83
245.729	-38.23
245.946	39.59
246.163	-5.46
246.38	98.99
246.597	39.59
246.814	60.07
247.031	82.6
247.248	37.55
247.464	10.92
247.681	15.02
247.898	49.83
248.115	148.14
248.332	39.59
248.549	74.41
248.766	80.55
248.983	72.36
249.2	25.26
249.417	98.99
249.633	17.07
249.85	66.22
250.067	31.4
250.284	12.97
250.501	25.26
250.717	45.74
250.934	43.69
251.151	17.07
251.368	51.88
251.585	39.59
251.801	39.59
252.018	-15.7
252.235	55.98
252.451	39.59
252.668	39.59
252.885	72.36
253.102	21.16
253.318	121.51
253.535	92.84
253.752	109.23
253.968	31.4
254.185	10.92
254.401	35.5
254.618	74.41
254.835	41.64
255.051	74.41
255.268	25.26
255.484	6.83
255.701	-23.89
255.917	68.27
256.134	-34.13
256.351	21.16
256.567	23.21
256.784	-19.8
257	35.5
257.217	-13.65
257.433	82.6
257.65	74.41
257.866	19.11
258.082	-44.37
258.299	19.11
258.515	39.59
258.732	-11.61
258.948	68.27
259.165	43.69
259.381	29.35
259.597	-3.41
259.814	43.69
260.03	-40.28
260.246	29.35
260.463	-60.76
260.679	45.74
260.895	-15.7
261.112	15.02
261.328	37.55
261.544	-9.56
261.761	49.83
261.977	25.26
262.193	82.6
262.409	23.21
262.626	49.83
262.842	2.73
263.058	31.4
263.274	76.46
263.49	12.97
263.707	98.99
263.923	37.55
264.139	49.83
264.355	-5.46
264.571	121.51
264.787	107.18
265.004	74.41
265.22	49.83
265.436	88.75
265.652	39.59
265.868	78.51
266.084	39.59
266.3	86.7
266.516	-11.61
266.732	80.55
266.948	35.5
267.164	21.16
267.38	113.32
267.596	49.83
267.812	0.68
268.028	51.88
268.244	27.31
268.46	82.6
268.676	17.07
268.892	27.31
269.108	-40.28
269.324	27.31
269.54	-25.94
269.756	39.59
269.972	43.69
270.188	109.23
270.403	-3.41
270.619	-5.46
270.835	19.11
271.051	64.17
271.267	21.16
271.483	6.83
271.698	133.8
271.914	74.41
272.13	72.36
272.346	15.02
272.562	53.93
272.777	58.03
272.993	-9.56
273.209	-19.8
273.425	-1.37
273.64	-7.51
273.856	51.88
274.072	0.68
274.287	41.64
274.503	74.41
274.719	94.89
274.934	70.31
275.15	-13.65
275.366	19.11
275.581	-3.41
275.797	82.6
276.012	-1.37
276.228	80.55
276.444	15.02
276.659	72.36
276.875	6.83
277.09	55.98
277.306	17.07
277.521	45.74
277.737	64.17
277.952	23.21
278.168	109.23
278.383	23.21
278.599	51.88
278.814	96.94
279.03	43.69
279.245	41.64
279.461	80.55
279.676	47.79
279.892	-46.42
280.107	-36.18
280.322	-89.43
280.538	33.45
280.753	68.27
280.969	-3.41
281.184	103.08
281.399	10.92
281.615	105.13
281.83	25.26
282.045	6.83
282.26	70.31
282.476	96.94
282.691	-32.08
282.906	27.31
283.122	31.4
283.337	-23.89
283.552	29.35
283.767	2.73
283.983	94.89
284.198	2.73
284.413	115.37
284.628	55.98
284.843	39.59
285.058	80.55
285.274	27.31
285.489	49.83
285.704	115.37
285.919	6.83
286.134	72.36
286.349	66.22
286.564	66.22
286.779	123.56
286.995	10.92
287.21	-5.46
287.425	53.93
287.64	-7.51
287.855	78.51
288.07	27.31
288.285	74.41
288.5	55.98
288.715	19.11
288.93	0.68
289.145	49.83
289.36	66.22
289.575	96.94
289.79	66.22
290.004	45.74
290.219	15.02
290.434	-34.13
290.649	-25.94
290.864	74.41
291.079	72.36
291.294	27.31
291.509	86.7
291.724	66.22
291.938	80.55
292.153	12.97
292.368	55.98
292.583	33.45
292.798	47.79
293.012	49.83
293.227	41.64
293.442	66.22
293.657	-17.75
293.871	39.59
294.086	0.68
294.301	88.75
294.516	45.74
294.73	49.83
294.945	6.83
295.16	117.42
295.374	37.55
295.589	82.6
295.804	19.11
296.018	103.08
296.233	17.07
296.447	53.93
296.662	-11.61
296.877	68.27
297.091	80.55
297.306	27.31
297.52	21.16
297.735	70.31
297.949	51.88
298.164	45.74
298.378	66.22
298.593	-17.75
298.807	23.21
299.022	62.12
299.236	125.61
299.451	86.7
299.665	-27.99
299.88	21.16
300.094	37.55
300.309	64.17
300.523	37.55
300.737	80.55
300.952	37.55
301.166	29.35
301.381	10.92
301.595	78.51
301.809	-27.99
302.024	62.12
302.238	6.83
302.452	-13.65
302.667	-15.7
302.881	49.83
303.095	49.83
303.309	27.31
303.524	66.22
303.738	17.07
303.952	96.94
304.166	84.65
304.381	51.88
304.595	41.64
304.809	39.59
305.023	55.98
305.237	96.94
305.452	45.74
305.666	47.79
305.88	43.69
306.094	25.26
306.308	82.6
306.522	25.26
306.736	53.93
306.95	82.6
307.164	29.35
307.379	-9.56
307.593	105.13
307.807	74.41
308.021	21.16
308.235	62.12
308.449	-32.08
308.663	35.5
308.877	55.98
309.091	74.41
309.305	117.42
309.519	23.21
309.733	39.59
309.947	-34.13
310.161	-7.51
310.374	27.31
310.588	55.98
310.802	33.45
311.016	8.87
311.23	92.84
311.444	53.93
311.658	68.27
311.872	39.59
312.085	35.5
312.299	88.75
312.513	72.36
312.727	-11.61
312.941	72.36
313.154	58.03
313.368	74.41
313.582	109.23
313.796	12.97
314.009	96.94
314.223	107.18
314.437	62.12
314.651	53.93
314.864	47.79
315.078	8.87
315.292	8.87
315.505	55.98
315.719	-1.37
315.933	51.88
316.146	23.21
316.36	31.4
316.573	51.88
316.787	-3.41
317.001	76.46
317.214	-34.13
317.428	39.59
317.641	12.97
317.855	29.35
318.068	21.16
318.282	6.83
318.495	76.46
318.709	43.69
318.922	55.98
319.136	58.03
319.349	10.92
319.563	12.97
319.776	12.97
319.99	-34.13
320.203	117.42
320.417	113.32
320.63	10.92
320.843	62.12
321.057	68.27
321.27	64.17
321.483	37.55
321.697	101.03
321.91	51.88
322.124	45.74
322.337	35.5
322.55	2.73
322.763	70.31
322.977	-17.75
323.19	10.92
323.403	64.17
323.617	47.79
323.83	37.55
324.043	49.83
324.256	103.08
324.469	62.12
324.683	6.83
324.896	43.69
325.109	-1.37
325.322	-64.85
325.535	41.64
325.748	37.55
325.962	66.22
326.175	80.55
326.388	49.83
326.601	84.65
326.814	113.32
327.027	29.35
327.24	51.88
327.453	10.92
327.666	60.07
327.879	86.7
328.092	41.64
328.305	-1.37
328.518	-1.37
328.731	49.83
328.944	-38.23
329.157	51.88
329.37	-36.18
329.583	96.94
329.796	80.55
330.009	-44.37
330.222	49.83
330.435	66.22
330.648	37.55
330.861	109.23
331.073	62.12
331.286	88.75
331.499	43.69
331.712	-3.41
331.925	31.4
332.138	148.14
332.35	86.7
332.563	49.83
332.776	105.13
332.989	10.92
333.202	27.31
333.414	33.45
333.627	53.93
333.84	21.16
334.053	70.31
334.265	45.74
334.478	51.88
334.691	103.08
334.903	78.51
335.116	-1.37
335.329	80.55
335.541	70.31
335.754	80.55
335.966	55.98
336.179	29.35
336.392	27.31
336.604	37.55
336.817	107.18
337.029	127.66
337.242	25.26
337.454	86.7
337.667	19.11
337.88	47.79
338.092	21.16
338.305	37.55
338.517	35.5
338.729	21.16
338.942	135.85
339.154	21.16
339.367	31.4
339.579	58.03
339.792	53.93
340.004	119.46
340.217	-13.65
340.429	68.27
340.641	64.17
340.854	-13.65
341.066	33.45
341.278	62.12
341.491	45.74
341.703	72.36
341.915	72.36
342.128	17.07
342.34	113.32
342.552	51.88
342.764	10.92
342.977	31.4
343.189	84.65
343.401	47.79
343.613	37.55
343.826	4.78
344.038	72.36
344.25	12.97
344.462	23.21
344.674	92.84
344.886	19.11
345.099	82.6
345.311	62.12
345.523	23.21
345.735	90.79
345.947	39.59
346.159	94.89
346.371	17.07
346.583	-7.51
346.795	103.08
347.007	47.79
347.219	39.59
347.431	66.22
347.643	84.65
347.855	33.45
348.067	107.18
348.279	-17.75
348.491	-19.8
348.703	35.5
348.915	62.12
349.127	-15.7
349.339	62.12
349.551	74.41
349.763	49.83
349.975	23.21
350.187	39.59
350.399	29.35
350.61	19.11
350.822	49.83
351.034	29.35
351.246	101.03
351.458	35.5
351.669	49.83
351.881	39.59
352.093	27.31
352.305	82.6
352.517	-3.41
352.728	103.08
352.94	70.31
353.152	33.45
353.363	68.27
353.575	82.6
353.787	29.35
353.999	96.94
354.21	15.02
354.422	-3.41
354.633	27.31
354.845	47.79
355.057	135.85
355.268	60.07
355.48	10.92
355.692	58.03
355.903	74.41
356.115	15.02
356.326	-7.51
356.538	111.27
356.749	41.64
356.961	125.61
357.172	111.27
357.384	4.78
357.595	76.46
357.807	33.45
358.018	17.07
358.23	12.97
358.441	53.93
358.653	37.55
358.864	21.16
359.075	80.55
359.287	27.31
359.498	35.5
359.709	88.75
359.921	64.17
360.132	23.21
360.344	60.07
360.555	60.07
360.766	70.31
360.977	-30.04
361.189	64.17
361.4	25.26
361.611	64.17
361.823	82.6
362.034	60.07
362.245	-13.65
362.456	10.92
362.667	19.11
362.879	101.03
363.09	105.13
363.301	55.98
363.512	21.16
363.723	82.6
363.935	33.45
364.146	101.03
364.357	82.6
364.568	2.73
364.779	45.74
364.99	45.74
365.201	-9.56
365.412	92.84
365.623	21.16
365.834	17.07
366.045	60.07
366.256	152.23
366.467	-62.8
366.678	27.31
366.889	70.31
367.1	58.03
367.311	0.68
367.522	88.75
367.733	60.07
367.944	86.7
368.155	55.98
368.366	125.61
368.577	66.22
368.788	64.17
368.999	2.73
369.209	111.27
369.42	117.42
369.631	168.62
369.842	49.83
370.053	96.94
370.264	86.7
370.474	88.75
370.685	-7.51
370.896	62.12
371.107	103.08
371.317	35.5
371.528	60.07
371.739	55.98
371.95	47.79
372.16	135.85
372.371	86.7
372.582	111.27
372.792	68.27
373.003	62.12
373.214	70.31
373.424	70.31
373.635	31.4
373.846	49.83
374.056	92.84
374.267	113.32
374.477	58.03
374.688	45.74
374.898	41.64
375.109	82.6
375.319	62.12
375.53	88.75
375.74	31.4
375.951	74.41
376.161	88.75
376.372	133.8
376.582	35.5
376.793	62.12
377.003	12.97
377.214	68.27
377.424	115.37
377.635	133.8
377.845	123.56
378.055	107.18
378.266	78.51
378.476	4.78
378.686	66.22
378.897	92.84
379.107	37.55
379.317	90.79
379.528	27.31
379.738	51.88
379.948	6.83
380.158	162.47
380.369	70.31
380.579	78.51
380.789	33.45
380.999	78.51
381.21	25.26
381.42	39.59
381.63	94.89
381.84	-50.52
382.05	84.65
382.261	109.23
382.471	146.09
382.681	10.92
382.891	113.32
383.101	37.55
383.311	70.31
383.521	35.5
383.731	27.31
383.941	17.07
384.151	-9.56
384.361	10.92
384.571	17.07
384.781	82.6
384.991	62.12
385.201	119.46
385.411	64.17
385.621	109.23
385.831	15.02
386.041	94.89
386.251	47.79
386.461	113.32
386.671	78.51
386.881	33.45
387.091	111.27
387.301	94.89
387.511	19.11
387.72	129.7
387.93	80.55
388.14	27.31
388.35	-9.56
388.56	113.32
388.769	84.65
388.979	96.94
389.189	105.13
389.399	178.86
389.609	101.03
389.818	86.7
390.028	141.99
390.238	31.4
390.447	58.03
390.657	84.65
390.867	35.5
391.076	86.7
391.286	88.75
391.496	53.93
391.705	41.64
391.915	187.05
392.125	92.84
392.334	94.89
392.544	51.88
392.753	78.51
392.963	29.35
393.172	105.13
393.382	0.68
393.591	121.51
393.801	92.84
394.01	80.55
394.22	119.46
394.429	78.51
394.639	74.41
394.848	62.12
395.058	51.88
395.267	150.18
395.477	82.6
395.686	154.28
395.895	98.99
396.105	182.95
396.314	103.08
396.524	111.27
396.733	55.98
396.942	166.57
397.152	129.7
397.361	111.27
397.57	144.04
397.78	58.03
397.989	178.86
398.198	117.42
398.407	109.23
398.617	111.27
398.826	107.18
399.035	53.93
399.244	117.42
399.453	123.56
399.663	39.59
399.872	160.42
400.081	96.94
400.29	180.9
400.499	98.99
400.708	82.6
400.917	158.38
401.127	121.51
401.336	144.04
401.545	98.99
401.754	193.19
401.963	170.66
402.172	92.84
402.381	115.37
402.59	150.18
402.799	131.75
403.008	230.06
403.217	135.85
403.426	178.86
403.635	152.23
403.844	172.71
404.053	182.95
404.262	129.7
404.471	223.91
404.68	137.9
404.888	68.27
405.097	135.85
405.306	236.2
405.515	185
405.724	166.57
405.933	205.48
406.142	203.43
406.35	215.72
406.559	246.44
406.768	236.2
406.977	246.44
407.185	207.53
407.394	236.2
407.603	250.53
407.812	258.73
408.02	236.2
408.229	252.58
408.438	285.35
408.646	252.58
408.855	254.63
409.064	322.21
409.272	262.82
409.481	305.83
409.69	309.93
409.898	316.07
410.107	352.93
410.315	307.88
410.524	348.84
410.733	395.94
410.941	389.8
411.15	412.32
411.358	369.32
411.567	481.96
411.775	484
411.984	465.57
412.192	469.67
412.401	467.62
412.609	543.39
412.818	537.25
413.026	451.24
413.234	535.2
413.443	565.92
413.651	613.03
413.86	637.6
414.068	619.17
414.276	647.84
414.485	606.88
414.693	670.37
414.901	764.57
415.11	811.68
415.318	791.2
415.526	869.02
415.734	836.25
415.943	817.82
416.151	797.34
416.359	823.97
416.567	924.32
416.776	969.37
416.984	991.9
417.192	1030.81
417.4	1053.34
417.608	1041.05
417.817	1141.4
418.025	1186.46
418.233	1213.08
418.441	1223.32
418.649	1344.15
418.857	1344.15
419.065	1385.11
419.273	1366.68
419.481	1530.52
419.689	1561.23
419.897	1544.85
420.105	1645.2
420.313	1708.69
420.521	1626.77
420.729	1684.11
420.937	1776.27
421.145	1813.13
421.353	1931.92
421.561	2048.65
421.769	2048.65
421.977	2310.79
422.185	2036.36
422.393	2327.18
422.601	2329.22
422.809	2282.12
423.017	2405
423.224	2544.26
423.432	2687.62
423.64	2660.99
423.848	2892.41
424.056	2736.77
424.263	3035.77
424.471	3060.35
424.679	3164.79
424.887	3199.61
425.094	3234.43
425.302	3369.59
425.51	3461.75
425.718	3455.61
425.925	3566.2
426.133	3756.66
426.341	4070
426.548	4078.19
426.756	4026.99
426.964	4244.07
427.171	4450.92
427.379	4491.88
427.586	4692.58
427.794	4727.39
428.001	4932.19
428.209	5274.2
428.417	5044.83
428.624	5372.5
428.832	5374.55
429.039	5378.65
429.247	5548.63
429.454	5849.68
429.662	6269.51
429.869	5724.76
430.076	6214.22
430.284	6138.44
430.491	6427.21
430.699	6750.79
430.906	6826.56
431.114	6801.99
431.321	7057.98
431.528	7182.91
431.736	7739.96
431.943	8079.92
432.15	7848.5
432.358	7897.65
432.565	8299.05
432.772	8198.7
432.979	8749.61
433.187	8845.86
433.394	9101.86
433.601	9638.42
433.808	9462.3
434.016	9261.6
434.223	9966.1
434.43	10514.95
434.637	10306.06
434.844	11024.9
435.052	11219.46
435.259	11078.15
435.466	11088.39
435.673	10928.64
435.88	11780.6
436.087	12222.96
436.294	12741.1
436.501	12022.26
436.708	12366.32
436.915	12530.16
437.122	13398.49
437.329	13281.76
437.537	13767.13
437.743	13963.73
437.95	13883.86
438.157	14543.31
438.364	15098.31
438.571	15139.27
438.778	15036.87
438.985	16738.73
439.192	15870.39
439.399	16482.74
439.606	15980.98
439.813	17136.04
440.02	17940.89
440.227	17688.99
440.433	17316.26
440.64	18018.71
440.847	18031
441.054	18215.32
441.261	19734.91
441.467	19171.72
441.674	19849.6
441.881	20660.59
442.088	20103.54
442.294	20349.3
442.501	20629.87
442.708	21246.31
442.914	21872.99
443.121	23243.08
443.328	22301.01
443.534	24125.75
443.741	23169.35
443.948	22718.8
444.154	24967.47
444.361	24723.76
444.568	24717.62
444.774	24637.75
444.981	25100.59
445.187	25583.91
445.394	27060.49
445.6	26435.86
445.807	28944.62
446.013	28160.25
446.22	28344.57
446.426	29538.54
446.633	29821.16
446.839	30738.65
447.046	29231.34
447.252	30824.66
447.459	31176.91
447.665	30808.28
447.871	32309.44
448.078	33861.8
448.284	32084.16
448.491	32977.08
448.697	34293.92
448.903	35098.77
449.11	35033.24
449.316	34754.71
449.522	35123.35
449.728	36245.63
449.935	36692.09
450.141	36593.79
450.347	37263.47
450.553	36137.09
450.76	36325.5
450.966	38010.98
451.172	37525.61
451.378	38514.78
451.584	37699.69
451.791	39006.3
451.997	38666.33
452.203	39194.71
452.409	39297.11
452.615	38959.19
452.821	37648.49
453.027	37242.99
453.233	39073.88
453.44	37668.97
453.646	37924.97
453.852	38334.56
454.058	38821.98
454.264	37378.16
454.47	38580.32
454.676	37417.07
454.882	39219.28
455.088	35664.01
455.294	36116.61
455.5	36696.19
455.705	36735.1
455.911	35960.97
456.117	34795.67
456.323	34480.28
456.529	32743.61
456.735	34119.84
456.941	33194.16
457.147	32694.46
457.352	31426.76
457.558	31422.67
457.764	31529.16
457.97	30740.69
458.176	30359.77
458.381	30322.91
458.587	28907.76
458.793	28651.77
458.999	27445.51
459.204	29028.59
459.41	28434.68
459.616	26548.5
459.821	26554.65
460.027	26620.18
460.233	25907.49
460.438	24758.58
460.644	25092.4
460.85	24029.5
461.055	23411.01
461.261	23230.79
461.466	21711.2
461.672	21135.72
461.878	22546.77
462.083	21107.05
462.289	20846.96
462.494	20650.35
462.7	19704.19
462.905	19020.17
463.111	19618.18
463.316	19480.96
463.522	19220.87
463.727	19427.71
463.932	19071.37
464.138	18928.01
464.343	19198.34
464.549	18542.99
464.754	19190.15
464.959	19044.74
465.165	19083.66
465.37	18000.28
465.575	17445.28
465.781	18526.61
465.986	18602.38
466.191	17979.8
466.397	17482.14
466.602	16552.37
466.807	17158.56
467.012	17295.78
467.218	17359.27
467.423	16931.24
467.628	16918.95
467.833	17889.69
468.038	17238.44
468.244	16615.85
468.449	17371.55
468.654	16525.74
468.859	16507.31
469.064	16382.38
469.269	15833.53
469.474	16003.51
469.679	16150.96
469.885	15610.3
470.09	15876.54
470.295	16038.33
470.5	15450.56
470.705	15567.29
470.91	15192.51
471.115	15006.15
471.32	15534.53
471.525	15391.17
471.73	14830.02
471.935	14787.02
472.139	14404.05
472.344	14672.33
472.549	14367.18
472.754	14512.59
472.959	14170.58
473.164	13525.47
473.369	13502.94
473.574	13926.87
473.778	13855.19
473.983	13877.72
474.188	13656.54
474.393	13162.98
474.598	13081.06
474.802	12931.56
475.007	12988.9
475.212	13199.84
475.417	12446.19
475.621	12544.49
475.826	12513.77
476.031	12126.71
476.235	12075.51
476.44	12317.17
476.645	12009.97
476.849	12065.27
477.054	11895.29
477.259	11719.16
477.463	11796.98
477.668	11348.48
477.872	11450.88
478.077	11350.53
478.282	10863.11
478.486	11018.75
478.691	10936.84
478.895	10752.52
479.1	10770.95
479.304	10686.98
479.509	10365.45
479.713	10818.05
479.918	10291.73
480.122	10441.23
480.326	10639.88
480.531	10549.77
480.735	10285.58
480.94	10093.07
481.144	10533.39
481.348	10017.3
481.553	10086.93
481.757	10017.3
481.961	10168.85
482.166	10418.7
482.37	10353.16
482.574	9914.9
482.778	9888.28
482.983	10191.38
483.187	9951.76
483.391	10131.98
483.595	9980.43
483.8	9957.91
484.004	10054.16
484.208	10084.88
484.412	10076.69
484.616	10021.39
484.821	10039.83
485.025	9679.38
485.229	10027.54
485.433	10033.68
485.637	10027.54
485.841	9767.45
486.045	9853.46
486.249	9941.52
486.453	9865.75
486.657	9906.71
486.861	9959.95
487.065	9832.98
487.269	9845.27
487.473	9923.09
487.677	9916.95
487.881	10127.89
488.085	10002.96
488.289	10011.15
488.493	9902.61
488.697	10187.28
488.901	10043.92
489.105	10072.59
489.309	10037.78
489.512	10050.07
489.716	10101.26
489.92	10031.63
490.124	10011.15
490.328	10261.01
490.531	10082.83
490.735	10297.87
490.939	10338.83
491.143	10131.98
491.346	10246.67
491.55	10340.88
491.754	10533.39
491.958	10504.71
492.161	10359.31
492.365	10420.75
492.569	10578.44
492.772	10467.85
492.976	10641.93
493.18	10705.42
493.383	11184.64
493.587	10773
493.79	10998.27
493.994	10785.29
494.197	11004.42
494.401	11106.82
494.605	10871.3
494.808	11221.5
495.012	11244.03
495.215	11272.7
495.419	11534.84
495.622	11391.48
495.825	11471.36
496.029	11491.84
496.232	11901.43
496.436	11704.82
496.639	11858.42
496.843	12003.83
497.046	12442.09
497.249	12378.61
497.453	12394.99
497.656	12726.76
497.859	12481
498.063	12755.43
498.266	13089.25
498.469	12974.56
498.673	13064.68
498.876	13183.46
499.079	13339.1
499.282	13449.69
499.485	13822.42
499.689	13816.28
499.892	13906.39
500.095	14012.88
500.298	14485.97
500.501	14324.18
500.705	14549.45
500.908	14741.96
501.111	15073.73
501.314	15151.56
501.517	15079.88
501.72	15385.02
501.923	15348.16
502.126	15618.49
502.329	16089.53
502.532	16040.37
502.735	16361.9
502.938	16236.98
503.141	16550.32
503.344	16949.67
503.547	16984.49
503.75	17160.61
503.953	17252.77
504.156	17643.93
504.359	17688.99
504.562	17697.18
504.765	18268.56
504.968	18342.29
505.17	18481.55
505.373	18629.01
505.576	18887.05
505.779	19169.67
505.982	19491.2
506.185	19591.55
506.387	19765.63
506.59	19960.19
506.793	20601.2
506.996	20476.27
507.198	21115.24
507.401	20611.44
507.604	21279.08
507.807	21535.07
508.009	21571.94
508.212	21893.47
508.415	22176.09
508.617	22264.15
508.82	22393.17
509.022	22468.95
509.225	23169.35
509.428	23281.99
509.63	23238.98
509.833	23474.5
510.035	23998.78
510.238	24187.19
510.44	24412.47
510.643	24893.74
510.845	25037.1
511.048	24942.89
511.25	25434.41
511.453	25631.01
511.655	26626.32
511.858	26280.22
512.06	26671.38
512.262	26814.74
512.465	27007.25
512.667	27068.69
512.87	27795.71
513.072	27554.05
513.274	28311.8
513.477	28248.32
513.679	28549.37
513.881	28877.04
514.084	28823.79
514.286	29231.34
514.488	29577.45
514.69	30255.32
514.893	30513.37
515.095	30476.51
515.297	31103.18
515.499	30970.07
515.701	31447.24
515.904	31672.52
516.106	32323.77
516.308	32403.64
516.51	32735.42
516.712	32940.21
516.914	33208.5
517.116	33947.81
517.318	33603.75
517.52	34019.49
517.722	34236.58
517.925	34648.22
518.127	35250.32
518.329	35467.41
518.531	35192.98
518.733	35987.59
518.935	35850.38
519.136	36307.07
519.338	37023.86
519.54	37003.38
519.742	37464.18
519.944	37884.01
520.146	38258.79
520.348	38305.89
520.55	38801.5
520.752	38776.92
520.954	39702.6
521.155	39348.31
521.357	39958.6
521.559	40034.38
521.761	40407.11
521.963	40501.31
522.164	40804.41
522.366	41144.37
522.568	41566.26
522.77	41457.71
522.971	42111.02
523.173	41717.81
523.375	42047.53
523.576	42520.61
523.778	42410.02
523.98	42874.91
524.181	43436.05
524.383	43646.99
524.584	44099.59
524.786	43696.14
524.988	43524.11
525.189	44158.98
525.391	44617.73
525.592	44642.31
525.794	44838.91
525.995	44771.33
526.197	44781.57
526.398	44498.95
526.6	45549.56
526.801	45545.46
527.003	45789.17
527.204	45879.28
527.406	46223.34
527.607	46092.27
527.808	46782.43
528.01	45850.61
528.211	46405.61
528.412	47005.66
528.614	46909.41
528.815	46708.71
529.016	47194.07
529.218	46884.83
529.419	47308.76
529.62	47265.75
529.822	46985.18
530.023	47200.22
530.224	47241.18
530.425	46884.83
530.626	46983.13
530.828	47130.59
531.029	48144.33
531.23	47054.81
531.431	47189.98
531.632	47982.54
531.833	48025.55
532.035	47548.37
532.236	47921.1
532.437	48025.55
532.638	47370.2
532.839	47960.01
533.04	48099.28
533.241	47663.06
533.442	48517.06
533.643	47630.29
533.844	47577.04
534.045	47894.48
534.246	47409.11
534.447	48439.24
534.648	47792.08
534.849	47957.97
535.05	47722.45
535.251	47710.16
535.451	47802.32
535.652	48220.11
535.853	47855.57
536.054	47675.35
536.255	48177.1
536.456	47386.58
536.657	48201.68
536.857	47710.16
537.058	47726.55
537.259	48154.57
537.46	47779.79
537.66	47503.32
537.861	47734.74
538.062	47329.24
538.263	47364.06
538.463	47552.47
538.664	47452.12
538.865	47165.4
539.065	48076.75
539.266	47239.13
539.466	47431.64
539.667	46876.64
539.868	47792.08
540.068	46936.03
540.269	47067.1
540.469	47777.75
540.67	47364.06
540.87	47282.14
541.071	47310.81
541.271	46966.75
541.472	47079.39
541.672	46987.23
541.873	47058.91
542.073	46921.69
542.274	47476.69
542.474	47108.06
542.675	46618.6
542.875	47480.79
543.075	46919.65
543.276	46714.85
543.476	47187.93
543.676	46591.97
543.877	47058.91
544.077	46915.55
544.277	46890.98
544.478	46839.78
544.678	47132.64
544.878	46643.17
545.078	46524.39
545.279	46591.97
545.479	46817.25
545.679	46524.39
545.879	46618.6
546.079	46444.52
546.28	46860.26
546.48	45918.19
546.68	46667.75
546.88	46995.42
547.08	46983.13
547.28	46680.03
547.48	46229.48
547.68	46620.64
547.88	46141.42
548.081	46682.08
548.281	46665.7
548.481	46256.1
548.681	46622.69
548.881	46460.9
549.081	46743.52
549.28	46536.68
549.48	46776.29
549.68	46594.02
549.88	46995.42
550.08	46120.94
550.28	46637.03
550.48	46247.91
550.68	47194.07
550.88	46448.61
551.08	46583.78
551.279	46346.22
551.479	46196.71
551.679	46182.38
551.879	46196.71
552.079	46239.72
552.278	46260.2
552.478	46465
552.678	46311.4
552.878	46598.12
553.077	46559.2
553.277	45901.81
553.477	47046.62
553.676	46184.43
553.876	46378.98
554.076	46262.25
554.275	46348.26
554.475	45778.93
554.674	46047.21
554.874	46313.45
555.074	46264.3
555.273	46192.62
555.473	46270.44
555.672	45920.24
555.872	46266.34
556.071	45834.22
556.271	46360.55
556.47	45748.21
556.67	45942.77
556.869	45780.98
557.068	45948.91
557.268	45688.82
557.467	46155.75
557.667	45823.98
557.866	45961.2
558.065	45813.74
558.265	45615.09
558.464	45635.57
558.663	46108.65
558.863	45344.76
559.062	46319.59
559.261	45146.11
559.461	45895.66
559.66	45389.81
559.859	45418.49
560.058	44990.46
560.258	45346.81
560.457	44976.12
560.656	45897.71
560.855	44791.81
561.054	45486.07
561.253	44838.91
561.453	45285.37
561.652	45305.85
561.851	44943.36
562.05	44720.13
562.249	44912.64
562.448	45162.49
562.647	44978.17
562.846	44615.68
563.045	44750.85
563.244	43907.08
563.443	44984.32
563.642	44517.38
563.841	44312.58
564.04	44068.87
564.239	44509.19
564.438	43765.77
564.637	44525.57
564.836	44249.1
565.035	43644.94
565.234	44023.82
565.432	43626.51
565.631	43474.96
565.83	43937.8
566.029	43477.01
566.228	43431.96
566.427	43214.87
566.625	42889.24
566.824	42995.74
567.023	43436.05
567.222	42252.33
567.42	43255.83
567.619	42962.97
567.818	42678.3
568.016	42397.73
568.215	42717.21
568.414	42334.24
568.612	42846.24
568.811	42489.89
569.01	42272.81
569.208	41605.17
569.407	42285.09
569.605	41486.39
569.804	42047.53
570.002	41470
570.201	41924.65
570.4	41394.23
570.598	41123.9
570.797	40998.97
570.995	40984.63
571.193	41091.13
571.392	41488.43
571.59	40826.94
571.789	40802.36
571.987	40521.79
572.186	40374.34
572.384	40020.04
572.582	41039.93
572.781	40769.6
572.979	39774.28
573.177	40429.63
573.376	39981.13
573.574	39620.69
573.772	39589.97
573.971	39608.4
574.169	39551.06
574.367	39262.29
574.565	39440.46
574.763	39229.52
574.962	38985.82
575.16	38848.6
575.358	39256.15
575.556	38602.85
575.754	39262.29
575.952	38201.44
576.151	38809.69
576.349	38074.47
576.547	38373.47
576.745	38383.71
576.943	38352.99
577.141	38271.07
577.339	38082.66
577.537	37970.02
577.735	37955.69
577.933	37648.49
578.131	37286
578.329	37353.58
578.527	37298.29
578.725	37294.19
578.923	37163.12
579.121	36708.47
579.319	37083.25
579.516	36993.14
579.714	36939.9
579.912	36649.08
580.11	36507.77
580.308	36382.85
580.506	36380.8
580.704	36200.58
580.901	36249.73
581.099	36321.41
581.297	35987.59
581.495	35639.43
581.692	35770.5
581.89	35598.48
582.088	35932.29
582.285	35336.34
582.483	36087.94
582.681	35463.31
582.878	35299.47
583.076	35201.17
583.274	35246.22
583.471	34298.02
583.669	35020.95
583.866	34883.73
584.064	34963.61
584.262	34500.76
584.459	34535.58
584.657	34011.3
584.854	34490.52
585.052	33999.01
585.249	34351.26
585.447	34314.4
585.644	33687.72
585.841	34209.95
586.039	34017.44
586.236	33421.48
586.434	33579.18
586.631	33691.82
586.828	33284.27
587.026	33267.89
587.223	33345.71
587.42	33525.93
587.618	33067.19
587.815	32925.88
588.012	32733.37
588.21	32876.72
588.407	33269.93
588.604	32575.67
588.801	32614.58
588.999	32366.78
589.196	32497.85
589.393	32395.45
589.59	32303.29
589.787	32297.15
589.984	31715.53
590.182	31805.64
590.379	31969.47
590.576	31930.56
590.773	32053.44
590.97	31437
591.167	31830.21
591.364	31195.34
591.561	31264.97
591.758	31152.34
591.955	31074.51
592.152	31502.54
592.349	31133.9
592.546	31117.52
592.743	30871.76
592.94	30798.04
593.137	30621.91
593.334	30824.66
593.531	30304.48
593.727	30863.57
593.924	30701.78
594.121	30519.51
594.318	30365.92
594.515	29790.44
594.712	30271.71
594.908	30038.24
595.105	30269.66
595.302	29511.91
595.499	29792.48
595.696	29845.73
595.892	29888.74
596.089	29561.06
596.286	29593.83
596.482	29098.22
596.679	29718.76
596.876	29577.45
597.072	28985.58
597.269	29282.54
597.466	28782.84
597.662	29130.99
597.859	28754.16
598.055	29225.2
598.252	28563.7
598.448	28743.92
598.645	28831.99
598.841	28440.82
599.038	28524.79
599.234	28438.78
599.431	28049.66
599.627	28236.03
599.824	28068.09
600.02	27863.3
600.217	28102.91
600.413	28193.02
600.609	27527.43
600.806	27900.16
601.002	27857.15
601.198	27564.29
601.395	27955.46
601.591	27801.86
601.787	27672.84
601.984	27746.56
602.18	27521.29
602.376	27074.83
602.572	27091.21
602.769	26994.96
602.965	27025.68
603.161	27136.27
603.357	26755.35
603.553	26288.41
603.75	27017.49
603.946	26575.13
604.142	26839.31
604.338	26415.38
604.534	26568.98
604.73	26067.23
604.926	26300.7
605.122	26351.9
605.318	26296.6
605.514	25839.9
605.71	25719.07
605.906	25966.88
606.102	25887.01
606.298	26124.57
606.494	25839.9
606.69	25692.45
606.886	25762.08
607.082	25307.43
607.278	25317.67
607.474	25147.69
607.67	25661.73
607.866	24979.76
608.062	25590.05
608.257	25522.47
608.453	25276.71
608.649	24981.81
608.845	24971.57
609.041	24736.05
609.236	25106.73
609.432	24752.43
609.628	24910.13
609.824	24731.95
610.019	24897.84
610.215	24903.98
610.411	24629.55
610.606	24566.07
610.802	24832.3
610.998	24357.17
611.193	24324.41
611.389	24346.94
611.584	24224.06
611.78	24222.01
611.976	24256.82
612.171	24179
612.367	24312.12
612.562	23972.16
612.758	23660.87
612.953	23783.74
613.149	24144.19
613.344	23681.35
613.539	24615.22
613.735	23953.73
613.93	23836.99
614.126	23636.29
614.321	23730.5
614.517	23746.88
614.712	23720.26
614.907	23476.55
615.103	23570.75
615.298	23421.25
615.493	23306.57
615.688	22827.34
615.884	23517.51
616.079	23267.66
616.274	23509.32
616.47	23097.67
616.665	23404.87
616.86	23155.02
617.055	22886.73
617.25	22761.81
617.445	22972.75
617.641	22511.96
617.836	22946.12
618.031	22391.12
618.226	22395.22
618.421	22337.88
618.616	22419.8
618.811	22110.55
619.006	22491.48
619.201	22124.89
619.396	22215
619.591	21754.21
619.786	22192.47
619.981	22073.69
620.176	21877.08
620.371	21410.15
620.566	21805.41
620.761	21262.69
620.956	21571.94
621.151	21084.52
621.346	21315.94
621.541	20662.64
621.735	20900.2
621.93	20623.73
622.125	20769.13
622.32	20476.27
622.515	20625.78
622.709	20257.14
622.904	20296.05
623.099	20185.46
623.294	20191.61
623.488	20052.34
623.683	19911.03
623.878	19773.82
624.072	19814.78
624.267	19753.34
624.462	19468.67
624.656	19292.55
624.851	19505.54
625.046	18907.53
625.24	18921.87
625.435	19126.66
625.629	18739.6
625.824	18917.77
626.018	18868.62
626.213	18409.87
626.407	18418.07
626.602	18405.78
626.796	18698.64
626.991	18551.18
627.185	18291.09
627.38	17936.79
627.574	17897.88
627.768	17516.96
627.963	17811.87
628.157	17492.38
628.352	17789.34
628.546	17240.48
628.74	17326.5
628.935	16914.86
629.129	17242.53
629.323	16865.71
629.517	16730.54
629.712	16908.71
629.906	16921
630.1	16427.44
630.294	16763.31
630.489	16517.55
630.683	16695.72
630.877	16271.79
631.071	16073.14
631.265	16167.35
631.459	15985.08
631.653	16028.09
631.848	16208.31
632.042	15774.14
632.236	16071.09
632.43	15575.49
632.624	15563.2
632.818	15595.96
633.012	15460.8
633.206	15370.69
633.4	15366.59
633.594	15036.87
633.788	15364.54
633.982	15192.51
634.176	14944.71
634.369	15028.68
634.563	14950.85
634.757	14793.16
634.951	14606.8
635.145	14496.21
635.339	14393.81
635.533	14422.48
635.726	14340.56
635.92	14283.22
636.114	14109.14
636.308	14041.56
636.501	14166.48
636.695	14244.31
636.889	13890.01
637.083	13851.1
637.276	13591
637.47	13631.96
637.664	13545.95
637.857	13484.51
638.051	13312.48
638.244	13117.92
638.438	13210.08
638.632	13281.76
638.825	12997.09
639.019	12943.85
639.212	12685.8
639.406	12880.36
639.599	12747.24
639.793	12763.62
639.986	12491.24
640.18	12450.28
640.373	12489.2
640.567	12057.07
640.76	12386.8
640.954	12130.8
641.147	11932.15
641.34	12032.5
641.534	11993.59
641.727	11919.86
641.92	11905.52
642.114	11635.19
642.307	11803.13
642.5	11545.08
642.694	11545.08
642.887	11239.94
643.08	11491.84
643.273	11405.82
643.467	11135.49
643.66	11069.95
643.853	11151.87
644.046	11028.99
644.239	10916.36
644.432	11020.8
644.626	10738.18
644.819	10684.94
645.012	10596.87
645.205	10686.98
645.398	10517
645.591	10508.81
645.784	10494.47
645.977	10381.84
646.17	10377.74
646.363	10226.19
646.556	10070.55
646.749	10027.54
646.942	10252.81
647.135	10009.11
647.328	9955.86
647.521	9992.72
647.714	9656.86
647.907	9769.49
648.099	9603.61
648.292	9714.2
648.485	9609.75
648.678	9464.35
648.871	9255.45
649.064	9388.57
649.256	9374.24
649.449	9173.53
649.642	9286.17
649.835	9175.58
650.027	9060.9
650.22	9034.27
650.413	9079.33
650.605	8907.3
650.798	8962.59
650.991	8749.61
651.183	8825.38
651.376	8696.36
651.568	8694.31
651.761	8702.5
651.954	8471.08
652.146	8495.66
652.339	8442.41
652.531	8284.72
652.724	8546.86
652.916	8401.45
653.109	8395.31
653.301	8370.73
653.494	8147.5
653.686	8102.45
653.879	8311.34
654.071	7965.23
654.263	8094.26
654.456	8006.19
654.648	7881.27
654.84	7875.12
655.033	7739.96
655.225	7952.95
655.417	7916.08
655.61	7758.39
655.802	7860.79
655.994	7717.43
656.186	7682.61
656.379	7655.99
656.571	7602.74
656.763	7293.5
656.955	7596.6
657.148	7350.84
657.34	7363.13
657.532	7225.92
657.724	7238.2
657.916	7131.71
658.108	7248.44
658.3	7076.41
658.492	7158.33
658.684	6976.06
658.876	6963.78
659.068	7006.78
659.26	6861.38
659.452	7008.83
659.644	7010.88
659.836	6857.28
660.028	6685.25
660.22	6574.66
660.412	6521.42
660.604	6699.59
660.796	6625.86
660.988	6656.58
661.18	6695.49
661.372	6582.85
661.563	6500.94
661.755	6402.63
661.947	6574.66
662.139	6484.55
662.331	6246.99
662.522	6376.01
662.714	6388.3
662.906	6261.32
663.097	6249.04
663.289	6154.83
663.481	6144.59
663.673	6320.71
663.864	6029.9
664.056	5984.85
664.247	6048.33
664.439	5800.53
664.631	5958.22
664.822	6052.43
665.014	6021.71
665.205	5937.74
665.397	5722.71
665.588	5818.96
665.78	5814.87
665.971	5788.24
666.163	5802.58
666.354	5603.93
666.546	5726.8
666.737	5522.01
666.929	5710.42
667.12	5634.64
667.311	5544.53
667.503	5460.57
667.694	5468.76
667.885	5429.85
668.077	5388.89
668.268	5333.59
668.459	5419.61
668.651	5356.12
668.842	5259.87
669.033	5460.57
669.224	5157.47
669.416	5386.84
669.607	5153.37
669.798	5083.74
669.989	5122.65
670.18	5169.76
670.371	5196.38
670.563	5075.55
670.754	5061.21
670.945	5069.41
671.136	5196.38
671.327	4979.29
671.518	5055.07
671.709	4995.68
671.9	4975.2
672.091	4967.01
672.282	4903.52
672.473	4909.66
672.664	4915.81
672.855	5075.55
673.046	4946.53
673.237	4987.49
673.428	4794.98
673.619	4837.98
673.809	4700.77
674	4713.06
674.191	4690.53
674.382	4784.74
674.573	4811.36
674.764	4764.26
674.954	4698.72
675.145	4676.2
675.336	4823.65
675.527	4749.92
675.717	4692.58
675.908	4731.49
676.099	4631.14
676.289	4600.42
676.48	4575.84
676.671	4575.84
676.861	4547.17
677.052	4805.22
677.243	4700.77
677.433	4553.32
677.624	4602.47
677.814	4569.7
678.005	4498.02
678.195	4528.74
678.386	4602.47
678.576	4485.73
678.767	4536.93
678.957	4571.75
679.148	4526.69
679.338	4528.74
679.529	4557.41
679.719	4430.44
679.909	4385.38
680.1	4586.08
680.29	4420.2
680.481	4549.22
680.671	4516.45
680.861	4442.73
681.052	4538.98
681.242	4432.49
681.432	4448.87
681.622	4307.56
681.813	4356.71
682.003	4459.11
682.193	4409.96
682.383	4463.21
682.573	4412.01
682.764	4366.95
682.954	4530.79
683.144	4401.77
683.334	4538.98
683.524	4287.08
683.714	4276.84
683.904	4242.03
684.094	4332.14
684.284	4366.95
684.474	4364.9
684.664	4295.27
684.854	4325.99
685.044	4233.83
685.234	4358.76
685.424	4280.94
685.614	4248.17
685.804	4383.34
685.994	4248.17
686.184	4348.52
686.374	4280.94
686.564	4207.21
686.753	4264.55
686.943	4125.29
687.133	4192.87
687.323	4133.48
687.513	4266.6
687.702	4262.51
687.892	4237.93
688.082	4186.73
688.272	4242.03
688.461	4229.74
688.651	4039.28
688.841	4108.91
689.03	4057.71
689.22	4196.97
689.41	4135.53
689.599	4090.48
689.789	4037.23
689.979	4012.65
690.168	4098.67
690.358	4119.15
690.547	4018.8
690.737	4004.46
690.926	4026.99
691.116	3996.27
691.305	3961.45
691.495	4020.85
691.684	3961.45
691.874	3947.12
692.063	4070
692.252	3936.88
692.442	3861.1
692.631	3971.69
692.82	3840.62
693.01	3877.49
693.199	3768.95
693.388	3779.18
693.578	3891.82
693.767	3996.27
693.956	3871.34
694.146	3803.76
694.335	3717.75
694.524	3826.29
694.713	3773.04
694.902	3770.99
695.092	3846.77
695.281	3885.68
695.47	3789.42
695.659	3734.13
695.848	3885.68
696.037	3877.49
696.226	3824.24
696.415	3789.42
696.604	4014.7
696.793	3754.61
696.982	3691.12
697.171	3715.7
697.36	3725.94
697.549	3682.93
697.738	3730.03
697.927	3672.69
698.116	3773.04
698.305	3828.34
698.494	3676.79
698.683	3656.31
698.872	3732.08
699.061	3693.17
699.25	3717.75
699.438	3768.95
699.627	3687.03
699.816	3691.12
700.005	3752.56
700.193	3664.5
700.382	3795.57
700.571	3695.22
700.76	3701.36
700.948	3646.07
701.137	3605.11
701.326	3623.54
701.514	3496.57
701.703	3699.31
701.892	3486.33
702.08	3613.3
702.269	3693.17
702.457	3627.64
702.646	3459.7
702.834	3566.2
703.023	3627.64
703.212	3582.58
703.4	3510.9
703.589	3664.5
703.777	3574.39
703.965	3582.58
704.154	3641.97
704.342	3433.08
704.531	3607.16
704.719	3471.99
704.907	3555.96
705.096	3474.04
705.284	3474.04
705.472	3289.72
705.661	3416.69
705.849	3508.85
706.037	3404.41
706.226	3437.17
706.414	3365.5
706.602	3369.59
706.79	3433.08
706.979	3396.21
707.167	3408.5
707.355	3340.92
707.543	3283.58
707.731	3295.86
707.919	3259
708.107	3224.19
708.296	3283.58
708.484	3338.87
708.672	3322.49
708.86	3263.1
709.048	3148.41
709.236	3228.28
709.424	3289.72
709.612	3160.7
709.8	3119.74
709.988	3232.38
710.176	3271.29
710.364	3359.35
710.551	3193.47
710.739	3254.9
710.927	3201.66
711.115	3156.6
711.303	3046.01
711.491	3199.61
711.679	3154.55
711.866	3132.03
712.054	3152.51
712.242	3097.21
712.43	3259
712.617	3041.92
712.805	2919.04
712.993	3146.36
713.181	3093.12
713.368	3072.64
713.556	3023.48
713.744	2978.43
713.931	3193.47
714.119	2984.57
714.306	3054.2
714.494	3035.77
714.682	2980.48
714.869	2890.37
715.057	3023.48
715.244	2955.9
715.432	3015.29
715.619	2982.53
715.807	2923.13
715.994	2896.51
716.182	2808.45
716.369	2957.95
716.556	2861.69
716.744	2806.4
716.931	2859.65
717.119	2828.93
717.306	2808.45
717.493	2949.76
717.681	2878.08
717.868	2790.02
718.055	2767.49
718.242	2720.39
718.43	2810.5
718.617	2845.31
718.804	2785.92
718.991	2841.22
719.179	2654.85
719.366	2636.42
719.553	2665.09
719.74	2699.91
719.927	2773.63
720.114	2660.99
720.301	2792.06
720.488	2652.8
720.676	2671.23
720.863	2656.9
721.05	2628.23
721.237	2644.61
721.424	2613.89
721.611	2706.05
721.798	2589.32
721.985	2521.73
722.172	2564.74
722.358	2470.53
722.545	2626.18
722.732	2646.66
722.919	2597.51
723.106	2515.59
723.293	2591.36
723.48	2601.6
723.667	2474.63
723.853	2493.06
724.04	2583.17
724.227	2497.16
724.414	2495.11
724.6	2419.33
724.787	2439.81
724.974	2448.01
725.161	2517.64
725.347	2464.39
725.534	2386.57
725.72	2443.91
725.907	2458.25
726.094	2486.92
726.28	2364.04
726.467	2454.15
726.653	2294.41
726.84	2372.23
727.027	2411.14
727.213	2378.37
727.4	2448.01
727.586	2398.85
727.773	2368.13
727.959	2347.65
728.145	2386.57
728.332	2292.36
728.518	2212.49
728.705	2345.61
728.891	2331.27
729.077	2372.23
729.264	2321.03
729.45	2351.75
729.636	2165.39
729.823	2333.32
730.009	2255.5
730.195	2169.48
730.382	2280.07
730.568	2210.44
730.754	2241.16
730.94	2181.77
731.126	2196.11
731.313	2271.88
731.499	2228.87
731.685	2212.49
731.871	2167.43
732.057	2230.92
732.243	2210.44
732.429	2138.76
732.615	2110.09
732.801	2212.49
732.987	2138.76
733.173	2161.29
733.359	2204.3
733.545	2169.48
733.731	2136.71
733.917	2077.32
734.103	2208.39
734.289	2192.01
734.475	2171.53
734.661	2130.57
734.847	2132.62
735.033	2155.15
735.219	1989.26
735.404	2163.34
735.59	2048.65
735.776	1921.68
735.962	2044.56
736.148	2017.93
736.333	2028.17
736.519	1897.1
736.705	2071.18
736.89	2024.08
737.076	2136.71
737.262	1985.16
737.447	1954.44
737.633	1952.4
737.819	2040.46
738.004	2058.89
738.19	1839.76
738.375	1915.53
738.561	2015.88
738.747	1946.25
738.932	1903.25
739.118	2022.03
739.303	1888.91
739.489	1917.58
739.674	1956.49
739.859	1903.25
740.045	1850
740.23	1909.39
740.416	1960.59
740.601	1905.29
740.786	1870.48
740.972	1784.46
741.157	1872.53
741.342	1727.12
741.528	1811.09
741.713	1774.22
741.898	1872.53
742.084	1817.23
742.269	1809.04
742.454	1878.67
742.639	1833.61
742.824	1806.99
743.01	1850
743.195	1786.51
743.38	1802.9
743.565	1733.26
743.75	1868.43
743.935	1768.08
744.12	1804.94
744.305	1735.31
744.49	1661.59
744.675	1737.36
744.86	1567.38
745.045	1737.36
745.23	1581.71
745.415	1684.11
745.6	1608.34
745.785	1706.64
745.97	1743.5
746.155	1505.94
746.34	1604.24
746.525	1655.44
746.71	1680.02
746.895	1585.81
747.079	1522.32
747.264	1634.96
747.449	1520.28
747.634	1487.51
747.819	1581.71
748.003	1469.08
748.188	1438.36
748.373	1561.23
748.557	1483.41
748.742	1491.6
748.927	1548.95
749.111	1409.69
749.296	1528.47
749.481	1559.19
749.665	1456.79
749.85	1385.11
750.034	1362.58
750.219	1485.46
750.404	1397.4
750.588	1409.69
750.773	1440.4
750.957	1352.34
751.141	1469.08
751.326	1395.35
751.51	1239.7
751.695	1387.16
751.879	1329.81
752.064	1370.77
752.248	1340.05
752.432	1295
752.617	1270.42
752.801	1309.33
752.985	1254.04
753.17	1286.81
753.354	1301.14
753.538	1241.75
753.722	1247.9
753.907	1325.72
754.091	1274.52
754.275	1170.07
754.459	1170.07
754.643	1299.09
754.828	1143.45
755.012	1219.22
755.196	1145.5
755.38	1086.11
755.564	1092.25
755.748	1151.64
755.932	1133.21
756.116	1114.78
756.3	1096.35
756.484	1030.81
756.668	1118.87
756.852	1116.83
757.036	1039
757.22	1063.58
757.404	1047.19
757.588	1012.38
757.772	1028.76
757.956	1075.87
758.14	1039
758.323	1006.24
758.507	1047.19
758.691	1010.33
758.875	1102.49
759.059	991.9
759.242	971.42
759.426	1022.62
759.61	1049.24
759.794	942.75
759.977	996
760.161	1086.11
760.345	932.51
760.528	1127.07
760.712	975.52
760.895	1004.19
761.079	932.51
761.263	912.03
761.446	987.8
761.63	916.12
761.813	862.88
761.997	858.78
762.18	815.77
762.364	963.23
762.547	862.88
762.731	864.93
762.914	864.93
763.098	830.11
763.281	858.78
763.464	905.88
763.648	883.36
763.831	975.52
764.015	881.31
764.198	916.12
764.381	858.78
764.564	918.17
764.748	883.36
764.931	905.88
765.114	764.57
765.297	891.55
765.481	844.45
765.664	756.38
765.847	823.97
766.03	836.25
766.213	748.19
766.397	823.97
766.58	846.49
766.763	785.05
766.946	858.78
767.129	793.25
767.312	813.73
767.495	742.05
767.678	805.53
767.861	821.92
768.044	803.49
768.227	850.59
768.41	783.01
768.593	729.76
768.776	766.62
768.959	748.19
769.142	760.48
769.324	772.77
769.507	754.34
769.69	770.72
769.873	678.56
770.056	760.48
770.239	748.19
770.421	750.24
770.604	651.94
770.787	774.81
770.97	740
771.152	715.42
771.335	735.9
771.518	733.86
771.7	705.18
771.883	635.55
772.066	735.9
772.248	684.7
772.431	725.66
772.613	756.38
772.796	727.71
772.978	643.74
773.161	676.51
773.343	664.22
773.526	645.79
773.708	723.62
773.891	578.21
774.073	594.59
774.256	666.27
774.438	699.04
774.621	617.12
774.803	664.22
774.985	672.42
775.168	635.55
775.35	582.31
775.532	653.98
775.715	615.07
775.897	649.89
776.079	649.89
776.261	651.94
776.444	514.72
776.626	662.18
776.808	561.83
776.99	594.59
777.173	600.74
777.355	543.39
777.537	610.98
777.719	494.24
777.901	533.15
778.083	529.06
778.265	623.27
778.447	547.49
778.629	510.63
778.811	527.01
778.993	516.77
779.175	594.59
779.357	539.3
779.539	529.06
779.721	520.87
779.903	590.5
780.085	596.64
780.267	436.9
780.449	608.93
780.631	510.63
780.812	563.87
780.994	473.76
781.176	492.2
781.358	459.43
781.54	496.29
781.721	500.39
781.903	531.11
782.085	475.81
782.267	457.38
782.448	463.52
782.63	465.57
782.812	531.11
782.993	420.52
783.175	486.05
783.357	397.99
783.538	426.66
783.72	406.18
783.901	359.08
784.083	445.09
784.264	441
784.446	381.6
784.627	344.74
784.809	432.8
784.99	406.18
785.172	367.27
785.353	477.86
785.535	416.42
785.716	391.84
785.897	465.57
786.079	283.3
786.26	371.37
786.441	379.56
786.623	379.56
786.804	271.01
786.985	350.89
787.167	352.93
787.348	326.31
787.529	330.41
787.71	375.46
787.891	406.18
788.073	385.7
788.254	326.31
788.435	387.75
788.616	361.13
788.797	277.16
788.978	287.4
789.159	330.41
789.34	314.02
789.522	344.74
789.703	299.69
789.884	379.56
790.065	299.69
790.246	332.45
790.427	326.31
790.607	326.31
790.788	330.41
790.969	238.25
791.15	338.6
791.331	375.46
791.512	236.2
791.693	264.87
791.874	361.13
792.054	367.27
792.235	268.97
792.416	248.49
792.597	361.13
792.778	357.03
792.958	299.69
793.139	262.82
793.32	283.3
793.5	256.68
793.681	328.36
793.862	295.59
794.042	225.96
794.223	359.08
794.404	199.34
794.584	279.21
794.765	250.53
794.945	248.49
795.126	326.31
795.306	283.3
795.487	225.96
795.667	252.58
795.848	340.65
796.028	283.3
796.209	187.05
796.389	207.53
796.57	219.82
796.75	209.58
796.93	178.86
797.111	221.86
797.291	248.49
797.471	285.35
797.652	209.58
797.832	242.34
798.012	244.39
798.192	158.38
798.373	152.23
798.553	203.43
798.733	258.73
798.913	230.06
799.093	182.95
799.274	236.2
799.454	225.96
799.634	250.53
799.814	244.39
799.994	209.58
800.174	232.1
800.354	285.35
800.534	213.67
800.714	182.95
800.894	221.86
801.074	178.86
801.254	191.14
801.434	201.38
801.614	215.72
801.794	187.05
801.974	590.5
802.154	191.14
802.334	219.82
802.514	207.53
802.693	197.29
802.873	203.43
803.053	215.72
803.233	260.77
803.413	180.9
803.592	223.91
803.772	121.51
803.952	191.14
804.131	201.38
804.311	199.34
804.491	242.34
804.67	193.19
804.85	189.1
805.03	221.86
805.209	260.77
805.389	197.29
805.568	203.43
805.748	197.29
805.928	211.62
806.107	191.14
806.287	150.18
806.466	205.48
806.646	174.76
806.825	141.99
807.004	158.38
807.184	207.53
807.363	252.58
807.543	182.95
807.722	162.47
807.901	164.52
808.081	182.95
808.26	117.42
808.439	209.58
808.619	254.63
808.798	178.86
808.977	166.57
809.156	162.47
809.336	195.24
809.515	133.8
809.694	111.27
809.873	166.57
810.052	219.82
810.231	154.28
810.411	164.52
810.59	207.53
810.769	223.91
810.948	209.58
811.127	92.84
811.306	168.62
811.485	195.24
811.664	213.67
811.843	154.28
812.022	203.43
812.201	98.99
812.38	115.37
812.559	133.8
812.737	152.23
812.916	84.65
813.095	164.52
813.274	182.95
813.453	150.18
813.632	129.7
813.811	197.29
813.989	105.13
814.168	88.75
814.347	43.69
814.526	195.24
814.704	107.18
814.883	187.05
815.062	129.7
815.24	180.9
815.419	115.37
815.598	84.65
815.776	111.27
815.955	119.46
816.133	121.51
816.312	170.66
816.49	121.51
816.669	135.85
816.847	150.18
817.026	141.99
817.204	113.32
817.383	135.85
817.561	180.9
817.74	158.38
817.918	139.94
818.097	164.52
818.275	53.93
818.453	207.53
818.632	123.56
818.81	105.13
818.988	139.94
819.167	144.04
819.345	158.38
819.523	150.18
819.701	123.56
819.879	119.46
820.058	129.7
820.236	158.38
820.414	105.13
820.592	152.23
820.77	109.23
820.948	90.79
821.127	74.41
821.305	76.46
821.483	90.79
821.661	72.36
821.839	105.13
822.017	80.55
822.195	51.88
822.373	121.51
822.551	68.27
822.729	125.61
822.907	90.79
823.085	72.36
823.262	158.38
823.44	162.47
823.618	92.84
823.796	82.6
823.974	55.98
824.152	39.59
824.329	70.31
824.507	107.18
824.685	78.51
824.863	178.86
825.04	90.79
825.218	101.03
825.396	150.18
825.574	162.47
825.751	131.75
825.929	98.99
826.107	68.27
826.284	105.13
826.462	123.56
826.639	121.51
826.817	37.55
826.994	70.31
827.172	68.27
827.349	129.7
827.527	127.66
827.704	96.94
827.882	43.69
828.059	74.41
828.237	103.08
828.414	66.22
828.591	64.17
828.769	113.32
828.946	88.75
829.124	111.27
829.301	35.5
829.478	43.69
829.655	64.17
829.833	121.51
830.01	101.03
830.187	90.79
830.364	47.79
830.542	90.79
830.719	39.59
830.896	129.7
831.073	41.64
831.25	92.84
831.427	148.14
831.604	72.36
831.782	74.41
831.959	37.55
832.136	51.88
832.313	101.03
832.49	-17.75
832.667	78.51
832.844	92.84
833.021	41.64
833.198	98.99
833.374	35.5
833.551	58.03
833.728	76.46
833.905	84.65
834.082	4.78
834.259	55.98
834.436	74.41
834.612	51.88
834.789	98.99
834.966	51.88
835.143	150.18
835.319	39.59
835.496	131.75
835.673	6.83
835.85	49.83
836.026	113.32
836.203	72.36
836.38	60.07
836.556	68.27
836.733	17.07
836.909	25.26
837.086	101.03
837.262	80.55
837.439	55.98
837.616	80.55
837.792	27.31
837.968	70.31
838.145	78.51
838.321	4.78
838.498	43.69
838.674	72.36
838.851	51.88
839.027	25.26
839.203	55.98
839.38	62.12
839.556	74.41
839.732	76.46
839.909	27.31
840.085	23.21
840.261	33.45
840.437	113.32
840.614	41.64
840.79	90.79
840.966	53.93
841.142	84.65
841.318	27.31
841.494	113.32
841.671	33.45
841.847	82.6
842.023	2.73
842.199	111.27
842.375	119.46
842.551	45.74
842.727	47.79
842.903	84.65
843.079	33.45
843.255	131.75
843.431	139.94
843.607	45.74
843.783	94.89
843.959	86.7
844.134	31.4
844.31	113.32
844.486	62.12
844.662	74.41
844.838	109.23
845.013	55.98
845.189	43.69
845.365	105.13
845.541	17.07
845.716	35.5
845.892	58.03
846.068	123.56
846.244	45.74
846.419	6.83
846.595	43.69
846.77	33.45
846.946	78.51
847.122	-1.37
847.297	43.69
847.473	129.7
847.648	84.65
847.824	39.59
847.999	58.03
848.175	-11.61
848.35	68.27
848.526	23.21
848.701	47.79
848.876	111.27
849.052	107.18
849.227	78.51
849.403	-58.71
849.578	33.45
849.753	68.27
849.929	8.87
850.104	35.5
850.279	107.18
850.454	92.84
850.63	53.93
850.805	35.5
850.98	15.02
851.155	39.59
851.33	39.59
851.505	111.27
851.681	84.65
851.856	-40.28
852.031	41.64
852.206	25.26
852.381	47.79
852.556	19.11
852.731	17.07
852.906	55.98
853.081	23.21
853.256	78.51
853.431	86.7
853.606	68.27
853.781	62.12
853.956	0.68
854.131	41.64
854.305	10.92
854.48	45.74
854.655	-3.41
854.83	39.59
855.005	-1.37
855.18	-5.46
855.354	86.7
855.529	53.93
855.704	74.41
855.879	86.7
856.053	37.55
856.228	60.07
856.403	-52.56
856.577	64.17
856.752	35.5
856.926	33.45
857.101	60.07
857.276	49.83
857.45	15.02
857.625	12.97
857.799	62.12
857.974	55.98
858.148	21.16
858.323	70.31
858.497	121.51
858.672	29.35
858.846	-11.61
859.02	62.12
859.195	37.55
859.369	39.59
859.543	-5.46
859.718	-11.61
859.892	43.69
860.066	25.26
860.241	-7.51
860.415	-32.08
860.589	-3.41
860.763	55.98
860.938	10.92
861.112	45.74
861.286	-1.37
861.46	8.87
861.634	41.64
861.808	113.32
861.982	31.4
862.157	10.92
862.331	39.59
862.505	-11.61
862.679	62.12
862.853	-93.52
863.027	10.92
863.201	72.36
863.375	23.21
863.549	21.16
863.722	31.4
863.896	29.35
864.07	2.73
864.244	39.59
864.418	8.87
864.592	8.87
864.766	-1.37
864.939	8.87
865.113	35.5
865.287	19.11
865.461	29.35
865.634	90.79
865.808	-36.18
865.982	-36.18
866.156	8.87
866.329	72.36
866.503	21.16
866.676	62.12
866.85	39.59
867.024	66.22
867.197	6.83
867.371	0.68
867.544	37.55
867.718	29.35
867.891	29.35
868.065	60.07
868.238	-64.85
868.412	53.93
868.585	19.11
868.759	53.93
868.932	27.31
869.105	31.4
869.279	-50.52
869.452	12.97
869.625	-13.65
869.799	-3.41
869.972	-13.65
870.145	19.11
870.319	35.5
870.492	88.75
870.665	55.98
870.838	-19.8
871.011	43.69
871.185	-17.75
871.358	25.26
871.531	29.35
871.704	10.92
871.877	105.13
872.05	15.02
872.223	-58.71
872.396	25.26
872.569	-7.51
872.742	-3.41
872.915	60.07
873.088	-1.37
873.261	19.11
873.434	80.55
873.607	33.45
873.78	45.74
873.953	29.35
874.126	55.98
874.299	62.12
874.471	29.35
874.644	49.83
874.817	82.6
874.99	-27.99
875.163	49.83
875.335	86.7
875.508	4.78
875.681	-42.32
875.853	43.69
876.026	10.92
876.199	58.03
876.371	47.79
876.544	-17.75
876.717	17.07
876.889	33.45
877.062	86.7
877.234	-34.13
877.407	51.88
877.579	21.16
877.752	-17.75
877.924	-19.8
878.097	-3.41
878.269	17.07
878.442	31.4
878.614	58.03
878.786	29.35
878.959	33.45
879.131	6.83
879.303	-17.75
879.476	0.68
879.648	64.17
879.82	4.78
879.993	0.68
880.165	55.98
880.337	15.02
880.509	66.22
880.681	-50.52
880.854	43.69
881.026	80.55
881.198	66.22
881.37	21.16
881.542	62.12
881.714	80.55
881.886	6.83
882.058	6.83
882.23	53.93
882.402	-27.99
882.574	55.98
882.746	-1.37
882.918	15.02
883.09	23.21
883.262	39.59
883.434	25.26
883.606	-13.65
883.778	0.68
883.95	84.65
884.122	-15.7
884.293	53.93
884.465	17.07
884.637	72.36
884.809	-15.7
884.98	6.83
885.152	23.21
885.324	23.21
885.496	33.45
885.667	-27.99
885.839	29.35
886.011	90.79
886.182	64.17
886.354	37.55
886.525	-1.37
886.697	6.83
886.869	58.03
887.04	-21.85
887.212	-13.65
887.383	94.89
887.555	-13.65
887.726	37.55
887.897	-21.85
888.069	19.11
888.24	-34.13
888.412	-44.37
888.583	47.79
888.754	-19.8
888.926	-1.37
889.097	-30.04
889.268	-19.8
889.44	19.11
889.611	62.12
889.782	-30.04
889.953	33.45
890.125	31.4
890.296	2.73
890.467	49.83
890.638	-25.94
890.809	12.97
890.98	-3.41
891.151	39.59
891.323	43.69
891.494	47.79
891.665	27.31
891.836	-27.99
892.007	25.26
892.178	-5.46
892.349	-34.13
892.52	76.46
892.691	-3.41
892.862	35.5
893.032	-7.51
893.203	27.31
893.374	-1.37
893.545	33.45
893.716	23.21
893.887	23.21
894.057	70.31
894.228	-34.13
894.399	-42.32
894.57	47.79
894.74	-11.61
894.911	21.16
895.082	60.07
895.253	6.83
895.423	-11.61
895.594	94.89
895.764	39.59
895.935	31.4
896.106	-48.47
896.276	12.97
896.447	-7.51
896.617	-9.56
896.788	-38.23
896.958	-25.94
897.129	29.35
897.299	-48.47
897.47	45.74
897.64	-13.65
897.81	31.4
897.981	15.02
898.151	55.98
898.322	-23.89
898.492	-13.65
898.662	31.4
898.832	12.97
899.003	29.35
899.173	78.51
899.343	-9.56
899.513	31.4
