Data from USB4F104151__28__12-35-30-361.txt Node

Date: Fri Mar 14 12:35:30 EDT 2025
User: louis
Spectrometer: USB4F10415
Trigger mode: 4
Integration Time (sec): 2.000000E-2
Scans to average: 1
Electric dark correction enabled: true
Nonlinearity correction enabled: false
Boxcar width: 0
XAxis mode: Wavelengths
Number of Pixels in Spectrum: 3648
>>>>>Begin Spectral Data<<<<<
178.204	-103.25
178.424	-103.25
178.644	-103.25
178.864	-105.3
179.084	-127.83
179.304	3.24
179.524	-4.95
179.744	-56.15
179.964	64.68
180.184	13.48
180.404	-7
180.624	46.25
180.844	-27.48
181.064	-29.52
181.283	40.11
181.503	-35.67
181.723	-7
181.943	-136.02
182.163	76.97
182.383	11.43
182.602	74.92
182.822	15.53
183.042	27.82
183.262	-21.33
183.482	52.39
183.701	-39.76
183.921	29.87
184.141	-43.86
184.361	15.53
184.58	-25.43
184.8	52.39
185.02	46.25
185.239	27.82
185.459	7.34
185.679	33.96
185.898	-29.52
186.118	27.82
186.338	50.35
186.557	7.34
186.777	5.29
186.997	31.91
187.216	-17.24
187.436	109.74
187.655	66.73
187.875	64.68
188.095	7.34
188.314	23.72
188.534	21.67
188.753	-54.1
188.973	-27.48
189.192	79.02
189.412	29.87
189.631	-7
189.851	62.63
190.07	13.48
190.29	-11.09
190.509	-39.76
190.729	83.11
190.948	13.48
191.168	85.16
191.387	81.07
191.607	-25.43
191.826	5.29
192.045	36.01
192.265	81.07
192.484	-23.38
192.704	44.2
192.923	-39.76
193.142	42.15
193.362	9.39
193.581	60.59
193.8	23.72
194.02	79.02
194.239	56.49
194.458	-0.85
194.678	29.87
194.897	-0.85
195.116	66.73
195.335	85.16
195.555	-21.33
195.774	-56.15
195.993	68.78
196.212	42.15
196.432	-7
196.651	19.63
196.87	-2.9
197.089	183.46
197.308	46.25
197.528	105.64
197.747	38.06
197.966	23.72
198.185	56.49
198.404	-7
198.623	-9.05
198.842	124.07
199.062	25.77
199.281	44.2
199.5	23.72
199.719	46.25
199.938	81.07
200.157	44.2
200.376	-7
200.595	97.45
200.814	52.39
201.033	38.06
201.252	56.49
201.471	85.16
201.69	76.97
201.909	21.67
202.128	-19.29
202.347	-4.95
202.566	-43.86
202.785	52.39
203.004	-7
203.223	111.78
203.442	58.54
203.661	56.49
203.879	5.29
204.098	60.59
204.317	21.67
204.536	48.3
204.755	25.77
204.974	-15.19
205.193	66.73
205.411	70.83
205.63	95.4
205.849	29.87
206.068	62.63
206.287	36.01
206.505	3.24
206.724	5.29
206.943	-7
207.162	60.59
207.381	5.29
207.599	15.53
207.818	33.96
208.037	-45.91
208.255	64.68
208.474	29.87
208.693	-33.62
208.911	-9.05
209.13	17.58
209.349	-11.09
209.567	52.39
209.786	44.2
210.005	44.2
210.223	38.06
210.442	62.63
210.661	33.96
210.879	15.53
211.098	25.77
211.316	-33.62
211.535	42.15
211.753	-17.24
211.972	52.39
212.191	-9.05
212.409	-2.9
212.628	48.3
212.846	54.44
213.065	58.54
213.283	44.2
213.502	11.43
213.72	-7
213.938	-21.33
214.157	58.54
214.375	38.06
214.594	1.19
214.812	27.82
215.031	42.15
215.249	-27.48
215.467	66.73
215.686	5.29
215.904	87.21
216.122	3.24
216.341	117.93
216.559	25.77
216.778	58.54
216.996	1.19
217.214	5.29
217.432	54.44
217.651	46.25
217.869	60.59
218.087	-11.09
218.306	60.59
218.524	62.63
218.742	23.72
218.96	29.87
219.179	70.83
219.397	40.11
219.615	93.35
219.833	66.73
220.051	15.53
220.27	40.11
220.488	81.07
220.706	25.77
220.924	27.82
221.142	54.44
221.36	5.29
221.578	54.44
221.796	38.06
222.015	-25.43
222.233	13.48
222.451	50.35
222.669	7.34
222.887	58.54
223.105	-2.9
223.323	97.45
223.541	-21.33
223.759	38.06
223.977	23.72
224.195	-23.38
224.413	50.35
224.631	-2.9
224.849	74.92
225.067	79.02
225.285	7.34
225.503	76.97
225.721	19.63
225.939	66.73
226.157	46.25
226.375	109.74
226.592	-27.48
226.81	17.58
227.028	58.54
227.246	70.83
227.464	-50
227.682	27.82
227.9	46.25
228.117	-15.19
228.335	-0.85
228.553	-11.09
228.771	66.73
228.989	5.29
229.206	3.24
229.424	7.34
229.642	21.67
229.86	29.87
230.077	-17.24
230.295	7.34
230.513	62.63
230.731	91.31
230.948	52.39
231.166	25.77
231.384	19.63
231.601	58.54
231.819	17.58
232.037	27.82
232.254	-54.1
232.472	23.72
232.689	-11.09
232.907	87.21
233.125	19.63
233.342	109.74
233.56	-13.14
233.777	42.15
233.995	27.82
234.213	109.74
234.43	21.67
234.648	93.35
234.865	5.29
235.083	99.5
235.3	-2.9
235.518	36.01
235.735	5.29
235.953	68.78
236.17	-23.38
236.388	-41.81
236.605	68.78
236.822	-13.14
237.04	-50
237.257	40.11
237.475	15.53
237.692	48.3
237.909	-15.19
238.127	23.72
238.344	-17.24
238.562	-35.67
238.779	-13.14
238.996	46.25
239.214	38.06
239.431	76.97
239.648	38.06
239.865	33.96
240.083	64.68
240.3	7.34
240.517	-21.33
240.735	13.48
240.952	33.96
241.169	81.07
241.386	89.26
241.603	-2.9
241.821	-50
242.038	33.96
242.255	29.87
242.472	-41.81
242.689	68.78
242.907	122.02
243.124	-45.91
243.341	15.53
243.558	-27.48
243.775	68.78
243.992	7.34
244.209	21.67
244.426	113.83
244.643	58.54
244.86	66.73
245.078	3.24
245.295	48.3
245.512	21.67
245.729	58.54
245.946	58.54
246.163	56.49
246.38	-15.19
246.597	-0.85
246.814	38.06
247.031	29.87
247.248	-9.05
247.464	3.24
247.681	7.34
247.898	-31.57
248.115	50.35
248.332	38.06
248.549	-7
248.766	11.43
248.983	21.67
249.2	79.02
249.417	-21.33
249.633	-0.85
249.85	13.48
250.067	-25.43
250.284	27.82
250.501	48.3
250.717	19.63
250.934	29.87
251.151	19.63
251.368	91.31
251.585	29.87
251.801	44.2
252.018	19.63
252.235	72.87
252.451	62.63
252.668	23.72
252.885	11.43
253.102	-99.16
253.318	74.92
253.535	17.58
253.752	54.44
253.968	-13.14
254.185	36.01
254.401	-4.95
254.618	13.48
254.835	9.39
255.051	64.68
255.268	-50
255.484	1.19
255.701	1.19
255.917	58.54
256.134	-29.52
256.351	40.11
256.567	9.39
256.784	7.34
257	17.58
257.217	15.53
257.433	42.15
257.65	9.39
257.866	11.43
258.082	19.63
258.299	-17.24
258.515	38.06
258.732	29.87
258.948	-0.85
259.165	19.63
259.381	-25.43
259.597	-23.38
259.814	21.67
260.03	-19.29
260.246	27.82
260.463	17.58
260.679	42.15
260.895	25.77
261.112	107.69
261.328	15.53
261.544	-9.05
261.761	79.02
261.977	76.97
262.193	44.2
262.409	44.2
262.626	19.63
262.842	-2.9
263.058	9.39
263.274	17.58
263.49	48.3
263.707	15.53
263.923	52.39
264.139	-9.05
264.355	33.96
264.571	40.11
264.787	9.39
265.004	56.49
265.22	27.82
265.436	103.59
265.652	60.59
265.868	42.15
266.084	11.43
266.3	31.91
266.516	-35.67
266.732	-33.62
266.948	56.49
267.164	17.58
267.38	64.68
267.596	29.87
267.812	119.98
268.028	33.96
268.244	38.06
268.46	68.78
268.676	-7
268.892	-17.24
269.108	-9.05
269.324	-2.9
269.54	38.06
269.756	-23.38
269.972	38.06
270.188	79.02
270.403	23.72
270.619	29.87
270.835	62.63
271.051	52.39
271.267	105.64
271.483	54.44
271.698	-19.29
271.914	36.01
272.13	25.77
272.346	-4.95
272.562	-4.95
272.777	56.49
272.993	-25.43
273.209	17.58
273.425	-7
273.64	-13.14
273.856	3.24
274.072	15.53
274.287	-2.9
274.503	60.59
274.719	7.34
274.934	27.82
275.15	-0.85
275.366	38.06
275.581	15.53
275.797	33.96
276.012	-11.09
276.228	-4.95
276.444	52.39
276.659	62.63
276.875	-11.09
277.09	-19.29
277.306	13.48
277.521	62.63
277.737	-0.85
277.952	62.63
278.168	-17.24
278.383	29.87
278.599	15.53
278.814	27.82
279.03	38.06
279.245	66.73
279.461	44.2
279.676	76.97
279.892	-43.86
280.107	3.24
280.322	62.63
280.538	27.82
280.753	-2.9
280.969	-13.14
281.184	5.29
281.399	85.16
281.615	-43.86
281.83	23.72
282.045	3.24
282.26	74.92
282.476	66.73
282.691	46.25
282.906	-4.95
283.122	60.59
283.337	21.67
283.552	13.48
283.767	64.68
283.983	66.73
284.198	36.01
284.413	134.31
284.628	46.25
284.843	44.2
285.058	-2.9
285.274	36.01
285.489	46.25
285.704	44.2
285.919	-31.57
286.134	-31.57
286.349	-7
286.564	50.35
286.779	40.11
286.995	3.24
287.21	89.26
287.425	58.54
287.64	76.97
287.855	48.3
288.07	68.78
288.285	62.63
288.5	17.58
288.715	81.07
288.93	7.34
289.145	74.92
289.36	-0.85
289.575	-9.05
289.79	17.58
290.004	60.59
290.219	40.11
290.434	68.78
290.649	40.11
290.864	54.44
291.079	1.19
291.294	25.77
291.509	42.15
291.724	-4.95
291.938	62.63
292.153	11.43
292.368	113.83
292.583	17.58
292.798	1.19
293.012	11.43
293.227	46.25
293.442	25.77
293.657	91.31
293.871	42.15
294.086	-23.38
294.301	52.39
294.516	3.24
294.73	74.92
294.945	81.07
295.16	-0.85
295.374	54.44
295.589	52.39
295.804	60.59
296.018	-43.86
296.233	58.54
296.447	-56.15
296.662	-9.05
296.877	101.55
297.091	60.59
297.306	15.53
297.52	74.92
297.735	15.53
297.949	9.39
298.164	36.01
298.378	83.11
298.593	54.44
298.807	42.15
299.022	52.39
299.236	105.64
299.451	-41.81
299.665	-2.9
299.88	1.19
300.094	36.01
300.309	46.25
300.523	89.26
300.737	42.15
300.952	50.35
301.166	11.43
301.381	23.72
301.595	-7
301.809	85.16
302.024	-15.19
302.238	17.58
302.452	79.02
302.667	27.82
302.881	-0.85
303.095	46.25
303.309	13.48
303.524	111.78
303.738	5.29
303.952	54.44
304.166	25.77
304.381	-13.14
304.595	93.35
304.809	-15.19
305.023	3.24
305.237	-23.38
305.452	1.19
305.666	76.97
305.88	7.34
306.094	52.39
306.308	25.77
306.522	-7
306.736	83.11
306.95	36.01
307.164	107.69
307.379	-2.9
307.593	117.93
307.807	40.11
308.021	42.15
308.235	93.35
308.449	-39.76
308.663	42.15
308.877	117.93
309.091	44.2
309.305	44.2
309.519	42.15
309.733	50.35
309.947	42.15
310.161	68.78
310.374	31.91
310.588	52.39
310.802	-60.24
311.016	-23.38
311.23	27.82
311.444	7.34
311.658	-2.9
311.872	21.67
312.085	31.91
312.299	17.58
312.513	9.39
312.727	54.44
312.941	-27.48
313.154	60.59
313.368	72.87
313.582	70.83
313.796	64.68
314.009	107.69
314.223	15.53
314.437	1.19
314.651	44.2
314.864	68.78
315.078	21.67
315.292	56.49
315.505	-37.72
315.719	23.72
315.933	9.39
316.146	-11.09
316.36	142.5
316.573	68.78
316.787	87.21
317.001	52.39
317.214	9.39
317.428	46.25
317.641	-41.81
317.855	21.67
318.068	29.87
318.282	99.5
318.495	38.06
318.709	83.11
318.922	7.34
319.136	66.73
319.349	76.97
319.563	-0.85
319.776	3.24
319.99	-11.09
320.203	122.02
320.417	40.11
320.63	83.11
320.843	60.59
321.057	23.72
321.27	89.26
321.483	40.11
321.697	46.25
321.91	58.54
322.124	29.87
322.337	38.06
322.55	36.01
322.763	-64.34
322.977	126.12
323.19	-19.29
323.403	74.92
323.617	-7
323.83	91.31
324.043	89.26
324.256	74.92
324.469	76.97
324.683	38.06
324.896	25.77
325.109	23.72
325.322	36.01
325.535	97.45
325.748	31.91
325.962	13.48
326.175	11.43
326.388	29.87
326.601	-0.85
326.814	29.87
327.027	11.43
327.24	107.69
327.453	-9.05
327.666	17.58
327.879	68.78
328.092	29.87
328.305	5.29
328.518	87.21
328.731	-35.67
328.944	29.87
329.157	11.43
329.37	83.11
329.583	97.45
329.796	-25.43
330.009	66.73
330.222	52.39
330.435	62.63
330.648	76.97
330.861	68.78
331.073	29.87
331.286	85.16
331.499	42.15
331.712	17.58
331.925	21.67
332.138	33.96
332.35	97.45
332.563	33.96
332.776	52.39
332.989	27.82
333.202	-19.29
333.414	66.73
333.627	54.44
333.84	66.73
334.053	81.07
334.265	9.39
334.478	93.35
334.691	-2.9
334.903	-33.62
335.116	93.35
335.329	-23.38
335.541	-13.14
335.754	19.63
335.966	31.91
336.179	40.11
336.392	-2.9
336.604	-7
336.817	54.44
337.029	36.01
337.242	48.3
337.454	122.02
337.667	11.43
337.88	74.92
338.092	85.16
338.305	-29.52
338.517	62.63
338.729	54.44
338.942	21.67
339.154	25.77
339.367	44.2
339.579	58.54
339.792	11.43
340.004	81.07
340.217	99.5
340.429	62.63
340.641	7.34
340.854	29.87
341.066	60.59
341.278	60.59
341.491	64.68
341.703	13.48
341.915	21.67
342.128	70.83
342.34	111.78
342.552	-0.85
342.764	46.25
342.977	72.87
343.189	9.39
343.401	-2.9
343.613	76.97
343.826	62.63
344.038	-19.29
344.25	42.15
344.462	40.11
344.674	54.44
344.886	64.68
345.099	64.68
345.311	62.63
345.523	-7
345.735	-7
345.947	-2.9
346.159	122.02
346.371	46.25
346.583	74.92
346.795	99.5
347.007	60.59
347.219	40.11
347.431	76.97
347.643	74.92
347.855	-15.19
348.067	15.53
348.279	13.48
348.491	107.69
348.703	33.96
348.915	-25.43
349.127	-21.33
349.339	-43.86
349.551	44.2
349.763	66.73
349.975	-50
350.187	72.87
350.399	21.67
350.61	50.35
350.822	13.48
351.034	33.96
351.246	54.44
351.458	81.07
351.669	3.24
351.881	115.88
352.093	44.2
352.305	25.77
352.517	62.63
352.728	83.11
352.94	-9.05
353.152	15.53
353.363	40.11
353.575	70.83
353.787	13.48
353.999	46.25
354.21	85.16
354.422	-0.85
354.633	-25.43
354.845	70.83
355.057	33.96
355.268	25.77
355.48	19.63
355.692	38.06
355.903	27.82
356.115	-19.29
356.326	23.72
356.538	5.29
356.749	74.92
356.961	89.26
357.172	50.35
357.384	7.34
357.595	64.68
357.807	70.83
358.018	54.44
358.23	42.15
358.441	52.39
358.653	91.31
358.864	58.54
359.075	52.39
359.287	99.5
359.498	68.78
359.709	-0.85
359.921	33.96
360.132	58.54
360.344	15.53
360.555	50.35
360.766	111.78
360.977	-19.29
361.189	38.06
361.4	29.87
361.611	17.58
361.823	54.44
362.034	52.39
362.245	-17.24
362.456	66.73
362.667	31.91
362.879	31.91
363.09	25.77
363.301	27.82
363.512	95.4
363.723	3.24
363.935	87.21
364.146	74.92
364.357	64.68
364.568	103.59
364.779	11.43
364.99	48.3
365.201	-27.48
365.412	79.02
365.623	40.11
365.834	27.82
366.045	13.48
366.256	95.4
366.467	109.74
366.678	40.11
366.889	19.63
367.1	-2.9
367.311	-15.19
367.522	31.91
367.733	40.11
367.944	42.15
368.155	7.34
368.366	113.83
368.577	91.31
368.788	93.35
368.999	38.06
369.209	126.12
369.42	105.64
369.631	124.07
369.842	124.07
370.053	52.39
370.264	105.64
370.474	1.19
370.685	27.82
370.896	25.77
371.107	72.87
371.317	36.01
371.528	68.78
371.739	97.45
371.95	-31.57
372.16	3.24
372.371	33.96
372.582	70.83
372.792	31.91
373.003	58.54
373.214	11.43
373.424	56.49
373.635	40.11
373.846	15.53
374.056	52.39
374.267	95.4
374.477	66.73
374.688	11.43
374.898	111.78
375.109	93.35
375.319	72.87
375.53	48.3
375.74	99.5
375.951	58.54
376.161	29.87
376.372	117.93
376.582	81.07
376.793	158.89
377.003	44.2
377.214	48.3
377.424	23.72
377.635	31.91
377.845	23.72
378.055	-2.9
378.266	-15.19
378.476	46.25
378.686	107.69
378.897	52.39
379.107	60.59
379.317	95.4
379.528	42.15
379.738	60.59
379.948	15.53
380.158	87.21
380.369	7.34
380.579	31.91
380.789	81.07
380.999	85.16
381.21	46.25
381.42	58.54
381.63	56.49
381.84	64.68
382.05	27.82
382.261	101.55
382.471	79.02
382.681	25.77
382.891	134.31
383.101	38.06
383.311	50.35
383.521	66.73
383.731	44.2
383.941	21.67
384.151	79.02
384.361	76.97
384.571	42.15
384.781	74.92
384.991	62.63
385.201	87.21
385.411	52.39
385.621	183.46
385.831	33.96
386.041	9.39
386.251	83.11
386.461	29.87
386.671	62.63
386.881	134.31
387.091	91.31
387.301	111.78
387.511	66.73
387.72	95.4
387.93	58.54
388.14	29.87
388.35	50.35
388.56	79.02
388.769	95.4
388.979	105.64
389.189	-4.95
389.399	56.49
389.609	40.11
389.818	183.46
390.028	-15.19
390.238	85.16
390.447	56.49
390.657	68.78
390.867	70.83
391.076	101.55
391.286	38.06
391.496	58.54
391.705	95.4
391.915	105.64
392.125	-0.85
392.334	70.83
392.544	81.07
392.753	95.4
392.963	23.72
393.172	54.44
393.382	40.11
393.591	81.07
393.801	27.82
394.01	76.97
394.22	64.68
394.429	81.07
394.639	-29.52
394.848	105.64
395.058	140.46
395.267	56.49
395.477	50.35
395.686	99.5
395.895	150.7
396.105	150.7
396.314	126.12
396.524	79.02
396.733	103.59
396.942	89.26
397.152	216.23
397.361	148.65
397.57	140.46
397.78	91.31
397.989	76.97
398.198	162.98
398.407	72.87
398.617	117.93
398.826	146.6
399.035	72.87
399.244	144.55
399.453	31.91
399.663	103.59
399.872	89.26
400.081	72.87
400.29	122.02
400.499	60.59
400.708	191.66
400.917	160.94
401.127	165.03
401.336	40.11
401.545	124.07
401.754	103.59
401.963	103.59
402.172	162.98
402.381	31.91
402.59	79.02
402.799	156.84
403.008	187.56
403.217	154.79
403.426	214.18
403.635	117.93
403.844	103.59
404.053	132.26
404.262	109.74
404.471	171.18
404.68	201.9
404.888	136.36
405.097	122.02
405.306	199.85
405.515	119.98
405.724	162.98
405.933	119.98
406.142	199.85
406.35	197.8
406.559	179.37
406.768	156.84
406.977	249
407.185	224.42
407.394	214.18
407.603	216.23
407.812	273.57
408.02	230.57
408.229	238.76
408.438	218.28
408.646	244.9
408.855	318.63
409.064	199.85
409.272	310.44
409.481	267.43
409.69	298.15
409.898	269.48
410.107	287.91
410.315	332.97
410.524	359.59
410.733	339.11
410.941	359.59
411.15	337.06
411.358	375.97
411.567	472.23
411.775	418.98
411.984	443.56
412.192	423.08
412.401	443.56
412.609	543.91
412.818	500.9
413.026	572.58
413.234	533.67
413.443	640.16
413.651	572.58
413.86	619.68
414.068	631.97
414.276	658.59
414.485	650.4
414.693	658.59
414.901	754.85
415.11	717.98
415.318	771.23
415.526	787.61
415.734	859.29
415.943	826.53
416.151	926.88
416.359	892.06
416.567	1029.27
416.776	965.79
416.984	988.32
417.192	1008.8
417.4	1105.05
417.608	1004.7
417.817	1232.02
418.025	1197.21
418.233	1166.49
418.441	1201.3
418.649	1205.4
418.857	1334.42
419.065	1428.63
419.273	1367.19
419.481	1449.11
419.689	1528.98
419.897	1524.88
420.105	1703.06
420.313	1690.77
420.521	1711.25
420.729	1744.02
420.937	1803.41
421.145	1891.47
421.353	1975.44
421.561	2057.36
421.769	2167.95
421.977	2202.76
422.185	2120.84
422.393	2319.5
422.601	2440.33
422.809	2380.93
423.017	2503.81
423.224	2602.11
423.432	2573.44
423.64	2686.08
423.848	2804.86
424.056	2878.59
424.263	3050.62
424.471	3124.35
424.679	3060.86
424.887	3251.32
425.094	3333.24
425.302	3306.62
425.51	3660.91
425.718	3703.92
425.925	3652.72
426.133	3796.08
426.341	4043.88
426.548	4189.29
426.756	4183.15
426.964	4105.32
427.171	4473.96
427.379	4617.32
427.586	4682.85
427.794	4748.39
428.001	5108.83
428.209	5299.29
428.417	5145.69
428.624	5545.05
428.832	5491.8
429.039	5518.42
429.247	5459.03
429.454	6108.24
429.662	6440.01
429.869	5938.26
430.076	6313.03
430.284	6247.5
430.491	6605.89
430.699	6917.19
430.906	7031.87
431.114	7113.79
431.321	7148.61
431.528	7363.64
431.736	7824.44
431.943	8037.42
432.15	7865.39
432.358	8066.1
432.565	8524.84
432.772	8424.49
432.979	8885.28
433.187	8956.96
433.394	9067.55
433.601	9694.23
433.808	9649.18
434.016	9770.01
434.223	10159.12
434.43	10734.6
434.637	10474.51
434.844	11117.57
435.052	11324.41
435.259	11097.09
435.466	11389.95
435.673	11365.37
435.88	11979.76
436.087	12528.62
436.294	12635.11
436.501	12176.37
436.708	12641.26
436.915	12823.53
437.122	13698.01
437.329	13423.58
437.537	14007.25
437.743	14156.75
437.95	14312.4
438.157	14765
438.364	15578.04
438.571	15246.27
438.778	15381.44
438.985	16876.46
439.192	16229.3
439.399	16587.69
439.606	16307.12
439.813	17122.21
440.02	18430.87
440.227	17943.45
440.433	17849.24
440.64	18502.54
440.847	18344.85
441.054	18877.32
441.261	19860.35
441.467	19714.94
441.674	19987.32
441.881	20663.15
442.088	20941.68
442.294	20499.31
442.501	20953.96
442.708	21468
442.914	22334.29
443.121	22948.68
443.328	22614.87
443.534	24232.76
443.741	23561.03
443.948	23282.5
444.154	24892.21
444.361	24849.2
444.568	25250.6
444.774	25099.05
444.981	25363.24
445.187	26028.83
445.394	27163.4
445.6	26858.26
445.807	29592.3
446.013	28138.24
446.22	28658.42
446.426	29618.92
446.633	30106.34
446.839	31105.74
447.046	29780.71
447.252	31576.78
447.459	31394.51
447.665	31058.64
447.871	32461.5
448.078	34140.83
448.284	32262.85
448.491	33460.91
448.697	34550.43
448.903	35189.39
449.11	35603.08
449.316	35080.85
449.522	35453.58
449.728	36481.66
449.935	36600.44
450.141	36614.78
450.347	37499.5
450.553	35908.23
450.76	37036.66
450.966	37888.62
451.172	37294.71
451.378	38423.14
451.584	37675.63
451.791	38603.36
451.997	38242.92
452.203	39225.94
452.409	39520.85
452.615	38902.36
452.821	37827.18
453.027	36686.46
453.233	38761.05
453.44	37350
453.646	38068.84
453.852	38259.3
454.058	38783.58
454.264	37489.26
454.47	38320.74
454.676	37431.92
454.882	38462.05
455.088	35369.61
455.294	35760.78
455.5	36588.16
455.705	37061.24
455.911	35615.37
456.117	34728.6
456.323	34409.12
456.529	32690.87
456.735	33917.61
456.941	32830.13
457.147	32637.62
457.352	31464.14
457.558	31259.34
457.764	31107.79
457.97	30636.76
458.176	29997.79
458.381	30075.62
458.587	28465.91
458.793	28295.93
458.999	26876.69
459.204	28781.3
459.41	28105.47
459.616	26463
459.821	26469.14
460.027	26030.88
460.233	25604.9
460.438	24269.62
460.644	24693.55
460.85	23413.57
461.055	23096.14
461.261	23360.33
461.466	21459.81
461.672	20618.1
461.878	22446.93
462.083	20568.94
462.289	20415.35
462.494	20136.82
462.7	19444.61
462.905	18682.77
463.111	19430.27
463.316	19536.77
463.522	19137.41
463.727	19286.92
463.932	19024.78
464.138	18848.65
464.343	18867.08
464.549	18353.04
464.754	18981.77
464.959	18381.71
465.165	18695.05
465.37	17955.74
465.575	17343.39
465.781	18008.98
465.986	18144.15
466.191	17537.95
466.397	16849.83
466.602	16233.39
466.807	16999.34
467.012	17023.91
467.218	16798.63
467.423	16597.93
467.628	16765.87
467.833	17216.42
468.038	16763.82
468.244	16454.58
468.449	16976.81
468.654	16376.75
468.859	16235.44
469.064	16221.11
469.269	15567.81
469.474	15432.64
469.679	15891.38
469.885	15582.14
470.09	15827.9
470.295	15684.54
470.5	15018.95
470.705	15532.99
470.91	14771.15
471.115	15031.24
471.32	15033.29
471.525	14894.02
471.73	14566.35
471.935	14412.75
472.139	14117.84
472.344	14470.09
472.549	14140.37
472.754	14158.8
472.959	13769.69
473.164	13315.04
473.369	13169.63
473.574	13655
473.778	13554.65
473.983	13278.18
474.188	13450.21
474.393	12887.01
474.598	13224.93
474.802	12694.5
475.007	12669.93
475.212	12538.86
475.417	12092.4
475.621	12106.74
475.826	12112.88
476.031	12127.22
476.235	11721.72
476.44	11922.42
476.645	11576.31
476.849	11811.83
477.054	11805.69
477.259	11471.87
477.463	11607.03
477.668	11324.41
477.872	11359.23
478.077	11056.13
478.282	11019.27
478.486	10851.33
478.691	10691.59
478.895	10558.47
479.1	10640.39
479.304	10591.24
479.509	10206.22
479.713	10531.85
479.918	10255.37
480.122	10091.54
480.326	10095.63
480.531	10288.14
480.735	9960.47
480.94	10167.31
481.144	10490.89
481.348	9755.67
481.553	10069.01
481.757	9886.74
481.961	9993.23
482.166	10167.31
482.37	10144.78
482.574	9927.7
482.778	9911.32
482.983	9841.68
483.187	9776.15
483.391	9794.58
483.595	9692.18
483.8	9763.86
484.004	9966.61
484.208	10030.1
484.412	9784.34
484.616	9901.08
484.821	10042.39
485.025	9669.66
485.229	9976.85
485.433	9765.91
485.637	9831.44
485.841	9618.46
486.045	9733.14
486.249	9823.25
486.453	9733.14
486.657	9878.55
486.861	10073.1
487.065	9640.98
487.269	9739.29
487.473	9751.57
487.677	10085.39
487.881	10001.43
488.085	9776.15
488.289	9868.31
488.493	9901.08
488.697	10048.53
488.901	9751.57
489.105	9942.03
489.309	9874.45
489.512	9966.61
489.716	9978.9
489.92	10052.63
490.124	9987.09
490.328	10169.36
490.531	10101.78
490.735	10243.09
490.939	10073.1
491.143	9982.99
491.346	10107.92
491.55	10421.26
491.754	10353.68
491.958	10189.84
492.161	10361.87
492.365	10355.72
492.569	10304.53
492.772	10185.74
492.976	10482.7
493.18	10525.71
493.383	10777.61
493.587	10744.84
493.79	10890.24
493.994	10943.49
494.197	10877.96
494.401	11023.36
494.605	10945.54
494.808	11293.69
495.012	11133.95
495.215	11363.33
495.419	11322.37
495.622	11314.17
495.825	11463.68
496.029	11283.45
496.232	11691
496.436	11807.73
496.639	12135.41
496.843	11985.91
497.046	12067.83
497.249	12377.07
497.453	12237.81
497.656	12588.01
497.859	12612.59
498.063	12555.24
498.266	12741.61
498.469	13069.28
498.673	13132.77
498.876	13243.36
499.079	13212.64
499.282	13040.61
499.485	13874.13
499.689	13358.05
499.892	14029.78
500.095	13997.01
500.298	14459.85
500.501	14156.75
500.705	14375.89
500.908	14861.26
501.111	14611.4
501.314	14988.23
501.517	15127.49
501.72	15338.43
501.923	15479.74
502.126	15721.4
502.329	15891.38
502.532	16075.7
502.735	16184.24
502.938	16303.03
503.141	16530.35
503.344	16747.44
503.547	16731.05
503.75	17064.87
503.953	17550.24
504.156	17327.01
504.359	17507.23
504.562	17531.81
504.765	18041.75
504.968	18353.04
505.17	18394
505.373	18742.16
505.576	18938.76
505.779	18799.5
505.982	19278.72
506.185	19792.76
506.387	19798.91
506.59	19909.5
506.793	20374.39
506.996	20300.66
507.198	21068.65
507.401	20740.97
507.604	21121.9
507.807	20867.95
508.009	21496.67
508.212	21752.67
508.415	22092.63
508.617	22418.26
508.82	22627.15
509.022	22356.82
509.225	23003.98
509.428	23116.62
509.63	23161.67
509.833	23391.05
510.035	23913.28
510.238	23618.37
510.44	24134.46
510.643	24646.45
510.845	24818.48
511.048	24650.55
511.25	24775.47
511.453	25135.92
511.655	26131.23
511.858	26082.08
512.06	26467.09
512.262	26745.62
512.465	26331.93
512.667	26747.67
512.87	27353.87
513.072	27464.46
513.274	27925.25
513.477	28158.72
513.679	28386.04
513.881	28895.99
514.084	29008.62
514.286	29307.63
514.488	29467.37
514.69	30196.45
514.893	30388.95
515.095	30175.97
515.297	30788.31
515.499	31167.18
515.701	31316.68
515.904	31767.24
516.106	31926.98
516.308	32008.9
516.51	32727.74
516.712	32406.2
516.914	32955.06
517.116	33170.1
517.318	33366.7
517.52	33675.94
517.722	33764.01
517.925	34165.41
518.127	34880.15
518.329	35097.24
518.531	34751.13
518.733	35854.98
518.935	36035.2
519.136	35961.48
519.338	36326.02
519.54	36641.4
519.742	36954.74
519.944	37315.19
520.146	37757.55
520.348	37780.07
520.55	38304.35
520.752	37866.09
520.954	38955.61
521.155	38355.55
521.357	39576.14
521.559	39836.23
521.761	40182.34
521.963	39907.91
522.164	39973.45
522.366	40858.17
522.568	40888.89
522.77	40981.05
522.971	41871.92
523.173	41544.24
523.375	41732.65
523.576	41925.16
523.778	41986.6
523.98	42461.73
524.181	42588.7
524.383	42910.24
524.584	43082.27
524.786	43059.74
524.988	43199
525.189	43790.86
525.391	43997.71
525.592	44392.97
525.794	44421.64
525.995	44237.32
526.197	44573.19
526.398	44421.64
526.6	44898.81
526.801	45363.7
527.003	45509.11
527.204	45300.22
527.406	45627.89
527.607	45693.43
527.808	45707.76
528.01	45185.53
528.211	45578.74
528.412	46330.34
528.614	46352.87
528.815	46830.05
529.016	46924.25
529.218	46277.1
529.419	46680.55
529.62	46512.61
529.822	46864.86
530.023	46975.45
530.224	46967.26
530.425	46766.56
530.626	46596.58
530.828	47008.22
531.029	47217.11
531.23	46508.52
531.431	46848.48
531.632	47497.69
531.833	47190.49
532.035	46778.85
532.236	47350.23
532.437	47499.73
532.638	47110.62
532.839	47215.07
533.04	47909.33
533.241	47040.99
533.442	47757.78
533.643	47593.94
533.844	46864.86
534.045	47352.28
534.246	46825.95
534.447	47614.42
534.648	47374.81
534.849	46948.83
535.05	46379.49
535.251	46885.34
535.451	47049.18
535.652	47548.89
535.853	46967.26
536.054	47309.27
536.255	47350.23
536.456	46727.65
536.657	47245.79
536.857	46690.79
537.058	46762.47
537.259	47483.35
537.46	46895.58
537.66	46410.21
537.861	46940.64
538.062	46889.44
538.263	47149.53
538.463	46981.6
538.664	46713.31
538.865	46457.32
539.065	46748.13
539.266	46373.35
539.466	47088.09
539.667	46434.79
539.868	47102.43
540.068	46225.9
540.269	46389.73
540.469	46637.54
540.67	46287.34
540.87	46895.58
541.071	46623.2
541.271	46911.97
541.472	46633.44
541.672	46098.92
541.873	46473.7
542.073	45603.31
542.274	46631.4
542.474	46152.17
542.675	45863.41
542.875	46236.14
543.075	46139.88
543.276	45857.26
543.476	46858.72
543.676	46406.12
543.877	46569.96
544.077	45996.52
544.277	45789.68
544.478	45709.81
544.678	45988.33
544.878	46096.88
545.078	45980.14
545.279	45816.3
545.479	45314.55
545.679	45812.21
545.879	45306.36
546.079	45890.03
546.28	45464.05
546.48	45195.77
546.68	46164.46
546.88	45930.99
547.08	45566.45
547.28	45339.13
547.48	45521.4
547.68	45756.91
547.88	45369.85
548.081	45498.87
548.281	45664.75
548.481	45496.82
548.681	45656.56
548.881	45767.15
549.081	45787.63
549.28	45677.04
549.48	45998.57
549.68	45271.54
549.88	45742.58
550.08	45197.82
550.28	45666.8
550.48	45537.78
550.68	45494.77
550.88	45175.29
551.08	45283.83
551.279	45769.2
551.479	45206.01
551.679	45525.49
551.879	45050.36
552.079	45165.05
552.278	44993.02
552.478	45152.76
552.678	45378.04
552.878	45437.43
553.077	45472.24
553.277	44907.01
553.477	45597.17
553.676	45113.85
553.876	45181.43
554.076	45328.89
554.275	45332.98
554.475	44820.99
554.674	45009.4
554.874	44880.38
555.074	44702.21
555.273	44907.01
555.473	45367.8
555.672	44700.16
555.872	45070.84
556.071	44837.37
556.271	45189.63
556.47	44661.25
556.67	44122.63
556.869	44900.86
557.068	44829.18
557.268	44530.18
557.467	44454.4
557.667	44390.92
557.866	44534.28
558.065	44659.2
558.265	44073.48
558.464	43733.52
558.663	44438.02
558.863	43766.29
559.062	44435.97
559.261	43616.79
559.461	44044.81
559.66	43946.51
559.859	43966.99
560.058	43733.52
560.258	43874.83
560.457	43530.77
560.656	44020.23
560.855	43799.05
561.054	43637.26
561.253	43141.66
561.453	43190.81
561.652	43842.06
561.851	43756.05
562.05	43160.09
562.249	43076.12
562.448	43629.07
562.647	42963.48
562.846	43176.47
563.045	43166.23
563.244	42549.79
563.443	43184.66
563.642	42584.61
563.841	43000.35
564.04	42322.47
564.239	42672.67
564.438	42345
564.637	42684.96
564.836	42142.25
565.035	41914.92
565.234	42258.98
565.432	41976.36
565.631	42172.97
565.83	42179.11
566.029	41863.72
566.228	41517.62
566.427	41349.68
566.625	41568.82
566.824	41187.89
567.023	41429.55
567.222	41286.2
567.42	41191.99
567.619	41335.35
567.818	41339.44
568.016	41134.65
568.215	41028.15
568.414	40624.7
568.612	40956.47
568.811	40587.84
569.01	40591.94
569.208	40026.7
569.407	40376.9
569.605	40041.03
569.804	40507.97
570.002	39971.4
570.201	39821.9
570.4	40104.52
570.598	39494.22
570.797	39502.42
570.995	39588.43
571.193	39189.08
571.392	39539.28
571.59	39176.79
571.789	38949.46
571.987	39045.72
572.186	38826.59
572.384	38558.3
572.582	38490.72
572.781	38629.98
572.979	37993.06
573.177	38214.24
573.376	38695.52
573.574	37976.68
573.772	38464.1
573.971	37753.45
574.169	37542.51
574.367	37474.93
574.565	37808.75
574.763	37366.38
574.962	37532.27
575.16	36919.93
575.358	37292.66
575.556	36344.45
575.754	37415.54
575.952	37007.99
576.151	37020.28
576.349	36231.81
576.547	36610.68
576.745	36551.29
576.943	36600.44
577.141	36276.87
577.339	36582.01
577.537	36006.53
577.735	36127.36
577.933	36002.44
578.131	36190.85
578.329	35695.24
578.527	35502.73
578.725	35541.64
578.923	35781.26
579.121	35437.2
579.319	35160.72
579.516	35199.63
579.714	35013.27
579.912	34656.92
580.11	34704.03
580.308	34769.56
580.506	34804.38
580.704	34138.79
580.901	34286.24
581.099	34517.66
581.297	34218.66
581.495	33919.65
581.692	34486.94
581.89	33721
582.088	34286.24
582.285	33557.16
582.483	33612.46
582.681	33997.48
582.878	33417.9
583.076	33204.91
583.274	33786.54
583.471	33026.74
583.669	33178.29
583.866	32840.37
584.064	33053.36
584.262	32490.17
584.459	33077.94
584.657	32336.57
584.854	32703.16
585.052	32168.64
585.249	32381.63
585.447	32443.07
585.644	32240.32
585.841	32152.26
586.039	32285.37
586.236	31630.02
586.434	31652.55
586.631	31787.72
586.828	32117.44
587.026	31984.32
587.223	31681.22
587.42	31056.59
587.618	31380.17
587.815	31156.94
588.012	30882.52
588.21	30724.82
588.407	31328.97
588.604	30694.1
588.801	30712.53
588.999	30690.01
589.196	30440.15
589.393	30350.04
589.59	30452.44
589.787	30589.66
589.984	30536.41
590.182	30096.1
590.379	30485.21
590.576	30192.35
590.773	30118.62
590.97	29825.76
591.167	30188.25
591.364	29657.83
591.561	29733.6
591.758	29668.07
591.955	29186.8
592.152	29680.36
592.349	28984.05
592.546	29416.17
592.743	29283.05
592.94	29131.5
593.137	29371.11
593.334	29420.27
593.531	28674.81
593.727	28898.03
593.924	29014.77
594.121	28672.76
594.318	28695.28
594.515	28158.72
594.712	28752.63
594.908	28267.26
595.105	28414.71
595.302	28297.98
595.499	28156.67
595.696	28295.93
595.892	27890.43
596.089	27890.43
596.286	27960.06
596.482	27826.95
596.679	27939.58
596.876	27706.12
597.072	27343.63
597.269	27654.92
597.466	27554.57
597.662	27446.02
597.859	27314.95
598.055	27212.56
598.252	27151.12
598.448	26964.75
598.645	26694.42
598.841	26790.67
599.038	26684.18
599.234	26798.87
599.431	26485.53
599.627	26645.27
599.824	26655.51
600.02	26295.07
600.217	26606.36
600.413	26585.88
600.609	26436.38
600.806	26061.6
601.002	26284.83
601.198	26022.69
601.395	25891.62
601.591	25957.15
601.787	25846.56
601.984	25817.89
602.18	26145.56
602.376	25666.34
602.572	25588.52
602.769	25672.48
602.965	25226.03
603.161	25580.32
603.357	25254.7
603.553	25283.37
603.75	25240.36
603.946	24752.94
604.142	25064.24
604.338	24972.08
604.534	24707.89
604.73	24941.36
604.926	24861.49
605.122	24763.18
605.318	24517.43
605.514	24537.91
605.71	24537.91
605.906	24689.46
606.102	24425.27
606.298	24161.08
606.494	24329.02
606.69	24341.3
606.886	24425.27
607.082	23911.23
607.278	23767.87
607.474	23843.65
607.67	24263.48
607.866	23655.23
608.062	23991.1
608.257	23546.69
608.453	23900.99
608.649	23845.69
608.845	23616.32
609.041	23905.09
609.236	23432.01
609.432	23796.54
609.628	23262.02
609.824	23507.78
610.019	23460.68
610.215	23515.97
610.411	23302.98
610.606	23163.72
610.802	23307.08
610.998	22897.49
611.193	23133
611.389	22965.07
611.584	23133
611.78	22997.84
611.976	22655.82
612.171	23059.27
612.367	22866.77
612.562	22895.44
612.758	22530.9
612.953	22207.32
613.149	23012.17
613.344	22336.34
613.539	22770.51
613.735	22502.23
613.93	22473.56
614.126	22618.96
614.321	22727.5
614.517	22184.79
614.712	22301.53
614.907	21924.7
615.103	22408.02
615.298	22190.94
615.493	22268.76
615.688	21818.21
615.884	22377.3
616.079	21726.05
616.274	21879.64
616.47	21863.26
616.665	21990.24
616.86	21713.76
617.055	21900.12
617.25	21744.48
617.445	21955.42
617.641	21195.62
617.836	21689.18
618.031	20970.35
618.226	21437.28
618.421	21187.43
618.616	21287.78
618.811	20978.54
619.006	21365.6
619.201	20700.01
619.396	21109.61
619.591	20824.94
619.786	20951.91
619.981	20642.67
620.176	20650.86
620.371	20312.95
620.566	20392.82
620.761	20278.13
620.956	20345.72
621.151	19876.73
621.346	20253.56
621.541	19866.49
621.735	20284.28
621.93	19606.4
622.125	19786.62
622.32	19557.25
622.515	19624.83
622.709	19385.22
622.904	19291.01
623.099	19299.2
623.294	19145.61
623.488	18971.53
623.683	18881.42
623.878	18772.88
624.072	18455.44
624.267	18830.22
624.462	18529.17
624.656	18426.77
624.851	18330.51
625.046	18221.97
625.24	17980.31
625.435	18082.71
625.629	18193.3
625.824	17853.34
626.018	17882.01
626.213	17476.51
626.407	17646.49
626.602	17413.02
626.796	17275.81
626.991	17374.11
627.185	17376.16
627.38	17062.82
627.574	17134.5
627.768	16894.89
627.963	16935.85
628.157	16817.07
628.352	16894.89
628.546	16593.84
628.74	16681.9
628.935	16376.75
629.129	16350.13
629.323	16186.29
629.517	16352.18
629.712	16083.89
629.906	16149.43
630.1	16100.28
630.294	16020.41
630.489	15831.99
630.683	15979.45
630.877	15528.89
631.071	15274.95
631.265	15559.61
631.459	15195.07
631.653	15291.33
631.848	15403.97
632.042	15084.48
632.236	15201.22
632.43	14840.78
632.624	14863.3
632.818	14767.05
633.012	14597.07
633.206	14611.4
633.4	14554.06
633.594	14486.48
633.788	14558.16
633.982	14418.89
634.176	14351.31
634.369	14341.07
634.563	14222.29
634.757	14140.37
634.951	13870.04
635.145	13921.24
635.339	13992.92
635.533	13630.43
635.726	13898.71
635.92	13857.75
636.114	13708.25
636.308	13530.08
636.501	13525.98
636.695	13288.42
636.889	13290.46
637.083	13169.63
637.276	13163.49
637.47	13089.76
637.664	13061.09
637.857	13077.48
638.051	12878.82
638.244	12616.68
638.438	12671.98
638.632	12694.5
638.825	12633.07
639.019	12379.12
639.212	12418.03
639.406	12254.19
639.599	12364.78
639.793	12123.12
639.986	12014.58
640.18	12067.83
640.373	12176.37
640.567	11883.51
640.76	11867.13
640.954	11887.61
641.147	11469.82
641.34	11758.58
641.534	11420.67
641.727	11664.38
641.92	11426.81
642.114	11521.02
642.307	11392
642.5	11230.21
642.694	11193.34
642.887	11011.07
643.08	11199.49
643.273	10900.48
643.467	11060.23
643.66	10814.47
643.853	10783.75
644.046	10619.91
644.239	10761.22
644.432	10585.1
644.626	10566.67
644.819	10488.84
645.012	10294.29
645.205	10443.79
645.398	10363.92
645.591	10245.13
645.784	10365.96
645.977	10157.07
646.17	10294.29
646.363	9782.29
646.556	9851.92
646.749	9729.05
646.942	9770.01
647.135	9587.74
647.328	9634.84
647.521	9548.82
647.714	9423.9
647.907	9341.98
648.099	9417.75
648.292	9434.14
648.485	9483.29
648.678	9352.22
648.871	9237.53
649.064	9241.63
649.256	9315.36
649.449	9045.02
649.642	8922.15
649.835	8676.39
650.027	9104.42
650.22	8907.81
650.413	8866.85
650.605	8653.86
650.798	8594.47
650.991	8743.97
651.183	8668.2
651.376	8567.85
651.568	8553.51
651.761	8612.9
651.954	8442.92
652.146	8410.15
652.339	8430.63
652.531	8295.47
652.724	8371.24
652.916	8197.17
653.109	8188.97
653.301	8324.14
653.494	8217.65
653.686	7947.31
653.879	8016.94
654.071	7965.75
654.263	7687.22
654.456	8033.33
654.648	7765.04
654.84	7730.23
655.033	7812.15
655.225	7771.19
655.417	7621.69
655.61	7701.56
655.802	7513.14
655.994	7406.65
656.186	7578.68
656.379	7535.67
656.571	7474.23
656.763	7355.45
656.955	7365.69
657.148	7337.02
657.34	7298.11
657.532	7214.14
657.724	7072.83
657.916	7275.58
658.108	7158.85
658.3	7076.93
658.492	7128.13
658.684	7005.25
658.876	6974.53
659.068	6960.19
659.26	6962.24
659.452	6952
659.644	6939.71
659.836	6691.91
660.028	6792.26
660.22	6679.62
660.412	6550.6
660.604	6552.65
660.796	6779.97
660.988	6554.69
661.18	6470.73
661.372	6462.54
661.563	6257.74
661.755	6534.21
661.947	6433.86
662.139	6329.42
662.331	6302.79
662.522	6194.25
662.714	6280.27
662.906	6138.96
663.097	6206.54
663.289	6241.36
663.481	5993.55
663.673	6110.29
663.864	6034.51
664.056	6057.04
664.247	5936.21
664.439	5813.33
664.631	5921.87
664.822	5913.68
665.014	5968.98
665.205	5905.49
665.397	5745.75
665.588	5796.95
665.78	5723.22
665.971	5612.63
666.163	5710.93
666.354	5647.44
666.546	5684.31
666.737	5508.18
666.929	5770.32
667.12	5696.6
667.311	5528.66
667.503	5571.67
667.694	5563.48
667.885	5327.96
668.077	5381.21
668.268	5436.5
668.459	5432.41
668.651	5446.74
668.842	5327.96
669.033	5327.96
669.224	5205.08
669.416	5289.05
669.607	5266.52
669.798	5330.01
669.989	5241.95
670.18	5227.61
670.371	5272.67
670.563	5297.24
670.754	5166.17
670.945	4971.61
671.136	5117.02
671.327	5069.92
671.518	5094.49
671.709	5094.49
671.9	5110.88
672.091	4815.97
672.282	4947.04
672.473	5069.92
672.664	5071.97
672.855	4949.09
673.046	5002.33
673.237	5047.39
673.428	4775.01
673.619	4992.09
673.809	4922.46
674	4893.79
674.191	4836.45
674.382	4752.48
674.573	4818.02
674.764	4809.83
674.954	4750.43
675.145	4691.04
675.336	4938.85
675.527	4766.82
675.717	4764.77
675.908	4584.55
676.099	4670.56
676.289	4822.11
676.48	4633.7
676.671	4697.19
676.861	4551.78
677.052	4707.43
677.243	4582.5
677.433	4482.15
677.624	4611.17
677.814	4525.16
678.005	4600.93
678.195	4383.85
678.386	4525.16
678.576	4611.17
678.767	4592.74
678.957	4619.36
679.148	4478.05
679.338	4582.5
679.529	4568.16
679.719	4553.83
679.909	4660.32
680.1	4680.8
680.29	4258.92
680.481	4430.95
680.671	4627.56
680.861	4344.94
681.052	4543.59
681.242	4592.74
681.432	4484.2
681.622	4404.33
681.813	4555.88
682.003	4545.64
682.193	4490.34
682.383	4525.16
682.573	4437.09
682.764	4289.64
682.954	4478.05
683.144	4322.41
683.334	4387.94
683.524	4418.66
683.714	4306.02
683.904	4457.57
684.094	4547.69
684.284	4437.09
684.474	4539.49
684.664	4418.66
684.854	4224.11
685.044	4355.18
685.234	4316.26
685.424	4377.7
685.614	4340.84
685.804	4242.54
685.994	4338.79
686.184	4256.87
686.374	4203.63
686.564	4400.23
686.753	4338.79
686.943	4209.77
687.133	4338.79
687.323	4203.63
687.513	4238.44
687.702	4248.68
687.892	4248.68
688.082	4150.38
688.272	4228.2
688.461	4109.42
688.651	4109.42
688.841	4109.42
689.03	4181.1
689.22	3984.49
689.41	4093.04
689.599	4101.23
689.789	4029.55
689.979	4138.09
690.168	4086.89
690.358	3994.73
690.547	4064.36
690.737	4101.23
690.926	4125.8
691.116	3929.2
691.305	3947.63
691.495	3902.58
691.684	3873.9
691.874	3945.58
692.063	3937.39
692.252	3855.47
692.442	3724.4
692.631	3812.46
692.82	3972.21
693.01	3886.19
693.199	3996.78
693.388	3851.38
693.578	3898.48
693.767	3878
693.956	3843.18
694.146	3933.29
694.335	3753.07
694.524	3873.9
694.713	3796.08
694.902	3882.1
695.092	3834.99
695.281	3830.9
695.47	3732.59
695.659	3787.89
695.848	3779.7
696.037	3779.7
696.226	3785.84
696.415	3714.16
696.604	3798.13
696.793	3720.31
696.982	3648.63
697.171	3947.63
697.36	3720.31
697.549	3863.66
697.738	3589.24
697.927	3683.44
698.116	3669.11
698.305	3669.11
698.494	3867.76
698.683	3738.74
698.872	3654.77
699.061	3722.35
699.25	3703.92
699.438	3781.74
699.627	3890.29
699.816	3667.06
700.005	3683.44
700.193	3667.06
700.382	3675.25
700.571	3785.84
700.76	3650.67
700.948	3564.66
701.137	3699.83
701.326	3595.38
701.514	3531.89
701.703	3570.8
701.892	3630.2
702.08	3579
702.269	3515.51
702.457	3419.25
702.646	3583.09
702.834	3513.46
703.023	3456.12
703.212	3574.9
703.4	3495.03
703.589	3423.35
703.777	3511.41
703.965	3564.66
704.154	3517.56
704.342	3540.08
704.531	3460.21
704.719	3376.25
704.907	3611.76
705.096	3230.84
705.284	3499.13
705.472	3425.4
705.661	3507.32
705.849	3396.73
706.037	3517.56
706.226	3325.05
706.414	3318.9
706.602	3382.39
706.79	3363.96
706.979	3441.78
707.167	3329.14
707.355	3419.25
707.543	3409.01
707.731	3343.48
707.919	3308.66
708.107	3269.75
708.296	3224.7
708.484	3232.89
708.672	3200.12
708.86	3357.82
709.048	3339.38
709.236	3220.6
709.424	3136.63
709.612	3243.13
709.8	3210.36
709.988	3187.83
710.176	3087.48
710.364	3226.75
710.551	3136.63
710.739	3179.64
710.927	3173.5
711.115	3228.79
711.303	3144.83
711.491	3110.01
711.679	3155.07
711.866	3067
712.054	3249.27
712.242	3024
712.43	3157.11
712.617	3210.36
712.805	2985.09
712.993	3046.52
713.181	3114.11
713.368	3036.28
713.556	3073.15
713.744	3099.77
713.931	3118.2
714.119	3089.53
714.306	3017.85
714.494	2919.55
714.682	3075.2
714.869	2952.32
715.057	2987.13
715.244	2925.69
715.432	2933.89
715.619	2966.65
715.807	2966.65
715.994	2944.13
716.182	2874.49
716.369	3038.33
716.556	2858.11
716.744	2915.45
716.931	2833.54
717.119	2913.41
717.306	2935.93
717.493	2923.65
717.681	2858.11
717.868	2856.06
718.055	2731.14
718.242	2811.01
718.43	2913.41
718.617	2927.74
718.804	2731.14
718.991	2796.67
719.179	2813.06
719.366	2677.89
719.553	2933.89
719.74	2837.63
719.927	2739.33
720.114	2651.27
720.301	2622.59
720.488	2718.85
720.676	2761.86
720.863	2608.26
721.05	2724.99
721.237	2645.12
721.424	2686.08
721.611	2720.9
721.798	2704.51
721.985	2561.16
722.172	2581.64
722.358	2534.53
722.545	2536.58
722.732	2581.64
722.919	2634.88
723.106	2534.53
723.293	2536.58
723.48	2581.64
723.667	2546.82
723.853	2485.38
724.04	2616.45
724.227	2555.01
724.414	2565.25
724.6	2649.22
724.787	2534.53
724.974	2536.58
725.161	2507.91
725.347	2485.38
725.534	2477.19
725.72	2415.75
725.907	2464.9
726.094	2616.45
726.28	2428.04
726.467	2569.35
726.653	2462.85
726.84	2512
727.027	2397.32
727.213	2423.94
727.4	2489.48
727.586	2389.13
727.773	2499.72
727.959	2366.6
728.145	2421.89
728.332	2323.59
728.518	2436.23
728.705	2393.22
728.891	2372.74
729.077	2407.56
729.264	2464.9
729.45	2319.5
729.636	2438.28
729.823	2227.34
730.009	2339.97
730.195	2303.11
730.382	2362.5
730.568	2290.82
730.754	2376.84
730.94	2380.93
731.126	2270.34
731.313	2280.58
731.499	2256.01
731.685	2247.82
731.871	2290.82
732.057	2413.7
732.243	2346.12
732.429	2339.97
732.615	2233.48
732.801	2247.82
732.987	2219.14
733.173	2321.54
733.359	2163.85
733.545	2182.28
733.731	2135.18
733.917	2241.67
734.103	2233.48
734.289	2239.62
734.475	2131.08
734.661	2225.29
734.847	2108.55
735.033	2163.85
735.219	2088.07
735.404	2114.7
735.59	2184.33
735.776	2122.89
735.962	2118.79
736.148	2124.94
736.333	2165.9
736.519	2102.41
736.705	2061.45
736.89	2155.66
737.076	2040.97
737.262	2153.61
737.447	2133.13
737.633	2090.12
737.819	2129.03
738.004	2038.92
738.19	1987.72
738.375	1971.34
738.561	2090.12
738.747	1959.05
738.932	2036.88
739.118	2010.25
739.303	1957
739.489	2088.07
739.674	1922.19
739.859	1946.76
740.045	1981.58
740.23	2034.83
740.416	2059.4
740.601	1934.48
740.786	1952.91
740.972	2073.74
741.157	1950.86
741.342	1946.76
741.528	1875.09
741.713	1946.76
741.898	1885.33
742.084	1918.09
742.269	1891.47
742.454	1850.51
742.639	1864.85
742.824	1725.58
743.01	1873.04
743.195	1782.93
743.38	1719.44
743.565	1840.27
743.75	1784.98
743.935	1813.65
744.12	1729.68
744.305	1799.31
744.49	1850.51
744.675	1879.18
744.86	1645.71
745.045	1711.25
745.23	1690.77
745.415	1692.82
745.6	1741.97
745.785	1754.26
745.97	1719.44
746.155	1672.34
746.34	1684.62
746.525	1561.75
746.71	1649.81
746.895	1612.95
747.079	1557.65
747.264	1741.97
747.449	1604.75
747.634	1647.76
747.819	1594.51
748.003	1549.46
748.188	1705.1
748.373	1614.99
748.557	1447.06
748.742	1621.14
748.927	1569.94
749.111	1496.21
749.296	1453.2
749.481	1537.17
749.665	1531.03
749.85	1422.48
750.034	1627.28
750.219	1449.11
750.404	1428.63
750.588	1471.64
750.773	1447.06
750.957	1469.59
751.141	1315.99
751.326	1412.25
751.51	1461.4
751.695	1365.14
751.879	1424.53
752.064	1324.18
752.248	1359
752.432	1397.91
752.617	1289.37
752.801	1334.42
752.985	1326.23
753.17	1406.1
753.354	1209.5
753.538	1295.51
753.722	1272.98
753.907	1287.32
754.091	1309.85
754.275	1258.65
754.459	1264.79
754.643	1195.16
754.828	1275.03
755.012	1158.3
755.196	1195.16
755.38	1215.64
755.564	1268.89
755.748	1215.64
755.932	1232.02
756.116	1135.77
756.3	1146.01
756.484	1084.57
756.668	1127.58
756.852	1111.19
757.036	1088.67
757.22	1123.48
757.404	1154.2
757.588	1119.39
757.772	1062.04
757.956	1098.91
758.14	1072.28
758.323	1115.29
758.507	1117.34
758.691	1027.23
758.875	1023.13
759.059	1039.51
759.242	1010.84
759.426	930.97
759.61	1084.57
759.794	951.45
759.977	1039.51
760.161	984.22
760.345	1096.86
760.528	1025.18
760.712	1021.08
760.895	953.5
761.079	906.4
761.263	937.12
761.446	943.26
761.63	1004.7
761.813	896.16
761.997	998.56
762.18	926.88
762.364	908.44
762.547	982.17
762.731	939.16
762.914	912.54
763.098	847.01
763.281	935.07
763.464	793.76
763.648	892.06
763.831	873.63
764.015	894.11
764.198	851.1
764.381	863.39
764.564	855.2
764.748	814.24
764.931	890.01
765.114	808.09
765.297	877.73
765.481	810.14
765.664	855.2
765.847	783.52
766.03	914.59
766.213	871.58
766.397	801.95
766.58	742.56
766.763	826.53
766.946	763.04
767.129	840.86
767.312	773.28
767.495	865.44
767.678	763.04
767.861	750.75
768.044	775.33
768.227	748.7
768.41	756.9
768.593	724.13
768.776	818.33
768.959	744.61
769.142	703.65
769.324	783.52
769.507	826.53
769.69	752.8
769.873	801.95
770.056	756.9
770.239	844.96
770.421	744.61
770.604	705.7
770.787	713.89
770.97	750.75
771.152	670.88
771.335	777.37
771.518	728.22
771.7	752.8
771.883	775.33
772.066	728.22
772.248	631.97
772.431	615.59
772.613	681.12
772.796	715.94
772.978	730.27
773.161	775.33
773.343	615.59
773.526	703.65
773.708	625.83
773.891	674.98
774.073	664.74
774.256	564.39
774.438	629.92
774.621	568.48
774.803	611.49
774.985	599.2
775.168	732.32
775.35	595.11
775.532	679.07
775.715	623.78
775.897	627.87
776.079	621.73
776.261	681.12
776.444	586.91
776.626	556.19
776.808	568.48
776.99	601.25
777.173	597.15
777.355	599.2
777.537	625.83
777.719	621.73
777.901	586.91
778.083	523.43
778.265	537.76
778.447	531.62
778.629	541.86
778.811	552.1
778.993	545.95
779.175	541.86
779.357	484.52
779.539	478.37
779.721	560.29
779.903	568.48
780.085	574.63
780.267	552.1
780.449	504.99
780.631	529.57
780.812	464.04
780.994	476.32
781.176	490.66
781.358	429.22
781.54	521.38
781.721	449.7
781.903	560.29
782.085	447.65
782.267	519.33
782.448	466.08
782.63	345.25
782.812	443.56
782.993	455.84
783.175	468.13
783.357	408.74
783.538	351.4
783.72	468.13
783.901	457.89
784.083	425.12
784.264	504.99
784.446	382.12
784.627	392.36
784.809	470.18
784.99	386.21
785.172	451.75
785.353	437.41
785.535	386.21
785.716	421.03
785.897	400.55
786.079	441.51
786.26	439.46
786.441	347.3
786.623	318.63
786.804	361.64
786.985	384.16
787.167	414.88
787.348	365.73
787.529	414.88
787.71	421.03
787.891	328.87
788.073	347.3
788.254	335.01
788.435	369.83
788.616	343.21
788.797	357.54
788.978	281.77
789.159	357.54
789.34	318.63
789.522	285.86
789.703	375.97
789.884	292.01
790.065	330.92
790.246	304.29
790.427	294.05
790.607	318.63
790.788	279.72
790.969	363.69
791.15	388.26
791.331	314.53
791.512	316.58
791.693	302.25
791.874	328.87
792.054	353.45
792.235	298.15
792.416	310.44
792.597	314.53
792.778	296.1
792.958	328.87
793.139	308.39
793.32	320.68
793.5	296.1
793.681	388.26
793.862	324.77
794.042	298.15
794.223	298.15
794.404	273.57
794.584	255.14
794.765	253.09
794.945	224.42
795.126	285.86
795.306	251.05
795.487	347.3
795.667	296.1
795.848	312.49
796.028	310.44
796.209	304.29
796.389	271.53
796.57	226.47
796.75	187.56
796.93	314.53
797.111	226.47
797.291	220.33
797.471	234.66
797.652	177.32
797.832	253.09
798.012	179.37
798.192	232.62
798.373	240.81
798.553	228.52
798.733	269.48
798.913	210.09
799.093	199.85
799.274	218.28
799.454	242.85
799.634	238.76
799.814	222.38
799.994	269.48
800.174	228.52
800.354	152.74
800.534	177.32
800.714	201.9
800.894	214.18
801.074	148.65
801.254	72.87
801.434	214.18
801.614	183.46
801.794	222.38
801.974	707.74
802.154	205.99
802.334	259.24
802.514	160.94
802.693	169.13
802.873	191.66
803.053	281.77
803.233	169.13
803.413	189.61
803.592	183.46
803.772	177.32
803.952	85.16
804.131	203.94
804.311	263.33
804.491	169.13
804.67	144.55
804.85	138.41
805.03	171.18
805.209	191.66
805.389	107.69
805.568	150.7
805.748	220.33
805.928	185.51
806.107	193.7
806.287	269.48
806.466	169.13
806.646	183.46
806.825	124.07
807.004	105.64
807.184	136.36
807.363	160.94
807.543	179.37
807.722	208.04
807.901	162.98
808.081	138.41
808.26	85.16
808.439	177.32
808.619	189.61
808.798	128.17
808.977	142.5
809.156	208.04
809.336	169.13
809.515	169.13
809.694	89.26
809.873	128.17
810.052	148.65
810.231	205.99
810.411	191.66
810.59	144.55
810.769	154.79
810.948	181.42
811.127	105.64
811.306	109.74
811.485	154.79
811.664	144.55
811.843	142.5
812.022	179.37
812.201	124.07
812.38	113.83
812.559	134.31
812.737	60.59
812.916	64.68
813.095	148.65
813.274	148.65
813.453	130.22
813.632	148.65
813.811	119.98
813.989	128.17
814.168	113.83
814.347	95.4
814.526	64.68
814.704	160.94
814.883	50.35
815.062	99.5
815.24	146.6
815.419	156.84
815.598	156.84
815.776	62.63
815.955	95.4
816.133	130.22
816.312	148.65
816.49	113.83
816.669	181.42
816.847	83.11
817.026	126.12
817.204	126.12
817.383	169.13
817.561	148.65
817.74	101.55
817.918	156.84
818.097	76.97
818.275	64.68
818.453	105.64
818.632	103.59
818.81	165.03
818.988	58.54
819.167	64.68
819.345	105.64
819.523	19.63
819.701	132.26
819.879	128.17
820.058	101.55
820.236	124.07
820.414	138.41
820.592	-4.95
820.77	126.12
820.948	103.59
821.127	64.68
821.305	87.21
821.483	93.35
821.661	152.74
821.839	70.83
822.017	58.54
822.195	74.92
822.373	126.12
822.551	83.11
822.729	140.46
822.907	23.72
823.085	126.12
823.262	113.83
823.44	40.11
823.618	144.55
823.796	68.78
823.974	79.02
824.152	19.63
824.329	64.68
824.507	144.55
824.685	122.02
824.863	126.12
825.04	130.22
825.218	113.83
825.396	46.25
825.574	111.78
825.751	173.22
825.929	-25.43
826.107	76.97
826.284	107.69
826.462	103.59
826.639	54.44
826.817	42.15
826.994	33.96
827.172	52.39
827.349	144.55
827.527	27.82
827.704	140.46
827.882	-13.14
828.059	56.49
828.237	9.39
828.414	56.49
828.591	105.64
828.769	122.02
828.946	-15.19
829.124	79.02
829.301	97.45
829.478	33.96
829.655	115.88
829.833	56.49
830.01	101.55
830.187	101.55
830.364	76.97
830.542	50.35
830.719	81.07
830.896	113.83
831.073	21.67
831.25	208.04
831.427	93.35
831.604	95.4
831.782	79.02
831.959	95.4
832.136	56.49
832.313	95.4
832.49	36.01
832.667	36.01
832.844	111.78
833.021	70.83
833.198	101.55
833.374	9.39
833.551	44.2
833.728	36.01
833.905	146.6
834.082	74.92
834.259	15.53
834.436	97.45
834.612	76.97
834.789	25.77
834.966	66.73
835.143	52.39
835.319	11.43
835.496	9.39
835.673	17.58
835.85	152.74
836.026	13.48
836.203	101.55
836.38	97.45
836.556	58.54
836.733	58.54
836.909	93.35
837.086	124.07
837.262	19.63
837.439	101.55
837.616	31.91
837.792	107.69
837.968	105.64
838.145	72.87
838.321	23.72
838.498	-11.09
838.674	62.63
838.851	64.68
839.027	27.82
839.203	83.11
839.38	64.68
839.556	13.48
839.732	130.22
839.909	29.87
840.085	89.26
840.261	9.39
840.437	33.96
840.614	17.58
840.79	25.77
840.966	52.39
841.142	48.3
841.318	40.11
841.494	70.83
841.671	115.88
841.847	-11.09
842.023	-45.91
842.199	60.59
842.375	25.77
842.551	44.2
842.727	13.48
842.903	79.02
843.079	89.26
843.255	87.21
843.431	72.87
843.607	-27.48
843.783	-43.86
843.959	50.35
844.134	-2.9
844.31	52.39
844.486	33.96
844.662	87.21
844.838	52.39
845.013	68.78
845.189	19.63
845.365	62.63
845.541	60.59
845.716	68.78
845.892	68.78
846.068	85.16
846.244	-31.57
846.419	56.49
846.595	33.96
846.77	27.82
846.946	29.87
847.122	54.44
847.297	142.5
847.473	40.11
847.648	-15.19
847.824	31.91
847.999	31.91
848.175	1.19
848.35	15.53
848.526	66.73
848.701	5.29
848.876	111.78
849.052	29.87
849.227	74.92
849.403	91.31
849.578	101.55
849.753	68.78
849.929	46.25
850.104	36.01
850.279	128.17
850.454	9.39
850.63	52.39
850.805	-2.9
850.98	85.16
851.155	27.82
851.33	56.49
851.505	42.15
851.681	44.2
851.856	-23.38
852.031	72.87
852.206	9.39
852.381	31.91
852.556	64.68
852.731	76.97
852.906	21.67
853.081	79.02
853.256	64.68
853.431	87.21
853.606	-7
853.781	36.01
853.956	5.29
854.131	66.73
854.305	42.15
854.48	-35.67
854.655	56.49
854.83	85.16
855.005	5.29
855.18	-43.86
855.354	13.48
855.529	68.78
855.704	-9.05
855.879	76.97
856.053	-9.05
856.228	40.11
856.403	27.82
856.577	72.87
856.752	54.44
856.926	-2.9
857.101	38.06
857.276	-90.96
857.45	5.29
857.625	21.67
857.799	81.07
857.974	-19.29
858.148	-37.72
858.323	60.59
858.497	60.59
858.672	142.5
858.846	19.63
859.02	95.4
859.195	101.55
859.369	-25.43
859.543	-7
859.718	-15.19
859.892	70.83
860.066	54.44
860.241	85.16
860.415	-17.24
860.589	7.34
860.763	91.31
860.938	-2.9
861.112	70.83
861.286	-0.85
861.46	13.48
861.634	25.77
861.808	52.39
861.982	-70.48
862.157	1.19
862.331	33.96
862.505	62.63
862.679	17.58
862.853	21.67
863.027	48.3
863.201	81.07
863.375	13.48
863.549	70.83
863.722	27.82
863.896	17.58
864.07	60.59
864.244	23.72
864.418	46.25
864.592	9.39
864.766	9.39
864.939	25.77
865.113	21.67
865.287	97.45
865.461	36.01
865.634	64.68
865.808	7.34
865.982	-29.52
866.156	21.67
866.329	23.72
866.503	60.59
866.676	-21.33
866.85	23.72
867.024	-31.57
867.197	23.72
867.371	-15.19
867.544	-29.52
867.718	-19.29
867.891	-17.24
868.065	1.19
868.238	36.01
868.412	-29.52
868.585	5.29
868.759	-9.05
868.932	-35.67
869.105	3.24
869.279	3.24
869.452	11.43
869.625	27.82
869.799	3.24
869.972	-52.05
870.145	66.73
870.319	52.39
870.492	-9.05
870.665	-11.09
870.838	-7
871.011	3.24
871.185	66.73
871.358	-66.39
871.531	13.48
871.704	-33.62
871.877	79.02
872.05	-9.05
872.223	50.35
872.396	-4.95
872.569	79.02
872.742	1.19
872.915	48.3
873.088	19.63
873.261	91.31
873.434	-7
873.607	9.39
873.78	44.2
873.953	1.19
874.126	54.44
874.299	54.44
874.471	1.19
874.644	-68.44
874.817	-9.05
874.99	85.16
875.163	-35.67
875.335	29.87
875.508	-23.38
875.681	-11.09
875.853	-60.24
876.026	25.77
876.199	52.39
876.371	-4.95
876.544	15.53
876.717	11.43
876.889	9.39
877.062	79.02
877.234	23.72
877.407	15.53
877.579	50.35
877.752	31.91
877.924	17.58
878.097	36.01
878.269	29.87
878.442	74.92
878.614	13.48
878.786	-27.48
878.959	9.39
879.131	38.06
879.303	-60.24
879.476	79.02
879.648	11.43
879.82	17.58
879.993	15.53
880.165	-27.48
880.337	-47.96
880.509	23.72
880.681	17.58
880.854	29.87
881.026	15.53
881.198	48.3
881.37	13.48
881.542	33.96
881.714	-9.05
881.886	-13.14
882.058	-52.05
882.23	-52.05
882.402	-0.85
882.574	60.59
882.746	11.43
882.918	31.91
883.09	91.31
883.262	-17.24
883.434	-58.2
883.606	1.19
883.778	17.58
883.95	85.16
884.122	44.2
884.293	58.54
884.465	-2.9
884.637	58.54
884.809	109.74
884.98	46.25
885.152	25.77
885.324	31.91
885.496	3.24
885.667	58.54
885.839	60.59
886.011	62.63
886.182	-2.9
886.354	21.67
886.525	29.87
886.697	46.25
886.869	-52.05
887.04	-47.96
887.212	-21.33
887.383	54.44
887.555	-86.87
887.726	128.17
887.897	-35.67
888.069	42.15
888.24	-11.09
888.412	31.91
888.583	13.48
888.754	3.24
888.926	56.49
889.097	-9.05
889.268	-27.48
889.44	5.29
889.611	-29.52
889.782	-25.43
889.953	17.58
890.125	-7
890.296	3.24
890.467	15.53
890.638	-31.57
890.809	-7
890.98	-66.39
891.151	72.87
891.323	29.87
891.494	-29.52
891.665	19.63
891.836	29.87
892.007	25.77
892.178	60.59
892.349	66.73
892.52	21.67
892.691	48.3
892.862	-39.76
893.032	17.58
893.203	38.06
893.374	40.11
893.545	23.72
893.716	-4.95
893.887	1.19
894.057	50.35
894.228	44.2
894.399	56.49
894.57	9.39
894.74	-11.09
894.911	29.87
895.082	1.19
895.253	27.82
895.423	-21.33
895.594	52.39
895.764	3.24
895.935	-25.43
896.106	-7
896.276	-9.05
896.447	-31.57
896.617	-9.05
896.788	-19.29
896.958	23.72
897.129	-19.29
897.299	-68.44
897.47	52.39
897.64	40.11
897.81	38.06
897.981	-43.86
898.151	19.63
898.322	-41.81
898.492	-31.57
898.662	21.67
898.832	42.15
899.003	-11.09
899.173	-0.85
899.343	42.15
899.513	-33.62
