Data from USB4F104151__42__12-35-55-459.txt Node

Date: Fri Mar 14 12:35:55 EDT 2025
User: louis
Spectrometer: USB4F10415
Trigger mode: 4
Integration Time (sec): 2.000000E-2
Scans to average: 1
Electric dark correction enabled: true
Nonlinearity correction enabled: false
Boxcar width: 0
XAxis mode: Wavelengths
Number of Pixels in Spectrum: 3648
>>>>>Begin Spectral Data<<<<<
178.204	-100.86
178.424	-100.86
178.644	-100.86
178.864	-78.33
179.084	-133.63
179.304	13.82
179.524	-8.7
179.744	15.87
179.964	17.92
180.184	-29.18
180.404	-8.7
180.624	-16.9
180.844	-25.09
181.064	3.58
181.283	-35.33
181.503	9.73
181.723	62.98
181.943	-43.52
182.163	89.6
182.383	48.64
182.602	-33.28
182.822	38.4
183.042	-41.47
183.262	69.12
183.482	-14.85
183.701	42.5
183.921	48.64
184.141	46.59
184.361	34.3
184.58	-45.57
184.8	-4.61
185.02	48.64
185.239	62.98
185.459	-8.7
185.679	46.59
185.898	-29.18
186.118	103.93
186.338	-29.18
186.557	77.31
186.777	34.3
186.997	-35.33
187.216	44.54
187.436	34.3
187.655	24.06
187.875	-14.85
188.095	30.21
188.314	32.26
188.534	69.12
188.753	26.11
188.973	38.4
189.192	118.27
189.412	-20.99
189.631	75.26
189.851	-8.7
190.07	83.45
190.29	26.11
190.509	52.74
190.729	13.82
190.948	75.26
191.168	187.9
191.387	44.54
191.607	77.31
191.826	-14.85
192.045	26.11
192.265	22.02
192.484	-70.14
192.704	3.58
192.923	44.54
193.142	42.5
193.362	58.88
193.581	99.84
193.8	-16.9
194.02	44.54
194.239	38.4
194.458	36.35
194.678	17.92
194.897	13.82
195.116	17.92
195.335	-51.71
195.555	46.59
195.774	56.83
195.993	34.3
196.212	42.5
196.432	5.63
196.651	-10.75
196.87	-0.51
197.089	9.73
197.308	-8.7
197.528	83.45
197.747	-6.66
197.966	-47.62
198.185	77.31
198.404	26.11
198.623	22.02
198.842	-16.9
199.062	85.5
199.281	34.3
199.5	91.65
199.719	-2.56
199.938	26.11
200.157	34.3
200.376	67.07
200.595	44.54
200.814	46.59
201.033	-6.66
201.252	-23.04
201.471	67.07
201.69	11.78
201.909	15.87
202.128	89.6
202.347	-29.18
202.566	32.26
202.785	-10.75
203.004	-6.66
203.223	56.83
203.442	-2.56
203.661	42.5
203.879	-4.61
204.098	-8.7
204.317	46.59
204.536	7.68
204.755	-20.99
204.974	50.69
205.193	-6.66
205.411	122.37
205.63	-41.47
205.849	9.73
206.068	46.59
206.287	5.63
206.505	110.08
206.724	38.4
206.943	-27.14
207.162	5.63
207.381	-20.99
207.599	42.5
207.818	7.68
208.037	-4.61
208.255	11.78
208.474	26.11
208.693	77.31
208.911	-27.14
209.13	36.35
209.349	32.26
209.567	32.26
209.786	40.45
210.005	17.92
210.223	56.83
210.442	-57.86
210.661	50.69
210.879	-45.57
211.098	-31.23
211.316	26.11
211.535	58.88
211.753	24.06
211.972	77.31
212.191	-14.85
212.409	36.35
212.628	38.4
212.846	36.35
213.065	17.92
213.283	26.11
213.502	-6.66
213.72	-2.56
213.938	-2.56
214.157	-25.09
214.375	42.5
214.594	42.5
214.812	58.88
215.031	101.89
215.249	44.54
215.467	69.12
215.686	-23.04
215.904	65.02
216.122	3.58
216.341	38.4
216.559	75.26
216.778	3.58
216.996	77.31
217.214	-6.66
217.432	-14.85
217.651	13.82
217.869	71.17
218.087	1.54
218.306	17.92
218.524	103.93
218.742	95.74
218.96	50.69
219.179	-82.43
219.397	56.83
219.615	67.07
219.833	50.69
220.051	15.87
220.27	77.31
220.488	52.74
220.706	-6.66
220.924	24.06
221.142	105.98
221.36	-0.51
221.578	-41.47
221.796	-66.05
222.015	-8.7
222.233	-16.9
222.451	-23.04
222.669	-6.66
222.887	24.06
223.105	62.98
223.323	32.26
223.541	-0.51
223.759	-55.81
223.977	36.35
224.195	81.41
224.413	-49.66
224.631	58.88
224.849	-4.61
225.067	85.5
225.285	114.17
225.503	17.92
225.721	-31.23
225.939	44.54
226.157	34.3
226.375	118.27
226.592	-39.42
226.81	34.3
227.028	58.88
227.246	34.3
227.464	105.98
227.682	50.69
227.9	19.97
228.117	34.3
228.335	3.58
228.553	1.54
228.771	83.45
228.989	-10.75
229.206	-45.57
229.424	46.59
229.642	52.74
229.86	9.73
230.077	9.73
230.295	52.74
230.513	42.5
230.731	105.98
230.948	9.73
231.166	62.98
231.384	-25.09
231.601	91.65
231.819	73.21
232.037	42.5
232.254	71.17
232.472	17.92
232.689	62.98
232.907	-0.51
233.125	11.78
233.342	17.92
233.56	7.68
233.777	22.02
233.995	48.64
234.213	69.12
234.43	40.45
234.648	-29.18
234.865	-23.04
235.083	36.35
235.3	-0.51
235.518	62.98
235.735	118.27
235.953	69.12
236.17	36.35
236.388	13.82
236.605	28.16
236.822	58.88
237.04	42.5
237.257	-6.66
237.475	32.26
237.692	56.83
237.909	50.69
238.127	-39.42
238.344	32.26
238.562	36.35
238.779	-31.23
238.996	81.41
239.214	54.78
239.431	79.36
239.648	-18.94
239.865	19.97
240.083	56.83
240.3	3.58
240.517	-31.23
240.735	1.54
240.952	15.87
241.169	28.16
241.386	50.69
241.603	75.26
241.821	7.68
242.038	17.92
242.255	-0.51
242.472	9.73
242.689	13.82
242.907	95.74
243.124	32.26
243.341	52.74
243.558	3.58
243.775	5.63
243.992	-18.94
244.209	60.93
244.426	65.02
244.643	69.12
244.86	-29.18
245.078	24.06
245.295	13.82
245.512	34.3
245.729	79.36
245.946	56.83
246.163	48.64
246.38	50.69
246.597	34.3
246.814	48.64
247.031	77.31
247.248	3.58
247.464	26.11
247.681	24.06
247.898	9.73
248.115	83.45
248.332	-2.56
248.549	54.78
248.766	112.13
248.983	103.93
249.2	3.58
249.417	69.12
249.633	24.06
249.85	40.45
250.067	32.26
250.284	38.4
250.501	87.55
250.717	65.02
250.934	-49.66
251.151	-18.94
251.368	-27.14
251.585	83.45
251.801	46.59
252.018	-49.66
252.235	75.26
252.451	17.92
252.668	13.82
252.885	52.74
253.102	13.82
253.318	60.93
253.535	34.3
253.752	-4.61
253.968	26.11
254.185	-35.33
254.401	77.31
254.618	46.59
254.835	40.45
255.051	7.68
255.268	34.3
255.484	54.78
255.701	38.4
255.917	62.98
256.134	24.06
256.351	9.73
256.567	-12.8
256.784	48.64
257	17.92
257.217	46.59
257.433	48.64
257.65	65.02
257.866	79.36
258.082	56.83
258.299	5.63
258.515	44.54
258.732	-6.66
258.948	-14.85
259.165	1.54
259.381	67.07
259.597	58.88
259.814	73.21
260.03	26.11
260.246	11.78
260.463	99.84
260.679	116.22
260.895	22.02
261.112	-2.56
261.328	-18.94
261.544	-31.23
261.761	99.84
261.977	108.03
262.193	-8.7
262.409	71.17
262.626	30.21
262.842	-18.94
263.058	19.97
263.274	58.88
263.49	40.45
263.707	69.12
263.923	38.4
264.139	5.63
264.355	42.5
264.571	32.26
264.787	67.07
265.004	11.78
265.22	46.59
265.436	48.64
265.652	-12.8
265.868	-14.85
266.084	-61.95
266.3	1.54
266.516	-16.9
266.732	26.11
266.948	65.02
267.164	38.4
267.38	-6.66
267.596	19.97
267.812	71.17
268.028	83.45
268.244	46.59
268.46	34.3
268.676	22.02
268.892	38.4
269.108	36.35
269.324	-72.19
269.54	-43.52
269.756	-16.9
269.972	-47.62
270.188	32.26
270.403	-27.14
270.619	85.5
270.835	42.5
271.051	15.87
271.267	5.63
271.483	5.63
271.698	62.98
271.914	11.78
272.13	93.69
272.346	-8.7
272.562	44.54
272.777	34.3
272.993	85.5
273.209	40.45
273.425	36.35
273.64	19.97
273.856	52.74
274.072	28.16
274.287	30.21
274.503	52.74
274.719	48.64
274.934	48.64
275.15	17.92
275.366	89.6
275.581	26.11
275.797	42.5
276.012	-35.33
276.228	40.45
276.444	28.16
276.659	17.92
276.875	-41.47
277.09	-23.04
277.306	22.02
277.521	34.3
277.737	79.36
277.952	-29.18
278.168	71.17
278.383	32.26
278.599	34.3
278.814	54.78
279.03	24.06
279.245	124.41
279.461	11.78
279.676	3.58
279.892	13.82
280.107	40.45
280.322	65.02
280.538	60.93
280.753	3.58
280.969	79.36
281.184	48.64
281.399	69.12
281.615	19.97
281.83	38.4
282.045	103.93
282.26	-57.86
282.476	24.06
282.691	1.54
282.906	-37.38
283.122	60.93
283.337	1.54
283.552	44.54
283.767	-18.94
283.983	71.17
284.198	-8.7
284.413	-16.9
284.628	62.98
284.843	52.74
285.058	15.87
285.274	1.54
285.489	24.06
285.704	118.27
285.919	60.93
286.134	67.07
286.349	13.82
286.564	1.54
286.779	38.4
286.995	79.36
287.21	-10.75
287.425	-6.66
287.64	19.97
287.855	50.69
288.07	26.11
288.285	97.79
288.5	-0.51
288.715	-4.61
288.93	5.63
289.145	13.82
289.36	-47.62
289.575	46.59
289.79	46.59
290.004	28.16
290.219	77.31
290.434	24.06
290.649	-0.51
290.864	3.58
291.079	50.69
291.294	15.87
291.509	89.6
291.724	-68.09
291.938	-53.76
292.153	42.5
292.368	26.11
292.583	91.65
292.798	67.07
293.012	54.78
293.227	32.26
293.442	140.8
293.657	67.07
293.871	48.64
294.086	-10.75
294.301	-2.56
294.516	11.78
294.73	38.4
294.945	7.68
295.16	22.02
295.374	77.31
295.589	-0.51
295.804	28.16
296.018	93.69
296.233	19.97
296.447	5.63
296.662	-23.04
296.877	24.06
297.091	36.35
297.306	73.21
297.52	26.11
297.735	69.12
297.949	15.87
298.164	-18.94
298.378	103.93
298.593	17.92
298.807	30.21
299.022	105.98
299.236	40.45
299.451	54.78
299.665	44.54
299.88	85.5
300.094	67.07
300.309	67.07
300.523	26.11
300.737	91.65
300.952	3.58
301.166	120.32
301.381	-0.51
301.595	71.17
301.809	1.54
302.024	9.73
302.238	69.12
302.452	108.03
302.667	42.5
302.881	50.69
303.095	30.21
303.309	62.98
303.524	36.35
303.738	-12.8
303.952	26.11
304.166	60.93
304.381	54.78
304.595	52.74
304.809	52.74
305.023	54.78
305.237	103.93
305.452	-14.85
305.666	-4.61
305.88	40.45
306.094	52.74
306.308	-2.56
306.522	19.97
306.736	1.54
306.95	13.82
307.164	87.55
307.379	-16.9
307.593	3.58
307.807	-6.66
308.021	62.98
308.235	81.41
308.449	-29.18
308.663	54.78
308.877	65.02
309.091	-25.09
309.305	65.02
309.519	7.68
309.733	79.36
309.947	-8.7
310.161	17.92
310.374	38.4
310.588	69.12
310.802	5.63
311.016	-14.85
311.23	71.17
311.444	-8.7
311.658	-18.94
311.872	36.35
312.085	42.5
312.299	85.5
312.513	7.68
312.727	44.54
312.941	-4.61
313.154	1.54
313.368	38.4
313.582	-51.71
313.796	5.63
314.009	54.78
314.223	-4.61
314.437	42.5
314.651	-14.85
314.864	32.26
315.078	42.5
315.292	-47.62
315.505	77.31
315.719	62.98
315.933	7.68
316.146	69.12
316.36	32.26
316.573	67.07
316.787	42.5
317.001	60.93
317.214	11.78
317.428	36.35
317.641	32.26
317.855	42.5
318.068	38.4
318.282	13.82
318.495	58.88
318.709	89.6
318.922	71.17
319.136	124.41
319.349	40.45
319.563	26.11
319.776	34.3
319.99	28.16
320.203	52.74
320.417	69.12
320.63	73.21
320.843	9.73
321.057	19.97
321.27	19.97
321.483	-2.56
321.697	65.02
321.91	46.59
322.124	11.78
322.337	-18.94
322.55	-64
322.763	42.5
322.977	32.26
323.19	54.78
323.403	38.4
323.617	11.78
323.83	65.02
324.043	24.06
324.256	60.93
324.469	-2.56
324.683	103.93
324.896	9.73
325.109	56.83
325.322	32.26
325.535	56.83
325.748	-2.56
325.962	48.64
326.175	79.36
326.388	69.12
326.601	-8.7
326.814	112.13
327.027	58.88
327.24	73.21
327.453	11.78
327.666	46.59
327.879	71.17
328.092	30.21
328.305	3.58
328.518	28.16
328.731	15.87
328.944	40.45
329.157	46.59
329.37	50.69
329.583	77.31
329.796	83.45
330.009	32.26
330.222	97.79
330.435	50.69
330.648	-39.42
330.861	15.87
331.073	60.93
331.286	36.35
331.499	62.98
331.712	17.92
331.925	9.73
332.138	65.02
332.35	120.32
332.563	58.88
332.776	30.21
332.989	-20.99
333.202	81.41
333.414	62.98
333.627	71.17
333.84	-29.18
334.053	62.98
334.265	-18.94
334.478	19.97
334.691	-51.71
334.903	103.93
335.116	36.35
335.329	-18.94
335.541	83.45
335.754	75.26
335.966	26.11
336.179	38.4
336.392	50.69
336.604	85.5
336.817	-6.66
337.029	11.78
337.242	15.87
337.454	26.11
337.667	38.4
337.88	83.45
338.092	97.79
338.305	62.98
338.517	62.98
338.729	24.06
338.942	73.21
339.154	-0.51
339.367	65.02
339.579	58.88
339.792	89.6
340.004	32.26
340.217	69.12
340.429	42.5
340.641	50.69
340.854	46.59
341.066	65.02
341.278	69.12
341.491	52.74
341.703	75.26
341.915	-49.66
342.128	54.78
342.34	17.92
342.552	-0.51
342.764	46.59
342.977	69.12
343.189	62.98
343.401	101.89
343.613	50.69
343.826	-2.56
344.038	7.68
344.25	34.3
344.462	48.64
344.674	87.55
344.886	22.02
345.099	5.63
345.311	22.02
345.523	13.82
345.735	24.06
345.947	26.11
346.159	48.64
346.371	11.78
346.583	91.65
346.795	-4.61
347.007	91.65
347.219	48.64
347.431	54.78
347.643	40.45
347.855	17.92
348.067	110.08
348.279	-4.61
348.491	71.17
348.703	46.59
348.915	15.87
349.127	-10.75
349.339	36.35
349.551	-27.14
349.763	54.78
349.975	34.3
350.187	110.08
350.399	50.69
350.61	42.5
350.822	42.5
351.034	81.41
351.246	79.36
351.458	122.37
351.669	93.69
351.881	69.12
352.093	128.51
352.305	50.69
352.517	67.07
352.728	75.26
352.94	69.12
353.152	40.45
353.363	75.26
353.575	9.73
353.787	71.17
353.999	1.54
354.21	19.97
354.422	1.54
354.633	1.54
354.845	44.54
355.057	60.93
355.268	36.35
355.48	42.5
355.692	-12.8
355.903	-6.66
356.115	-33.28
356.326	71.17
356.538	38.4
356.749	81.41
356.961	87.55
357.172	17.92
357.384	5.63
357.595	144.89
357.807	46.59
358.018	50.69
358.23	26.11
358.441	-12.8
358.653	11.78
358.864	-27.14
359.075	79.36
359.287	69.12
359.498	48.64
359.709	28.16
359.921	38.4
360.132	19.97
360.344	15.87
360.555	95.74
360.766	-27.14
360.977	54.78
361.189	69.12
361.4	36.35
361.611	65.02
361.823	9.73
362.034	38.4
362.245	71.17
362.456	50.69
362.667	73.21
362.879	73.21
363.09	142.85
363.301	146.94
363.512	40.45
363.723	144.89
363.935	-47.62
364.146	71.17
364.357	52.74
364.568	-8.7
364.779	15.87
364.99	36.35
365.201	5.63
365.412	22.02
365.623	40.45
365.834	77.31
366.045	1.54
366.256	60.93
366.467	99.84
366.678	-2.56
366.889	79.36
367.1	54.78
367.311	42.5
367.522	58.88
367.733	95.74
367.944	118.27
368.155	-33.28
368.366	89.6
368.577	38.4
368.788	46.59
368.999	30.21
369.209	52.74
369.42	144.89
369.631	73.21
369.842	48.64
370.053	56.83
370.264	40.45
370.474	17.92
370.685	-0.51
370.896	54.78
371.107	105.98
371.317	26.11
371.528	87.55
371.739	103.93
371.95	15.87
372.16	103.93
372.371	-25.09
372.582	71.17
372.792	44.54
373.003	52.74
373.214	46.59
373.424	32.26
373.635	48.64
373.846	108.03
374.056	110.08
374.267	126.46
374.477	-0.51
374.688	17.92
374.898	32.26
375.109	71.17
375.319	69.12
375.53	79.36
375.74	28.16
375.951	65.02
376.161	36.35
376.372	48.64
376.582	54.78
376.793	124.41
377.003	52.74
377.214	-2.56
377.424	56.83
377.635	105.98
377.845	60.93
378.055	93.69
378.266	13.82
378.476	40.45
378.686	-12.8
378.897	62.98
379.107	85.5
379.317	83.45
379.528	17.92
379.738	54.78
379.948	62.98
380.158	30.21
380.369	46.59
380.579	46.59
380.789	62.98
380.999	83.45
381.21	75.26
381.42	93.69
381.63	32.26
381.84	50.69
382.05	62.98
382.261	69.12
382.471	110.08
382.681	54.78
382.891	73.21
383.101	44.54
383.311	34.3
383.521	36.35
383.731	79.36
383.941	73.21
384.151	93.69
384.361	69.12
384.571	22.02
384.781	85.5
384.991	79.36
385.201	50.69
385.411	130.56
385.621	89.6
385.831	40.45
386.041	7.68
386.251	17.92
386.461	108.03
386.671	30.21
386.881	136.7
387.091	44.54
387.301	73.21
387.511	48.64
387.72	97.79
387.93	112.13
388.14	32.26
388.35	54.78
388.56	91.65
388.769	65.02
388.979	83.45
389.189	99.84
389.399	99.84
389.609	75.26
389.818	128.51
390.028	-6.66
390.238	81.41
390.447	79.36
390.657	146.94
390.867	116.22
391.076	26.11
391.286	148.99
391.496	108.03
391.705	71.17
391.915	69.12
392.125	103.93
392.334	101.89
392.544	132.61
392.753	54.78
392.963	42.5
393.172	46.59
393.382	40.45
393.591	134.65
393.801	97.79
394.01	42.5
394.22	62.98
394.429	128.51
394.639	42.5
394.848	77.31
395.058	83.45
395.267	116.22
395.477	83.45
395.686	99.84
395.895	112.13
396.105	89.6
396.314	-37.38
396.524	105.98
396.733	108.03
396.942	138.75
397.152	108.03
397.361	105.98
397.57	108.03
397.78	122.37
397.989	122.37
398.198	161.28
398.407	112.13
398.617	114.17
398.826	157.18
399.035	124.41
399.244	87.55
399.453	153.09
399.663	122.37
399.872	132.61
400.081	140.8
400.29	146.94
400.499	116.22
400.708	241.15
400.917	124.41
401.127	173.57
401.336	93.69
401.545	187.9
401.754	220.67
401.963	155.13
402.172	163.33
402.381	181.76
402.59	163.33
402.799	138.75
403.008	128.51
403.217	169.47
403.426	169.47
403.635	138.75
403.844	192
404.053	198.14
404.262	218.62
404.471	228.86
404.68	232.96
404.888	222.72
405.097	290.3
405.306	228.86
405.515	144.89
405.724	216.57
405.933	269.82
406.142	263.68
406.35	208.38
406.559	280.06
406.768	280.06
406.977	361.98
407.185	294.4
407.394	249.34
407.603	269.82
407.812	302.59
408.02	361.98
408.229	323.07
408.438	298.49
408.646	228.86
408.855	300.54
409.064	300.54
409.272	300.54
409.481	441.85
409.69	353.79
409.898	333.31
410.107	400.89
410.315	454.14
410.524	450.04
410.733	447.99
410.941	529.91
411.15	476.66
411.358	476.66
411.567	583.16
411.775	519.67
411.984	523.77
412.192	628.21
412.401	527.86
412.609	699.89
412.818	667.13
413.026	681.46
413.234	716.28
413.443	734.71
413.651	726.52
413.86	787.96
414.068	761.33
414.276	865.78
414.485	824.82
414.693	800.24
414.901	906.74
415.11	939.51
415.318	902.64
415.526	1005.04
415.734	1064.43
415.943	1015.28
416.151	1068.53
416.359	1080.82
416.567	1089.01
416.776	1234.41
416.984	1308.14
417.192	1338.86
417.4	1283.56
417.608	1310.19
417.817	1402.35
418.025	1400.3
418.233	1670.63
418.441	1469.93
418.649	1549.8
418.857	1682.92
419.065	1641.96
419.273	1766.89
419.481	1844.71
419.689	1973.73
419.897	1983.97
420.105	2084.32
420.313	2160.1
420.521	2151.9
420.729	2242.01
420.937	2282.97
421.145	2332.12
421.353	2450.91
421.561	2467.29
421.769	2579.93
421.977	2774.49
422.185	2727.38
422.393	2872.79
422.601	3173.84
422.809	2960.85
423.017	3022.29
423.224	3165.65
423.432	3317.2
423.64	3302.86
423.848	3583.43
424.056	3501.51
424.263	3712.46
424.471	3775.94
424.679	3917.25
424.887	4130.24
425.094	4216.26
425.302	4214.21
425.51	4457.92
425.718	4648.38
425.925	4523.45
426.133	4822.45
426.341	5115.31
426.548	5234.1
426.756	5232.05
426.964	5156.27
427.171	5553.58
427.379	5887.4
427.586	5791.14
427.794	6002.08
428.001	6321.57
428.209	6665.63
428.417	6383.01
428.624	7021.97
428.832	6911.38
429.039	6847.9
429.247	6882.71
429.454	7564.68
429.662	8074.63
429.869	7507.34
430.076	8154.5
430.284	7818.63
430.491	7955.85
430.699	8574.33
430.906	8578.43
431.114	8648.06
431.321	8996.21
431.528	9377.14
431.736	9743.72
431.943	10276.2
432.15	9784.68
432.358	10014.06
432.565	10655.07
432.772	10433.89
432.979	11138.39
433.187	11210.07
433.394	11443.54
433.601	12035.4
433.808	12399.94
434.016	12264.77
434.223	12563.78
434.43	13266.23
434.637	13061.43
434.844	13913.39
435.052	14386.47
435.259	14290.21
435.466	14298.41
435.673	13792.56
435.88	15058.2
436.087	15961.36
436.294	15850.77
436.501	15271.19
436.708	15836.43
436.915	16434.44
437.122	16815.36
437.329	17151.23
437.537	17628.4
437.743	17911.02
437.95	17665.27
438.157	18451.69
438.364	19023.07
438.571	19227.87
438.778	19430.62
438.985	21286.08
439.192	20331.72
439.399	20790.47
439.606	20065.49
439.813	21576.89
440.02	22619.3
440.227	22269.1
440.433	22185.13
440.64	22865.06
440.847	22658.21
441.054	23393.44
441.261	24902.79
441.467	24734.85
441.674	25347.2
441.881	25947.25
442.088	26068.08
442.294	26027.12
442.501	26299.5
442.708	26940.52
442.914	27862.1
443.121	28875.85
443.328	28365.9
443.534	30211.12
443.741	29520.96
443.948	28986.44
444.154	31267.87
444.361	30903.34
444.568	31200.29
444.774	31210.53
444.981	31527.97
445.187	32760.84
445.394	33993.72
445.6	33547.26
445.807	36479.96
446.013	35032.04
446.22	35763.17
446.426	37120.97
446.633	37276.62
446.839	38906.8
447.046	37080.01
447.252	39003.05
447.459	39314.34
447.665	39418.79
447.871	40872.85
448.078	42408.82
448.284	40479.64
448.491	41677.7
448.697	43383.66
448.903	43733.86
449.11	44098.4
449.316	43273.07
449.522	44182.37
449.728	45196.11
449.935	45904.71
450.141	45243.21
450.347	46652.22
450.553	45151.06
450.76	45476.68
450.966	47442.73
451.172	47029.04
451.378	48087.84
451.584	47346.48
451.791	48737.05
451.997	47819.56
452.203	49150.74
452.409	49072.92
452.615	48673.56
452.821	47151.92
453.027	46482.23
453.233	48667.42
453.44	46672.7
453.646	47618.86
453.852	47862.57
454.058	48816.92
454.264	46932.79
454.47	47514.41
454.676	46961.46
454.882	48012.07
455.088	44467.03
455.294	45052.75
455.5	45554.5
455.705	46426.94
455.911	44661.59
456.117	43764.58
456.323	42896.24
456.529	41044.88
456.735	42384.25
456.941	41261.96
457.147	40631.19
457.352	39713.7
457.558	38968.24
457.764	39150.51
457.97	38437.81
458.176	37788.61
458.381	37643.2
458.587	35636.19
458.793	35943.39
458.999	34198.52
459.204	36328.41
459.41	35564.51
459.616	33430.53
459.821	32994.31
460.027	32967.69
460.233	32265.24
460.438	30772.27
460.644	31020.07
460.85	29867.06
461.055	29178.95
461.261	29197.38
461.466	26846.31
461.672	26209.39
461.878	28003.41
462.083	26432.62
462.289	25830.52
462.494	25453.69
462.7	23993.49
462.905	23692.44
463.111	24452.23
463.316	24648.84
463.522	23970.96
463.727	24360.08
463.932	24220.81
464.138	24001.68
464.343	24013.97
464.549	23354.52
464.754	23798.93
464.959	23860.37
465.165	23604.38
465.37	22525.1
465.575	21744.82
465.781	22598.82
465.986	23026.85
466.191	22019.25
466.397	21839.03
466.602	20714.69
466.807	21382.33
467.012	21478.58
467.218	21454.01
467.423	21071.04
467.628	20919.49
467.833	21949.62
468.038	20972.74
468.244	20884.67
468.449	21374.14
468.654	20714.69
468.859	20616.39
469.064	20341.96
469.269	19403.99
469.474	19666.13
469.679	20255.95
469.885	19635.41
470.09	19840.21
470.295	19965.14
470.5	19447
470.705	19225.82
470.91	19008.73
471.115	18765.03
471.32	19207.39
471.525	18865.38
471.73	18554.08
471.935	18253.03
472.139	17923.31
472.344	17915.12
472.549	18158.83
472.754	17708.27
472.959	17667.31
473.164	17253.62
473.369	16790.78
473.574	17251.58
473.778	17179.9
473.983	17089.79
474.188	16895.23
474.393	16223.5
474.598	16192.78
474.802	16168.2
475.007	16110.86
475.212	15973.64
475.417	15445.27
475.621	15410.45
475.826	15703.31
476.031	15215.9
476.235	14804.25
476.44	15119.64
476.645	14931.23
476.849	14884.12
477.054	14542.11
477.259	14777.63
477.463	14570.79
477.668	13995.31
477.872	14218.54
478.077	14040.36
478.282	13778.22
478.486	13575.47
478.691	13423.92
478.895	13655.34
479.1	13536.56
479.304	13579.57
479.509	13210.93
479.713	13133.11
479.918	13112.63
480.122	12875.07
480.326	12836.16
480.531	12772.67
480.735	12758.33
480.94	12664.13
481.144	13010.23
481.348	12299.59
481.553	12739.9
481.757	12410.18
481.961	12438.85
482.166	12946.75
482.37	12680.51
482.574	12246.34
482.778	12408.13
482.983	12535.1
483.187	12430.66
483.391	12549.44
483.595	12496.19
483.8	12305.73
484.004	12385.6
484.208	12694.85
484.412	12092.74
484.616	12272.96
484.821	12430.66
485.025	12256.58
485.229	12272.96
485.433	12266.82
485.637	12059.98
485.841	12184.9
486.045	12193.09
486.249	12348.74
486.453	12252.49
486.657	12293.44
486.861	12256.58
487.065	12205.38
487.269	12397.89
487.473	12105.03
487.677	12383.56
487.881	12444.99
488.085	12340.55
488.289	12252.49
488.493	12213.57
488.697	12356.93
488.901	12512.58
489.105	12422.47
489.309	12305.73
489.512	12506.43
489.716	12510.53
489.92	12510.53
490.124	12379.46
490.328	12592.45
490.531	12594.5
490.735	12725.57
490.939	12952.89
491.143	12612.93
491.346	12533.06
491.55	12827.96
491.754	12674.37
491.958	12881.21
492.161	12774.72
492.365	13032.76
492.569	13016.38
492.772	12793.15
492.976	13034.81
493.18	13440.31
493.383	13243.7
493.587	13180.21
493.79	13520.18
493.994	13493.55
494.197	13462.83
494.401	13647.15
494.605	13710.64
494.808	13835.56
495.012	13796.65
495.215	14075.18
495.419	14030.12
495.622	14173.48
495.825	14193.96
496.029	14468.39
496.232	14605.6
496.436	14535.97
496.639	14933.28
496.843	14796.06
497.046	15031.58
497.249	14937.37
497.453	15138.07
497.656	15449.36
497.859	15377.69
498.063	15598.87
498.266	15842.57
498.469	15967.5
498.673	15992.08
498.876	16319.75
499.079	16379.14
499.282	16270.6
499.485	16913.66
499.689	16958.72
499.892	17114.36
500.095	17130.75
500.298	17644.79
500.501	17388.79
500.705	17870.06
500.908	18308.33
501.111	18324.71
501.314	18566.37
501.517	18670.82
501.72	18867.42
501.923	18867.42
502.126	19225.82
502.329	19635.41
502.532	19678.42
502.735	19616.98
502.938	20079.82
503.141	20337.87
503.344	20544.71
503.547	20417.74
503.75	20989.12
503.953	21128.38
504.156	21529.78
504.359	21564.6
504.562	21793.97
504.765	22240.43
504.968	22441.13
505.17	22647.97
505.373	22510.76
505.576	23094.43
505.779	23131.3
505.982	23264.41
506.185	23944.34
506.387	23975.06
506.59	24476.81
506.793	24736.9
506.996	24999.04
507.198	25406.59
507.401	25408.64
507.604	25461.88
507.807	26051.7
508.009	26238.06
508.212	26483.82
508.415	26739.82
508.617	27393.12
508.82	26899.56
509.022	26819.69
509.225	27800.66
509.428	27901.01
509.63	28240.98
509.833	28257.36
510.035	29133.89
510.238	29103.17
510.44	29545.53
510.643	29967.41
510.845	30323.76
511.048	29985.85
511.25	30417.97
511.453	30843.95
511.655	31964.18
511.858	31478.82
512.06	31915.03
512.262	31984.66
512.465	32121.88
512.667	32603.15
512.87	32627.73
513.072	33111.05
513.274	33793.02
513.477	34298.87
513.679	34161.65
513.881	34499.57
514.084	34776.05
514.286	35003.37
514.488	35064.81
514.69	35816.41
514.893	36346.84
515.095	36705.23
515.297	37243.85
515.499	36961.23
515.701	37497.8
515.904	37987.26
516.106	38071.23
516.308	38534.07
516.51	38763.44
516.712	38681.52
516.914	39345.06
517.116	39895.97
517.318	39945.12
517.52	40385.43
517.722	40754.07
517.925	40713.11
518.127	41661.32
518.329	41628.55
518.531	41806.72
518.733	42543.99
518.935	42904.43
519.136	42988.4
519.338	43107.18
519.54	43922.27
519.742	44047.2
519.944	43903.84
520.146	45042.51
520.348	45278.03
520.55	44995.41
520.752	45423.43
520.954	46428.99
521.155	45753.16
521.357	46758.71
521.559	46750.52
521.761	47774.5
521.963	47862.57
522.164	47776.55
522.366	47643.43
522.568	48558.88
522.77	48757.53
522.971	49281.81
523.173	48931.61
523.375	49294.1
523.576	49801.99
523.778	49623.82
523.98	50541.31
524.181	50076.42
524.383	50707.19
524.584	50928.37
524.786	51118.84
524.988	51229.43
525.189	51514.09
525.391	51837.67
525.592	52294.37
525.794	52261.6
525.995	52622.05
526.197	52792.03
526.398	52796.12
526.6	52810.46
526.801	52894.42
527.003	53420.75
527.204	53467.86
527.406	53682.89
527.607	53705.42
527.808	54409.92
528.01	53635.79
528.211	53834.44
528.412	54942.39
528.614	54336.19
528.815	54588.1
529.016	55044.79
529.218	54164.17
529.419	54518.46
529.62	54643.39
529.822	54692.54
530.023	54956.73
530.224	54932.15
530.425	55098.04
530.626	54522.56
530.828	55225.01
531.029	55917.23
531.23	55231.16
531.431	55018.17
531.632	55548.59
531.833	55622.32
532.035	55388.85
532.236	55470.77
532.437	55999.15
532.638	55511.73
532.839	55970.47
533.04	56244.9
533.241	55458.48
533.442	56722.08
533.643	55505.59
533.844	55591.6
534.045	55669.42
534.246	55308.98
534.447	56431.27
534.648	55810.73
534.849	55882.41
535.05	55777.96
535.251	55689.9
535.451	55737.01
535.652	56201.89
535.853	55700.14
536.054	55970.47
536.255	56076.97
536.456	55454.39
536.657	56144.55
536.857	55849.64
537.058	55626.42
537.259	56115.88
537.46	55694
537.66	55872.17
537.861	55587.5
538.062	55169.72
538.263	55618.22
538.463	55458.48
538.664	55569.07
538.865	55990.95
539.065	56402.6
539.266	55360.18
539.466	55863.98
539.667	55124.66
539.868	55880.36
540.068	55204.53
540.269	55288.5
540.469	55378.61
540.67	55190.2
540.87	55255.73
541.071	55941.8
541.271	55614.13
541.472	55880.36
541.672	55190.2
541.873	54876.86
542.073	54682.3
542.274	55526.06
542.474	55061.18
542.675	54655.68
542.875	55161.53
543.075	55452.34
543.276	54545.09
543.476	55474.87
543.676	54571.71
543.877	55335.6
544.077	54874.81
544.277	54969.02
544.478	55229.11
544.678	55030.46
544.878	54932.15
545.078	55153.33
545.279	54684.35
545.479	54385.35
545.679	54786.75
545.879	54631.1
546.079	55151.29
546.28	54323.91
546.48	54758.08
546.68	54471.36
546.88	54827.71
547.08	54842.04
547.28	54395.59
547.48	54641.34
547.68	54655.68
547.88	54516.42
548.081	54835.9
548.281	54846.14
548.481	54704.83
548.681	54700.73
548.881	54721.21
549.081	54540.99
549.28	54422.21
549.48	54723.26
549.68	54246.08
549.88	55182.01
550.08	53795.53
550.28	54866.62
550.48	54123.21
550.68	54618.81
550.88	54356.67
551.08	54348.48
551.279	54366.91
551.479	53996.23
551.679	54631.1
551.879	53975.75
552.079	54147.78
552.278	53656.27
552.478	54168.26
552.678	54155.97
552.878	54559.42
553.077	54155.97
553.277	53592.78
553.477	54753.98
553.676	54069.96
553.876	53920.46
554.076	53504.72
554.275	53932.75
554.475	53320.4
554.674	53926.6
554.874	53996.23
555.074	53668.56
555.273	54139.59
555.473	54022.86
555.672	53187.28
555.872	53811.91
556.071	54151.88
556.271	53664.46
556.47	53514.96
556.67	53344.98
556.869	53228.24
557.068	53785.29
557.268	52998.87
557.467	53469.9
557.667	53175
557.866	53385.94
558.065	53351.12
558.265	53340.88
558.464	52910.81
558.663	53390.03
558.863	52417.25
559.062	53480.14
559.261	52527.84
559.461	53400.27
559.66	52187.88
559.859	52691.68
560.058	52001.51
560.258	52736.73
560.457	52413.15
560.656	52722.4
560.855	52314.85
561.054	52355.81
561.253	52140.77
561.453	52226.79
561.652	52132.58
561.851	52320.99
562.05	52069.09
562.249	51677.93
562.448	52071.14
562.647	52058.85
562.846	51989.22
563.045	51768.04
563.244	51163.89
563.443	51858.15
563.642	50680.57
563.841	51196.66
564.04	51061.49
564.239	51540.72
564.438	50979.57
564.637	51086.07
564.836	51165.94
565.035	50514.69
565.234	50948.85
565.432	50412.29
565.631	50643.71
565.83	50752.25
566.029	50244.35
566.228	50166.53
566.427	50193.15
566.625	50014.98
566.824	49797.9
567.023	50158.34
567.222	49197.84
567.42	49955.59
567.619	49666.83
567.818	49505.04
568.016	49378.06
568.215	49939.21
568.414	49502.99
568.612	49761.03
568.811	48706.33
569.01	48945.94
569.208	48542.49
569.407	49081.11
569.605	48499.48
569.804	48835.35
570.002	48288.54
570.201	48517.92
570.4	48392.99
570.598	48141.09
570.797	47649.58
570.995	48128.8
571.193	47162.16
571.392	47948.58
571.59	47328.05
571.789	47430.44
571.987	47301.42
572.186	47366.96
572.384	47256.37
572.582	47080.24
572.781	47274.8
572.979	46302.01
573.177	46533.43
573.376	46748.47
573.574	45638.47
573.772	46791.48
573.971	46494.52
574.169	45937.48
574.367	45673.29
574.565	45808.45
574.763	45775.69
574.962	45572.94
575.16	45052.75
575.358	45695.81
575.556	45239.12
575.754	45650.76
575.952	44829.52
576.151	45554.5
576.349	44731.22
576.547	44677.97
576.745	44491.61
576.943	44467.03
577.141	44290.91
577.339	44391.26
577.537	44079.97
577.735	44229.47
577.933	43551.59
578.131	44170.08
578.329	43801.44
578.527	43533.16
578.725	43232.11
578.923	43318.12
579.121	43203.44
579.319	42953.58
579.516	43424.62
579.714	43199.34
579.912	42656.63
580.11	42812.27
580.308	42683.25
580.506	42212.22
580.704	42163.07
580.901	42650.49
581.099	42431.35
581.297	41769.86
581.495	41948.03
581.692	42064.77
581.89	41692.04
582.088	41800.58
582.285	41386.89
582.483	41583.49
582.681	41163.66
582.878	41096.08
583.076	41085.84
583.274	41042.83
583.471	40842.13
583.669	40674.2
583.866	40391.58
584.064	40926.1
584.262	40227.74
584.459	40534.93
584.657	40024.99
584.854	40430.49
585.052	39580.58
585.249	39725.99
585.447	39893.92
585.644	39271.34
585.841	39680.93
586.039	39599.01
586.236	39160.75
586.434	38966.19
586.631	38939.57
586.828	39074.73
587.026	38898.61
587.223	38646.71
587.42	38605.75
587.618	38665.14
587.815	38255.54
588.012	38034.36
588.21	38400.95
588.407	38384.57
588.604	38378.42
588.801	37614.53
588.999	37821.37
589.196	37653.44
589.393	37888.96
589.59	37483.46
589.787	37213.13
589.984	36781.01
590.182	37061.58
590.379	37192.65
590.576	36903.88
590.773	36662.22
590.97	37012.43
591.167	36576.21
591.364	36146.14
591.561	36297.69
591.758	36201.43
591.955	35824.61
592.152	36324.31
592.349	35679.2
592.546	35877.85
592.743	36006.87
592.94	35337.19
593.137	35638.24
593.334	35437.54
593.531	35322.85
593.727	35445.73
593.924	35185.64
594.121	34853.87
594.318	35181.54
594.515	34724.85
594.712	35142.63
594.908	34776.05
595.105	34753.52
595.302	34601.97
595.499	34429.94
595.696	34431.99
595.892	33907.71
596.089	34329.59
596.286	34497.52
596.482	33897.47
596.679	33819.64
596.876	33932.28
597.072	33840.12
597.269	33709.05
597.466	33217.54
597.662	33532.93
597.859	33195.01
598.055	33229.83
598.252	32814.09
598.448	33207.3
598.645	32660.49
598.841	32586.77
599.038	33016.84
599.234	32640.01
599.431	32455.7
599.627	32072.73
599.824	32521.23
600.02	31835.16
600.217	32209.94
600.413	32300.05
600.609	31896.6
600.806	31659.04
601.002	31783.96
601.198	31724.57
601.395	31134.76
601.591	31546.4
601.787	31466.53
601.984	31237.16
602.18	31482.91
602.376	30950.44
602.572	30862.38
602.769	30878.76
602.965	30544.94
603.161	30796.84
603.357	30192.69
603.553	30766.12
603.75	30583.85
603.946	30026.81
604.142	30471.22
604.338	30264.37
604.534	30194.74
604.73	29908.02
604.926	30168.12
605.122	29828.15
605.318	29908.02
605.514	29443.13
605.71	29604.92
605.906	29533.25
606.102	29666.36
606.298	29359.17
606.494	29310.02
606.69	29310.02
606.886	29275.2
607.082	28890.18
607.278	29088.84
607.474	28757.07
607.67	28763.21
607.866	28433.49
608.062	28822.6
608.257	28415.05
608.453	28765.26
608.649	28759.11
608.845	28111.96
609.041	28265.55
609.236	28378.19
609.432	28066.9
609.628	28130.39
609.824	27749.46
610.019	27903.06
610.215	28066.9
610.411	28101.72
610.606	27896.92
610.802	27767.9
610.998	27434.08
611.193	27745.37
611.389	27573.34
611.584	27579.48
611.78	27288.67
611.976	27429.98
612.171	27700.31
612.367	27362.4
612.562	26848.36
612.758	26877.03
612.953	26956.9
613.149	27051.11
613.344	26940.52
613.539	27165.79
613.735	27085.92
613.93	26913.89
614.126	26684.52
614.321	27051.11
614.517	26711.14
614.712	26604.65
614.907	26483.82
615.103	26911.85
615.298	26549.35
615.493	26463.34
615.688	26094.71
615.884	26522.73
616.079	26158.19
616.274	26111.09
616.47	25984.12
616.665	26119.28
616.86	25906.29
617.055	25865.33
617.25	25836.66
617.445	25994.36
617.641	25214.08
617.836	25609.34
618.031	25216.13
618.226	25664.63
618.421	25244.8
618.616	25472.12
618.811	25046.15
619.006	25339.01
619.201	24706.18
619.396	24943.75
619.591	24845.44
619.786	24902.79
619.981	24415.37
620.176	24851.59
620.371	24216.72
620.566	24358.03
620.761	24032.4
620.956	24468.62
621.151	24063.12
621.346	23809.17
621.541	23409.82
621.735	23997.59
621.93	23358.62
622.125	23442.59
622.32	23147.68
622.515	23567.51
622.709	22979.75
622.904	22738.09
623.099	22910.11
623.294	22723.75
623.488	22396.07
623.683	22607.02
623.878	22467.75
624.072	22295.72
624.267	22115.5
624.462	21857.46
624.656	21859.51
624.851	21687.48
625.046	21712.05
625.24	21734.58
625.435	21525.69
625.629	21595.32
625.824	21175.48
626.018	21181.63
626.213	20636.87
626.407	21048.51
626.602	20573.38
626.796	20909.25
626.991	20600.01
627.185	20436.17
627.38	20442.31
627.574	20247.76
627.768	20190.41
627.963	20090.06
628.157	19743.95
628.352	20092.11
628.546	19283.16
628.74	19696.85
628.935	19342.55
629.129	19365.08
629.323	19031.26
629.517	19195.1
629.712	19094.75
629.906	18949.34
630.1	18613.48
630.294	18844.9
630.489	18517.22
630.683	18400.49
630.877	18484.45
631.071	18535.65
631.265	18394.34
631.459	18291.94
631.653	18156.78
631.848	18072.81
632.042	17796.34
632.236	18207.98
632.43	17444.09
632.624	17652.98
632.818	17450.23
633.012	17446.13
633.206	17390.84
633.4	17167.61
633.594	17224.95
633.788	17243.38
633.982	17097.98
634.176	16971.01
634.369	16731.39
634.563	16635.14
634.757	16508.16
634.951	16694.53
635.145	16655.62
635.339	16579.84
635.533	16446.73
635.726	16459.01
635.92	15858.96
636.114	16180.49
636.308	15879.44
636.501	15805.71
636.695	15715.6
636.889	15512.85
637.083	15576.34
637.276	15582.48
637.47	15371.54
637.664	15510.8
637.857	15428.88
638.051	15519
638.244	15168.79
638.438	14949.66
638.632	14687.52
638.825	14701.86
639.019	14556.45
639.212	14722.34
639.406	14613.79
639.599	14550.31
639.793	14488.87
639.986	14339.37
640.18	14355.75
640.373	14107.94
640.567	14030.12
640.76	13974.83
640.954	14114.09
641.147	13665.58
641.34	13829.42
641.534	13720.88
641.727	13583.66
641.92	13546.8
642.114	13554.99
642.307	13329.72
642.5	13364.53
642.694	13053.24
642.887	13112.63
643.08	13227.32
643.273	12995.9
643.467	12766.53
643.66	12664.13
643.853	12793.15
644.046	12635.46
644.239	12649.79
644.432	12504.39
644.626	12533.06
644.819	12434.75
645.012	12311.88
645.205	12313.92
645.398	12059.98
645.591	12051.78
645.784	12004.68
645.977	12033.35
646.17	12033.35
646.363	11681.1
646.556	11656.53
646.749	11654.48
646.942	11709.77
647.135	11470.16
647.328	11640.14
647.521	11351.38
647.714	11459.92
647.907	11316.56
648.099	11183.45
648.292	11267.41
648.485	11140.44
648.678	10878.3
648.871	10909.02
649.064	10874.2
649.256	10947.93
649.449	10804.57
649.642	10605.92
649.835	10591.58
650.027	10413.41
650.22	10468.7
650.413	10530.14
650.605	10548.58
650.798	10276.2
650.991	10384.74
651.183	10272.1
651.376	10028.39
651.568	10298.72
651.761	10132.84
651.954	10118.5
652.146	9917.8
652.339	10038.63
652.531	9823.59
652.724	9989.48
652.916	9717.1
653.109	9782.63
653.301	9520.49
653.494	9758.06
653.686	9344.37
653.879	9631.09
654.071	9551.21
654.263	9504.11
654.456	9338.23
654.648	9370.99
654.84	9237.88
655.033	9289.07
655.225	9217.4
655.417	9325.94
655.61	9104.76
655.802	9196.92
655.994	9076.09
656.186	8949.11
656.379	8754.55
656.571	8914.3
656.763	8826.23
656.955	8725.88
657.148	8949.11
657.34	8637.82
657.532	8570.24
657.724	8443.26
657.916	8568.19
658.108	8435.07
658.3	8320.39
658.492	8351.1
658.684	8400.26
658.876	8291.71
659.068	8336.77
659.26	8295.81
659.452	8258.95
659.644	8326.53
659.836	8035.72
660.028	7959.94
660.22	7884.17
660.412	7847.3
660.604	7718.28
660.796	7800.2
660.988	7972.23
661.18	7828.87
661.372	7687.56
661.563	7886.22
661.755	7667.08
661.947	7749
662.139	7650.7
662.331	7548.3
662.522	7579.02
662.714	7677.32
662.906	7454.09
663.097	7462.29
663.289	7394.7
663.481	7581.07
663.673	7230.87
663.864	7116.18
664.056	7239.06
664.247	7239.06
664.439	7024.02
664.631	7177.62
664.822	7056.79
665.014	7024.02
665.205	6974.87
665.397	6968.73
665.588	6995.35
665.78	6933.91
665.971	6788.5
666.163	7050.64
666.354	6864.28
666.546	6745.5
666.737	6733.21
666.929	6778.26
667.12	6677.91
667.311	6589.85
667.503	6612.38
667.694	6626.71
667.885	6561.18
668.077	6399.39
668.268	6448.54
668.459	6464.93
668.651	6352.29
668.842	6428.06
669.033	6327.71
669.224	6452.64
669.416	6299.04
669.607	6444.45
669.798	6149.54
669.989	6208.93
670.18	6118.82
670.371	6047.14
670.563	6188.45
670.754	6090.15
670.945	6075.81
671.136	6178.21
671.327	6143.39
671.518	6077.86
671.709	6133.15
671.9	6028.71
672.091	5948.84
672.282	5946.79
672.473	5959.08
672.664	5778.86
672.855	5954.98
673.046	5815.72
673.237	5813.67
673.428	5750.18
673.619	5799.34
673.809	5649.83
674	5703.08
674.191	5686.7
674.382	5807.53
674.573	5670.31
674.764	5737.9
674.954	5690.79
675.145	5486
675.336	5596.59
675.527	5594.54
675.717	5725.61
675.908	5610.92
676.099	5578.15
676.289	5574.06
676.48	5402.03
676.671	5383.6
676.861	5617.07
677.052	5414.32
677.243	5313.97
677.433	5391.79
677.624	5508.52
677.814	5391.79
678.005	5230
678.195	5440.94
678.386	5363.12
678.576	5367.21
678.767	5416.37
678.957	5316.01
679.148	5371.31
679.338	5223.86
679.529	5363.12
679.719	5311.92
679.909	5227.95
680.1	5301.68
680.29	5332.4
680.481	5334.45
680.671	5383.6
680.861	5330.35
681.052	5295.54
681.242	5238.19
681.432	5303.73
681.622	5109.17
681.813	5242.29
682.003	5088.69
682.193	5127.6
682.383	5234.1
682.573	5219.76
682.764	5270.96
682.954	5197.23
683.144	5232.05
683.334	5158.32
683.524	5141.94
683.714	5103.03
683.904	4945.33
684.094	5164.47
684.284	5033.4
684.474	5236.14
684.664	5090.74
684.854	4933.04
685.044	4982.2
685.234	4883.89
685.424	4896.18
685.614	4963.76
685.804	4933.04
685.994	4971.96
686.184	4953.52
686.374	4853.17
686.564	4984.24
686.753	4865.46
686.943	4758.97
687.133	4767.16
687.323	4773.3
687.513	4713.91
687.702	4808.12
687.892	4826.55
688.082	4728.25
688.272	4631.99
688.461	4701.62
688.651	4695.48
688.841	4607.42
689.03	4767.16
689.22	4588.99
689.41	4695.48
689.599	4484.54
689.789	4601.27
689.979	4496.83
690.168	4629.95
690.358	4457.92
690.547	4554.17
690.737	4605.37
690.926	4560.31
691.116	4439.48
691.305	4625.85
691.495	4509.12
691.684	4513.21
691.874	4392.38
692.063	4533.69
692.252	4541.88
692.442	4472.25
692.631	4351.42
692.82	4244.93
693.01	4408.76
693.199	4378.05
693.388	4283.84
693.578	4447.68
693.767	4345.28
693.956	4222.4
694.146	4335.04
694.335	4320.7
694.524	4408.76
694.713	4226.5
694.902	4322.75
695.092	4275.65
695.281	4203.97
695.47	4306.37
695.659	4189.63
695.848	4107.71
696.037	4099.52
696.226	4140.48
696.415	4033.99
696.604	4165.06
696.793	4222.4
696.982	4117.95
697.171	4146.62
697.36	4091.33
697.549	4154.82
697.738	4070.85
697.927	4025.79
698.116	4089.28
698.305	4150.72
698.494	4027.84
698.683	4093.38
698.872	4101.57
699.061	3974.6
699.25	4056.51
699.438	4113.86
699.627	4070.85
699.816	3954.12
700.005	4046.27
700.193	4054.47
700.382	4167.1
700.571	3978.69
700.76	3911.11
700.948	3976.64
701.137	3960.26
701.326	3900.87
701.514	3960.26
701.703	4023.75
701.892	3904.96
702.08	3962.31
702.269	4113.86
702.457	3933.64
702.646	3931.59
702.834	3874.24
703.023	3847.62
703.212	3960.26
703.4	3831.24
703.589	3851.72
703.777	3894.72
703.965	3818.95
704.154	3771.85
704.342	3780.04
704.531	3714.5
704.719	3655.11
704.907	3864.01
705.096	3726.79
705.284	3726.79
705.472	3751.37
705.661	3661.26
705.849	3669.45
706.037	3737.03
706.226	3562.95
706.414	3704.26
706.602	3708.36
706.79	3788.23
706.979	3681.74
707.167	3683.78
707.355	3634.63
707.543	3671.5
707.731	3673.54
707.919	3644.87
708.107	3614.15
708.296	3538.38
708.484	3460.56
708.672	3591.63
708.86	3569.1
709.048	3552.71
709.236	3499.47
709.424	3560.91
709.612	3585.48
709.8	3554.76
709.988	3554.76
710.176	3483.08
710.364	3446.22
710.551	3569.1
710.739	3554.76
710.927	3505.61
711.115	3478.99
711.303	3474.89
711.491	3429.84
711.679	3476.94
711.866	3253.71
712.054	3446.22
712.242	3345.87
712.43	3349.96
712.617	3360.2
712.805	3276.24
712.993	3372.49
713.181	3397.07
713.368	3341.77
713.556	3382.73
713.744	3329.49
713.931	3263.95
714.119	3331.53
714.306	3251.66
714.494	3179.98
714.682	3249.61
714.869	3220.94
715.057	3345.87
715.244	3155.41
715.432	3186.13
715.619	3214.8
715.807	3067.35
715.994	3089.87
716.182	3251.66
716.369	3096.02
716.556	3294.67
716.744	3087.82
716.931	3108.3
717.119	3272.14
717.306	3122.64
717.493	3053.01
717.681	3132.88
717.868	3032.53
718.055	3073.49
718.242	3196.37
718.43	3059.15
718.617	2985.43
718.804	3114.45
718.991	3167.7
719.179	2999.76
719.366	3038.67
719.553	3091.92
719.74	3053.01
719.927	2989.52
720.114	2969.04
720.301	2938.32
720.488	2940.37
720.676	2921.94
720.863	2979.28
721.05	2926.04
721.237	2825.68
721.424	2985.43
721.611	2891.22
721.798	2837.97
721.985	2919.89
722.172	2825.68
722.358	2844.12
722.545	2923.99
722.732	2751.96
722.919	2860.5
723.106	2817.49
723.293	2915.8
723.48	2813.4
723.667	2782.68
723.853	2729.43
724.04	2647.51
724.227	2733.53
724.414	2819.54
724.6	2754.01
724.787	2782.68
724.974	2661.85
725.161	2659.8
725.347	2698.71
725.534	2682.33
725.72	2612.7
725.907	2641.37
726.094	2696.66
726.28	2594.26
726.467	2649.56
726.653	2641.37
726.84	2708.95
727.027	2592.22
727.213	2633.18
727.4	2616.79
727.586	2629.08
727.773	2575.83
727.959	2674.14
728.145	2620.89
728.332	2651.61
728.518	2489.82
728.705	2641.37
728.891	2434.52
729.077	2569.69
729.264	2479.58
729.45	2489.82
729.636	2473.43
729.823	2391.52
730.009	2555.35
730.195	2479.58
730.382	2512.35
730.568	2430.43
730.754	2487.77
730.94	2473.43
731.126	2459.1
731.313	2629.08
731.499	2524.63
731.685	2448.86
731.871	2352.6
732.057	2534.87
732.243	2461.15
732.429	2495.96
732.615	2379.23
732.801	2426.33
732.987	2383.32
733.173	2418.14
733.359	2321.88
733.545	2387.42
733.731	2371.04
733.917	2381.28
734.103	2379.23
734.289	2307.55
734.475	2401.76
734.661	2493.91
734.847	2409.95
735.033	2268.64
735.219	2373.08
735.404	2270.69
735.59	2401.76
735.776	2311.64
735.962	2282.97
736.148	2311.64
736.333	2350.56
736.519	2299.36
736.705	2371.04
736.89	2196.96
737.076	2205.15
737.262	2186.72
737.447	2186.72
737.633	2219.49
737.819	2270.69
738.004	2211.29
738.19	2199.01
738.375	2196.96
738.561	2233.82
738.747	2207.2
738.932	2219.49
739.118	2084.32
739.303	2182.62
739.489	2239.97
739.674	2000.35
739.859	2090.46
740.045	2141.66
740.23	2184.67
740.416	2035.17
740.601	2108.9
740.786	2014.69
740.972	2096.61
741.157	2094.56
741.342	1994.21
741.528	1842.66
741.713	2002.4
741.898	2115.04
742.084	2106.85
742.269	2016.74
742.454	2000.35
742.639	1986.02
742.824	1983.97
743.01	2059.74
743.195	1992.16
743.38	1938.91
743.565	1971.68
743.75	1990.11
743.935	1967.59
744.12	1934.82
744.305	1859.04
744.49	1754.6
744.675	1893.86
744.86	1920.48
745.045	1768.93
745.23	1816.04
745.415	1861.09
745.6	1900
745.785	1779.17
745.97	1793.51
746.155	1768.93
746.34	1873.38
746.525	1783.27
746.71	1840.61
746.895	1854.95
747.079	1828.32
747.264	1742.31
747.449	1773.03
747.634	1773.03
747.819	1787.36
748.003	1721.83
748.188	1678.82
748.373	1711.59
748.557	1621.48
748.742	1707.49
748.927	1598.95
749.111	1644.01
749.296	1603.05
749.481	1623.53
749.665	1566.18
749.85	1574.38
750.034	1615.34
750.219	1623.53
750.404	1533.42
750.588	1639.91
750.773	1566.18
750.957	1508.84
751.141	1553.9
751.326	1441.26
751.51	1428.97
751.695	1564.14
751.879	1379.82
752.064	1607.14
752.248	1394.15
752.432	1478.12
752.617	1373.68
752.801	1340.91
752.985	1369.58
753.17	1408.49
753.354	1428.97
753.538	1373.68
753.722	1443.31
753.907	1351.15
754.091	1336.81
754.275	1285.61
754.459	1394.15
754.643	1316.33
754.828	1371.63
755.012	1273.32
755.196	1355.24
755.38	1310.19
755.564	1238.51
755.748	1193.45
755.932	1215.98
756.116	1246.7
756.3	1254.89
756.484	1127.92
756.668	1215.98
756.852	1213.93
757.036	1172.97
757.22	1129.97
757.404	1271.28
757.588	1132.01
757.772	1250.8
757.956	1175.02
758.14	1179.12
758.323	1099.25
758.507	1078.77
758.691	1062.38
758.875	1095.15
759.059	1156.59
759.242	1138.16
759.426	1117.68
759.61	1109.49
759.794	1066.48
759.977	1097.2
760.161	1150.45
760.345	1166.83
760.528	1064.43
760.712	1062.38
760.895	1027.57
761.079	1033.71
761.263	1068.53
761.446	1058.29
761.63	1039.86
761.813	1041.9
761.997	957.94
762.18	986.61
762.364	982.51
762.547	980.47
762.731	1000.94
762.914	974.32
763.098	964.08
763.281	953.84
763.464	935.41
763.648	914.93
763.831	962.03
764.015	1002.99
764.198	968.18
764.381	992.75
764.564	982.51
764.748	927.22
764.931	955.89
765.114	945.65
765.297	935.41
765.481	888.31
765.664	927.22
765.847	951.79
766.03	968.18
766.213	859.63
766.397	943.6
766.58	843.25
766.763	986.61
766.946	861.68
767.129	869.87
767.312	888.31
767.495	892.4
767.678	853.49
767.861	833.01
768.044	980.47
768.227	865.78
768.41	837.11
768.593	839.16
768.776	753.14
768.959	880.11
769.142	859.63
769.324	847.35
769.507	806.39
769.69	873.97
769.873	876.02
770.056	828.92
770.239	806.39
770.421	833.01
770.604	792.05
770.787	769.52
770.97	757.24
771.152	775.67
771.335	777.72
771.518	796.15
771.7	835.06
771.883	818.68
772.066	763.38
772.248	826.87
772.431	781.81
772.613	775.67
772.796	773.62
772.978	699.89
773.161	792.05
773.343	685.56
773.526	775.67
773.708	761.33
773.891	714.23
774.073	759.28
774.256	714.23
774.438	751.09
774.621	611.83
774.803	744.95
774.985	609.78
775.168	667.13
775.35	703.99
775.532	673.27
775.715	607.73
775.897	613.88
776.079	562.68
776.261	613.88
776.444	753.14
776.626	636.41
776.808	558.58
776.99	656.89
777.173	642.55
777.355	585.21
777.537	626.17
777.719	583.16
777.901	624.12
778.083	609.78
778.265	548.34
778.447	687.61
778.629	597.49
778.811	632.31
778.993	640.5
779.175	558.58
779.357	550.39
779.539	554.49
779.721	544.25
779.903	583.16
780.085	534.01
780.267	546.3
780.449	554.49
780.631	540.15
780.812	617.97
780.994	585.21
781.176	589.3
781.358	480.76
781.54	550.39
781.721	503.29
781.903	423.42
782.085	646.65
782.267	517.62
782.448	499.19
782.63	511.48
782.812	468.47
782.993	466.42
783.175	491
783.357	484.86
783.538	447.99
783.72	427.51
783.901	519.67
784.083	454.14
784.264	491
784.446	433.66
784.627	411.13
784.809	474.62
784.99	540.15
785.172	433.66
785.353	435.71
785.535	372.22
785.716	441.85
785.897	445.95
786.079	458.23
786.26	349.69
786.441	445.95
786.623	456.19
786.804	402.94
786.985	402.94
787.167	382.46
787.348	423.42
787.529	390.65
787.71	517.62
787.891	417.27
788.073	339.45
788.254	450.04
788.435	409.08
788.616	361.98
788.797	376.31
788.978	347.64
789.159	357.88
789.34	353.79
789.522	355.83
789.703	292.35
789.884	343.55
790.065	374.27
790.246	421.37
790.427	359.93
790.607	392.7
790.788	374.27
790.969	345.59
791.15	310.78
791.331	290.3
791.512	345.59
791.693	269.82
791.874	273.92
792.054	329.21
792.235	288.25
792.416	294.4
792.597	306.68
792.778	237.05
792.958	298.49
793.139	261.63
793.32	278.01
793.5	300.54
793.681	241.15
793.862	226.81
794.042	310.78
794.223	212.48
794.404	265.72
794.584	245.24
794.765	216.57
794.945	216.57
795.126	312.83
795.306	278.01
795.487	222.72
795.667	255.48
795.848	331.26
796.028	253.44
796.209	304.64
796.389	284.16
796.57	255.48
796.75	288.25
796.93	245.24
797.111	243.2
797.291	245.24
797.471	230.91
797.652	267.77
797.832	192
798.012	261.63
798.192	230.91
798.373	232.96
798.553	155.13
798.733	210.43
798.913	243.2
799.093	257.53
799.274	239.1
799.454	259.58
799.634	259.58
799.814	228.86
799.994	263.68
800.174	202.24
800.354	263.68
800.534	212.48
800.714	255.48
800.894	169.47
801.074	167.42
801.254	269.82
801.434	204.28
801.614	208.38
801.794	185.85
801.974	646.65
802.154	249.34
802.334	237.05
802.514	183.81
802.693	108.03
802.873	232.96
803.053	206.33
803.233	265.72
803.413	224.76
803.592	239.1
803.772	169.47
803.952	208.38
804.131	144.89
804.311	175.61
804.491	187.9
804.67	220.67
804.85	216.57
805.03	255.48
805.209	232.96
805.389	157.18
805.568	192
805.748	161.28
805.928	140.8
806.107	169.47
806.287	222.72
806.466	198.14
806.646	114.17
806.825	192
807.004	130.56
807.184	136.7
807.363	230.91
807.543	161.28
807.722	171.52
807.901	189.95
808.081	214.52
808.26	144.89
808.439	148.99
808.619	83.45
808.798	95.74
808.977	124.41
809.156	220.67
809.336	185.85
809.515	163.33
809.694	95.74
809.873	130.56
810.052	132.61
810.231	122.37
810.411	177.66
810.59	200.19
810.769	126.46
810.948	179.71
811.127	136.7
811.306	146.94
811.485	132.61
811.664	126.46
811.843	99.84
812.022	116.22
812.201	220.67
812.38	130.56
812.559	138.75
812.737	157.18
812.916	148.99
813.095	89.6
813.274	122.37
813.453	126.46
813.632	103.93
813.811	171.52
813.989	116.22
814.168	151.04
814.347	126.46
814.526	87.55
814.704	132.61
814.883	212.48
815.062	103.93
815.24	157.18
815.419	85.5
815.598	148.99
815.776	62.98
815.955	165.37
816.133	105.98
816.312	138.75
816.49	69.12
816.669	130.56
816.847	67.07
817.026	105.98
817.204	97.79
817.383	114.17
817.561	167.42
817.74	118.27
817.918	142.85
818.097	142.85
818.275	81.41
818.453	165.37
818.632	116.22
818.81	114.17
818.988	159.23
819.167	73.21
819.345	89.6
819.523	118.27
819.701	130.56
819.879	85.5
820.058	99.84
820.236	75.26
820.414	101.89
820.592	99.84
820.77	40.45
820.948	130.56
821.127	77.31
821.305	151.04
821.483	46.59
821.661	105.98
821.839	179.71
822.017	69.12
822.195	30.21
822.373	99.84
822.551	65.02
822.729	81.41
822.907	112.13
823.085	95.74
823.262	157.18
823.44	52.74
823.618	146.94
823.796	81.41
823.974	46.59
824.152	101.89
824.329	60.93
824.507	132.61
824.685	87.55
824.863	134.65
825.04	114.17
825.218	65.02
825.396	71.17
825.574	89.6
825.751	67.07
825.929	132.61
826.107	91.65
826.284	161.28
826.462	91.65
826.639	105.98
826.817	69.12
826.994	40.45
827.172	77.31
827.349	91.65
827.527	114.17
827.704	101.89
827.882	124.41
828.059	65.02
828.237	-8.7
828.414	56.83
828.591	46.59
828.769	71.17
828.946	52.74
829.124	114.17
829.301	50.69
829.478	91.65
829.655	103.93
829.833	38.4
830.01	52.74
830.187	75.26
830.364	22.02
830.542	148.99
830.719	116.22
830.896	114.17
831.073	103.93
831.25	40.45
831.427	52.74
831.604	101.89
831.782	91.65
831.959	75.26
832.136	50.69
832.313	114.17
832.49	87.55
832.667	105.98
832.844	99.84
833.021	112.13
833.198	-16.9
833.374	22.02
833.551	44.54
833.728	36.35
833.905	56.83
834.082	67.07
834.259	91.65
834.436	169.47
834.612	60.93
834.789	124.41
834.966	81.41
835.143	75.26
835.319	95.74
835.496	69.12
835.673	65.02
835.85	48.64
836.026	-20.99
836.203	-18.94
836.38	19.97
836.556	17.92
836.733	110.08
836.909	108.03
837.086	48.64
837.262	5.63
837.439	99.84
837.616	48.64
837.792	36.35
837.968	87.55
838.145	34.3
838.321	54.78
838.498	32.26
838.674	50.69
838.851	50.69
839.027	124.41
839.203	48.64
839.38	42.5
839.556	99.84
839.732	71.17
839.909	75.26
840.085	30.21
840.261	1.54
840.437	116.22
840.614	-18.94
840.79	93.69
840.966	153.09
841.142	58.88
841.318	30.21
841.494	50.69
841.671	83.45
841.847	-33.28
842.023	-6.66
842.199	-12.8
842.375	142.85
842.551	7.68
842.727	50.69
842.903	116.22
843.079	24.06
843.255	118.27
843.431	-72.19
843.607	81.41
843.783	40.45
843.959	42.5
844.134	19.97
844.31	75.26
844.486	40.45
844.662	30.21
844.838	-23.04
845.013	36.35
845.189	110.08
845.365	95.74
845.541	24.06
845.716	46.59
845.892	54.78
846.068	30.21
846.244	54.78
846.419	32.26
846.595	28.16
846.77	1.54
846.946	28.16
847.122	32.26
847.297	54.78
847.473	101.89
847.648	36.35
847.824	42.5
847.999	3.58
848.175	-16.9
848.35	56.83
848.526	1.54
848.701	69.12
848.876	73.21
849.052	36.35
849.227	-4.61
849.403	81.41
849.578	-39.42
849.753	-12.8
849.929	17.92
850.104	44.54
850.279	67.07
850.454	26.11
850.63	85.5
850.805	46.59
850.98	89.6
851.155	58.88
851.33	42.5
851.505	36.35
851.681	22.02
851.856	52.74
852.031	34.3
852.206	65.02
852.381	17.92
852.556	-0.51
852.731	-8.7
852.906	-16.9
853.081	44.54
853.256	50.69
853.431	50.69
853.606	97.79
853.781	-27.14
853.956	-10.75
854.131	40.45
854.305	46.59
854.48	67.07
854.655	-6.66
854.83	5.63
855.005	65.02
855.18	42.5
855.354	34.3
855.529	56.83
855.704	11.78
855.879	36.35
856.053	-8.7
856.228	69.12
856.403	-2.56
856.577	60.93
856.752	26.11
856.926	36.35
857.101	30.21
857.276	36.35
857.45	19.97
857.625	-0.51
857.799	-29.18
857.974	50.69
858.148	-47.62
858.323	-12.8
858.497	67.07
858.672	36.35
858.846	-6.66
859.02	-20.99
859.195	-49.66
859.369	30.21
859.543	-27.14
859.718	7.68
859.892	5.63
860.066	83.45
860.241	1.54
860.415	-66.05
860.589	40.45
860.763	26.11
860.938	1.54
861.112	7.68
861.286	-6.66
861.46	91.65
861.634	26.11
861.808	34.3
861.982	-100.86
862.157	1.54
862.331	-18.94
862.505	-12.8
862.679	-76.29
862.853	-55.81
863.027	-2.56
863.201	-41.47
863.375	105.98
863.549	-37.38
863.722	17.92
863.896	32.26
864.07	62.98
864.244	83.45
864.418	73.21
864.592	48.64
864.766	-14.85
864.939	40.45
865.113	54.78
865.287	44.54
865.461	1.54
865.634	91.65
865.808	40.45
865.982	-8.7
866.156	-33.28
866.329	-2.56
866.503	85.5
866.676	26.11
866.85	58.88
867.024	40.45
867.197	13.82
867.371	99.84
867.544	1.54
867.718	-37.38
867.891	24.06
868.065	69.12
868.238	5.63
868.412	-25.09
868.585	32.26
868.759	-0.51
868.932	-51.71
869.105	38.4
869.279	9.73
869.452	9.73
869.625	-6.66
869.799	-68.09
869.972	-37.38
870.145	22.02
870.319	85.5
870.492	-57.86
870.665	-2.56
870.838	38.4
871.011	-18.94
871.185	56.83
871.358	9.73
871.531	22.02
871.704	19.97
871.877	3.58
872.05	-18.94
872.223	-16.9
872.396	30.21
872.569	-10.75
872.742	-37.38
872.915	5.63
873.088	7.68
873.261	138.75
873.434	58.88
873.607	73.21
873.78	46.59
873.953	-57.86
874.126	48.64
874.299	11.78
874.471	34.3
874.644	91.65
874.817	60.93
874.99	22.02
875.163	89.6
875.335	-43.52
875.508	-16.9
875.681	44.54
875.853	24.06
876.026	42.5
876.199	62.98
876.371	-12.8
876.544	-16.9
876.717	-25.09
876.889	58.88
877.062	-25.09
877.234	-53.76
877.407	-23.04
877.579	1.54
877.752	48.64
877.924	-8.7
878.097	-0.51
878.269	-6.66
878.442	42.5
878.614	44.54
878.786	-57.86
878.959	40.45
879.131	56.83
879.303	-39.42
879.476	-6.66
879.648	-80.38
879.82	-41.47
879.993	-41.47
880.165	46.59
880.337	-45.57
880.509	48.64
880.681	-82.43
880.854	-0.51
881.026	-49.66
881.198	93.69
881.37	-49.66
881.542	34.3
881.714	-33.28
881.886	40.45
882.058	-16.9
882.23	69.12
882.402	-18.94
882.574	48.64
882.746	-10.75
882.918	87.55
883.09	54.78
883.262	60.93
883.434	1.54
883.606	-6.66
883.778	42.5
883.95	7.68
884.122	30.21
884.293	19.97
884.465	-49.66
884.637	-33.28
884.809	-29.18
884.98	-8.7
885.152	-68.09
885.324	34.3
885.496	-41.47
885.667	24.06
885.839	-25.09
886.011	62.98
886.182	-39.42
886.354	30.21
886.525	-41.47
886.697	56.83
886.869	-18.94
887.04	-14.85
887.212	1.54
887.383	1.54
887.555	-14.85
887.726	56.83
887.897	36.35
888.069	1.54
888.24	89.6
888.412	75.26
888.583	-2.56
888.754	-8.7
888.926	-51.71
889.097	-20.99
889.268	-66.05
889.44	3.58
889.611	-55.81
889.782	19.97
889.953	-4.61
890.125	38.4
890.296	-6.66
890.467	-8.7
890.638	-31.23
890.809	-0.51
890.98	11.78
891.151	-10.75
891.323	5.63
891.494	5.63
891.665	3.58
891.836	50.69
892.007	5.63
892.178	30.21
892.349	-12.8
892.52	19.97
892.691	17.92
892.862	32.26
893.032	-16.9
893.203	48.64
893.374	-25.09
893.545	28.16
893.716	5.63
893.887	65.02
894.057	-43.52
894.228	60.93
894.399	15.87
894.57	60.93
894.74	-39.42
894.911	3.58
895.082	-57.86
895.253	52.74
895.423	52.74
895.594	26.11
895.764	17.92
895.935	-25.09
896.106	22.02
896.276	69.12
896.447	50.69
896.617	-45.57
896.788	32.26
896.958	62.98
897.129	-18.94
897.299	15.87
897.47	-25.09
897.64	15.87
897.81	52.74
897.981	105.98
898.151	-49.66
898.322	52.74
898.492	32.26
898.662	9.73
898.832	11.78
899.003	7.68
899.173	30.21
899.343	103.93
899.513	-68.09
