Data from USB4F104151__33__12-35-36-181.txt Node

Date: Fri Mar 14 12:35:36 EDT 2025
User: louis
Spectrometer: USB4F10415
Trigger mode: 4
Integration Time (sec): 2.000000E-2
Scans to average: 1
Electric dark correction enabled: true
Nonlinearity correction enabled: false
Boxcar width: 0
XAxis mode: Wavelengths
Number of Pixels in Spectrum: 3648
>>>>>Begin Spectral Data<<<<<
178.204	-64.51
178.424	-64.51
178.644	-64.51
178.864	-56.32
179.084	-119.81
179.304	-17.41
179.524	-29.7
179.744	41.98
179.964	-27.65
180.184	101.37
180.404	-66.56
180.624	-17.41
180.844	29.7
181.064	-25.6
181.283	-3.07
181.503	21.5
181.723	-7.17
181.943	-62.46
182.163	48.13
182.383	21.5
182.602	37.89
182.822	44.03
183.042	89.09
183.262	-17.41
183.482	50.18
183.701	66.56
183.921	72.7
184.141	48.13
184.361	15.36
184.58	27.65
184.8	31.74
185.02	-35.84
185.239	-17.41
185.459	84.99
185.679	31.74
185.898	11.26
186.118	44.03
186.338	13.31
186.557	48.13
186.777	-3.07
186.997	-17.41
187.216	15.36
187.436	9.22
187.655	130.05
187.875	7.17
188.095	25.6
188.314	109.57
188.534	72.7
188.753	-52.22
188.973	97.28
189.192	74.75
189.412	-27.65
189.631	115.71
189.851	35.84
190.07	37.89
190.29	50.18
190.509	29.7
190.729	-82.94
190.948	121.85
191.168	80.89
191.387	64.51
191.607	-35.84
191.826	64.51
192.045	46.08
192.265	15.36
192.484	23.55
192.704	52.22
192.923	54.27
193.142	87.04
193.362	-11.26
193.581	128
193.8	3.07
194.02	95.23
194.239	-35.84
194.458	25.6
194.678	35.84
194.897	54.27
195.116	54.27
195.335	29.7
195.555	82.94
195.774	29.7
195.993	62.46
196.212	29.7
196.432	15.36
196.651	17.41
196.87	-9.22
197.089	62.46
197.308	-1.02
197.528	80.89
197.747	-29.7
197.966	56.32
198.185	87.04
198.404	-1.02
198.623	7.17
198.842	13.31
199.062	35.84
199.281	70.65
199.5	50.18
199.719	58.37
199.938	7.17
200.157	46.08
200.376	-41.98
200.595	-7.17
200.814	78.85
201.033	-50.18
201.252	74.75
201.471	101.37
201.69	76.8
201.909	27.65
202.128	23.55
202.347	33.79
202.566	9.22
202.785	23.55
203.004	-37.89
203.223	91.13
203.442	3.07
203.661	-3.07
203.879	-11.26
204.098	21.5
204.317	19.46
204.536	5.12
204.755	-11.26
204.974	68.61
205.193	23.55
205.411	33.79
205.63	27.65
205.849	95.23
206.068	66.56
206.287	66.56
206.505	64.51
206.724	17.41
206.943	70.65
207.162	29.7
207.381	52.22
207.599	31.74
207.818	1.02
208.037	11.26
208.255	9.22
208.474	-52.22
208.693	70.65
208.911	25.6
209.13	54.27
209.349	50.18
209.567	-3.07
209.786	39.94
210.005	27.65
210.223	150.53
210.442	-31.74
210.661	41.98
210.879	54.27
211.098	-37.89
211.316	56.32
211.535	89.09
211.753	-3.07
211.972	-27.65
212.191	23.55
212.409	15.36
212.628	11.26
212.846	-33.79
213.065	76.8
213.283	31.74
213.502	84.99
213.72	15.36
213.938	-13.31
214.157	76.8
214.375	-9.22
214.594	62.46
214.812	29.7
215.031	66.56
215.249	-33.79
215.467	44.03
215.686	-11.26
215.904	17.41
216.122	44.03
216.341	25.6
216.559	41.98
216.778	9.22
216.996	46.08
217.214	15.36
217.432	72.7
217.651	1.02
217.869	5.12
218.087	17.41
218.306	29.7
218.524	39.94
218.742	-3.07
218.96	39.94
219.179	15.36
219.397	56.32
219.615	56.32
219.833	-31.74
220.051	5.12
220.27	44.03
220.488	19.46
220.706	41.98
220.924	-37.89
221.142	70.65
221.36	-48.13
221.578	-17.41
221.796	39.94
222.015	29.7
222.233	-9.22
222.451	-17.41
222.669	91.13
222.887	84.99
223.105	7.17
223.323	9.22
223.541	54.27
223.759	84.99
223.977	41.98
224.195	84.99
224.413	35.84
224.631	29.7
224.849	41.98
225.067	87.04
225.285	-44.03
225.503	48.13
225.721	27.65
225.939	9.22
226.157	31.74
226.375	76.8
226.592	17.41
226.81	29.7
227.028	-7.17
227.246	41.98
227.464	13.31
227.682	21.5
227.9	64.51
228.117	52.22
228.335	82.94
228.553	13.31
228.771	128
228.989	87.04
229.206	91.13
229.424	58.37
229.642	-113.66
229.86	111.61
230.077	31.74
230.295	15.36
230.513	27.65
230.731	23.55
230.948	48.13
231.166	54.27
231.384	44.03
231.601	-9.22
231.819	31.74
232.037	-21.5
232.254	15.36
232.472	87.04
232.689	25.6
232.907	107.52
233.125	44.03
233.342	62.46
233.56	48.13
233.777	-35.84
233.995	117.76
234.213	64.51
234.43	41.98
234.648	7.17
234.865	1.02
235.083	101.37
235.3	11.26
235.518	-5.12
235.735	76.8
235.953	82.94
236.17	-23.55
236.388	-19.46
236.605	56.32
236.822	80.89
237.04	17.41
237.257	56.32
237.475	64.51
237.692	17.41
237.909	33.79
238.127	-23.55
238.344	37.89
238.562	44.03
238.779	-50.18
238.996	-41.98
239.214	33.79
239.431	1.02
239.648	48.13
239.865	33.79
240.083	9.22
240.3	29.7
240.517	-23.55
240.735	37.89
240.952	13.31
241.169	46.08
241.386	76.8
241.603	62.46
241.821	31.74
242.038	105.47
242.255	9.22
242.472	64.51
242.689	33.79
242.907	13.31
243.124	17.41
243.341	60.42
243.558	-41.98
243.775	56.32
243.992	-17.41
244.209	17.41
244.426	29.7
244.643	52.22
244.86	-52.22
245.078	84.99
245.295	70.65
245.512	-9.22
245.729	11.26
245.946	54.27
246.163	111.61
246.38	78.85
246.597	19.46
246.814	29.7
247.031	15.36
247.248	44.03
247.464	50.18
247.681	41.98
247.898	58.37
248.115	27.65
248.332	56.32
248.549	-25.6
248.766	27.65
248.983	76.8
249.2	95.23
249.417	66.56
249.633	80.89
249.85	76.8
250.067	-37.89
250.284	37.89
250.501	31.74
250.717	27.65
250.934	27.65
251.151	91.13
251.368	87.04
251.585	91.13
251.801	56.32
252.018	113.66
252.235	9.22
252.451	23.55
252.668	9.22
252.885	56.32
253.102	44.03
253.318	-3.07
253.535	44.03
253.752	95.23
253.968	23.55
254.185	17.41
254.401	72.7
254.618	31.74
254.835	7.17
255.051	84.99
255.268	29.7
255.484	54.27
255.701	-19.46
255.917	80.89
256.134	-15.36
256.351	48.13
256.567	23.55
256.784	78.85
257	74.75
257.217	46.08
257.433	62.46
257.65	50.18
257.866	27.65
258.082	-25.6
258.299	7.17
258.515	37.89
258.732	52.22
258.948	84.99
259.165	50.18
259.381	1.02
259.597	-9.22
259.814	62.46
260.03	76.8
260.246	84.99
260.463	72.7
260.679	29.7
260.895	27.65
261.112	62.46
261.328	56.32
261.544	-39.94
261.761	46.08
261.977	7.17
262.193	31.74
262.409	74.75
262.626	-3.07
262.842	80.89
263.058	25.6
263.274	70.65
263.49	84.99
263.707	15.36
263.923	33.79
264.139	-7.17
264.355	27.65
264.571	64.51
264.787	7.17
265.004	11.26
265.22	19.46
265.436	15.36
265.652	-23.55
265.868	84.99
266.084	-29.7
266.3	72.7
266.516	-56.32
266.732	144.38
266.948	74.75
267.164	11.26
267.38	21.5
267.596	84.99
267.812	95.23
268.028	-60.42
268.244	31.74
268.46	56.32
268.676	44.03
268.892	29.7
269.108	91.13
269.324	25.6
269.54	11.26
269.756	21.5
269.972	-7.17
270.188	64.51
270.403	58.37
270.619	-7.17
270.835	78.85
271.051	48.13
271.267	80.89
271.483	25.6
271.698	29.7
271.914	15.36
272.13	60.42
272.346	72.7
272.562	37.89
272.777	72.7
272.993	46.08
273.209	-19.46
273.425	5.12
273.64	60.42
273.856	50.18
274.072	76.8
274.287	50.18
274.503	54.27
274.719	70.65
274.934	39.94
275.15	58.37
275.366	64.51
275.581	44.03
275.797	74.75
276.012	62.46
276.228	9.22
276.444	29.7
276.659	48.13
276.875	48.13
277.09	56.32
277.306	21.5
277.521	70.65
277.737	66.56
277.952	48.13
278.168	91.13
278.383	-5.12
278.599	37.89
278.814	64.51
279.03	11.26
279.245	52.22
279.461	25.6
279.676	33.79
279.892	60.42
280.107	117.76
280.322	68.61
280.538	48.13
280.753	72.7
280.969	41.98
281.184	54.27
281.399	95.23
281.615	11.26
281.83	52.22
282.045	72.7
282.26	44.03
282.476	25.6
282.691	52.22
282.906	50.18
283.122	70.65
283.337	29.7
283.552	-25.6
283.767	19.46
283.983	64.51
284.198	58.37
284.413	56.32
284.628	-23.55
284.843	58.37
285.058	23.55
285.274	-39.94
285.489	5.12
285.704	142.33
285.919	-15.36
286.134	72.7
286.349	58.37
286.564	41.98
286.779	-37.89
286.995	31.74
287.21	-15.36
287.425	84.99
287.64	60.42
287.855	54.27
288.07	50.18
288.285	113.66
288.5	152.57
288.715	19.46
288.93	17.41
289.145	31.74
289.36	5.12
289.575	76.8
289.79	44.03
290.004	54.27
290.219	-7.17
290.434	97.28
290.649	-7.17
290.864	35.84
291.079	33.79
291.294	89.09
291.509	80.89
291.724	82.94
291.938	-21.5
292.153	62.46
292.368	-3.07
292.583	5.12
292.798	60.42
293.012	82.94
293.227	-19.46
293.442	5.12
293.657	-3.07
293.871	52.22
294.086	37.89
294.301	7.17
294.516	33.79
294.73	17.41
294.945	39.94
295.16	56.32
295.374	105.47
295.589	48.13
295.804	11.26
296.018	66.56
296.233	52.22
296.447	82.94
296.662	48.13
296.877	-7.17
297.091	37.89
297.306	35.84
297.52	-1.02
297.735	5.12
297.949	23.55
298.164	78.85
298.378	17.41
298.593	9.22
298.807	31.74
299.022	64.51
299.236	9.22
299.451	27.65
299.665	23.55
299.88	11.26
300.094	31.74
300.309	80.89
300.523	60.42
300.737	39.94
300.952	31.74
301.166	13.31
301.381	-5.12
301.595	19.46
301.809	1.02
302.024	29.7
302.238	13.31
302.452	29.7
302.667	29.7
302.881	87.04
303.095	35.84
303.309	50.18
303.524	52.22
303.738	3.07
303.952	-50.18
304.166	68.61
304.381	68.61
304.595	25.6
304.809	-19.46
305.023	89.09
305.237	-7.17
305.452	89.09
305.666	84.99
305.88	37.89
306.094	27.65
306.308	25.6
306.522	41.98
306.736	66.56
306.95	87.04
307.164	105.47
307.379	52.22
307.593	82.94
307.807	46.08
308.021	7.17
308.235	68.61
308.449	-41.98
308.663	7.17
308.877	93.18
309.091	41.98
309.305	-33.79
309.519	-19.46
309.733	128
309.947	11.26
310.161	46.08
310.374	58.37
310.588	64.51
310.802	5.12
311.016	-9.22
311.23	58.37
311.444	31.74
311.658	9.22
311.872	70.65
312.085	72.7
312.299	97.28
312.513	91.13
312.727	46.08
312.941	21.5
313.154	21.5
313.368	152.57
313.582	13.31
313.796	27.65
314.009	60.42
314.223	27.65
314.437	72.7
314.651	125.95
314.864	9.22
315.078	33.79
315.292	23.55
315.505	60.42
315.719	23.55
315.933	54.27
316.146	27.65
316.36	54.27
316.573	15.36
316.787	74.75
317.001	60.42
317.214	-9.22
317.428	113.66
317.641	41.98
317.855	-11.26
318.068	46.08
318.282	130.05
318.495	68.61
318.709	80.89
318.922	33.79
319.136	60.42
319.349	60.42
319.563	62.46
319.776	56.32
319.99	25.6
320.203	41.98
320.417	56.32
320.63	56.32
320.843	107.52
321.057	21.5
321.27	80.89
321.483	54.27
321.697	84.99
321.91	46.08
322.124	-29.7
322.337	3.07
322.55	56.32
322.763	11.26
322.977	162.81
323.19	50.18
323.403	7.17
323.617	19.46
323.83	48.13
324.043	9.22
324.256	52.22
324.469	5.12
324.683	50.18
324.896	-15.36
325.109	-17.41
325.322	52.22
325.535	76.8
325.748	76.8
325.962	105.47
326.175	41.98
326.388	9.22
326.601	3.07
326.814	66.56
327.027	27.65
327.24	60.42
327.453	-13.31
327.666	72.7
327.879	123.9
328.092	101.37
328.305	66.56
328.518	72.7
328.731	74.75
328.944	50.18
329.157	35.84
329.37	76.8
329.583	97.28
329.796	62.46
330.009	-9.22
330.222	5.12
330.435	62.46
330.648	58.37
330.861	23.55
331.073	117.76
331.286	58.37
331.499	46.08
331.712	64.51
331.925	144.38
332.138	29.7
332.35	27.65
332.563	-50.18
332.776	9.22
332.989	56.32
333.202	-17.41
333.414	60.42
333.627	29.7
333.84	21.5
334.053	52.22
334.265	35.84
334.478	15.36
334.691	78.85
334.903	93.18
335.116	105.47
335.329	91.13
335.541	68.61
335.754	119.81
335.966	7.17
336.179	62.46
336.392	29.7
336.604	54.27
336.817	37.89
337.029	46.08
337.242	72.7
337.454	52.22
337.667	66.56
337.88	150.53
338.092	91.13
338.305	109.57
338.517	95.23
338.729	72.7
338.942	101.37
339.154	-1.02
339.367	-97.28
339.579	70.65
339.792	46.08
340.004	15.36
340.217	19.46
340.429	70.65
340.641	37.89
340.854	7.17
341.066	31.74
341.278	23.55
341.491	89.09
341.703	74.75
341.915	1.02
342.128	44.03
342.34	52.22
342.552	48.13
342.764	68.61
342.977	103.42
343.189	25.6
343.401	91.13
343.613	41.98
343.826	5.12
344.038	50.18
344.25	125.95
344.462	-25.6
344.674	56.32
344.886	52.22
345.099	44.03
345.311	52.22
345.523	-5.12
345.735	58.37
345.947	44.03
346.159	97.28
346.371	125.95
346.583	109.57
346.795	68.61
347.007	91.13
347.219	78.85
347.431	82.94
347.643	179.2
347.855	33.79
348.067	128
348.279	56.32
348.491	50.18
348.703	54.27
348.915	48.13
349.127	-27.65
349.339	58.37
349.551	-7.17
349.763	78.85
349.975	3.07
350.187	50.18
350.399	95.23
350.61	87.04
350.822	60.42
351.034	48.13
351.246	58.37
351.458	56.32
351.669	66.56
351.881	130.05
352.093	144.38
352.305	64.51
352.517	95.23
352.728	97.28
352.94	66.56
353.152	142.33
353.363	-13.31
353.575	95.23
353.787	103.42
353.999	15.36
354.21	56.32
354.422	80.89
354.633	-1.02
354.845	48.13
355.057	91.13
355.268	54.27
355.48	48.13
355.692	78.85
355.903	89.09
356.115	50.18
356.326	29.7
356.538	84.99
356.749	31.74
356.961	78.85
357.172	130.05
357.384	50.18
357.595	97.28
357.807	93.18
358.018	5.12
358.23	60.42
358.441	91.13
358.653	66.56
358.864	97.28
359.075	54.27
359.287	13.31
359.498	46.08
359.709	-29.7
359.921	15.36
360.132	15.36
360.344	117.76
360.555	-44.03
360.766	19.46
360.977	119.81
361.189	80.89
361.4	17.41
361.611	78.85
361.823	89.09
362.034	44.03
362.245	-25.6
362.456	54.27
362.667	82.94
362.879	68.61
363.09	56.32
363.301	62.46
363.512	-27.65
363.723	29.7
363.935	-23.55
364.146	99.33
364.357	-48.13
364.568	76.8
364.779	58.37
364.99	111.61
365.201	-35.84
365.412	113.66
365.623	-23.55
365.834	66.56
366.045	17.41
366.256	119.81
366.467	87.04
366.678	58.37
366.889	23.55
367.1	80.89
367.311	68.61
367.522	3.07
367.733	33.79
367.944	97.28
368.155	41.98
368.366	82.94
368.577	62.46
368.788	113.66
368.999	62.46
369.209	70.65
369.42	91.13
369.631	101.37
369.842	27.65
370.053	123.9
370.264	-1.02
370.474	56.32
370.685	78.85
370.896	48.13
371.107	103.42
371.317	-21.5
371.528	13.31
371.739	146.43
371.95	115.71
372.16	5.12
372.371	48.13
372.582	109.57
372.792	76.8
373.003	84.99
373.214	115.71
373.424	101.37
373.635	74.75
373.846	33.79
374.056	121.85
374.267	70.65
374.477	78.85
374.688	23.55
374.898	60.42
375.109	113.66
375.319	130.05
375.53	80.89
375.74	74.75
375.951	103.42
376.161	84.99
376.372	70.65
376.582	17.41
376.793	72.7
377.003	70.65
377.214	76.8
377.424	84.99
377.635	7.17
377.845	97.28
378.055	72.7
378.266	1.02
378.476	27.65
378.686	93.18
378.897	44.03
379.107	74.75
379.317	9.22
379.528	-7.17
379.738	109.57
379.948	17.41
380.158	52.22
380.369	107.52
380.579	41.98
380.789	64.51
380.999	183.29
381.21	52.22
381.42	103.42
381.63	19.46
381.84	121.85
382.05	46.08
382.261	80.89
382.471	82.94
382.681	44.03
382.891	91.13
383.101	72.7
383.311	62.46
383.521	44.03
383.731	33.79
383.941	23.55
384.151	125.95
384.361	13.31
384.571	62.46
384.781	33.79
384.991	11.26
385.201	82.94
385.411	166.91
385.621	150.53
385.831	105.47
386.041	25.6
386.251	-17.41
386.461	78.85
386.671	41.98
386.881	93.18
387.091	76.8
387.301	76.8
387.511	64.51
387.72	29.7
387.93	66.56
388.14	105.47
388.35	136.19
388.56	128
388.769	107.52
388.979	48.13
389.189	62.46
389.399	84.99
389.609	72.7
389.818	123.9
390.028	123.9
390.238	93.18
390.447	64.51
390.657	140.29
390.867	99.33
391.076	7.17
391.286	68.61
391.496	87.04
391.705	37.89
391.915	82.94
392.125	107.52
392.334	68.61
392.544	103.42
392.753	64.51
392.963	3.07
393.172	136.19
393.382	64.51
393.591	115.71
393.801	87.04
394.01	152.57
394.22	125.95
394.429	177.15
394.639	138.24
394.848	107.52
395.058	95.23
395.267	148.48
395.477	158.72
395.686	97.28
395.895	111.61
396.105	154.62
396.314	78.85
396.524	103.42
396.733	101.37
396.942	68.61
397.152	164.86
397.361	144.38
397.57	119.81
397.78	89.09
397.989	78.85
398.198	175.1
398.407	113.66
398.617	191.49
398.826	156.67
399.035	46.08
399.244	128
399.453	140.29
399.663	107.52
399.872	128
400.081	35.84
400.29	166.91
400.499	181.25
400.708	187.39
400.917	107.52
401.127	183.29
401.336	140.29
401.545	254.97
401.754	109.57
401.963	218.11
402.172	238.59
402.381	121.85
402.59	144.38
402.799	168.96
403.008	156.67
403.217	175.1
403.426	105.47
403.635	138.24
403.844	203.77
404.053	214.01
404.262	166.91
404.471	214.01
404.68	211.96
404.888	191.49
405.097	226.3
405.306	271.36
405.515	183.29
405.724	218.11
405.933	183.29
406.142	279.55
406.35	209.92
406.559	234.49
406.768	218.11
406.977	265.21
407.185	228.35
407.394	332.79
407.603	216.06
407.812	224.25
408.02	328.7
408.229	279.55
408.438	332.79
408.646	271.36
408.855	314.36
409.064	336.89
409.272	349.18
409.481	308.22
409.69	424.95
409.898	398.33
410.107	424.95
410.315	402.43
410.524	394.23
410.733	506.87
410.941	379.9
411.15	478.2
411.358	488.44
411.567	531.45
411.775	560.12
411.984	500.73
412.192	553.98
412.401	580.6
412.609	605.17
412.818	674.81
413.026	603.13
413.234	666.61
413.443	754.68
413.651	695.29
413.86	633.85
414.068	748.53
414.276	836.6
414.485	828.4
414.693	807.92
414.901	844.79
415.11	908.27
415.318	967.67
415.526	898.03
415.734	1045.49
415.943	1025.01
416.151	1074.16
416.359	1065.97
416.567	1176.56
416.776	1235.95
416.984	1170.41
417.192	1371.12
417.4	1278.96
417.608	1317.87
417.817	1338.35
418.025	1502.19
418.233	1493.99
418.441	1496.04
418.649	1543.14
418.857	1749.99
419.065	1825.76
419.273	1690.6
419.481	1819.62
419.689	2012.13
419.897	2044.9
420.105	2100.19
420.313	2030.56
420.521	2130.91
420.729	2114.53
420.937	2155.49
421.145	2401.24
421.353	2401.24
421.561	2591.7
421.769	2700.25
421.977	2765.78
422.185	2747.35
422.393	2851.8
422.601	2968.53
422.809	3077.07
423.017	3120.08
423.224	3193.81
423.432	3322.83
423.64	3290.06
423.848	3666.89
424.056	3445.71
424.263	3859.4
424.471	3757
424.679	3820.49
424.887	4152.26
425.094	4240.32
425.302	4316.09
425.51	4283.33
425.718	4518.84
425.925	4326.33
426.133	4690.87
426.341	4936.63
426.548	5213.1
426.756	5182.38
426.964	5262.26
427.171	5618.6
427.379	5602.22
427.586	5905.32
427.794	6024.1
428.001	6280.1
428.209	6646.68
428.417	6124.45
428.624	6869.91
428.832	6972.31
429.039	6689.69
429.247	6900.63
429.454	7388.05
429.662	8061.83
429.869	7568.27
430.076	7975.81
430.284	7883.66
430.491	8102.79
430.699	8534.91
430.906	8362.88
431.114	8723.32
431.321	9042.81
431.528	9249.65
431.736	9780.07
431.943	10265.44
432.15	10023.78
432.358	10273.64
432.565	10658.65
432.772	10578.78
432.979	10896.22
433.187	11424.59
433.394	11326.29
433.601	12034.89
433.808	12182.34
434.016	11883.34
434.223	12743.49
434.43	13024.06
434.637	12780.35
434.844	13810.48
435.052	14148.39
435.259	14162.73
435.466	14297.89
435.673	13855.53
435.88	14918.43
436.087	15786.77
436.294	16034.57
436.501	15409.94
436.708	15659.79
436.915	16325.38
437.122	17003.26
437.329	16919.29
437.537	17158.91
437.743	17742.58
437.95	17564.4
438.157	18608.87
438.364	19194.59
438.571	19237.59
438.778	19266.27
438.985	21209.79
439.192	19970.77
439.399	20808.39
439.606	20583.11
439.813	21322.43
440.02	22577.83
440.227	22409.9
440.433	22207.15
440.64	23204.51
440.847	22411.95
441.054	23288.48
441.261	24820.36
441.467	24011.41
441.674	25266.81
441.881	25641.59
442.088	25946.74
442.294	25840.25
442.501	26524.27
442.708	26788.46
442.914	27755.1
443.121	29028.93
443.328	28158.55
443.534	30110.26
443.741	29180.48
443.948	28906.05
444.154	30921.26
444.361	30829.1
444.568	30800.43
444.774	31244.84
444.981	31396.38
445.187	32492.05
445.394	33829.37
445.6	33438.21
445.807	36481.49
446.013	34845.16
446.22	35576.29
446.426	36925.9
446.633	37114.31
446.839	38332.86
447.046	37216.71
447.252	38863.28
447.459	38894
447.665	38834.61
447.871	40472.98
448.078	41718.15
448.284	40212.89
448.491	41363.85
448.697	42613.11
448.903	43798.88
449.11	43663.72
449.316	43258.22
449.522	43823.46
449.728	45095.25
449.935	45216.08
450.141	44990.8
450.347	46307.65
450.553	44751.19
450.76	45332.81
450.966	46856.5
451.172	46623.03
451.378	47511.85
451.584	46676.28
451.791	47667.5
451.997	47927.59
452.203	48781.59
452.409	48392.48
452.615	47878.44
452.821	46336.32
453.027	46131.52
453.233	48179.49
453.44	46485.82
453.646	47180.08
453.852	47378.73
454.058	48269.6
454.264	46254.4
454.47	47370.54
454.676	46332.22
454.882	48017.7
455.088	44015.97
455.294	44708.18
455.5	45201.74
455.705	45586.76
455.911	43854.18
456.117	43075.95
456.323	42680.69
456.529	40452.5
456.735	42054.01
456.941	41030.03
457.147	40192.41
457.352	39178.67
457.558	38760.88
457.764	38658.48
457.97	37814.72
458.176	37351.88
458.381	37005.77
458.587	35449.32
458.793	35547.62
458.999	33724.93
459.204	36037.08
459.41	34957.8
459.616	32711.18
459.821	33028.62
460.027	32197.14
460.233	31789.59
460.438	30503.47
460.644	30599.73
460.85	29209.15
461.055	28901.96
461.261	29043.27
461.466	26530.41
461.672	25893.49
461.878	27816.54
462.083	25924.21
462.289	25410.17
462.494	25080.45
462.7	24146.58
462.905	23628.44
463.111	23880.34
463.316	24224.4
463.522	23730.84
463.727	23835.28
463.932	23458.46
464.138	23622.3
464.343	23673.49
464.549	22993.57
464.754	23696.02
464.959	23583.38
465.165	23288.48
465.37	22655.65
465.575	21377.72
465.781	22635.17
465.986	22391.47
466.191	21928.63
466.397	21361.34
466.602	20357.83
466.807	21058.24
467.012	21123.77
467.218	21039.81
467.423	21048
467.628	20882.11
467.833	21863.09
468.038	20880.07
468.244	20376.27
468.449	21093.05
468.654	20347.59
468.859	20419.27
469.064	20245.2
469.269	19591.89
469.474	19739.35
469.679	19819.22
469.885	19428.06
470.09	19782.35
470.295	19489.49
470.5	18952.93
470.705	19348.18
470.91	18844.38
471.115	18776.8
471.32	18959.07
471.525	18799.33
471.73	18449.13
471.935	18258.67
472.139	17609.46
472.344	17855.22
472.549	17509.11
472.754	17693.43
472.959	16876.29
473.164	16630.53
473.369	16444.17
473.574	17242.87
473.778	17193.72
473.983	16929.53
474.188	16653.06
474.393	16165.64
474.598	15966.99
474.802	16046.86
475.007	16034.57
475.212	15928.08
475.417	15291.16
475.621	15246.1
475.826	15405.84
476.031	15254.3
476.235	14795.55
476.44	15057.69
476.645	14699.3
476.849	14762.78
477.054	14410.53
477.259	14349.09
477.463	14328.61
477.668	14089
477.872	14244.65
478.077	13826.86
478.282	13644.59
478.486	13466.42
478.691	13499.19
478.895	13284.15
479.1	13314.87
479.304	13423.41
479.509	12602.18
479.713	13296.44
479.918	12827.45
480.122	12735.29
480.326	12892.99
480.531	12669.76
480.735	12856.12
480.94	12589.89
481.144	13034.3
481.348	12454.72
481.553	12632.9
481.757	12305.22
481.961	12548.93
482.166	12649.28
482.37	12344.13
482.574	12041.03
482.778	12184.39
482.983	12397.38
483.187	12213.06
483.391	12516.16
483.595	12071.75
483.8	11998.02
484.004	12317.51
484.208	12221.25
484.412	12454.72
484.616	12313.41
484.821	12376.9
485.025	12086.09
485.229	12344.13
485.433	12174.15
485.637	12405.57
485.841	12243.78
486.045	12237.64
486.249	12323.65
486.453	12088.14
486.657	12333.89
486.861	12313.41
487.065	12219.21
487.269	12186.44
487.473	12153.67
487.677	12319.56
487.881	12421.95
488.085	12118.86
488.289	12383.04
488.493	12172.1
488.697	12374.85
488.901	12233.54
489.105	12194.63
489.309	12321.6
489.512	12491.59
489.716	12454.72
489.92	12366.66
490.124	12368.71
490.328	12649.28
490.531	12329.8
490.735	12645.18
490.939	12700.48
491.143	12720.96
491.346	12786.49
491.55	12921.66
491.754	12802.88
491.958	12737.34
492.161	12927.8
492.365	13329.2
492.569	13022.01
492.772	12706.62
492.976	13095.74
493.18	13118.26
493.383	13327.16
493.587	13325.11
493.79	13734.7
493.994	13120.31
494.197	13538.1
494.401	13667.12
494.605	13665.07
494.808	13853.48
495.012	13835.05
495.215	13787.95
495.419	14054.19
495.622	14185.26
495.825	14179.11
496.029	14408.48
496.232	14566.18
496.436	14605.09
496.639	14922.52
496.843	15088.41
497.046	15151.9
497.249	15325.97
497.453	15422.23
497.656	15469.33
497.859	15526.68
498.063	15670.03
498.266	16030.48
498.469	15973.13
498.673	16229.13
498.876	16368.39
499.079	16495.36
499.282	16683.78
499.485	17210.11
499.689	17013.5
499.892	17179.39
500.095	17167.1
500.298	17822.45
500.501	17605.36
500.705	17941.23
500.908	18299.62
501.111	18506.47
501.314	18664.16
501.517	18981.6
501.72	19038.94
501.923	19047.13
502.126	19712.72
502.329	19894.99
502.532	19946.19
502.735	19970.77
502.938	20476.62
503.141	20415.18
503.344	20832.96
503.547	20951.74
503.75	21433.02
503.953	21783.22
504.156	21623.48
504.359	22229.68
504.562	22090.41
504.765	22090.41
504.968	22876.83
505.17	22762.15
505.373	23005.86
505.576	23497.37
505.779	23571.1
505.982	23974.55
506.185	24154.77
506.387	24453.77
506.59	24449.67
506.793	25508.47
506.996	24951.43
507.198	25627.26
507.401	25592.44
507.604	25850.49
507.807	26350.19
508.009	26681.96
508.212	26704.49
508.415	27292.26
508.617	27515.48
508.82	27660.89
509.022	27746.9
509.225	28455.5
509.428	28273.23
509.63	28441.17
509.833	28801.61
510.035	29768.25
510.238	29362.75
510.44	29682.24
510.643	30126.64
510.845	30358.06
511.048	30415.41
511.25	31205.92
511.453	31277.6
511.655	32184.85
511.858	31580.7
512.06	31986.2
512.262	32760.33
512.465	32420.37
512.667	33016.33
512.87	33196.55
513.072	33755.64
513.274	34081.27
513.477	34662.9
513.679	34623.98
513.881	34935.27
514.084	35555.81
514.286	35527.14
514.488	35617.25
514.69	36313.56
514.893	36866.51
515.095	36864.46
515.297	37661.12
515.499	37677.51
515.701	37616.07
515.904	38228.41
516.106	39068.08
516.308	38883.76
516.51	39365.03
516.712	39408.04
516.914	39508.39
517.116	40530.33
517.318	40640.92
517.52	40821.14
517.722	41142.67
517.925	41472.39
518.127	41894.27
518.329	42475.9
518.531	42250.62
518.733	42779
518.935	43200.88
519.136	43409.77
519.338	43952.48
519.54	43911.52
519.742	44542.3
519.944	44683.61
520.146	45341
520.348	45451.59
520.55	45836.61
520.752	45787.46
520.954	46760.25
521.155	46367.04
521.357	47169.84
521.559	47132.98
521.761	48402.72
521.963	48066.85
522.164	47626.54
522.366	48867.61
522.568	48505.12
522.77	48845.08
522.971	49711.37
523.173	49457.42
523.375	49688.84
523.576	49664.27
523.778	49651.98
523.98	50530.56
524.181	50661.63
524.383	50628.86
524.584	51003.64
524.786	51147
524.988	51230.96
525.189	51564.78
525.391	52117.73
525.592	52060.39
525.794	52379.87
525.995	52531.42
526.197	52506.85
526.398	52474.08
526.6	52881.63
526.801	53168.34
527.003	53154
527.204	53252.31
527.406	53567.69
527.607	53528.78
527.808	53895.37
528.01	53364.95
528.211	53786.83
528.412	54360.26
528.614	54403.27
528.815	54278.34
529.016	54589.63
529.218	54098.12
529.419	54784.19
529.62	54261.96
529.822	54841.53
530.023	54974.65
530.224	54702.27
530.425	54610.11
530.626	54780.09
530.828	54855.87
531.029	55374
531.23	55050.42
531.431	54325.44
531.632	54976.7
531.833	54862.01
532.035	55027.9
532.236	55296.18
532.437	55451.83
532.638	54732.99
532.839	55173.3
533.04	55621.81
533.241	54694.08
533.442	55822.51
533.643	55070.9
533.844	55287.99
534.045	55349.43
534.246	54554.82
534.447	55335.09
534.648	54982.84
534.849	55099.58
535.05	54517.95
535.251	55398.58
535.451	55263.41
535.652	55584.94
535.853	54933.69
536.054	55103.67
536.255	55285.94
536.456	54706.37
536.657	55204.02
536.857	54833.34
537.058	54368.45
537.259	54687.93
537.46	54722.75
537.66	54331.59
537.861	54712.51
538.062	54526.14
538.263	54653.12
538.463	54182.09
538.664	54304.96
538.865	54649.02
539.065	55079.1
539.266	53772.49
539.466	55081.14
539.667	53868.75
539.868	54780.09
540.068	54276.29
540.269	54184.13
540.469	54108.36
540.67	53944.52
540.87	54315.2
541.071	54020.3
541.271	54352.07
541.472	53608.65
541.672	53661.9
541.873	53840.07
542.073	53194.96
542.274	54186.18
542.474	53596.37
542.675	53362.9
542.875	54008.01
543.075	53629.13
543.276	53074.13
543.476	53936.33
543.676	53184.72
543.877	53881.03
544.077	53582.03
544.277	53410
544.478	53127.38
544.678	53356.75
544.878	53555.41
545.078	53674.19
545.279	52846.81
545.479	52871.39
545.679	52969.69
545.879	52902.1
546.079	53414.1
546.28	53287.12
546.48	52846.81
546.68	53754.06
546.88	53242.07
547.08	53289.17
547.28	52625.63
547.48	53047.51
547.68	52924.63
547.88	52959.45
548.081	52920.54
548.281	52865.24
548.481	52697.31
548.681	53170.39
548.881	52979.93
549.081	52912.34
549.28	52400.35
549.48	53180.63
549.68	52715.74
549.88	53242.07
550.08	52617.44
550.28	53131.48
550.48	52865.24
550.68	53301.46
550.88	52443.36
551.08	52754.65
551.279	52811.99
551.479	52334.82
551.679	52482.27
551.879	52488.42
552.079	52838.62
552.278	52396.26
552.478	52809.95
552.678	52359.39
552.878	53035.22
553.077	52445.41
553.277	52082.92
553.477	53010.65
553.676	52588.77
553.876	52607.2
554.076	52084.97
554.275	52154.6
554.475	52252.9
554.674	52861.15
554.874	52562.14
555.074	51835.11
555.273	52158.69
555.473	52406.5
555.672	51941.61
555.872	52213.99
556.071	52437.22
556.271	52177.12
556.47	52152.55
556.67	52009.19
556.869	52220.13
557.068	52078.82
557.268	51652.84
557.467	51968.23
557.667	51673.32
557.866	51749.1
558.065	51605.74
558.265	51732.71
558.464	51151.09
558.663	52017.38
558.863	51235.06
559.062	52099.3
559.261	51206.39
559.461	51706.09
559.66	50868.47
559.859	51237.11
560.058	51056.88
560.258	51273.97
560.457	50643.2
560.656	51198.19
560.855	50833.66
561.054	51333.36
561.253	50315.52
561.453	50835.7
561.652	51192.05
561.851	50774.27
562.05	50460.93
562.249	50495.74
562.448	51044.6
562.647	50630.91
562.846	50725.11
563.045	50397.44
563.244	50147.59
563.443	50694.39
563.642	49762.57
563.841	50041.09
564.04	49996.04
564.239	50237.7
564.438	49758.47
564.637	49715.47
564.836	50039.04
565.035	49281.3
565.234	49430.8
565.432	49363.21
565.631	49053.97
565.83	49510.67
566.029	49367.31
566.228	49146.13
566.427	48892.18
566.625	48613.66
566.824	48732.44
567.023	49291.54
567.222	48070.95
567.42	49291.54
567.619	48572.7
567.818	48197.92
568.016	48093.47
568.215	48871.7
568.414	48202.02
568.612	48859.41
568.811	48197.92
569.01	47618.35
569.208	47610.15
569.407	47872.29
569.605	47360.3
569.804	47264.05
570.002	47173.94
570.201	47753.51
570.4	46891.32
570.598	46936.37
570.797	46840.12
570.995	46809.4
571.193	46328.13
571.392	46799.16
571.59	46293.31
571.789	46627.13
571.987	46336.32
572.186	46055.75
572.384	46053.7
572.582	46176.58
572.781	45877.57
572.979	45517.13
573.177	45670.73
573.376	45975.87
573.574	44925.27
573.772	45678.92
573.971	45175.12
574.169	45242.7
574.367	44595.54
574.565	45326.67
574.763	44753.24
574.962	44722.52
575.16	44329.31
575.358	44511.58
575.556	44061.02
575.754	44464.47
575.952	43708.77
576.151	44357.98
576.349	43727.2
576.547	43428.2
576.745	43389.29
576.943	43868.51
577.141	43606.37
577.339	43616.61
577.537	43082.09
577.735	43159.92
577.933	42725.75
578.131	42951.02
578.329	43204.97
578.527	42766.71
578.725	42824.05
578.923	42647.93
579.121	41826.69
579.319	42332.54
579.516	42543.48
579.714	42248.57
579.912	41748.87
580.11	41886.08
580.308	41793.92
580.506	41638.28
580.704	41257.35
580.901	41449.86
581.099	41851.27
581.297	41089.42
581.495	41283.98
581.692	40956.3
581.89	40288.67
582.088	41003.41
582.285	40370.58
582.483	40702.35
582.681	40763.79
582.878	40315.29
583.076	40356.25
583.274	40030.62
583.471	39661.99
583.669	40022.43
583.866	39684.51
584.064	40366.49
584.262	39250.35
584.459	39733.67
584.657	39514.53
584.854	39145.9
585.052	38420.92
585.249	39188.91
585.447	39291.3
585.644	38889.9
585.841	39250.35
586.039	39016.88
586.236	38375.86
586.434	38384.05
586.631	38336.95
586.828	38375.86
587.026	38404.53
587.223	38214.07
587.42	38371.77
587.618	38291.9
587.815	37855.68
588.012	37579.2
588.21	37548.48
588.407	38214.07
588.604	37548.48
588.801	37575.11
588.999	37222.86
589.196	37329.35
589.393	37138.89
589.59	37011.92
589.787	36846.03
589.984	36622.8
590.182	36471.25
590.379	36717.01
590.576	36194.78
590.773	36432.34
590.97	36221.4
591.167	36243.93
591.364	35924.44
591.561	36133.34
591.758	35701.22
591.955	35621.34
592.152	36020.7
592.349	35361.25
592.546	35615.2
592.743	35621.34
592.94	35406.31
593.137	35232.23
593.334	35615.2
593.531	35058.15
593.727	35156.46
593.924	35199.46
594.121	34535.92
594.318	35203.56
594.515	34583.02
594.712	34497.01
594.908	34605.55
595.105	34206.2
595.302	34161.14
595.499	34347.51
595.696	34091.51
595.892	33667.58
596.089	34343.41
596.286	34353.65
596.482	33739.26
596.679	33767.93
596.876	33759.74
597.072	33346.05
597.269	33399.3
597.466	33126.92
597.662	33595.9
597.859	33333.76
598.055	33548.8
598.252	33057.29
598.448	32963.08
598.645	33219.08
598.841	32475.66
599.038	32729.61
599.234	32764.43
599.431	32616.97
599.627	32322.07
599.824	32676.37
600.02	32387.6
600.217	32440.85
600.413	32299.54
600.609	32252.44
600.806	31371.81
601.002	31939.1
601.198	31785.5
601.395	31732.25
601.591	31734.3
601.787	31748.64
601.984	31349.28
602.18	31805.98
602.376	31601.18
602.572	31394.34
602.769	31322.66
602.965	30880.3
603.161	31162.92
603.357	30884.39
603.553	30685.74
603.75	30921.26
603.946	30945.83
604.142	30906.92
604.338	30106.16
604.534	30646.83
604.73	30353.97
604.926	30118.45
605.122	30620.2
605.318	30046.77
605.514	30081.59
605.71	29825.59
605.906	29805.11
606.102	29932.09
606.298	29991.48
606.494	29661.76
606.69	29952.57
606.886	29481.53
607.082	29446.72
607.278	29688.38
607.474	29239.87
607.67	29555.26
607.866	29143.62
608.062	29438.53
608.257	29207.11
608.453	29147.72
608.649	29256.26
608.845	29014.6
609.041	29071.94
609.236	28740.17
609.432	28887.62
609.628	29153.86
609.824	28664.39
610.019	28668.49
610.215	28750.41
610.411	28523.08
610.606	28566.09
610.802	28652.11
610.998	28279.38
611.193	28478.03
611.389	28326.48
611.584	28193.36
611.78	28138.07
611.976	28043.86
612.171	28191.31
612.367	28205.65
612.562	27783.77
612.758	27501.15
612.953	27472.48
613.149	28037.72
613.344	27585.12
613.539	27986.52
613.735	27239.01
613.93	27865.69
614.126	27452
614.321	27785.82
614.517	27468.38
614.712	27439.71
614.907	27247.2
615.103	27552.35
615.298	27028.07
615.493	27824.73
615.688	27046.5
615.884	27208.29
616.079	26989.16
616.274	27361.89
616.47	26798.7
616.665	27085.41
616.86	27048.55
617.055	26806.89
617.25	26722.92
617.445	26671.72
617.641	25948.79
617.836	26667.63
618.031	26165.87
618.226	26624.62
618.421	26141.3
618.616	26489.45
618.811	26184.3
619.006	26600.04
619.201	25610.87
619.396	25997.94
619.591	25504.38
619.786	25993.84
619.981	25483.9
620.176	25944.69
620.371	25293.44
620.566	25332.35
620.761	25203.33
620.956	25563.77
621.151	24709.77
621.346	25072.26
621.541	24558.22
621.735	24705.67
621.93	24179.34
622.125	24451.72
622.32	24205.97
622.515	24074.9
622.709	24064.66
622.904	23962.26
623.099	23653.02
623.294	23671.45
623.488	23704.21
623.683	23743.13
623.878	23155.36
624.072	23347.87
624.267	23036.58
624.462	22940.32
624.656	22518.44
624.851	23012
625.046	22809.25
625.24	22690.47
625.435	22143.66
625.629	22565.54
625.824	22246.06
626.018	22289.07
626.213	21516.98
626.407	21785.27
626.602	21574.33
626.796	21668.53
626.991	21486.26
627.185	21283.52
627.38	21328.57
627.574	21021.38
627.768	20988.61
627.963	20810.43
628.157	20617.93
628.352	21023.42
628.546	20476.62
628.74	20716.23
628.935	20355.79
629.129	20091.6
629.323	19925.71
629.517	20112.08
629.712	19983.06
629.906	19935.95
630.1	19397.34
630.294	19806.93
630.489	19581.65
630.683	19925.71
630.877	19444.44
631.071	19120.86
631.265	19411.67
631.459	18973.41
631.653	19114.72
631.848	18815.71
632.042	18549.48
632.236	18688.74
632.43	18707.17
632.624	18633.44
632.818	18463.46
633.012	18053.87
633.206	18359.02
633.4	18270.95
633.594	17959.66
633.788	17877.74
633.982	18053.87
634.176	17906.41
634.369	17711.86
634.563	17521.4
634.757	17554.16
634.951	17500.92
635.145	17388.28
635.339	17439.48
635.533	16855.81
635.726	17132.28
635.92	16798.46
636.114	16769.79
636.308	16818.94
636.501	16968.45
636.695	16796.42
636.889	16540.42
637.083	16274.18
637.276	16341.77
637.47	16448.26
637.664	16225.03
637.857	16014.09
638.051	15954.7
638.244	15866.64
638.438	15913.74
638.632	15735.57
638.825	15684.37
639.019	15426.32
639.212	15307.54
639.406	15147.8
639.599	15346.45
639.793	15291.16
639.986	14947.1
640.18	15199
640.373	14773.02
640.567	14863.13
640.76	14441.25
640.954	14639.9
641.147	14510.88
641.34	14652.19
641.534	14048.04
641.727	14443.3
641.92	14209.83
642.114	14089
642.307	14201.64
642.5	13945.64
642.694	13626.16
642.887	13830.96
643.08	13833
643.273	13656.88
643.467	13749.04
643.66	13374.26
643.853	13402.93
644.046	13230.9
644.239	13419.32
644.432	13097.78
644.626	12999.48
644.819	13153.08
645.012	13015.87
645.205	12739.39
645.398	12733.25
645.591	12780.35
645.784	12538.69
645.977	12581.7
646.17	12446.53
646.363	12395.33
646.556	12415.81
646.749	12245.83
646.942	12317.51
647.135	11979.59
647.328	12090.18
647.521	11897.67
647.714	11987.79
647.907	11807.56
648.099	11666.25
648.292	11883.34
648.485	11727.69
648.678	11500.37
648.871	11496.27
649.064	11350.87
649.256	11500.37
649.449	11287.38
649.642	11338.58
649.835	11139.93
650.027	11103.06
650.22	11287.38
650.413	11090.77
650.605	10892.12
650.798	11025.24
650.991	10707.8
651.183	10859.35
651.376	10576.73
651.568	10591.07
651.761	10410.85
651.954	10543.97
652.146	10457.95
652.339	10402.66
652.531	10306.4
652.724	10269.54
652.916	10165.09
653.109	10212.2
653.301	10253.16
653.494	10128.23
653.686	9765.74
653.879	10027.88
654.071	9945.96
654.263	9890.67
654.456	9829.23
654.648	9837.42
654.84	9595.76
655.033	9601.9
655.225	9560.94
655.417	9642.86
655.61	9591.66
655.802	9405.3
655.994	9462.64
656.186	9335.67
656.379	9352.05
656.571	9237.36
656.763	9124.72
656.955	9130.87
657.148	9020.28
657.34	9128.82
657.532	8926.07
657.724	8786.81
657.916	8745.85
658.108	8911.74
658.3	8940.41
658.492	8670.08
658.684	8811.39
658.876	8598.4
659.068	8659.84
659.26	8541.05
659.452	8584.06
659.644	8498.05
659.836	8362.88
660.028	8457.09
660.22	8092.55
660.412	8190.85
660.604	8246.15
660.796	8364.93
660.988	8072.07
661.18	7990.15
661.372	7941
661.563	8022.92
661.755	8022.92
661.947	7861.13
662.139	7967.62
662.331	7893.9
662.522	7629.71
662.714	7660.43
662.906	7564.17
663.097	7525.26
663.289	7625.61
663.481	7449.49
663.673	7517.07
663.864	7320.46
664.056	7461.77
664.247	7334.8
664.439	7238.55
664.631	7336.85
664.822	7318.42
665.014	7291.79
665.205	7252.88
665.397	7015.32
665.588	7046.04
665.78	6990.74
665.971	6892.44
666.163	7142.29
666.354	7015.32
666.546	7005.08
666.737	6935.45
666.929	6785.94
667.12	6839.19
667.311	6781.85
667.503	6675.35
667.694	6613.92
667.885	6634.39
668.077	6667.16
668.268	6505.37
668.459	6546.33
668.651	6515.61
668.842	6536.09
669.033	6306.72
669.224	6421.41
669.416	6437.79
669.607	6493.08
669.798	6378.4
669.989	6529.95
670.18	6384.54
670.371	6189.99
670.563	6427.55
670.754	6085.54
670.945	6069.16
671.136	6394.78
671.327	6146.98
671.518	6124.45
671.709	6038.44
671.9	6153.12
672.091	6067.11
672.282	6097.83
672.473	6032.29
672.664	6089.64
672.855	5964.71
673.046	5985.19
673.237	5952.42
673.428	5897.13
673.619	5813.16
673.809	5860.26
674	5739.43
674.191	5776.3
674.382	5698.47
674.573	5665.71
674.764	5813.16
674.954	5677.99
675.145	5677.99
675.336	5616.55
675.527	5673.9
675.717	5688.23
675.908	5544.88
676.099	5524.4
676.289	5575.59
676.48	5573.55
676.671	5483.44
676.861	5645.23
677.052	5436.33
677.243	5467.05
677.433	5503.92
677.624	5473.2
677.814	5376.94
678.005	5432.24
678.195	5551.02
678.386	5260.21
678.576	5065.65
678.767	5323.69
678.957	5301.17
679.148	5467.05
679.338	5327.79
679.529	5510.06
679.719	5280.69
679.909	5258.16
680.1	5288.88
680.29	5307.31
680.481	5143.47
680.671	5131.19
680.861	5157.81
681.052	5145.52
681.242	5092.27
681.432	5153.71
681.622	5053.36
681.813	5141.43
682.003	5098.42
682.193	4918.2
682.383	5188.53
682.573	5016.5
682.764	5141.43
682.954	5108.66
683.144	4914.1
683.334	5135.28
683.524	5006.26
683.714	4989.88
683.904	5008.31
684.094	4881.33
684.284	5010.36
684.474	4996.02
684.664	5012.4
684.854	4983.73
685.044	4823.99
685.234	4912.05
685.424	4883.38
685.614	4930.48
685.804	4955.06
685.994	4811.7
686.184	4887.48
686.374	4883.38
686.564	4838.33
686.753	4826.04
686.943	4789.17
687.133	4795.32
687.323	4729.78
687.513	4713.4
687.702	4645.82
687.892	4651.96
688.082	4613.05
688.272	4780.98
688.461	4559.8
688.651	4625.34
688.841	4778.94
689.03	4586.43
689.22	4572.09
689.41	4598.71
689.599	4504.51
689.789	4615.1
689.979	4682.68
690.168	4615.1
690.358	4451.26
690.547	4533.18
690.737	4402.11
690.926	4518.84
691.116	4436.92
691.305	4371.39
691.495	4545.47
691.684	4563.9
691.874	4488.12
692.063	4570.04
692.252	4377.53
692.442	4383.68
692.631	4367.29
692.82	4361.15
693.01	4297.66
693.199	4371.39
693.388	4297.66
693.578	4312
693.767	4271.04
693.956	4203.46
694.146	4240.32
694.335	4213.7
694.524	4271.04
694.713	4283.33
694.902	4420.54
695.092	4303.81
695.281	4301.76
695.47	4047.81
695.659	4111.3
695.848	4211.65
696.037	4357.05
696.226	4191.17
696.415	4240.32
696.604	4178.88
696.793	4326.33
696.982	4090.82
697.171	4109.25
697.36	4127.68
697.549	4123.59
697.738	4193.22
697.927	4082.63
698.116	4049.86
698.305	4185.02
698.494	4142.02
698.683	3972.04
698.872	4017.09
699.061	4004.8
699.25	4088.77
699.438	4035.52
699.627	4148.16
699.816	4025.28
700.005	4064.19
700.193	3994.56
700.382	4019.14
700.571	4080.58
700.76	3945.41
700.948	3996.61
701.137	3961.8
701.326	3879.88
701.514	3992.52
701.703	3926.98
701.892	3890.12
702.08	3941.32
702.269	3793.86
702.457	3898.31
702.646	3888.07
702.834	3873.73
703.023	3699.66
703.212	3857.35
703.4	3769.29
703.589	3865.54
703.777	3828.68
703.965	3759.05
704.154	3638.22
704.342	3724.23
704.531	3820.49
704.719	3711.94
704.907	3707.85
705.096	3806.15
705.284	3804.1
705.472	3789.77
705.661	3646.41
705.849	3640.26
706.037	3695.56
706.226	3611.59
706.414	3701.7
706.602	3630.02
706.79	3619.78
706.979	3601.35
707.167	3687.37
707.355	3472.33
707.543	3531.72
707.731	3625.93
707.919	3574.73
708.107	3537.87
708.296	3556.3
708.484	3525.58
708.672	3535.82
708.86	3474.38
709.048	3429.32
709.236	3472.33
709.424	3361.74
709.612	3591.11
709.8	3515.34
709.988	3343.31
710.176	3382.22
710.364	3466.19
710.551	3462.09
710.739	3486.67
710.927	3345.36
711.115	3320.78
711.303	3279.82
711.491	3392.46
711.679	3386.32
711.866	3437.52
712.054	3202
712.242	3318.73
712.43	3290.06
712.617	3199.95
712.805	3140.56
712.993	3245.01
713.181	3138.51
713.368	3111.89
713.556	3163.09
713.744	3062.74
713.931	3156.94
714.119	3062.74
714.306	3222.48
714.494	3044.31
714.682	3232.72
714.869	3165.14
715.057	3220.43
715.244	3122.13
715.432	3058.64
715.619	3001.3
715.807	3103.7
715.994	2993.11
716.182	3029.97
716.369	2954.19
716.556	2974.67
716.744	3009.49
716.931	2884.56
717.119	2956.24
717.306	2837.46
717.493	2835.41
717.681	2952.15
717.868	2880.47
718.055	2950.1
718.242	2837.46
718.43	2862.04
718.617	2808.79
718.804	2825.17
718.991	2810.84
719.179	2874.32
719.366	2859.99
719.553	2857.94
719.74	2802.65
719.927	2855.89
720.114	2806.74
720.301	2814.93
720.488	2808.79
720.676	2716.63
720.863	2757.59
721.05	2714.58
721.237	2747.35
721.424	2685.91
721.611	2749.4
721.798	2720.73
721.985	2630.62
722.172	2632.66
722.358	2653.14
722.545	2610.14
722.732	2585.56
722.919	2679.77
723.106	2628.57
723.293	2700.25
723.48	2683.86
723.667	2651.1
723.853	2563.03
724.04	2661.34
724.227	2638.81
724.414	2485.21
724.6	2571.22
724.787	2575.32
724.974	2556.89
725.161	2563.03
725.347	2538.46
725.534	2497.5
725.72	2614.23
725.907	2511.83
726.094	2522.07
726.28	2382.81
726.467	2341.85
726.653	2436.06
726.84	2493.4
727.027	2438.11
727.213	2530.27
727.4	2462.68
727.586	2397.15
727.773	2276.32
727.959	2415.58
728.145	2415.58
728.332	2431.96
728.518	2335.71
728.705	2364.38
728.891	2423.77
729.077	2302.94
729.264	2384.86
729.45	2391
729.636	2315.23
729.823	2397.15
730.009	2274.27
730.195	2298.84
730.382	2124.77
730.568	2307.04
730.754	2286.56
730.94	2317.28
731.126	2311.13
731.313	2223.07
731.499	2145.25
731.685	2241.5
731.871	2259.93
732.057	2247.65
732.243	2122.72
732.429	2212.83
732.615	2130.91
732.801	2190.3
732.987	2288.61
733.173	2159.58
733.359	2126.82
733.545	2106.34
733.731	2085.86
733.917	2085.86
734.103	2223.07
734.289	2298.84
734.475	2083.81
734.661	2155.49
734.847	2102.24
735.033	2118.62
735.219	2137.06
735.404	2012.13
735.59	2124.77
735.776	1997.79
735.962	2032.61
736.148	2055.14
736.333	2028.51
736.519	2030.56
736.705	1991.65
736.89	1989.6
737.076	1893.35
737.262	1926.11
737.447	1909.73
737.633	1979.36
737.819	1981.41
738.004	2012.13
738.19	1897.44
738.375	2005.99
738.561	1987.55
738.747	1852.39
738.932	2026.47
739.118	1952.74
739.303	1936.35
739.489	1827.81
739.674	1815.52
739.859	1829.86
740.045	1827.81
740.23	1852.39
740.416	1907.68
740.601	1932.26
740.786	1860.58
740.972	1870.82
741.157	1731.56
741.342	1856.48
741.528	1778.66
741.713	1850.34
741.898	1788.9
742.084	1840.1
742.269	1784.8
742.454	1758.18
742.639	1844.2
742.824	1795.04
743.01	1782.76
743.195	1799.14
743.38	1768.42
743.565	1661.93
743.75	1694.69
743.935	1721.32
744.12	1733.61
744.305	1649.64
744.49	1604.58
744.675	1674.21
744.86	1672.17
745.045	1598.44
745.23	1553.38
745.415	1704.93
745.6	1661.93
745.785	1604.58
745.97	1627.11
746.155	1586.15
746.34	1563.62
746.525	1606.63
746.71	1725.41
746.895	1469.42
747.079	1553.38
747.264	1405.93
747.449	1545.19
747.634	1553.38
747.819	1508.33
748.003	1532.9
748.188	1477.61
748.373	1426.41
748.557	1532.9
748.742	1477.61
748.927	1420.27
749.111	1461.23
749.296	1485.8
749.481	1371.12
749.665	1362.92
749.85	1457.13
750.034	1407.98
750.219	1430.51
750.404	1301.48
750.588	1426.41
750.773	1334.25
750.957	1379.31
751.141	1375.21
751.326	1401.83
751.51	1293.29
751.695	1397.74
751.879	1373.16
752.064	1287.15
752.248	1281
752.432	1326.06
752.617	1270.76
752.801	1258.48
752.985	1235.95
753.17	1190.89
753.354	1233.9
753.538	1250.28
753.722	1145.84
753.907	1160.17
754.091	1219.57
754.275	1068.02
754.459	1199.09
754.643	1184.75
754.828	1194.99
755.012	1188.85
755.196	1139.69
755.38	1106.93
755.564	1113.07
755.748	1072.11
755.932	1123.31
756.116	1041.39
756.3	1010.67
756.484	1070.06
756.668	1045.49
756.852	1053.68
757.036	969.71
757.22	1092.59
757.404	1090.54
757.588	1047.54
757.772	1041.39
757.956	1037.3
758.14	992.24
758.323	1035.25
758.507	916.47
758.691	979.95
758.875	1043.44
759.059	1037.3
759.242	1016.82
759.426	1004.53
759.61	928.75
759.794	1004.53
759.977	941.04
760.161	879.6
760.345	1043.44
760.528	943.09
760.712	818.16
760.895	863.22
761.079	988.14
761.263	994.29
761.446	943.09
761.63	916.47
761.813	908.27
761.997	834.55
762.18	973.81
762.364	920.56
762.547	889.84
762.731	908.27
762.914	951.28
763.098	898.03
763.281	928.75
763.464	857.07
763.648	867.31
763.831	908.27
764.015	838.64
764.198	863.22
764.381	855.03
764.564	838.64
764.748	852.98
764.931	900.08
765.114	834.55
765.297	787.44
765.481	812.02
765.664	803.83
765.847	744.44
766.03	814.07
766.213	830.45
766.397	822.26
766.58	760.82
766.763	832.5
766.946	758.77
767.129	787.44
767.312	781.3
767.495	707.57
767.678	742.39
767.861	789.49
768.044	814.07
768.227	756.72
768.41	766.96
768.593	807.92
768.776	699.38
768.959	801.78
769.142	785.4
769.324	771.06
769.507	769.01
769.69	752.63
769.873	744.44
770.056	814.07
770.239	799.73
770.421	797.68
770.604	721.91
770.787	685.05
770.97	672.76
771.152	762.87
771.335	596.98
771.518	699.38
771.7	728.05
771.883	662.52
772.066	760.82
772.248	713.72
772.431	730.1
772.613	707.57
772.796	740.34
772.978	773.11
773.161	803.83
773.343	664.57
773.526	619.51
773.708	631.8
773.891	687.09
774.073	734.2
774.256	562.17
774.438	658.42
774.621	621.56
774.803	635.89
774.985	596.98
775.168	652.28
775.35	637.94
775.532	678.9
775.715	515.06
775.897	627.7
776.079	642.04
776.261	551.93
776.444	603.13
776.626	584.7
776.808	666.61
776.99	562.17
777.173	566.26
777.355	594.93
777.537	615.41
777.719	527.35
777.901	586.74
778.083	531.45
778.265	539.64
778.447	574.46
778.629	519.16
778.811	531.45
778.993	535.54
779.175	482.3
779.357	578.55
779.539	523.26
779.721	539.64
779.903	484.34
780.085	592.89
780.267	482.3
780.449	472.06
780.631	492.54
780.812	502.78
780.994	447.48
781.176	539.64
781.358	457.72
781.54	422.91
781.721	492.54
781.903	527.35
782.085	453.63
782.267	529.4
782.448	375.8
782.63	422.91
782.812	474.1
782.993	459.77
783.175	422.91
783.357	410.62
783.538	510.97
783.72	388.09
783.901	459.77
784.083	392.19
784.264	433.15
784.446	316.41
784.627	375.8
784.809	439.29
784.99	441.34
785.172	433.15
785.353	400.38
785.535	482.3
785.716	394.23
785.897	383.99
786.079	381.95
786.26	392.19
786.441	420.86
786.623	441.34
786.804	334.84
786.985	316.41
787.167	369.66
787.348	418.81
787.529	383.99
787.71	383.99
787.891	359.42
788.073	324.6
788.254	328.7
788.435	347.13
788.616	383.99
788.797	336.89
788.978	406.52
789.159	287.74
789.34	371.71
789.522	308.22
789.703	332.79
789.884	283.64
790.065	310.27
790.246	406.52
790.427	322.56
790.607	328.7
790.788	353.27
790.969	322.56
791.15	277.5
791.331	254.97
791.512	343.03
791.693	293.88
791.874	291.84
792.054	310.27
792.235	261.12
792.416	271.36
792.597	252.92
792.778	234.49
792.958	240.64
793.139	287.74
793.32	242.68
793.5	240.64
793.681	328.7
793.862	300.03
794.042	263.16
794.223	218.11
794.404	250.88
794.584	340.99
794.765	238.59
794.945	236.54
795.126	330.75
795.306	230.4
795.487	199.68
795.667	228.35
795.848	267.26
796.028	295.93
796.209	269.31
796.389	275.45
796.57	152.57
796.75	242.68
796.93	238.59
797.111	218.11
797.291	179.2
797.471	375.8
797.652	234.49
797.832	287.74
798.012	177.15
798.192	240.64
798.373	275.45
798.553	291.84
798.733	179.2
798.913	191.49
799.093	273.4
799.274	271.36
799.454	254.97
799.634	328.7
799.814	224.25
799.994	228.35
800.174	207.87
800.354	191.49
800.534	209.92
800.714	179.2
800.894	154.62
801.074	250.88
801.254	244.73
801.434	224.25
801.614	140.29
801.794	203.77
801.974	656.37
802.154	134.14
802.334	259.07
802.514	207.87
802.693	128
802.873	160.77
803.053	171.01
803.233	257.02
803.413	220.16
803.592	148.48
803.772	230.4
803.952	156.67
804.131	195.58
804.311	205.82
804.491	191.49
804.67	187.39
804.85	160.77
805.03	226.3
805.209	238.59
805.389	115.71
805.568	97.28
805.748	214.01
805.928	242.68
806.107	189.44
806.287	171.01
806.466	203.77
806.646	154.62
806.825	205.82
807.004	168.96
807.184	158.72
807.363	257.02
807.543	158.72
807.722	140.29
807.901	164.86
808.081	240.64
808.26	156.67
808.439	171.01
808.619	175.1
808.798	115.71
808.977	160.77
809.156	199.68
809.336	128
809.515	152.57
809.694	140.29
809.873	205.82
810.052	136.19
810.231	134.14
810.411	103.42
810.59	115.71
810.769	171.01
810.948	115.71
811.127	107.52
811.306	113.66
811.485	154.62
811.664	267.26
811.843	115.71
812.022	103.42
812.201	134.14
812.38	166.91
812.559	138.24
812.737	58.37
812.916	76.8
813.095	80.89
813.274	193.53
813.453	105.47
813.632	179.2
813.811	154.62
813.989	76.8
814.168	117.76
814.347	142.33
814.526	160.77
814.704	111.61
814.883	148.48
815.062	117.76
815.24	136.19
815.419	107.52
815.598	99.33
815.776	103.42
815.955	173.05
816.133	128
816.312	166.91
816.49	76.8
816.669	181.25
816.847	152.57
817.026	128
817.204	117.76
817.383	144.38
817.561	125.95
817.74	109.57
817.918	162.81
818.097	105.47
818.275	119.81
818.453	228.35
818.632	134.14
818.81	130.05
818.988	82.94
819.167	87.04
819.345	109.57
819.523	132.09
819.701	62.46
819.879	148.48
820.058	95.23
820.236	179.2
820.414	109.57
820.592	89.09
820.77	97.28
820.948	95.23
821.127	78.85
821.305	78.85
821.483	19.46
821.661	78.85
821.839	68.61
822.017	113.66
822.195	37.89
822.373	119.81
822.551	140.29
822.729	72.7
822.907	54.27
823.085	144.38
823.262	109.57
823.44	93.18
823.618	27.65
823.796	115.71
823.974	97.28
824.152	64.51
824.329	74.75
824.507	101.37
824.685	21.5
824.863	138.24
825.04	62.46
825.218	121.85
825.396	105.47
825.574	123.9
825.751	128
825.929	107.52
826.107	52.22
826.284	72.7
826.462	87.04
826.639	136.19
826.817	87.04
826.994	76.8
827.172	-44.03
827.349	123.9
827.527	78.85
827.704	91.13
827.882	52.22
828.059	62.46
828.237	97.28
828.414	97.28
828.591	107.52
828.769	82.94
828.946	74.75
829.124	78.85
829.301	91.13
829.478	123.9
829.655	70.65
829.833	105.47
830.01	80.89
830.187	119.81
830.364	41.98
830.542	66.56
830.719	78.85
830.896	54.27
831.073	37.89
831.25	113.66
831.427	27.65
831.604	105.47
831.782	54.27
831.959	72.7
832.136	48.13
832.313	66.56
832.49	50.18
832.667	13.31
832.844	46.08
833.021	58.37
833.198	101.37
833.374	142.33
833.551	70.65
833.728	74.75
833.905	31.74
834.082	80.89
834.259	82.94
834.436	68.61
834.612	117.76
834.789	107.52
834.966	103.42
835.143	19.46
835.319	99.33
835.496	5.12
835.673	99.33
835.85	119.81
836.026	52.22
836.203	125.95
836.38	31.74
836.556	91.13
836.733	21.5
836.909	115.71
837.086	15.36
837.262	80.89
837.439	3.07
837.616	62.46
837.792	-21.5
837.968	105.47
838.145	72.7
838.321	89.09
838.498	11.26
838.674	76.8
838.851	78.85
839.027	48.13
839.203	87.04
839.38	11.26
839.556	58.37
839.732	72.7
839.909	99.33
840.085	82.94
840.261	54.27
840.437	72.7
840.614	50.18
840.79	115.71
840.966	80.89
841.142	19.46
841.318	84.99
841.494	-15.36
841.671	62.46
841.847	-17.41
842.023	3.07
842.199	62.46
842.375	128
842.551	58.37
842.727	3.07
842.903	66.56
843.079	72.7
843.255	89.09
843.431	84.99
843.607	70.65
843.783	-7.17
843.959	37.89
844.134	13.31
844.31	68.61
844.486	58.37
844.662	91.13
844.838	50.18
845.013	117.76
845.189	52.22
845.365	54.27
845.541	35.84
845.716	-41.98
845.892	31.74
846.068	3.07
846.244	50.18
846.419	105.47
846.595	13.31
846.77	3.07
846.946	89.09
847.122	31.74
847.297	-17.41
847.473	41.98
847.648	37.89
847.824	68.61
847.999	5.12
848.175	44.03
848.35	60.42
848.526	58.37
848.701	68.61
848.876	74.75
849.052	9.22
849.227	87.04
849.403	-21.5
849.578	99.33
849.753	91.13
849.929	35.84
850.104	27.65
850.279	78.85
850.454	52.22
850.63	27.65
850.805	41.98
850.98	13.31
851.155	138.24
851.33	5.12
851.505	13.31
851.681	35.84
851.856	-19.46
852.031	-35.84
852.206	31.74
852.381	3.07
852.556	-1.02
852.731	78.85
852.906	111.61
853.081	136.19
853.256	78.85
853.431	3.07
853.606	-9.22
853.781	46.08
853.956	-62.46
854.131	-1.02
854.305	-13.31
854.48	-29.7
854.655	-44.03
854.83	66.56
855.005	7.17
855.18	-52.22
855.354	35.84
855.529	62.46
855.704	9.22
855.879	9.22
856.053	54.27
856.228	117.76
856.403	-21.5
856.577	-15.36
856.752	66.56
856.926	64.51
857.101	-3.07
857.276	-41.98
857.45	-3.07
857.625	68.61
857.799	70.65
857.974	-19.46
858.148	-27.65
858.323	33.79
858.497	64.51
858.672	54.27
858.846	84.99
859.02	128
859.195	-7.17
859.369	27.65
859.543	66.56
859.718	111.61
859.892	50.18
860.066	80.89
860.241	107.52
860.415	50.18
860.589	21.5
860.763	87.04
860.938	82.94
861.112	-5.12
861.286	37.89
861.46	33.79
861.634	72.7
861.808	56.32
861.982	-31.74
862.157	27.65
862.331	-39.94
862.505	37.89
862.679	3.07
862.853	-27.65
863.027	29.7
863.201	35.84
863.375	56.32
863.549	37.89
863.722	54.27
863.896	15.36
864.07	91.13
864.244	21.5
864.418	17.41
864.592	48.13
864.766	-25.6
864.939	46.08
865.113	-48.13
865.287	-5.12
865.461	7.17
865.634	74.75
865.808	17.41
865.982	13.31
866.156	-35.84
866.329	17.41
866.503	3.07
866.676	60.42
866.85	-15.36
867.024	46.08
867.197	-15.36
867.371	23.55
867.544	-29.7
867.718	-1.02
867.891	64.51
868.065	-5.12
868.238	15.36
868.412	76.8
868.585	25.6
868.759	-9.22
868.932	23.55
869.105	5.12
869.279	72.7
869.452	17.41
869.625	17.41
869.799	48.13
869.972	11.26
870.145	37.89
870.319	-1.02
870.492	5.12
870.665	62.46
870.838	33.79
871.011	-29.7
871.185	66.56
871.358	44.03
871.531	64.51
871.704	21.5
871.877	121.85
872.05	37.89
872.223	-35.84
872.396	3.07
872.569	37.89
872.742	29.7
872.915	17.41
873.088	46.08
873.261	21.5
873.434	56.32
873.607	-29.7
873.78	13.31
873.953	-66.56
874.126	-41.98
874.299	15.36
874.471	-1.02
874.644	-17.41
874.817	11.26
874.99	142.33
875.163	-33.79
875.335	15.36
875.508	-48.13
875.681	60.42
875.853	46.08
876.026	9.22
876.199	39.94
876.371	46.08
876.544	50.18
876.717	-13.31
876.889	25.6
877.062	27.65
877.234	-1.02
877.407	1.02
877.579	31.74
877.752	56.32
877.924	48.13
878.097	44.03
878.269	44.03
878.442	13.31
878.614	7.17
878.786	41.98
878.959	56.32
879.131	31.74
879.303	13.31
879.476	-13.31
879.648	50.18
879.82	21.5
879.993	23.55
880.165	-15.36
880.337	-29.7
880.509	23.55
880.681	-54.27
880.854	25.6
881.026	-21.5
881.198	17.41
881.37	21.5
881.542	54.27
881.714	25.6
881.886	62.46
882.058	-3.07
882.23	39.94
882.402	31.74
882.574	21.5
882.746	11.26
882.918	27.65
883.09	41.98
883.262	-3.07
883.434	44.03
883.606	35.84
883.778	19.46
883.95	-9.22
884.122	-29.7
884.293	54.27
884.465	-33.79
884.637	15.36
884.809	-27.65
884.98	15.36
885.152	70.65
885.324	17.41
885.496	3.07
885.667	35.84
885.839	3.07
886.011	-5.12
886.182	23.55
886.354	-17.41
886.525	56.32
886.697	-9.22
886.869	25.6
887.04	-7.17
887.212	9.22
887.383	179.2
887.555	70.65
887.726	13.31
887.897	-46.08
888.069	-3.07
888.24	11.26
888.412	-3.07
888.583	27.65
888.754	19.46
888.926	5.12
889.097	7.17
889.268	-21.5
889.44	87.04
889.611	-25.6
889.782	27.65
889.953	-19.46
890.125	54.27
890.296	21.5
890.467	5.12
890.638	19.46
890.809	9.22
890.98	-44.03
891.151	66.56
891.323	21.5
891.494	46.08
891.665	50.18
891.836	1.02
892.007	-9.22
892.178	-52.22
892.349	37.89
892.52	21.5
892.691	48.13
892.862	27.65
893.032	-48.13
893.203	-11.26
893.374	-21.5
893.545	-5.12
893.716	-37.89
893.887	-1.02
894.057	3.07
894.228	95.23
894.399	-76.8
894.57	15.36
894.74	-35.84
894.911	29.7
895.082	33.79
895.253	62.46
895.423	5.12
895.594	52.22
895.764	-25.6
895.935	-31.74
896.106	60.42
896.276	50.18
896.447	91.13
896.617	-31.74
896.788	-33.79
896.958	41.98
897.129	-21.5
897.299	-7.17
897.47	-44.03
897.64	70.65
897.81	-1.02
897.981	13.31
898.151	19.46
898.322	-13.31
898.492	-5.12
898.662	-9.22
898.832	-3.07
899.003	13.31
899.173	-33.79
899.343	33.79
899.513	-27.65
