Data from USB4F104151__17__12-35-20-123.txt Node

Date: Fri Mar 14 12:35:20 EDT 2025
User: louis
Spectrometer: USB4F10415
Trigger mode: 4
Integration Time (sec): 2.000000E-2
Scans to average: 1
Electric dark correction enabled: true
Nonlinearity correction enabled: false
Boxcar width: 0
XAxis mode: Wavelengths
Number of Pixels in Spectrum: 3648
>>>>>Begin Spectral Data<<<<<
178.204	-84.65
178.424	-84.65
178.644	-84.65
178.864	-88.75
179.084	-78.51
179.304	-10.92
179.524	-58.03
179.744	9.56
179.964	32.08
180.184	-8.87
180.404	21.85
180.624	-15.02
180.844	9.56
181.064	5.46
181.283	25.94
181.503	-15.02
181.723	3.41
181.943	38.23
182.163	40.28
182.383	-4.78
182.602	89.43
182.822	185.68
183.042	89.43
183.262	-0.68
183.482	48.47
183.701	27.99
183.921	85.33
184.141	44.37
184.361	36.18
184.58	48.47
184.8	38.23
185.02	93.52
185.239	95.57
185.459	91.48
185.679	97.62
185.898	87.38
186.118	87.38
186.338	36.18
186.557	81.24
186.777	1.37
186.997	105.81
187.216	44.37
187.436	58.71
187.655	11.61
187.875	122.2
188.095	11.61
188.314	105.81
188.534	-2.73
188.753	40.28
188.973	40.28
189.192	-8.87
189.412	50.52
189.631	23.89
189.851	-17.07
190.07	58.71
190.29	42.32
190.509	66.9
190.729	171.35
190.948	52.56
191.168	101.72
191.387	60.76
191.607	118.1
191.826	36.18
192.045	25.94
192.265	-15.02
192.484	111.96
192.704	99.67
192.923	44.37
193.142	73.04
193.362	97.62
193.581	60.76
193.8	25.94
194.02	138.58
194.239	15.7
194.458	27.99
194.678	89.43
194.897	66.9
195.116	-8.87
195.335	97.62
195.555	140.63
195.774	-10.92
195.993	122.2
196.212	118.1
196.432	40.28
196.651	73.04
196.87	15.7
197.089	79.19
197.308	58.71
197.528	3.41
197.747	68.95
197.966	54.61
198.185	71
198.404	13.65
198.623	89.43
198.842	91.48
199.062	97.62
199.281	-15.02
199.5	40.28
199.719	-6.83
199.938	46.42
200.157	103.76
200.376	71
200.595	23.89
200.814	32.08
201.033	99.67
201.252	-17.07
201.471	62.8
201.69	25.94
201.909	101.72
202.128	89.43
202.347	50.52
202.566	36.18
202.785	11.61
203.004	58.71
203.223	77.14
203.442	17.75
203.661	91.48
203.879	38.23
204.098	89.43
204.317	42.32
204.536	48.47
204.755	1.37
204.974	19.8
205.193	-12.97
205.411	27.99
205.63	77.14
205.849	66.9
206.068	44.37
206.287	40.28
206.505	95.57
206.724	71
206.943	81.24
207.162	15.7
207.381	13.65
207.599	62.8
207.818	77.14
208.037	56.66
208.255	-41.64
208.474	52.56
208.693	7.51
208.911	-10.92
209.13	44.37
209.349	62.8
209.567	40.28
209.786	132.44
210.005	19.8
210.223	36.18
210.442	42.32
210.661	44.37
210.879	58.71
211.098	130.39
211.316	99.67
211.535	97.62
211.753	93.52
211.972	60.76
212.191	46.42
212.409	62.8
212.628	36.18
212.846	3.41
213.065	56.66
213.283	56.66
213.502	-15.02
213.72	77.14
213.938	11.61
214.157	56.66
214.375	1.37
214.594	1.37
214.812	87.38
215.031	1.37
215.249	11.61
215.467	38.23
215.686	44.37
215.904	126.29
216.122	73.04
216.341	68.95
216.559	111.96
216.778	58.71
216.996	46.42
217.214	71
217.432	15.7
217.651	60.76
217.869	25.94
218.087	-4.78
218.306	134.48
218.524	19.8
218.742	87.38
218.96	159.06
219.179	-0.68
219.397	48.47
219.615	81.24
219.833	64.85
220.051	32.08
220.27	62.8
220.488	30.04
220.706	62.8
220.924	1.37
221.142	25.94
221.36	111.96
221.578	-8.87
221.796	62.8
222.015	50.52
222.233	7.51
222.451	73.04
222.669	111.96
222.887	15.7
223.105	32.08
223.323	-0.68
223.541	-62.12
223.759	134.48
223.977	27.99
224.195	101.72
224.413	62.8
224.631	50.52
224.849	1.37
225.067	46.42
225.285	48.47
225.503	97.62
225.721	50.52
225.939	95.57
226.157	11.61
226.375	120.15
226.592	-4.78
226.81	75.09
227.028	30.04
227.246	71
227.464	30.04
227.682	30.04
227.9	101.72
228.117	79.19
228.335	21.85
228.553	42.32
228.771	58.71
228.989	120.15
229.206	54.61
229.424	81.24
229.642	62.8
229.86	42.32
230.077	75.09
230.295	11.61
230.513	46.42
230.731	77.14
230.948	85.33
231.166	93.52
231.384	7.51
231.601	66.9
231.819	48.47
232.037	32.08
232.254	3.41
232.472	56.66
232.689	25.94
232.907	109.91
233.125	21.85
233.342	60.76
233.56	77.14
233.777	62.8
233.995	107.86
234.213	40.28
234.43	36.18
234.648	68.95
234.865	81.24
235.083	21.85
235.3	58.71
235.518	64.85
235.735	97.62
235.953	99.67
236.17	83.28
236.388	87.38
236.605	75.09
236.822	93.52
237.04	83.28
237.257	50.52
237.475	21.85
237.692	99.67
237.909	89.43
238.127	-12.97
238.344	89.43
238.562	83.28
238.779	44.37
238.996	15.7
239.214	-27.31
239.431	126.29
239.648	62.8
239.865	58.71
240.083	60.76
240.3	42.32
240.517	5.46
240.735	56.66
240.952	114
241.169	42.32
241.386	91.48
241.603	46.42
241.821	3.41
242.038	15.7
242.255	68.95
242.472	50.52
242.689	103.76
242.907	60.76
243.124	124.24
243.341	64.85
243.558	52.56
243.775	-19.11
243.992	95.57
244.209	48.47
244.426	130.39
244.643	-4.78
244.86	36.18
245.078	48.47
245.295	27.99
245.512	89.43
245.729	46.42
245.946	56.66
246.163	19.8
246.38	17.75
246.597	15.7
246.814	109.91
247.031	52.56
247.248	44.37
247.464	50.52
247.681	-10.92
247.898	62.8
248.115	44.37
248.332	40.28
248.549	154.96
248.766	116.05
248.983	21.85
249.2	144.72
249.417	79.19
249.633	111.96
249.85	19.8
250.067	5.46
250.284	62.8
250.501	34.13
250.717	126.29
250.934	-2.73
251.151	83.28
251.368	50.52
251.585	38.23
251.801	85.33
252.018	75.09
252.235	-19.11
252.451	79.19
252.668	-0.68
252.885	40.28
253.102	9.56
253.318	48.47
253.535	50.52
253.752	-29.35
253.968	64.85
254.185	89.43
254.401	87.38
254.618	-17.07
254.835	7.51
255.051	148.82
255.268	58.71
255.484	97.62
255.701	93.52
255.917	-37.55
256.134	30.04
256.351	66.9
256.567	107.86
256.784	107.86
257	32.08
257.217	118.1
257.433	36.18
257.65	54.61
257.866	79.19
258.082	34.13
258.299	25.94
258.515	23.89
258.732	15.7
258.948	81.24
259.165	21.85
259.381	54.61
259.597	54.61
259.814	120.15
260.03	34.13
260.246	17.75
260.463	140.63
260.679	-23.21
260.895	77.14
261.112	21.85
261.328	71
261.544	79.19
261.761	66.9
261.977	23.89
262.193	17.75
262.409	64.85
262.626	11.61
262.842	48.47
263.058	-4.78
263.274	91.48
263.49	34.13
263.707	62.8
263.923	34.13
264.139	52.56
264.355	-2.73
264.571	85.33
264.787	30.04
265.004	124.24
265.22	103.76
265.436	83.28
265.652	107.86
265.868	32.08
266.084	154.96
266.3	91.48
266.516	50.52
266.732	-15.02
266.948	101.72
267.164	54.61
267.38	118.1
267.596	58.71
267.812	40.28
268.028	62.8
268.244	17.75
268.46	159.06
268.676	9.56
268.892	-0.68
269.108	83.28
269.324	73.04
269.54	13.65
269.756	34.13
269.972	13.65
270.188	89.43
270.403	38.23
270.619	48.47
270.835	-15.02
271.051	7.51
271.267	58.71
271.483	7.51
271.698	11.61
271.914	58.71
272.13	54.61
272.346	101.72
272.562	40.28
272.777	73.04
272.993	17.75
273.209	-8.87
273.425	103.76
273.64	58.71
273.856	97.62
274.072	44.37
274.287	91.48
274.503	85.33
274.719	38.23
274.934	9.56
275.15	75.09
275.366	-43.69
275.581	30.04
275.797	73.04
276.012	83.28
276.228	52.56
276.444	19.8
276.659	118.1
276.875	-31.4
277.09	46.42
277.306	83.28
277.521	71
277.737	66.9
277.952	66.9
278.168	38.23
278.383	42.32
278.599	13.65
278.814	9.56
279.03	36.18
279.245	48.47
279.461	19.8
279.676	64.85
279.892	38.23
280.107	30.04
280.322	15.7
280.538	62.8
280.753	36.18
280.969	66.9
281.184	19.8
281.399	58.71
281.615	97.62
281.83	87.38
282.045	27.99
282.26	-23.21
282.476	66.9
282.691	89.43
282.906	56.66
283.122	30.04
283.337	56.66
283.552	56.66
283.767	44.37
283.983	130.39
284.198	50.52
284.413	48.47
284.628	50.52
284.843	58.71
285.058	56.66
285.274	32.08
285.489	44.37
285.704	64.85
285.919	56.66
286.134	85.33
286.349	9.56
286.564	79.19
286.779	68.95
286.995	73.04
287.21	38.23
287.425	46.42
287.64	52.56
287.855	116.05
288.07	-2.73
288.285	85.33
288.5	71
288.715	68.95
288.93	19.8
289.145	32.08
289.36	111.96
289.575	93.52
289.79	130.39
290.004	27.99
290.219	154.96
290.434	56.66
290.649	77.14
290.864	62.8
291.079	73.04
291.294	109.91
291.509	77.14
291.724	97.62
291.938	9.56
292.153	71
292.368	32.08
292.583	105.81
292.798	58.71
293.012	126.29
293.227	50.52
293.442	60.76
293.657	109.91
293.871	79.19
294.086	1.37
294.301	111.96
294.516	105.81
294.73	81.24
294.945	87.38
295.16	128.34
295.374	62.8
295.589	114
295.804	-12.97
296.018	46.42
296.233	42.32
296.447	81.24
296.662	95.57
296.877	95.57
297.091	66.9
297.306	58.71
297.52	81.24
297.735	60.76
297.949	32.08
298.164	97.62
298.378	50.52
298.593	75.09
298.807	42.32
299.022	58.71
299.236	120.15
299.451	81.24
299.665	66.9
299.88	58.71
300.094	73.04
300.309	1.37
300.523	79.19
300.737	42.32
300.952	75.09
301.166	34.13
301.381	-33.45
301.595	114
301.809	87.38
302.024	9.56
302.238	60.76
302.452	118.1
302.667	60.76
302.881	73.04
303.095	120.15
303.309	85.33
303.524	130.39
303.738	111.96
303.952	62.8
304.166	93.52
304.381	46.42
304.595	77.14
304.809	89.43
305.023	66.9
305.237	93.52
305.452	50.52
305.666	30.04
305.88	66.9
306.094	36.18
306.308	89.43
306.522	144.72
306.736	95.57
306.95	60.76
307.164	77.14
307.379	101.72
307.593	56.66
307.807	152.91
308.021	126.29
308.235	95.57
308.449	34.13
308.663	120.15
308.877	173.39
309.091	58.71
309.305	54.61
309.519	40.28
309.733	56.66
309.947	50.52
310.161	109.91
310.374	79.19
310.588	116.05
310.802	77.14
311.016	83.28
311.23	21.85
311.444	58.71
311.658	17.75
311.872	62.8
312.085	103.76
312.299	17.75
312.513	79.19
312.727	48.47
312.941	54.61
313.154	89.43
313.368	71
313.582	75.09
313.796	79.19
314.009	40.28
314.223	71
314.437	52.56
314.651	19.8
314.864	99.67
315.078	66.9
315.292	25.94
315.505	50.52
315.719	62.8
315.933	85.33
316.146	73.04
316.36	77.14
316.573	140.63
316.787	71
317.001	54.61
317.214	-19.11
317.428	79.19
317.641	19.8
317.855	7.51
318.068	38.23
318.282	122.2
318.495	116.05
318.709	75.09
318.922	1.37
319.136	103.76
319.349	101.72
319.563	66.9
319.776	5.46
319.99	64.85
320.203	101.72
320.417	3.41
320.63	62.8
320.843	85.33
321.057	124.24
321.27	148.82
321.483	79.19
321.697	30.04
321.91	30.04
322.124	52.56
322.337	122.2
322.55	95.57
322.763	54.61
322.977	54.61
323.19	40.28
323.403	71
323.617	21.85
323.83	105.81
324.043	40.28
324.256	109.91
324.469	101.72
324.683	71
324.896	93.52
325.109	91.48
325.322	-2.73
325.535	128.34
325.748	36.18
325.962	91.48
326.175	75.09
326.388	118.1
326.601	19.8
326.814	73.04
327.027	77.14
327.24	68.95
327.453	81.24
327.666	7.51
327.879	93.52
328.092	118.1
328.305	124.24
328.518	15.7
328.731	46.42
328.944	79.19
329.157	15.7
329.37	97.62
329.583	132.44
329.796	130.39
330.009	27.99
330.222	81.24
330.435	64.85
330.648	-17.07
330.861	126.29
331.073	107.86
331.286	93.52
331.499	34.13
331.712	44.37
331.925	105.81
332.138	64.85
332.35	81.24
332.563	85.33
332.776	58.71
332.989	83.28
333.202	66.9
333.414	105.81
333.627	138.58
333.84	42.32
334.053	105.81
334.265	138.58
334.478	93.52
334.691	97.62
334.903	73.04
335.116	42.32
335.329	32.08
335.541	114
335.754	124.24
335.966	62.8
336.179	60.76
336.392	54.61
336.604	75.09
336.817	97.62
337.029	64.85
337.242	109.91
337.454	30.04
337.667	99.67
337.88	132.44
338.092	81.24
338.305	95.57
338.517	79.19
338.729	105.81
338.942	44.37
339.154	64.85
339.367	85.33
339.579	75.09
339.792	13.65
340.004	60.76
340.217	73.04
340.429	93.52
340.641	101.72
340.854	83.28
341.066	50.52
341.278	83.28
341.491	75.09
341.703	52.56
341.915	75.09
342.128	77.14
342.34	181.59
342.552	56.66
342.764	21.85
342.977	58.71
343.189	83.28
343.401	81.24
343.613	81.24
343.826	38.23
344.038	32.08
344.25	77.14
344.462	42.32
344.674	83.28
344.886	91.48
345.099	50.52
345.311	122.2
345.523	23.89
345.735	-0.68
345.947	93.52
346.159	52.56
346.371	109.91
346.583	81.24
346.795	138.58
347.007	77.14
347.219	85.33
347.431	50.52
347.643	99.67
347.855	103.76
348.067	120.15
348.279	38.23
348.491	95.57
348.703	58.71
348.915	34.13
349.127	85.33
349.339	111.96
349.551	95.57
349.763	118.1
349.975	81.24
350.187	126.29
350.399	19.8
350.61	99.67
350.822	27.99
351.034	79.19
351.246	85.33
351.458	71
351.669	105.81
351.881	103.76
352.093	91.48
352.305	40.28
352.517	85.33
352.728	116.05
352.94	120.15
353.152	3.41
353.363	68.95
353.575	50.52
353.787	118.1
353.999	81.24
354.21	124.24
354.422	148.82
354.633	40.28
354.845	54.61
355.057	124.24
355.268	95.57
355.48	85.33
355.692	60.76
355.903	138.58
356.115	50.52
356.326	60.76
356.538	89.43
356.749	60.76
356.961	89.43
357.172	101.72
357.384	124.24
357.595	116.05
357.807	122.2
358.018	75.09
358.23	99.67
358.441	89.43
358.653	111.96
358.864	77.14
359.075	46.42
359.287	103.76
359.498	95.57
359.709	91.48
359.921	42.32
360.132	128.34
360.344	134.48
360.555	60.76
360.766	71
360.977	38.23
361.189	34.13
361.4	124.24
361.611	142.68
361.823	66.9
362.034	91.48
362.245	42.32
362.456	105.81
362.667	136.53
362.879	109.91
363.09	99.67
363.301	105.81
363.512	128.34
363.723	79.19
363.935	114
364.146	144.72
364.357	91.48
364.568	71
364.779	99.67
364.99	134.48
365.201	7.51
365.412	134.48
365.623	50.52
365.834	81.24
366.045	95.57
366.256	95.57
366.467	68.95
366.678	142.68
366.889	64.85
367.1	101.72
367.311	87.38
367.522	32.08
367.733	146.77
367.944	130.39
368.155	46.42
368.366	101.72
368.577	144.72
368.788	87.38
368.999	81.24
369.209	32.08
369.42	36.18
369.631	95.57
369.842	85.33
370.053	81.24
370.264	109.91
370.474	60.76
370.685	103.76
370.896	95.57
371.107	56.66
371.317	73.04
371.528	58.71
371.739	50.52
371.95	68.95
372.16	126.29
372.371	58.71
372.582	89.43
372.792	114
373.003	134.48
373.214	130.39
373.424	103.76
373.635	97.62
373.846	118.1
374.056	54.61
374.267	60.76
374.477	109.91
374.688	34.13
374.898	1.37
375.109	89.43
375.319	142.68
375.53	138.58
375.74	109.91
375.951	91.48
376.161	66.9
376.372	140.63
376.582	107.86
376.793	99.67
377.003	68.95
377.214	85.33
377.424	99.67
377.635	89.43
377.845	91.48
378.055	132.44
378.266	71
378.476	144.72
378.686	134.48
378.897	124.24
379.107	75.09
379.317	111.96
379.528	93.52
379.738	148.82
379.948	138.58
380.158	150.87
380.369	81.24
380.579	134.48
380.789	66.9
380.999	97.62
381.21	81.24
381.42	157.01
381.63	132.44
381.84	87.38
382.05	77.14
382.261	132.44
382.471	111.96
382.681	101.72
382.891	154.96
383.101	103.76
383.311	48.47
383.521	66.9
383.731	66.9
383.941	152.91
384.151	124.24
384.361	77.14
384.571	124.24
384.781	40.28
384.991	116.05
385.201	32.08
385.411	118.1
385.621	93.52
385.831	138.58
386.041	111.96
386.251	54.61
386.461	142.68
386.671	44.37
386.881	97.62
387.091	56.66
387.301	87.38
387.511	114
387.72	107.86
387.93	105.81
388.14	103.76
388.35	99.67
388.56	64.85
388.769	107.86
388.979	79.19
389.189	126.29
389.399	79.19
389.609	114
389.818	56.66
390.028	124.24
390.238	66.9
390.447	58.71
390.657	142.68
390.867	101.72
391.076	60.76
391.286	85.33
391.496	66.9
391.705	165.2
391.915	167.25
392.125	107.86
392.334	91.48
392.544	134.48
392.753	142.68
392.963	103.76
393.172	122.2
393.382	77.14
393.591	132.44
393.801	109.91
394.01	132.44
394.22	87.38
394.429	91.48
394.639	93.52
394.848	107.86
395.058	87.38
395.267	152.91
395.477	204.11
395.686	255.31
395.895	120.15
396.105	165.2
396.314	230.74
396.524	165.2
396.733	122.2
396.942	159.06
397.152	148.82
397.361	206.16
397.57	130.39
397.78	216.4
397.989	126.29
398.198	144.72
398.407	197.97
398.617	142.68
398.826	99.67
399.035	187.73
399.244	197.97
399.453	124.24
399.663	181.59
399.872	132.44
400.081	179.54
400.29	238.93
400.499	138.58
400.708	195.92
400.917	154.96
401.127	154.96
401.336	218.45
401.545	245.07
401.754	189.78
401.963	159.06
402.172	218.45
402.381	140.63
402.59	159.06
402.799	138.58
403.008	179.54
403.217	261.46
403.426	255.31
403.635	247.12
403.844	255.31
404.053	181.59
404.262	238.93
404.471	277.84
404.68	210.26
404.888	200.02
405.097	236.88
405.306	345.42
405.515	189.78
405.724	226.64
405.933	216.4
406.142	288.08
406.35	312.66
406.559	286.03
406.768	322.9
406.977	337.23
407.185	302.42
407.394	273.75
407.603	343.38
407.812	288.08
408.02	413.01
408.229	269.65
408.438	310.61
408.646	390.48
408.855	376.14
409.064	367.95
409.272	394.58
409.481	406.86
409.69	406.86
409.898	449.87
410.107	499.02
410.315	494.93
410.524	523.6
410.733	550.22
410.941	435.53
411.15	492.88
411.358	503.12
411.567	582.99
411.775	605.52
411.984	638.28
412.192	603.47
412.401	656.72
412.609	687.43
412.818	744.78
413.026	752.97
413.234	666.96
413.443	724.3
413.651	705.87
413.86	812.36
414.068	875.85
414.276	861.51
414.485	927.05
414.693	949.57
414.901	1006.92
415.11	1049.93
415.318	1033.54
415.526	1219.91
415.734	1125.7
415.943	1105.22
416.151	1121.6
416.359	1205.57
416.567	1242.43
416.776	1330.5
416.984	1369.41
417.192	1398.08
417.4	1480
417.608	1453.38
417.817	1473.85
418.025	1541.44
418.233	1649.98
418.441	1594.68
418.649	1754.43
418.857	1854.78
419.065	1946.94
419.273	1930.55
419.481	1989.94
419.689	2229.56
419.897	2047.29
420.105	2280.75
420.313	2159.92
420.521	2336.05
420.729	2319.67
420.937	2503.98
421.145	2647.34
421.353	2688.3
421.561	2706.73
421.769	2800.94
421.977	2927.91
422.185	2948.39
422.393	3157.29
422.601	3243.3
422.809	3333.41
423.017	3269.92
423.224	3374.37
423.432	3579.17
423.64	3626.27
423.848	3867.93
424.056	3786.01
424.263	4105.49
424.471	4017.43
424.679	4162.84
424.887	4384.02
425.094	4513.04
425.302	4611.34
425.51	4795.66
425.718	4889.87
425.925	4926.73
426.133	5291.27
426.341	5522.69
426.548	5547.26
426.756	5590.27
426.964	5682.43
427.171	6155.51
427.379	6100.22
427.586	6325.49
427.794	6552.82
428.001	6778.09
428.209	7052.52
428.417	7032.04
428.624	7650.53
428.832	7507.17
429.039	7619.81
429.247	7484.64
429.454	8293.59
429.662	8740.05
429.869	8318.17
430.076	8862.93
430.284	8428.76
430.491	8752.34
430.699	9239.75
430.906	9262.28
431.114	9274.57
431.321	9864.38
431.528	9977.02
431.736	10611.89
431.943	11027.63
432.15	10884.27
432.358	10992.81
432.565	11388.07
432.772	11599.01
432.979	12047.52
433.187	12268.7
433.394	12424.34
433.601	12993.68
433.808	13003.92
434.016	13106.32
434.223	13638.79
434.43	14419.07
434.637	14310.52
434.844	15113.33
435.052	15637.61
435.259	15285.36
435.466	15672.42
435.673	15481.96
435.88	16227.42
436.087	17355.85
436.294	17247.31
436.501	16725.08
436.708	16985.17
436.915	17654.86
437.122	18293.82
437.329	18295.87
437.537	18938.93
437.743	19369.01
437.95	19115.06
438.157	19977.25
438.364	20923.41
438.571	20474.91
438.778	21036.05
438.985	22721.53
439.192	21965.83
439.399	22494.21
439.606	21918.73
439.813	23297.01
440.02	24888.28
440.227	24288.23
440.433	23942.12
440.64	25195.48
440.847	24994.78
441.054	25289.68
441.261	26938.3
441.467	26672.06
441.674	27390.9
441.881	28152.74
442.088	28224.42
442.294	27792.3
442.501	28773.28
442.708	29197.21
442.914	30270.34
443.121	31505.27
443.328	30632.83
443.534	32772.96
443.741	31982.45
443.948	31976.3
444.154	33856.34
444.361	33903.44
444.568	33317.72
444.774	33989.45
444.981	34175.82
445.187	35341.11
445.394	36651.81
445.6	35783.48
445.807	39449.34
446.013	37997.33
446.22	38966.02
446.426	39992.05
446.633	40100.59
446.839	41726.68
447.046	40387.31
447.252	42181.33
447.459	42504.91
447.665	42195.67
447.871	44153.52
448.078	45843.1
448.284	43891.38
448.491	44559.02
448.697	46439.06
448.903	47319.68
449.11	47524.48
449.316	46613.13
449.522	47485.57
449.728	48319.09
449.935	48749.17
450.141	48945.77
450.347	49986.14
450.553	48749.17
450.76	49302.12
450.966	50518.61
451.172	50137.69
451.378	51546.69
451.584	50586.19
451.791	51720.77
451.997	51288.65
452.203	52443.7
452.409	52103.74
452.615	52064.83
452.821	50426.45
453.027	49936.99
453.233	52310.58
453.44	50528.85
453.646	50610.77
453.852	51128.91
454.058	52087.35
454.264	50604.63
454.47	51458.63
454.676	50379.35
454.882	51810.88
455.088	47280.77
455.294	48149.11
455.5	49052.26
455.705	49283.69
455.911	47530.62
456.117	46742.16
456.323	46189.2
456.529	43291.33
456.735	45210.28
456.941	44042.93
457.147	43365.06
457.352	42134.23
457.558	41614.04
457.764	42072.79
457.97	41001.7
458.176	40385.26
458.381	40383.21
458.587	38146.83
458.793	38155.02
458.999	36336.43
459.204	38869.76
459.41	38304.52
459.616	35386.17
459.821	35550.01
460.027	35101.5
460.233	34411.34
460.438	32543.59
460.644	33168.22
460.85	31775.6
461.055	31277.94
461.261	31466.36
461.466	28775.33
461.672	27956.14
461.878	29864.85
462.083	28083.11
462.289	27040.7
462.494	27198.39
462.7	25787.34
462.905	25064.41
463.111	25916.36
463.316	26280.9
463.522	25826.25
463.727	25893.83
463.932	25770.96
464.138	25535.44
464.343	25293.78
464.549	24572.89
464.754	25629.65
464.959	25148.37
465.165	25275.35
465.37	23989.22
465.575	23444.46
465.781	24611.81
465.986	24597.47
466.191	23540.72
466.397	22744.06
466.602	21945.35
466.807	22854.65
467.012	23170.04
467.218	22715.39
467.423	22604.8
467.628	22637.56
467.833	23430.13
468.038	22672.38
468.244	21890.06
468.449	22850.55
468.654	22096.9
468.859	22019.08
469.064	21959.69
469.269	20984.85
469.474	20997.14
469.679	21552.14
469.885	21048.34
470.09	21310.48
470.295	20911.13
470.5	20542.49
470.705	20593.69
470.91	19901.48
471.115	20093.99
471.32	20337.69
471.525	20071.46
471.73	19741.74
471.935	19600.43
472.139	19035.19
472.344	19434.54
472.549	19188.78
472.754	18861.11
472.959	18555.96
473.164	17998.91
473.369	18127.94
473.574	18537.53
473.778	18474.04
473.983	18048.07
474.188	17927.24
474.393	17370.19
474.598	17390.67
474.802	17212.49
475.007	17005.65
475.212	17202.25
475.417	16452.7
475.621	16438.36
475.826	16432.22
476.031	16084.06
476.235	16092.26
476.44	16151.65
476.645	15869.03
476.849	15744.1
477.054	15768.68
477.259	15553.64
477.463	15490.15
477.668	15121.52
477.872	15121.52
478.077	14720.12
478.282	14695.54
478.486	14736.5
478.691	14443.64
478.895	14318.71
479.1	14138.49
479.304	14314.62
479.509	13929.6
479.713	14025.86
479.918	13663.36
480.122	13577.35
480.326	13706.37
480.531	13890.69
480.735	13630.6
480.94	13307.02
481.144	13839.49
481.348	13147.28
481.553	13436.04
481.757	13032.59
481.961	13370.51
482.166	13616.26
482.37	13298.83
482.574	13102.22
482.778	13184.14
482.983	13427.85
483.187	13087.89
483.391	13235.34
483.595	13171.85
483.8	13048.97
484.004	13186.19
484.208	13474.95
484.412	13089.93
484.616	13288.59
484.821	13118.61
485.025	12950.67
485.229	12995.73
485.433	13126.8
485.637	13178
485.841	13130.89
486.045	12960.91
486.249	13044.88
486.453	12987.54
486.657	13235.34
486.861	13319.31
487.065	12948.62
487.269	13159.56
487.473	12891.28
487.677	13223.05
487.881	13206.67
488.085	13186.19
488.289	13384.84
488.493	12922
488.697	13180.04
488.901	13184.14
489.105	13102.22
489.309	13182.09
489.512	13307.02
489.716	13124.75
489.92	13345.93
490.124	13159.56
490.328	13646.98
490.531	13440.14
490.735	13517.96
490.939	13466.76
491.143	13497.48
491.346	13309.07
491.55	13603.97
491.754	13477
491.958	13849.73
492.161	13532.29
492.365	13796.48
492.569	13560.97
492.772	14046.33
492.976	13802.63
493.18	13974.66
493.383	14265.47
493.587	14275.71
493.79	14378.11
493.994	14214.27
494.197	14384.25
494.401	14449.78
494.605	14457.98
494.808	14875.76
495.012	14859.38
495.215	15035.5
495.419	15002.74
495.622	14920.82
495.825	15051.89
496.029	15309.93
496.232	15463.53
496.436	15367.27
496.639	15987.81
496.843	15832.16
497.046	15860.84
497.249	16362.59
497.453	16155.74
497.656	16301.15
497.859	16557.14
498.063	16542.81
498.266	17163.34
498.469	16860.24
498.673	17067.09
498.876	17275.98
499.079	17542.22
499.282	17577.03
499.485	17882.18
499.689	17931.33
499.892	18121.79
500.095	18363.45
500.298	18707.51
500.501	18756.66
500.705	19203.12
500.908	19618.86
501.111	19481.64
501.314	19473.45
501.517	19940.39
501.72	20276.26
501.923	20180
502.126	20560.92
502.329	20947.99
502.532	20923.41
502.735	21255.19
502.938	21275.66
503.141	21810.18
503.344	22010.89
503.547	22029.32
503.75	22215.68
503.953	22723.58
504.156	22911.99
504.359	22971.38
504.562	23606.25
504.765	23837.67
504.968	23976.94
505.17	24065
505.373	23952.36
505.576	24558.56
505.779	24726.49
505.982	25019.35
506.185	25482.19
506.387	25482.19
506.59	25881.55
506.793	26260.42
506.996	26227.65
507.198	27061.18
507.401	26534.85
507.604	27319.22
507.807	27593.65
508.009	27999.15
508.212	28232.61
508.415	28359.59
508.617	28617.63
508.82	28705.7
509.022	28601.25
509.225	29535.12
509.428	29598.61
509.63	30198.66
509.833	30102.41
510.035	31007.61
510.238	30450.56
510.44	31333.24
510.643	31634.29
510.845	31886.19
511.048	31824.75
511.25	32480.1
511.453	32510.82
511.655	33612.63
511.858	33256.28
512.06	33737.55
512.262	34263.88
512.465	33827.67
512.667	34911.04
512.87	34857.79
513.072	35201.85
513.274	35920.69
513.477	36088.62
513.679	36371.24
513.881	36803.36
514.084	37042.98
514.286	36936.48
514.488	37235.49
514.69	38460.17
514.893	38046.48
515.095	38570.76
515.297	38927.11
515.499	39072.51
515.701	39621.37
515.904	39441.15
516.106	40231.66
516.308	40583.91
516.51	41255.65
516.712	41020.13
516.914	41468.64
517.116	42097.36
517.318	42187.47
517.52	42306.26
517.722	42883.78
517.925	43166.4
518.127	43563.71
518.329	43895.48
518.531	43643.58
518.733	44923.56
518.935	45185.7
519.136	45062.82
519.338	45720.22
519.54	45965.98
519.742	46363.28
519.944	46664.33
520.146	47104.65
520.348	47702.65
520.55	47248
520.752	47637.12
520.954	48913
521.155	48259.7
521.357	49037.93
521.559	48990.83
521.761	49670.75
521.963	50203.22
522.164	49740.38
522.366	50053.72
522.568	50717.26
522.77	51100.23
522.971	51929.66
523.173	51327.56
523.375	51944
523.576	52175.42
523.778	52075.07
523.98	52847.15
524.181	52820.53
524.383	53080.62
524.584	53596.71
524.786	53961.25
524.988	53565.99
525.189	54282.78
525.391	54172.19
525.592	54860.3
525.794	54282.78
525.995	54798.87
526.197	55056.91
526.398	55081.48
526.6	55257.61
526.801	55605.76
527.003	55949.82
527.204	55552.52
527.406	56539.64
527.607	56324.6
527.808	56605.17
528.01	56197.63
528.211	56816.11
528.412	57229.8
528.614	56951.28
528.815	57448.94
529.016	58153.44
529.218	56971.76
529.419	57371.11
529.62	57215.47
529.822	57639.4
530.023	57580.01
530.224	57580.01
530.425	57485.8
530.626	57362.92
530.828	57793
531.029	58497.5
531.23	58075.62
531.431	57874.91
531.632	57874.91
531.833	58231.26
532.035	58505.69
532.236	58317.28
532.437	58730.97
532.638	58153.44
532.839	58698.2
533.04	58788.31
533.241	58034.66
533.442	59439.56
533.643	58534.36
533.844	58464.73
534.045	58540.5
534.246	58161.63
534.447	58499.54
534.648	58567.13
534.849	58593.75
535.05	58296.8
535.251	58550.74
535.451	58341.85
535.652	58515.93
535.853	58151.39
536.054	58391
536.255	58743.25
536.456	58149.34
536.657	59204.05
536.857	58511.83
537.058	58178.01
537.259	59113.94
537.46	58579.42
537.66	58606.04
537.861	58630.61
538.062	57979.36
538.263	58628.57
538.463	58261.98
538.664	58063.33
538.865	58270.17
539.065	58700.25
539.266	58089.95
539.466	58603.99
539.667	57655.78
539.868	58778.07
540.068	58085.85
540.269	58022.37
540.469	58350.04
540.67	58061.28
540.87	58239.45
541.071	57651.69
541.271	58120.67
541.472	57745.89
541.672	57696.74
541.873	57569.77
542.073	57537
542.274	58642.9
542.474	58116.57
542.675	57389.55
542.875	58421.72
543.075	58212.83
543.276	57381.35
543.476	58221.02
543.676	57649.64
543.877	57883.11
544.077	57901.54
544.277	57727.46
544.478	57713.12
544.678	58010.08
544.878	57627.11
545.078	57752.04
545.279	57285.1
545.479	57356.78
545.679	57915.87
545.879	57371.11
546.079	57537
546.28	57270.76
546.48	57147.89
546.68	57338.35
546.88	57233.9
547.08	57373.16
547.28	57127.41
547.48	57039.34
547.68	57324.01
547.88	56795.63
548.081	57125.36
548.281	57049.58
548.481	56965.62
548.681	57379.31
548.881	57444.84
549.081	56789.49
549.28	56871.41
549.48	57625.06
549.68	56857.07
549.88	57614.82
550.08	56457.72
550.28	57248.24
550.48	56963.57
550.68	57479.66
550.88	57010.67
551.08	57182.7
551.279	56736.24
551.479	56711.67
551.679	56871.41
551.879	56924.66
552.079	56938.99
552.278	56723.96
552.478	56705.52
552.678	56674.8
552.878	56959.47
553.077	56773.11
553.277	55904.77
553.477	56951.28
553.676	56715.76
553.876	56846.83
554.076	56676.85
554.275	56162.81
554.475	55872
554.674	56398.33
554.874	56285.69
555.074	56138.24
555.273	56345.08
555.473	56609.27
555.672	56306.17
555.872	55773.7
556.071	56107.52
556.271	56265.21
556.47	55812.61
556.67	55953.92
556.869	55960.06
557.068	56023.55
557.268	55724.55
557.467	55349.77
557.667	55988.73
557.866	55298.57
558.065	55556.61
558.265	55622.15
558.464	55157.26
558.663	55872
558.863	55013.9
559.062	55755.27
559.261	54888.98
559.461	55818.75
559.66	54909.46
559.859	55230.99
560.058	54805.01
560.258	55028.24
560.457	54624.79
560.656	55116.3
560.855	54456.85
561.054	54886.93
561.253	54252.06
561.453	54352.41
561.652	54919.7
561.851	54704.66
562.05	54059.55
562.249	54014.49
562.448	54217.24
562.647	54317.59
562.846	53969.44
563.045	54016.54
563.244	53727.78
563.443	54495.77
563.642	53656.1
563.841	53637.67
564.04	53303.85
564.239	53916.19
564.438	53037.61
564.637	53684.77
564.836	53262.89
565.035	52906.54
565.234	53277.22
565.432	53086.76
565.631	53088.81
565.83	53246.5
566.029	52714.03
566.228	52726.32
566.427	52828.72
566.625	52345.4
566.824	51800.64
567.023	51847.74
567.222	51593.79
567.42	52179.51
567.619	51892.8
567.818	51798.59
568.016	51423.81
568.215	52132.41
568.414	51763.78
568.612	51913.28
568.811	51305.03
569.01	51558.98
569.208	51014.22
569.407	51030.6
569.605	50780.75
569.804	51366.47
570.002	50365.01
570.201	50797.13
570.4	50473.56
570.598	50453.08
570.797	50023
570.995	50518.61
571.193	49764.96
571.392	50207.32
571.59	49476.19
571.789	49719.9
571.987	49338.98
572.186	49582.69
572.384	49375.84
572.582	49519.2
572.781	49427.04
572.979	48587.38
573.177	48628.34
573.376	49418.85
573.574	48720.49
573.772	49425
573.971	48425.59
574.169	47856.25
574.367	47774.33
574.565	48159.35
574.763	47948.41
574.962	47962.75
575.16	47004.3
575.358	47833.72
575.556	46918.28
575.754	47889.02
575.952	47258.24
576.151	47403.65
576.349	46740.11
576.547	47221.38
576.745	46926.47
576.943	47037.06
577.141	46758.54
577.339	46781.07
577.537	46131.86
577.735	46848.65
577.933	45812.38
578.131	46447.25
578.329	46361.23
578.527	45777.56
578.725	45810.33
578.923	46029.46
579.121	45464.22
579.319	45343.39
579.516	45548.19
579.714	45359.78
579.912	45171.36
580.11	45161.12
580.308	45318.82
580.506	44917.42
580.704	44280.5
580.901	44767.91
581.099	44677.8
581.297	44157.62
581.495	44200.63
581.692	44212.91
581.89	43596.48
582.088	44335.79
582.285	43799.22
582.483	44245.68
582.681	44100.28
582.878	43520.7
583.076	43291.33
583.274	43576
583.471	42783.43
583.669	43225.79
583.866	42916.55
584.064	43072.2
584.262	42339.02
584.459	42474.19
584.657	42418.89
584.854	42736.33
585.052	41954.01
585.249	41986.77
585.447	42490.57
585.644	41958.1
585.841	42007.25
586.039	41937.62
586.236	41638.62
586.434	41493.21
586.631	41581.27
586.828	41335.52
587.026	41550.56
587.223	41077.47
587.42	40798.95
587.618	41642.71
587.815	40458.99
588.012	40352.49
588.21	40565.48
588.407	40606.44
588.604	40127.22
588.801	39955.19
588.999	40172.27
589.196	39860.98
589.393	39969.52
589.59	39535.35
589.787	39357.18
589.984	39518.97
590.182	39092.99
590.379	39322.37
590.576	39478.01
590.773	39029.51
590.97	38961.92
591.167	39240.45
591.364	38640.39
591.561	38777.61
591.758	38116.11
591.955	38621.96
592.152	38583.05
592.349	38271.76
592.546	38230.8
592.743	38474.51
592.94	37696.28
593.137	37784.34
593.334	38017.81
593.531	36895.52
593.727	37489.43
593.924	37628.7
594.121	37010.21
594.318	37782.29
594.515	36920.1
594.712	37243.68
594.908	36772.64
595.105	36932.39
595.302	36457.26
595.499	36733.73
595.696	36698.92
595.892	36105.01
596.089	36016.94
596.286	36272.94
596.482	36150.06
596.679	35816.24
596.876	36131.63
597.072	35992.37
597.269	35767.09
597.466	35572.53
597.662	35719.99
597.859	35509.05
598.055	35580.73
598.252	35017.53
598.448	35283.77
598.645	34890.56
598.841	34718.53
599.038	34569.03
599.234	34841.41
599.431	34294.6
599.627	34401.1
599.824	34603.85
600.02	34274.12
600.217	34675.52
600.413	34134.86
600.609	34229.07
600.806	33856.34
601.002	34018.13
601.198	33608.53
601.395	33565.53
601.591	33403.74
601.787	33391.45
601.984	33241.95
602.18	33729.36
602.376	33256.28
602.572	33057.63
602.769	32744.29
602.965	32611.17
603.161	33039.2
603.357	32504.68
603.553	32236.39
603.75	32727.91
603.946	32113.52
604.142	32236.39
604.338	31708.02
604.534	32473.96
604.73	31576.95
604.926	31748.98
605.122	31761.26
605.318	31232.89
605.514	31531.89
605.71	31290.23
605.906	31249.27
606.102	31624.05
606.298	31486.84
606.494	31374.2
606.69	30954.36
606.886	31382.39
607.082	30868.35
607.278	31093.63
607.474	30272.39
607.67	30940.03
607.866	30509.96
608.062	30548.87
608.257	30436.23
608.453	30458.76
608.649	30221.19
608.845	29957
609.041	30241.67
609.236	30282.63
609.432	30327.69
609.628	30053.26
609.824	29739.92
610.019	29842.32
610.215	29715.34
610.411	29739.92
610.606	29494.16
610.802	29731.73
610.998	29815.69
611.193	29821.84
611.389	29328.28
611.584	29483.92
611.78	29571.99
611.976	29320.09
612.171	29465.49
612.367	29012.89
612.562	29051.8
612.758	28631.97
612.953	28853.15
613.149	29215.64
613.344	28730.27
613.539	29119.38
613.735	28789.66
613.93	28631.97
614.126	28398.5
614.321	28693.41
614.517	28378.02
614.712	28421.03
614.907	28220.33
615.103	28425.12
615.298	27880.36
615.493	28455.84
615.688	28289.96
615.884	28496.8
616.079	27628.46
616.274	28312.49
616.47	27935.66
616.665	27612.08
616.86	27646.9
617.055	27546.54
617.25	27728.81
617.445	27847.6
617.641	27526.07
617.836	27644.85
618.031	27222.97
618.226	27116.47
618.421	27237.3
618.616	27440.05
618.811	26618.82
619.006	27308.98
619.201	26508.22
619.396	26917.82
619.591	26325.96
619.786	26444.74
619.981	25844.68
620.176	26526.66
620.371	25938.89
620.566	25969.61
620.761	26121.16
620.956	26031.05
621.151	25533.39
621.346	25637.84
621.541	25041.88
621.735	25713.61
621.93	25086.93
622.125	25002.97
622.32	24947.67
622.515	24871.9
622.709	24536.03
622.904	24632.29
623.099	24517.6
623.294	24390.63
623.488	24017.89
623.683	24277.99
623.878	23733.23
624.072	23675.88
624.267	23915.5
624.462	23540.72
624.656	23665.64
624.851	23817.19
625.046	23094.26
625.24	23172.08
625.435	22817.79
625.629	22965.24
625.824	22889.46
626.018	22758.39
626.213	22187.01
626.407	22193.15
626.602	22107.14
626.796	22293.51
626.991	22066.18
627.185	21990.41
627.38	21732.36
627.574	21679.11
627.768	21367.82
627.963	21457.93
628.157	21160.98
628.352	21363.73
628.546	20821.02
628.74	21038.1
628.935	20829.21
629.129	20726.81
629.323	20558.88
629.517	20405.28
629.712	20208.67
629.906	20431.9
630.1	19911.72
630.294	19999.78
630.489	19704.87
630.683	19749.93
630.877	19506.22
631.071	19592.23
631.265	19758.12
631.459	19309.61
631.653	19354.67
631.848	19364.91
632.042	18922.55
632.236	19303.47
632.43	18562.11
632.624	18852.92
632.818	18725.94
633.012	18515
633.206	18431.04
633.4	18476.09
633.594	18328.64
633.788	18410.56
633.982	18150.46
634.176	18138.18
634.369	17843.27
634.563	17740.87
634.757	17577.03
634.951	17804.36
635.145	17640.52
635.339	17804.36
635.533	17144.91
635.726	17312.85
635.92	17114.19
636.114	17007.7
636.308	17218.64
636.501	17034.32
636.695	16974.93
636.889	16657.5
637.083	16624.73
637.276	16790.61
637.47	16407.64
637.664	16319.58
637.857	16182.37
638.051	16194.65
638.244	16086.11
638.438	16198.75
638.632	16024.67
638.825	15901.79
639.019	15512.68
639.212	15498.34
639.406	15821.92
639.599	15471.72
639.793	15565.93
639.986	14998.64
640.18	15195.25
640.373	15168.62
640.567	14826.61
640.76	14953.59
640.954	14806.13
641.147	14668.92
641.34	14697.59
641.534	14752.88
641.727	14578.81
641.92	14554.23
642.114	14308.48
642.307	14320.76
642.5	14128.25
642.694	14003.33
642.887	13917.31
643.08	14105.73
643.273	14068.86
643.467	13964.42
643.66	13667.46
643.853	13554.82
644.046	13552.77
644.239	13622.41
644.432	13456.52
644.626	13268.11
644.819	13124.75
645.012	13091.98
645.205	13405.32
645.398	13280.39
645.591	12891.28
645.784	12835.99
645.977	12678.29
646.17	12721.3
646.363	12702.87
646.556	12536.98
646.749	12446.87
646.942	12403.86
647.135	12291.23
647.328	12307.61
647.521	12174.49
647.714	12012.7
647.907	12125.34
648.099	11959.45
648.292	11975.84
648.485	11824.29
648.678	11736.23
648.871	11725.99
649.064	11863.2
649.256	11834.53
649.449	11637.92
649.642	11486.37
649.835	11328.68
650.027	11451.56
650.22	11160.75
650.413	11134.12
650.605	11353.26
650.798	11066.54
650.991	11072.68
651.183	11130.03
651.376	10896.56
651.568	10925.23
651.761	10757.3
651.954	10603.7
652.146	10593.46
652.339	10618.04
652.531	10452.15
652.724	10712.24
652.916	10341.56
653.109	10411.19
653.301	10388.66
653.494	10335.42
653.686	10093.76
653.879	10333.37
654.071	10026.17
654.263	10181.82
654.456	10013.88
654.648	9999.55
654.84	9637.06
655.033	9882.81
655.225	9876.67
655.417	9790.66
655.61	9770.18
655.802	9663.68
655.994	9481.41
656.186	9714.88
656.379	9501.89
656.571	9479.36
656.763	9315.53
656.955	9362.63
657.148	9213.13
657.34	9163.98
657.532	9245.9
657.724	9151.69
657.916	8957.13
658.108	8932.56
658.3	8944.84
658.492	9041.1
658.684	8985.8
658.876	8725.71
659.068	8733.9
659.26	8778.96
659.452	8752.34
659.644	8680.66
659.836	8588.5
660.028	8522.96
660.22	8447.19
660.412	8402.13
660.604	8226.01
660.796	8469.72
660.988	8340.69
661.18	8350.93
661.372	8127.71
661.563	7918.81
661.755	8115.42
661.947	7939.29
662.139	8056.03
662.331	7976.16
662.522	7908.57
662.714	7791.84
662.906	7933.15
663.097	7816.41
663.289	7851.23
663.481	7726.3
663.673	7736.54
663.864	7568.61
664.056	7707.87
664.247	7466.21
664.439	7501.03
664.631	7546.08
664.822	7765.21
665.014	7539.94
665.205	7392.48
665.397	7365.86
665.588	7380.2
665.78	7197.93
665.971	7302.37
666.163	7333.09
666.354	7251.17
666.546	7126.25
666.737	7077.1
666.929	7109.86
667.12	7204.07
667.311	7095.53
667.503	6929.64
667.694	6995.18
667.885	6860.01
668.077	6868.2
668.268	6735.09
668.459	6778.09
668.651	6706.41
668.842	6831.34
669.033	6587.63
669.224	6571.25
669.416	6696.18
669.607	6733.04
669.798	6528.24
669.989	6690.03
670.18	6325.49
670.371	6458.61
670.563	6522.1
670.754	6462.71
670.945	6374.64
671.136	6323.44
671.327	6348.02
671.518	6341.88
671.709	6216.95
671.9	6315.25
672.091	6270.2
672.282	6206.71
672.473	6243.57
672.664	6210.81
672.855	6180.09
673.046	5963
673.237	6268.15
673.428	5983.48
673.619	6253.81
673.809	5944.57
674	6036.73
674.191	5973.24
674.382	6085.88
674.573	5885.18
674.764	5858.56
674.954	5956.86
675.145	5942.52
675.336	5922.04
675.527	5842.17
675.717	5909.76
675.908	5799.16
676.099	5829.88
676.289	5774.59
676.48	5565.7
676.671	5618.94
676.861	5803.26
677.052	5805.31
677.243	5551.36
677.433	5700.86
677.624	5707.01
677.814	5594.37
678.005	5610.75
678.195	5649.66
678.386	5577.98
678.576	5676.29
678.767	5541.12
678.957	5528.83
679.148	5604.61
679.338	5453.06
679.529	5653.76
679.719	5598.46
679.909	5573.89
680.1	5518.59
680.29	5559.55
680.481	5534.98
680.671	5494.02
680.861	5375.24
681.052	5489.92
681.242	5512.45
681.432	5432.58
681.622	5313.8
681.813	5565.7
682.003	5496.07
682.193	5340.42
682.383	5528.83
682.573	5420.29
682.764	5324.04
682.954	5289.22
683.144	5309.7
683.334	5328.13
683.524	5278.98
683.714	5375.24
683.904	5219.59
684.094	5174.53
684.284	5215.49
684.474	5174.53
684.664	5238.02
684.854	5365
685.044	5123.34
685.234	5131.53
685.424	5186.82
685.614	5059.85
685.804	5250.31
685.994	5174.53
686.184	5045.51
686.374	5182.73
686.564	5141.77
686.753	4986.12
686.943	4957.45
687.133	4984.07
687.323	4936.97
687.513	4963.59
687.702	4957.45
687.892	4853
688.082	4906.25
688.272	5043.46
688.461	4844.81
688.651	4779.28
688.841	4699.41
689.03	4726.03
689.22	4771.08
689.41	4887.82
689.599	4807.95
689.789	4748.56
689.979	4769.04
690.168	4760.84
690.358	4537.62
690.547	4816.14
690.737	4726.03
690.926	4709.65
691.116	4578.58
691.305	4676.88
691.495	4560.14
691.684	4601.1
691.874	4588.82
692.063	4562.19
692.252	4683.02
692.442	4510.99
692.631	4367.63
692.82	4517.14
693.01	4500.75
693.199	4461.84
693.388	4269.33
693.578	4437.27
693.767	4437.27
693.956	4363.54
694.146	4320.53
694.335	4232.47
694.524	4347.15
694.713	4336.92
694.902	4293.91
695.092	4388.11
695.281	4308.24
695.47	4316.44
695.659	4193.56
695.848	4228.37
696.037	4359.44
696.226	4310.29
696.415	4209.94
696.604	4207.89
696.793	4123.93
696.982	4087.06
697.171	4228.37
697.36	4211.99
697.549	4228.37
697.738	4257.04
697.927	4236.56
698.116	4232.47
698.305	4132.12
698.494	4146.45
698.683	4101.4
698.872	4015.38
699.061	4035.86
699.25	4134.17
699.438	4072.73
699.627	4046.1
699.816	4107.54
700.005	4162.84
700.193	4078.87
700.382	3964.18
700.571	4187.41
700.76	4072.73
700.948	4121.88
701.137	4021.53
701.326	3955.99
701.514	4044.06
701.703	3972.38
701.892	4076.82
702.08	4162.84
702.269	3929.37
702.457	3966.23
702.646	3890.46
702.834	3933.47
703.023	3814.68
703.212	3953.94
703.4	3904.79
703.589	3851.55
703.777	3896.6
703.965	3917.08
704.154	4054.3
704.342	3917.08
704.531	3851.55
704.719	3620.13
704.907	3912.99
705.096	3669.28
705.284	3734.81
705.472	3728.67
705.661	3802.4
705.849	3804.44
706.037	3872.03
706.226	3730.72
706.414	3743
706.602	3646.75
706.79	3851.55
706.979	3654.94
707.167	3730.72
707.355	3636.51
707.543	3833.11
707.731	3767.58
707.919	3663.13
708.107	3618.08
708.296	3659.04
708.484	3591.45
708.672	3579.17
708.86	3736.86
709.048	3663.13
709.236	3636.51
709.424	3601.69
709.612	3616.03
709.8	3652.89
709.988	3634.46
710.176	3599.65
710.364	3515.68
710.551	3495.2
710.739	3650.85
710.927	3591.45
711.115	3472.67
711.303	3620.13
711.491	3568.93
711.679	3437.86
711.866	3562.78
712.054	3548.45
712.242	3497.25
712.43	3489.06
712.617	3439.9
712.805	3317.03
712.993	3366.18
713.181	3327.27
713.368	3546.4
713.556	3460.38
713.744	3396.9
713.931	3351.84
714.119	3286.31
714.306	3403.04
714.494	3321.12
714.682	3390.75
714.869	3282.21
715.057	3423.52
715.244	3280.16
715.432	3394.85
715.619	3374.37
715.807	3378.47
715.994	3153.19
716.182	3343.65
716.369	3276.07
716.556	3339.55
716.744	3341.6
716.931	3114.28
717.119	3228.96
717.306	3222.82
717.493	3323.17
717.681	3007.78
717.868	3183.91
718.055	3222.82
718.242	3198.24
718.43	3241.25
718.617	3136.81
718.804	3108.13
718.991	3288.36
719.179	3175.72
719.366	3065.13
719.553	3108.13
719.74	3124.52
719.927	3136.81
720.114	2985.26
720.301	3022.12
720.488	3032.36
720.676	3038.5
720.863	3048.74
721.05	3032.36
721.237	3071.27
721.424	2999.59
721.611	2938.15
721.798	2917.67
721.985	2911.53
722.172	3085.61
722.358	2911.53
722.545	2917.67
722.732	2895.15
722.919	3116.33
723.106	2886.95
723.293	2962.73
723.48	2977.06
723.667	2843.95
723.853	2845.99
724.04	2864.43
724.227	2862.38
724.414	2817.32
724.6	2809.13
724.787	2841.9
724.974	2962.73
725.161	2829.61
725.347	2899.24
725.534	2946.34
725.72	2827.56
725.907	2743.6
726.094	2805.03
726.28	2637.1
726.467	2757.93
726.653	2868.52
726.84	2772.27
727.027	2686.25
727.213	2772.27
727.4	2653.48
727.586	2800.94
727.773	2745.64
727.959	2764.08
728.145	2725.16
728.332	2741.55
728.518	2600.24
728.705	2741.55
728.891	2786.6
729.077	2772.27
729.264	2665.77
729.45	2614.57
729.636	2749.74
729.823	2551.09
730.009	2667.82
730.195	2690.35
730.382	2637.1
730.568	2622.77
730.754	2557.23
730.94	2546.99
731.126	2620.72
731.313	2555.18
731.499	2704.68
731.685	2684.2
731.871	2600.24
732.057	2655.53
732.243	2606.38
732.429	2512.18
732.615	2659.63
732.801	2649.39
732.987	2526.51
733.173	2522.41
733.359	2417.97
733.545	2473.26
733.731	2469.17
733.917	2497.84
734.103	2614.57
734.289	2571.57
734.475	2409.78
734.661	2592.05
734.847	2569.52
735.033	2465.07
735.219	2428.21
735.404	2538.8
735.59	2471.22
735.776	2413.87
735.962	2358.58
736.148	2495.79
736.333	2544.94
736.519	2512.18
736.705	2381.1
736.89	2319.67
737.076	2311.47
737.262	2315.57
737.447	2485.55
737.633	2415.92
737.819	2278.71
738.004	2336.05
738.19	2356.53
738.375	2356.53
738.561	2393.39
738.747	2372.91
738.932	2268.47
739.118	2307.38
739.303	2286.9
739.489	2319.67
739.674	2258.23
739.859	2168.12
740.045	2256.18
740.23	2186.55
740.416	2284.85
740.601	2149.68
740.786	2239.8
740.972	2243.89
741.157	2098.49
741.342	2233.65
741.528	2149.68
741.713	2202.93
741.898	2204.98
742.084	2227.51
742.269	2164.02
742.454	2131.25
742.639	2164.02
742.824	2178.36
743.01	2065.72
743.195	2090.29
743.38	2125.11
743.565	2080.05
743.75	2112.82
743.935	2102.58
744.12	2104.63
744.305	2139.44
744.49	2106.68
744.675	1981.75
744.86	2037.05
745.045	2026.81
745.23	1936.7
745.415	1955.13
745.6	1957.18
745.785	2043.19
745.97	1998.13
746.155	1961.27
746.34	1981.75
746.525	1850.68
746.71	1979.7
746.895	1885.5
747.079	1957.18
747.264	1928.5
747.449	1850.68
747.634	1891.64
747.819	1924.41
748.003	1815.87
748.188	1836.35
748.373	1934.65
748.557	1735.99
748.742	1805.63
748.927	1742.14
749.111	1742.14
749.296	1830.2
749.481	1686.84
749.665	1697.08
749.85	1721.66
750.034	1803.58
750.219	1602.88
750.404	1719.61
750.588	1754.43
750.773	1713.47
750.957	1658.17
751.141	1531.2
751.326	1623.36
751.51	1529.15
751.695	1662.27
751.879	1512.77
752.064	1555.77
752.248	1578.3
752.432	1580.35
752.617	1627.45
752.801	1596.73
752.985	1490.24
753.17	1635.64
753.354	1551.68
753.538	1523.01
753.722	1477.95
753.907	1447.23
754.091	1387.84
754.275	1408.32
754.459	1396.03
754.643	1465.66
754.828	1316.16
755.012	1414.46
755.196	1424.7
755.38	1363.26
755.564	1424.7
755.748	1369.41
755.932	1400.13
756.116	1342.78
756.3	1254.72
756.484	1342.78
756.668	1232.19
756.852	1404.22
757.036	1326.4
757.22	1348.93
757.404	1346.88
757.588	1187.14
757.772	1285.44
757.956	1320.26
758.14	1285.44
758.323	1193.28
758.507	1250.63
758.691	1172.8
758.875	1119.56
759.059	1246.53
759.242	1164.61
759.426	1164.61
759.61	1121.6
759.794	1230.15
759.977	1187.14
760.161	1230.15
760.345	1131.84
760.528	1107.27
760.712	1148.23
760.895	1086.79
761.079	1137.99
761.263	1160.52
761.446	1064.26
761.63	1164.61
761.813	1041.73
761.997	1234.24
762.18	1131.84
762.364	1107.27
762.547	1103.17
762.731	1017.16
762.914	1054.02
763.098	1078.6
763.281	1037.64
763.464	1090.88
763.648	1115.46
763.831	1056.07
764.015	978.25
764.198	1060.17
764.381	1031.49
764.564	1105.22
764.748	970.05
764.931	990.53
765.114	1008.97
765.297	931.14
765.481	1072.45
765.664	970.05
765.847	970.05
766.03	1082.69
766.213	927.05
766.397	968.01
766.58	1037.64
766.763	957.77
766.946	968.01
767.129	1004.87
767.312	996.68
767.495	910.66
767.678	1002.82
767.861	918.86
768.044	980.29
768.227	912.71
768.41	879.94
768.593	982.34
768.776	963.91
768.959	922.95
769.142	1000.77
769.324	859.46
769.507	865.61
769.69	851.27
769.873	953.67
770.056	963.91
770.239	822.6
770.421	855.37
770.604	888.14
770.787	859.46
770.97	879.94
771.152	912.71
771.335	806.22
771.518	877.9
771.7	963.91
771.883	871.75
772.066	789.83
772.248	783.69
772.431	867.66
772.613	849.22
772.796	869.7
772.978	832.84
773.161	804.17
773.343	830.79
773.526	775.5
773.708	783.69
773.891	752.97
774.073	806.22
774.256	744.78
774.438	755.02
774.621	757.07
774.803	765.26
774.985	730.44
775.168	724.3
775.35	761.16
775.532	693.58
775.715	660.81
775.897	752.97
776.079	828.74
776.261	777.55
776.444	787.79
776.626	716.11
776.808	613.71
776.99	648.52
777.173	656.72
777.355	621.9
777.537	691.53
777.719	728.39
777.901	666.96
778.083	646.48
778.265	673.1
778.447	650.57
778.629	683.34
778.811	679.24
778.993	640.33
779.175	576.84
779.357	662.86
779.539	656.72
779.721	533.84
779.903	609.61
780.085	521.55
780.267	628.04
780.449	630.09
780.631	656.72
780.812	646.48
780.994	574.8
781.176	582.99
781.358	566.6
781.54	558.41
781.721	654.67
781.903	511.31
782.085	476.49
782.267	585.04
782.448	580.94
782.63	605.52
782.812	486.73
782.993	419.15
783.175	564.56
783.357	591.18
783.538	642.38
783.72	562.51
783.901	533.84
784.083	550.22
784.264	527.69
784.446	546.12
784.627	476.49
784.809	417.1
784.99	515.41
785.172	496.97
785.353	458.06
785.535	464.21
785.716	501.07
785.897	460.11
786.079	496.97
786.26	492.88
786.441	517.45
786.623	423.25
786.804	445.77
786.985	419.15
787.167	507.21
787.348	413.01
787.529	398.67
787.71	388.43
787.891	408.91
788.073	429.39
788.254	384.34
788.435	507.21
788.616	318.8
788.797	398.67
788.978	433.49
789.159	400.72
789.34	417.1
789.522	447.82
789.703	400.72
789.884	376.14
790.065	437.58
790.246	447.82
790.427	460.11
790.607	482.64
790.788	478.54
790.969	386.38
791.15	421.2
791.331	365.9
791.512	357.71
791.693	318.8
791.874	382.29
792.054	496.97
792.235	329.04
792.416	345.42
792.597	351.57
792.778	316.75
792.958	384.34
793.139	353.62
793.32	343.38
793.5	286.03
793.681	396.62
793.862	341.33
794.042	384.34
794.223	388.43
794.404	359.76
794.584	306.51
794.765	277.84
794.945	365.9
795.126	324.94
795.306	365.9
795.487	349.52
795.667	212.31
795.848	367.95
796.028	202.07
796.209	374.1
796.389	402.77
796.57	226.64
796.75	374.1
796.93	363.86
797.111	267.6
797.291	288.08
797.471	263.51
797.652	304.46
797.832	179.54
798.012	333.14
798.192	273.75
798.373	290.13
798.553	218.45
798.733	316.75
798.913	202.07
799.093	339.28
799.274	296.27
799.454	263.51
799.634	335.18
799.814	253.27
799.994	367.95
800.174	357.71
800.354	300.37
800.534	226.64
800.714	326.99
800.894	263.51
801.074	273.75
801.254	240.98
801.434	314.7
801.614	220.5
801.794	146.77
801.974	679.24
802.154	228.69
802.334	232.79
802.514	236.88
802.693	204.11
802.873	189.78
803.053	322.9
803.233	294.22
803.413	261.46
803.592	197.97
803.772	224.59
803.952	269.65
804.131	224.59
804.311	253.27
804.491	318.8
804.67	286.03
804.85	265.55
805.03	240.98
805.209	263.51
805.389	212.31
805.568	206.16
805.748	249.17
805.928	206.16
806.107	163.15
806.287	257.36
806.466	191.83
806.646	318.8
806.825	224.59
807.004	173.39
807.184	195.92
807.363	195.92
807.543	259.41
807.722	191.83
807.901	234.83
808.081	255.31
808.26	222.55
808.439	128.34
808.619	277.84
808.798	216.4
808.977	204.11
809.156	247.12
809.336	204.11
809.515	167.25
809.694	185.68
809.873	195.92
810.052	183.63
810.231	193.87
810.411	220.5
810.59	220.5
810.769	243.03
810.948	218.45
811.127	154.96
811.306	245.07
811.485	197.97
811.664	255.31
811.843	177.49
812.022	193.87
812.201	177.49
812.38	200.02
812.559	210.26
812.737	154.96
812.916	120.15
813.095	165.2
813.274	218.45
813.453	132.44
813.632	128.34
813.811	240.98
813.989	103.76
814.168	159.06
814.347	130.39
814.526	171.35
814.704	154.96
814.883	204.11
815.062	183.63
815.24	185.68
815.419	173.39
815.598	183.63
815.776	171.35
815.955	140.63
816.133	150.87
816.312	152.91
816.49	97.62
816.669	179.54
816.847	163.15
817.026	189.78
817.204	165.2
817.383	152.91
817.561	99.67
817.74	236.88
817.918	175.44
818.097	148.82
818.275	165.2
818.453	185.68
818.632	161.11
818.81	195.92
818.988	95.57
819.167	193.87
819.345	114
819.523	87.38
819.701	107.86
819.879	154.96
820.058	163.15
820.236	148.82
820.414	77.14
820.592	114
820.77	142.68
820.948	103.76
821.127	189.78
821.305	169.3
821.483	140.63
821.661	138.58
821.839	210.26
822.017	111.96
822.195	114
822.373	124.24
822.551	146.77
822.729	193.87
822.907	62.8
823.085	200.02
823.262	93.52
823.44	103.76
823.618	169.3
823.796	134.48
823.974	136.53
824.152	99.67
824.329	109.91
824.507	89.43
824.685	175.44
824.863	97.62
825.04	101.72
825.218	97.62
825.396	58.71
825.574	138.58
825.751	175.44
825.929	120.15
826.107	122.2
826.284	114
826.462	126.29
826.639	52.56
826.817	157.01
826.994	71
827.172	30.04
827.349	128.34
827.527	177.49
827.704	75.09
827.882	120.15
828.059	99.67
828.237	109.91
828.414	159.06
828.591	105.81
828.769	114
828.946	159.06
829.124	175.44
829.301	126.29
829.478	91.48
829.655	136.53
829.833	157.01
830.01	40.28
830.187	122.2
830.364	109.91
830.542	142.68
830.719	183.63
830.896	183.63
831.073	89.43
831.25	83.28
831.427	140.63
831.604	124.24
831.782	71
831.959	83.28
832.136	13.65
832.313	134.48
832.49	105.81
832.667	89.43
832.844	64.85
833.021	154.96
833.198	122.2
833.374	97.62
833.551	111.96
833.728	68.95
833.905	64.85
834.082	-17.07
834.259	97.62
834.436	44.37
834.612	81.24
834.789	56.66
834.966	171.35
835.143	81.24
835.319	66.9
835.496	107.86
835.673	58.71
835.85	101.72
836.026	132.44
836.203	85.33
836.38	23.89
836.556	62.8
836.733	21.85
836.909	66.9
837.086	165.2
837.262	132.44
837.439	62.8
837.616	103.76
837.792	114
837.968	157.01
838.145	17.75
838.321	83.28
838.498	71
838.674	73.04
838.851	148.82
839.027	46.42
839.203	150.87
839.38	116.05
839.556	73.04
839.732	34.13
839.909	99.67
840.085	122.2
840.261	120.15
840.437	134.48
840.614	77.14
840.79	73.04
840.966	93.52
841.142	85.33
841.318	150.87
841.494	58.71
841.671	68.95
841.847	66.9
842.023	73.04
842.199	50.52
842.375	62.8
842.551	58.71
842.727	111.96
842.903	206.16
843.079	7.51
843.255	38.23
843.431	11.61
843.607	122.2
843.783	64.85
843.959	126.29
844.134	91.48
844.31	77.14
844.486	58.71
844.662	114
844.838	66.9
845.013	68.95
845.189	19.8
845.365	58.71
845.541	56.66
845.716	107.86
845.892	85.33
846.068	66.9
846.244	23.89
846.419	101.72
846.595	60.76
846.77	95.57
846.946	109.91
847.122	44.37
847.297	60.76
847.473	73.04
847.648	30.04
847.824	97.62
847.999	25.94
848.175	54.61
848.35	-17.07
848.526	107.86
848.701	73.04
848.876	163.15
849.052	54.61
849.227	32.08
849.403	13.65
849.578	44.37
849.753	103.76
849.929	48.47
850.104	109.91
850.279	116.05
850.454	48.47
850.63	60.76
850.805	71
850.98	15.7
851.155	-2.73
851.33	79.19
851.505	111.96
851.681	73.04
851.856	64.85
852.031	50.52
852.206	75.09
852.381	165.2
852.556	64.85
852.731	130.39
852.906	124.24
853.081	44.37
853.256	17.75
853.431	83.28
853.606	21.85
853.781	89.43
853.956	-64.17
854.131	93.52
854.305	21.85
854.48	40.28
854.655	89.43
854.83	15.7
855.005	7.51
855.18	36.18
855.354	83.28
855.529	124.24
855.704	58.71
855.879	56.66
856.053	105.81
856.228	-8.87
856.403	13.65
856.577	114
856.752	13.65
856.926	60.76
857.101	-2.73
857.276	27.99
857.45	107.86
857.625	56.66
857.799	38.23
857.974	91.48
858.148	30.04
858.323	89.43
858.497	62.8
858.672	48.47
858.846	95.57
859.02	46.42
859.195	-10.92
859.369	21.85
859.543	34.13
859.718	68.95
859.892	105.81
860.066	116.05
860.241	17.75
860.415	91.48
860.589	109.91
860.763	95.57
860.938	42.32
861.112	42.32
861.286	-49.83
861.46	68.95
861.634	11.61
861.808	17.75
861.982	-49.83
862.157	-0.68
862.331	38.23
862.505	17.75
862.679	13.65
862.853	79.19
863.027	23.89
863.201	89.43
863.375	34.13
863.549	46.42
863.722	1.37
863.896	107.86
864.07	54.61
864.244	50.52
864.418	85.33
864.592	62.8
864.766	44.37
864.939	103.76
865.113	30.04
865.287	64.85
865.461	68.95
865.634	44.37
865.808	44.37
865.982	97.62
866.156	30.04
866.329	56.66
866.503	50.52
866.676	87.38
866.85	21.85
867.024	5.46
867.197	62.8
867.371	58.71
867.544	83.28
867.718	-4.78
867.891	52.56
868.065	54.61
868.238	-4.78
868.412	89.43
868.585	27.99
868.759	87.38
868.932	-8.87
869.105	30.04
869.279	36.18
869.452	64.85
869.625	25.94
869.799	40.28
869.972	66.9
870.145	58.71
870.319	79.19
870.492	34.13
870.665	17.75
870.838	17.75
871.011	34.13
871.185	40.28
871.358	-70.31
871.531	81.24
871.704	42.32
871.877	75.09
872.05	54.61
872.223	75.09
872.396	54.61
872.569	105.81
872.742	44.37
872.915	79.19
873.088	66.9
873.261	-47.79
873.434	85.33
873.607	101.72
873.78	17.75
873.953	66.9
874.126	73.04
874.299	60.76
874.471	19.8
874.644	5.46
874.817	-23.21
874.99	44.37
875.163	-27.31
875.335	136.53
875.508	3.41
875.681	7.51
875.853	5.46
876.026	-33.45
876.199	60.76
876.371	44.37
876.544	42.32
876.717	46.42
876.889	48.47
877.062	15.7
877.234	32.08
877.407	42.32
877.579	50.52
877.752	36.18
877.924	19.8
878.097	116.05
878.269	-0.68
878.442	48.47
878.614	50.52
878.786	154.96
878.959	19.8
879.131	83.28
879.303	40.28
879.476	54.61
879.648	83.28
879.82	42.32
879.993	11.61
880.165	32.08
880.337	36.18
880.509	32.08
880.681	5.46
880.854	46.42
881.026	81.24
881.198	118.1
881.37	58.71
881.542	15.7
881.714	5.46
881.886	79.19
882.058	42.32
882.23	52.56
882.402	-4.78
882.574	-8.87
882.746	1.37
882.918	122.2
883.09	7.51
883.262	44.37
883.434	30.04
883.606	15.7
883.778	5.46
883.95	48.47
884.122	46.42
884.293	62.8
884.465	66.9
884.637	-23.21
884.809	3.41
884.98	27.99
885.152	101.72
885.324	50.52
885.496	11.61
885.667	5.46
885.839	13.65
886.011	17.75
886.182	62.8
886.354	48.47
886.525	-33.45
886.697	38.23
886.869	-8.87
887.04	50.52
887.212	81.24
887.383	46.42
887.555	7.51
887.726	111.96
887.897	-17.07
888.069	99.67
888.24	60.76
888.412	-17.07
888.583	85.33
888.754	17.75
888.926	5.46
889.097	95.57
889.268	58.71
889.44	68.95
889.611	40.28
889.782	48.47
889.953	-39.59
890.125	89.43
890.296	-0.68
890.467	3.41
890.638	-12.97
890.809	42.32
890.98	13.65
891.151	48.47
891.323	60.76
891.494	17.75
891.665	81.24
891.836	19.8
892.007	21.85
892.178	95.57
892.349	-0.68
892.52	40.28
892.691	52.56
892.862	-15.02
893.032	-43.69
893.203	23.89
893.374	38.23
893.545	30.04
893.716	19.8
893.887	-31.4
894.057	48.47
894.228	34.13
894.399	64.85
894.57	54.61
894.74	-12.97
894.911	118.1
895.082	62.8
895.253	-0.68
895.423	52.56
895.594	116.05
895.764	107.86
895.935	66.9
896.106	21.85
896.276	73.04
896.447	3.41
896.617	75.09
896.788	17.75
896.958	44.37
897.129	44.37
897.299	19.8
897.47	54.61
897.64	40.28
897.81	-43.69
897.981	9.56
898.151	-4.78
898.322	-12.97
898.492	105.81
898.662	17.75
898.832	42.32
899.003	40.28
899.173	40.28
899.343	58.71
899.513	9.56
