Data from USB4F104151__7__12-34-58-865.txt Node

Date: Fri Mar 14 12:34:58 EDT 2025
User: louis
Spectrometer: USB4F10415
Trigger mode: 4
Integration Time (sec): 2.000000E-2
Scans to average: 1
Electric dark correction enabled: true
Nonlinearity correction enabled: false
Boxcar width: 0
XAxis mode: Wavelengths
Number of Pixels in Spectrum: 3648
>>>>>Begin Spectral Data<<<<<
178.204	-92.33
178.424	-92.33
178.644	-92.33
178.864	-71.85
179.084	-96.43
179.304	-47.27
179.524	61.27
179.744	-57.51
179.964	71.51
180.184	16.21
180.404	-20.65
180.624	34.64
180.844	55.12
181.064	-24.75
181.283	1.88
181.503	-75.95
181.723	-14.51
181.943	-90.28
182.163	-30.89
182.383	-39.08
182.602	59.22
182.822	96.08
183.042	57.17
183.262	30.55
183.482	-2.22
183.701	-12.46
183.921	48.98
184.141	-0.17
184.361	81.75
184.58	32.6
184.8	-24.75
185.02	-4.27
185.239	12.12
185.459	-10.41
185.679	-8.36
185.898	12.12
186.118	-12.46
186.338	-57.51
186.557	96.08
186.777	-32.94
186.997	-20.65
187.216	69.46
187.436	-8.36
187.655	-24.75
187.875	-4.27
188.095	-51.37
188.314	42.84
188.534	14.17
188.753	57.17
188.973	20.31
189.192	65.36
189.412	63.32
189.631	48.98
189.851	-24.75
190.07	14.17
190.29	-12.46
190.509	83.8
190.729	3.93
190.948	69.46
191.168	98.13
191.387	-0.17
191.607	-61.61
191.826	71.51
192.045	38.74
192.265	-63.66
192.484	26.45
192.704	3.93
192.923	-55.47
193.142	3.93
193.362	40.79
193.581	24.4
193.8	87.89
194.02	40.79
194.239	-30.89
194.458	34.64
194.678	20.31
194.897	12.12
195.116	32.6
195.335	28.5
195.555	48.98
195.774	24.4
195.993	3.93
196.212	-47.27
196.432	38.74
196.651	-12.46
196.87	3.93
197.089	110.42
197.308	16.21
197.528	-14.51
197.747	-2.22
197.966	34.64
198.185	38.74
198.404	59.22
198.623	-0.17
198.842	32.6
199.062	-14.51
199.281	14.17
199.5	87.89
199.719	34.64
199.938	5.97
200.157	122.71
200.376	44.88
200.595	5.97
200.814	18.26
201.033	32.6
201.252	20.31
201.471	-8.36
201.69	34.64
201.909	-22.7
202.128	63.32
202.347	-41.13
202.566	22.36
202.785	-34.99
203.004	10.07
203.223	-12.46
203.442	-96.43
203.661	-43.18
203.879	10.07
204.098	-22.7
204.317	-51.37
204.536	61.27
204.755	-0.17
204.974	1.88
205.193	51.03
205.411	10.07
205.63	75.6
205.849	12.12
206.068	8.02
206.287	20.31
206.505	69.46
206.724	-8.36
206.943	-39.08
207.162	30.55
207.381	-10.41
207.599	-2.22
207.818	38.74
208.037	26.45
208.255	38.74
208.474	94.04
208.693	-20.65
208.911	-37.03
209.13	18.26
209.349	81.75
209.567	65.36
209.786	30.55
210.005	36.69
210.223	14.17
210.442	-59.56
210.661	69.46
210.879	14.17
211.098	-8.36
211.316	-34.99
211.535	1.88
211.753	-8.36
211.972	57.17
212.191	-28.84
212.409	5.97
212.628	81.75
212.846	10.07
213.065	26.45
213.283	83.8
213.502	-4.27
213.72	44.88
213.938	34.64
214.157	38.74
214.375	20.31
214.594	-2.22
214.812	91.99
215.031	51.03
215.249	-30.89
215.467	53.08
215.686	-8.36
215.904	30.55
216.122	24.4
216.341	57.17
216.559	67.41
216.778	51.03
216.996	3.93
217.214	32.6
217.432	8.02
217.651	-18.6
217.869	8.02
218.087	-10.41
218.306	-67.75
218.524	-45.23
218.742	-41.13
218.96	32.6
219.179	94.04
219.397	34.64
219.615	34.64
219.833	1.88
220.051	116.56
220.27	135
220.488	48.98
220.706	3.93
220.924	36.69
221.142	-67.75
221.36	-10.41
221.578	28.5
221.796	-57.51
222.015	42.84
222.233	67.41
222.451	24.4
222.669	87.89
222.887	-30.89
223.105	-18.6
223.323	-18.6
223.541	-45.23
223.759	24.4
223.977	-2.22
224.195	48.98
224.413	3.93
224.631	14.17
224.849	26.45
225.067	61.27
225.285	-59.56
225.503	-2.22
225.721	36.69
225.939	-16.55
226.157	18.26
226.375	102.23
226.592	-71.85
226.81	38.74
227.028	-34.99
227.246	81.75
227.464	16.21
227.682	34.64
227.9	-30.89
228.117	-8.36
228.335	28.5
228.553	-90.28
228.771	-37.03
228.989	77.65
229.206	-61.61
229.424	24.4
229.642	-12.46
229.86	3.93
230.077	32.6
230.295	55.12
230.513	-0.17
230.731	1.88
230.948	-14.51
231.166	-32.94
231.384	12.12
231.601	44.88
231.819	-4.27
232.037	24.4
232.254	26.45
232.472	14.17
232.689	-4.27
232.907	28.5
233.125	42.84
233.342	-59.56
233.56	36.69
233.777	40.79
233.995	-39.08
234.213	8.02
234.43	14.17
234.648	-24.75
234.865	8.02
235.083	-22.7
235.3	1.88
235.518	1.88
235.735	120.66
235.953	77.65
236.17	48.98
236.388	24.4
236.605	-6.31
236.822	57.17
237.04	-4.27
237.257	14.17
237.475	-53.42
237.692	16.21
237.909	14.17
238.127	63.32
238.344	36.69
238.562	81.75
238.779	-14.51
238.996	16.21
239.214	18.26
239.431	-2.22
239.648	-67.75
239.865	20.31
240.083	32.6
240.3	71.51
240.517	-6.31
240.735	-4.27
240.952	48.98
241.169	-26.79
241.386	44.88
241.603	28.5
241.821	-59.56
242.038	102.23
242.255	18.26
242.472	24.4
242.689	-0.17
242.907	67.41
243.124	32.6
243.341	-18.6
243.558	8.02
243.775	1.88
243.992	69.46
244.209	26.45
244.426	1.88
244.643	128.85
244.86	30.55
245.078	44.88
245.295	24.4
245.512	79.7
245.729	-24.75
245.946	42.84
246.163	38.74
246.38	51.03
246.597	5.97
246.814	1.88
247.031	-45.23
247.248	-18.6
247.464	-32.94
247.681	22.36
247.898	22.36
248.115	106.32
248.332	77.65
248.549	34.64
248.766	-0.17
248.983	-86.19
249.2	22.36
249.417	51.03
249.633	63.32
249.85	10.07
250.067	65.36
250.284	30.55
250.501	5.97
250.717	14.17
250.934	-39.08
251.151	-22.7
251.368	38.74
251.585	3.93
251.801	12.12
252.018	-24.75
252.235	18.26
252.451	-10.41
252.668	3.93
252.885	59.22
253.102	65.36
253.318	32.6
253.535	14.17
253.752	-73.9
253.968	-24.75
254.185	65.36
254.401	51.03
254.618	-20.65
254.835	24.4
255.051	65.36
255.268	30.55
255.484	38.74
255.701	16.21
255.917	-57.51
256.134	12.12
256.351	79.7
256.567	14.17
256.784	63.32
257	-51.37
257.217	40.79
257.433	12.12
257.65	100.18
257.866	61.27
258.082	-118.95
258.299	40.79
258.515	83.8
258.732	18.26
258.948	-41.13
259.165	26.45
259.381	-43.18
259.597	-0.17
259.814	18.26
260.03	5.97
260.246	26.45
260.463	14.17
260.679	77.65
260.895	65.36
261.112	71.51
261.328	-22.7
261.544	-24.75
261.761	55.12
261.977	-18.6
262.193	-4.27
262.409	26.45
262.626	24.4
262.842	112.47
263.058	-0.17
263.274	30.55
263.49	-26.79
263.707	38.74
263.923	14.17
264.139	-45.23
264.355	18.26
264.571	26.45
264.787	61.27
265.004	71.51
265.22	-8.36
265.436	-39.08
265.652	-8.36
265.868	-8.36
266.084	-14.51
266.3	-20.65
266.516	24.4
266.732	3.93
266.948	3.93
267.164	-63.66
267.38	12.12
267.596	-26.79
267.812	18.26
268.028	1.88
268.244	-67.75
268.46	10.07
268.676	-26.79
268.892	3.93
269.108	-12.46
269.324	-6.31
269.54	1.88
269.756	71.51
269.972	8.02
270.188	8.02
270.403	-69.8
270.619	-30.89
270.835	46.93
271.051	24.4
271.267	-39.08
271.483	3.93
271.698	-14.51
271.914	3.93
272.13	-47.27
272.346	81.75
272.562	-20.65
272.777	61.27
272.993	55.12
273.209	22.36
273.425	69.46
273.64	-18.6
273.856	57.17
274.072	8.02
274.287	-28.84
274.503	34.64
274.719	26.45
274.934	-16.55
275.15	-14.51
275.366	1.88
275.581	-14.51
275.797	40.79
276.012	22.36
276.228	55.12
276.444	-2.22
276.659	24.4
276.875	5.97
277.09	96.08
277.306	-18.6
277.521	14.17
277.737	18.26
277.952	-47.27
278.168	61.27
278.383	67.41
278.599	36.69
278.814	71.51
279.03	51.03
279.245	81.75
279.461	40.79
279.676	-24.75
279.892	-43.18
280.107	38.74
280.322	-39.08
280.538	-30.89
280.753	55.12
280.969	-4.27
281.184	28.5
281.399	3.93
281.615	48.98
281.83	48.98
282.045	-61.61
282.26	38.74
282.476	38.74
282.691	59.22
282.906	24.4
283.122	40.79
283.337	73.56
283.552	24.4
283.767	1.88
283.983	87.89
284.198	-41.13
284.413	59.22
284.628	-18.6
284.843	120.66
285.058	12.12
285.274	-49.32
285.489	-10.41
285.704	61.27
285.919	18.26
286.134	20.31
286.349	-32.94
286.564	73.56
286.779	51.03
286.995	-14.51
287.21	-49.32
287.425	30.55
287.64	10.07
287.855	-39.08
288.07	-30.89
288.285	24.4
288.5	73.56
288.715	79.7
288.93	-30.89
289.145	16.21
289.36	-28.84
289.575	40.79
289.79	-0.17
290.004	40.79
290.219	32.6
290.434	8.02
290.649	46.93
290.864	30.55
291.079	-14.51
291.294	24.4
291.509	-41.13
291.724	-6.31
291.938	20.31
292.153	65.36
292.368	1.88
292.583	20.31
292.798	36.69
293.012	36.69
293.227	28.5
293.442	18.26
293.657	-47.27
293.871	20.31
294.086	1.88
294.301	73.56
294.516	-12.46
294.73	26.45
294.945	83.8
295.16	1.88
295.374	14.17
295.589	46.93
295.804	79.7
296.018	14.17
296.233	114.52
296.447	48.98
296.662	22.36
296.877	10.07
297.091	32.6
297.306	-8.36
297.52	-73.9
297.735	44.88
297.949	-24.75
298.164	104.28
298.378	77.65
298.593	71.51
298.807	-53.42
299.022	24.4
299.236	5.97
299.451	75.6
299.665	22.36
299.88	79.7
300.094	-75.95
300.309	-6.31
300.523	44.88
300.737	16.21
300.952	57.17
301.166	63.32
301.381	-4.27
301.595	38.74
301.809	51.03
302.024	-24.75
302.238	1.88
302.452	67.41
302.667	32.6
302.881	48.98
303.095	-6.31
303.309	-18.6
303.524	8.02
303.738	73.56
303.952	14.17
304.166	-8.36
304.381	-69.8
304.595	34.64
304.809	-61.61
305.023	-86.19
305.237	-77.99
305.452	-41.13
305.666	57.17
305.88	10.07
306.094	18.26
306.308	-12.46
306.522	36.69
306.736	-0.17
306.95	36.69
307.164	53.08
307.379	63.32
307.593	65.36
307.807	71.51
308.021	14.17
308.235	55.12
308.449	57.17
308.663	28.5
308.877	8.02
309.091	40.79
309.305	67.41
309.519	-26.79
309.733	14.17
309.947	38.74
310.161	-16.55
310.374	22.36
310.588	-4.27
310.802	10.07
311.016	-0.17
311.23	12.12
311.444	53.08
311.658	30.55
311.872	61.27
312.085	-37.03
312.299	53.08
312.513	79.7
312.727	36.69
312.941	85.84
313.154	77.65
313.368	-45.23
313.582	-20.65
313.796	55.12
314.009	10.07
314.223	-0.17
314.437	89.94
314.651	-18.6
314.864	55.12
315.078	-55.47
315.292	55.12
315.505	18.26
315.719	-8.36
315.933	1.88
316.146	8.02
316.36	-34.99
316.573	-26.79
316.787	71.51
317.001	14.17
317.214	-37.03
317.428	28.5
317.641	-57.51
317.855	-12.46
318.068	38.74
318.282	34.64
318.495	40.79
318.709	18.26
318.922	36.69
319.136	65.36
319.349	26.45
319.563	81.75
319.776	18.26
319.99	-16.55
320.203	79.7
320.417	-26.79
320.63	-8.36
320.843	61.27
321.057	18.26
321.27	-4.27
321.483	79.7
321.697	61.27
321.91	57.17
322.124	-10.41
322.337	24.4
322.55	51.03
322.763	-26.79
322.977	38.74
323.19	14.17
323.403	-37.03
323.617	-8.36
323.83	38.74
324.043	-77.99
324.256	46.93
324.469	28.5
324.683	-20.65
324.896	59.22
325.109	40.79
325.322	-30.89
325.535	-6.31
325.748	53.08
325.962	32.6
326.175	67.41
326.388	38.74
326.601	73.56
326.814	-34.99
327.027	8.02
327.24	10.07
327.453	51.03
327.666	67.41
327.879	-12.46
328.092	61.27
328.305	12.12
328.518	-18.6
328.731	-16.55
328.944	18.26
329.157	57.17
329.37	53.08
329.583	65.36
329.796	-8.36
330.009	-18.6
330.222	85.84
330.435	57.17
330.648	32.6
330.861	18.26
331.073	30.55
331.286	-30.89
331.499	-30.89
331.712	-41.13
331.925	24.4
332.138	-6.31
332.35	51.03
332.563	48.98
332.776	91.99
332.989	8.02
333.202	48.98
333.414	53.08
333.627	8.02
333.84	20.31
334.053	51.03
334.265	1.88
334.478	-32.94
334.691	36.69
334.903	28.5
335.116	28.5
335.329	-18.6
335.541	-2.22
335.754	108.37
335.966	63.32
336.179	-32.94
336.392	-69.8
336.604	55.12
336.817	73.56
337.029	67.41
337.242	-32.94
337.454	73.56
337.667	-26.79
337.88	73.56
338.092	55.12
338.305	34.64
338.517	69.46
338.729	-16.55
338.942	77.65
339.154	-12.46
339.367	-28.84
339.579	14.17
339.792	14.17
340.004	14.17
340.217	20.31
340.429	22.36
340.641	30.55
340.854	-57.51
341.066	28.5
341.278	-6.31
341.491	40.79
341.703	-26.79
341.915	5.97
342.128	91.99
342.34	73.56
342.552	-16.55
342.764	63.32
342.977	12.12
343.189	-2.22
343.401	132.95
343.613	-45.23
343.826	26.45
344.038	-8.36
344.25	73.56
344.462	-16.55
344.674	-4.27
344.886	30.55
345.099	59.22
345.311	51.03
345.523	-20.65
345.735	26.45
345.947	83.8
346.159	63.32
346.371	65.36
346.583	34.64
346.795	85.84
347.007	55.12
347.219	-41.13
347.431	5.97
347.643	102.23
347.855	61.27
348.067	57.17
348.279	42.84
348.491	40.79
348.703	34.64
348.915	-18.6
349.127	36.69
349.339	-0.17
349.551	38.74
349.763	65.36
349.975	-59.56
350.187	55.12
350.399	-28.84
350.61	20.31
350.822	-0.17
351.034	79.7
351.246	51.03
351.458	-16.55
351.669	16.21
351.881	73.56
352.093	18.26
352.305	42.84
352.517	135
352.728	69.46
352.94	85.84
353.152	46.93
353.363	-59.56
353.575	67.41
353.787	-6.31
353.999	16.21
354.21	53.08
354.422	-34.99
354.633	-26.79
354.845	65.36
355.057	89.94
355.268	77.65
355.48	34.64
355.692	67.41
355.903	14.17
356.115	-18.6
356.326	22.36
356.538	79.7
356.749	20.31
356.961	71.51
357.172	26.45
357.384	59.22
357.595	42.84
357.807	38.74
358.018	-2.22
358.23	75.6
358.441	1.88
358.653	106.32
358.864	-28.84
359.075	-18.6
359.287	-24.75
359.498	110.42
359.709	53.08
359.921	48.98
360.132	34.64
360.344	120.66
360.555	16.21
360.766	51.03
360.977	38.74
361.189	28.5
361.4	30.55
361.611	48.98
361.823	65.36
362.034	38.74
362.245	-26.79
362.456	55.12
362.667	48.98
362.879	1.88
363.09	12.12
363.301	67.41
363.512	57.17
363.723	-55.47
363.935	-18.6
364.146	30.55
364.357	-20.65
364.568	100.18
364.779	14.17
364.99	114.52
365.201	34.64
365.412	161.62
365.623	-4.27
365.834	22.36
366.045	34.64
366.256	46.93
366.467	-43.18
366.678	16.21
366.889	28.5
367.1	57.17
367.311	-18.6
367.522	75.6
367.733	-32.94
367.944	36.69
368.155	3.93
368.366	28.5
368.577	20.31
368.788	24.4
368.999	-32.94
369.209	-0.17
369.42	91.99
369.631	69.46
369.842	69.46
370.053	-8.36
370.264	63.32
370.474	32.6
370.685	48.98
370.896	14.17
371.107	51.03
371.317	75.6
371.528	63.32
371.739	63.32
371.95	94.04
372.16	-10.41
372.371	-90.28
372.582	-6.31
372.792	18.26
373.003	-8.36
373.214	26.45
373.424	36.69
373.635	18.26
373.846	81.75
374.056	69.46
374.267	32.6
374.477	24.4
374.688	42.84
374.898	83.8
375.109	-4.27
375.319	16.21
375.53	42.84
375.74	-45.23
375.951	-16.55
376.161	22.36
376.372	114.52
376.582	-26.79
376.793	42.84
377.003	14.17
377.214	81.75
377.424	10.07
377.635	63.32
377.845	5.97
378.055	69.46
378.266	40.79
378.476	28.5
378.686	61.27
378.897	16.21
379.107	40.79
379.317	14.17
379.528	51.03
379.738	-20.65
379.948	-34.99
380.158	42.84
380.369	38.74
380.579	42.84
380.789	38.74
380.999	3.93
381.21	69.46
381.42	91.99
381.63	26.45
381.84	1.88
382.05	44.88
382.261	79.7
382.471	63.32
382.681	32.6
382.891	30.55
383.101	16.21
383.311	46.93
383.521	-12.46
383.731	22.36
383.941	89.94
384.151	14.17
384.361	-16.55
384.571	96.08
384.781	36.69
384.991	106.32
385.201	59.22
385.411	61.27
385.621	32.6
385.831	61.27
386.041	24.4
386.251	-39.08
386.461	-32.94
386.671	46.93
386.881	96.08
387.091	61.27
387.301	63.32
387.511	24.4
387.72	8.02
387.93	65.36
388.14	57.17
388.35	1.88
388.56	46.93
388.769	3.93
388.979	67.41
389.189	63.32
389.399	46.93
389.609	26.45
389.818	-18.6
390.028	-8.36
390.238	126.8
390.447	5.97
390.657	57.17
390.867	132.95
391.076	48.98
391.286	40.79
391.496	44.88
391.705	53.08
391.915	22.36
392.125	40.79
392.334	-24.75
392.544	69.46
392.753	59.22
392.963	22.36
393.172	53.08
393.382	10.07
393.591	34.64
393.801	57.17
394.01	53.08
394.22	81.75
394.429	-2.22
394.639	34.64
394.848	65.36
395.058	26.45
395.267	3.93
395.477	46.93
395.686	-6.31
395.895	110.42
396.105	57.17
396.314	63.32
396.524	28.5
396.733	36.69
396.942	91.99
397.152	24.4
397.361	73.56
397.57	145.24
397.78	102.23
397.989	57.17
398.198	186.19
398.407	63.32
398.617	83.8
398.826	36.69
399.035	73.56
399.244	112.47
399.453	81.75
399.663	55.12
399.872	112.47
400.081	51.03
400.29	79.7
400.499	83.8
400.708	118.61
400.917	98.13
401.127	89.94
401.336	-14.51
401.545	94.04
401.754	108.37
401.963	75.6
402.172	83.8
402.381	91.99
402.59	126.8
402.799	96.08
403.008	73.56
403.217	122.71
403.426	89.94
403.635	63.32
403.844	34.64
404.053	22.36
404.262	137.04
404.471	55.12
404.68	126.8
404.888	147.28
405.097	57.17
405.306	98.13
405.515	165.71
405.724	155.47
405.933	112.47
406.142	67.41
406.35	124.76
406.559	147.28
406.768	214.87
406.977	106.32
407.185	126.8
407.394	106.32
407.603	149.33
407.812	149.33
408.02	190.29
408.229	163.67
408.438	294.74
408.646	85.84
408.855	202.58
409.064	253.78
409.272	180.05
409.481	182.1
409.69	167.76
409.898	173.91
410.107	221.01
410.315	261.97
410.524	266.07
410.733	315.22
410.941	200.53
411.15	245.59
411.358	366.42
411.567	278.35
411.775	290.64
411.984	231.25
412.192	352.08
412.401	329.55
412.609	272.21
412.818	460.62
413.026	405.33
413.234	327.5
413.443	395.09
413.651	376.66
413.86	423.76
414.068	493.39
414.276	493.39
414.485	479.05
414.693	513.87
414.901	503.63
415.11	501.58
415.318	524.11
415.526	614.22
415.734	499.53
415.943	581.45
416.151	698.19
416.359	624.46
416.567	608.08
416.776	614.22
416.984	743.24
417.192	749.39
417.4	726.86
417.608	642.89
417.817	847.69
418.025	827.21
418.233	917.32
418.441	833.35
418.649	868.17
418.857	997.19
419.065	1001.29
419.273	1077.06
419.481	968.52
419.689	1060.68
419.897	1150.79
420.105	1165.12
420.313	1226.56
420.521	1273.67
420.729	1314.63
420.937	1257.28
421.145	1357.63
421.353	1390.4
421.561	1417.02
421.769	1492.8
421.977	1621.82
422.185	1539.9
422.393	1681.21
422.601	1709.88
422.809	1763.13
423.017	1701.69
423.224	1830.71
423.432	2008.89
423.64	1931.06
423.848	2182.96
424.056	2012.98
424.263	2178.87
424.471	2172.72
424.679	2217.78
424.887	2297.65
425.094	2375.47
425.302	2426.67
425.51	2500.4
425.718	2391.86
425.925	2606.89
426.133	2674.48
426.341	2770.73
426.548	2971.43
426.756	3004.2
426.964	3043.11
427.171	3249.96
427.379	3209
427.586	3331.87
427.794	3397.41
428.001	3548.96
428.209	3729.18
428.417	3690.27
428.624	3929.88
428.832	3772.19
429.039	3878.68
429.247	3823.39
429.454	4224.79
429.662	4732.69
429.869	4364.05
430.076	4552.46
430.284	4519.7
430.491	4667.15
430.699	4861.71
430.906	4890.38
431.114	5052.17
431.321	5148.42
431.528	5244.68
431.736	5721.85
431.943	5789.44
432.15	5641.98
432.358	5656.32
432.565	6000.38
432.772	5981.95
432.979	6362.87
433.187	6475.51
433.394	6659.82
433.601	7026.41
433.808	7079.66
434.016	6932.2
434.223	7149.29
434.43	7696.1
434.637	7290.6
434.844	7902.94
435.052	8062.68
435.259	8036.06
435.466	8009.44
435.673	7798.49
435.88	8560.34
436.087	8910.54
436.294	8935.12
436.501	8705.74
436.708	8943.31
436.915	9410.25
437.122	9649.86
437.329	9637.57
437.537	9998.01
437.743	10143.42
437.95	10030.78
438.157	10458.81
438.364	10874.54
438.571	10819.25
438.778	11024.05
438.985	11787.94
439.192	11464.36
439.399	11726.5
439.606	11722.4
439.813	12164.76
440.02	12955.28
440.227	12760.72
440.433	12691.09
440.64	12965.52
440.847	12701.33
441.054	13342.35
441.261	14192.25
441.467	14057.09
441.674	14210.68
441.881	14724.72
442.088	14554.74
442.294	14771.83
442.501	15040.11
442.708	15476.33
442.914	15910.5
443.121	16555.61
443.328	16246.37
443.534	17276.49
443.741	16703.06
443.948	16733.78
444.154	17823.3
444.361	17847.88
444.568	17708.62
444.774	17755.72
444.981	18081.35
445.187	18306.62
445.394	19168.82
445.6	18964.02
445.807	20968.98
446.013	20035.11
446.22	20373.02
446.426	20968.98
446.633	21241.36
446.839	21939.72
447.046	21007.89
447.252	22382.08
447.459	22351.36
447.665	22408.7
447.871	23303.67
448.078	24458.72
448.284	23117.3
448.491	23735.79
448.697	24860.12
448.903	25396.69
449.11	25155.03
449.316	24921.56
449.522	25273.81
449.728	26035.66
449.935	26142.15
450.141	26287.56
450.347	26850.75
450.553	26129.86
450.76	26219.97
450.966	26885.56
451.172	26783.16
451.378	27610.54
451.584	27106.74
451.791	27583.92
451.997	27536.82
452.203	27977.13
452.409	28386.72
452.615	27866.54
452.821	26959.29
453.027	26727.87
453.233	28274.09
453.44	27051.45
453.646	27495.86
453.852	27499.95
454.058	27735.47
454.264	26903.99
454.47	27686.32
454.676	27133.37
454.882	27932.08
455.088	25404.88
455.294	25638.35
455.5	26215.88
455.705	26455.49
455.911	25458.13
456.117	24964.57
456.323	24692.19
456.529	23449.07
456.735	24454.62
456.941	23809.51
457.147	23223.79
457.352	22386.18
457.558	22486.53
457.764	22396.42
457.97	21904.9
458.176	21804.55
458.381	21509.65
458.587	20393.5
458.793	20350.49
458.999	19605.03
459.204	20817.43
459.41	20026.92
459.616	18716.22
459.821	19002.93
460.027	18687.54
460.233	18304.57
460.438	17421.9
460.644	17716.81
460.85	16758.36
461.055	16473.69
461.261	16830.04
461.466	15482.47
461.672	14947.95
461.878	16035.42
462.083	14874.23
462.289	14601.85
462.494	14472.82
462.7	13819.52
462.905	13346.44
463.111	13919.87
463.316	14059.13
463.522	13622.92
463.727	13696.64
463.932	13610.63
464.138	13340.3
464.343	13497.99
464.549	13110.93
464.754	13606.53
464.959	13473.42
465.165	13242
465.37	12639.89
465.575	12549.78
465.781	12897.94
465.986	13354.63
466.191	12803.73
466.397	12250.78
466.602	11658.92
466.807	12230.3
467.012	12373.66
467.218	12252.83
467.423	12060.32
467.628	12023.45
467.833	12666.52
468.038	11916.96
468.244	11529.89
468.449	12187.29
468.654	12002.97
468.859	11665.06
469.064	11669.16
469.269	11130.54
469.474	11318.95
469.679	11382.44
469.885	11060.91
470.09	11505.32
470.295	11130.54
470.5	11189.93
470.705	11028.14
470.91	10964.65
471.115	10661.55
471.32	11081.39
471.525	10868.4
471.73	10620.6
471.935	10503.86
472.139	10317.5
472.344	10081.98
472.549	10235.58
472.754	10065.6
472.959	9830.08
473.164	9619.14
473.369	9600.71
473.574	9793.22
473.778	9877.18
473.983	9709.25
474.188	9574.08
474.393	9182.92
474.598	9363.14
474.802	9187.02
475.007	9121.48
475.212	9244.36
475.417	8705.74
475.621	8859.34
475.826	8808.14
476.031	8675.02
476.235	8464.08
476.44	8603.35
476.645	8410.84
476.849	8390.36
477.054	8453.84
477.259	8232.66
477.463	8359.64
477.668	7966.43
477.872	8191.7
478.077	7780.06
478.282	7788.25
478.486	7648.99
478.691	7683.81
478.895	7700.19
479.1	7601.89
479.304	7493.35
479.509	7345.89
479.713	7491.3
479.918	7274.21
480.122	7153.38
480.326	7487.2
480.531	7288.55
480.735	7296.74
480.94	7141.1
481.144	7476.96
481.348	7100.14
481.553	7024.36
481.757	6909.68
481.961	7137
482.166	7220.97
482.37	7085.8
482.574	7010.03
482.778	7202.54
482.983	7233.25
483.187	6971.11
483.391	7057.13
483.595	6952.68
483.8	6926.06
484.004	6973.16
484.208	6936.3
484.412	7075.56
484.616	7044.84
484.821	6999.79
485.025	6756.08
485.229	7159.53
485.433	7012.07
485.637	6950.64
485.841	6940.4
486.045	6895.34
486.249	6833.9
486.453	7030.51
486.657	6833.9
486.861	7042.79
487.065	6934.25
487.269	6971.11
487.473	6633.2
487.677	6932.2
487.881	7001.83
488.085	6948.59
488.289	7036.65
488.493	6862.57
488.697	7173.86
488.901	7018.22
489.105	6999.79
489.309	7050.99
489.512	6993.64
489.716	6905.58
489.92	7188.2
490.124	7050.99
490.328	7304.93
490.531	7065.32
490.735	7145.19
490.939	7204.58
491.143	7173.86
491.346	7276.26
491.55	7294.69
491.754	7188.2
491.958	7300.84
492.161	7321.32
492.365	7345.89
492.569	7286.5
492.772	7423.72
492.976	7397.09
493.18	7456.48
493.383	7333.61
493.587	7579.36
493.79	7534.31
493.994	7454.44
494.197	7669.47
494.401	7730.91
494.605	7673.57
494.808	7769.82
495.012	7892.7
495.215	8044.25
495.419	8005.34
495.622	7923.42
495.825	7999.2
496.029	8099.55
496.232	8492.76
496.436	8191.7
496.639	8421.08
496.843	8306.39
497.046	8515.28
497.249	8457.94
497.453	8652.5
497.656	8736.46
497.859	8701.65
498.063	8943.31
498.266	9146.06
498.469	8931.02
498.673	9213.64
498.876	9133.77
499.079	9539.27
499.282	9326.28
499.485	9656
499.689	9541.32
499.892	9807.55
500.095	9846.46
500.298	10034.88
500.501	10163.9
500.705	10315.45
500.908	10245.82
501.111	10407.61
501.314	10653.36
501.517	10702.51
501.72	10899.12
501.923	10634.93
502.126	11077.29
502.329	11114.16
502.532	11337.38
502.735	11224.75
502.938	11398.82
503.141	11675.3
503.344	11689.63
503.547	11622.05
503.75	11896.48
503.953	12009.12
504.156	12187.29
504.359	12144.28
504.562	12433.05
504.765	12748.43
504.968	12879.5
505.17	12963.47
505.373	13069.97
505.576	13031.05
505.779	13211.28
505.982	13244.04
506.185	13618.82
506.387	13553.29
506.59	13739.65
506.793	13973.12
506.996	14114.43
507.198	14585.46
507.401	14298.75
507.604	14739.06
507.807	14753.4
508.009	14950
508.212	15271.53
508.415	15189.61
508.617	15398.51
508.82	15771.24
509.022	15416.94
509.225	16191.07
509.428	16062.05
509.63	16223.84
509.833	15971.94
510.035	16627.29
510.238	16414.3
510.44	16623.19
510.643	17190.48
510.845	17301.07
511.048	17051.22
511.25	17278.54
511.453	17600.07
511.655	18150.98
511.858	17931.84
512.06	18030.15
512.262	18345.53
512.465	18380.35
512.667	18544.19
512.87	18947.64
513.072	19047.99
513.274	19217.97
513.477	19504.68
513.679	19461.68
513.881	19977.76
514.084	20039.2
514.286	19965.48
514.488	20125.22
514.69	20612.63
514.893	21032.47
515.095	20786.71
515.297	21310.99
515.499	21231.12
515.701	21478.93
515.904	21689.87
516.106	21751.31
516.308	22160.9
516.51	22486.53
516.712	22445.57
516.914	22738.43
517.116	23139.83
517.318	23174.64
517.52	23178.74
517.722	23688.68
517.925	23934.44
518.127	23963.11
518.329	24614.37
518.531	24221.16
518.733	24745.44
518.935	24802.78
519.136	25081.3
519.338	25630.16
519.54	25538
519.742	25552.34
519.944	25980.36
520.146	26551.74
520.348	26545.6
520.55	26955.19
520.752	26615.23
520.954	27358.64
521.155	26877.37
521.357	27395.51
521.559	27899.31
521.761	28208.55
521.963	27991.47
522.164	28067.24
522.366	28351.91
522.568	28532.13
522.77	28790.17
522.971	29328.79
523.173	29033.88
523.375	29412.76
523.576	29504.92
523.778	29402.52
523.98	29853.07
524.181	30266.76
524.383	30098.83
524.584	30356.87
524.786	30524.8
524.988	29889.93
525.189	30877.05
525.391	31106.43
525.592	31102.33
525.794	31001.98
525.995	31323.51
526.197	31311.22
526.398	31368.57
526.6	31753.58
526.801	31980.91
527.003	31907.18
527.204	31686
527.406	32488.81
527.607	32396.65
527.808	32648.55
528.01	32056.68
528.211	32140.65
528.412	33090.91
528.614	32806.24
528.815	32882.02
529.016	33045.85
529.218	32728.42
529.419	33287.51
529.62	32918.88
529.822	33201.5
530.023	33295.71
530.224	33396.06
530.425	33142.11
530.626	32890.21
530.828	33312.09
531.029	33594.71
531.23	33600.85
531.431	33441.11
531.632	33525.08
531.833	33772.88
532.035	33676.63
532.236	33506.65
532.437	33807.7
532.638	33738.07
532.839	33719.63
533.04	33852.75
533.241	33252.7
533.442	34198.86
533.643	33738.07
533.844	33561.94
534.045	34147.66
534.246	33475.93
534.447	33922.38
534.648	33955.15
534.849	34018.64
535.05	33533.27
535.251	33957.2
535.451	33701.2
535.652	33930.58
535.853	33803.6
536.054	33822.03
536.255	33967.44
536.456	33576.28
536.657	33838.42
536.857	33776.98
537.058	33639.76
537.259	34198.86
537.46	33819.99
537.66	33553.75
537.861	33893.71
538.062	33607
538.263	34032.97
538.463	33715.54
538.664	33645.91
538.865	33824.08
539.065	34104.65
539.266	33437.02
539.466	34178.38
539.667	33457.49
539.868	34000.21
540.068	33594.71
540.269	33750.35
540.469	33797.46
540.67	33500.5
540.87	33109.34
541.071	33729.87
541.271	33654.1
541.472	33539.41
541.672	33480.02
541.873	33619.28
542.073	33023.33
542.274	33924.43
542.474	33639.76
542.675	33527.13
542.875	33916.24
543.075	33238.36
543.276	33281.37
543.476	33639.76
543.676	33150.3
543.877	33719.63
544.077	33469.78
544.277	33381.72
544.478	33658.2
544.678	33512.79
544.878	33539.41
545.078	33320.28
545.279	33037.66
545.479	33138.01
545.679	33463.64
545.879	33033.57
546.079	33037.66
546.28	33523.03
546.48	32974.17
546.68	33377.62
546.88	33373.53
547.08	33416.54
547.28	33369.43
547.48	33031.52
547.68	33357.14
547.88	33115.48
548.081	33301.85
548.281	32974.17
548.481	33052
548.681	33353.05
548.881	33496.41
549.081	33021.28
549.28	33211.74
549.48	33402.2
549.68	33221.98
549.88	33688.92
550.08	32976.22
550.28	33361.24
550.48	32877.92
550.68	33453.4
550.88	32949.6
551.08	33099.1
551.279	33236.31
551.479	33207.64
551.679	33221.98
551.879	33181.02
552.079	33217.88
552.278	33043.81
552.478	33002.85
552.678	33109.34
552.878	33494.36
553.077	33355.1
553.277	32673.12
553.477	33299.8
553.676	33076.57
553.876	33033.57
554.076	33224.03
554.275	32869.73
554.475	32484.71
554.674	33150.3
554.874	33140.06
555.074	33133.92
555.273	33410.39
555.473	33002.85
555.672	32716.13
555.872	32783.71
556.071	32890.21
556.271	33183.07
556.47	32851.3
556.67	32474.47
556.869	32615.78
557.068	33078.62
557.268	32642.4
557.467	32939.36
557.667	32632.16
557.866	32826.72
558.065	32759.14
558.265	32402.79
558.464	32550.24
558.663	32638.31
558.863	32107.88
559.062	32904.54
559.261	32286.06
559.461	32728.42
559.66	32353.64
559.859	32372.07
560.058	32066.92
560.258	32331.11
560.457	32073.07
560.656	32261.48
560.855	31985.01
561.054	32345.45
561.253	31985.01
561.453	32130.41
561.652	32116.08
561.851	32152.94
562.05	31946.09
562.249	31909.23
562.448	32152.94
562.647	31530.36
562.846	31487.35
563.045	31894.89
563.244	31358.33
563.443	32032.11
563.642	31276.41
563.841	31071.61
564.04	31497.59
564.239	31634.8
564.438	31065.47
564.637	31589.75
564.836	31284.6
565.035	31112.57
565.234	31085.95
565.432	30918.01
565.631	30524.8
565.83	30576
566.029	30653.83
566.228	30492.04
566.427	30717.31
566.625	30369.16
566.824	29990.28
567.023	30705.02
567.222	30066.06
567.42	30307.72
567.619	30174.6
567.818	30162.31
568.016	30119.31
568.215	29980.04
568.414	30021
568.612	29937.04
568.811	29668.75
569.01	29842.83
569.208	29433.24
569.407	29558.16
569.605	29199.77
569.804	29793.68
570.002	29263.25
570.201	29197.72
570.4	29099.42
570.598	29005.21
570.797	28931.48
570.995	29101.47
571.193	28798.37
571.392	29418.9
571.59	28759.45
571.789	28634.53
571.987	28577.19
572.186	28405.16
572.384	28290.47
572.582	28497.31
572.781	28509.6
572.979	27790.77
573.177	28196.26
573.376	28128.68
573.574	27973.03
573.772	27985.32
573.971	27692.46
574.169	27686.32
574.367	27557.3
574.565	27532.72
574.763	27413.94
574.962	27661.74
575.16	27196.85
575.358	27387.32
575.556	27065.78
575.754	27139.51
575.952	26949.05
576.151	27123.13
576.349	26695.1
576.547	27084.22
576.745	26844.6
576.943	26947
577.141	26682.81
577.339	26652.09
577.537	26410.43
577.735	26320.32
577.933	26027.46
578.131	26895.8
578.329	25949.64
578.527	26004.94
578.725	26154.44
578.923	26002.89
579.121	25744.84
579.319	25656.78
579.516	26064.33
579.714	25908.68
579.912	25583.05
580.11	25648.59
580.308	25583.05
580.506	25419.22
580.704	24952.28
580.901	25562.58
581.099	25521.62
581.297	24796.63
581.495	24864.22
581.692	25079.25
581.89	25019.86
582.088	25290.2
582.285	24776.16
582.483	24845.79
582.681	24745.44
582.878	24849.88
583.076	24552.93
583.274	24552.93
583.471	23924.2
583.669	24323.55
583.866	23971.3
584.064	24290.79
584.262	23856.62
584.459	24180.2
584.657	23987.69
584.854	24270.31
585.052	23899.62
585.249	23688.68
585.447	23752.17
585.644	23485.93
585.841	23789.03
586.039	23496.17
586.236	23375.34
586.434	23254.51
586.631	23186.93
586.828	23217.65
587.026	23139.83
587.223	22967.8
587.42	23016.95
587.618	22975.99
587.815	22734.33
588.012	22703.61
588.21	22609.4
588.407	22853.11
588.604	22396.42
588.801	22679.04
588.999	22574.59
589.196	22345.22
589.393	22361.6
589.59	22324.74
589.787	22154.76
589.984	22072.84
590.182	21935.62
590.379	22023.69
590.576	21558.8
590.773	21927.43
590.97	21489.17
591.167	21779.98
591.364	21612.04
591.561	21501.45
591.758	21704.2
591.955	21597.71
592.152	21618.19
592.349	21181.97
592.546	21360.14
592.743	21263.89
592.94	20866.58
593.137	21108.24
593.334	21210.64
593.531	21036.56
593.727	21122.58
593.924	20903.45
594.121	20835.86
594.318	20610.59
594.515	20796.95
594.712	21143.06
594.908	20700.7
595.105	20534.81
595.302	20600.35
595.499	20403.74
595.696	20373.02
595.892	20383.26
596.089	20123.17
596.286	20426.27
596.482	20104.74
596.679	20209.18
596.876	20102.69
597.072	19869.22
597.269	19994.15
597.466	19725.86
597.662	19977.76
597.859	19742.25
598.055	19885.61
598.252	19504.68
598.448	19559.98
598.645	19488.3
598.841	19144.24
599.038	19273.26
599.234	19373.61
599.431	19459.63
599.627	19142.19
599.824	19308.08
600.02	18953.78
600.217	19267.12
600.413	18925.11
600.609	18943.54
600.806	18757.18
601.002	18787.89
601.198	18607.67
601.395	18701.88
601.591	18468.41
601.787	18247.23
601.984	18497.08
602.18	18484.8
602.376	18482.75
602.572	18386.49
602.769	18368.06
602.965	17950.28
603.161	18148.93
603.357	18159.17
603.553	18138.69
603.75	18241.09
603.946	17958.47
604.142	18103.87
604.338	17872.45
604.534	17899.08
604.73	17954.37
604.926	17714.76
605.122	17663.56
605.318	17634.89
605.514	17708.62
605.71	17364.56
605.906	17444.43
606.102	17243.73
606.298	17352.27
606.494	17239.63
606.69	17538.63
606.886	17477.19
607.082	17010.26
607.278	17090.13
607.474	16883.28
607.67	17135.18
607.866	16885.33
608.062	17065.55
608.257	16789.08
608.453	16852.56
608.649	16821.84
608.845	16764.5
609.041	16709.21
609.236	16500.31
609.432	16852.56
609.628	16723.54
609.824	16328.28
610.019	16617.05
610.215	16512.6
610.411	16662.1
610.606	16248.41
610.802	16621.14
610.998	16424.54
611.193	16313.95
611.389	16119.39
611.584	16410.2
611.78	16021.09
611.976	16025.18
612.171	16154.21
612.367	16121.44
612.562	15959.65
612.758	15767.14
612.953	16045.66
613.149	15986.27
613.344	15865.44
613.539	16229.98
613.735	15965.79
613.93	16047.71
614.126	15912.55
614.321	15763.04
614.517	15814.24
614.712	15572.58
614.907	15627.88
615.103	15509.1
615.298	15609.45
615.493	15447.66
615.688	15480.43
615.884	15677.03
616.079	15382.12
616.274	15300.2
616.47	15222.38
616.665	15253.1
616.86	15468.14
617.055	15406.7
617.25	15357.55
617.445	14972.53
617.641	14812.79
617.836	14923.38
618.031	15070.83
618.226	15060.59
618.421	14950
618.616	14806.64
618.811	14689.91
619.006	14829.17
619.201	14364.28
619.396	14417.53
619.591	14370.43
619.786	14497.4
619.981	14409.34
620.176	14476.92
620.371	14325.37
620.566	14302.84
620.761	14220.92
620.956	14118.53
621.151	13948.54
621.346	14143.1
621.541	13842.05
621.735	13956.74
621.93	13629.06
622.125	13596.29
622.32	13561.48
622.515	13737.6
622.709	13512.33
622.904	13534.85
623.099	13278.86
623.294	13387.4
623.488	13045.39
623.683	13188.75
623.878	12797.59
624.072	12998.29
624.267	13172.36
624.462	12754.58
624.656	12662.42
624.851	12775.06
625.046	12627.6
625.24	12459.67
625.435	12445.34
625.629	12316.31
625.824	12394.14
626.018	12443.29
626.213	12041.89
626.407	12406.42
626.602	12134.04
626.796	11916.96
626.991	12031.65
627.185	11972.25
627.38	11777.7
627.574	11370.15
627.768	11462.31
627.963	11789.99
628.157	11521.7
628.352	11445.93
628.546	11400.87
628.74	11310.76
628.935	11214.51
629.129	11239.08
629.323	11271.85
629.517	11124.4
629.712	11179.69
629.906	11060.91
630.1	10964.65
630.294	10788.53
630.489	10780.34
630.683	10903.21
630.877	10495.67
631.071	10475.19
631.265	10643.12
631.459	10546.87
631.653	10538.68
631.848	10628.79
632.042	10155.71
632.236	10645.17
632.43	10260.15
632.624	10346.17
632.818	10178.23
633.012	10135.23
633.206	10307.26
633.4	10022.59
633.594	9852.61
633.788	9897.66
633.982	10022.59
634.176	9989.82
634.369	9766.59
634.563	9488.07
634.757	9731.78
634.951	9653.95
635.145	9557.7
635.339	9576.13
635.533	9338.57
635.726	9375.43
635.92	9129.67
636.114	9189.07
636.308	9275.08
636.501	9373.38
636.695	9189.07
636.889	9062.09
637.083	8914.64
637.276	9092.81
637.47	8756.94
637.664	8791.76
637.857	8781.52
638.051	8742.61
638.244	8924.88
638.438	8826.57
638.632	8543.95
638.825	8666.83
639.019	8431.32
639.212	8396.5
639.406	8492.76
639.599	8208.09
639.793	8445.65
639.986	8191.7
640.18	8120.03
640.373	8173.27
640.567	8087.26
640.76	8203.99
640.954	8074.97
641.147	7706.34
641.34	7984.86
641.534	7921.37
641.727	7878.37
641.92	7771.87
642.114	7692
642.307	7689.95
642.5	7714.53
642.694	7483.11
642.887	7456.48
643.08	7569.12
643.273	7468.77
643.467	7274.21
643.66	7452.39
643.853	7370.47
644.046	7139.05
644.239	7216.87
644.432	7210.73
644.626	7163.62
644.819	7016.17
645.012	7040.75
645.205	7087.85
645.398	7030.51
645.591	6883.05
645.784	6930.16
645.977	6831.85
646.17	6895.34
646.363	6827.76
646.556	6764.27
646.749	6608.62
646.942	6627.06
647.135	6512.37
647.328	6395.64
647.521	6780.65
647.714	6526.71
647.907	6559.47
648.099	6340.34
648.292	6364.92
648.485	6119.16
648.678	6430.45
648.871	6274.81
649.064	6215.41
649.256	6205.17
649.449	5975.8
649.642	6145.78
649.835	6029.05
650.027	5916.41
650.22	6229.75
650.413	6170.36
650.605	5945.08
650.798	5936.89
650.991	5873.4
651.183	5848.83
651.376	5742.33
651.568	5721.85
651.761	5699.33
651.954	5781.25
652.146	5705.47
652.339	5801.72
652.531	5664.51
652.724	5732.09
652.916	5512.96
653.109	5580.54
653.301	5701.37
653.494	5484.29
653.686	5617.41
653.879	5496.58
654.071	5445.38
654.263	5435.14
654.456	5283.59
654.648	5406.47
654.84	5416.71
655.033	5222.15
655.225	5236.49
655.417	5340.93
655.61	5248.77
655.802	5203.72
655.994	5173
656.186	5222.15
656.379	4931.34
656.571	5015.3
656.763	4939.53
656.955	4929.29
657.148	5000.97
657.34	4998.92
657.532	4853.52
657.724	4904.71
657.916	4859.66
658.108	4902.67
658.3	4736.78
658.492	4781.84
658.684	4726.54
658.876	4738.83
659.068	4710.16
659.26	4767.5
659.452	4775.69
659.644	4673.29
659.836	4597.52
660.028	4542.22
660.22	4538.13
660.412	4501.26
660.604	4437.78
660.796	4491.02
660.988	4534.03
661.18	4400.91
661.372	4364.05
661.563	4407.06
661.755	4409.11
661.947	4421.39
662.139	4486.93
662.331	4257.56
662.522	4296.47
662.714	4286.23
662.906	4419.35
663.097	4171.54
663.289	4077.34
663.481	4177.69
663.673	4241.17
663.864	4151.06
664.056	4179.73
664.247	4192.02
664.439	3868.44
664.631	4067.1
664.822	4042.52
665.014	4208.41
665.205	4151.06
665.397	3970.84
665.588	3872.54
665.78	3913.5
665.971	3860.25
666.163	3905.31
666.354	3890.97
666.546	3911.45
666.737	3815.2
666.929	3856.15
667.12	3931.93
667.311	3884.83
667.503	3804.96
667.694	3733.28
667.885	3850.01
668.077	3637.02
668.268	3776.28
668.459	3698.46
668.651	3690.27
668.842	3753.76
669.033	3530.53
669.224	3606.3
669.416	3620.64
669.607	3698.46
669.798	3419.94
669.989	3499.81
670.18	3579.68
670.371	3614.49
670.563	3438.37
670.754	3534.62
670.945	3405.6
671.136	3520.29
671.327	3462.94
671.518	3397.41
671.709	3516.19
671.9	3415.84
672.091	3432.22
672.282	3522.34
672.473	3360.55
672.664	3438.37
672.855	3335.97
673.046	3372.83
673.237	3446.56
673.428	3299.11
673.619	3403.55
673.809	3280.68
674	3389.22
674.191	3239.72
674.382	3188.52
674.573	3399.46
674.764	3333.92
674.954	3272.48
675.145	3231.52
675.336	3358.5
675.527	3270.44
675.717	3272.48
675.908	3235.62
676.099	3372.83
676.289	3174.18
676.48	3133.22
676.671	3245.86
676.861	3311.39
677.052	3200.8
677.243	3225.38
677.433	3237.67
677.624	3239.72
677.814	3221.28
678.005	3252
678.195	3118.89
678.386	3303.2
678.576	3211.04
678.767	3141.41
678.957	3227.43
679.148	3282.72
679.338	3260.2
679.529	3139.37
679.719	3159.85
679.909	3143.46
680.1	3092.26
680.29	3303.2
680.481	3100.45
680.671	3184.42
680.861	3110.69
681.052	3149.61
681.242	3098.41
681.432	3170.08
681.622	3090.21
681.813	3165.99
682.003	3092.26
682.193	3143.46
682.383	3174.18
682.573	3141.41
682.764	3206.95
682.954	3096.36
683.144	3139.37
683.334	3129.13
683.524	3168.04
683.714	3147.56
683.904	3249.96
684.094	3145.51
684.284	3163.94
684.474	3065.64
684.664	3051.3
684.854	2993.96
685.044	3077.93
685.234	2998.06
685.424	3002.15
685.614	2993.96
685.804	2967.34
685.994	3082.02
686.184	3036.97
686.374	3016.49
686.564	3002.15
686.753	3047.21
686.943	2998.06
687.133	3004.2
687.323	2897.71
687.513	2965.29
687.702	3022.63
687.892	2912.04
688.082	2903.85
688.272	3032.87
688.461	2946.86
688.651	2932.52
688.841	2805.55
689.03	2973.48
689.22	2821.93
689.41	2948.9
689.599	2756.4
689.789	2789.16
689.979	2856.75
690.168	2813.74
690.358	2860.84
690.547	2828.07
690.737	2793.26
690.926	2965.29
691.116	2783.02
691.305	2854.7
691.495	2735.92
691.684	2783.02
691.874	2785.07
692.063	2899.75
692.252	2842.41
692.442	2682.67
692.631	2715.44
692.82	2756.4
693.01	2701.1
693.199	2670.38
693.388	2680.62
693.578	2643.76
693.767	2787.11
693.956	2680.62
694.146	2791.21
694.335	2770.73
694.524	2711.34
694.713	2688.81
694.902	2678.57
695.092	2697
695.281	2604.85
695.47	2690.86
695.659	2549.55
695.848	2668.33
696.037	2549.55
696.226	2674.48
696.415	2735.92
696.604	2596.65
696.793	2707.24
696.982	2699.05
697.171	2744.11
697.36	2590.51
697.549	2629.42
697.738	2649.9
697.927	2570.03
698.116	2543.41
698.305	2766.64
698.494	2600.75
698.683	2733.87
698.872	2686.76
699.061	2674.48
699.25	2473.78
699.438	2617.13
699.627	2469.68
699.816	2578.22
700.005	2551.6
700.193	2610.99
700.382	2574.13
700.571	2555.69
700.76	2592.56
700.948	2645.8
701.137	2586.41
701.326	2602.8
701.514	2613.04
701.703	2592.56
701.892	2608.94
702.08	2631.47
702.269	2518.83
702.457	2586.41
702.646	2690.86
702.834	2522.93
703.023	2496.3
703.212	2557.74
703.4	2527.02
703.589	2512.69
703.777	2584.37
703.965	2639.66
704.154	2561.84
704.342	2467.63
704.531	2533.17
704.719	2563.89
704.907	2629.42
705.096	2500.4
705.284	2488.11
705.472	2551.6
705.661	2516.78
705.849	2629.42
706.037	2547.5
706.226	2561.84
706.414	2404.14
706.602	2561.84
706.79	2465.58
706.979	2561.84
707.167	2592.56
707.355	2445.1
707.543	2457.39
707.731	2481.97
707.919	2414.38
708.107	2402.1
708.296	2400.05
708.484	2506.54
708.672	2430.77
708.86	2391.86
709.048	2479.92
709.236	2375.47
709.424	2340.66
709.612	2531.12
709.8	2342.71
709.988	2428.72
710.176	2453.3
710.364	2398
710.551	2416.43
710.739	2406.19
710.927	2432.82
711.115	2344.75
711.303	2299.7
711.491	2328.37
711.679	2264.88
711.866	2307.89
712.054	2297.65
712.242	2354.99
712.43	2418.48
712.617	2264.88
712.805	2279.22
712.993	2342.71
713.181	2361.14
713.368	2416.43
713.556	2240.31
713.744	2307.89
713.931	2424.62
714.119	2383.66
714.306	2219.83
714.494	2209.59
714.682	2250.55
714.869	2307.89
715.057	2318.13
715.244	2195.25
715.432	2176.82
715.619	2223.92
715.807	2125.62
715.994	2219.83
716.182	2379.57
716.369	2211.64
716.556	2092.85
716.744	2129.72
716.931	2197.3
717.119	2191.16
717.306	2180.92
717.493	2150.2
717.681	2172.72
717.868	2094.9
718.055	2322.23
718.242	2113.33
718.43	2213.68
718.617	2156.34
718.804	2146.1
718.991	2058.04
719.179	2225.97
719.366	2031.41
719.553	2180.92
719.74	2144.05
719.927	2142
720.114	2193.2
720.301	2152.24
720.488	2043.7
720.676	2107.19
720.863	2193.2
721.05	2096.95
721.237	2111.29
721.424	2072.37
721.611	1996.6
721.798	2074.42
721.985	2099
722.172	2070.33
722.358	2004.79
722.545	2074.42
722.732	2164.53
722.919	2099
723.106	2021.17
723.293	2072.37
723.48	2076.47
723.667	2029.37
723.853	2033.46
724.04	2008.89
724.227	2010.93
724.414	1990.45
724.6	1859.38
724.787	1953.59
724.974	2064.18
725.161	2021.17
725.347	1972.02
725.534	2002.74
725.72	2096.95
725.907	1976.12
726.094	1990.45
726.28	2070.33
726.467	2105.14
726.653	1980.22
726.84	1904.44
727.027	2006.84
727.213	1945.4
727.4	1951.54
727.586	1984.31
727.773	1826.62
727.959	2045.75
728.145	1894.2
728.332	1886.01
728.518	1988.41
728.705	1965.88
728.891	1886.01
729.077	1920.82
729.264	1922.87
729.45	1795.9
729.636	1916.73
729.823	1869.62
730.009	1879.86
730.195	1933.11
730.382	1949.5
730.568	1896.25
730.754	1822.52
730.94	1980.22
731.126	1920.82
731.313	1855.29
731.499	1955.64
731.685	1802.04
731.871	1806.14
732.057	1840.95
732.243	1881.91
732.429	1855.29
732.615	1988.41
732.801	1818.43
732.987	1810.23
733.173	1740.6
733.359	1845.05
733.545	1799.99
733.731	1836.86
733.917	1791.8
734.103	1711.93
734.289	1810.23
734.475	1808.19
734.661	1886.01
734.847	1783.61
735.033	1761.08
735.219	1722.17
735.404	1769.27
735.59	1750.84
735.776	1732.41
735.962	1707.84
736.148	1791.8
736.333	1605.44
736.519	1605.44
736.705	1724.22
736.89	1720.12
737.076	1775.42
737.262	1736.51
737.447	1705.79
737.633	1736.51
737.819	1783.61
738.004	1718.08
738.19	1582.91
738.375	1634.11
738.561	1720.12
738.747	1693.5
738.932	1644.35
739.118	1630.01
739.303	1689.4
739.489	1605.44
739.674	1576.77
739.859	1785.66
740.045	1603.39
740.23	1724.22
740.416	1537.85
740.601	1666.88
740.786	1550.14
740.972	1607.48
741.157	1587.01
741.342	1662.78
741.528	1609.53
741.713	1533.76
741.898	1648.44
742.084	1574.72
742.269	1617.72
742.454	1484.61
742.639	1525.57
742.824	1556.29
743.01	1601.34
743.195	1625.92
743.38	1472.32
743.565	1500.99
743.75	1544
743.935	1523.52
744.12	1527.61
744.305	1476.41
744.49	1476.41
744.675	1457.98
744.86	1447.74
745.045	1392.45
745.23	1476.41
745.415	1406.78
745.6	1353.54
745.785	1351.49
745.97	1464.13
746.155	1507.13
746.34	1386.3
746.525	1371.97
746.71	1464.13
746.895	1335.1
747.079	1296.19
747.264	1365.82
747.449	1374.02
747.634	1271.62
747.819	1441.6
748.003	1259.33
748.188	1294.15
748.373	1333.06
748.557	1244.99
748.742	1339.2
748.927	1185.6
749.111	1259.33
749.296	1228.61
749.481	1228.61
749.665	1222.47
749.85	1273.67
750.034	1220.42
750.219	1257.28
750.404	1226.56
750.588	1191.75
750.773	1167.17
750.957	1191.75
751.141	1152.84
751.326	1167.17
751.51	1183.56
751.695	1122.12
751.879	1183.56
752.064	1130.31
752.248	1177.41
752.432	1181.51
752.617	1130.31
752.801	1099.59
752.985	1077.06
753.17	1099.59
753.354	986.95
753.538	1038.15
753.722	1132.36
753.907	972.61
754.091	1054.53
754.275	1058.63
754.459	1034.05
754.643	966.47
754.828	1001.29
755.012	1021.77
755.196	925.51
755.38	1029.96
755.564	1007.43
755.748	1007.43
755.932	1019.72
756.116	968.52
756.3	911.18
756.484	945.99
756.668	886.6
756.852	970.57
757.036	915.27
757.22	978.76
757.404	986.95
757.588	943.94
757.772	829.26
757.956	896.84
758.14	929.61
758.323	911.18
758.507	853.83
758.691	880.46
758.875	862.02
759.059	851.78
759.242	864.07
759.426	804.68
759.61	786.25
759.794	741.19
759.977	872.26
760.161	870.22
760.345	808.78
760.528	853.83
760.712	837.45
760.895	843.59
761.079	730.95
761.263	733
761.446	665.42
761.63	778.06
761.813	751.43
761.997	700.23
762.18	755.53
762.364	706.38
762.547	724.81
762.731	776.01
762.914	722.76
763.098	710.47
763.281	730.95
763.464	704.33
763.648	710.47
763.831	816.97
764.015	720.71
764.198	696.14
764.381	733
764.564	718.67
764.748	704.33
764.931	716.62
765.114	749.39
765.297	687.95
765.481	743.24
765.664	743.24
765.847	661.32
766.03	720.71
766.213	741.19
766.397	706.38
766.58	681.8
766.763	755.53
766.946	730.95
767.129	677.71
767.312	679.75
767.495	634.7
767.678	640.84
767.861	681.8
768.044	608.08
768.227	704.33
768.41	681.8
768.593	610.12
768.776	651.08
768.959	722.76
769.142	687.95
769.324	724.81
769.507	595.79
769.69	651.08
769.873	646.99
770.056	659.28
770.239	618.32
770.421	644.94
770.604	616.27
770.787	622.41
770.97	569.16
771.152	595.79
771.335	528.21
771.518	614.22
771.7	542.54
771.883	634.7
772.066	571.21
772.248	671.56
772.431	565.07
772.613	556.88
772.796	579.4
772.978	571.21
773.161	550.73
773.343	571.21
773.526	575.31
773.708	442.19
773.891	538.45
774.073	581.45
774.256	530.25
774.438	532.3
774.621	583.5
774.803	452.43
774.985	591.69
775.168	626.51
775.35	536.4
775.532	587.6
775.715	522.06
775.897	507.73
776.079	487.25
776.261	524.11
776.444	474.96
776.626	569.16
776.808	474.96
776.99	474.96
777.173	505.68
777.355	517.97
777.537	513.87
777.719	522.06
777.901	417.61
778.083	497.49
778.265	501.58
778.447	466.77
778.629	362.32
778.811	456.53
778.993	446.29
779.175	507.73
779.357	405.33
779.539	401.23
779.721	499.53
779.903	446.29
780.085	450.38
780.267	397.14
780.449	403.28
780.631	419.66
780.812	395.09
780.994	403.28
781.176	347.98
781.358	409.42
781.54	434
781.721	431.95
781.903	403.28
782.085	335.7
782.267	354.13
782.448	352.08
782.63	352.08
782.812	399.18
782.993	331.6
783.175	388.94
783.357	284.5
783.538	386.9
783.72	368.46
783.901	417.61
784.083	315.22
784.264	360.27
784.446	368.46
784.627	268.11
784.809	337.74
784.99	358.22
785.172	241.49
785.353	337.74
785.535	325.46
785.716	345.94
785.897	331.6
786.079	259.92
786.26	347.98
786.441	337.74
786.623	288.59
786.804	325.46
786.985	276.31
787.167	321.36
787.348	284.5
787.529	290.64
787.71	347.98
787.891	235.35
788.073	284.5
788.254	264.02
788.435	229.2
788.616	290.64
788.797	378.7
788.978	356.18
789.159	259.92
789.34	286.54
789.522	284.5
789.703	204.63
789.884	249.68
790.065	276.31
790.246	233.3
790.427	249.68
790.607	290.64
790.788	272.21
790.969	206.67
791.15	288.59
791.331	266.07
791.512	245.59
791.693	214.87
791.874	190.29
792.054	245.59
792.235	266.07
792.416	182.1
792.597	196.43
792.778	288.59
792.958	237.39
793.139	194.39
793.32	264.02
793.5	196.43
793.681	235.35
793.862	196.43
794.042	229.2
794.223	190.29
794.404	165.71
794.584	149.33
794.765	192.34
794.945	233.3
795.126	241.49
795.306	173.91
795.487	208.72
795.667	192.34
795.848	198.48
796.028	178
796.209	171.86
796.389	276.31
796.57	157.52
796.75	212.82
796.93	243.54
797.111	137.04
797.291	165.71
797.471	169.81
797.652	178
797.832	124.76
798.012	221.01
798.192	231.25
798.373	153.43
798.553	178
798.733	175.95
798.913	186.19
799.093	204.63
799.274	180.05
799.454	130.9
799.634	157.52
799.814	239.44
799.994	161.62
800.174	178
800.354	204.63
800.534	194.39
800.714	153.43
800.894	161.62
801.074	182.1
801.254	210.77
801.434	221.01
801.614	132.95
801.794	135
801.974	556.88
802.154	130.9
802.334	159.57
802.514	143.19
802.693	143.19
802.873	110.42
803.053	214.87
803.233	169.81
803.413	89.94
803.592	180.05
803.772	163.67
803.952	159.57
804.131	143.19
804.311	188.24
804.491	180.05
804.67	110.42
804.85	139.09
805.03	137.04
805.209	94.04
805.389	114.52
805.568	130.9
805.748	139.09
805.928	175.95
806.107	161.62
806.287	143.19
806.466	143.19
806.646	159.57
806.825	-0.17
807.004	77.65
807.184	91.99
807.363	30.55
807.543	204.63
807.722	165.71
807.901	171.86
808.081	63.32
808.26	96.08
808.439	71.51
808.619	169.81
808.798	118.61
808.977	104.28
809.156	85.84
809.336	141.14
809.515	122.71
809.694	73.56
809.873	132.95
810.052	157.52
810.231	149.33
810.411	100.18
810.59	83.8
810.769	128.85
810.948	135
811.127	96.08
811.306	104.28
811.485	26.45
811.664	122.71
811.843	73.56
812.022	175.95
812.201	53.08
812.38	145.24
812.559	135
812.737	151.38
812.916	126.8
813.095	69.46
813.274	77.65
813.453	155.47
813.632	65.36
813.811	94.04
813.989	73.56
814.168	57.17
814.347	108.37
814.526	159.57
814.704	87.89
814.883	79.7
815.062	110.42
815.24	137.04
815.419	114.52
815.598	89.94
815.776	1.88
815.955	106.32
816.133	151.38
816.312	106.32
816.49	94.04
816.669	67.41
816.847	83.8
817.026	116.56
817.204	173.91
817.383	139.09
817.561	87.89
817.74	77.65
817.918	38.74
818.097	98.13
818.275	98.13
818.453	71.51
818.632	116.56
818.81	137.04
818.988	98.13
819.167	53.08
819.345	91.99
819.523	8.02
819.701	98.13
819.879	67.41
820.058	102.23
820.236	77.65
820.414	36.69
820.592	104.28
820.77	46.93
820.948	96.08
821.127	77.65
821.305	132.95
821.483	145.24
821.661	61.27
821.839	120.66
822.017	46.93
822.195	77.65
822.373	118.61
822.551	55.12
822.729	126.8
822.907	30.55
823.085	42.84
823.262	63.32
823.44	59.22
823.618	46.93
823.796	75.6
823.974	98.13
824.152	40.79
824.329	-6.31
824.507	38.74
824.685	91.99
824.863	79.7
825.04	69.46
825.218	71.51
825.396	69.46
825.574	26.45
825.751	83.8
825.929	85.84
826.107	38.74
826.284	36.69
826.462	40.79
826.639	141.14
826.817	30.55
826.994	94.04
827.172	42.84
827.349	79.7
827.527	81.75
827.704	48.98
827.882	-2.22
828.059	114.52
828.237	8.02
828.414	85.84
828.591	10.07
828.769	75.6
828.946	51.03
829.124	61.27
829.301	51.03
829.478	77.65
829.655	18.26
829.833	-16.55
830.01	44.88
830.187	71.51
830.364	-32.94
830.542	137.04
830.719	36.69
830.896	112.47
831.073	22.36
831.25	57.17
831.427	55.12
831.604	24.4
831.782	-34.99
831.959	106.32
832.136	22.36
832.313	89.94
832.49	44.88
832.667	87.89
832.844	124.76
833.021	69.46
833.198	20.31
833.374	28.5
833.551	63.32
833.728	3.93
833.905	65.36
834.082	59.22
834.259	18.26
834.436	81.75
834.612	20.31
834.789	89.94
834.966	26.45
835.143	91.99
835.319	51.03
835.496	69.46
835.673	38.74
835.85	-10.41
836.026	30.55
836.203	26.45
836.38	-28.84
836.556	5.97
836.733	59.22
836.909	73.56
837.086	28.5
837.262	57.17
837.439	51.03
837.616	-28.84
837.792	32.6
837.968	87.89
838.145	-39.08
838.321	100.18
838.498	32.6
838.674	73.56
838.851	61.27
839.027	40.79
839.203	26.45
839.38	89.94
839.556	32.6
839.732	5.97
839.909	69.46
840.085	3.93
840.261	40.79
840.437	3.93
840.614	36.69
840.79	12.12
840.966	94.04
841.142	40.79
841.318	18.26
841.494	32.6
841.671	-18.6
841.847	83.8
842.023	18.26
842.199	98.13
842.375	-18.6
842.551	59.22
842.727	-10.41
842.903	118.61
843.079	22.36
843.255	83.8
843.431	-26.79
843.607	-18.6
843.783	14.17
843.959	36.69
844.134	-26.79
844.31	75.6
844.486	-28.84
844.662	44.88
844.838	20.31
845.013	171.86
845.189	65.36
845.365	20.31
845.541	-26.79
845.716	12.12
845.892	57.17
846.068	-16.55
846.244	28.5
846.419	24.4
846.595	67.41
846.77	51.03
846.946	-10.41
847.122	10.07
847.297	32.6
847.473	20.31
847.648	-26.79
847.824	40.79
847.999	-49.32
848.175	34.64
848.35	-16.55
848.526	30.55
848.701	34.64
848.876	16.21
849.052	96.08
849.227	-26.79
849.403	112.47
849.578	53.08
849.753	36.69
849.929	32.6
850.104	-30.89
850.279	12.12
850.454	61.27
850.63	38.74
850.805	59.22
850.98	98.13
851.155	110.42
851.33	-10.41
851.505	-41.13
851.681	63.32
851.856	-28.84
852.031	83.8
852.206	-39.08
852.381	48.98
852.556	28.5
852.731	-16.55
852.906	-18.6
853.081	48.98
853.256	51.03
853.431	32.6
853.606	16.21
853.781	16.21
853.956	-28.84
854.131	77.65
854.305	-12.46
854.48	-57.51
854.655	-39.08
854.83	36.69
855.005	30.55
855.18	22.36
855.354	10.07
855.529	-2.22
855.704	-2.22
855.879	-2.22
856.053	71.51
856.228	3.93
856.403	20.31
856.577	75.6
856.752	36.69
856.926	53.08
857.101	44.88
857.276	1.88
857.45	-24.75
857.625	-24.75
857.799	16.21
857.974	24.4
858.148	-39.08
858.323	71.51
858.497	5.97
858.672	16.21
858.846	22.36
859.02	22.36
859.195	-4.27
859.369	-4.27
859.543	24.4
859.718	-32.94
859.892	-16.55
860.066	69.46
860.241	8.02
860.415	42.84
860.589	-32.94
860.763	32.6
860.938	-4.27
861.112	42.84
861.286	-43.18
861.46	-20.65
861.634	-41.13
861.808	40.79
861.982	-14.51
862.157	-4.27
862.331	12.12
862.505	5.97
862.679	-6.31
862.853	32.6
863.027	-2.22
863.201	-20.65
863.375	-0.17
863.549	65.36
863.722	-12.46
863.896	81.75
864.07	1.88
864.244	38.74
864.418	40.79
864.592	-6.31
864.766	24.4
864.939	-4.27
865.113	26.45
865.287	46.93
865.461	14.17
865.634	12.12
865.808	-14.51
865.982	-0.17
866.156	-39.08
866.329	24.4
866.503	18.26
866.676	14.17
866.85	69.46
867.024	-0.17
867.197	51.03
867.371	61.27
867.544	-34.99
867.718	12.12
867.891	-41.13
868.065	-2.22
868.238	-18.6
868.412	63.32
868.585	-61.61
868.759	28.5
868.932	-2.22
869.105	1.88
869.279	-0.17
869.452	-6.31
869.625	42.84
869.799	-47.27
869.972	34.64
870.145	-2.22
870.319	38.74
870.492	14.17
870.665	5.97
870.838	61.27
871.011	48.98
871.185	-39.08
871.358	-28.84
871.531	8.02
871.704	10.07
871.877	16.21
872.05	-8.36
872.223	-18.6
872.396	8.02
872.569	38.74
872.742	24.4
872.915	20.31
873.088	-20.65
873.261	3.93
873.434	14.17
873.607	20.31
873.78	16.21
873.953	-49.32
874.126	-14.51
874.299	-14.51
874.471	12.12
874.644	-16.55
874.817	-6.31
874.99	16.21
875.163	-8.36
875.335	-0.17
875.508	8.02
875.681	36.69
875.853	-4.27
876.026	-20.65
876.199	112.47
876.371	55.12
876.544	-8.36
876.717	16.21
876.889	-20.65
877.062	-47.27
877.234	5.97
877.407	-2.22
877.579	-6.31
877.752	-51.37
877.924	1.88
878.097	59.22
878.269	34.64
878.442	-22.7
878.614	-4.27
878.786	51.03
878.959	32.6
879.131	12.12
879.303	-22.7
879.476	-49.32
879.648	22.36
879.82	-10.41
879.993	-26.79
880.165	44.88
880.337	5.97
880.509	71.51
880.681	-34.99
880.854	-51.37
881.026	-8.36
881.198	-2.22
881.37	14.17
881.542	-32.94
881.714	-45.23
881.886	-10.41
882.058	-20.65
882.23	-16.55
882.402	40.79
882.574	28.5
882.746	30.55
882.918	38.74
883.09	3.93
883.262	12.12
883.434	-2.22
883.606	-47.27
883.778	-30.89
883.95	24.4
884.122	26.45
884.293	69.46
884.465	-4.27
884.637	-32.94
884.809	10.07
884.98	-24.75
885.152	-2.22
885.324	-24.75
885.496	28.5
885.667	-45.23
885.839	5.97
886.011	-12.46
886.182	36.69
886.354	-10.41
886.525	3.93
886.697	-16.55
886.869	14.17
887.04	24.4
887.212	-59.56
887.383	55.12
887.555	-0.17
887.726	-43.18
887.897	75.6
888.069	16.21
888.24	24.4
888.412	71.51
888.583	83.8
888.754	-22.7
888.926	-2.22
889.097	12.12
889.268	-10.41
889.44	-18.6
889.611	-37.03
889.782	71.51
889.953	-69.8
890.125	-28.84
890.296	-47.27
890.467	-6.31
890.638	-53.42
890.809	-32.94
890.98	34.64
891.151	-67.75
891.323	75.6
891.494	-37.03
891.665	30.55
891.836	18.26
892.007	-71.85
892.178	30.55
892.349	-98.47
892.52	-34.99
892.691	36.69
892.862	-43.18
893.032	-80.04
893.203	-10.41
893.374	36.69
893.545	46.93
893.716	-6.31
893.887	89.94
894.057	-61.61
894.228	51.03
894.399	-12.46
894.57	81.75
894.74	-30.89
894.911	-30.89
895.082	-57.51
895.253	-20.65
895.423	-69.8
895.594	-90.28
895.764	3.93
895.935	-12.46
896.106	8.02
896.276	-16.55
896.447	-30.89
896.617	10.07
896.788	-41.13
896.958	-4.27
897.129	-51.37
897.299	122.71
897.47	61.27
897.64	-0.17
897.81	14.17
897.981	-77.99
898.151	-37.03
898.322	-6.31
898.492	26.45
898.662	-16.55
898.832	32.6
899.003	-2.22
899.173	18.26
899.343	-14.51
899.513	12.12
