Data from USB4F104151__43__12-35-55-799.txt Node

Date: Fri Mar 14 12:35:55 EDT 2025
User: louis
Spectrometer: USB4F10415
Trigger mode: 4
Integration Time (sec): 2.000000E-2
Scans to average: 1
Electric dark correction enabled: true
Nonlinearity correction enabled: false
Boxcar width: 0
XAxis mode: Wavelengths
Number of Pixels in Spectrum: 3648
>>>>>Begin Spectral Data<<<<<
178.204	-88.75
178.424	-88.75
178.644	-88.75
178.864	-96.94
179.084	-39.59
179.304	-10.92
179.524	-25.26
179.744	-6.83
179.964	11.61
180.184	42.32
180.404	17.75
180.624	21.84
180.844	42.32
181.064	-6.83
181.283	-39.59
181.503	-37.55
181.723	-8.87
181.943	-137.9
182.163	165.2
182.383	44.37
182.602	-17.07
182.822	11.61
183.042	9.56
183.262	17.75
183.482	54.61
183.701	30.04
183.921	60.76
184.141	-45.74
184.361	103.76
184.58	-21.16
184.8	17.75
185.02	68.95
185.239	150.87
185.459	44.37
185.679	66.9
185.898	83.28
186.118	46.42
186.338	-2.73
186.557	30.04
186.777	21.84
186.997	-21.16
187.216	3.41
187.436	56.66
187.655	62.8
187.875	7.51
188.095	36.18
188.314	38.23
188.534	36.18
188.753	77.14
188.973	-27.31
189.192	140.63
189.412	34.13
189.631	36.18
189.851	-51.88
190.07	-27.31
190.29	-53.93
190.509	5.46
190.729	-49.83
190.948	93.52
191.168	130.39
191.387	60.76
191.607	42.32
191.826	64.85
192.045	50.52
192.265	-49.83
192.484	3.41
192.704	-17.07
192.923	44.37
193.142	30.04
193.362	-6.83
193.581	52.56
193.8	-25.26
194.02	58.71
194.239	-29.35
194.458	-37.55
194.678	36.18
194.897	23.89
195.116	-6.83
195.335	46.42
195.555	81.24
195.774	1.37
195.993	36.18
196.212	15.7
196.432	3.41
196.651	-19.11
196.87	52.56
197.089	23.89
197.308	101.72
197.528	52.56
197.747	-29.35
197.966	71
198.185	73.04
198.404	7.51
198.623	32.08
198.842	36.18
199.062	25.94
199.281	54.61
199.5	27.99
199.719	62.8
199.938	101.72
200.157	89.43
200.376	9.56
200.595	23.89
200.814	-6.83
201.033	42.32
201.252	54.61
201.471	36.18
201.69	30.04
201.909	91.48
202.128	46.42
202.347	109.91
202.566	-29.35
202.785	17.75
203.004	-4.78
203.223	99.67
203.442	54.61
203.661	15.7
203.879	85.33
204.098	-6.83
204.317	-31.4
204.536	91.48
204.755	58.71
204.974	64.85
205.193	30.04
205.411	109.91
205.63	15.7
205.849	27.99
206.068	15.7
206.287	62.8
206.505	42.32
206.724	60.76
206.943	58.71
207.162	-98.99
207.381	-0.68
207.599	42.32
207.818	-35.5
208.037	58.71
208.255	79.19
208.474	1.37
208.693	44.37
208.911	13.65
209.13	3.41
209.349	75.09
209.567	71
209.786	83.28
210.005	-19.11
210.223	38.23
210.442	9.56
210.661	81.24
210.879	5.46
211.098	21.84
211.316	68.95
211.535	46.42
211.753	21.84
211.972	-17.07
212.191	27.99
212.409	-15.02
212.628	5.46
212.846	52.56
213.065	40.28
213.283	21.84
213.502	42.32
213.72	44.37
213.938	23.89
214.157	58.71
214.375	17.75
214.594	32.08
214.812	40.28
215.031	91.48
215.249	85.33
215.467	21.84
215.686	56.66
215.904	64.85
216.122	36.18
216.341	97.62
216.559	-4.78
216.778	23.89
216.996	40.28
217.214	3.41
217.432	32.08
217.651	25.94
217.869	-4.78
218.087	56.66
218.306	66.9
218.524	-0.68
218.742	50.52
218.96	23.89
219.179	48.47
219.397	17.75
219.615	48.47
219.833	71
220.051	-37.55
220.27	75.09
220.488	38.23
220.706	95.57
220.924	68.95
221.142	-12.97
221.36	-4.78
221.578	19.8
221.796	23.89
222.015	-2.73
222.233	46.42
222.451	56.66
222.669	68.95
222.887	15.7
223.105	-4.78
223.323	7.51
223.541	25.94
223.759	-41.64
223.977	5.46
224.195	73.04
224.413	52.56
224.631	1.37
224.849	60.76
225.067	60.76
225.285	46.42
225.503	60.76
225.721	1.37
225.939	48.47
226.157	25.94
226.375	85.33
226.592	38.23
226.81	5.46
227.028	48.47
227.246	34.13
227.464	15.7
227.682	19.8
227.9	52.56
228.117	36.18
228.335	36.18
228.553	19.8
228.771	46.42
228.989	68.95
229.206	-25.26
229.424	38.23
229.642	124.24
229.86	-35.5
230.077	81.24
230.295	50.52
230.513	42.32
230.731	13.65
230.948	25.94
231.166	97.62
231.384	19.8
231.601	15.7
231.819	32.08
232.037	38.23
232.254	9.56
232.472	32.08
232.689	23.89
232.907	97.62
233.125	-0.68
233.342	15.7
233.56	40.28
233.777	3.41
233.995	-23.21
234.213	95.57
234.43	52.56
234.648	-19.11
234.865	7.51
235.083	-21.16
235.3	3.41
235.518	-10.92
235.735	21.84
235.953	62.8
236.17	30.04
236.388	71
236.605	19.8
236.822	36.18
237.04	-6.83
237.257	-0.68
237.475	71
237.692	134.48
237.909	46.42
238.127	-8.87
238.344	17.75
238.562	7.51
238.779	60.76
238.996	-2.73
239.214	50.52
239.431	60.76
239.648	30.04
239.865	73.04
240.083	27.99
240.3	73.04
240.517	42.32
240.735	19.8
240.952	81.24
241.169	66.9
241.386	11.61
241.603	17.75
241.821	23.89
242.038	73.04
242.255	77.14
242.472	-0.68
242.689	30.04
242.907	11.61
243.124	-23.21
243.341	42.32
243.558	-51.88
243.775	73.04
243.992	44.37
244.209	-15.02
244.426	56.66
244.643	148.82
244.86	89.43
245.078	32.08
245.295	44.37
245.512	62.8
245.729	52.56
245.946	23.89
246.163	52.56
246.38	-66.22
246.597	83.28
246.814	95.57
247.031	15.7
247.248	34.13
247.464	-58.03
247.681	11.61
247.898	99.67
248.115	-15.02
248.332	7.51
248.549	66.9
248.766	79.19
248.983	68.95
249.2	52.56
249.417	97.62
249.633	25.94
249.85	54.61
250.067	17.75
250.284	48.47
250.501	15.7
250.717	1.37
250.934	-0.68
251.151	97.62
251.368	64.85
251.585	32.08
251.801	130.39
252.018	64.85
252.235	85.33
252.451	5.46
252.668	11.61
252.885	83.28
253.102	25.94
253.318	13.65
253.535	52.56
253.752	30.04
253.968	27.99
254.185	-6.83
254.401	32.08
254.618	77.14
254.835	27.99
255.051	3.41
255.268	66.9
255.484	-6.83
255.701	-10.92
255.917	89.43
256.134	17.75
256.351	42.32
256.567	-31.4
256.784	19.8
257	99.67
257.217	50.52
257.433	21.84
257.65	19.8
257.866	91.48
258.082	21.84
258.299	-10.92
258.515	-10.92
258.732	5.46
258.948	30.04
259.165	42.32
259.381	17.75
259.597	38.23
259.814	-12.97
260.03	64.85
260.246	-19.11
260.463	34.13
260.679	36.18
260.895	21.84
261.112	95.57
261.328	52.56
261.544	-29.35
261.761	114
261.977	30.04
262.193	-41.64
262.409	32.08
262.626	87.38
262.842	1.37
263.058	38.23
263.274	-35.5
263.49	5.46
263.707	83.28
263.923	46.42
264.139	7.51
264.355	101.72
264.571	62.8
264.787	-8.87
265.004	85.33
265.22	93.52
265.436	38.23
265.652	-19.11
265.868	21.84
266.084	38.23
266.3	34.13
266.516	68.95
266.732	48.47
266.948	161.11
267.164	11.61
267.38	42.32
267.596	87.38
267.812	71
268.028	19.8
268.244	71
268.46	81.24
268.676	27.99
268.892	73.04
269.108	17.75
269.324	3.41
269.54	15.7
269.756	99.67
269.972	-8.87
270.188	-10.92
270.403	27.99
270.619	9.56
270.835	50.52
271.051	38.23
271.267	48.47
271.483	40.28
271.698	109.91
271.914	-80.55
272.13	13.65
272.346	27.99
272.562	-10.92
272.777	44.37
272.993	-10.92
273.209	34.13
273.425	-19.11
273.64	64.85
273.856	30.04
274.072	66.9
274.287	38.23
274.503	-0.68
274.719	44.37
274.934	36.18
275.15	-33.45
275.366	38.23
275.581	-41.64
275.797	126.29
276.012	64.85
276.228	89.43
276.444	68.95
276.659	75.09
276.875	23.89
277.09	89.43
277.306	68.95
277.521	144.72
277.737	52.56
277.952	97.62
278.168	5.46
278.383	46.42
278.599	-31.4
278.814	58.71
279.03	11.61
279.245	60.76
279.461	89.43
279.676	101.72
279.892	1.37
280.107	-23.21
280.322	-15.02
280.538	32.08
280.753	60.76
280.969	-39.59
281.184	64.85
281.399	91.48
281.615	-19.11
281.83	58.71
282.045	-15.02
282.26	50.52
282.476	132.44
282.691	64.85
282.906	46.42
283.122	38.23
283.337	-12.97
283.552	15.7
283.767	-27.31
283.983	1.37
284.198	48.47
284.413	21.84
284.628	-51.88
284.843	91.48
285.058	21.84
285.274	66.9
285.489	-6.83
285.704	50.52
285.919	-4.78
286.134	52.56
286.349	23.89
286.564	73.04
286.779	7.51
286.995	15.7
287.21	5.46
287.425	36.18
287.64	-31.4
287.855	44.37
288.07	68.95
288.285	87.38
288.5	62.8
288.715	81.24
288.93	42.32
289.145	60.76
289.36	118.1
289.575	15.7
289.79	25.94
290.004	-17.07
290.219	66.9
290.434	11.61
290.649	36.18
290.864	83.28
291.079	30.04
291.294	5.46
291.509	46.42
291.724	32.08
291.938	-12.97
292.153	23.89
292.368	32.08
292.583	48.47
292.798	87.38
293.012	44.37
293.227	73.04
293.442	64.85
293.657	5.46
293.871	68.95
294.086	83.28
294.301	50.52
294.516	13.65
294.73	-25.26
294.945	75.09
295.16	30.04
295.374	99.67
295.589	161.11
295.804	32.08
296.018	-10.92
296.233	83.28
296.447	34.13
296.662	68.95
296.877	62.8
297.091	130.39
297.306	-29.35
297.52	25.94
297.735	-2.73
297.949	13.65
298.164	71
298.378	42.32
298.593	-15.02
298.807	-39.59
299.022	-10.92
299.236	21.84
299.451	91.48
299.665	23.89
299.88	54.61
300.094	46.42
300.309	11.61
300.523	15.7
300.737	60.76
300.952	83.28
301.166	81.24
301.381	42.32
301.595	34.13
301.809	21.84
302.024	79.19
302.238	46.42
302.452	105.81
302.667	-4.78
302.881	87.38
303.095	36.18
303.309	9.56
303.524	40.28
303.738	89.43
303.952	-17.07
304.166	21.84
304.381	52.56
304.595	68.95
304.809	54.61
305.023	19.8
305.237	23.89
305.452	23.89
305.666	103.76
305.88	111.96
306.094	60.76
306.308	38.23
306.522	15.7
306.736	64.85
306.95	40.28
307.164	71
307.379	48.47
307.593	109.91
307.807	93.52
308.021	48.47
308.235	89.43
308.449	42.32
308.663	52.56
308.877	171.35
309.091	101.72
309.305	95.57
309.519	36.18
309.733	114
309.947	-47.79
310.161	40.28
310.374	-6.83
310.588	101.72
310.802	-8.87
311.016	109.91
311.23	-17.07
311.444	1.37
311.658	-19.11
311.872	132.44
312.085	36.18
312.299	48.47
312.513	77.14
312.727	-21.16
312.941	7.51
313.154	38.23
313.368	97.62
313.582	50.52
313.796	77.14
314.009	48.47
314.223	101.72
314.437	73.04
314.651	32.08
314.864	7.51
315.078	13.65
315.292	25.94
315.505	5.46
315.719	21.84
315.933	-0.68
316.146	97.62
316.36	7.51
316.573	58.71
316.787	85.33
317.001	114
317.214	-0.68
317.428	15.7
317.641	-43.69
317.855	17.75
318.068	-31.4
318.282	46.42
318.495	93.52
318.709	40.28
318.922	-43.69
319.136	66.9
319.349	81.24
319.563	54.61
319.776	15.7
319.99	56.66
320.203	27.99
320.417	27.99
320.63	58.71
320.843	132.44
321.057	1.37
321.27	9.56
321.483	25.94
321.697	79.19
321.91	40.28
322.124	93.52
322.337	77.14
322.55	36.18
322.763	34.13
322.977	-33.45
323.19	-25.26
323.403	11.61
323.617	30.04
323.83	75.09
324.043	32.08
324.256	-6.83
324.469	11.61
324.683	42.32
324.896	-8.87
325.109	48.47
325.322	-47.79
325.535	75.09
325.748	48.47
325.962	87.38
326.175	-2.73
326.388	87.38
326.601	142.68
326.814	13.65
327.027	34.13
327.24	130.39
327.453	-2.73
327.666	50.52
327.879	36.18
328.092	87.38
328.305	15.7
328.518	97.62
328.731	-2.73
328.944	97.62
329.157	32.08
329.37	27.99
329.583	44.37
329.796	118.1
330.009	-12.97
330.222	130.39
330.435	42.32
330.648	13.65
330.861	17.75
331.073	93.52
331.286	77.14
331.499	54.61
331.712	-6.83
331.925	71
332.138	58.71
332.35	109.91
332.563	54.61
332.776	105.81
332.989	32.08
333.202	50.52
333.414	-8.87
333.627	68.95
333.84	11.61
334.053	99.67
334.265	73.04
334.478	40.28
334.691	66.9
334.903	75.09
335.116	9.56
335.329	62.8
335.541	81.24
335.754	79.19
335.966	-12.97
336.179	-31.4
336.392	95.57
336.604	54.61
336.817	83.28
337.029	118.1
337.242	-2.73
337.454	71
337.667	36.18
337.88	1.37
338.092	7.51
338.305	95.57
338.517	25.94
338.729	73.04
338.942	-0.68
339.154	23.89
339.367	21.84
339.579	81.24
339.792	38.23
340.004	25.94
340.217	34.13
340.429	50.52
340.641	3.41
340.854	44.37
341.066	73.04
341.278	9.56
341.491	89.43
341.703	93.52
341.915	68.95
342.128	56.66
342.34	30.04
342.552	58.71
342.764	95.57
342.977	34.13
343.189	38.23
343.401	-6.83
343.613	79.19
343.826	52.56
344.038	7.51
344.25	122.2
344.462	38.23
344.674	75.09
344.886	64.85
345.099	114
345.311	116.05
345.523	60.76
345.735	27.99
345.947	77.14
346.159	30.04
346.371	71
346.583	11.61
346.795	54.61
347.007	44.37
347.219	93.52
347.431	79.19
347.643	64.85
347.855	-2.73
348.067	75.09
348.279	52.56
348.491	73.04
348.703	-19.11
348.915	-15.02
349.127	19.8
349.339	-0.68
349.551	36.18
349.763	111.96
349.975	32.08
350.187	85.33
350.399	62.8
350.61	38.23
350.822	-19.11
351.034	101.72
351.246	50.52
351.458	-0.68
351.669	46.42
351.881	64.85
352.093	79.19
352.305	73.04
352.517	128.34
352.728	77.14
352.94	54.61
353.152	89.43
353.363	46.42
353.575	44.37
353.787	83.28
353.999	75.09
354.21	81.24
354.422	42.32
354.633	79.19
354.845	93.52
355.057	32.08
355.268	-0.68
355.48	60.76
355.692	32.08
355.903	56.66
356.115	79.19
356.326	3.41
356.538	87.38
356.749	62.8
356.961	118.1
357.172	101.72
357.384	9.56
357.595	126.29
357.807	50.52
358.018	11.61
358.23	79.19
358.441	81.24
358.653	83.28
358.864	36.18
359.075	21.84
359.287	79.19
359.498	101.72
359.709	54.61
359.921	58.71
360.132	30.04
360.344	101.72
360.555	50.52
360.766	42.32
360.977	25.94
361.189	75.09
361.4	66.9
361.611	85.33
361.823	38.23
362.034	71
362.245	30.04
362.456	9.56
362.667	87.38
362.879	89.43
363.09	103.76
363.301	40.28
363.512	21.84
363.723	128.34
363.935	30.04
364.146	79.19
364.357	66.9
364.568	83.28
364.779	66.9
364.99	36.18
365.201	21.84
365.412	21.84
365.623	11.61
365.834	46.42
366.045	101.72
366.256	136.53
366.467	-17.07
366.678	54.61
366.889	5.46
367.1	11.61
367.311	85.33
367.522	11.61
367.733	95.57
367.944	32.08
368.155	1.37
368.366	19.8
368.577	103.76
368.788	97.62
368.999	7.51
369.209	87.38
369.42	122.2
369.631	95.57
369.842	81.24
370.053	-6.83
370.264	105.81
370.474	44.37
370.685	114
370.896	73.04
371.107	87.38
371.317	60.76
371.528	25.94
371.739	130.39
371.95	38.23
372.16	111.96
372.371	3.41
372.582	36.18
372.792	114
373.003	83.28
373.214	68.95
373.424	62.8
373.635	11.61
373.846	68.95
374.056	73.04
374.267	120.15
374.477	109.91
374.688	91.48
374.898	73.04
375.109	36.18
375.319	103.76
375.53	83.28
375.74	50.52
375.951	120.15
376.161	58.71
376.372	105.81
376.582	91.48
376.793	38.23
377.003	54.61
377.214	50.52
377.424	60.76
377.635	71
377.845	23.89
378.055	114
378.266	36.18
378.476	32.08
378.686	5.46
378.897	89.43
379.107	101.72
379.317	79.19
379.528	64.85
379.738	83.28
379.948	27.99
380.158	105.81
380.369	75.09
380.579	103.76
380.789	30.04
380.999	54.61
381.21	159.06
381.42	93.52
381.63	34.13
381.84	54.61
382.05	77.14
382.261	64.85
382.471	81.24
382.681	111.96
382.891	126.29
383.101	44.37
383.311	50.52
383.521	60.76
383.731	77.14
383.941	97.62
384.151	30.04
384.361	85.33
384.571	109.91
384.781	122.2
384.991	101.72
385.201	75.09
385.411	128.34
385.621	79.19
385.831	71
386.041	25.94
386.251	97.62
386.461	54.61
386.671	-6.83
386.881	62.8
387.091	58.71
387.301	99.67
387.511	44.37
387.72	89.43
387.93	56.66
388.14	62.8
388.35	81.24
388.56	75.09
388.769	99.67
388.979	40.28
389.189	36.18
389.399	66.9
389.609	54.61
389.818	114
390.028	126.29
390.238	73.04
390.447	64.85
390.657	175.44
390.867	89.43
391.076	85.33
391.286	79.19
391.496	93.52
391.705	105.81
391.915	75.09
392.125	27.99
392.334	132.44
392.544	56.66
392.753	114
392.963	87.38
393.172	99.67
393.382	144.72
393.591	193.87
393.801	132.44
394.01	91.48
394.22	154.96
394.429	81.24
394.639	68.95
394.848	99.67
395.058	52.56
395.267	66.9
395.477	95.57
395.686	111.96
395.895	109.91
396.105	255.31
396.314	75.09
396.524	187.73
396.733	83.28
396.942	128.34
397.152	148.82
397.361	81.24
397.57	101.72
397.78	103.76
397.989	64.85
398.198	144.72
398.407	126.29
398.617	214.35
398.826	171.35
399.035	138.58
399.244	161.11
399.453	105.81
399.663	150.87
399.872	118.1
400.081	111.96
400.29	154.96
400.499	83.28
400.708	222.55
400.917	185.68
401.127	152.91
401.336	99.67
401.545	179.54
401.754	144.72
401.963	173.39
402.172	124.24
402.381	216.4
402.59	114
402.799	107.86
403.008	163.15
403.217	93.52
403.426	206.16
403.635	138.58
403.844	247.12
404.053	130.39
404.262	185.68
404.471	236.88
404.68	212.31
404.888	124.24
405.097	193.87
405.306	202.07
405.515	193.87
405.724	189.78
405.933	277.84
406.142	245.07
406.35	228.69
406.559	279.89
406.768	257.36
406.977	337.23
407.185	253.27
407.394	279.89
407.603	296.27
407.812	322.9
408.02	279.89
408.229	226.64
408.438	339.28
408.646	335.18
408.855	365.9
409.064	382.29
409.272	419.15
409.481	333.14
409.69	372.05
409.898	449.87
410.107	462.16
410.315	398.67
410.524	492.88
410.733	392.53
410.941	435.53
411.15	490.83
411.358	468.3
411.567	578.89
411.775	523.6
411.984	527.69
412.192	611.66
412.401	662.86
412.609	617.8
412.818	709.96
413.026	689.48
413.234	681.29
413.443	671.05
413.651	707.91
413.86	724.3
414.068	884.04
414.276	816.46
414.485	865.61
414.693	871.75
414.901	937.29
415.11	871.75
415.318	898.38
415.526	1015.11
415.734	1027.4
415.943	1082.69
416.151	1154.37
416.359	1148.23
416.567	1123.65
416.776	1154.37
416.984	1269.06
417.192	1250.63
417.4	1346.88
417.608	1244.48
417.817	1416.51
418.025	1408.32
418.233	1553.73
418.441	1463.62
418.649	1576.25
418.857	1809.72
419.065	1701.18
419.273	1801.53
419.481	1676.6
419.689	1912.12
419.897	1957.18
420.105	2004.28
420.313	2204.98
420.521	2125.11
420.729	2258.23
420.937	2278.71
421.145	2370.87
421.353	2477.36
421.561	2604.33
421.769	2673.96
421.977	2759.98
422.185	2770.22
422.393	2927.91
422.601	3073.32
422.809	3091.75
423.017	3038.5
423.224	3286.31
423.432	3372.32
423.64	3347.75
423.848	3687.71
424.056	3556.64
424.263	3767.58
424.471	3898.65
424.679	3874.07
424.887	4158.74
425.094	4222.23
425.302	4214.04
425.51	4470.03
425.718	4662.54
425.925	4545.81
426.133	4754.7
426.341	4930.83
426.548	5209.35
426.756	5215.49
426.964	5301.51
427.171	5633.28
427.379	5758.21
427.586	5911.8
427.794	5952.76
428.001	6257.91
428.209	6741.23
428.417	6511.86
428.624	6710.51
428.832	6915.31
429.039	6927.6
429.247	6821.1
429.454	7587.04
429.662	7967.96
429.869	7662.82
430.076	8117.47
430.284	7843.04
430.491	8139.99
430.699	8537.3
430.906	8631.51
431.114	8668.37
431.321	9209.03
431.528	9155.79
431.736	9833.66
431.943	10190.01
432.15	10024.12
432.358	9962.69
432.565	10722.48
432.772	10702
432.979	11048.11
433.187	11310.25
433.394	11326.63
433.601	12117.15
433.808	12266.65
434.016	12178.59
434.223	12709.01
434.43	13325.45
434.637	12885.14
434.844	14261.37
435.052	14138.49
435.259	14154.88
435.466	14140.54
435.673	13960.32
435.88	15236.2
436.087	15856.74
436.294	15834.21
436.501	15504.49
436.708	15670.37
436.915	16180.32
437.122	16925.78
437.329	16958.55
437.537	17478.73
437.743	17613.9
437.95	17607.75
438.157	18627.64
438.364	19354.67
438.571	19123.25
438.778	19203.12
438.985	21128.21
439.192	20294.69
439.399	20978.71
439.606	20284.45
439.813	21535.76
440.02	22772.73
440.227	22543.36
440.433	22670.33
440.64	22936.57
440.847	22862.84
441.054	23284.72
441.261	25011.16
441.467	24574.94
441.674	25392.08
441.881	26078.15
442.088	25883.59
442.294	25742.28
442.501	26430.4
442.708	26823.61
442.914	28144.55
443.121	29191.06
443.328	28236.71
443.534	30305.16
443.741	29682.58
443.948	28933.02
444.154	31132.54
444.361	30995.32
444.568	30876.54
444.774	31159.16
444.981	31826.8
445.187	32658.27
445.394	33964.88
445.6	33682.26
445.807	36662.05
446.013	35160.89
446.22	35535.67
446.426	36864.8
446.633	37411.61
446.839	38392.59
447.046	37360.41
447.252	39269.12
447.459	39279.36
447.665	39572.22
447.871	40624.87
448.078	42515.15
448.284	40356.59
448.491	41693.91
448.697	42980.04
448.903	43766.46
449.11	44034.74
449.316	43379.39
449.522	44198.58
449.728	45365.92
449.935	45861.53
450.141	45687.45
450.347	46779.02
450.553	45150.88
450.76	46015.13
450.966	47846.01
451.172	47100.55
451.378	47680.13
451.584	47288.96
451.791	48132.73
451.997	47972.99
452.203	49269.35
452.409	48806.51
452.615	48675.44
452.821	47035.02
453.027	46461.58
453.233	48654.96
453.44	46510.74
453.646	47286.92
453.852	47446.66
454.058	48497.27
454.264	47069.83
454.47	47860.35
454.676	47096.45
454.882	48370.29
455.088	44409.52
455.294	45228.71
455.5	46068.37
455.705	46215.83
455.911	44343.98
456.117	43946.68
456.323	42803.91
456.529	40786.66
456.735	42867.4
456.941	41241.31
457.147	40637.16
457.352	39596.79
457.558	39072.51
457.764	39437.05
457.97	38112.02
458.176	37690.13
458.381	37683.99
458.587	35767.09
458.793	35748.66
458.999	34464.58
459.204	36524.84
459.41	35719.99
459.616	32934.75
459.821	33280.86
460.027	33190.75
460.233	32451.43
460.438	30690.18
460.644	31146.87
460.85	29787.02
461.055	29256.6
461.261	29168.54
461.466	26719.17
461.672	26065.86
461.878	28015.53
462.083	26383.3
462.289	25807.82
462.494	25705.42
462.7	24161.25
462.905	23565.29
463.111	24464.35
463.316	24546.27
463.522	24167.4
463.727	24054.76
463.932	23999.46
464.138	23618.54
464.343	24144.87
464.549	23024.63
464.754	23860.2
464.959	23755.75
465.165	23466.99
465.37	22668.28
465.575	22156.29
465.781	22588.41
465.986	23030.77
466.191	21900.3
466.397	21617.68
466.602	20509.72
466.807	21388.3
467.012	21519.37
467.218	21474.32
467.423	21111.83
467.628	21201.94
467.833	22217.73
468.038	21158.93
468.244	20655.13
468.449	21304.34
468.654	20726.81
468.859	20962.33
469.064	20370.46
469.269	19483.69
469.474	20001.83
469.679	20442.14
469.885	19635.24
470.09	19739.69
470.295	19981.35
470.5	19350.57
470.705	19532.84
470.91	18957.36
471.115	18744.38
471.32	19029.04
471.525	19153.97
471.73	18547.77
471.935	18449.47
472.139	17908.8
472.344	18021.44
472.549	18046.02
472.754	18062.4
472.959	17259.6
473.164	17040.47
473.369	16749.65
473.574	17534.03
473.778	17181.78
473.983	17194.06
474.188	17034.32
474.393	16331.87
474.598	16112.74
474.802	16096.35
475.007	16190.56
475.212	15946.85
475.417	15418.47
475.621	15264.88
475.826	15338.6
476.031	15170.67
476.235	14967.92
476.44	15010.93
476.645	14871.67
476.849	15027.31
477.054	14648.44
477.259	14738.55
477.463	14261.37
477.668	14068.86
477.872	14097.53
478.077	14210.17
478.282	13700.23
478.486	13636.74
478.691	13671.56
478.895	13520.01
479.1	13511.82
479.304	13317.26
479.509	13008.01
479.713	13118.61
479.918	12833.94
480.122	12407.96
480.326	13026.45
480.531	13016.21
480.735	12678.29
480.94	12600.47
481.144	13171.85
481.348	12485.78
481.553	12752.02
481.757	12422.3
481.961	12620.95
482.166	12432.54
482.37	12487.83
482.574	12248.22
482.778	12305.56
482.983	12547.22
483.187	12401.82
483.391	12526.74
483.595	12356.76
483.8	12287.13
484.004	12461.21
484.208	12334.23
484.412	12231.83
484.616	12266.65
484.821	12508.31
485.025	12311.71
485.229	12479.64
485.433	12242.07
485.637	12442.78
485.841	12352.66
486.045	12342.42
486.249	12465.3
486.453	12301.47
486.657	12315.8
486.861	12446.87
487.065	12160.16
487.269	12096.67
487.473	12068
487.677	12235.93
487.881	12477.59
488.085	12221.59
488.289	12360.86
488.493	12203.16
488.697	12516.5
488.901	12539.03
489.105	12475.54
489.309	12332.19
489.512	12397.72
489.716	12534.93
489.92	12641.43
490.124	12465.3
490.328	12614.8
490.531	12424.34
490.735	12625.04
490.939	12848.27
491.143	12448.92
491.346	12645.52
491.55	12733.59
491.754	12698.77
491.958	12797.07
492.161	12713.11
492.365	12991.63
492.569	12723.35
492.772	12969.1
492.976	13294.73
493.18	13096.08
493.383	13196.43
493.587	13646.98
493.79	13405.32
493.994	13433.99
494.197	13415.56
494.401	13610.12
494.605	13620.36
494.808	13843.59
495.012	13792.39
495.215	13921.41
495.419	14058.62
495.622	14214.27
495.825	14122.11
496.029	14328.95
496.232	14630.01
496.436	14306.43
496.639	14713.97
496.843	14580.85
497.046	14908.53
497.249	15195.25
497.453	15428.71
497.656	15400.04
497.859	15590.5
498.063	15608.94
498.266	16018.53
498.469	15940.71
498.673	15963.23
498.876	16428.12
499.079	16507.99
499.282	16432.22
499.485	16727.13
499.689	17087.57
499.892	17368.14
500.095	17202.25
500.298	17663.05
500.501	17531.98
500.705	17978.43
500.908	18074.69
501.111	18359.36
501.314	18492.48
501.517	18705.46
501.72	18828.34
501.923	18879.54
502.126	19274.8
502.329	19495.98
502.532	19885.09
502.735	19682.34
502.938	20218.91
503.141	20266.02
503.344	20691.99
503.547	20741.14
503.75	21001.24
503.953	21574.67
504.156	21484.56
504.359	21808.14
504.562	21705.74
504.765	22297.6
504.968	22311.94
505.17	22371.33
505.373	22754.3
505.576	23065.59
505.779	23360.5
505.982	23790.57
506.185	23938.02
506.387	23935.98
506.59	24226.79
506.793	24916.95
506.996	24765.4
507.198	25492.43
507.401	25375.7
507.604	25494.48
507.807	25938.89
508.009	26176.45
508.212	26348.48
508.415	26917.82
508.617	26829.76
508.82	27020.22
509.022	27012.03
509.225	27825.07
509.428	28418.98
509.63	27993
509.833	28455.84
510.035	29201.3
510.238	29023.13
510.44	29492.12
510.643	29950.86
510.845	30096.27
511.048	29928.33
511.25	30419.85
511.453	30567.3
511.655	31808.37
511.858	31110.01
512.06	31714.16
512.262	31671.15
512.465	31884.14
512.667	32826.21
512.87	33131.36
513.072	33190.75
513.274	33602.39
513.477	33999.69
513.679	34167.63
513.881	34427.72
514.084	35095.36
514.286	35337.02
514.488	35218.24
514.69	36127.53
514.893	36250.41
515.095	36705.06
515.297	37038.88
515.499	37092.13
515.701	37751.57
515.904	37991.19
516.106	38226.7
516.308	38417.16
516.51	39068.42
516.712	39308.03
516.914	39320.32
517.116	40078.07
517.318	40016.63
517.52	40456.94
517.722	40579.82
517.925	41214.69
518.127	41620.19
518.329	41796.31
518.531	41833.17
518.733	42627.79
518.935	42937.03
519.136	42707.66
519.338	43438.78
519.54	43872.95
519.742	43963.06
519.944	44495.53
520.146	44866.22
520.348	45238.95
520.55	45433.5
520.752	45593.25
520.954	46428.82
521.155	45941.4
521.357	46662.29
521.559	46752.4
521.761	47497.86
521.963	47522.43
522.164	47647.36
522.366	48169.59
522.568	48302.71
522.77	48599.66
522.971	49359.46
523.173	48878.19
523.375	49431.14
523.576	49640.03
523.778	49678.94
523.98	50162.26
524.181	50362.96
524.383	50633.3
524.584	51204.68
524.786	51016.27
524.988	51309.13
525.189	51819.07
525.391	51761.73
525.592	52572.72
525.794	52249.14
525.995	52505.14
526.197	52677.17
526.398	52687.41
526.6	53074.48
526.801	53074.48
527.003	53367.33
527.204	53326.38
527.406	53764.64
527.607	53461.54
527.808	54016.54
528.01	53266.98
528.211	53877.28
528.412	54751.76
528.614	54176.28
528.815	54454.81
529.016	55362.06
529.218	54280.73
529.419	54841.87
529.62	55161.36
529.822	55161.36
530.023	54780.43
530.224	55239.18
530.425	55122.44
530.626	54942.22
530.828	54729.23
531.029	55892.48
531.23	55081.48
531.431	55687.68
531.632	55511.56
531.833	55521.8
532.035	55101.96
532.236	55310.86
532.437	55650.82
532.638	55235.08
532.839	55628.29
533.04	56095.23
533.241	55585.29
533.442	56783.35
533.643	55925.25
533.844	56089.09
534.045	56060.41
534.246	55446.02
534.447	56193.53
534.648	55153.16
534.849	55888.38
535.05	55550.47
535.251	55863.81
535.451	56136.19
535.652	56130.04
535.853	56197.63
536.054	56015.36
536.255	55933.44
536.456	55495.17
536.657	56291.83
536.857	55585.29
537.058	55319.05
537.259	55419.4
537.46	55779.84
537.66	55566.85
537.861	55773.7
538.062	55550.47
538.263	55665.16
538.463	55783.94
538.664	55390.73
538.865	55945.73
539.065	55896.58
539.266	55194.12
539.466	55908.86
539.667	54854.16
539.868	56220.16
540.068	55560.71
540.269	55446.02
540.469	55716.36
540.67	55198.22
540.87	55241.23
541.071	55104.01
541.271	55581.19
541.472	55431.69
541.672	55177.74
541.873	54856.21
542.073	54645.27
542.274	55575.05
542.474	55108.11
542.675	54655.51
542.875	55515.65
543.075	55233.03
543.276	54704.66
543.476	55302.67
543.676	54467.09
543.877	55280.14
544.077	55136.78
544.277	54796.82
544.478	55089.68
544.678	55095.82
544.878	54891.02
545.078	55132.68
545.279	54346.26
545.479	54620.69
545.679	54886.93
545.879	54962.7
546.079	54833.68
546.28	54764.05
546.48	54594.07
546.68	54981.13
546.88	55353.86
547.08	54989.33
547.28	54690.32
547.48	53758.5
547.68	54364.7
547.88	54426.13
548.081	54899.22
548.281	54587.92
548.481	54389.27
548.681	54897.17
548.881	54288.92
549.081	54354.46
549.28	54231.58
549.48	54366.74
549.68	54463
549.88	54815.25
550.08	54221.34
550.28	54809.1
550.48	54354.46
550.68	54737.43
550.88	54260.25
551.08	54155.8
551.279	54403.61
551.479	53834.27
551.679	54686.23
551.879	54475.29
552.079	54479.38
552.278	54147.61
552.478	54356.5
552.678	54221.34
552.878	54313.5
553.077	53899.81
553.277	53541.41
553.477	54743.57
553.676	53926.43
553.876	54583.83
554.076	54006.3
554.275	54084.12
554.475	53502.5
554.674	53936.67
554.874	53864.99
555.074	53996.06
555.273	54137.37
555.473	54133.28
555.672	53234.22
555.872	53469.73
556.071	53686.82
556.271	54034.97
556.47	53369.38
556.67	53498.4
556.869	53133.87
557.068	53488.17
557.268	53369.38
557.467	53420.58
557.667	53342.76
557.866	53371.43
558.065	52951.6
558.265	53158.44
558.464	53019.18
558.663	53525.03
558.863	52705.84
559.062	53191.21
559.261	52705.84
559.461	53367.33
559.66	52333.11
559.859	52789.81
560.058	52451.89
560.258	52441.65
560.457	52302.39
560.656	52761.14
560.855	52511.28
561.054	52572.72
561.253	52066.87
561.453	52261.43
561.652	52458.04
561.851	52533.81
562.05	52122.17
562.249	51866.17
562.448	52163.13
562.647	52275.77
562.846	51788.35
563.045	52126.27
563.244	51214.92
563.443	51825.21
563.642	50743.89
563.841	51307.08
564.04	51165.77
564.239	51491.4
564.438	50627.15
564.637	51415.62
564.836	51548.74
565.035	50907.72
565.234	50911.82
565.432	50645.58
565.631	50534.99
565.83	50403.92
566.029	50481.75
566.228	50559.57
566.427	49982.04
566.625	49775.2
566.824	49713.76
567.023	50043.48
567.222	49566.3
567.42	50319.96
567.619	49877.6
567.818	49443.43
568.016	49343.08
568.215	49511.01
568.414	49201.77
568.612	49236.58
568.811	49121.9
569.01	48986.73
569.208	48689.77
569.407	48925.29
569.605	47925.88
569.804	48921.19
570.002	48177.78
570.201	48274.04
570.4	48161.4
570.598	47948.41
570.797	48157.3
570.995	48140.92
571.193	47434.37
571.392	47673.98
571.59	47100.55
571.789	47075.97
571.987	47010.44
572.186	47258.24
572.384	47102.6
572.582	46957.19
572.781	46953.1
572.979	46547.6
573.177	46772.88
573.376	46910.09
573.574	46111.38
573.772	46582.41
573.971	45912.73
574.169	45722.27
574.367	45798.04
574.565	46154.39
574.763	45687.45
574.962	45382.3
575.16	45202.08
575.358	45437.6
575.556	45060.77
575.754	45851.29
575.952	44636.84
576.151	45548.19
576.349	44726.95
576.547	44890.79
576.745	44653.23
576.943	44708.52
577.141	44157.62
577.339	44638.89
577.537	44165.81
577.735	43725.5
577.933	43694.78
578.131	43768.51
578.329	43580.09
578.527	43135.68
578.725	43113.16
578.923	43649.72
579.121	43027.14
579.319	43373.25
579.516	43344.58
579.714	42769.1
579.912	43006.66
580.11	42767.05
580.308	42347.22
580.506	42277.58
580.704	41878.23
580.901	42429.13
581.099	42478.29
581.297	41886.42
581.495	41695.96
581.692	41978.58
581.89	41120.48
582.088	41937.62
582.285	41085.67
582.483	41349.85
582.681	41009.89
582.878	40938.21
583.076	40663.78
583.274	40960.74
583.471	40432.36
583.669	40530.67
583.866	40452.84
584.064	40870.63
584.262	39844.6
584.459	40293.1
584.657	40061.68
584.854	40620.78
585.052	39437.05
585.249	39963.38
585.447	39920.37
585.644	39308.03
585.841	39703.29
586.039	40071.92
586.236	39133.95
586.434	39322.37
586.631	38689.54
586.828	39187.2
587.026	38994.69
587.223	38939.4
587.42	38603.53
587.618	38990.59
587.815	38310.67
588.012	38335.24
588.21	37978.9
588.407	38286.09
588.604	37649.17
588.801	37677.85
588.999	38015.76
589.196	37503.77
589.393	37780.24
589.59	37253.92
589.787	37237.53
589.984	37425.95
590.182	36944.67
590.379	37114.65
590.576	36729.64
590.773	36836.13
590.97	36422.44
591.167	36664.1
591.364	36227.88
591.561	36340.52
591.758	36117.29
591.955	36092.72
592.152	36547.37
592.349	36014.9
592.546	36113.2
592.743	35750.71
592.94	35617.59
593.137	35914.55
593.334	35576.63
593.531	35210.04
593.727	35490.62
593.924	35236.67
594.121	34841.41
594.318	35437.37
594.515	34595.65
594.712	34968.38
594.908	34562.89
595.105	34900.8
595.302	34632.52
595.499	34626.37
595.696	34368.33
595.892	34194.25
596.089	34421.58
596.286	34220.88
596.482	33874.77
596.679	34431.82
596.876	33866.58
597.072	33418.07
597.269	33819.47
597.466	33250.14
597.662	33162.08
597.859	33207.13
598.055	33043.29
598.252	33047.39
598.448	32910.18
598.645	32846.69
598.841	32744.29
599.038	32854.88
599.234	32424.81
599.431	32168.81
599.627	32486.25
599.824	32355.18
600.02	32136.04
600.217	32193.39
600.413	31882.09
600.609	31964.01
600.806	31662.96
601.002	32060.27
601.198	31290.23
601.395	31728.5
601.591	31617.91
601.787	31533.94
601.984	31374.2
602.18	31654.77
602.376	31298.42
602.572	30929.79
602.769	30731.14
602.965	30534.53
603.161	30935.93
603.357	30479.24
603.553	30364.55
603.75	30391.17
603.946	29903.76
604.142	30444.42
604.338	29963.15
604.534	30356.36
604.73	29809.55
604.926	29744.02
605.122	29987.72
605.318	29567.89
605.514	29332.37
605.71	29582.23
605.906	29385.62
606.102	29275.03
606.298	29240.22
606.494	29283.22
606.69	29094.81
606.886	29465.49
607.082	28758.94
607.278	29045.66
607.474	28799.9
607.67	28873.63
607.866	28457.89
608.062	29043.61
608.257	28646.3
608.453	28464.03
608.649	28371.88
608.845	28318.63
609.041	28126.12
609.236	28443.56
609.432	28208.04
609.628	27943.85
609.824	27845.55
610.019	27732.91
610.215	28165.03
610.411	27888.56
610.606	27798.45
610.802	28033.96
610.998	27906.99
611.193	27765.68
611.389	27782.06
611.584	27450.29
611.78	27257.78
611.976	27245.49
612.171	27427.76
612.367	27239.35
612.562	27014.07
612.758	26887.1
612.953	26727.36
613.149	27184.05
613.344	26899.39
613.539	27354.04
613.735	26932.15
613.93	27143.1
614.126	26678.21
614.321	26825.66
614.517	26655.68
614.712	26766.27
614.907	26338.24
615.103	26375.11
615.298	26368.96
615.493	26540.99
615.688	25959.37
615.884	26776.51
616.079	26100.68
616.274	26131.4
616.47	25988.04
616.665	26043.34
616.86	25969.61
617.055	26178.5
617.25	25963.47
617.445	26063.82
617.641	25316.31
617.836	25203.67
618.031	25369.55
618.226	25562.06
618.421	25445.33
618.616	25809.87
618.811	25023.45
619.006	25246.68
619.201	24474.59
619.396	25076.69
619.591	24568.8
619.786	24869.85
619.981	24464.35
620.176	24802.27
620.371	24423.39
620.566	24314.85
620.761	23929.83
620.956	24191.97
621.151	23886.82
621.346	23995.37
621.541	23550.96
621.735	23903.21
621.93	23278.58
622.125	23413.74
622.32	23167.99
622.515	23532.53
622.709	23043.06
622.904	23118.84
623.099	22809.59
623.294	23063.54
623.488	22467.58
623.683	22649.85
623.878	22346.75
624.072	22385.66
624.267	22025.22
624.462	22088.71
624.656	21787.66
624.851	21924.87
625.046	21738.51
625.24	21427.21
625.435	21576.72
625.629	21269.52
625.824	21429.26
626.018	21085.2
626.213	20618.27
626.407	21177.36
626.602	20567.07
626.796	20882.45
626.991	20720.67
627.185	20347.93
627.38	20550.68
627.574	20106.27
627.768	20042.79
627.963	19811.37
628.157	19661.87
628.352	19874.85
628.546	19530.8
628.74	19690.54
628.935	19266.61
629.129	19317.81
629.323	19094.58
629.517	19407.92
629.712	18904.12
629.906	18973.75
630.1	18990.13
630.294	18711.61
630.489	18644.02
630.683	18779.19
630.877	18402.36
631.071	18349.12
631.265	18398.27
631.459	18015.3
631.653	17957.96
631.848	18089.03
632.042	17833.03
632.236	18005.06
632.43	17503.31
632.624	17732.68
632.818	17622.09
633.012	17484.87
633.206	17343.56
633.4	17402.96
633.594	16950.35
633.788	17030.23
633.982	16919.64
634.176	16710.74
634.369	16878.68
634.563	16860.24
634.757	16430.17
634.951	16637.02
635.145	16534.62
635.339	16532.57
635.533	16536.66
635.726	16360.54
635.92	15955.04
636.114	16041.06
636.308	15981.67
636.501	15783.01
636.695	15719.53
636.889	15701.09
637.083	15647.85
637.276	15711.33
637.47	15422.57
637.664	15432.81
637.857	15283.31
638.051	15174.77
638.244	15164.53
638.438	14890.1
638.632	15006.83
638.825	14763.12
639.019	14879.86
639.212	14601.33
639.406	14724.21
639.599	14566.52
639.793	14363.77
639.986	14163.07
640.18	14308.48
640.373	14222.46
640.567	14001.28
640.76	14062.72
640.954	13843.59
641.147	14077.05
641.34	13669.51
641.534	13765.76
641.727	13601.93
641.92	13595.78
642.114	13663.36
642.307	13532.29
642.5	13257.87
642.694	13030.54
642.887	13046.93
643.08	13331.59
643.273	13114.51
643.467	13024.4
643.66	12647.57
643.853	12688.53
644.046	12727.44
644.239	12756.11
644.432	12631.19
644.626	12569.75
644.819	12575.89
645.012	12215.45
645.205	12354.71
645.398	12209.31
645.591	12158.11
645.784	12000.41
645.977	11818.15
646.17	11867.3
646.363	11875.49
646.556	11609.25
646.749	11768.99
646.942	11711.65
647.135	11566.24
647.328	11650.21
647.521	11482.28
647.714	11345.06
647.907	11404.46
648.099	11322.54
648.292	11152.56
648.485	11156.65
648.678	11099.31
648.871	11023.53
649.064	10998.96
649.256	10818.74
649.449	10798.26
649.642	10847.41
649.835	10634.42
650.027	10630.32
650.22	10560.69
650.413	10552.5
650.605	10489.01
650.798	10345.66
650.991	10388.66
651.183	10384.57
651.376	10034.36
651.568	9911.49
651.761	10058.94
651.954	9983.17
652.146	10228.92
652.339	9964.73
652.531	9911.49
652.724	9931.97
652.916	9755.84
653.109	9850.05
653.301	9915.58
653.494	9675.97
653.686	9549
653.879	9577.67
654.071	9551.04
654.263	9385.16
654.456	9389.25
654.648	9403.59
654.84	9231.56
655.033	9254.09
655.225	9149.64
655.417	9268.42
655.61	9106.63
655.802	9037
655.994	8912.08
656.186	9305.29
656.379	8832.21
656.571	8983.76
656.763	8932.56
656.955	8686.8
657.148	8643.79
657.34	8797.39
657.532	8637.65
657.724	8514.77
657.916	8572.11
658.108	8643.79
658.3	8400.09
658.492	8492.24
658.684	8207.58
658.876	8297.69
659.068	8393.94
659.26	8256.73
659.452	8269.02
659.644	8215.77
659.836	8021.21
660.028	8228.06
660.22	7910.62
660.412	7853.28
660.604	8051.93
660.796	8027.35
660.988	7953.63
661.18	7632.1
661.372	7664.86
661.563	7728.35
661.755	7677.15
661.947	7498.98
662.139	7679.2
662.331	7754.97
662.522	7402.72
662.714	7539.94
662.906	7412.96
663.097	7449.83
663.289	7468.26
663.481	7386.34
663.673	7245.03
663.864	7232.74
664.056	7077.1
664.247	7226.6
664.439	7046.38
664.631	7124.2
664.822	7089.39
665.014	6964.46
665.205	6741.23
665.397	7099.62
665.588	6913.26
665.78	6808.81
665.971	6716.65
666.163	6845.68
666.354	6675.7
666.546	6880.49
666.737	6618.35
666.929	6673.65
667.12	6685.94
667.311	6669.55
667.503	6542.58
667.694	6655.22
667.885	6599.92
668.077	6558.96
668.268	6438.13
668.459	6382.84
668.651	6403.32
668.842	6479.09
669.033	6380.79
669.224	6493.43
669.416	6458.61
669.607	6192.37
669.798	6055.16
669.989	6149.37
670.18	6341.88
670.371	6241.53
670.563	6171.9
670.754	6175.99
670.945	6071.54
671.136	6122.74
671.327	6212.85
671.518	6073.59
671.709	6042.87
671.9	6001.91
672.091	5917.95
672.282	6018.3
672.473	5883.13
672.664	6020.35
672.855	5856.51
673.046	5846.27
673.237	6024.44
673.428	5774.59
673.619	5764.35
673.809	5803.26
674	5586.18
674.191	5623.04
674.382	5534.98
674.573	5709.05
674.764	5682.43
674.954	5649.66
675.145	5680.38
675.336	5571.84
675.527	5477.63
675.717	5571.84
675.908	5475.59
676.099	5596.42
676.289	5668.09
676.48	5549.31
676.671	5422.34
676.861	5510.4
677.052	5291.27
677.243	5451.01
677.433	5365
677.624	5483.78
677.814	5276.93
678.005	5389.57
678.195	5555.46
678.386	5389.57
678.576	5289.22
678.767	5258.5
678.957	5291.27
679.148	5397.76
679.338	5399.81
679.529	5399.81
679.719	5074.18
679.909	5387.52
680.1	5338.37
680.29	5293.32
680.481	5180.68
680.671	5014.79
680.861	5174.53
681.052	5211.4
681.242	5137.67
681.432	5199.11
681.622	5059.85
681.813	5035.27
682.003	5160.2
682.193	4943.11
682.383	5139.72
682.573	5166.34
682.764	5070.09
682.954	5262.6
683.144	5121.29
683.334	5039.37
683.524	5088.52
683.714	5043.46
683.904	5197.06
684.094	5102.86
684.284	5037.32
684.474	5012.74
684.664	5045.51
684.854	5129.48
685.044	4928.78
685.234	4861.2
685.424	4914.44
685.614	4900.11
685.804	4963.59
685.994	4928.78
686.184	4998.41
686.374	5010.7
686.564	4908.3
686.753	4865.29
686.943	4781.32
687.133	4734.22
687.323	4885.77
687.513	4750.6
687.702	4736.27
687.892	4766.99
688.082	4631.82
688.272	4758.8
688.461	4652.3
688.651	4650.25
688.841	4568.34
689.03	4637.97
689.22	4609.29
689.41	4619.53
689.599	4715.79
689.789	4680.97
689.979	4617.49
690.168	4564.24
690.358	4437.27
690.547	4525.33
690.737	4537.62
690.926	4420.88
691.116	4447.51
691.305	4547.86
691.495	4429.07
691.684	4406.55
691.874	4478.22
692.063	4330.77
692.252	4408.59
692.442	4357.39
692.631	4388.11
692.82	4359.44
693.01	4308.24
693.199	4363.54
693.388	4222.23
693.578	4369.68
693.767	4359.44
693.956	4287.76
694.146	4175.13
694.335	4238.61
694.524	4154.65
694.713	4293.91
694.902	4234.52
695.092	4226.32
695.281	4259.09
695.47	4154.65
695.659	4220.18
695.848	4109.59
696.037	4193.56
696.226	4177.17
696.415	4164.89
696.604	4058.39
696.793	4201.75
696.982	4115.73
697.171	4035.86
697.36	4150.55
697.549	4162.84
697.738	4042.01
697.927	4082.97
698.116	4062.49
698.305	3990.81
698.494	4074.78
698.683	4117.78
698.872	4011.29
699.061	4144.41
699.25	3970.33
699.438	4111.64
699.627	4023.58
699.816	4005.14
700.005	4119.83
700.193	4058.39
700.382	4103.45
700.571	3939.61
700.76	3992.86
700.948	4052.25
701.137	3912.99
701.326	4044.06
701.514	3937.56
701.703	4068.63
701.892	3937.56
702.08	3984.66
702.269	3931.42
702.457	3804.44
702.646	3927.32
702.834	3802.4
703.023	3941.66
703.212	3826.97
703.4	3857.69
703.589	3882.27
703.777	3816.73
703.965	3749.15
704.154	3695.9
704.342	3888.41
704.531	3704.09
704.719	3800.35
704.907	3677.47
705.096	3673.37
705.284	3724.57
705.472	3763.48
705.661	3757.34
705.849	3575.07
706.037	3601.69
706.226	3611.93
706.414	3804.44
706.602	3652.89
706.79	3603.74
706.979	3714.33
707.167	3724.57
707.355	3595.55
707.543	3546.4
707.731	3681.57
707.919	3568.93
708.107	3722.52
708.296	3677.47
708.484	3601.69
708.672	3554.59
708.86	3540.26
709.048	3552.54
709.236	3550.5
709.424	3503.39
709.612	3599.65
709.8	3597.6
709.988	3564.83
710.176	3616.03
710.364	3450.14
710.551	3519.78
710.739	3493.15
710.927	3493.15
711.115	3497.25
711.303	3374.37
711.491	3472.67
711.679	3403.04
711.866	3261.73
712.054	3341.6
712.242	3349.79
712.43	3390.75
712.617	3292.45
712.805	3362.08
712.993	3347.75
713.181	3198.24
713.368	3400.99
713.556	3321.12
713.744	3308.83
713.931	3312.93
714.119	3288.36
714.306	3405.09
714.494	3280.16
714.682	3269.92
714.869	3210.53
715.057	3278.12
715.244	3077.41
715.432	3206.44
715.619	3185.96
715.807	3220.77
715.994	3210.53
716.182	3020.07
716.369	3274.02
716.556	3212.58
716.744	3101.99
716.931	3153.19
717.119	3099.94
717.306	3120.42
717.493	3226.92
717.681	3122.47
717.868	3188
718.055	3192.1
718.242	3114.28
718.43	3081.51
718.617	3030.31
718.804	2970.92
718.991	2952.49
719.179	3009.83
719.366	2946.34
719.553	3052.84
719.74	2997.54
719.927	3005.74
720.114	2807.08
720.301	2882.86
720.488	2938.15
720.676	2948.39
720.863	2938.15
721.05	2923.82
721.237	3009.83
721.424	2913.58
721.611	2800.94
721.798	2778.41
721.985	2872.62
722.172	2712.88
722.358	2786.6
722.545	2850.09
722.732	2800.94
722.919	2954.54
723.106	2759.98
723.293	2786.6
723.48	2895.15
723.667	2633.01
723.853	2751.79
724.04	2835.75
724.227	2690.35
724.414	2665.77
724.6	2870.57
724.787	2712.88
724.974	2581.81
725.161	2710.83
725.347	2712.88
725.534	2643.24
725.72	2741.55
725.907	2624.81
726.094	2583.85
726.28	2657.58
726.467	2684.2
726.653	2581.81
726.84	2633.01
727.027	2719.02
727.213	2522.41
727.4	2571.57
727.586	2594.09
727.773	2653.48
727.959	2577.71
728.145	2583.85
728.332	2542.89
728.518	2542.89
728.705	2587.95
728.891	2553.13
729.077	2514.22
729.264	2508.08
729.45	2518.32
729.636	2497.84
729.823	2440.5
730.009	2686.25
730.195	2467.12
730.382	2520.37
730.568	2354.48
730.754	2495.79
730.94	2667.82
731.126	2534.7
731.313	2583.85
731.499	2426.16
731.685	2460.98
731.871	2526.51
732.057	2520.37
732.243	2387.25
732.429	2456.88
732.615	2381.1
732.801	2368.82
732.987	2383.15
733.173	2364.72
733.359	2497.84
733.545	2350.39
733.731	2358.58
733.917	2350.39
734.103	2293.04
734.289	2315.57
734.475	2272.56
734.661	2383.15
734.847	2342.19
735.033	2317.62
735.219	2393.39
735.404	2274.61
735.59	2297.14
735.776	2137.4
735.962	2274.61
736.148	2247.99
736.333	2245.94
736.519	2286.9
736.705	2211.12
736.89	2247.99
737.076	2094.39
737.262	2178.36
737.447	2245.94
737.633	2063.67
737.819	2198.84
738.004	2268.47
738.19	2178.36
738.375	2196.79
738.561	2252.08
738.747	2102.58
738.932	2143.54
739.118	2194.74
739.303	2121.01
739.489	2065.72
739.674	2116.92
739.859	2086.2
740.045	2147.64
740.23	2059.57
740.416	2071.86
740.601	2037.05
740.786	2073.91
740.972	2043.19
741.157	2118.97
741.342	1983.8
741.528	2051.38
741.713	1959.22
741.898	2032.95
742.084	2012.47
742.269	2018.61
742.454	2129.2
742.639	1981.75
742.824	2016.57
743.01	1981.75
743.195	1948.98
743.38	1905.98
743.565	1920.31
743.75	1934.65
743.935	1856.82
744.12	1957.18
744.305	1895.74
744.49	1897.78
744.675	1897.78
744.86	1850.68
745.045	1817.91
745.23	1809.72
745.415	1877.3
745.6	1838.39
745.785	1762.62
745.97	1819.96
746.155	1887.54
746.34	1785.15
746.525	1727.8
746.71	1774.91
746.895	1709.37
747.079	1711.42
747.264	1699.13
747.449	1738.04
747.634	1793.34
747.819	1699.13
748.003	1604.92
748.188	1619.26
748.373	1705.28
748.557	1709.37
748.742	1516.86
748.927	1625.4
749.111	1635.64
749.296	1656.12
749.481	1647.93
749.665	1545.53
749.85	1541.44
750.034	1480
750.219	1568.06
750.404	1566.01
750.588	1631.55
750.773	1551.68
750.957	1447.23
751.141	1606.97
751.326	1475.9
751.51	1561.92
751.695	1535.29
751.879	1465.66
752.064	1477.95
752.248	1480
752.432	1490.24
752.617	1369.41
752.801	1494.33
752.985	1396.03
753.17	1412.42
753.354	1455.42
753.538	1357.12
753.722	1307.97
753.907	1363.26
754.091	1281.35
754.275	1367.36
754.459	1264.96
754.643	1363.26
754.828	1357.12
755.012	1277.25
755.196	1283.39
755.38	1314.11
755.564	1142.08
755.748	1203.52
755.932	1283.39
756.116	1133.89
756.3	1275.2
756.484	1293.63
756.668	1254.72
756.852	1187.14
757.036	1201.47
757.22	1201.47
757.404	1236.29
757.588	1228.1
757.772	1205.57
757.956	1123.65
758.14	1217.86
758.323	1113.41
758.507	1142.08
758.691	1070.4
758.875	1113.41
759.059	1168.71
759.242	1133.89
759.426	1152.32
759.61	1127.75
759.794	1107.27
759.977	1105.22
760.161	1086.79
760.345	1056.07
760.528	1023.3
760.712	1039.69
760.895	1101.12
761.079	1094.98
761.263	1008.97
761.446	1027.4
761.63	1064.26
761.813	1101.12
761.997	1056.07
762.18	1025.35
762.364	980.29
762.547	988.49
762.731	904.52
762.914	965.96
763.098	1013.06
763.281	976.2
763.464	953.67
763.648	937.29
763.831	931.14
764.015	902.47
764.198	931.14
764.381	886.09
764.564	875.85
764.748	892.23
764.931	875.85
765.114	941.38
765.297	937.29
765.481	867.66
765.664	879.94
765.847	849.22
766.03	877.9
766.213	863.56
766.397	861.51
766.58	863.56
766.763	916.81
766.946	865.61
767.129	875.85
767.312	896.33
767.495	959.81
767.678	834.89
767.861	894.28
768.044	857.42
768.227	894.28
768.41	853.32
768.593	896.33
768.776	826.7
768.959	931.14
769.142	963.91
769.324	890.18
769.507	795.98
769.69	810.31
769.873	830.79
770.056	853.32
770.239	802.12
770.421	900.42
770.604	822.6
770.787	793.93
770.97	802.12
771.152	832.84
771.335	806.22
771.518	816.46
771.7	808.26
771.883	914.76
772.066	804.17
772.248	734.54
772.431	769.35
772.613	732.49
772.796	761.16
772.978	742.73
773.161	761.16
773.343	767.31
773.526	666.96
773.708	748.87
773.891	728.39
774.073	757.07
774.256	761.16
774.438	726.35
774.621	734.54
774.803	775.5
774.985	623.95
775.168	718.15
775.35	738.63
775.532	626
775.715	658.76
775.897	714.06
776.079	617.8
776.261	654.67
776.444	634.19
776.626	658.76
776.808	611.66
776.99	578.89
777.173	585.04
777.355	585.04
777.537	617.8
777.719	611.66
777.901	580.94
778.083	605.52
778.265	621.9
778.447	597.32
778.629	652.62
778.811	523.6
778.993	699.72
779.175	621.9
779.357	564.56
779.539	585.04
779.721	482.64
779.903	673.1
780.085	595.28
780.267	529.74
780.449	521.55
780.631	529.74
780.812	558.41
780.994	468.3
781.176	486.73
781.358	503.12
781.54	494.93
781.721	537.93
781.903	537.93
782.085	523.6
782.267	591.18
782.448	501.07
782.63	427.34
782.812	464.21
782.993	482.64
783.175	523.6
783.357	499.02
783.538	447.82
783.72	474.45
783.901	503.12
784.083	406.86
784.264	435.53
784.446	472.4
784.627	413.01
784.809	394.58
784.99	431.44
785.172	417.1
785.353	474.45
785.535	484.69
785.716	517.45
785.897	384.34
786.079	398.67
786.26	406.86
786.441	427.34
786.623	400.72
786.804	443.73
786.985	386.38
787.167	382.29
787.348	314.7
787.529	423.25
787.71	382.29
787.891	456.01
788.073	376.14
788.254	333.14
788.435	333.14
788.616	437.58
788.797	351.57
788.978	353.62
789.159	349.52
789.34	382.29
789.522	408.91
789.703	351.57
789.884	382.29
790.065	435.53
790.246	427.34
790.427	320.85
790.607	431.44
790.788	374.1
790.969	234.83
791.15	312.66
791.331	306.51
791.512	292.18
791.693	247.12
791.874	331.09
792.054	343.38
792.235	253.27
792.416	277.84
792.597	249.17
792.778	351.57
792.958	322.9
793.139	255.31
793.32	351.57
793.5	275.79
793.681	322.9
793.862	370
794.042	210.26
794.223	308.56
794.404	204.11
794.584	302.42
794.765	322.9
794.945	314.7
795.126	345.42
795.306	296.27
795.487	238.93
795.667	232.79
795.848	288.08
796.028	300.37
796.209	275.79
796.389	308.56
796.57	351.57
796.75	247.12
796.93	326.99
797.111	220.5
797.291	296.27
797.471	308.56
797.652	249.17
797.832	232.79
798.012	357.71
798.192	263.51
798.373	218.45
798.553	187.73
798.733	197.97
798.913	294.22
799.093	226.64
799.274	273.75
799.454	263.51
799.634	286.03
799.814	288.08
799.994	226.64
800.174	230.74
800.354	212.31
800.534	212.31
800.714	210.26
800.894	195.92
801.074	214.35
801.254	187.73
801.434	263.51
801.614	154.96
801.794	114
801.974	648.52
802.154	273.75
802.334	226.64
802.514	197.97
802.693	259.41
802.873	220.5
803.053	224.59
803.233	212.31
803.413	175.44
803.592	220.5
803.772	208.21
803.952	271.7
804.131	148.82
804.311	226.64
804.491	220.5
804.67	120.15
804.85	204.11
805.03	189.78
805.209	195.92
805.389	226.64
805.568	191.83
805.748	150.87
805.928	195.92
806.107	154.96
806.287	197.97
806.466	263.51
806.646	238.93
806.825	206.16
807.004	191.83
807.184	171.35
807.363	140.63
807.543	220.5
807.722	101.72
807.901	253.27
808.081	124.24
808.26	140.63
808.439	163.15
808.619	161.11
808.798	171.35
808.977	224.59
809.156	204.11
809.336	165.2
809.515	140.63
809.694	130.39
809.873	101.72
810.052	124.24
810.231	179.54
810.411	163.15
810.59	228.69
810.769	107.86
810.948	93.52
811.127	148.82
811.306	150.87
811.485	109.91
811.664	124.24
811.843	212.31
812.022	146.77
812.201	179.54
812.38	124.24
812.559	140.63
812.737	138.58
812.916	157.01
813.095	71
813.274	169.3
813.453	136.53
813.632	150.87
813.811	130.39
813.989	173.39
814.168	183.63
814.347	134.48
814.526	146.77
814.704	122.2
814.883	167.25
815.062	91.48
815.24	181.59
815.419	103.76
815.598	169.3
815.776	107.86
815.955	120.15
816.133	161.11
816.312	118.1
816.49	101.72
816.669	202.07
816.847	167.25
817.026	159.06
817.204	95.57
817.383	187.73
817.561	13.65
817.74	95.57
817.918	185.68
818.097	118.1
818.275	118.1
818.453	56.66
818.632	89.43
818.81	183.63
818.988	107.86
819.167	111.96
819.345	77.14
819.523	34.13
819.701	130.39
819.879	189.78
820.058	97.62
820.236	144.72
820.414	97.62
820.592	128.34
820.77	136.53
820.948	159.06
821.127	75.09
821.305	179.54
821.483	9.56
821.661	195.92
821.839	81.24
822.017	111.96
822.195	95.57
822.373	154.96
822.551	105.81
822.729	75.09
822.907	93.52
823.085	157.01
823.262	99.67
823.44	40.28
823.618	103.76
823.796	103.76
823.974	38.23
824.152	101.72
824.329	107.86
824.507	146.77
824.685	75.09
824.863	87.38
825.04	126.29
825.218	126.29
825.396	97.62
825.574	93.52
825.751	99.67
825.929	138.58
826.107	103.76
826.284	64.85
826.462	27.99
826.639	107.86
826.817	126.29
826.994	107.86
827.172	52.56
827.349	114
827.527	58.71
827.704	46.42
827.882	150.87
828.059	136.53
828.237	40.28
828.414	54.61
828.591	11.61
828.769	95.57
828.946	91.48
829.124	152.91
829.301	161.11
829.478	79.19
829.655	85.33
829.833	62.8
830.01	50.52
830.187	122.2
830.364	19.8
830.542	68.95
830.719	126.29
830.896	87.38
831.073	62.8
831.25	159.06
831.427	95.57
831.604	97.62
831.782	85.33
831.959	89.43
832.136	54.61
832.313	103.76
832.49	91.48
832.667	30.04
832.844	5.46
833.021	52.56
833.198	46.42
833.374	5.46
833.551	103.76
833.728	60.76
833.905	30.04
834.082	44.37
834.259	77.14
834.436	52.56
834.612	73.04
834.789	15.7
834.966	36.18
835.143	89.43
835.319	46.42
835.496	66.9
835.673	120.15
835.85	83.28
836.026	91.48
836.203	56.66
836.38	54.61
836.556	25.94
836.733	71
836.909	99.67
837.086	71
837.262	73.04
837.439	32.08
837.616	114
837.792	32.08
837.968	87.38
838.145	36.18
838.321	42.32
838.498	54.61
838.674	54.61
838.851	64.85
839.027	114
839.203	85.33
839.38	32.08
839.556	132.44
839.732	13.65
839.909	66.9
840.085	42.32
840.261	9.56
840.437	105.81
840.614	73.04
840.79	64.85
840.966	75.09
841.142	52.56
841.318	19.8
841.494	105.81
841.671	128.34
841.847	46.42
842.023	64.85
842.199	75.09
842.375	64.85
842.551	23.89
842.727	32.08
842.903	17.75
843.079	11.61
843.255	95.57
843.431	-4.78
843.607	87.38
843.783	11.61
843.959	99.67
844.134	85.33
844.31	21.84
844.486	-27.31
844.662	71
844.838	58.71
845.013	111.96
845.189	105.81
845.365	42.32
845.541	103.76
845.716	44.37
845.892	25.94
846.068	-23.21
846.244	21.84
846.419	34.13
846.595	48.47
846.77	60.76
846.946	27.99
847.122	3.41
847.297	-33.45
847.473	146.77
847.648	27.99
847.824	40.28
847.999	60.76
848.175	38.23
848.35	66.9
848.526	107.86
848.701	56.66
848.876	144.72
849.052	101.72
849.227	23.89
849.403	17.75
849.578	-4.78
849.753	50.52
849.929	-12.97
850.104	34.13
850.279	42.32
850.454	118.1
850.63	64.85
850.805	60.76
850.98	-4.78
851.155	38.23
851.33	89.43
851.505	-2.73
851.681	32.08
851.856	60.76
852.031	38.23
852.206	42.32
852.381	27.99
852.556	81.24
852.731	36.18
852.906	60.76
853.081	73.04
853.256	11.61
853.431	23.89
853.606	38.23
853.781	7.51
853.956	-47.79
854.131	83.28
854.305	21.84
854.48	-8.87
854.655	44.37
854.83	-47.79
855.005	-41.64
855.18	85.33
855.354	-23.21
855.529	3.41
855.704	64.85
855.879	15.7
856.053	38.23
856.228	77.14
856.403	25.94
856.577	81.24
856.752	-17.07
856.926	13.65
857.101	52.56
857.276	62.8
857.45	11.61
857.625	-8.87
857.799	27.99
857.974	7.51
858.148	-17.07
858.323	11.61
858.497	-0.68
858.672	1.37
858.846	91.48
859.02	46.42
859.195	5.46
859.369	38.23
859.543	71
859.718	23.89
859.892	42.32
860.066	-25.26
860.241	-0.68
860.415	99.67
860.589	40.28
860.763	87.38
860.938	44.37
861.112	11.61
861.286	9.56
861.46	56.66
861.634	19.8
861.808	27.99
861.982	-12.97
862.157	13.65
862.331	-23.21
862.505	-27.31
862.679	-41.64
862.853	-6.83
863.027	21.84
863.201	77.14
863.375	-60.07
863.549	40.28
863.722	89.43
863.896	93.52
864.07	34.13
864.244	-12.97
864.418	11.61
864.592	-39.59
864.766	19.8
864.939	-2.73
865.113	15.7
865.287	-0.68
865.461	-19.11
865.634	38.23
865.808	52.56
865.982	71
866.156	-4.78
866.329	-41.64
866.503	52.56
866.676	46.42
866.85	56.66
867.024	-21.16
867.197	-37.55
867.371	-66.22
867.544	1.37
867.718	-17.07
867.891	3.41
868.065	-17.07
868.238	23.89
868.412	68.95
868.585	-10.92
868.759	87.38
868.932	7.51
869.105	-6.83
869.279	30.04
869.452	-39.59
869.625	-12.97
869.799	7.51
869.972	-27.31
870.145	15.7
870.319	114
870.492	-37.55
870.665	1.37
870.838	15.7
871.011	-12.97
871.185	30.04
871.358	-4.78
871.531	56.66
871.704	56.66
871.877	50.52
872.05	-70.31
872.223	-8.87
872.396	46.42
872.569	21.84
872.742	17.75
872.915	1.37
873.088	-45.74
873.261	13.65
873.434	9.56
873.607	40.28
873.78	150.87
873.953	-47.79
874.126	-45.74
874.299	27.99
874.471	21.84
874.644	-17.07
874.817	-10.92
874.99	25.94
875.163	66.9
875.335	15.7
875.508	56.66
875.681	44.37
875.853	-6.83
876.026	44.37
876.199	9.56
876.371	58.71
876.544	-21.16
876.717	30.04
876.889	-47.79
877.062	1.37
877.234	-12.97
877.407	23.89
877.579	-8.87
877.752	-23.21
877.924	-23.21
878.097	64.85
878.269	23.89
878.442	-39.59
878.614	68.95
878.786	-27.31
878.959	-12.97
879.131	-6.83
879.303	-0.68
879.476	25.94
879.648	-37.55
879.82	44.37
879.993	46.42
880.165	-0.68
880.337	-45.74
880.509	23.89
880.681	1.37
880.854	-0.68
881.026	1.37
881.198	46.42
881.37	-8.87
881.542	23.89
881.714	-8.87
881.886	48.47
882.058	44.37
882.23	81.24
882.402	9.56
882.574	42.32
882.746	27.99
882.918	7.51
883.09	91.48
883.262	19.8
883.434	11.61
883.606	46.42
883.778	-2.73
883.95	54.61
884.122	19.8
884.293	9.56
884.465	50.52
884.637	91.48
884.809	3.41
884.98	7.51
885.152	-27.31
885.324	54.61
885.496	-2.73
885.667	-17.07
885.839	32.08
886.011	-33.45
886.182	-23.21
886.354	40.28
886.525	-17.07
886.697	138.58
886.869	5.46
887.04	-4.78
887.212	87.38
887.383	56.66
887.555	34.13
887.726	-12.97
887.897	38.23
888.069	-66.22
888.24	-70.31
888.412	19.8
888.583	-47.79
888.754	-8.87
888.926	-35.5
889.097	60.76
889.268	13.65
889.44	-21.16
889.611	36.18
889.782	75.09
889.953	-0.68
890.125	30.04
890.296	-0.68
890.467	-29.35
890.638	-15.02
890.809	23.89
890.98	-25.26
891.151	-12.97
891.323	27.99
891.494	60.76
891.665	58.71
891.836	21.84
892.007	-21.16
892.178	32.08
892.349	27.99
892.52	48.47
892.691	-31.4
892.862	3.41
893.032	-86.7
893.203	-29.35
893.374	11.61
893.545	-6.83
893.716	19.8
893.887	32.08
894.057	50.52
894.228	3.41
894.399	3.41
894.57	27.99
894.74	21.84
894.911	32.08
895.082	-68.27
895.253	15.7
895.423	-17.07
895.594	9.56
895.764	3.41
895.935	-29.35
896.106	21.84
896.276	-12.97
896.447	68.95
896.617	-29.35
896.788	-0.68
896.958	-4.78
897.129	-0.68
897.299	62.8
897.47	42.32
897.64	52.56
897.81	-64.17
897.981	13.65
898.151	-2.73
898.322	-27.31
898.492	-21.16
898.662	-60.07
898.832	13.65
899.003	-23.21
899.173	19.8
899.343	-29.35
899.513	-15.02
