Data from USB4F104151__14__12-35-09-744.txt Node

Date: Fri Mar 14 12:35:09 EDT 2025
User: louis
Spectrometer: USB4F10415
Trigger mode: 4
Integration Time (sec): 2.000000E-2
Scans to average: 1
Electric dark correction enabled: true
Nonlinearity correction enabled: false
Boxcar width: 0
XAxis mode: Wavelengths
Number of Pixels in Spectrum: 3648
>>>>>Begin Spectral Data<<<<<
178.204	-17.24
178.424	-17.24
178.644	-17.24
178.864	-68.44
179.084	-56.15
179.304	-4.95
179.524	-15.19
179.744	-70.48
179.964	3.24
180.184	-43.86
180.404	-25.43
180.624	23.72
180.844	89.26
181.064	1.19
181.283	-19.29
181.503	23.72
181.723	38.06
181.943	-33.62
182.163	23.72
182.383	-2.9
182.602	58.54
182.822	54.44
183.042	15.53
183.262	21.67
183.482	15.53
183.701	50.35
183.921	-25.43
184.141	-27.48
184.361	111.78
184.58	19.63
184.8	-68.44
185.02	11.43
185.239	15.53
185.459	25.77
185.679	52.39
185.898	-17.24
186.118	-35.67
186.338	9.39
186.557	36.01
186.777	15.53
186.997	38.06
187.216	107.69
187.436	79.02
187.655	117.93
187.875	31.91
188.095	-0.85
188.314	72.87
188.534	89.26
188.753	31.91
188.973	36.01
189.192	58.54
189.412	-33.62
189.631	-60.24
189.851	7.34
190.07	40.11
190.29	-25.43
190.509	-27.48
190.729	38.06
190.948	36.01
191.168	97.45
191.387	-27.48
191.607	3.24
191.826	72.87
192.045	87.21
192.265	103.59
192.484	29.87
192.704	7.34
192.923	-45.91
193.142	85.16
193.362	50.35
193.581	40.11
193.8	23.72
194.02	27.82
194.239	-17.24
194.458	-33.62
194.678	-31.57
194.897	-37.72
195.116	15.53
195.335	-2.9
195.555	31.91
195.774	62.63
195.993	1.19
196.212	7.34
196.432	50.35
196.651	1.19
196.87	38.06
197.089	25.77
197.308	-19.29
197.528	72.87
197.747	-7
197.966	38.06
198.185	48.3
198.404	-13.14
198.623	101.55
198.842	62.63
199.062	52.39
199.281	27.82
199.5	-17.24
199.719	36.01
199.938	-33.62
200.157	40.11
200.376	62.63
200.595	81.07
200.814	-15.19
201.033	62.63
201.252	40.11
201.471	-25.43
201.69	103.59
201.909	-2.9
202.128	19.63
202.347	56.49
202.566	79.02
202.785	15.53
203.004	-52.05
203.223	17.58
203.442	29.87
203.661	-2.9
203.879	44.2
204.098	-27.48
204.317	-9.05
204.536	64.68
204.755	-9.05
204.974	27.82
205.193	25.77
205.411	31.91
205.63	19.63
205.849	5.29
206.068	21.67
206.287	23.72
206.505	1.19
206.724	-0.85
206.943	89.26
207.162	-11.09
207.381	17.58
207.599	48.3
207.818	27.82
208.037	46.25
208.255	-2.9
208.474	33.96
208.693	33.96
208.911	46.25
209.13	1.19
209.349	38.06
209.567	42.15
209.786	33.96
210.005	52.39
210.223	15.53
210.442	-50
210.661	107.69
210.879	-19.29
211.098	56.49
211.316	31.91
211.535	21.67
211.753	-19.29
211.972	-15.19
212.191	5.29
212.409	72.87
212.628	31.91
212.846	44.2
213.065	7.34
213.283	38.06
213.502	40.11
213.72	25.77
213.938	-7
214.157	9.39
214.375	17.58
214.594	42.15
214.812	52.39
215.031	136.36
215.249	76.97
215.467	-25.43
215.686	19.63
215.904	76.97
216.122	19.63
216.341	56.49
216.559	105.64
216.778	115.88
216.996	3.24
217.214	13.48
217.432	11.43
217.651	1.19
217.869	46.25
218.087	62.63
218.306	-47.96
218.524	29.87
218.742	48.3
218.96	72.87
219.179	-15.19
219.397	27.82
219.615	33.96
219.833	25.77
220.051	38.06
220.27	103.59
220.488	79.02
220.706	60.59
220.924	-0.85
221.142	54.44
221.36	66.73
221.578	93.35
221.796	11.43
222.015	40.11
222.233	1.19
222.451	-33.62
222.669	62.63
222.887	15.53
223.105	7.34
223.323	23.72
223.541	9.39
223.759	1.19
223.977	-9.05
224.195	19.63
224.413	31.91
224.631	81.07
224.849	25.77
225.067	89.26
225.285	21.67
225.503	93.35
225.721	-25.43
225.939	-0.85
226.157	-0.85
226.375	76.97
226.592	-17.24
226.81	40.11
227.028	21.67
227.246	13.48
227.464	9.39
227.682	48.3
227.9	48.3
228.117	36.01
228.335	-13.14
228.553	62.63
228.771	13.48
228.989	42.15
229.206	81.07
229.424	-41.81
229.642	33.96
229.86	44.2
230.077	21.67
230.295	97.45
230.513	15.53
230.731	97.45
230.948	62.63
231.166	40.11
231.384	-21.33
231.601	48.3
231.819	42.15
232.037	-21.33
232.254	70.83
232.472	103.59
232.689	60.59
232.907	3.24
233.125	-2.9
233.342	29.87
233.56	31.91
233.777	54.44
233.995	-15.19
234.213	13.48
234.43	60.59
234.648	21.67
234.865	87.21
235.083	25.77
235.3	33.96
235.518	-15.19
235.735	58.54
235.953	99.5
236.17	54.44
236.388	-13.14
236.605	-15.19
236.822	66.73
237.04	13.48
237.257	-4.95
237.475	40.11
237.692	15.53
237.909	-58.2
238.127	70.83
238.344	17.58
238.562	58.54
238.779	21.67
238.996	89.26
239.214	52.39
239.431	89.26
239.648	23.72
239.865	-29.52
240.083	52.39
240.3	54.44
240.517	79.02
240.735	109.74
240.952	76.97
241.169	-66.39
241.386	58.54
241.603	25.77
241.821	11.43
242.038	60.59
242.255	19.63
242.472	1.19
242.689	83.11
242.907	97.45
243.124	40.11
243.341	33.96
243.558	21.67
243.775	27.82
243.992	38.06
244.209	7.34
244.426	105.64
244.643	-31.57
244.86	7.34
245.078	95.4
245.295	13.48
245.512	11.43
245.729	79.02
245.946	-4.95
246.163	33.96
246.38	21.67
246.597	31.91
246.814	-47.96
247.031	-9.05
247.248	62.63
247.464	48.3
247.681	21.67
247.898	-7
248.115	17.58
248.332	17.58
248.549	29.87
248.766	56.49
248.983	-15.19
249.2	-0.85
249.417	117.93
249.633	9.39
249.85	50.35
250.067	31.91
250.284	97.45
250.501	62.63
250.717	9.39
250.934	31.91
251.151	-29.52
251.368	46.25
251.585	33.96
251.801	-23.38
252.018	9.39
252.235	70.83
252.451	44.2
252.668	29.87
252.885	44.2
253.102	44.2
253.318	-11.09
253.535	15.53
253.752	54.44
253.968	-43.86
254.185	25.77
254.401	-0.85
254.618	19.63
254.835	38.06
255.051	9.39
255.268	87.21
255.484	-9.05
255.701	46.25
255.917	42.15
256.134	13.48
256.351	101.55
256.567	-0.85
256.784	44.2
257	-2.9
257.217	31.91
257.433	54.44
257.65	40.11
257.866	-9.05
258.082	7.34
258.299	122.02
258.515	15.53
258.732	56.49
258.948	-11.09
259.165	31.91
259.381	9.39
259.597	38.06
259.814	29.87
260.03	42.15
260.246	31.91
260.463	62.63
260.679	83.11
260.895	-7
261.112	60.59
261.328	27.82
261.544	46.25
261.761	81.07
261.977	74.92
262.193	-15.19
262.409	7.34
262.626	54.44
262.842	-0.85
263.058	-50
263.274	79.02
263.49	-13.14
263.707	99.5
263.923	5.29
264.139	-9.05
264.355	60.59
264.571	54.44
264.787	31.91
265.004	-19.29
265.22	-4.95
265.436	13.48
265.652	11.43
265.868	15.53
266.084	38.06
266.3	-11.09
266.516	-29.52
266.732	85.16
266.948	38.06
267.164	52.39
267.38	58.54
267.596	48.3
267.812	70.83
268.028	74.92
268.244	31.91
268.46	5.29
268.676	25.77
268.892	5.29
269.108	-9.05
269.324	46.25
269.54	-58.2
269.756	25.77
269.972	31.91
270.188	46.25
270.403	5.29
270.619	31.91
270.835	11.43
271.051	31.91
271.267	50.35
271.483	46.25
271.698	42.15
271.914	79.02
272.13	27.82
272.346	58.54
272.562	66.73
272.777	29.87
272.993	68.78
273.209	38.06
273.425	-45.91
273.64	15.53
273.856	-11.09
274.072	62.63
274.287	-15.19
274.503	33.96
274.719	-0.85
274.934	-11.09
275.15	-47.96
275.366	23.72
275.581	-2.9
275.797	3.24
276.012	99.5
276.228	19.63
276.444	79.02
276.659	15.53
276.875	-39.76
277.09	60.59
277.306	21.67
277.521	27.82
277.737	54.44
277.952	40.11
278.168	52.39
278.383	113.83
278.599	-23.38
278.814	97.45
279.03	-29.52
279.245	115.88
279.461	50.35
279.676	72.87
279.892	-9.05
280.107	-7
280.322	9.39
280.538	19.63
280.753	-9.05
280.969	79.02
281.184	25.77
281.399	15.53
281.615	-21.33
281.83	23.72
282.045	25.77
282.26	-37.72
282.476	-0.85
282.691	-0.85
282.906	79.02
283.122	44.2
283.337	42.15
283.552	-17.24
283.767	72.87
283.983	-7
284.198	5.29
284.413	52.39
284.628	11.43
284.843	48.3
285.058	58.54
285.274	17.58
285.489	93.35
285.704	48.3
285.919	31.91
286.134	17.58
286.349	81.07
286.564	-29.52
286.779	115.88
286.995	15.53
287.21	11.43
287.425	15.53
287.64	23.72
287.855	56.49
288.07	54.44
288.285	11.43
288.5	36.01
288.715	-4.95
288.93	-9.05
289.145	-2.9
289.36	19.63
289.575	11.43
289.79	-23.38
290.004	40.11
290.219	21.67
290.434	15.53
290.649	-23.38
290.864	36.01
291.079	-19.29
291.294	15.53
291.509	29.87
291.724	74.92
291.938	-7
292.153	54.44
292.368	13.48
292.583	85.16
292.798	29.87
293.012	33.96
293.227	21.67
293.442	-0.85
293.657	21.67
293.871	7.34
294.086	33.96
294.301	19.63
294.516	31.91
294.73	13.48
294.945	-9.05
295.16	42.15
295.374	76.97
295.589	79.02
295.804	25.77
296.018	19.63
296.233	91.31
296.447	119.98
296.662	44.2
296.877	144.55
297.091	70.83
297.306	76.97
297.52	-23.38
297.735	60.59
297.949	27.82
298.164	13.48
298.378	58.54
298.593	-60.24
298.807	21.67
299.022	23.72
299.236	13.48
299.451	25.77
299.665	38.06
299.88	21.67
300.094	-15.19
300.309	31.91
300.523	95.4
300.737	48.3
300.952	42.15
301.166	-2.9
301.381	36.01
301.595	7.34
301.809	44.2
302.024	25.77
302.238	23.72
302.452	58.54
302.667	21.67
302.881	46.25
303.095	38.06
303.309	62.63
303.524	76.97
303.738	-15.19
303.952	40.11
304.166	-45.91
304.381	9.39
304.595	25.77
304.809	62.63
305.023	3.24
305.237	-9.05
305.452	-9.05
305.666	68.78
305.88	50.35
306.094	23.72
306.308	-11.09
306.522	25.77
306.736	29.87
306.95	3.24
307.164	21.67
307.379	21.67
307.593	46.25
307.807	-9.05
308.021	68.78
308.235	13.48
308.449	38.06
308.663	-29.52
308.877	70.83
309.091	-9.05
309.305	13.48
309.519	-17.24
309.733	17.58
309.947	7.34
310.161	62.63
310.374	15.53
310.588	48.3
310.802	70.83
311.016	60.59
311.23	-11.09
311.444	15.53
311.658	27.82
311.872	15.53
312.085	17.58
312.299	29.87
312.513	83.11
312.727	-29.52
312.941	11.43
313.154	-25.43
313.368	126.12
313.582	-21.33
313.796	33.96
314.009	9.39
314.223	-29.52
314.437	93.35
314.651	76.97
314.864	72.87
315.078	23.72
315.292	70.83
315.505	-27.48
315.719	91.31
315.933	70.83
316.146	72.87
316.36	-29.52
316.573	70.83
316.787	54.44
317.001	48.3
317.214	21.67
317.428	44.2
317.641	-9.05
317.855	91.31
318.068	87.21
318.282	87.21
318.495	105.64
318.709	29.87
318.922	-41.81
319.136	122.02
319.349	134.31
319.563	19.63
319.776	25.77
319.99	-11.09
320.203	97.45
320.417	19.63
320.63	52.39
320.843	83.11
321.057	9.39
321.27	74.92
321.483	3.24
321.697	93.35
321.91	9.39
322.124	79.02
322.337	3.24
322.55	46.25
322.763	87.21
322.977	79.02
323.19	11.43
323.403	-31.57
323.617	-9.05
323.83	-29.52
324.043	36.01
324.256	-33.62
324.469	7.34
324.683	107.69
324.896	-17.24
325.109	25.77
325.322	19.63
325.535	62.63
325.748	79.02
325.962	9.39
326.175	58.54
326.388	105.64
326.601	42.15
326.814	1.19
327.027	5.29
327.24	148.65
327.453	27.82
327.666	132.26
327.879	89.26
328.092	52.39
328.305	9.39
328.518	36.01
328.731	-11.09
328.944	54.44
329.157	62.63
329.37	1.19
329.583	-9.05
329.796	76.97
330.009	3.24
330.222	11.43
330.435	62.63
330.648	107.69
330.861	74.92
331.073	91.31
331.286	44.2
331.499	25.77
331.712	50.35
331.925	105.64
332.138	23.72
332.35	27.82
332.563	33.96
332.776	85.16
332.989	31.91
333.202	58.54
333.414	79.02
333.627	21.67
333.84	70.83
334.053	91.31
334.265	1.19
334.478	-25.43
334.691	5.29
334.903	52.39
335.116	-27.48
335.329	48.3
335.541	72.87
335.754	81.07
335.966	27.82
336.179	46.25
336.392	-4.95
336.604	81.07
336.817	87.21
337.029	36.01
337.242	72.87
337.454	117.93
337.667	36.01
337.88	50.35
338.092	-23.38
338.305	93.35
338.517	36.01
338.729	42.15
338.942	25.77
339.154	50.35
339.367	-47.96
339.579	-2.9
339.792	31.91
340.004	33.96
340.217	56.49
340.429	91.31
340.641	-0.85
340.854	-4.95
341.066	3.24
341.278	95.4
341.491	44.2
341.703	9.39
341.915	40.11
342.128	117.93
342.34	60.59
342.552	9.39
342.764	81.07
342.977	13.48
343.189	68.78
343.401	72.87
343.613	91.31
343.826	29.87
344.038	42.15
344.25	58.54
344.462	54.44
344.674	19.63
344.886	17.58
345.099	7.34
345.311	95.4
345.523	42.15
345.735	13.48
345.947	66.73
346.159	9.39
346.371	19.63
346.583	103.59
346.795	68.78
347.007	99.5
347.219	42.15
347.431	132.26
347.643	27.82
347.855	-11.09
348.067	46.25
348.279	56.49
348.491	48.3
348.703	5.29
348.915	70.83
349.127	44.2
349.339	52.39
349.551	-50
349.763	56.49
349.975	95.4
350.187	76.97
350.399	72.87
350.61	29.87
350.822	1.19
351.034	44.2
351.246	17.58
351.458	31.91
351.669	29.87
351.881	79.02
352.093	36.01
352.305	-15.19
352.517	91.31
352.728	85.16
352.94	11.43
353.152	64.68
353.363	15.53
353.575	42.15
353.787	103.59
353.999	27.82
354.21	154.79
354.422	-7
354.633	19.63
354.845	62.63
355.057	38.06
355.268	50.35
355.48	36.01
355.692	1.19
355.903	29.87
356.115	33.96
356.326	-4.95
356.538	93.35
356.749	56.49
356.961	56.49
357.172	29.87
357.384	9.39
357.595	36.01
357.807	85.16
358.018	27.82
358.23	66.73
358.441	115.88
358.653	21.67
358.864	50.35
359.075	29.87
359.287	-13.14
359.498	72.87
359.709	-2.9
359.921	19.63
360.132	23.72
360.344	105.64
360.555	11.43
360.766	60.59
360.977	38.06
361.189	50.35
361.4	23.72
361.611	29.87
361.823	-29.52
362.034	23.72
362.245	50.35
362.456	58.54
362.667	128.17
362.879	38.06
363.09	-2.9
363.301	21.67
363.512	81.07
363.723	56.49
363.935	40.11
364.146	29.87
364.357	83.11
364.568	56.49
364.779	66.73
364.99	64.68
365.201	-0.85
365.412	81.07
365.623	-4.95
365.834	95.4
366.045	-2.9
366.256	46.25
366.467	-41.81
366.678	48.3
366.889	44.2
367.1	15.53
367.311	64.68
367.522	62.63
367.733	33.96
367.944	160.94
368.155	33.96
368.366	-15.19
368.577	46.25
368.788	87.21
368.999	13.48
369.209	46.25
369.42	50.35
369.631	156.84
369.842	83.11
370.053	74.92
370.264	15.53
370.474	23.72
370.685	29.87
370.896	74.92
371.107	97.45
371.317	122.02
371.528	29.87
371.739	7.34
371.95	97.45
372.16	46.25
372.371	52.39
372.582	9.39
372.792	15.53
373.003	81.07
373.214	74.92
373.424	15.53
373.635	-11.09
373.846	124.07
374.056	13.48
374.267	29.87
374.477	130.22
374.688	-7
374.898	72.87
375.109	105.64
375.319	31.91
375.53	38.06
375.74	62.63
375.951	70.83
376.161	1.19
376.372	17.58
376.582	95.4
376.793	99.5
377.003	56.49
377.214	13.48
377.424	54.44
377.635	27.82
377.845	58.54
378.055	117.93
378.266	68.78
378.476	46.25
378.686	27.82
378.897	50.35
379.107	-13.14
379.317	62.63
379.528	76.97
379.738	97.45
379.948	21.67
380.158	105.64
380.369	56.49
380.579	95.4
380.789	97.45
380.999	23.72
381.21	97.45
381.42	95.4
381.63	-25.43
381.84	87.21
382.05	33.96
382.261	93.35
382.471	58.54
382.681	62.63
382.891	150.7
383.101	72.87
383.311	99.5
383.521	23.72
383.731	136.36
383.941	124.07
384.151	62.63
384.361	46.25
384.571	66.73
384.781	40.11
384.991	93.35
385.201	134.31
385.411	119.98
385.621	60.59
385.831	142.5
386.041	52.39
386.251	83.11
386.461	62.63
386.671	62.63
386.881	40.11
387.091	19.63
387.301	97.45
387.511	-17.24
387.72	33.96
387.93	81.07
388.14	62.63
388.35	134.31
388.56	54.44
388.769	11.43
388.979	52.39
389.189	87.21
389.399	60.59
389.609	154.79
389.818	89.26
390.028	27.82
390.238	107.69
390.447	36.01
390.657	11.43
390.867	27.82
391.076	36.01
391.286	81.07
391.496	31.91
391.705	44.2
391.915	136.36
392.125	79.02
392.334	66.73
392.544	52.39
392.753	154.79
392.963	165.03
393.172	126.12
393.382	7.34
393.591	56.49
393.801	76.97
394.01	130.22
394.22	72.87
394.429	95.4
394.639	29.87
394.848	87.21
395.058	119.98
395.267	193.7
395.477	103.59
395.686	97.45
395.895	134.31
396.105	199.85
396.314	81.07
396.524	103.59
396.733	99.5
396.942	124.07
397.152	144.55
397.361	162.98
397.57	81.07
397.78	146.6
397.989	169.13
398.198	162.98
398.407	148.65
398.617	140.46
398.826	105.64
399.035	140.46
399.244	81.07
399.453	130.22
399.663	171.18
399.872	89.26
400.081	140.46
400.29	140.46
400.499	171.18
400.708	169.13
400.917	115.88
401.127	212.14
401.336	197.8
401.545	140.46
401.754	187.56
401.963	134.31
402.172	158.89
402.381	103.59
402.59	160.94
402.799	185.51
403.008	167.08
403.217	154.79
403.426	205.99
403.635	158.89
403.844	177.32
404.053	158.89
404.262	183.46
404.471	210.09
404.68	222.38
404.888	216.23
405.097	228.52
405.306	195.75
405.515	201.9
405.724	183.46
405.933	234.66
406.142	212.14
406.35	220.33
406.559	253.09
406.768	179.37
406.977	226.47
407.185	281.77
407.394	271.53
407.603	212.14
407.812	273.57
408.02	238.76
408.229	300.2
408.438	259.24
408.646	339.11
408.855	345.25
409.064	365.73
409.272	406.69
409.481	369.83
409.69	371.88
409.898	355.49
410.107	267.43
410.315	412.84
410.524	394.4
410.733	451.75
410.941	343.21
411.15	429.22
411.358	521.38
411.567	607.39
411.775	566.43
411.984	548
412.192	533.67
412.401	660.64
412.609	709.79
412.818	593.06
413.026	603.3
413.234	640.16
413.443	679.07
413.651	713.89
413.86	722.08
414.068	752.8
414.276	754.85
414.485	806.05
414.693	885.92
414.901	898.2
415.11	943.26
415.318	971.93
415.526	965.79
415.734	922.78
415.943	1109.15
416.151	1039.51
416.359	1070.23
416.567	1178.78
416.776	1176.73
416.984	1340.57
417.192	1285.27
417.4	1232.02
417.608	1277.08
417.817	1326.23
418.025	1379.48
418.233	1578.13
418.441	1504.4
418.649	1670.29
418.857	1658
419.065	1692.82
419.273	1668.24
419.481	1883.28
419.689	1901.71
419.897	1930.38
420.105	2069.64
420.313	1983.63
420.521	2118.79
420.729	2165.9
420.937	2280.58
421.145	2243.72
421.353	2428.04
421.561	2501.76
421.769	2583.68
421.977	2714.75
422.185	2616.45
422.393	2843.78
422.601	2985.09
422.809	3052.67
423.017	2983.04
423.224	3105.92
423.432	3222.65
423.64	3216.51
423.848	3546.23
424.056	3474.55
424.263	3742.83
424.471	3800.18
424.679	3693.68
424.887	3951.73
425.094	4121.71
425.302	4144.24
425.51	4297.83
425.718	4326.5
425.925	4516.97
426.133	4717.67
426.341	4887.65
426.548	5096.54
426.756	5172.32
426.964	5229.66
427.171	5368.92
427.379	5657.68
427.586	5846.1
427.794	5950.54
428.001	6057.04
428.209	6579.27
428.417	6378.57
428.624	6792.26
428.832	6837.31
429.039	6728.77
429.247	6839.36
429.454	7406.65
429.662	8018.99
429.869	7291.96
430.076	7998.51
430.284	7611.45
430.491	8102.96
430.699	8313.9
430.906	8633.38
431.114	8707.11
431.321	8920.1
431.528	9161.76
431.736	9667.61
431.943	10148.88
432.15	9878.55
432.358	9980.95
432.565	10451.98
432.772	10499.08
432.979	11170.82
433.187	11076.61
433.394	11287.55
433.601	12039.15
433.808	11930.61
434.016	12002.29
434.223	12432.36
434.43	13153.25
434.637	12889.06
434.844	13769.69
435.052	14064.6
435.259	14017.49
435.466	13992.92
435.673	13978.58
435.88	14742.47
436.087	15537.09
436.294	15494.08
436.501	15262.66
436.708	15500.22
436.915	16186.29
437.122	16802.73
437.329	16620.46
437.537	17363.87
437.743	17445.79
437.95	17447.84
438.157	18383.76
438.364	18977.67
438.571	19035.02
438.778	18942.86
438.985	21046.12
439.192	19944.31
439.399	20499.31
439.606	20065.14
439.813	21369.7
440.02	22725.46
440.227	22213.46
440.433	21893.98
440.64	22594.39
440.847	22420.31
441.054	23233.35
441.261	24769.33
441.467	24529.72
441.674	24677.17
441.881	25652
442.088	25918.24
442.294	25160.49
442.501	26301.21
442.708	26667.8
442.914	27673.35
443.121	28646.13
443.328	27695.88
443.534	30153.44
443.741	29035.25
443.948	28936.95
444.154	30880.47
444.361	30747.35
444.568	31097.55
444.774	31034.07
444.981	31357.64
445.187	32309.95
445.394	33424.04
445.6	33512.11
445.807	36196.99
446.013	34974.36
446.22	35568.27
446.426	36637.31
446.633	37143.16
446.839	38347.36
447.046	36938.36
447.252	38912.6
447.459	39072.34
447.665	38750.81
447.871	40499.78
448.078	41777.71
448.284	40014.41
448.491	40837.69
448.697	43086.36
448.903	43328.02
449.11	43762.19
449.316	42803.74
449.522	44143.11
449.728	44814.85
449.935	45658.61
450.141	45287.93
450.347	46416.36
450.553	44927.49
450.76	45443.57
450.966	46836.19
451.172	46496.23
451.378	47737.3
451.584	47215.07
451.791	47538.65
451.997	47311.32
452.203	48607.68
452.409	48239.05
452.615	48425.42
452.821	46346.73
453.027	46363.11
453.233	48634.31
453.44	46698.98
453.646	47194.59
453.852	47344.09
454.058	48175.56
454.264	46973.41
454.47	47450.58
454.676	46418.41
454.882	48210.38
455.088	44134.92
455.294	44429.83
455.5	45439.48
455.705	46027.24
455.911	44165.64
456.117	43311.64
456.323	42500.64
456.529	40434.24
456.735	42082.86
456.941	41402.93
457.147	40428.1
457.352	39445.07
457.558	38824.54
457.764	39105.11
457.97	38179.43
458.176	37372.53
458.381	37696.11
458.587	35865.22
458.793	35662.47
458.999	33841.83
459.204	36016.77
459.41	35078.8
459.616	32955.06
459.821	33231.54
460.027	32799.41
460.233	32191.17
460.438	30448.35
460.644	30941.91
460.85	29582.06
461.055	28873.46
461.261	29287.15
461.466	26702.61
461.672	25803.55
461.878	27814.66
462.083	26069.79
462.289	25731.87
462.494	25309.99
462.7	23970.62
462.905	23466.82
463.111	24304.44
463.316	24357.69
463.522	23941.95
463.727	23966.52
463.932	23843.65
464.138	23747.39
464.343	23743.3
464.549	22870.86
464.754	23720.77
464.959	23341.89
465.165	23681.86
465.37	22422.36
465.575	21701.47
465.781	22803.28
465.986	22983.5
466.191	22053.72
466.397	21490.53
466.602	20403.06
466.807	21365.6
467.012	21461.86
467.218	21283.69
467.423	20968.3
467.628	21246.82
467.833	21810.01
468.038	21158.76
468.244	20470.64
468.449	21259.11
468.654	20347.76
468.859	20476.79
469.064	20589.42
469.269	19575.68
469.474	19491.71
469.679	20284.28
469.885	19432.32
470.09	19596.16
470.295	19248
470.5	19223.43
470.705	19153.8
470.91	18719.63
471.115	18637.71
471.32	18834.32
471.525	18815.88
471.73	18367.38
471.935	18705.29
472.139	17689.5
472.344	18004.89
472.549	17771.42
472.754	17496.99
472.959	17068.97
473.164	16784.3
473.369	16729
473.574	17349.54
473.778	17066.92
473.983	16980.9
474.188	16962.47
474.393	16042.93
474.598	16323.51
474.802	15831.99
475.007	16012.21
475.212	16012.21
475.417	15219.65
475.621	15223.75
475.826	15516.61
476.031	15113.16
476.235	14699.47
476.44	15025.09
476.645	14416.85
476.849	14760.91
477.054	14445.52
477.259	14377.94
477.463	14306.26
477.668	13761.5
477.872	14123.99
478.077	13683.67
478.282	13312.99
478.486	13556.7
478.691	13399.01
478.895	13214.69
479.1	13294.56
479.304	13446.11
479.509	12827.62
479.713	12880.87
479.918	12762.09
480.122	12678.12
480.326	12807.14
480.531	12809.19
480.735	12524.52
480.94	12590.06
481.144	13100
481.348	12243.95
481.553	12485.61
481.757	12395.5
481.961	12399.6
482.166	12520.43
482.37	12487.66
482.574	11992.05
482.778	12174.32
482.983	12372.97
483.187	12239.86
483.391	12561.39
483.595	12065.78
483.8	11959.28
484.004	12141.55
484.208	12258.29
484.412	12295.15
484.616	12159.99
484.821	12209.14
485.025	12217.33
485.229	12467.18
485.433	11953.14
485.637	12188.66
485.841	12100.59
486.045	12004.34
486.249	12176.37
486.453	12166.13
486.657	12086.26
486.861	12360.69
487.065	11832.31
487.269	12147.7
487.473	11822.07
487.677	12272.62
487.881	12233.71
488.085	12094.45
488.289	12073.97
488.493	12295.15
488.697	12309.49
488.901	12143.6
489.105	12106.74
489.309	12217.33
489.512	12166.13
489.716	12332.01
489.92	12401.65
490.124	12329.97
490.328	12436.46
490.531	12202.99
490.735	12512.24
490.939	12411.89
491.143	12387.31
491.346	12221.42
491.55	12596.2
491.754	12669.93
491.958	12735.46
492.161	12549.1
492.365	12659.69
492.569	12649.45
492.772	12889.06
492.976	13081.57
493.18	12753.9
493.383	13196.26
493.587	13308.9
493.79	13403.1
493.994	13202.4
494.197	13456.35
494.401	13280.22
494.605	13425.63
494.808	13575.13
495.012	13528.03
495.215	13947.86
495.419	13898.71
495.622	13681.63
495.825	13972.44
496.029	13966.29
496.232	14441.42
496.436	14214.1
496.639	14707.66
496.843	14492.62
497.046	14883.78
497.249	14648.27
497.453	14900.17
497.656	15127.49
497.859	15254.47
498.063	15213.51
498.266	15659.96
498.469	15688.64
498.673	15815.61
498.876	15924.15
499.079	16200.63
499.282	16073.65
499.485	16739.24
499.689	16511.92
499.892	16804.78
500.095	17030.05
500.298	17419.17
500.501	17197.99
500.705	17648.54
500.908	17765.28
501.111	17961.88
501.314	18119.57
501.517	18402.19
501.72	18514.83
501.923	18811.79
502.126	19030.92
502.329	18953.1
502.532	19477.38
502.735	19129.22
502.938	19657.6
503.141	19794.81
503.344	20317.04
503.547	20271.99
503.75	20673.39
503.953	20800.37
504.156	21162.86
504.359	21146.47
504.562	21189.48
504.765	21732.19
504.968	21992.28
505.17	22082.39
505.373	22342.49
505.576	22690.64
505.779	23126.86
505.982	22958.92
506.185	23395.14
506.387	23434.05
506.59	24093.5
506.793	24017.72
506.996	24191.8
507.198	24722.23
507.401	24392.5
507.604	25097
507.807	25340.71
508.009	25660.2
508.212	25641.76
508.415	26080.03
508.617	26315.55
508.82	26614.55
509.022	26493.72
509.225	27323.15
509.428	27396.87
509.63	27704.07
509.833	27362.06
510.035	28783.35
510.238	27945.73
510.44	28754.68
510.643	29176.56
510.845	29467.37
511.048	28992.24
511.25	29743.84
511.453	30048.99
511.655	30859.99
511.858	30382.81
512.06	30677.72
512.262	31156.94
512.465	31085.26
512.667	32058.05
512.87	32029.38
513.072	32287.42
513.274	32621.24
513.477	33166
513.679	33045.17
513.881	33837.73
514.084	33663.66
514.286	34058.91
514.488	34507.42
514.69	35455.63
514.893	35265.17
515.095	35160.72
515.297	35857.03
515.499	36002.44
515.701	36412.03
515.904	36788.86
516.106	37102.2
516.308	37646.96
516.51	37835.37
516.712	37886.57
516.914	38015.59
517.116	38898.27
517.318	38875.74
517.52	39223.89
517.722	39391.83
517.925	39840.33
518.127	40573.5
518.329	40819.26
518.531	40344.13
518.733	41097.78
518.935	41587.25
519.136	41886.25
519.338	42099.24
519.54	42435.11
519.742	42672.67
519.944	42908.19
520.146	43299.35
520.348	43541.01
520.55	44046.86
520.752	44237.32
520.954	45021.69
521.155	44659.2
521.357	45228.54
521.559	45894.13
521.761	46273
521.963	46399.97
522.164	46453.22
522.366	46610.92
522.568	46897.63
522.77	47188.44
522.971	47798.74
523.173	47489.49
523.375	47856.08
523.576	48001.49
523.778	48568.77
523.98	48871.87
524.181	49398.2
524.383	48804.29
524.584	49439.16
524.786	49535.41
524.988	49070.53
525.189	50203.05
525.391	50524.58
525.592	50725.28
525.794	50741.67
525.995	51325.34
526.197	50911.65
526.398	51300.76
526.6	51859.86
526.801	51833.24
527.003	51927.44
527.204	51630.49
527.406	52367.76
527.607	52308.36
527.808	52699.53
528.01	51933.59
528.211	52664.71
528.412	53414.27
528.614	53453.18
528.815	52818.31
529.016	53848.44
529.218	53102.98
529.419	53694.84
529.62	53350.78
529.822	53449.08
530.023	53358.97
530.224	53754.23
530.425	53361.02
530.626	53625.21
530.828	53678.46
531.029	54671.72
531.23	53776.76
531.431	53782.9
531.632	54122.86
531.833	54368.62
532.035	54145.39
532.236	54516.07
532.437	54546.79
532.638	54358.38
532.839	54487.4
533.04	55120.23
533.241	53731.7
533.442	55177.57
533.643	54831.46
533.844	53997.94
534.045	54835.56
534.246	54063.47
534.447	54843.75
534.648	54878.57
534.849	54516.07
535.05	54491.5
535.251	54389.1
535.451	54284.65
535.652	54733.16
535.853	54632.81
536.054	54641
536.255	54860.13
536.456	53981.55
536.657	55222.62
536.857	54911.33
537.058	54636.9
537.259	54554.99
537.46	54909.28
537.66	54567.27
537.861	55009.64
538.062	54372.72
538.263	55304.54
538.463	54569.32
538.664	54880.61
538.865	54597.99
539.065	54925.67
539.266	54313.33
539.466	55214.43
539.667	54036.85
539.868	55484.76
540.068	54737.26
540.269	54145.39
540.469	55015.78
540.67	54208.88
540.87	54657.38
541.071	54712.68
541.271	54747.5
541.472	54423.92
541.672	54268.27
541.873	54360.43
542.073	54069.62
542.274	54759.78
542.474	54249.84
542.675	54122.86
542.875	54569.32
543.075	54303.09
543.276	53934.45
543.476	54696.3
543.676	54204.78
543.877	54417.77
544.077	54192.5
544.277	54042.99
544.478	53756.28
544.678	54456.68
544.878	54327.66
545.078	54059.38
545.279	54014.32
545.479	53844.34
545.679	54397.29
545.879	53780.85
546.079	54067.57
546.28	54002.03
546.48	53719.41
546.68	54231.41
546.88	54325.61
547.08	54374.76
547.28	53985.65
547.48	53854.58
547.68	53727.61
547.88	53809.53
548.081	54172.02
548.281	53737.85
548.481	53748.09
548.681	53879.16
548.881	54051.19
549.081	53924.21
549.28	53698.94
549.48	53696.89
549.68	53813.62
549.88	54530.41
550.08	53188.99
550.28	54233.46
550.48	53621.11
550.68	53950.84
550.88	53463.42
551.08	53645.69
551.279	53158.27
551.479	53350.78
551.679	53457.27
551.879	53250.43
552.079	53842.29
552.278	53930.36
552.478	53232
552.678	53545.34
552.878	53877.11
553.077	53483.9
553.277	52947.33
553.477	53713.27
553.676	53004.67
553.876	53080.45
554.076	53143.94
554.275	53094.78
554.475	52703.62
554.674	53424.51
554.874	53113.22
555.074	53121.41
555.273	53100.93
555.473	53358.97
555.672	52595.08
555.872	52787.59
556.071	52754.82
556.271	53389.69
556.47	52818.31
556.67	52199.82
556.869	52674.95
557.068	52744.58
557.268	52576.65
557.467	52609.42
557.667	52074.9
557.866	52726.15
558.065	52033.94
558.265	52185.49
558.464	52267.41
558.663	52873.6
558.863	51665.3
559.062	52779.4
559.261	51952.02
559.461	52322.7
559.66	51560.86
559.859	52089.23
560.058	51360.15
560.258	51798.42
560.457	51413.4
560.656	51992.98
560.855	51394.97
561.054	51847.57
561.253	51550.62
561.453	51372.44
561.652	51657.11
561.851	51921.3
562.05	50987.42
562.249	50991.52
562.448	51460.51
562.647	50698.66
562.846	50899.36
563.045	51196.32
563.244	50690.47
563.443	50909.6
563.642	50452.9
563.841	50741.67
564.04	50160.05
564.239	50532.78
564.438	50155.95
564.637	50362.79
564.836	50131.37
565.035	50164.14
565.234	49912.24
565.432	50112.94
565.631	50026.93
565.83	49994.16
566.029	49576.37
566.228	49467.83
566.427	49371.58
566.625	49111.49
566.824	48636.36
567.023	49648.05
567.222	48423.37
567.42	49394.1
567.619	48855.49
567.818	48830.91
568.016	48615.88
568.215	48763.33
568.414	48089.55
568.612	48519.62
568.811	48116.17
569.01	48245.19
569.208	48040.4
569.407	48277.96
569.605	47700.43
569.804	48165.32
570.002	47325.66
570.201	48030.16
570.4	47366.62
570.598	47026.65
570.797	46985.69
570.995	47096.28
571.193	46625.25
571.392	47161.82
571.59	46668.26
571.789	46647.78
571.987	46588.39
572.186	46584.29
572.384	46397.93
572.582	46901.73
572.781	46242.28
572.979	45593.07
573.177	46422.5
573.376	46184.94
573.574	45658.61
573.772	45748.72
573.971	45519.35
574.169	45464.05
574.367	44573.19
574.565	45289.98
574.763	45468.15
574.962	45001.21
575.16	44198.41
575.358	44945.92
575.556	44521.99
575.754	44993.02
575.952	44327.43
576.151	44841.47
576.349	43983.37
576.547	44012.04
576.745	44048.91
576.943	43997.71
577.141	43850.25
577.339	44010
577.537	43379.22
577.735	43440.66
577.933	43309.59
578.131	43700.75
578.329	42963.48
578.527	42934.81
578.725	43373.08
578.923	43127.32
579.121	42940.96
579.319	42699.3
579.516	42676.77
579.714	42297.89
579.912	42197.54
580.11	42136.1
580.308	42572.32
580.506	41972.27
580.704	41726.51
580.901	42146.34
581.099	42119.72
581.297	41241.14
581.495	41521.71
581.692	41411.12
581.89	40884.79
582.088	41208.37
582.285	41054.78
582.483	41114.17
582.681	41153.08
582.878	40577.6
583.076	40497.73
583.274	40991.29
583.471	39961.16
583.669	40229.44
583.866	40161.86
584.064	40362.56
584.262	39633.49
584.459	40407.62
584.657	40145.48
584.854	39952.97
585.052	39316.05
585.249	39707.21
585.447	39678.54
585.644	38793.82
585.841	39326.29
586.039	39492.18
586.236	39053.91
586.434	38550.11
586.631	38617.69
586.828	38861.4
587.026	38447.71
587.223	38490.72
587.42	38175.33
587.618	38308.45
587.815	38056.55
588.012	38079.08
588.21	37333.62
588.407	38206.05
588.604	37614.19
588.801	37538.41
588.999	37595.76
589.196	37028.47
589.393	37294.71
589.59	37081.72
589.787	36629.12
589.984	37030.52
590.182	36764.28
590.379	36903.54
590.576	36229.76
590.773	36506.24
590.97	36260.48
591.167	36350.59
591.364	36008.58
591.561	35981.96
591.758	35613.32
591.955	35865.22
592.152	35619.47
592.349	35682.95
592.546	35609.23
592.743	35545.74
592.94	35185.3
593.137	35394.19
593.334	35164.82
593.531	34861.72
593.727	35082.9
593.924	34839.19
594.121	34208.42
594.318	34319.01
594.515	34263.71
594.712	34812.57
594.908	34204.32
595.105	34503.32
595.302	33737.38
595.499	34394.78
595.696	34067.11
595.892	33569.45
596.089	34011.81
596.286	33772.2
596.482	33424.04
596.679	33600.17
596.876	33960.61
597.072	33192.62
597.269	33327.79
597.466	32891.57
597.662	32907.96
597.859	33026.74
598.055	32729.78
598.252	32707.26
598.448	32557.75
598.645	32608.95
598.841	32211.65
599.038	32273.09
599.234	32371.39
599.431	31832.77
599.627	31904.45
599.824	32160.45
600.02	31886.02
600.217	32051.91
600.413	31666.89
600.609	31394.51
600.806	31107.79
601.002	31464.14
601.198	31304.4
601.395	30485.21
601.591	30798.55
601.787	30878.42
601.984	30819.03
602.18	30747.35
602.376	30726.87
602.572	30808.79
602.769	30587.61
602.965	30452.44
603.161	30327.52
603.357	30249.69
603.553	30053.09
603.75	29840.1
603.946	29709.03
604.142	29874.91
604.338	29520.62
604.534	29989.6
604.73	29745.89
604.926	29672.17
605.122	29553.38
605.318	29115.12
605.514	29377.26
605.71	29125.36
605.906	28914.42
606.102	29154.03
606.298	29049.58
606.494	29158.13
606.69	28873.46
606.886	28777.2
607.082	28408.57
607.278	28769.01
607.474	28060.41
607.67	28386.04
607.866	27941.63
608.062	28117.76
608.257	28314.36
608.453	28103.42
608.649	28312.31
608.845	27753.22
609.041	27796.23
609.236	27939.58
609.432	27695.88
609.628	27532.04
609.824	27597.57
610.019	27462.41
610.215	27577.09
610.411	27812.61
610.606	27192.08
610.802	27435.78
610.998	27529.99
611.193	26942.22
611.389	27288.33
611.584	27022.09
611.78	26772.24
611.976	27087.63
612.171	26882.83
612.367	26768.15
612.562	26848.02
612.758	26594.07
612.953	26528.53
613.149	26802.96
613.344	26483.48
613.539	27026.19
613.735	26940.18
613.93	26407.7
614.126	26350.36
614.321	26491.67
614.517	26604.31
614.712	26366.74
614.907	25899.81
615.103	26546.97
615.298	26256.15
615.493	26280.73
615.688	25813.79
615.884	26213.15
616.079	25670.43
616.274	26198.81
616.47	25611.04
616.665	25590.56
616.86	25752.35
617.055	25551.65
617.25	25453.35
617.445	25639.72
617.641	25207.59
617.836	25350.95
618.031	24929.07
618.226	25291.56
618.421	24996.65
618.616	25633.57
618.811	24621.87
619.006	25121.58
619.201	24533.81
619.396	24707.89
619.591	24148.79
619.786	24773.42
619.981	24415.03
620.176	24298.3
620.371	23978.81
620.566	24077.12
620.761	23866.17
620.956	24208.19
621.151	23454.53
621.346	23554.88
621.541	23108.43
621.735	23694.15
621.93	23044.94
622.125	23173.96
622.32	22950.73
622.515	22889.29
622.709	22807.37
622.904	22860.62
623.099	22610.77
623.294	22948.68
623.488	22135.64
623.683	22360.92
623.878	21941.08
624.072	22408.02
624.267	22188.89
624.462	22037.34
624.656	22006.62
624.851	21674.85
625.046	21756.77
625.24	21427.04
625.435	21228.39
625.629	21310.31
625.824	21224.29
626.018	20994.92
626.213	20568.94
626.407	20941.68
626.602	20394.87
626.796	20372.34
626.991	20439.92
627.185	20179.83
627.38	20349.81
627.574	20050.81
627.768	20157.3
627.963	19878.78
628.157	19622.78
628.352	19772.28
628.546	19460.99
628.74	19479.43
628.935	19393.41
629.129	19628.93
629.323	19051.4
629.517	19266.44
629.712	19213.19
629.906	18981.77
630.1	18611.09
630.294	18645.9
630.489	18439.06
630.683	18584.46
630.877	18410.39
631.071	18305.94
631.265	18264.98
631.459	18105.24
631.653	18082.71
631.848	17806.23
632.042	17628.06
632.236	17939.35
632.43	17406.88
632.624	17757.08
632.818	17480.61
633.012	17243.04
633.206	17200.04
633.4	17210.28
633.594	16933.8
633.788	17128.36
633.982	16980.9
634.176	16677.8
634.369	16430
634.563	16522.16
634.757	16507.82
634.951	16571.31
635.145	16434.1
635.339	16475.06
635.533	16241.59
635.726	16237.49
635.92	16208.82
636.114	15946.68
636.308	15721.4
636.501	15588.28
636.695	15764.41
636.889	15768.51
637.083	15469.5
637.276	15465.41
637.47	15555.52
637.664	15406.02
637.857	15360.96
638.051	15166.4
638.244	14894.02
638.438	14988.23
638.632	14765
638.825	14848.97
639.019	14830.54
639.212	14816.2
639.406	14676.94
639.599	14269.39
639.793	14572.49
639.986	14195.67
640.18	14359.5
640.373	14181.33
640.567	14195.67
640.76	14166.99
640.954	13865.94
641.147	13958.1
641.34	13835.22
641.534	13757.4
641.727	13710.3
641.92	13691.87
642.114	13269.98
642.307	13333.47
642.5	13190.11
642.694	13001.7
642.887	13167.59
643.08	13054.95
643.273	13018.08
643.467	12887.01
643.66	12725.22
643.853	12643.31
644.046	12508.14
644.239	12725.22
644.432	12479.47
644.626	12467.18
644.819	12583.91
645.012	12467.18
645.205	12372.97
645.398	12399.6
645.591	12207.09
645.784	12415.98
645.977	11979.76
646.17	11881.46
646.363	11869.17
646.556	11858.93
646.749	11883.51
646.942	11983.86
647.135	11627.51
647.328	11615.23
647.521	11678.71
647.714	11330.56
647.907	11277.31
648.099	11559.93
648.292	11426.81
648.485	11230.21
648.678	11150.34
648.871	11197.44
649.064	11107.33
649.256	11170.82
649.449	11039.75
649.642	11019.27
649.835	10687.5
650.027	10843.14
650.22	10830.85
650.413	10521.61
650.605	10533.9
650.798	10578.95
650.991	10503.18
651.183	10466.31
651.376	10427.4
651.568	10376.2
651.761	10345.48
651.954	10191.89
652.146	10128.4
652.339	10138.64
652.531	10286.09
652.724	10083.34
652.916	9972.75
653.109	9825.3
653.301	9569.3
653.494	9810.96
653.686	9597.98
653.879	9716.76
654.071	9593.88
654.263	9505.82
654.456	9729.05
654.648	9679.89
654.84	9348.12
655.033	9456.67
655.225	9182.24
655.417	9425.95
655.61	9215.01
655.802	9456.67
655.994	9024.54
656.186	9085.98
656.379	8864.8
656.571	8979.49
656.763	9212.96
656.955	8893.47
657.148	8727.59
657.34	8801.32
657.532	8750.12
657.724	8563.75
657.916	8768.55
658.108	8621.1
658.3	8786.98
658.492	8735.78
658.684	8358.96
658.876	8387.63
659.068	8328.24
659.26	8258.6
659.452	8274.99
659.644	8105.01
659.836	8166.45
660.028	8223.79
660.22	8150.06
660.412	8059.95
660.604	7867.44
660.796	8006.7
660.988	8047.66
661.18	7838.77
661.372	7791.67
661.563	7986.22
661.755	7711.8
661.947	7617.59
662.139	7787.57
662.331	7570.49
662.522	7431.23
662.714	7681.08
662.906	7550.01
663.097	7607.35
663.289	7550.01
663.481	7605.3
663.673	7408.7
663.864	7304.25
664.056	7300.16
664.247	7152.7
664.439	7218.24
664.631	7341.11
664.822	7191.61
665.014	7099.45
665.205	6962.24
665.397	6972.48
665.588	6970.43
665.78	7044.16
665.971	6872.13
666.163	7003.2
666.354	6943.81
666.546	6915.14
666.737	7017.54
666.929	6876.23
667.12	6712.39
667.311	6812.74
667.503	6560.84
667.694	6640.71
667.885	6583.37
668.077	6501.45
668.268	6556.74
668.459	6407.24
668.651	6386.76
668.842	6351.95
669.033	6462.54
669.224	6188.11
669.416	6306.89
669.607	6403.14
669.798	6255.69
669.989	6394.95
670.18	6128.72
670.371	6196.3
670.563	6231.12
670.754	6151.24
670.945	6108.24
671.136	6085.71
671.327	6239.31
671.518	6059.09
671.709	5856.34
671.9	6065.23
672.091	5950.54
672.282	5977.17
672.473	5993.55
672.664	5966.93
672.855	5819.47
673.046	5844.05
673.237	5909.58
673.428	5768.27
673.619	5827.67
673.809	5653.59
674	5801.04
674.191	5669.97
674.382	5559.38
674.573	5635.16
674.764	5717.08
674.954	5674.07
675.145	5452.89
675.336	5575.77
675.527	5637.2
675.717	5446.74
675.908	5385.3
676.099	5362.78
676.289	5479.51
676.48	5393.5
676.671	5289.05
676.861	5217.37
677.052	5428.31
677.243	5350.49
677.433	5362.78
677.624	5442.65
677.814	5297.24
678.005	5377.11
678.195	5272.67
678.386	5243.99
678.576	5387.35
678.767	5065.82
678.957	5119.07
679.148	5254.23
679.338	5147.74
679.529	5157.98
679.719	5117.02
679.909	5143.64
680.1	5063.77
680.29	5127.26
680.481	5084.25
680.671	5149.79
680.861	4965.47
681.052	5108.83
681.242	5131.36
681.432	4947.04
681.622	4942.94
681.813	5004.38
682.003	4916.32
682.193	5098.59
682.383	5033.05
682.573	4873.31
682.764	4893.79
682.954	4936.8
683.144	4930.66
683.334	4834.4
683.524	4799.59
683.714	4832.35
683.904	4848.74
684.094	4826.21
684.284	4801.63
684.474	4797.54
684.664	4893.79
684.854	4732
685.044	4762.72
685.234	4566.12
685.424	4643.94
685.614	4711.52
685.804	4660.32
685.994	4842.59
686.184	4650.08
686.374	4695.14
686.564	4582.5
686.753	4682.85
686.943	4557.93
687.133	4463.72
687.323	4539.49
687.513	4498.53
687.702	4576.36
687.892	4410.47
688.082	4551.78
688.272	4383.85
688.461	4430.95
688.651	4295.79
688.841	4381.8
689.03	4465.77
689.22	4433
689.41	4232.3
689.599	4316.26
689.789	4344.94
689.979	4363.37
690.168	4367.46
690.358	4195.43
690.547	4279.4
690.737	4320.36
690.926	4158.57
691.116	4195.43
691.305	4211.82
691.495	4201.58
691.684	4220.01
691.874	4074.6
692.063	4150.38
692.252	4033.65
692.442	4164.72
692.631	4090.99
692.82	4113.52
693.01	4113.52
693.199	4035.69
693.388	4019.31
693.578	3886.19
693.767	3980.4
693.956	4047.98
694.146	3964.01
694.335	3888.24
694.524	3783.79
694.713	4035.69
694.902	3923.05
695.092	3845.23
695.281	3906.67
695.47	3884.14
695.659	3843.18
695.848	3871.86
696.037	3738.74
696.226	3841.14
696.415	3839.09
696.604	3994.73
696.793	3769.46
696.982	3869.81
697.171	3800.18
697.36	3859.57
697.549	3794.03
697.738	3845.23
697.927	3918.96
698.116	3816.56
698.305	3697.78
698.494	3769.46
698.683	3796.08
698.872	3855.47
699.061	3734.64
699.25	3703.92
699.438	3759.22
699.627	3716.21
699.816	3685.49
700.005	3767.41
700.193	3734.64
700.382	3650.67
700.571	3730.55
700.76	3753.07
700.948	3775.6
701.137	3634.29
701.326	3755.12
701.514	3652.72
701.703	3701.87
701.892	3673.2
702.08	3611.76
702.269	3574.9
702.457	3644.53
702.646	3564.66
702.834	3579
703.023	3495.03
703.212	3595.38
703.4	3626.1
703.589	3466.36
703.777	3622
703.965	3585.14
704.154	3499.13
704.342	3558.52
704.531	3462.26
704.719	3437.69
704.907	3490.93
705.096	3439.73
705.284	3497.08
705.472	3433.59
705.661	3343.48
705.849	3521.65
706.037	3417.21
706.226	3437.69
706.414	3441.78
706.602	3544.18
706.79	3501.17
706.979	3290.23
707.167	3476.6
707.355	3333.24
707.543	3452.02
707.731	3445.88
707.919	3333.24
708.107	3341.43
708.296	3333.24
708.484	3355.77
708.672	3443.83
708.86	3357.82
709.048	3341.43
709.236	3335.29
709.424	3263.61
709.612	3413.11
709.8	3249.27
709.988	3206.27
710.176	3267.7
710.364	3279.99
710.551	3298.42
710.739	3290.23
710.927	3161.21
711.115	3128.44
711.303	3183.74
711.491	3069.05
711.679	3179.64
711.866	3173.5
712.054	3269.75
712.242	3167.35
712.43	3255.42
712.617	3142.78
712.805	3208.31
712.993	3087.48
713.181	3044.48
713.368	3204.22
713.556	2964.61
713.744	2962.56
713.931	3081.34
714.119	3210.36
714.306	3046.52
714.494	3093.63
714.682	3136.63
714.869	2974.85
715.057	3093.63
715.244	2931.84
715.432	3200.12
715.619	3017.85
715.807	3097.72
715.994	3048.57
716.182	3054.72
716.369	3009.66
716.556	2903.17
716.744	2968.7
716.931	2892.93
717.119	2866.3
717.306	2847.87
717.493	3050.62
717.681	2917.5
717.868	2899.07
718.055	2868.35
718.242	2843.78
718.43	2917.5
718.617	2972.8
718.804	2942.08
718.991	2985.09
719.179	2892.93
719.366	2860.16
719.553	2804.86
719.74	2745.47
719.927	2815.1
720.114	2796.67
720.301	2800.77
720.488	2919.55
720.676	2817.15
720.863	2643.07
721.05	2776.19
721.237	2690.18
721.424	2796.67
721.611	2802.82
721.798	2679.94
721.985	2825.34
722.172	2763.9
722.358	2716.8
722.545	2694.27
722.732	2626.69
722.919	2786.43
723.106	2593.92
723.293	2702.47
723.48	2708.61
723.667	2569.35
723.853	2669.7
724.04	2722.95
724.227	2604.16
724.414	2587.78
724.6	2622.59
724.787	2555.01
724.974	2641.03
725.161	2552.96
725.347	2540.68
725.534	2604.16
725.72	2432.13
725.907	2528.39
726.094	2610.31
726.28	2520.2
726.467	2552.96
726.653	2501.76
726.84	2507.91
727.027	2540.68
727.213	2380.93
727.4	2540.68
727.586	2464.9
727.773	2536.58
727.959	2567.3
728.145	2485.38
728.332	2479.24
728.518	2458.76
728.705	2481.28
728.891	2477.19
729.077	2434.18
729.264	2559.11
729.45	2434.18
729.636	2571.4
729.823	2423.94
730.009	2415.75
730.195	2448.52
730.382	2538.63
730.568	2464.9
730.754	2440.33
730.94	2376.84
731.126	2362.5
731.313	2430.09
731.499	2448.52
731.685	2448.52
731.871	2362.5
732.057	2364.55
732.243	2432.13
732.429	2290.82
732.615	2213
732.801	2292.87
732.987	2374.79
733.173	2317.45
733.359	2358.41
733.545	2362.5
733.731	2311.3
733.917	2337.93
734.103	2194.57
734.289	2319.5
734.475	2206.86
734.661	2389.13
734.847	2278.54
735.033	2247.82
735.219	2278.54
735.404	2258.06
735.59	2260.1
735.776	2180.23
735.962	2206.86
736.148	2335.88
736.333	2172.04
736.519	2184.33
736.705	2202.76
736.89	2120.84
737.076	2151.56
737.262	2098.31
737.447	2149.51
737.633	2145.42
737.819	2206.86
738.004	2174.09
738.19	2122.89
738.375	2167.95
738.561	2126.99
738.747	2032.78
738.932	2124.94
739.118	2196.62
739.303	2016.4
739.489	2194.57
739.674	2004.11
739.859	2063.5
740.045	2055.31
740.23	2010.25
740.416	2028.68
740.601	2008.2
740.786	1940.62
740.972	1997.96
741.157	2028.68
741.342	1936.53
741.528	1977.48
741.713	2020.49
741.898	1989.77
742.084	1916.05
742.269	1971.34
742.454	1979.53
742.639	2063.5
742.824	1959.05
743.01	1963.15
743.195	1930.38
743.38	1854.61
743.565	1930.38
743.75	1948.81
743.935	1860.75
744.12	1911.95
744.305	1838.22
744.49	1770.64
744.675	1875.09
744.86	1768.59
745.045	1846.41
745.23	1856.65
745.415	1797.26
745.6	1846.41
745.785	1774.74
745.97	1758.35
746.155	1694.86
746.34	1721.49
746.525	1764.5
746.71	1787.02
746.895	1682.58
747.079	1735.82
747.264	1768.59
747.449	1715.34
747.634	1713.3
747.819	1772.69
748.003	1629.33
748.188	1701.01
748.373	1633.43
748.557	1614.99
748.742	1608.85
748.927	1707.15
749.111	1692.82
749.296	1606.8
749.481	1606.8
749.665	1506.45
749.85	1582.23
750.034	1614.99
750.219	1541.27
750.404	1551.51
750.588	1576.08
750.773	1506.45
750.957	1488.02
751.141	1404.05
751.326	1440.92
751.51	1440.92
751.695	1498.26
751.879	1418.39
752.064	1481.88
752.248	1375.38
752.432	1473.68
752.617	1488.02
752.801	1434.77
752.985	1391.77
753.17	1430.68
753.354	1373.33
753.538	1363.09
753.722	1445.01
753.907	1348.76
754.091	1307.8
754.275	1371.29
754.459	1326.23
754.643	1389.72
754.828	1338.52
755.012	1297.56
755.196	1342.61
755.38	1234.07
755.564	1318.04
755.748	1260.7
755.932	1127.58
756.116	1174.68
756.3	1217.69
756.484	1227.93
756.668	1229.98
756.852	1129.63
757.036	1174.68
757.22	1137.82
757.404	1207.45
757.588	1129.63
757.772	1105.05
757.956	1137.82
758.14	1117.34
758.323	1135.77
758.507	1064.09
758.691	1094.81
758.875	1086.62
759.059	1129.63
759.242	1127.58
759.426	1068.19
759.61	1189.02
759.794	1094.81
759.977	1141.91
760.161	1066.14
760.345	1037.47
760.528	1080.47
760.712	1012.89
760.895	996.51
761.079	937.12
761.263	1090.71
761.446	965.79
761.63	971.93
761.813	986.27
761.997	971.93
762.18	1066.14
762.364	939.16
762.547	1014.94
762.731	996.51
762.914	982.17
763.098	988.32
763.281	943.26
763.464	986.27
763.648	869.53
763.831	930.97
764.015	969.88
764.198	896.16
764.381	904.35
764.564	945.31
764.748	953.5
764.931	904.35
765.114	869.53
765.297	912.54
765.481	851.1
765.664	906.4
765.847	890.01
766.03	853.15
766.213	902.3
766.397	865.44
766.58	853.15
766.763	941.21
766.946	963.74
767.129	881.82
767.312	928.92
767.495	885.92
767.678	826.53
767.861	851.1
768.044	953.5
768.227	877.73
768.41	836.77
768.593	869.53
768.776	885.92
768.959	832.67
769.142	892.06
769.324	781.47
769.507	896.16
769.69	832.67
769.873	763.04
770.056	885.92
770.239	873.63
770.421	785.57
770.604	849.05
770.787	783.52
770.97	717.98
771.152	814.24
771.335	703.65
771.518	853.15
771.7	851.1
771.883	834.72
772.066	765.09
772.248	824.48
772.431	799.9
772.613	734.37
772.796	804
772.978	791.71
773.161	756.9
773.343	767.13
773.526	726.18
773.708	818.33
773.891	734.37
774.073	689.31
774.256	795.81
774.438	685.22
774.621	736.42
774.803	681.12
774.985	781.47
775.168	652.45
775.35	644.26
775.532	646.3
775.715	664.74
775.897	638.11
776.079	619.68
776.261	660.64
776.444	570.53
776.626	668.83
776.808	650.4
776.99	668.83
777.173	634.02
777.355	597.15
777.537	625.83
777.719	687.26
777.901	601.25
778.083	640.16
778.265	582.82
778.447	623.78
778.629	550.05
778.811	674.98
778.993	638.11
779.175	611.49
779.357	566.43
779.539	556.19
779.721	578.72
779.903	640.16
780.085	533.67
780.267	494.76
780.449	650.4
780.631	519.33
780.812	507.04
780.994	490.66
781.176	490.66
781.358	455.84
781.54	541.86
781.721	562.34
781.903	507.04
782.085	500.9
782.267	611.49
782.448	474.28
782.63	496.8
782.812	521.38
782.993	541.86
783.175	472.23
783.357	437.41
783.538	531.62
783.72	418.98
783.901	486.56
784.083	498.85
784.264	472.23
784.446	375.97
784.627	451.75
784.809	504.99
784.99	478.37
785.172	418.98
785.353	521.38
785.535	459.94
785.716	421.03
785.897	367.78
786.079	464.04
786.26	431.27
786.441	431.27
786.623	400.55
786.804	335.01
786.985	412.84
787.167	357.54
787.348	404.64
787.529	361.64
787.71	453.8
787.891	359.59
788.073	269.48
788.254	318.63
788.435	367.78
788.616	437.41
788.797	398.5
788.978	343.21
789.159	306.34
789.34	406.69
789.522	380.07
789.703	410.79
789.884	330.92
790.065	294.05
790.246	386.21
790.427	246.95
790.607	320.68
790.788	335.01
790.969	349.35
791.15	396.45
791.331	337.06
791.512	369.83
791.693	249
791.874	349.35
792.054	410.79
792.235	308.39
792.416	240.81
792.597	263.33
792.778	316.58
792.958	285.86
793.139	310.44
793.32	314.53
793.5	232.62
793.681	275.62
793.862	226.47
794.042	289.96
794.223	277.67
794.404	283.81
794.584	304.29
794.765	292.01
794.945	234.66
795.126	328.87
795.306	244.9
795.487	296.1
795.667	287.91
795.848	277.67
796.028	312.49
796.209	271.53
796.389	222.38
796.57	222.38
796.75	257.19
796.93	257.19
797.111	126.12
797.291	249
797.471	296.1
797.652	175.27
797.832	257.19
798.012	259.24
798.192	236.71
798.373	183.46
798.553	232.62
798.733	332.97
798.913	251.05
799.093	328.87
799.274	240.81
799.454	259.24
799.634	249
799.814	236.71
799.994	228.52
800.174	228.52
800.354	210.09
800.534	263.33
800.714	234.66
800.894	242.85
801.074	191.66
801.254	183.46
801.434	199.85
801.614	220.33
801.794	253.09
801.974	584.87
802.154	220.33
802.334	230.57
802.514	165.03
802.693	230.57
802.873	156.84
803.053	173.22
803.233	267.43
803.413	273.57
803.592	167.08
803.772	234.66
803.952	156.84
804.131	232.62
804.311	169.13
804.491	156.84
804.67	187.56
804.85	136.36
805.03	261.29
805.209	177.32
805.389	191.66
805.568	156.84
805.748	222.38
805.928	181.42
806.107	199.85
806.287	189.61
806.466	165.03
806.646	212.14
806.825	140.46
807.004	165.03
807.184	214.18
807.363	203.94
807.543	197.8
807.722	144.55
807.901	230.57
808.081	210.09
808.26	89.26
808.439	236.71
808.619	138.41
808.798	175.27
808.977	95.4
809.156	132.26
809.336	171.18
809.515	162.98
809.694	195.75
809.873	214.18
810.052	179.37
810.231	144.55
810.411	201.9
810.59	128.17
810.769	117.93
810.948	156.84
811.127	117.93
811.306	109.74
811.485	154.79
811.664	220.33
811.843	156.84
812.022	197.8
812.201	115.88
812.38	210.09
812.559	191.66
812.737	134.31
812.916	79.02
813.095	95.4
813.274	81.07
813.453	255.14
813.632	199.85
813.811	113.83
813.989	124.07
814.168	146.6
814.347	89.26
814.526	134.31
814.704	148.65
814.883	214.18
815.062	232.62
815.24	126.12
815.419	97.45
815.598	117.93
815.776	87.21
815.955	140.46
816.133	85.16
816.312	158.89
816.49	83.11
816.669	193.7
816.847	156.84
817.026	191.66
817.204	38.06
817.383	64.68
817.561	152.74
817.74	128.17
817.918	183.46
818.097	99.5
818.275	87.21
818.453	119.98
818.632	156.84
818.81	158.89
818.988	97.45
819.167	81.07
819.345	105.64
819.523	115.88
819.701	79.02
819.879	72.87
820.058	113.83
820.236	150.7
820.414	105.64
820.592	142.5
820.77	81.07
820.948	68.78
821.127	117.93
821.305	97.45
821.483	113.83
821.661	142.5
821.839	97.45
822.017	138.41
822.195	64.68
822.373	97.45
822.551	40.11
822.729	95.4
822.907	136.36
823.085	150.7
823.262	101.55
823.44	142.5
823.618	97.45
823.796	113.83
823.974	89.26
824.152	95.4
824.329	48.3
824.507	79.02
824.685	87.21
824.863	91.31
825.04	128.17
825.218	185.51
825.396	58.54
825.574	134.31
825.751	38.06
825.929	122.02
826.107	138.41
826.284	48.3
826.462	3.24
826.639	89.26
826.817	60.59
826.994	119.98
827.172	89.26
827.349	156.84
827.527	79.02
827.704	72.87
827.882	117.93
828.059	76.97
828.237	107.69
828.414	60.59
828.591	115.88
828.769	101.55
828.946	38.06
829.124	64.68
829.301	44.2
829.478	31.91
829.655	31.91
829.833	56.49
830.01	56.49
830.187	115.88
830.364	158.89
830.542	81.07
830.719	103.59
830.896	136.36
831.073	60.59
831.25	76.97
831.427	95.4
831.604	54.44
831.782	46.25
831.959	111.78
832.136	72.87
832.313	56.49
832.49	105.64
832.667	74.92
832.844	15.53
833.021	140.46
833.198	83.11
833.374	87.21
833.551	132.26
833.728	66.73
833.905	54.44
834.082	29.87
834.259	79.02
834.436	93.35
834.612	27.82
834.789	134.31
834.966	29.87
835.143	54.44
835.319	95.4
835.496	33.96
835.673	58.54
835.85	126.12
836.026	40.11
836.203	79.02
836.38	48.3
836.556	48.3
836.733	48.3
836.909	40.11
837.086	23.72
837.262	7.34
837.439	79.02
837.616	36.01
837.792	46.25
837.968	87.21
838.145	13.48
838.321	44.2
838.498	81.07
838.674	109.74
838.851	19.63
839.027	48.3
839.203	60.59
839.38	54.44
839.556	-15.19
839.732	52.39
839.909	29.87
840.085	148.65
840.261	58.54
840.437	62.63
840.614	-2.9
840.79	31.91
840.966	15.53
841.142	52.39
841.318	15.53
841.494	38.06
841.671	40.11
841.847	122.02
842.023	62.63
842.199	81.07
842.375	85.16
842.551	72.87
842.727	85.16
842.903	91.31
843.079	15.53
843.255	46.25
843.431	-0.85
843.607	-21.33
843.783	9.39
843.959	27.82
844.134	23.72
844.31	56.49
844.486	54.44
844.662	87.21
844.838	-13.14
845.013	-19.29
845.189	21.67
845.365	9.39
845.541	68.78
845.716	-19.29
845.892	105.64
846.068	7.34
846.244	101.55
846.419	-27.48
846.595	-9.05
846.77	79.02
846.946	54.44
847.122	42.15
847.297	-7
847.473	111.78
847.648	64.68
847.824	54.44
847.999	-2.9
848.175	5.29
848.35	66.73
848.526	72.87
848.701	29.87
848.876	70.83
849.052	72.87
849.227	-35.67
849.403	38.06
849.578	38.06
849.753	-9.05
849.929	72.87
850.104	44.2
850.279	7.34
850.454	50.35
850.63	56.49
850.805	97.45
850.98	44.2
851.155	1.19
851.33	70.83
851.505	-0.85
851.681	64.68
851.856	19.63
852.031	-2.9
852.206	70.83
852.381	-9.05
852.556	23.72
852.731	19.63
852.906	48.3
853.081	15.53
853.256	56.49
853.431	72.87
853.606	33.96
853.781	60.59
853.956	-25.43
854.131	68.78
854.305	124.07
854.48	36.01
854.655	-35.67
854.83	93.35
855.005	-15.19
855.18	54.44
855.354	38.06
855.529	29.87
855.704	-7
855.879	46.25
856.053	-60.24
856.228	76.97
856.403	25.77
856.577	-0.85
856.752	-31.57
856.926	-15.19
857.101	13.48
857.276	46.25
857.45	13.48
857.625	62.63
857.799	-0.85
857.974	11.43
858.148	68.78
858.323	11.43
858.497	-58.2
858.672	31.91
858.846	48.3
859.02	68.78
859.195	-0.85
859.369	-19.29
859.543	19.63
859.718	119.98
859.892	-52.05
860.066	46.25
860.241	-11.09
860.415	-29.52
860.589	23.72
860.763	48.3
860.938	64.68
861.112	-19.29
861.286	-68.44
861.46	-21.33
861.634	-4.95
861.808	50.35
861.982	21.67
862.157	17.58
862.331	5.29
862.505	-13.14
862.679	3.24
862.853	54.44
863.027	-39.76
863.201	93.35
863.375	7.34
863.549	56.49
863.722	79.02
863.896	95.4
864.07	31.91
864.244	-15.19
864.418	9.39
864.592	79.02
864.766	13.48
864.939	-11.09
865.113	19.63
865.287	119.98
865.461	40.11
865.634	17.58
865.808	17.58
865.982	5.29
866.156	-21.33
866.329	-0.85
866.503	9.39
866.676	29.87
866.85	-0.85
867.024	15.53
867.197	-7
867.371	33.96
867.544	109.74
867.718	-15.19
867.891	-23.38
868.065	-19.29
868.238	62.63
868.412	17.58
868.585	64.68
868.759	21.67
868.932	-13.14
869.105	-41.81
869.279	27.82
869.452	3.24
869.625	-47.96
869.799	58.54
869.972	-66.39
870.145	-15.19
870.319	15.53
870.492	-11.09
870.665	46.25
870.838	36.01
871.011	1.19
871.185	-4.95
871.358	31.91
871.531	99.5
871.704	42.15
871.877	33.96
872.05	-54.1
872.223	25.77
872.396	-2.9
872.569	-2.9
872.742	-35.67
872.915	-56.15
873.088	-93.01
873.261	25.77
873.434	21.67
873.607	36.01
873.78	62.63
873.953	-23.38
874.126	7.34
874.299	38.06
874.471	91.31
874.644	-54.1
874.817	36.01
874.99	-9.05
875.163	-45.91
875.335	-15.19
875.508	-54.1
875.681	87.21
875.853	-47.96
876.026	48.3
876.199	36.01
876.371	50.35
876.544	3.24
876.717	25.77
876.889	-11.09
877.062	58.54
877.234	17.58
877.407	11.43
877.579	-58.2
877.752	13.48
877.924	7.34
878.097	31.91
878.269	58.54
878.442	-27.48
878.614	38.06
878.786	46.25
878.959	-2.9
879.131	-27.48
879.303	-84.82
879.476	-19.29
879.648	19.63
879.82	7.34
879.993	42.15
880.165	-35.67
880.337	-23.38
880.509	33.96
880.681	-19.29
880.854	-29.52
881.026	-0.85
881.198	-2.9
881.37	-21.33
881.542	-11.09
881.714	23.72
881.886	-62.29
882.058	-7
882.23	54.44
882.402	-52.05
882.574	64.68
882.746	33.96
882.918	52.39
883.09	36.01
883.262	-4.95
883.434	42.15
883.606	21.67
883.778	38.06
883.95	-45.91
884.122	-19.29
884.293	64.68
884.465	5.29
884.637	7.34
884.809	1.19
884.98	-4.95
885.152	-41.81
885.324	23.72
885.496	46.25
885.667	58.54
885.839	19.63
886.011	23.72
886.182	-0.85
886.354	-0.85
886.525	25.77
886.697	-60.24
886.869	-68.44
887.04	-25.43
887.212	-15.19
887.383	-56.15
887.555	-33.62
887.726	29.87
887.897	-47.96
888.069	68.78
888.24	-0.85
888.412	-21.33
888.583	15.53
888.754	-13.14
888.926	1.19
889.097	87.21
889.268	-15.19
889.44	-9.05
889.611	48.3
889.782	19.63
889.953	-0.85
890.125	-2.9
890.296	19.63
890.467	56.49
890.638	-33.62
890.809	1.19
890.98	40.11
891.151	21.67
891.323	58.54
891.494	40.11
891.665	-19.29
891.836	33.96
892.007	-35.67
892.178	7.34
892.349	-9.05
892.52	11.43
892.691	48.3
892.862	7.34
893.032	-68.44
893.203	25.77
893.374	-29.52
893.545	38.06
893.716	13.48
893.887	58.54
894.057	50.35
894.228	33.96
894.399	3.24
894.57	13.48
894.74	31.91
894.911	50.35
895.082	-68.44
895.253	-47.96
895.423	-17.24
895.594	68.78
895.764	-2.9
895.935	-93.01
896.106	33.96
896.276	-15.19
896.447	36.01
896.617	27.82
896.788	-41.81
896.958	17.58
897.129	-33.62
897.299	7.34
897.47	-29.52
897.64	-37.72
897.81	9.39
897.981	79.02
898.151	-31.57
898.322	-4.95
898.492	-19.29
898.662	-11.09
898.832	-29.52
899.003	9.39
899.173	-9.05
899.343	-64.34
899.513	-56.15
