Data from USB4F104151__78__12-36-50-893.txt Node

Date: Fri Mar 14 12:36:50 EDT 2025
User: louis
Spectrometer: USB4F10415
Trigger mode: 4
Integration Time (sec): 2.000000E-2
Scans to average: 1
Electric dark correction enabled: true
Nonlinearity correction enabled: false
Boxcar width: 0
XAxis mode: Wavelengths
Number of Pixels in Spectrum: 3648
>>>>>Begin Spectral Data<<<<<
178.204	-102.91
178.424	-102.91
178.644	-102.91
178.864	-92.67
179.084	-14.85
179.304	-41.47
179.524	-6.66
179.744	-16.9
179.964	11.78
180.184	-90.62
180.404	99.84
180.624	3.58
180.844	-35.33
181.064	-2.56
181.283	30.21
181.503	11.78
181.723	36.35
181.943	-8.7
182.163	75.26
182.383	11.78
182.602	144.89
182.822	26.11
183.042	44.54
183.262	22.02
183.482	48.64
183.701	42.5
183.921	9.73
184.141	26.11
184.361	34.3
184.58	48.64
184.8	-14.85
185.02	28.16
185.239	42.5
185.459	79.36
185.679	157.18
185.898	22.02
186.118	13.82
186.338	1.54
186.557	97.79
186.777	-74.24
186.997	5.63
187.216	85.5
187.436	-12.8
187.655	83.45
187.875	30.21
188.095	22.02
188.314	38.4
188.534	44.54
188.753	95.74
188.973	36.35
189.192	38.4
189.412	124.41
189.631	-8.7
189.851	-37.38
190.07	75.26
190.29	-12.8
190.509	38.4
190.729	-27.14
190.948	134.65
191.168	142.85
191.387	-25.09
191.607	56.83
191.826	42.5
192.045	97.79
192.265	112.13
192.484	-31.23
192.704	3.58
192.923	-37.38
193.142	89.6
193.362	110.08
193.581	46.59
193.8	22.02
194.02	130.56
194.239	22.02
194.458	40.45
194.678	36.35
194.897	34.3
195.116	50.69
195.335	89.6
195.555	62.98
195.774	36.35
195.993	-35.33
196.212	5.63
196.432	24.06
196.651	44.54
196.87	65.02
197.089	97.79
197.308	22.02
197.528	140.8
197.747	13.82
197.966	65.02
198.185	50.69
198.404	34.3
198.623	71.17
198.842	65.02
199.062	52.74
199.281	99.84
199.5	22.02
199.719	73.21
199.938	83.45
200.157	44.54
200.376	48.64
200.595	65.02
200.814	3.58
201.033	87.55
201.252	114.17
201.471	58.88
201.69	101.89
201.909	77.31
202.128	101.89
202.347	87.55
202.566	-92.67
202.785	71.17
203.004	38.4
203.223	99.84
203.442	26.11
203.661	-6.66
203.879	71.17
204.098	122.37
204.317	62.98
204.536	144.89
204.755	50.69
204.974	85.5
205.193	77.31
205.411	132.61
205.63	65.02
205.849	28.16
206.068	116.22
206.287	67.07
206.505	50.69
206.724	-14.85
206.943	-12.8
207.162	24.06
207.381	89.6
207.599	30.21
207.818	56.83
208.037	15.87
208.255	32.26
208.474	-37.38
208.693	32.26
208.911	130.56
209.13	77.31
209.349	124.41
209.567	50.69
209.786	62.98
210.005	71.17
210.223	-27.14
210.442	-29.18
210.661	44.54
210.879	85.5
211.098	87.55
211.316	42.5
211.535	50.69
211.753	13.82
211.972	87.55
212.191	-18.94
212.409	-43.52
212.628	75.26
212.846	7.68
213.065	54.78
213.283	44.54
213.502	-31.23
213.72	11.78
213.938	120.32
214.157	56.83
214.375	-6.66
214.594	-18.94
214.812	28.16
215.031	93.69
215.249	40.45
215.467	11.78
215.686	50.69
215.904	44.54
216.122	22.02
216.341	65.02
216.559	85.5
216.778	3.58
216.996	48.64
217.214	28.16
217.432	42.5
217.651	3.58
217.869	75.26
218.087	19.97
218.306	42.5
218.524	73.21
218.742	13.82
218.96	48.64
219.179	-12.8
219.397	140.8
219.615	44.54
219.833	52.74
220.051	28.16
220.27	91.65
220.488	-25.09
220.706	22.02
220.924	-64
221.142	24.06
221.36	26.11
221.578	38.4
221.796	22.02
222.015	34.3
222.233	50.69
222.451	85.5
222.669	15.87
222.887	15.87
223.105	56.83
223.323	103.93
223.541	42.5
223.759	40.45
223.977	58.88
224.195	32.26
224.413	34.3
224.631	22.02
224.849	-18.94
225.067	120.32
225.285	-4.61
225.503	58.88
225.721	-2.56
225.939	28.16
226.157	30.21
226.375	58.88
226.592	1.54
226.81	22.02
227.028	85.5
227.246	85.5
227.464	97.79
227.682	65.02
227.9	19.97
228.117	32.26
228.335	48.64
228.553	17.92
228.771	42.5
228.989	54.78
229.206	60.93
229.424	52.74
229.642	19.97
229.86	24.06
230.077	5.63
230.295	46.59
230.513	85.5
230.731	48.64
230.948	97.79
231.166	3.58
231.384	42.5
231.601	-47.62
231.819	91.65
232.037	62.98
232.254	-16.9
232.472	56.83
232.689	15.87
232.907	26.11
233.125	32.26
233.342	15.87
233.56	-27.14
233.777	-14.85
233.995	54.78
234.213	108.03
234.43	28.16
234.648	69.12
234.865	28.16
235.083	73.21
235.3	38.4
235.518	24.06
235.735	58.88
235.953	97.79
236.17	42.5
236.388	32.26
236.605	79.36
236.822	40.45
237.04	-0.51
237.257	30.21
237.475	34.3
237.692	34.3
237.909	-18.94
238.127	58.88
238.344	54.78
238.562	48.64
238.779	22.02
238.996	65.02
239.214	28.16
239.431	60.93
239.648	30.21
239.865	110.08
240.083	83.45
240.3	-29.18
240.517	17.92
240.735	7.68
240.952	40.45
241.169	48.64
241.386	75.26
241.603	134.65
241.821	62.98
242.038	34.3
242.255	75.26
242.472	69.12
242.689	26.11
242.907	91.65
243.124	26.11
243.341	112.13
243.558	3.58
243.775	19.97
243.992	32.26
244.209	26.11
244.426	46.59
244.643	34.3
244.86	65.02
245.078	91.65
245.295	58.88
245.512	58.88
245.729	24.06
245.946	79.36
246.163	32.26
246.38	60.93
246.597	26.11
246.814	5.63
247.031	19.97
247.248	62.98
247.464	46.59
247.681	50.69
247.898	138.75
248.115	83.45
248.332	-6.66
248.549	71.17
248.766	32.26
248.983	110.08
249.2	56.83
249.417	60.93
249.633	87.55
249.85	75.26
250.067	71.17
250.284	50.69
250.501	60.93
250.717	140.8
250.934	85.5
251.151	40.45
251.368	-4.61
251.585	28.16
251.801	28.16
252.018	32.26
252.235	46.59
252.451	-25.09
252.668	-18.94
252.885	138.75
253.102	36.35
253.318	34.3
253.535	30.21
253.752	60.93
253.968	-51.71
254.185	87.55
254.401	52.74
254.618	73.21
254.835	48.64
255.051	101.89
255.268	50.69
255.484	112.13
255.701	30.21
255.917	40.45
256.134	-45.57
256.351	13.82
256.567	15.87
256.784	-41.47
257	-2.56
257.217	24.06
257.433	83.45
257.65	58.88
257.866	50.69
258.082	56.83
258.299	46.59
258.515	54.78
258.732	48.64
258.948	22.02
259.165	112.13
259.381	3.58
259.597	85.5
259.814	38.4
260.03	38.4
260.246	22.02
260.463	32.26
260.679	73.21
260.895	48.64
261.112	38.4
261.328	60.93
261.544	36.35
261.761	126.46
261.977	58.88
262.193	36.35
262.409	171.52
262.626	67.07
262.842	56.83
263.058	26.11
263.274	22.02
263.49	101.89
263.707	120.32
263.923	67.07
264.139	87.55
264.355	30.21
264.571	83.45
264.787	32.26
265.004	65.02
265.22	-47.62
265.436	89.6
265.652	34.3
265.868	38.4
266.084	50.69
266.3	93.69
266.516	-2.56
266.732	67.07
266.948	-4.61
267.164	99.84
267.38	32.26
267.596	22.02
267.812	89.6
268.028	36.35
268.244	85.5
268.46	56.83
268.676	26.11
268.892	65.02
269.108	-10.75
269.324	-33.28
269.54	-39.42
269.756	19.97
269.972	44.54
270.188	48.64
270.403	58.88
270.619	95.74
270.835	134.65
271.051	24.06
271.267	62.98
271.483	32.26
271.698	124.41
271.914	17.92
272.13	34.3
272.346	91.65
272.562	19.97
272.777	91.65
272.993	60.93
273.209	62.98
273.425	24.06
273.64	34.3
273.856	108.03
274.072	38.4
274.287	46.59
274.503	11.78
274.719	24.06
274.934	-6.66
275.15	54.78
275.366	34.3
275.581	136.7
275.797	50.69
276.012	19.97
276.228	34.3
276.444	110.08
276.659	44.54
276.875	15.87
277.09	87.55
277.306	97.79
277.521	79.36
277.737	65.02
277.952	15.87
278.168	69.12
278.383	-27.14
278.599	60.93
278.814	11.78
279.03	75.26
279.245	97.79
279.461	34.3
279.676	71.17
279.892	-8.7
280.107	30.21
280.322	-25.09
280.538	50.69
280.753	93.69
280.969	83.45
281.184	97.79
281.399	126.46
281.615	118.27
281.83	67.07
282.045	60.93
282.26	99.84
282.476	58.88
282.691	17.92
282.906	67.07
283.122	-29.18
283.337	34.3
283.552	99.84
283.767	5.63
283.983	-10.75
284.198	99.84
284.413	32.26
284.628	42.5
284.843	36.35
285.058	126.46
285.274	52.74
285.489	28.16
285.704	26.11
285.919	67.07
286.134	103.93
286.349	81.41
286.564	15.87
286.779	60.93
286.995	-27.14
287.21	32.26
287.425	42.5
287.64	69.12
287.855	15.87
288.07	-27.14
288.285	3.58
288.5	58.88
288.715	48.64
288.93	44.54
289.145	44.54
289.36	-23.04
289.575	46.59
289.79	60.93
290.004	89.6
290.219	3.58
290.434	26.11
290.649	89.6
290.864	75.26
291.079	28.16
291.294	19.97
291.509	46.59
291.724	15.87
291.938	-12.8
292.153	126.46
292.368	26.11
292.583	-8.7
292.798	26.11
293.012	46.59
293.227	9.73
293.442	77.31
293.657	30.21
293.871	36.35
294.086	71.17
294.301	79.36
294.516	130.56
294.73	93.69
294.945	32.26
295.16	118.27
295.374	85.5
295.589	122.37
295.804	-2.56
296.018	97.79
296.233	112.13
296.447	26.11
296.662	48.64
296.877	9.73
297.091	38.4
297.306	3.58
297.52	-4.61
297.735	-23.04
297.949	95.74
298.164	103.93
298.378	54.78
298.593	48.64
298.807	52.74
299.022	95.74
299.236	36.35
299.451	101.89
299.665	-33.28
299.88	128.51
300.094	7.68
300.309	17.92
300.523	60.93
300.737	48.64
300.952	44.54
301.166	34.3
301.381	-23.04
301.595	30.21
301.809	103.93
302.024	52.74
302.238	34.3
302.452	73.21
302.667	-2.56
302.881	116.22
303.095	89.6
303.309	62.98
303.524	42.5
303.738	44.54
303.952	40.45
304.166	52.74
304.381	3.58
304.595	62.98
304.809	71.17
305.023	116.22
305.237	60.93
305.452	116.22
305.666	42.5
305.88	44.54
306.094	77.31
306.308	124.41
306.522	22.02
306.736	36.35
306.95	67.07
307.164	79.36
307.379	54.78
307.593	60.93
307.807	46.59
308.021	48.64
308.235	34.3
308.449	81.41
308.663	42.5
308.877	169.47
309.091	142.85
309.305	65.02
309.519	-47.62
309.733	32.26
309.947	7.68
310.161	101.89
310.374	32.26
310.588	40.45
310.802	85.5
311.016	91.65
311.23	42.5
311.444	138.75
311.658	85.5
311.872	122.37
312.085	65.02
312.299	134.65
312.513	126.46
312.727	85.5
312.941	24.06
313.154	62.98
313.368	71.17
313.582	95.74
313.796	40.45
314.009	128.51
314.223	32.26
314.437	99.84
314.651	103.93
314.864	40.45
315.078	62.98
315.292	11.78
315.505	30.21
315.719	124.41
315.933	34.3
316.146	30.21
316.36	58.88
316.573	38.4
316.787	79.36
317.001	77.31
317.214	30.21
317.428	124.41
317.641	118.27
317.855	26.11
318.068	42.5
318.282	15.87
318.495	114.17
318.709	103.93
318.922	65.02
319.136	122.37
319.349	60.93
319.563	83.45
319.776	73.21
319.99	28.16
320.203	73.21
320.417	79.36
320.63	58.88
320.843	28.16
321.057	9.73
321.27	52.74
321.483	58.88
321.697	79.36
321.91	97.79
322.124	79.36
322.337	38.4
322.55	1.54
322.763	34.3
322.977	46.59
323.19	99.84
323.403	97.79
323.617	87.55
323.83	108.03
324.043	13.82
324.256	65.02
324.469	44.54
324.683	46.59
324.896	81.41
325.109	7.68
325.322	93.69
325.535	30.21
325.748	38.4
325.962	79.36
326.175	87.55
326.388	105.98
326.601	38.4
326.814	65.02
327.027	32.26
327.24	81.41
327.453	-10.75
327.666	46.59
327.879	46.59
328.092	118.27
328.305	42.5
328.518	67.07
328.731	75.26
328.944	58.88
329.157	67.07
329.37	81.41
329.583	52.74
329.796	81.41
330.009	48.64
330.222	93.69
330.435	83.45
330.648	62.98
330.861	60.93
331.073	73.21
331.286	44.54
331.499	15.87
331.712	65.02
331.925	34.3
332.138	42.5
332.35	99.84
332.563	-39.42
332.776	40.45
332.989	38.4
333.202	103.93
333.414	69.12
333.627	67.07
333.84	114.17
334.053	65.02
334.265	24.06
334.478	58.88
334.691	17.92
334.903	105.98
335.116	85.5
335.329	85.5
335.541	83.45
335.754	58.88
335.966	52.74
336.179	118.27
336.392	56.83
336.604	-8.7
336.817	132.61
337.029	83.45
337.242	157.18
337.454	75.26
337.667	42.5
337.88	56.83
338.092	52.74
338.305	77.31
338.517	3.58
338.729	71.17
338.942	101.89
339.154	79.36
339.367	85.5
339.579	83.45
339.792	79.36
340.004	110.08
340.217	81.41
340.429	60.93
340.641	24.06
340.854	13.82
341.066	67.07
341.278	114.17
341.491	62.98
341.703	77.31
341.915	30.21
342.128	60.93
342.34	81.41
342.552	67.07
342.764	116.22
342.977	67.07
343.189	71.17
343.401	52.74
343.613	58.88
343.826	65.02
344.038	97.79
344.25	67.07
344.462	19.97
344.674	124.41
344.886	73.21
345.099	54.78
345.311	-12.8
345.523	26.11
345.735	52.74
345.947	130.56
346.159	148.99
346.371	87.55
346.583	15.87
346.795	128.51
347.007	65.02
347.219	65.02
347.431	46.59
347.643	69.12
347.855	48.64
348.067	40.45
348.279	15.87
348.491	85.5
348.703	103.93
348.915	89.6
349.127	26.11
349.339	97.79
349.551	65.02
349.763	89.6
349.975	38.4
350.187	81.41
350.399	48.64
350.61	71.17
350.822	28.16
351.034	48.64
351.246	-10.75
351.458	97.79
351.669	7.68
351.881	50.69
352.093	93.69
352.305	67.07
352.517	26.11
352.728	114.17
352.94	124.41
353.152	50.69
353.363	32.26
353.575	101.89
353.787	132.61
353.999	65.02
354.21	130.56
354.422	101.89
354.633	83.45
354.845	153.09
355.057	42.5
355.268	69.12
355.48	97.79
355.692	65.02
355.903	58.88
356.115	44.54
356.326	19.97
356.538	15.87
356.749	89.6
356.961	91.65
357.172	118.27
357.384	71.17
357.595	91.65
357.807	126.46
358.018	60.93
358.23	81.41
358.441	89.6
358.653	173.57
358.864	110.08
359.075	112.13
359.287	48.64
359.498	114.17
359.709	32.26
359.921	42.5
360.132	124.41
360.344	11.78
360.555	36.35
360.766	38.4
360.977	-12.8
361.189	5.63
361.4	17.92
361.611	105.98
361.823	60.93
362.034	46.59
362.245	26.11
362.456	161.28
362.667	54.78
362.879	34.3
363.09	42.5
363.301	93.69
363.512	42.5
363.723	69.12
363.935	32.26
364.146	81.41
364.357	62.98
364.568	89.6
364.779	7.68
364.99	73.21
365.201	40.45
365.412	89.6
365.623	32.26
365.834	52.74
366.045	32.26
366.256	71.17
366.467	103.93
366.678	87.55
366.889	44.54
367.1	-2.56
367.311	17.92
367.522	32.26
367.733	118.27
367.944	95.74
368.155	58.88
368.366	114.17
368.577	122.37
368.788	60.93
368.999	40.45
369.209	67.07
369.42	120.32
369.631	77.31
369.842	7.68
370.053	99.84
370.264	69.12
370.474	87.55
370.685	77.31
370.896	122.37
371.107	73.21
371.317	91.65
371.528	110.08
371.739	19.97
371.95	101.89
372.16	142.85
372.371	67.07
372.582	71.17
372.792	112.13
373.003	42.5
373.214	81.41
373.424	89.6
373.635	22.02
373.846	91.65
374.056	81.41
374.267	32.26
374.477	34.3
374.688	22.02
374.898	144.89
375.109	42.5
375.319	85.5
375.53	124.41
375.74	52.74
375.951	85.5
376.161	71.17
376.372	75.26
376.582	56.83
376.793	151.04
377.003	126.46
377.214	91.65
377.424	97.79
377.635	40.45
377.845	118.27
378.055	62.98
378.266	50.69
378.476	-29.18
378.686	159.23
378.897	15.87
379.107	46.59
379.317	60.93
379.528	7.68
379.738	54.78
379.948	50.69
380.158	75.26
380.369	128.51
380.579	30.21
380.789	148.99
380.999	65.02
381.21	87.55
381.42	120.32
381.63	126.46
381.84	126.46
382.05	179.71
382.261	50.69
382.471	89.6
382.681	132.61
382.891	83.45
383.101	38.4
383.311	32.26
383.521	151.04
383.731	142.85
383.941	110.08
384.151	56.83
384.361	130.56
384.571	132.61
384.781	71.17
384.991	126.46
385.201	54.78
385.411	120.32
385.621	89.6
385.831	85.5
386.041	85.5
386.251	132.61
386.461	122.37
386.671	97.79
386.881	140.8
387.091	95.74
387.301	105.98
387.511	58.88
387.72	60.93
387.93	155.13
388.14	114.17
388.35	79.36
388.56	130.56
388.769	85.5
388.979	116.22
389.189	101.89
389.399	97.79
389.609	54.78
389.818	132.61
390.028	67.07
390.238	126.46
390.447	58.88
390.657	95.74
390.867	56.83
391.076	32.26
391.286	95.74
391.496	157.18
391.705	114.17
391.915	163.33
392.125	99.84
392.334	83.45
392.544	120.32
392.753	120.32
392.963	105.98
393.172	87.55
393.382	148.99
393.591	87.55
393.801	126.46
394.01	151.04
394.22	83.45
394.429	75.26
394.639	151.04
394.848	75.26
395.058	110.08
395.267	161.28
395.477	71.17
395.686	44.54
395.895	220.67
396.105	128.51
396.314	112.13
396.524	71.17
396.733	148.99
396.942	67.07
397.152	93.69
397.361	216.57
397.57	175.61
397.78	85.5
397.989	126.46
398.198	153.09
398.407	44.54
398.617	183.81
398.826	77.31
399.035	93.69
399.244	171.52
399.453	165.37
399.663	81.41
399.872	179.71
400.081	206.33
400.29	157.18
400.499	138.75
400.708	91.65
400.917	210.43
401.127	105.98
401.336	255.48
401.545	194.05
401.754	169.47
401.963	140.8
402.172	126.46
402.381	169.47
402.59	198.14
402.799	196.09
403.008	216.57
403.217	167.42
403.426	173.57
403.635	118.27
403.844	163.33
404.053	161.28
404.262	218.62
404.471	292.35
404.68	232.96
404.888	185.85
405.097	95.74
405.306	198.14
405.515	255.48
405.724	210.43
405.933	222.72
406.142	243.2
406.35	206.33
406.559	286.2
406.768	155.13
406.977	249.34
407.185	286.2
407.394	237.05
407.603	220.67
407.812	280.06
408.02	318.97
408.229	302.59
408.438	284.16
408.646	329.21
408.855	339.45
409.064	290.3
409.272	343.55
409.481	316.92
409.69	321.02
409.898	392.7
410.107	447.99
410.315	439.8
410.524	409.08
410.733	390.65
410.941	390.65
411.15	529.91
411.358	486.9
411.567	572.92
411.775	519.67
411.984	534.01
412.192	577.02
412.401	628.21
412.609	550.39
412.818	689.65
413.026	706.04
413.234	611.83
413.443	634.36
413.651	665.08
413.86	658.93
414.068	701.94
414.276	761.33
414.485	781.81
414.693	886.26
414.901	824.82
415.11	855.54
415.318	896.5
415.526	984.56
415.734	998.9
415.943	1134.06
416.151	1037.81
416.359	1027.57
416.567	1066.48
416.776	1181.17
416.984	1191.41
417.192	1226.22
417.4	1154.54
417.608	1306.09
417.817	1340.91
418.025	1369.58
418.233	1492.46
418.441	1474.03
418.649	1607.14
418.857	1631.72
419.065	1695.21
419.273	1641.96
419.481	1736.17
419.689	1730.02
419.897	1918.43
420.105	1832.42
420.313	1998.31
420.521	2065.89
420.729	1983.97
420.937	2182.62
421.145	2242.01
421.353	2330.08
421.561	2536.92
421.769	2506.2
421.977	2606.55
422.185	2655.7
422.393	2758.1
422.601	2948.56
422.809	2813.4
423.017	2930.13
423.224	3059.15
423.432	3096.02
423.64	3173.84
423.848	3456.46
424.056	3278.29
424.263	3593.67
424.471	3581.39
424.679	3655.11
424.887	4001.22
425.094	3911.11
425.302	3917.25
425.51	4027.84
425.718	4365.76
425.925	4328.89
426.133	4511.16
426.341	4728.25
426.548	5010.87
426.756	4922.8
426.964	5137.84
427.171	5225.9
427.379	5479.85
427.586	5512.62
427.794	5643.69
428.001	5907.88
428.209	6124.96
428.417	6159.78
428.624	6466.97
428.832	6679.96
429.039	6675.87
429.247	6628.76
429.454	7167.38
429.662	7490.96
429.869	7257.49
430.076	7634.32
430.284	7431.57
430.491	7742.86
430.699	8152.45
430.906	8392.06
431.114	8318.34
431.321	8496.51
431.528	8742.27
431.736	9184.63
431.943	9901.42
432.15	9444.72
432.358	9545.07
432.565	10102.12
432.772	10188.13
432.979	10761.56
433.187	10962.26
433.394	10857.82
433.601	11513.17
433.808	11474.26
434.016	11693.39
434.223	12195.14
434.43	12621.12
434.637	12516.67
434.844	13417.78
435.052	13802.8
435.259	13430.07
435.466	13710.64
435.673	13552.95
435.88	14578.98
436.087	15156.5
436.294	14961.95
436.501	14916.89
436.708	14992.67
436.915	15787.28
437.122	16538.88
437.329	16444.68
437.537	16794.88
437.743	17100.03
437.95	16954.62
438.157	18015.47
438.364	18441.45
438.571	18402.54
438.778	18529.51
438.985	20278.47
439.192	19330.27
439.399	20294.86
439.606	19905.74
439.813	20769.99
440.02	21978.29
440.227	21685.43
440.433	21560.5
440.64	21929.14
440.847	21718.2
441.054	22537.38
441.261	24061.07
441.467	23522.46
441.674	24679.56
441.881	25189.5
442.088	25312.38
442.294	24790.15
442.501	25422.97
442.708	26072.18
442.914	27010.15
443.121	28050.52
443.328	27638.87
443.534	29723.71
443.741	28316.75
443.948	28036.18
444.154	30053.43
444.361	30086.2
444.568	30551.09
444.774	30245.94
444.981	30549.04
445.187	31460.38
445.394	32531.47
445.6	32459.79
445.807	35697.63
446.013	34212.85
446.22	34470.9
446.426	36201.43
446.633	36410.32
446.839	37585.86
447.046	36502.48
447.252	38022.08
447.459	38185.91
447.665	37895.1
447.871	39615.4
448.078	41241.48
448.284	39547.81
448.491	40530.84
448.697	41755.52
448.903	42656.63
449.11	43066.22
449.316	42206.08
449.522	43094.89
449.728	44018.53
449.935	44274.52
450.141	44610.39
450.347	45224.78
450.553	43697
450.76	44735.32
450.966	46213.95
451.172	45574.98
451.378	46811.96
451.584	45603.66
451.791	46979.89
451.997	46603.06
452.203	47856.42
452.409	47389.48
452.615	47049.52
452.821	45540.17
453.027	44841.81
453.233	47670.06
453.44	45589.32
453.646	45949.76
453.852	46508.86
454.058	47086.39
454.264	45654.86
454.47	46805.81
454.676	45335.37
454.882	46791.48
455.088	42957.68
455.294	44036.96
455.5	44606.3
455.705	44282.72
455.911	43172.72
456.117	42361.72
456.323	41700.23
456.529	39386.02
456.735	41573.25
456.941	40162.2
457.147	39775.14
457.352	38722.48
457.558	38120.38
457.764	38087.61
457.97	37626.82
458.176	36576.21
458.381	36889.55
458.587	34745.33
458.793	35285.99
458.999	33647.61
459.204	35445.73
459.41	34540.53
459.616	32394.26
459.821	32314.39
460.027	32441.36
460.233	31362.08
460.438	30002.23
460.644	30188.6
460.85	29056.07
461.055	28324.94
461.261	28314.7
461.466	26207.34
461.672	25506.94
461.878	27526.24
462.083	25693.3
462.289	24980.61
462.494	24790.15
462.7	23612.57
462.905	22750.37
463.111	23661.72
463.316	23991.44
463.522	23303.32
463.727	23573.66
463.932	23530.65
464.138	22969.51
464.343	23202.97
464.549	22396.07
464.754	23647.38
464.959	22680.74
465.165	22836.39
465.37	21781.68
465.575	21472.44
465.781	22428.84
465.986	22256.81
466.191	21738.68
466.397	21382.33
466.602	20380.87
466.807	20876.48
467.012	20866.24
467.218	20878.53
467.423	20784.32
467.628	20792.51
467.833	21269.69
468.038	20903.11
468.244	20243.66
468.449	21087.42
468.654	20518.09
468.859	20100.3
469.064	20475.08
469.269	19592.41
469.474	19551.45
469.679	19813.59
469.885	19285.21
470.09	19784.91
470.295	19555.54
470.5	18959.58
470.705	19012.83
470.91	18801.89
471.115	18431.21
471.32	18644.2
471.525	18375.91
471.73	18089.2
471.935	18167.02
472.139	17437.94
472.344	17724.66
472.549	17458.42
472.754	17433.85
472.959	16823.55
473.164	16692.48
473.369	16397.57
473.574	17044.73
473.778	16727.3
473.983	16575.75
474.188	16733.44
474.393	15875.34
474.598	15910.16
474.802	15740.18
475.007	15672.59
475.212	15887.63
475.417	15267.1
475.621	15306.01
475.826	15105.31
476.031	14875.93
476.235	14406.95
476.44	14970.14
476.645	14660.9
476.849	14417.19
477.054	14308.65
477.259	14175.53
477.463	14171.43
477.668	13813.04
477.872	14048.55
478.077	13724.97
478.282	13442.35
478.486	13444.4
478.691	13432.12
478.895	13184.31
479.1	12959.03
479.304	13258.04
479.509	13071.67
479.713	13092.15
479.918	12662.08
480.122	12508.48
480.326	12680.51
480.531	12805.44
480.735	12440.9
480.94	12408.13
481.144	12879.16
481.348	12236.1
481.553	12385.6
481.757	12059.98
481.961	12330.31
482.166	12391.75
482.37	12342.6
482.574	12102.98
482.778	12125.51
482.983	12434.75
483.187	12137.8
483.391	12289.35
483.595	12111.18
483.8	11930.95
484.004	12137.8
484.208	12105.03
484.412	12197.19
484.616	12393.79
484.821	12358.98
485.025	11898.19
485.229	12385.6
485.433	12113.22
485.637	12129.61
485.841	11908.43
486.045	12059.98
486.249	12049.74
486.453	12080.46
486.657	12062.02
486.861	12045.64
487.065	12047.69
487.269	12109.13
487.473	11996.49
487.677	12422.47
487.881	12209.48
488.085	12250.44
488.289	12375.36
488.493	12098.89
488.697	12180.81
488.901	12156.23
489.105	12217.67
489.309	12358.98
489.512	12211.53
489.716	12152.13
489.92	12131.65
490.124	12109.13
490.328	12633.41
490.531	12225.86
490.735	12227.91
490.939	12621.12
491.143	12410.18
491.346	12379.46
491.55	12461.38
491.754	12545.34
491.958	12762.43
492.161	12492.1
492.365	12807.48
492.569	12666.17
492.772	12883.26
492.976	12918.07
493.18	12809.53
493.383	13131.06
493.587	13151.54
493.79	13176.12
493.994	13124.92
494.197	13176.12
494.401	13274.42
494.605	13532.47
494.808	13751.6
495.012	13626.67
495.215	13634.86
495.419	14007.59
495.622	13614.38
495.825	14013.74
496.029	13874.48
496.232	14419.24
496.436	14130.47
496.639	14708
496.843	14505.25
497.046	14976.28
497.249	14738.72
497.453	15052.06
497.656	15289.62
497.859	15174.94
498.063	15312.15
498.266	15850.77
498.469	15594.77
498.673	15830.29
498.876	16080.14
499.079	16176.39
499.282	16117
499.485	16506.12
499.689	16649.47
499.892	16948.48
500.095	16870.65
500.298	17417.46
500.501	17278.2
500.705	17849.58
500.908	17677.55
501.111	17949.93
501.314	18074.86
501.517	18277.61
501.72	18562.28
501.923	18400.49
502.126	19018.97
502.329	19268.83
502.532	19358.94
502.735	19154.14
502.938	19866.83
503.141	19670.23
503.344	20417.74
503.547	19942.61
503.75	20339.91
503.953	20679.88
504.156	20743.36
504.359	21220.54
504.562	21497.02
504.765	21593.27
504.968	22031.54
505.17	21861.55
505.373	22142.13
505.576	22942.88
505.779	22535.34
505.982	23078.05
506.185	23166.11
506.387	23544.98
506.59	23620.76
506.793	24282.25
506.996	24046.74
507.198	24777.86
507.401	24663.18
507.604	24773.77
507.807	25425.02
508.009	25296
508.212	25695.35
508.415	25818.23
508.617	26299.5
508.82	26557.55
509.022	26145.91
509.225	27032.68
509.428	27278.43
509.63	27470.94
509.833	27569.24
510.035	27982.93
510.238	28064.85
510.44	28593.23
510.643	28939.33
510.845	29054.02
511.048	28933.19
511.25	29551.68
511.453	29520.96
511.655	30598.19
511.858	29912.12
512.06	30213.17
512.262	31222.82
512.465	31116.33
512.667	31513.63
512.87	31910.94
513.072	31775.77
513.274	32295.96
513.477	32777.23
513.679	33074.18
513.881	33518.59
514.084	33684.48
514.286	33737.73
514.488	33633.28
514.69	34868.2
514.893	34710.51
515.095	34997.23
515.297	35445.73
515.499	35304.42
515.701	35920.86
515.904	36256.73
516.106	36279.25
516.308	36801.49
516.51	37084.11
516.712	36901.84
516.914	37522.37
517.116	38441.91
517.318	38042.56
517.52	38407.09
517.722	38759.34
517.925	39230.38
518.127	39551.91
518.329	39711.65
518.531	39658.4
518.733	40362.9
518.935	40940.43
519.136	40639.38
519.338	41640.84
519.54	41261.96
519.742	41780.1
519.944	42380.15
520.146	42810.23
520.348	42955.63
520.55	42664.82
520.752	43176.81
520.954	43883.36
521.155	43531.11
521.357	44448.6
521.559	44522.33
521.761	45275.98
521.963	45017.94
522.164	45593.42
522.366	45607.75
522.568	46068.55
522.77	46195.52
522.971	47383.34
523.173	46490.43
523.375	47098.67
523.576	46994.23
523.778	47188.78
523.98	48153.38
524.181	47545.13
524.383	48251.68
524.584	48405.28
524.786	48923.41
524.988	48698.14
525.189	48843.54
525.391	49060.63
525.592	49502.99
525.794	50154.24
525.995	49814.28
526.197	50221.83
526.398	50031.36
526.6	50475.77
526.801	50692.86
527.003	50604.8
527.204	50508.54
527.406	51479.28
527.607	51440.37
527.808	51776.23
528.01	50658.04
528.211	51391.22
528.412	52388.58
528.614	52003.56
528.815	51948.26
529.016	52255.46
529.218	52226.79
529.419	52198.12
529.62	52298.47
529.822	52372.19
530.023	52693.72
530.224	52671.2
530.425	52720.35
530.626	52275.94
530.828	52560.61
531.029	53508.82
531.23	52935.38
531.431	52943.58
531.632	53447.38
531.833	53365.46
532.035	53091.03
532.236	53287.63
532.437	53795.53
532.638	53258.96
532.839	53351.12
533.04	53773
533.241	53299.92
533.442	53873.35
533.643	53439.18
533.844	53768.91
534.045	53783.24
534.246	52976.34
534.447	54014.66
534.648	53600.97
534.849	53994.18
535.05	53359.31
535.251	53783.24
535.451	54090.44
535.652	53824.2
535.853	53629.65
536.054	53844.68
536.255	53756.62
536.456	53619.41
536.657	54246.08
536.857	53519.06
537.058	53799.63
537.259	54485.7
537.46	53852.87
537.66	53486.29
537.861	53975.75
538.062	53699.28
538.263	53836.49
538.463	53402.32
538.664	53809.87
538.865	53850.83
539.065	54229.7
539.266	53334.74
539.466	54131.4
539.667	53375.7
539.868	54545.09
540.068	53631.69
540.269	53680.84
540.469	54305.48
540.67	53940.94
540.87	53584.59
541.071	53553.87
541.271	53789.39
541.472	53852.87
541.672	53492.43
541.873	53353.17
542.073	52636.38
542.274	54340.29
542.474	53113.56
542.675	53322.45
542.875	53983.94
543.075	53396.18
543.276	52980.44
543.476	53951.18
543.676	53013.21
543.877	53502.67
544.077	53588.69
544.277	53476.05
544.478	53398.23
544.678	53279.44
544.878	53228.24
545.078	53492.43
545.279	53009.11
545.479	53211.86
545.679	53369.55
545.879	53512.91
546.079	53000.92
546.28	53560.01
546.48	52962.01
546.68	53377.75
546.88	53420.75
547.08	53308.11
547.28	53277.4
547.48	52951.77
547.68	53105.37
547.88	53412.56
548.081	53463.76
548.281	53070.55
548.481	53197.52
548.681	53619.41
548.881	53258.96
549.081	53199.57
549.28	52886.23
549.48	53172.95
549.68	52904.66
549.88	53363.41
550.08	53312.21
550.28	52892.38
550.48	53140.18
550.68	53111.51
550.88	52669.15
551.08	52683.48
551.279	53394.13
551.479	52859.61
551.679	52894.42
551.879	53099.22
552.079	53590.73
552.278	52124.39
552.478	52923.1
552.678	52783.83
552.878	53189.33
553.077	52583.13
553.277	52472.54
553.477	53226.2
553.676	52830.94
553.876	53070.55
554.076	52839.13
554.275	52706.01
554.475	52232.93
554.674	52906.71
554.874	52673.24
555.074	51763.95
555.273	53242.58
555.473	52740.83
555.672	52568.8
555.872	52167.4
556.071	52675.29
556.271	52986.58
556.47	51784.43
556.67	51888.87
556.869	51999.46
557.068	52050.66
557.268	52058.85
557.467	52355.81
557.667	51895.02
557.866	51837.67
558.065	52194.02
558.265	51817.19
558.464	51886.82
558.663	52042.47
558.863	51518.19
559.062	52327.14
559.261	51204.85
559.461	51919.59
559.66	51450.61
559.859	51133.17
560.058	51286.77
560.258	51329.78
560.457	51145.46
560.656	51722.99
560.855	51043.06
561.054	51360.5
561.253	50699
561.453	50557.69
561.652	50973.43
561.851	51288.82
562.05	50715.39
562.249	50791.16
562.448	50842.36
562.647	50320.13
562.846	50883.32
563.045	50813.69
563.244	50008.84
563.443	51000.05
563.642	49480.46
563.841	50322.18
564.04	49877.77
564.239	50449.15
564.438	49949.45
564.637	50019.08
564.836	50486.01
565.035	49527.56
565.234	50293.5
565.432	49416.97
565.631	49056.53
565.83	49740.55
566.029	49296.14
566.228	49402.64
566.427	49496.84
566.625	49138.45
566.824	48864.02
567.023	49044.24
567.222	48327.45
567.42	48767.77
567.619	49218.32
567.818	48698.14
568.016	48417.57
568.215	49216.27
568.414	48302.88
568.612	48282.4
568.811	47911.72
569.01	47919.91
569.208	47848.23
569.407	48155.43
569.605	47416.11
569.804	48440.09
570.002	47588.14
570.201	47909.67
570.4	47424.3
570.598	46975.8
570.797	47055.67
570.995	47098.67
571.193	46594.87
571.392	47254.32
571.59	46523.19
571.789	46406.46
571.987	46852.92
572.186	46545.72
572.384	46050.11
572.582	46662.46
572.781	46377.79
572.979	46074.69
573.177	46220.09
573.376	46547.77
573.574	45638.47
573.772	46099.26
573.971	45716.29
574.169	45577.03
574.367	45300.56
574.565	45792.07
574.763	45144.91
574.962	45202.25
575.16	44804.95
575.358	45044.56
575.556	44671.83
575.754	44917.59
575.952	44637.01
576.151	45052.75
576.349	44151.65
576.547	44075.87
576.745	44594.01
576.943	44391.26
577.141	44016.48
577.339	44235.61
577.537	43871.07
577.735	43815.78
577.933	43570.02
578.131	43408.23
578.329	43463.53
578.527	43430.76
578.725	43531.11
578.923	43594.6
579.121	42929.01
579.319	42834.8
579.516	42963.82
579.714	42832.75
579.912	42529.66
580.11	42703.73
580.308	42879.86
580.506	42267.52
580.704	41849.73
580.901	42539.89
581.099	42085.25
581.297	41905.02
581.495	41659.27
581.692	42060.67
581.89	41501.57
582.088	41880.45
582.285	41726.85
582.483	42079.1
582.681	41706.37
582.878	41102.22
583.076	40541.08
583.274	41329.55
583.471	40625.04
583.669	40944.53
583.866	40467.35
584.064	40491.93
584.262	40539.03
584.459	40508.31
584.657	40485.78
584.854	40561.56
585.052	39629.73
585.249	39881.63
585.447	40262.55
585.644	39351.21
585.841	39211.95
586.039	40037.28
586.236	39390.12
586.434	39125.93
586.631	39066.54
586.828	38937.52
587.026	39515.05
587.223	39252.91
587.42	39236.52
587.618	38972.33
587.815	38226.87
588.012	38532.02
588.21	38409.14
588.407	38783.92
588.604	38044.6
588.801	38083.51
588.999	38181.82
589.196	37811.14
589.393	37899.2
589.59	37675.97
589.787	37551.04
589.984	37231.56
590.182	37143.5
590.379	37350.34
590.576	37032.91
590.773	37182.41
590.97	36979.66
591.167	37073.87
591.364	36574.16
591.561	36805.58
591.758	36168.66
591.955	36332.5
592.152	36973.52
592.349	36129.75
592.546	36377.56
592.743	36332.5
592.94	35881.95
593.137	35838.94
593.334	35814.37
593.531	35472.35
593.727	35816.41
593.924	35802.08
594.121	35099.62
594.318	35433.44
594.515	34900.97
594.712	35544.03
594.908	34474.99
595.105	35122.15
595.302	34960.36
595.499	34839.53
595.696	34507.76
595.892	34255.86
596.089	34573.3
596.286	34587.63
596.482	34278.39
596.679	34270.2
596.876	33797.12
597.072	33881.08
597.269	33960.95
597.466	33510.4
597.662	33676.29
597.859	33209.35
598.055	33635.33
598.252	33070.09
598.448	33596.42
598.645	33147.91
598.841	33074.18
599.038	32965.64
599.234	32918.54
599.431	32947.21
599.627	32590.86
599.824	32726.03
600.02	32693.26
600.217	32406.55
600.413	32218.13
600.609	32166.93
600.806	31763.48
601.002	31955.99
601.198	31720.48
601.395	31962.14
601.591	31347.75
601.787	31841.31
601.984	31503.39
602.18	31886.36
602.376	31198.24
602.572	30798.89
602.769	30981.16
602.965	30972.97
603.161	30934.06
603.357	30858.28
603.553	30587.95
603.75	30618.67
603.946	30579.76
604.142	30665.77
604.338	30254.13
604.534	30125.11
604.73	30051.38
604.926	29858.87
605.122	29895.74
605.318	29936.7
605.514	29547.58
605.71	29523.01
605.906	29531.2
606.102	29674.56
606.298	29738.04
606.494	29467.71
606.69	29647.93
606.886	29457.47
607.082	29236.29
607.278	29183.04
607.474	28769.35
607.67	29070.4
607.866	28808.26
608.062	29111.36
608.257	28687.43
608.453	28785.74
608.649	28830.79
608.845	28671.05
609.041	28701.77
609.236	28869.7
609.432	28333.14
609.628	28367.95
609.824	28212.31
610.019	28157.01
610.215	27853.91
610.411	28263.5
610.606	27827.29
610.802	28079.19
610.998	28103.76
611.193	27845.72
611.389	27909.21
611.584	27630.68
611.78	27638.87
611.976	27556.96
612.171	27626.59
612.367	27620.44
612.562	27464.8
612.758	27286.62
612.953	27147.36
613.149	27638.87
613.344	27255.9
613.539	27405.41
613.735	27413.6
613.93	27685.98
614.126	27069.54
614.321	27384.93
614.517	26946.66
614.712	27063.4
614.907	26840.17
615.103	26829.93
615.298	26610.79
615.493	27153.51
615.688	26485.87
615.884	27126.88
616.079	26307.69
616.274	26877.03
616.47	26360.94
616.665	26436.72
616.86	26377.33
617.055	26289.26
617.25	25955.44
617.445	26233.97
617.641	25773.17
617.836	26436.72
618.031	25742.46
618.226	25764.98
618.421	25517.18
618.616	25984.12
618.811	25480.32
619.006	25666.68
619.201	25425.02
619.396	25390.2
619.591	25119.87
619.786	25396.35
619.981	24908.93
620.176	25152.64
620.371	24738.95
620.566	24802.44
620.761	24605.83
620.956	24831.11
621.151	24272.01
621.346	24497.29
621.541	24099.98
621.735	24345.74
621.93	23872.66
622.125	24011.92
622.32	23735.45
622.515	23706.77
622.709	23499.93
622.904	23659.67
623.099	23332
623.294	23288.99
623.488	22809.76
623.683	23182.49
623.878	22609.06
624.072	22893.73
624.267	22525.1
624.462	22387.88
624.656	22523.05
624.851	22396.07
625.046	22240.43
625.24	21992.62
625.435	21884.08
625.629	21671.09
625.824	21460.15
626.018	21560.5
626.213	21251.26
626.407	21499.06
626.602	20956.35
626.796	21320.89
626.991	21206.2
627.185	20989.12
627.38	20829.38
627.574	20667.59
627.768	20499.66
627.963	20524.23
628.157	20284.62
628.352	20356.3
628.546	19932.37
628.74	20174.03
628.935	19799.25
629.129	19676.37
629.323	19381.46
629.517	19563.73
629.712	19545.3
629.906	19401.94
630.1	18894.05
630.294	19588.31
630.489	19225.82
630.683	18963.68
630.877	18724.07
631.071	18787.55
631.265	18746.59
631.459	18791.65
631.653	18527.46
631.848	18429.16
632.042	18365.67
632.236	18353.38
632.43	18081
632.624	18148.59
632.818	17913.07
633.012	17843.44
633.206	17702.13
633.4	17796.34
633.594	17638.64
633.788	17562.87
633.982	17558.77
634.176	17712.37
634.369	17091.84
634.563	17319.16
634.757	16987.39
634.951	17321.21
635.145	16954.62
635.339	16891.13
635.533	16659.71
635.726	16557.32
635.92	16391.43
636.114	16559.36
636.308	16489.73
636.501	16274.7
636.695	16295.18
636.889	16256.26
637.083	16035.08
637.276	16041.23
637.47	15824.14
637.664	15762.7
637.857	15832.33
638.051	15602.96
638.244	15729.94
638.438	15623.44
638.632	15463.7
638.825	15314.2
639.019	15179.03
639.212	15277.33
639.406	14937.37
639.599	15045.91
639.793	14955.8
639.986	14687.52
640.18	14781.73
640.373	14759.2
640.567	14613.79
640.76	14511.39
640.954	14394.66
641.147	14421.28
641.34	14372.13
641.534	14314.79
641.727	14507.3
641.92	14245.16
642.114	14044.46
642.307	14101.8
642.5	14034.22
642.694	13692.21
642.887	13835.56
643.08	13909.29
643.273	13442.35
643.467	13692.21
643.66	13342
643.853	13534.51
644.046	13081.91
644.239	13391.16
644.432	13391.16
644.626	12889.4
644.819	13002.04
645.012	12942.65
645.205	12883.26
645.398	12967.23
645.591	12737.85
645.784	12723.52
645.977	12442.95
646.17	12655.93
646.363	12506.43
646.556	12348.74
646.749	12580.16
646.942	12371.27
647.135	12307.78
647.328	12434.75
647.521	12098.89
647.714	11978.06
647.907	12010.82
648.099	11969.87
648.292	11904.33
648.485	11687.25
648.678	11810.12
648.871	11709.77
649.064	11445.59
649.256	11730.25
649.449	11435.35
649.642	11556.18
649.835	11715.92
650.027	11240.79
650.22	11177.3
650.413	11412.82
650.605	11220.31
650.798	11169.11
650.991	11091.29
651.183	10978.65
651.376	10857.82
651.568	10964.31
651.761	10759.52
651.954	10616.16
652.146	10734.94
652.339	10687.84
652.531	10544.48
652.724	10335.59
652.916	10489.18
653.109	10593.63
653.301	10372.45
653.494	10325.35
653.686	10222.95
653.879	10249.57
654.071	10122.6
654.263	10163.56
654.456	10136.93
654.648	10167.65
654.84	9768.3
655.033	9885.03
655.225	9862.51
655.417	9778.54
655.61	9708.91
655.802	9659.76
655.994	9766.25
656.186	9678.19
656.379	9758.06
656.571	9725.29
656.763	9561.45
656.955	9264.5
657.148	9522.54
657.34	9346.42
657.532	9336.18
657.724	9098.61
657.916	9266.55
658.108	9164.15
658.3	8920.44
658.492	9262.45
658.684	8912.25
658.876	9098.61
659.068	9108.85
659.26	8830.33
659.452	8910.2
659.644	8721.79
659.836	8783.23
660.028	8848.76
660.22	8598.91
660.412	8490.37
660.604	8377.73
660.796	8553.85
660.988	8471.93
661.18	8422.78
661.372	8306.05
661.563	8568.19
661.755	8230.27
661.947	8316.29
662.139	8375.68
662.331	8162.69
662.522	8109.44
662.714	8140.16
662.906	7830.92
663.097	8027.53
663.289	7878.02
663.481	7980.42
663.673	7622.03
663.864	7867.78
664.056	7796.11
664.247	7708.04
664.439	7462.29
664.631	7568.78
664.822	7601.55
665.014	7695.75
665.205	7601.55
665.397	7554.44
665.588	7466.38
665.78	7437.71
665.971	7292.3
666.163	7239.06
666.354	7370.13
666.546	7378.32
666.737	7208.34
666.929	7232.91
667.12	7159.19
667.311	7064.98
667.503	7093.65
667.694	7075.22
667.885	6989.21
668.077	7052.69
668.268	6804.89
668.459	7093.65
668.651	6983.06
668.842	6837.66
669.033	6811.03
669.224	6868.38
669.416	6776.22
669.607	6811.03
669.798	6700.44
669.989	6831.51
670.18	6663.58
670.371	6653.34
670.563	6743.45
670.754	6641.05
670.945	6503.84
671.136	6512.03
671.327	6409.63
671.518	6417.82
671.709	6452.64
671.9	6620.57
672.091	6260.13
672.282	6204.83
672.473	6317.47
672.664	6335.9
672.855	6292.9
673.046	6411.68
673.237	6270.37
673.428	6434.21
673.619	6317.47
673.809	6077.86
674	6118.82
674.191	6094.24
674.382	6155.68
674.573	6104.48
674.764	6010.28
674.954	6153.63
675.145	6036.9
675.336	6145.44
675.527	6149.54
675.717	5991.84
675.908	5858.73
676.099	5901.73
676.289	5965.22
676.48	5852.58
676.671	5873.06
676.861	5715.37
677.052	5758.38
677.243	5703.08
677.433	5686.7
677.624	5809.58
677.814	5723.56
678.005	5717.42
678.195	5639.59
678.386	5557.68
678.576	5535.15
678.767	5705.13
678.957	5547.44
679.148	5852.58
679.338	5498.28
679.529	5559.72
679.719	5426.61
679.909	5553.58
680.1	5692.84
680.29	5500.33
680.481	5488.04
680.671	5447.08
680.861	5418.41
681.052	5483.95
681.242	5356.97
681.432	5322.16
681.622	5397.93
681.813	5359.02
682.003	5359.02
682.193	5498.28
682.383	5373.36
682.573	5283.25
682.764	5152.18
682.954	5234.1
683.144	5371.31
683.334	5391.79
683.524	5217.71
683.714	5221.81
683.904	5150.13
684.094	5119.41
684.284	5047.73
684.474	5072.31
684.664	5107.12
684.854	5051.83
685.044	4910.52
685.234	5035.44
685.424	5115.31
685.614	4922.8
685.804	4949.43
685.994	4931
686.184	4906.42
686.374	4855.22
686.564	4840.89
686.753	4957.62
686.943	4842.93
687.133	4928.95
687.323	4871.61
687.513	4761.02
687.702	4840.89
687.892	4765.11
688.082	4756.92
688.272	4773.3
688.461	4715.96
688.651	4765.11
688.841	4685.24
689.03	4670.9
689.22	4535.74
689.41	4607.42
689.599	4531.64
689.789	4570.55
689.979	4509.12
690.168	4535.74
690.358	4576.7
690.547	4347.33
690.737	4414.91
690.926	4459.96
691.116	4251.07
691.305	4521.4
691.495	4330.94
691.684	4330.94
691.874	4468.16
692.063	4363.71
692.252	4310.46
692.442	4304.32
692.631	4144.58
692.82	4302.27
693.01	4283.84
693.199	4066.75
693.388	4105.67
693.578	4048.32
693.767	4222.4
693.956	4246.98
694.146	4120
694.335	3966.4
694.524	4046.27
694.713	4158.91
694.902	4081.09
695.092	4107.71
695.281	3980.74
695.47	3909.06
695.659	3978.69
695.848	3988.93
696.037	3990.98
696.226	3956.16
696.415	3997.12
696.604	3952.07
696.793	3872.2
696.982	3958.21
697.171	3837.38
697.36	3868.1
697.549	3790.28
697.738	3870.15
697.927	3864.01
698.116	3995.08
698.305	3839.43
698.494	3917.25
698.683	3968.45
698.872	3878.34
699.061	3655.11
699.25	3767.75
699.438	3857.86
699.627	3730.89
699.816	3743.17
700.005	3706.31
700.193	3728.84
700.382	3583.43
700.571	3532.23
700.76	3624.39
700.948	3526.09
701.137	3753.41
701.326	3775.94
701.514	3640.78
701.703	3753.41
701.892	3481.03
702.08	3573.19
702.269	3603.91
702.457	3423.69
702.646	3612.1
702.834	3595.72
703.023	3544.52
703.212	3616.2
703.4	3507.66
703.589	3673.54
703.777	3562.95
703.965	3413.45
704.154	3534.28
704.342	3421.64
704.531	3565
704.719	3366.35
704.907	3491.27
705.096	3460.56
705.284	3468.75
705.472	3495.37
705.661	3462.6
705.849	3446.22
706.037	3413.45
706.226	3546.57
706.414	3427.79
706.602	3503.56
706.79	3558.86
706.979	3466.7
707.167	3419.6
707.355	3372.49
707.543	3321.29
707.731	3487.18
707.919	3337.68
708.107	3421.64
708.296	3339.73
708.484	3255.76
708.672	3354.06
708.86	3190.22
709.048	3274.19
709.236	3325.39
709.424	3345.87
709.612	3290.57
709.8	3141.07
709.988	3186.13
710.176	3339.73
710.364	3255.76
710.551	3241.42
710.739	3315.15
710.927	3298.77
711.115	3210.7
711.303	3188.18
711.491	3288.53
711.679	3225.04
711.866	3198.42
712.054	3151.31
712.242	3343.82
712.43	3102.16
712.617	3227.09
712.805	3083.73
712.993	3153.36
713.181	3114.45
713.368	3270.09
713.556	3208.66
713.744	2995.67
713.931	3145.17
714.119	3136.98
714.306	3087.82
714.494	3032.53
714.682	3055.06
714.869	3036.63
715.057	3050.96
715.244	3034.58
715.432	3096.02
715.619	3038.67
715.807	3110.35
715.994	3057.11
716.182	2985.43
716.369	2966.99
716.556	3018.19
716.744	2915.8
716.931	2997.71
717.119	3067.35
717.306	3001.81
717.493	2958.8
717.681	2897.36
717.868	2917.84
718.055	2971.09
718.242	2917.84
718.43	3005.91
718.617	2809.3
718.804	2895.32
718.991	2811.35
719.179	2854.36
719.366	2764.25
719.553	2942.42
719.74	2809.3
719.927	2840.02
720.114	2868.69
720.301	2809.3
720.488	2919.89
720.676	2844.12
720.863	2856.4
721.05	2774.49
721.237	2766.29
721.424	2844.12
721.611	2794.97
721.798	2676.18
721.985	2794.97
722.172	2741.72
722.358	2762.2
722.545	2848.21
722.732	2676.18
722.919	2747.86
723.106	2661.85
723.293	2807.25
723.48	2684.38
723.667	2815.45
723.853	2655.7
724.04	2891.22
724.227	2729.43
724.414	2676.18
724.6	2596.31
724.787	2719.19
724.974	2663.9
725.161	2700.76
725.347	2670.04
725.534	2598.36
725.72	2651.61
725.907	2604.5
726.094	2588.12
726.28	2764.25
726.467	2610.65
726.653	2504.15
726.84	2573.78
727.027	2588.12
727.213	2549.21
727.4	2573.78
727.586	2518.49
727.773	2538.97
727.959	2645.46
728.145	2594.26
728.332	2512.35
728.518	2536.92
728.705	2547.16
728.891	2563.54
729.077	2551.26
729.264	2614.74
729.45	2588.12
729.636	2549.21
729.823	2559.45
730.009	2543.07
730.195	2659.8
730.382	2493.91
730.568	2485.72
730.754	2510.3
730.94	2471.39
731.126	2469.34
731.313	2420.19
731.499	2473.43
731.685	2512.35
731.871	2422.24
732.057	2358.75
732.243	2448.86
732.429	2409.95
732.615	2422.24
732.801	2516.44
732.987	2436.57
733.173	2450.91
733.359	2350.56
733.545	2366.94
733.731	2272.73
733.917	2489.82
734.103	2405.85
734.289	2534.87
734.475	2448.86
734.661	2407.9
734.847	2282.97
735.033	2309.6
735.219	2366.94
735.404	2393.56
735.59	2346.46
735.776	2246.11
735.962	2389.47
736.148	2287.07
736.333	2348.51
736.519	2313.69
736.705	2362.84
736.89	2211.29
737.076	2270.69
737.262	2305.5
737.447	2196.96
737.633	2301.4
737.819	2239.97
738.004	2268.64
738.19	2117.09
738.375	2260.45
738.561	2180.57
738.747	2244.06
738.932	2180.57
739.118	2221.53
739.303	2209.25
739.489	2278.88
739.674	2215.39
739.859	2125.28
740.045	2225.63
740.23	2088.42
740.416	2192.86
740.601	2201.05
740.786	2166.24
740.972	2086.37
741.157	2221.53
741.342	2110.94
741.528	2102.75
741.713	2188.77
741.898	2239.97
742.084	2041.31
742.269	2090.46
742.454	2129.38
742.639	2057.7
742.824	1965.54
743.01	2010.59
743.195	2145.76
743.38	1986.02
743.565	2098.66
743.75	2043.36
743.935	1951.2
744.12	1994.21
744.305	2029.03
744.49	1963.49
744.675	1965.54
744.86	1998.31
745.045	1832.42
745.23	1928.67
745.415	1932.77
745.6	1963.49
745.785	1961.44
745.97	1883.62
746.155	1926.63
746.34	1918.43
746.525	1850.85
746.71	1904.1
746.895	1844.71
747.079	1787.36
747.264	1836.52
747.449	1828.32
747.634	1789.41
747.819	1758.69
748.003	1740.26
748.188	1857
748.373	1779.17
748.557	1717.73
748.742	1752.55
748.927	1738.21
749.111	1719.78
749.296	1711.59
749.481	1754.6
749.665	1644.01
749.85	1707.49
750.034	1644.01
750.219	1713.64
750.404	1754.6
750.588	1633.77
750.773	1545.7
750.957	1660.39
751.141	1553.9
751.326	1662.44
751.51	1553.9
751.695	1568.23
751.879	1549.8
752.064	1564.14
752.248	1492.46
752.432	1506.79
752.617	1533.42
752.801	1619.43
752.985	1576.42
753.17	1496.55
753.354	1531.37
753.538	1494.51
753.722	1467.88
753.907	1474.03
754.091	1506.79
754.275	1410.54
754.459	1412.59
754.643	1342.96
754.828	1367.53
755.012	1406.44
755.196	1271.28
755.38	1338.86
755.564	1402.35
755.748	1349.1
755.932	1269.23
756.116	1287.66
756.3	1287.66
756.484	1316.33
756.668	1181.17
756.852	1226.22
757.036	1328.62
757.22	1302
757.404	1306.09
757.588	1248.75
757.772	1261.04
757.956	1215.98
758.14	1277.42
758.323	1258.99
758.507	1238.51
758.691	1238.51
758.875	1193.45
759.059	1201.65
759.242	1172.97
759.426	1172.97
759.61	1160.69
759.794	1215.98
759.977	1160.69
760.161	1228.27
760.345	1121.77
760.528	1168.88
760.712	1074.67
760.895	1048.05
761.079	1127.92
761.263	1166.83
761.446	1048.05
761.63	1158.64
761.813	1037.81
761.997	1015.28
762.18	1011.18
762.364	1091.06
762.547	1046
762.731	1097.2
762.914	1072.62
763.098	1150.45
763.281	1023.47
763.464	1000.94
763.648	1046
763.831	1029.62
764.015	1078.77
764.198	1060.34
764.381	1011.18
764.564	1046
764.748	1009.14
764.931	1041.9
765.114	845.3
765.297	982.51
765.481	1013.23
765.664	939.51
765.847	857.59
766.03	1002.99
766.213	998.9
766.397	939.51
766.58	945.65
766.763	974.32
766.946	849.4
767.129	937.46
767.312	992.75
767.495	910.83
767.678	908.79
767.861	921.07
768.044	996.85
768.227	998.9
768.41	867.83
768.593	1011.18
768.776	894.45
768.959	880.11
769.142	898.55
769.324	871.92
769.507	822.77
769.69	822.77
769.873	888.31
770.056	978.42
770.239	859.63
770.421	876.02
770.604	824.82
770.787	847.35
770.97	847.35
771.152	816.63
771.335	904.69
771.518	818.68
771.7	873.97
771.883	898.55
772.066	814.58
772.248	857.59
772.431	853.49
772.613	798.2
772.796	853.49
772.978	777.72
773.161	755.19
773.343	857.59
773.526	785.91
773.708	849.4
773.891	753.14
774.073	783.86
774.256	775.67
774.438	728.56
774.621	763.38
774.803	796.15
774.985	722.42
775.168	732.66
775.35	738.8
775.532	728.56
775.715	691.7
775.897	740.85
776.079	714.23
776.261	767.48
776.444	613.88
776.626	714.23
776.808	706.04
776.99	701.94
777.173	638.45
777.355	646.65
777.537	673.27
777.719	675.32
777.901	663.03
778.083	654.84
778.265	658.93
778.447	724.47
778.629	650.74
778.811	593.4
778.993	622.07
779.175	685.56
779.357	611.83
779.539	613.88
779.721	624.12
779.903	703.99
780.085	587.26
780.267	663.03
780.449	644.6
780.631	611.83
780.812	574.97
780.994	617.97
781.176	572.92
781.358	550.39
781.54	622.07
781.721	536.06
781.903	536.06
782.085	581.11
782.267	603.64
782.448	593.4
782.63	507.38
782.812	511.48
782.993	583.16
783.175	570.87
783.357	462.33
783.538	562.68
783.72	554.49
783.901	554.49
784.083	546.3
784.264	499.19
784.446	478.71
784.627	478.71
784.809	450.04
784.99	474.62
785.172	464.38
785.353	464.38
785.535	462.33
785.716	517.62
785.897	519.67
786.079	574.97
786.26	476.66
786.441	460.28
786.623	441.85
786.804	392.7
786.985	513.53
787.167	439.8
787.348	456.19
787.529	437.75
787.71	552.44
787.891	462.33
788.073	402.94
788.254	351.74
788.435	435.71
788.616	384.51
788.797	431.61
788.978	484.86
789.159	431.61
789.34	421.37
789.522	450.04
789.703	296.44
789.884	419.32
790.065	386.55
790.246	392.7
790.427	339.45
790.607	417.27
790.788	421.37
790.969	419.32
791.15	396.79
791.331	353.79
791.512	384.51
791.693	402.94
791.874	425.47
792.054	398.84
792.235	400.89
792.416	333.31
792.597	304.64
792.778	329.21
792.958	364.03
793.139	312.83
793.32	368.12
793.5	357.88
793.681	329.21
793.862	370.17
794.042	308.73
794.223	355.83
794.404	298.49
794.584	321.02
794.765	257.53
794.945	308.73
795.126	271.87
795.306	359.93
795.487	343.55
795.667	339.45
795.848	253.44
796.028	329.21
796.209	351.74
796.389	259.58
796.57	280.06
796.75	286.2
796.93	263.68
797.111	253.44
797.291	306.68
797.471	349.69
797.652	300.54
797.832	218.62
798.012	286.2
798.192	253.44
798.373	282.11
798.553	298.49
798.733	245.24
798.913	220.67
799.093	329.21
799.274	314.88
799.454	273.92
799.634	241.15
799.814	318.97
799.994	214.52
800.174	208.38
800.354	218.62
800.534	278.01
800.714	206.33
800.894	216.57
801.074	282.11
801.254	210.43
801.434	296.44
801.614	228.86
801.794	304.64
801.974	663.03
802.154	241.15
802.334	204.28
802.514	122.37
802.693	232.96
802.873	183.81
803.053	269.82
803.233	288.25
803.413	216.57
803.592	181.76
803.772	273.92
803.952	198.14
804.131	194.05
804.311	253.44
804.491	237.05
804.67	136.7
804.85	226.81
805.03	271.87
805.209	212.48
805.389	157.18
805.568	173.57
805.748	230.91
805.928	251.39
806.107	175.61
806.287	237.05
806.466	216.57
806.646	226.81
806.825	249.34
807.004	208.38
807.184	189.95
807.363	181.76
807.543	185.85
807.722	179.71
807.901	202.24
808.081	185.85
808.26	222.72
808.439	187.9
808.619	331.26
808.798	151.04
808.977	124.41
809.156	151.04
809.336	181.76
809.515	220.67
809.694	126.46
809.873	179.71
810.052	259.58
810.231	177.66
810.411	146.94
810.59	239.1
810.769	179.71
810.948	179.71
811.127	173.57
811.306	116.22
811.485	202.24
811.664	208.38
811.843	192
812.022	140.8
812.201	243.2
812.38	165.37
812.559	189.95
812.737	122.37
812.916	89.6
813.095	177.66
813.274	134.65
813.453	192
813.632	120.32
813.811	130.56
813.989	179.71
814.168	212.48
814.347	95.74
814.526	151.04
814.704	151.04
814.883	198.14
815.062	189.95
815.24	159.23
815.419	132.61
815.598	159.23
815.776	134.65
815.955	93.69
816.133	128.51
816.312	151.04
816.49	169.47
816.669	130.56
816.847	79.36
817.026	189.95
817.204	142.85
817.383	179.71
817.561	93.69
817.74	167.42
817.918	153.09
818.097	165.37
818.275	171.52
818.453	136.7
818.632	126.46
818.81	185.85
818.988	206.33
819.167	237.05
819.345	165.37
819.523	71.17
819.701	138.75
819.879	218.62
820.058	124.41
820.236	124.41
820.414	140.8
820.592	97.79
820.77	130.56
820.948	159.23
821.127	132.61
821.305	130.56
821.483	75.26
821.661	134.65
821.839	99.84
822.017	73.21
822.195	105.98
822.373	181.76
822.551	62.98
822.729	179.71
822.907	142.85
823.085	169.47
823.262	54.78
823.44	142.85
823.618	77.31
823.796	120.32
823.974	126.46
824.152	73.21
824.329	83.45
824.507	48.64
824.685	165.37
824.863	65.02
825.04	81.41
825.218	163.33
825.396	114.17
825.574	124.41
825.751	91.65
825.929	136.7
826.107	105.98
826.284	99.84
826.462	144.89
826.639	116.22
826.817	71.17
826.994	136.7
827.172	144.89
827.349	218.62
827.527	79.36
827.704	32.26
827.882	114.17
828.059	169.47
828.237	101.89
828.414	144.89
828.591	132.61
828.769	114.17
828.946	138.75
829.124	89.6
829.301	126.46
829.478	146.94
829.655	108.03
829.833	105.98
830.01	95.74
830.187	151.04
830.364	192
830.542	153.09
830.719	112.13
830.896	40.45
831.073	134.65
831.25	128.51
831.427	122.37
831.604	114.17
831.782	36.35
831.959	105.98
832.136	105.98
832.313	91.65
832.49	108.03
832.667	105.98
832.844	103.93
833.021	97.79
833.198	103.93
833.374	93.69
833.551	75.26
833.728	81.41
833.905	99.84
834.082	91.65
834.259	46.59
834.436	97.79
834.612	103.93
834.789	65.02
834.966	71.17
835.143	175.61
835.319	50.69
835.496	101.89
835.673	62.98
835.85	87.55
836.026	116.22
836.203	58.88
836.38	136.7
836.556	52.74
836.733	50.69
836.909	108.03
837.086	103.93
837.262	-2.56
837.439	69.12
837.616	101.89
837.792	62.98
837.968	44.54
838.145	1.54
838.321	62.98
838.498	73.21
838.674	130.56
838.851	99.84
839.027	60.93
839.203	73.21
839.38	52.74
839.556	73.21
839.732	93.69
839.909	34.3
840.085	46.59
840.261	36.35
840.437	54.78
840.614	50.69
840.79	67.07
840.966	83.45
841.142	79.36
841.318	73.21
841.494	60.93
841.671	132.61
841.847	26.11
842.023	22.02
842.199	85.5
842.375	40.45
842.551	3.58
842.727	26.11
842.903	183.81
843.079	48.64
843.255	167.42
843.431	101.89
843.607	17.92
843.783	34.3
843.959	44.54
844.134	-0.51
844.31	132.61
844.486	89.6
844.662	48.64
844.838	36.35
845.013	138.75
845.189	50.69
845.365	77.31
845.541	73.21
845.716	40.45
845.892	83.45
846.068	40.45
846.244	7.68
846.419	101.89
846.595	65.02
846.77	65.02
846.946	114.17
847.122	5.63
847.297	108.03
847.473	38.4
847.648	28.16
847.824	112.13
847.999	58.88
848.175	58.88
848.35	42.5
848.526	65.02
848.701	28.16
848.876	79.36
849.052	95.74
849.227	116.22
849.403	130.56
849.578	19.97
849.753	-41.47
849.929	48.64
850.104	-0.51
850.279	26.11
850.454	-4.61
850.63	87.55
850.805	56.83
850.98	87.55
851.155	40.45
851.33	118.27
851.505	3.58
851.681	89.6
851.856	75.26
852.031	62.98
852.206	-27.14
852.381	46.59
852.556	36.35
852.731	71.17
852.906	9.73
853.081	122.37
853.256	19.97
853.431	58.88
853.606	-0.51
853.781	26.11
853.956	26.11
854.131	38.4
854.305	58.88
854.48	46.59
854.655	-2.56
854.83	40.45
855.005	24.06
855.18	-47.62
855.354	-12.8
855.529	46.59
855.704	60.93
855.879	38.4
856.053	40.45
856.228	42.5
856.403	11.78
856.577	54.78
856.752	22.02
856.926	15.87
857.101	19.97
857.276	24.06
857.45	46.59
857.625	62.98
857.799	9.73
857.974	91.65
858.148	108.03
858.323	5.63
858.497	77.31
858.672	19.97
858.846	-51.71
859.02	40.45
859.195	-43.52
859.369	65.02
859.543	62.98
859.718	-2.56
859.892	17.92
860.066	71.17
860.241	-23.04
860.415	30.21
860.589	22.02
860.763	44.54
860.938	50.69
861.112	58.88
861.286	-12.8
861.46	56.83
861.634	36.35
861.808	44.54
861.982	22.02
862.157	73.21
862.331	22.02
862.505	26.11
862.679	28.16
862.853	120.32
863.027	48.64
863.201	91.65
863.375	19.97
863.549	73.21
863.722	44.54
863.896	85.5
864.07	89.6
864.244	26.11
864.418	30.21
864.592	97.79
864.766	85.5
864.939	71.17
865.113	24.06
865.287	22.02
865.461	48.64
865.634	36.35
865.808	-0.51
865.982	52.74
866.156	-90.62
866.329	13.82
866.503	67.07
866.676	13.82
866.85	38.4
867.024	26.11
867.197	93.69
867.371	79.36
867.544	30.21
867.718	44.54
867.891	9.73
868.065	24.06
868.238	9.73
868.412	79.36
868.585	15.87
868.759	-4.61
868.932	46.59
869.105	50.69
869.279	54.78
869.452	-33.28
869.625	73.21
869.799	32.26
869.972	-12.8
870.145	85.5
870.319	54.78
870.492	1.54
870.665	-27.14
870.838	65.02
871.011	-12.8
871.185	62.98
871.358	28.16
871.531	42.5
871.704	-61.95
871.877	95.74
872.05	44.54
872.223	-12.8
872.396	77.31
872.569	-14.85
872.742	22.02
872.915	58.88
873.088	-25.09
873.261	-4.61
873.434	81.41
873.607	19.97
873.78	71.17
873.953	34.3
874.126	48.64
874.299	42.5
874.471	-23.04
874.644	19.97
874.817	36.35
874.99	46.59
875.163	38.4
875.335	67.07
875.508	-27.14
875.681	56.83
875.853	85.5
876.026	85.5
876.199	75.26
876.371	79.36
876.544	38.4
876.717	26.11
876.889	44.54
877.062	1.54
877.234	-92.67
877.407	110.08
877.579	50.69
877.752	-27.14
877.924	-31.23
878.097	-0.51
878.269	1.54
878.442	44.54
878.614	28.16
878.786	-25.09
878.959	-25.09
879.131	32.26
879.303	44.54
879.476	-33.28
879.648	103.93
879.82	50.69
879.993	48.64
880.165	7.68
880.337	15.87
880.509	24.06
880.681	97.79
880.854	-10.75
881.026	46.59
881.198	32.26
881.37	26.11
881.542	19.97
881.714	71.17
881.886	36.35
882.058	32.26
882.23	40.45
882.402	50.69
882.574	89.6
882.746	19.97
882.918	26.11
883.09	54.78
883.262	22.02
883.434	48.64
883.606	116.22
883.778	58.88
883.95	-20.99
884.122	26.11
884.293	48.64
884.465	22.02
884.637	3.58
884.809	5.63
884.98	75.26
885.152	-10.75
885.324	97.79
885.496	30.21
885.667	17.92
885.839	73.21
886.011	32.26
886.182	17.92
886.354	-35.33
886.525	50.69
886.697	-23.04
886.869	-80.38
887.04	3.58
887.212	54.78
887.383	65.02
887.555	-16.9
887.726	81.41
887.897	26.11
888.069	79.36
888.24	36.35
888.412	42.5
888.583	5.63
888.754	34.3
888.926	-16.9
889.097	38.4
889.268	9.73
889.44	-14.85
889.611	-35.33
889.782	17.92
889.953	50.69
890.125	73.21
890.296	34.3
890.467	52.74
890.638	-29.18
890.809	24.06
890.98	-20.99
891.151	24.06
891.323	40.45
891.494	1.54
891.665	-23.04
891.836	50.69
892.007	-2.56
892.178	17.92
892.349	9.73
892.52	-29.18
892.691	60.93
892.862	28.16
893.032	-37.38
893.203	34.3
893.374	30.21
893.545	-12.8
893.716	1.54
893.887	62.98
894.057	34.3
894.228	9.73
894.399	-12.8
894.57	40.45
894.74	13.82
894.911	44.54
895.082	62.98
895.253	24.06
895.423	9.73
895.594	46.59
895.764	30.21
895.935	79.36
896.106	9.73
896.276	-6.66
896.447	-16.9
896.617	-41.47
896.788	32.26
896.958	38.4
897.129	-14.85
897.299	-31.23
897.47	77.31
897.64	9.73
897.81	30.21
897.981	36.35
898.151	32.26
898.322	7.68
898.492	24.06
898.662	-6.66
898.832	15.87
899.003	-8.7
899.173	-20.99
899.343	-20.99
899.513	3.58
