Data from USB4F104151__47__12-36-06-538.txt Node

Date: Fri Mar 14 12:36:06 EDT 2025
User: louis
Spectrometer: USB4F10415
Trigger mode: 4
Integration Time (sec): 2.000000E-2
Scans to average: 1
Electric dark correction enabled: true
Nonlinearity correction enabled: false
Boxcar width: 0
XAxis mode: Wavelengths
Number of Pixels in Spectrum: 3648
>>>>>Begin Spectral Data<<<<<
178.204	-48.64
178.424	-48.64
178.644	-48.64
178.864	-50.69
179.084	-17.92
179.304	-7.68
179.524	35.33
179.744	-3.58
179.964	4.61
180.184	-3.58
180.404	-13.82
180.624	-62.98
180.844	-26.11
181.064	-28.16
181.283	45.57
181.503	20.99
181.723	39.42
181.943	-5.63
182.163	2.56
182.383	70.14
182.602	25.09
182.822	23.04
183.042	31.23
183.262	0.51
183.482	16.9
183.701	-5.63
183.921	25.09
184.141	-60.93
184.361	51.71
184.58	6.66
184.8	23.04
185.02	2.56
185.239	23.04
185.459	25.09
185.679	10.75
185.898	-58.88
186.118	43.52
186.338	20.99
186.557	-5.63
186.777	6.66
186.997	100.86
187.216	2.56
187.436	0.51
187.655	18.94
187.875	2.56
188.095	12.8
188.314	82.43
188.534	29.18
188.753	10.75
188.973	43.52
189.192	47.62
189.412	-15.87
189.631	37.38
189.851	-28.16
190.07	39.42
190.29	-32.26
190.509	-32.26
190.729	25.09
190.948	80.38
191.168	37.38
191.387	37.38
191.607	25.09
191.826	-56.83
192.045	-13.82
192.265	14.85
192.484	-28.16
192.704	-1.54
192.923	2.56
193.142	76.29
193.362	29.18
193.581	64
193.8	70.14
194.02	80.38
194.239	68.09
194.458	100.86
194.678	14.85
194.897	-19.97
195.116	-11.78
195.335	66.05
195.555	-32.26
195.774	16.9
195.993	20.99
196.212	-17.92
196.432	66.05
196.651	25.09
196.87	-7.68
197.089	90.62
197.308	53.76
197.528	74.24
197.747	2.56
197.966	23.04
198.185	8.7
198.404	-50.69
198.623	-15.87
198.842	-71.17
199.062	-15.87
199.281	-30.21
199.5	-24.06
199.719	43.52
199.938	82.43
200.157	64
200.376	88.57
200.595	14.85
200.814	39.42
201.033	2.56
201.252	-3.58
201.471	59.9
201.69	80.38
201.909	27.14
202.128	70.14
202.347	-9.73
202.566	-62.98
202.785	-13.82
203.004	-17.92
203.223	10.75
203.442	-30.21
203.661	78.33
203.879	53.76
204.098	25.09
204.317	-11.78
204.536	-46.59
204.755	84.48
204.974	39.42
205.193	35.33
205.411	18.94
205.63	-5.63
205.849	68.09
206.068	59.9
206.287	123.39
206.505	84.48
206.724	-15.87
206.943	33.28
207.162	25.09
207.381	-13.82
207.599	-7.68
207.818	-15.87
208.037	-17.92
208.255	8.7
208.474	25.09
208.693	33.28
208.911	-1.54
209.13	-5.63
209.349	-7.68
209.567	55.81
209.786	35.33
210.005	-36.35
210.223	6.66
210.442	-19.97
210.661	61.95
210.879	18.94
211.098	14.85
211.316	66.05
211.535	107.01
211.753	-50.69
211.972	-11.78
212.191	29.18
212.409	31.23
212.628	6.66
212.846	45.57
213.065	66.05
213.283	92.67
213.502	-3.58
213.72	78.33
213.938	33.28
214.157	35.33
214.375	45.57
214.594	39.42
214.812	25.09
215.031	37.38
215.249	18.94
215.467	86.53
215.686	-22.02
215.904	-9.73
216.122	80.38
216.341	18.94
216.559	72.19
216.778	57.86
216.996	51.71
217.214	23.04
217.432	-32.26
217.651	64
217.869	-9.73
218.087	16.9
218.306	135.68
218.524	29.18
218.742	-19.97
218.96	66.05
219.179	33.28
219.397	4.61
219.615	-15.87
219.833	66.05
220.051	-17.92
220.27	59.9
220.488	16.9
220.706	27.14
220.924	37.38
221.142	35.33
221.36	31.23
221.578	72.19
221.796	16.9
222.015	84.48
222.233	20.99
222.451	107.01
222.669	23.04
222.887	-9.73
223.105	37.38
223.323	80.38
223.541	18.94
223.759	76.29
223.977	35.33
224.195	66.05
224.413	86.53
224.631	18.94
224.849	51.71
225.067	6.66
225.285	53.76
225.503	-13.82
225.721	-32.26
225.939	64
226.157	10.75
226.375	92.67
226.592	-3.58
226.81	49.66
227.028	49.66
227.246	8.7
227.464	49.66
227.682	78.33
227.9	78.33
228.117	74.24
228.335	0.51
228.553	53.76
228.771	55.81
228.989	-7.68
229.206	-1.54
229.424	33.28
229.642	70.14
229.86	23.04
230.077	37.38
230.295	76.29
230.513	27.14
230.731	96.77
230.948	23.04
231.166	29.18
231.384	61.95
231.601	31.23
231.819	96.77
232.037	-11.78
232.254	31.23
232.472	-42.5
232.689	31.23
232.907	86.53
233.125	-46.59
233.342	-85.5
233.56	4.61
233.777	2.56
233.995	31.23
234.213	49.66
234.43	-3.58
234.648	18.94
234.865	-34.3
235.083	31.23
235.3	92.67
235.518	47.62
235.735	20.99
235.953	14.85
236.17	-3.58
236.388	-13.82
236.605	14.85
236.822	78.33
237.04	4.61
237.257	-7.68
237.475	-17.92
237.692	35.33
237.909	20.99
238.127	41.47
238.344	57.86
238.562	45.57
238.779	-42.5
238.996	16.9
239.214	20.99
239.431	43.52
239.648	27.14
239.865	41.47
240.083	25.09
240.3	12.8
240.517	-5.63
240.735	14.85
240.952	84.48
241.169	37.38
241.386	53.76
241.603	33.28
241.821	41.47
242.038	51.71
242.255	31.23
242.472	-58.88
242.689	68.09
242.907	109.05
243.124	29.18
243.341	82.43
243.558	14.85
243.775	51.71
243.992	70.14
244.209	59.9
244.426	35.33
244.643	51.71
244.86	-9.73
245.078	35.33
245.295	23.04
245.512	25.09
245.729	-28.16
245.946	12.8
246.163	0.51
246.38	-13.82
246.597	33.28
246.814	51.71
247.031	35.33
247.248	-22.02
247.464	64
247.681	18.94
247.898	-50.69
248.115	41.47
248.332	-13.82
248.549	31.23
248.766	12.8
248.983	86.53
249.2	0.51
249.417	107.01
249.633	45.57
249.85	47.62
250.067	-38.4
250.284	-5.63
250.501	53.76
250.717	49.66
250.934	-62.98
251.151	12.8
251.368	74.24
251.585	-73.21
251.801	-17.92
252.018	-30.21
252.235	-24.06
252.451	-17.92
252.668	-5.63
252.885	76.29
253.102	-13.82
253.318	64
253.535	-26.11
253.752	18.94
253.968	4.61
254.185	-52.74
254.401	-17.92
254.618	-5.63
254.835	8.7
255.051	115.2
255.268	-22.02
255.484	10.75
255.701	29.18
255.917	14.85
256.134	33.28
256.351	27.14
256.567	-11.78
256.784	72.19
257	39.42
257.217	41.47
257.433	35.33
257.65	57.86
257.866	25.09
258.082	10.75
258.299	68.09
258.515	20.99
258.732	14.85
258.948	-7.68
259.165	25.09
259.381	16.9
259.597	10.75
259.814	37.38
260.03	-1.54
260.246	2.56
260.463	23.04
260.679	100.86
260.895	-54.78
261.112	102.91
261.328	125.44
261.544	43.52
261.761	88.57
261.977	-9.73
262.193	0.51
262.409	-42.5
262.626	16.9
262.842	8.7
263.058	45.57
263.274	10.75
263.49	-5.63
263.707	45.57
263.923	39.42
264.139	25.09
264.355	59.9
264.571	4.61
264.787	64
265.004	61.95
265.22	10.75
265.436	-17.92
265.652	55.81
265.868	-19.97
266.084	-26.11
266.3	20.99
266.516	-17.92
266.732	23.04
266.948	39.42
267.164	27.14
267.38	49.66
267.596	59.9
267.812	20.99
268.028	82.43
268.244	-38.4
268.46	18.94
268.676	82.43
268.892	57.86
269.108	-50.69
269.324	-7.68
269.54	47.62
269.756	2.56
269.972	4.61
270.188	70.14
270.403	-19.97
270.619	47.62
270.835	8.7
271.051	57.86
271.267	-15.87
271.483	12.8
271.698	59.9
271.914	-17.92
272.13	57.86
272.346	0.51
272.562	0.51
272.777	-5.63
272.993	80.38
273.209	53.76
273.425	-46.59
273.64	94.72
273.856	47.62
274.072	55.81
274.287	4.61
274.503	29.18
274.719	-22.02
274.934	6.66
275.15	41.47
275.366	53.76
275.581	8.7
275.797	84.48
276.012	8.7
276.228	43.52
276.444	-3.58
276.659	135.68
276.875	76.29
277.09	-83.45
277.306	57.86
277.521	-50.69
277.737	39.42
277.952	49.66
278.168	-24.06
278.383	12.8
278.599	-3.58
278.814	4.61
279.03	43.52
279.245	55.81
279.461	-7.68
279.676	55.81
279.892	64
280.107	8.7
280.322	-1.54
280.538	-19.97
280.753	18.94
280.969	37.38
281.184	43.52
281.399	53.76
281.615	-9.73
281.83	6.66
282.045	86.53
282.26	-11.78
282.476	10.75
282.691	49.66
282.906	14.85
283.122	-22.02
283.337	20.99
283.552	64
283.767	-22.02
283.983	8.7
284.198	88.57
284.413	-40.45
284.628	-3.58
284.843	82.43
285.058	70.14
285.274	23.04
285.489	-91.65
285.704	39.42
285.919	47.62
286.134	-26.11
286.349	23.04
286.564	2.56
286.779	70.14
286.995	74.24
287.21	-28.16
287.425	64
287.64	16.9
287.855	51.71
288.07	-26.11
288.285	6.66
288.5	-5.63
288.715	55.81
288.93	-56.83
289.145	20.99
289.36	61.95
289.575	23.04
289.79	-38.4
290.004	41.47
290.219	49.66
290.434	-3.58
290.649	-1.54
290.864	86.53
291.079	27.14
291.294	31.23
291.509	64
291.724	16.9
291.938	20.99
292.153	64
292.368	57.86
292.583	18.94
292.798	-36.35
293.012	18.94
293.227	59.9
293.442	12.8
293.657	-17.92
293.871	-7.68
294.086	6.66
294.301	86.53
294.516	33.28
294.73	92.67
294.945	14.85
295.16	53.76
295.374	43.52
295.589	64
295.804	-19.97
296.018	49.66
296.233	98.81
296.447	29.18
296.662	49.66
296.877	45.57
297.091	20.99
297.306	-40.45
297.52	25.09
297.735	57.86
297.949	104.96
298.164	74.24
298.378	16.9
298.593	12.8
298.807	-40.45
299.022	41.47
299.236	-42.5
299.451	41.47
299.665	111.1
299.88	53.76
300.094	70.14
300.309	39.42
300.523	82.43
300.737	84.48
300.952	8.7
301.166	20.99
301.381	45.57
301.595	35.33
301.809	-9.73
302.024	76.29
302.238	20.99
302.452	6.66
302.667	27.14
302.881	78.33
303.095	72.19
303.309	98.81
303.524	-9.73
303.738	16.9
303.952	2.56
304.166	-7.68
304.381	-46.59
304.595	37.38
304.809	-15.87
305.023	80.38
305.237	23.04
305.452	-3.58
305.666	70.14
305.88	104.96
306.094	59.9
306.308	53.76
306.522	37.38
306.736	86.53
306.95	43.52
307.164	29.18
307.379	43.52
307.593	35.33
307.807	72.19
308.021	127.49
308.235	6.66
308.449	0.51
308.663	8.7
308.877	31.23
309.091	10.75
309.305	53.76
309.519	12.8
309.733	49.66
309.947	-54.78
310.161	98.81
310.374	78.33
310.588	16.9
310.802	-24.06
311.016	61.95
311.23	98.81
311.444	37.38
311.658	31.23
311.872	33.28
312.085	49.66
312.299	72.19
312.513	70.14
312.727	76.29
312.941	-7.68
313.154	64
313.368	-30.21
313.582	66.05
313.796	90.62
314.009	8.7
314.223	43.52
314.437	113.15
314.651	25.09
314.864	-3.58
315.078	53.76
315.292	23.04
315.505	59.9
315.719	-1.54
315.933	-7.68
316.146	-5.63
316.36	-9.73
316.573	-48.64
316.787	37.38
317.001	8.7
317.214	12.8
317.428	35.33
317.641	68.09
317.855	29.18
318.068	-17.92
318.282	20.99
318.495	78.33
318.709	-34.3
318.922	39.42
319.136	20.99
319.349	23.04
319.563	14.85
319.776	-11.78
319.99	16.9
320.203	51.71
320.417	43.52
320.63	8.7
320.843	115.2
321.057	25.09
321.27	117.25
321.483	-3.58
321.697	18.94
321.91	18.94
322.124	68.09
322.337	2.56
322.55	14.85
322.763	41.47
322.977	-3.58
323.19	10.75
323.403	64
323.617	39.42
323.83	94.72
324.043	10.75
324.256	6.66
324.469	10.75
324.683	29.18
324.896	4.61
325.109	78.33
325.322	-3.58
325.535	90.62
325.748	82.43
325.962	16.9
326.175	-7.68
326.388	59.9
326.601	84.48
326.814	18.94
327.027	47.62
327.24	31.23
327.453	-7.68
327.666	4.61
327.879	35.33
328.092	84.48
328.305	82.43
328.518	41.47
328.731	-28.16
328.944	84.48
329.157	18.94
329.37	-13.82
329.583	84.48
329.796	39.42
330.009	-50.69
330.222	6.66
330.435	41.47
330.648	23.04
330.861	29.18
331.073	31.23
331.286	74.24
331.499	68.09
331.712	47.62
331.925	-9.73
332.138	53.76
332.35	-34.3
332.563	-9.73
332.776	102.91
332.989	18.94
333.202	20.99
333.414	68.09
333.627	49.66
333.84	66.05
334.053	18.94
334.265	-17.92
334.478	8.7
334.691	-5.63
334.903	55.81
335.116	16.9
335.329	74.24
335.541	18.94
335.754	61.95
335.966	66.05
336.179	2.56
336.392	64
336.604	49.66
336.817	4.61
337.029	84.48
337.242	-22.02
337.454	6.66
337.667	6.66
337.88	45.57
338.092	4.61
338.305	20.99
338.517	14.85
338.729	113.15
338.942	78.33
339.154	-3.58
339.367	37.38
339.579	129.53
339.792	53.76
340.004	37.38
340.217	23.04
340.429	88.57
340.641	84.48
340.854	94.72
341.066	-1.54
341.278	61.95
341.491	64
341.703	-11.78
341.915	82.43
342.128	39.42
342.34	80.38
342.552	102.91
342.764	23.04
342.977	92.67
343.189	25.09
343.401	35.33
343.613	59.9
343.826	47.62
344.038	20.99
344.25	27.14
344.462	98.81
344.674	59.9
344.886	-34.3
345.099	33.28
345.311	84.48
345.523	47.62
345.735	55.81
345.947	53.76
346.159	72.19
346.371	39.42
346.583	41.47
346.795	70.14
347.007	29.18
347.219	20.99
347.431	12.8
347.643	84.48
347.855	64
348.067	47.62
348.279	10.75
348.491	41.47
348.703	84.48
348.915	23.04
349.127	111.1
349.339	33.28
349.551	-30.21
349.763	55.81
349.975	53.76
350.187	64
350.399	45.57
350.61	37.38
350.822	27.14
351.034	43.52
351.246	-5.63
351.458	74.24
351.669	90.62
351.881	102.91
352.093	102.91
352.305	-28.16
352.517	37.38
352.728	115.2
352.94	27.14
353.152	47.62
353.363	14.85
353.575	43.52
353.787	47.62
353.999	49.66
354.21	162.3
354.422	-24.06
354.633	-38.4
354.845	-77.31
355.057	10.75
355.268	115.2
355.48	-24.06
355.692	6.66
355.903	4.61
356.115	8.7
356.326	2.56
356.538	23.04
356.749	68.09
356.961	61.95
357.172	2.56
357.384	4.61
357.595	88.57
357.807	51.71
358.018	20.99
358.23	8.7
358.441	64
358.653	107.01
358.864	-40.45
359.075	43.52
359.287	25.09
359.498	47.62
359.709	18.94
359.921	68.09
360.132	35.33
360.344	6.66
360.555	70.14
360.766	55.81
360.977	20.99
361.189	111.1
361.4	-13.82
361.611	49.66
361.823	86.53
362.034	145.92
362.245	8.7
362.456	160.25
362.667	18.94
362.879	88.57
363.09	-5.63
363.301	82.43
363.512	37.38
363.723	6.66
363.935	61.95
364.146	104.96
364.357	10.75
364.568	31.23
364.779	-19.97
364.99	94.72
365.201	-11.78
365.412	74.24
365.623	-7.68
365.834	70.14
366.045	27.14
366.256	45.57
366.467	90.62
366.678	131.58
366.889	8.7
367.1	49.66
367.311	47.62
367.522	2.56
367.733	20.99
367.944	57.86
368.155	16.9
368.366	141.82
368.577	37.38
368.788	88.57
368.999	74.24
369.209	66.05
369.42	166.4
369.631	31.23
369.842	90.62
370.053	23.04
370.264	104.96
370.474	57.86
370.685	12.8
370.896	68.09
371.107	49.66
371.317	104.96
371.528	92.67
371.739	59.9
371.95	104.96
372.16	78.33
372.371	-3.58
372.582	37.38
372.792	61.95
373.003	84.48
373.214	23.04
373.424	25.09
373.635	12.8
373.846	111.1
374.056	72.19
374.267	31.23
374.477	80.38
374.688	6.66
374.898	-5.63
375.109	16.9
375.319	10.75
375.53	-36.35
375.74	-26.11
375.951	143.87
376.161	66.05
376.372	14.85
376.582	-36.35
376.793	53.76
377.003	37.38
377.214	68.09
377.424	96.77
377.635	66.05
377.845	35.33
378.055	49.66
378.266	49.66
378.476	68.09
378.686	47.62
378.897	109.05
379.107	29.18
379.317	94.72
379.528	6.66
379.738	66.05
379.948	107.01
380.158	100.86
380.369	-7.68
380.579	74.24
380.789	109.05
380.999	121.34
381.21	88.57
381.42	74.24
381.63	-32.26
381.84	70.14
382.05	47.62
382.261	39.42
382.471	57.86
382.681	0.51
382.891	129.53
383.101	72.19
383.311	27.14
383.521	29.18
383.731	88.57
383.941	47.62
384.151	51.71
384.361	41.47
384.571	18.94
384.781	49.66
384.991	76.29
385.201	113.15
385.411	27.14
385.621	51.71
385.831	57.86
386.041	-9.73
386.251	64
386.461	72.19
386.671	27.14
386.881	78.33
387.091	-30.21
387.301	59.9
387.511	-15.87
387.72	100.86
387.93	92.67
388.14	33.28
388.35	55.81
388.56	41.47
388.769	109.05
388.979	84.48
389.189	39.42
389.399	12.8
389.609	53.76
389.818	86.53
390.028	109.05
390.238	41.47
390.447	88.57
390.657	113.15
390.867	78.33
391.076	14.85
391.286	102.91
391.496	127.49
391.705	125.44
391.915	4.61
392.125	43.52
392.334	115.2
392.544	70.14
392.753	66.05
392.963	29.18
393.172	82.43
393.382	90.62
393.591	53.76
393.801	35.33
394.01	98.81
394.22	127.49
394.429	119.29
394.639	23.04
394.848	88.57
395.058	72.19
395.267	2.56
395.477	154.11
395.686	131.58
395.895	94.72
396.105	131.58
396.314	107.01
396.524	129.53
396.733	57.86
396.942	111.1
397.152	102.91
397.361	61.95
397.57	64
397.78	74.24
397.989	143.87
398.198	152.06
398.407	43.52
398.617	12.8
398.826	51.71
399.035	135.68
399.244	147.97
399.453	78.33
399.663	154.11
399.872	90.62
400.081	74.24
400.29	150.01
400.499	109.05
400.708	64
400.917	64
401.127	123.39
401.336	168.45
401.545	139.77
401.754	152.06
401.963	195.07
402.172	147.97
402.381	59.9
402.59	211.45
402.799	137.73
403.008	170.49
403.217	94.72
403.426	164.35
403.635	94.72
403.844	98.81
404.053	107.01
404.262	156.16
404.471	129.53
404.68	209.4
404.888	178.69
405.097	172.54
405.306	213.5
405.515	193.02
405.724	203.26
405.933	211.45
406.142	117.25
406.35	150.01
406.559	156.16
406.768	215.55
406.977	270.84
407.185	260.6
407.394	164.35
407.603	201.21
407.812	238.08
408.02	250.36
408.229	215.55
408.438	197.12
408.646	209.4
408.855	248.32
409.064	276.99
409.272	215.55
409.481	352.76
409.69	356.86
409.898	367.1
410.107	309.76
410.315	363
410.524	299.52
410.733	426.49
410.941	354.81
411.15	346.62
411.358	446.97
411.567	455.16
411.775	385.53
411.984	395.77
412.192	451.07
412.401	455.16
412.609	440.83
412.818	526.84
413.026	483.83
413.234	580.09
413.443	537.08
413.651	496.12
413.86	631.29
414.068	635.38
414.276	674.29
414.485	686.58
414.693	758.26
414.901	778.74
415.11	688.63
415.318	702.97
415.526	700.92
415.734	823.8
415.943	879.09
416.151	893.43
416.359	883.19
416.567	854.51
416.776	877.04
416.984	997.87
417.192	956.91
417.4	1040.88
417.608	1120.75
417.817	1071.6
418.025	1176.05
418.233	1241.58
418.441	1237.49
418.649	1196.53
418.857	1286.64
419.065	1417.71
419.273	1319.4
419.481	1505.77
419.689	1415.66
419.897	1468.91
420.105	1630.7
420.313	1642.98
420.521	1692.13
420.729	1673.7
420.937	1815.01
421.145	1862.12
421.353	1901.03
421.561	2036.19
421.769	2122.21
421.977	2171.36
422.185	2066.91
422.393	2265.57
422.601	2333.15
422.809	2353.63
423.017	2406.88
423.224	2451.93
423.432	2662.87
423.64	2712.02
423.848	2904.53
424.056	2718.17
424.263	3023.31
424.471	3011.03
424.679	2906.58
424.887	3142.1
425.094	3273.17
425.302	3371.47
425.51	3492.3
425.718	3604.94
425.925	3596.75
426.133	3713.48
426.341	3955.14
426.548	4102.59
426.756	4057.54
426.964	4131.26
427.171	4362.69
427.379	4616.63
427.586	4508.09
427.794	4682.17
428.001	4919.73
428.209	5183.92
428.417	5015.99
428.624	5370.29
428.832	5468.59
429.039	5448.11
429.247	5327.28
429.454	5843.37
429.662	6218.15
429.869	5859.75
430.076	6283.68
430.284	6238.62
430.491	6465.95
430.699	6775.19
430.906	6580.64
431.114	6945.17
431.321	7037.33
431.528	7256.47
431.736	7606.67
431.943	8133
432.15	7760.27
432.358	7924.1
432.565	8296.83
432.772	8257.92
432.979	8825.21
433.187	8913.27
433.394	9056.63
433.601	9529.71
433.808	9507.18
434.016	9488.75
434.223	9916.78
434.43	10594.65
434.637	10260.84
434.844	10959.19
435.052	10996.06
435.259	11252.05
435.466	11182.42
435.673	11030.87
435.88	11919.69
436.087	12429.63
436.294	12728.64
436.501	12048.71
436.708	12595.52
436.915	12945.72
437.122	13234.49
437.329	13113.66
437.537	13871.4
437.743	14086.44
437.95	13971.75
438.157	14639.39
438.364	15300.89
438.571	14981.4
438.778	14999.84
438.985	16505.09
439.192	15784.21
439.399	16533.76
439.606	16068.87
439.813	16916.73
440.02	18045.16
440.227	17633.52
440.433	17570.04
440.64	18049.26
440.847	17891.57
441.054	18505.96
441.261	19552.47
441.467	19415.26
441.674	19765.46
441.881	20447.43
442.088	20680.9
442.294	20267.21
442.501	20734.15
442.708	21182.65
442.914	22192.3
443.121	23001.25
443.328	22393
443.534	24412.3
443.741	23208.09
443.948	23394.46
444.154	24586.38
444.361	24819.85
444.568	24823.94
444.774	24770.69
444.981	25335.93
445.187	25913.46
445.394	26581.1
445.6	26431.6
445.807	29071.43
446.013	28022.87
446.22	28500.05
446.426	29476.93
446.633	29839.42
446.839	30634.03
447.046	29544.51
447.252	31410.21
447.459	30902.31
447.665	31107.11
447.871	32626.7
448.078	33892.35
448.284	32172.05
448.491	33331.2
448.697	34627.57
448.903	35082.22
449.11	35313.64
449.316	34836.46
449.522	35186.66
449.728	36468.69
449.935	36653.01
450.141	36618.19
450.347	37570.5
450.553	36274.13
450.76	36786.13
450.966	37959.61
451.172	37664.71
451.378	38444.98
451.584	37709.76
451.791	38903.73
451.997	38664.11
452.203	39270.31
452.409	39366.57
452.615	38983.6
452.821	37705.66
453.027	37603.27
453.233	39079.85
453.44	37846.97
453.646	38354.87
453.852	38614.96
454.058	39294.89
454.264	37826.49
454.47	38879.15
454.676	37652.42
454.882	39368.62
455.088	35803.1
455.294	36304.85
455.5	36657.1
455.705	37148.62
455.911	35586.02
456.117	34881.52
456.323	34328.56
456.529	32602.13
456.735	34195.45
456.941	33394.69
457.147	32909.32
457.352	31676.44
457.558	31535.13
457.764	31639.58
457.97	31191.08
458.176	30451.76
458.381	30119.99
458.587	28932.17
458.793	28797
458.999	27459.68
459.204	29431.87
459.41	28797
459.616	26634.35
459.821	26775.66
460.027	26806.37
460.233	26085.49
460.438	24664.2
460.644	24983.68
460.85	23851.16
461.055	23160.99
461.261	23546.01
461.466	21702.84
461.672	21346.49
461.878	22696.1
462.083	21059.77
462.289	20695.24
462.494	20492.49
462.7	19452.12
462.905	19261.66
463.111	19781.84
463.316	19984.59
463.522	19511.51
463.727	19486.93
463.932	19597.52
464.138	18997.47
464.343	19208.41
464.549	18415.85
464.754	19407.06
464.959	18960.61
465.165	19015.9
465.37	18065.64
465.575	17866.99
465.781	18534.63
465.986	18555.11
466.191	17957.1
466.397	17336.57
466.602	16777.47
466.807	17094.91
467.012	17408.25
467.218	17142.01
467.423	17178.87
467.628	17078.52
467.833	17783.02
468.038	17144.06
468.244	16615.68
468.449	17404.15
468.654	16668.93
468.859	16840.96
469.064	16578.82
469.269	16011.53
469.474	15974.67
469.679	16152.84
469.885	15847.69
470.09	16009.48
470.295	15667.47
470.5	15485.2
470.705	15743.25
470.91	15139.1
471.115	15087.9
471.32	15386.9
471.525	15274.26
471.73	15091.99
471.935	15051.03
472.139	14395.68
472.344	14715.17
472.549	14594.34
472.754	14405.92
472.959	14049.58
473.164	13781.29
473.369	13748.53
473.574	13955.37
473.778	14037.29
473.983	13711.66
474.188	13631.79
474.393	13263.16
474.598	13269.3
474.802	13001.02
475.007	12736.83
475.212	12966.2
475.417	12484.93
475.621	12421.44
475.826	12671.29
476.031	12257.6
476.235	11972.94
476.44	12206.41
476.645	12028.23
476.849	11981.13
477.054	11917.64
477.259	11567.44
477.463	11802.96
477.668	11477.33
477.872	11512.14
478.077	11362.64
478.282	11034.97
478.486	10856.79
478.691	10914.14
478.895	10973.53
479.1	10856.79
479.304	10873.18
479.509	10568.03
479.713	10819.93
479.918	10611.04
480.122	10266.98
480.326	10398.05
480.531	10275.17
480.735	10420.58
480.94	10076.52
481.144	10586.46
481.348	9986.41
481.553	10328.42
481.757	9912.68
481.961	10107.24
482.166	10295.65
482.37	10287.46
482.574	10250.6
482.778	10314.08
482.983	10148.2
483.187	9937.26
483.391	10180.96
483.595	10041.7
483.8	9902.44
484.004	10017.13
484.208	10221.92
484.412	9986.41
484.616	10099.05
484.821	10025.32
485.025	9797.99
485.229	10144.1
485.433	9916.78
485.637	9949.54
485.841	10019.18
486.045	9914.73
486.249	9961.83
486.453	9838.95
486.657	9941.35
486.861	10090.85
487.065	9787.75
487.269	9785.71
487.473	9875.82
487.677	9865.58
487.881	10033.51
488.085	10008.94
488.289	10256.74
488.493	10105.19
488.697	9990.5
488.901	10127.72
489.105	10099.05
489.309	10346.85
489.512	10109.29
489.716	10086.76
489.92	9972.07
490.124	10002.79
490.328	10305.89
490.531	10187.11
490.735	10195.3
490.939	10430.82
491.143	10406.24
491.346	10402.15
491.55	10484.06
491.754	10422.62
491.958	10375.52
492.161	10387.81
492.365	10594.65
492.569	10512.74
492.772	10525.02
492.976	10697.05
493.18	10578.27
493.383	10983.77
493.587	10871.13
493.79	11012.44
493.994	10742.11
494.197	10912.09
494.401	11161.94
494.605	10912.09
494.808	11333.97
495.012	11333.97
495.215	11399.51
495.419	11356.5
495.622	11340.11
495.825	11522.38
496.029	11704.65
496.232	11790.67
496.436	11780.43
496.639	11997.51
496.843	12151.11
497.046	12249.41
497.249	12476.74
497.453	12550.46
497.656	12546.37
497.859	12652.86
498.063	12673.34
498.266	12970.3
498.469	12955.96
498.673	13168.95
498.876	13480.24
499.079	13728.05
499.282	13453.62
499.485	13840.68
499.689	13906.22
499.892	14094.63
500.095	14205.22
500.298	14539.04
500.501	14426.4
500.705	14866.72
500.908	14792.99
501.111	14829.85
501.314	15048.99
501.517	15304.98
501.72	15507.73
501.923	15436.05
502.126	15962.38
502.329	15911.18
502.532	16027.92
502.735	16105.74
502.938	16611.59
503.141	16492.8
503.344	16988.41
503.547	16871.68
503.75	17082.62
503.953	17598.71
504.156	17688.82
504.359	17916.14
504.562	17717.49
504.765	18372.84
504.968	18516.2
505.17	18628.84
505.373	18847.97
505.576	19458.26
505.779	19196.12
505.982	19511.51
506.185	19900.62
506.387	19980.5
506.59	19957.97
506.793	20523.21
506.996	20506.82
507.198	20961.47
507.401	20732.1
507.604	21049.53
507.807	21495.99
508.009	21934.26
508.212	21786.8
508.415	22063.28
508.617	22354.09
508.82	22710.44
509.022	22382.76
509.225	23081.12
509.428	23142.56
509.63	23343.26
509.833	23582.87
510.035	24072.34
510.238	23969.94
510.44	24305.81
510.643	24840.32
510.845	24854.66
511.048	25286.78
511.25	25649.27
511.453	25182.34
511.655	26558.57
511.858	26210.42
512.06	26441.84
512.262	26660.97
512.465	26595.43
512.667	27388
512.87	27754.58
513.072	27820.12
513.274	28196.95
513.477	28422.22
513.679	28833.86
513.881	29153.35
514.084	29057.09
514.286	29274.18
514.488	29642.81
514.69	30492.72
514.893	30251.06
515.095	30861.35
515.297	31014.95
515.499	31060.01
515.701	31541.28
515.904	32165.91
516.106	31969.3
516.308	32471.06
516.51	33064.97
516.712	32700.43
516.914	33210.37
517.116	33806.33
517.318	33959.93
517.52	34088.95
517.722	34430.96
517.925	34734.06
518.127	34996.2
518.329	35477.47
518.531	35459.04
518.733	35983.32
518.935	36378.58
519.136	36413.4
519.338	36915.15
519.54	37066.7
519.742	37224.39
519.944	37265.35
520.146	38150.07
520.348	38623.15
520.55	38490.04
520.752	38700.98
520.954	39364.52
521.155	39704.48
521.357	39954.33
521.559	40130.46
521.761	40949.65
521.963	40388.5
522.164	40923.02
522.366	41111.44
522.568	41469.83
522.77	41654.15
522.971	42221.44
523.173	41957.25
523.375	42465.14
523.576	42573.69
523.778	42129.28
523.98	42989.42
524.181	42891.12
524.383	43214.7
524.584	43741.03
524.786	43906.91
524.988	43999.07
525.189	44269.4
525.391	44226.4
525.592	44789.59
525.794	44992.34
525.995	44986.19
526.197	45213.52
526.398	45201.23
526.6	45868.87
526.801	45578.06
527.003	45561.67
527.204	46167.87
527.406	46550.84
527.607	46268.22
527.808	46516.03
528.01	46122.82
528.211	46159.68
528.412	46765.88
528.614	46968.63
528.815	46683.96
529.016	47544.11
529.218	46870.32
529.419	47105.84
529.62	47181.62
529.822	47060.79
530.023	47669.03
530.224	47122.22
530.425	47599.4
530.626	47003.44
530.828	46966.58
531.029	48697.11
531.23	47683.37
531.431	47757.1
531.632	47646.5
531.833	48076.58
532.035	47912.74
532.236	47464.24
532.437	47796.01
532.638	47669.03
532.839	47773.48
533.04	48215.84
533.241	47675.18
533.442	48287.52
533.643	47642.41
533.844	48070.43
534.045	48330.53
534.246	47533.87
534.447	48201.5
534.648	48009
534.849	47970.08
535.05	47679.27
535.251	48269.09
535.451	47781.67
535.652	47920.93
535.853	48015.14
536.054	48549.66
536.255	48338.72
536.456	47597.35
536.657	48240.42
536.857	47523.63
537.058	47613.74
537.259	48166.69
537.46	47521.58
537.66	47818.53
537.861	48066.34
538.062	47433.52
538.263	48056.1
538.463	47501.1
538.664	47243.06
538.865	47644.46
539.065	48217.89
539.266	47181.62
539.466	47828.77
539.667	46495.55
539.868	47542.06
540.068	47359.79
540.269	47609.64
540.469	47781.67
540.67	46999.35
540.87	47484.72
541.071	47093.55
541.271	47195.95
541.472	47134.51
541.672	47165.23
541.873	47253.29
542.073	46382.91
542.274	47435.56
542.474	46985.01
542.675	46853.94
542.875	46995.25
543.075	46843.7
543.276	46513.98
543.476	47302.45
543.676	46970.68
543.877	46952.24
544.077	47374.13
544.277	47042.35
544.478	46855.99
544.678	46882.61
544.878	46913.33
545.078	47093.55
545.279	46556.99
545.479	46516.03
545.679	47167.28
545.879	46694.2
546.079	46786.36
546.28	46729.01
546.48	46868.28
546.68	46538.55
546.88	46841.65
547.08	46747.45
547.28	46296.89
547.48	45891.4
547.68	46718.78
547.88	46712.63
548.081	46769.97
548.281	46640.95
548.481	46532.41
548.681	46962.48
548.881	46655.29
549.081	46526.27
549.28	46253.89
549.48	47087.41
549.68	46180.16
549.88	47173.42
550.08	46176.06
550.28	46665.53
550.48	46460.73
550.68	46755.64
550.88	46405.44
551.08	46057.28
551.279	46577.47
551.479	46124.86
551.679	46567.23
551.879	46520.12
552.079	46671.67
552.278	46251.84
552.478	46452.54
552.678	46278.46
552.878	46131.01
553.077	46663.48
553.277	45983.55
553.477	46847.8
553.676	46333.76
553.876	46481.21
554.076	46114.62
554.275	46270.27
554.475	46249.79
554.674	46192.45
554.874	46745.4
555.074	46468.92
555.273	46446.4
555.473	46468.92
555.672	45743.94
555.872	46333.76
556.071	46325.57
556.271	46208.83
556.47	46223.17
556.67	45596.49
556.869	45999.94
557.068	46446.4
557.268	45795.14
557.467	45977.41
557.667	46321.47
557.866	45745.99
558.065	46204.73
558.265	46008.13
558.464	45610.82
558.663	46278.46
558.863	45340.49
559.062	46149.44
559.261	45426.51
559.461	46155.58
559.66	45066.06
559.859	45406.03
560.058	45285.2
560.258	45645.64
560.457	45277.01
560.656	45432.65
560.855	45147.98
561.054	45295.44
561.253	44885.84
561.453	45334.35
561.652	45236.05
561.851	44980.05
562.05	44898.13
562.249	44754.77
562.448	45100.88
562.647	45231.95
562.846	44803.92
563.045	44795.73
563.244	44654.42
563.443	44963.67
563.642	44119.9
563.841	44668.76
564.04	44238.68
564.239	44891.99
564.438	43966.31
564.637	44513.11
564.836	44091.23
565.035	43726.69
565.234	43835.24
565.432	43687.78
565.631	43818.85
565.83	43724.64
566.029	43429.74
566.228	43267.95
566.427	43392.87
566.625	43364.2
566.824	43261.8
567.023	43128.69
567.222	42755.96
567.42	43353.96
567.619	43018.1
567.818	42952.56
568.016	42676.08
568.215	42897.27
568.414	42338.17
568.612	42530.68
568.811	42096.51
569.01	42567.54
569.208	42102.65
569.407	42305.4
569.605	41643.91
569.804	41990.02
570.002	41947.01
570.201	41801.6
570.4	41516.93
570.598	41015.18
570.797	41162.64
570.995	41326.47
571.193	40736.66
571.392	41437.06
571.59	40925.07
571.789	41308.04
571.987	40882.06
572.186	40533.91
572.384	40382.36
572.582	40945.55
572.781	40402.84
572.979	39909.28
573.177	40202.14
573.376	40335.26
573.574	39503.78
573.772	40146.84
573.971	39878.56
574.169	39565.22
574.367	39462.82
574.565	39622.56
574.763	39761.83
574.962	39436.2
575.16	38924.21
575.358	39024.56
575.556	38629.3
575.754	39258.02
575.952	38576.05
576.151	38938.54
576.349	38311.86
576.547	38485.94
576.745	38377.4
576.943	38455.22
577.141	37969.85
577.339	38166.46
577.537	38354.87
577.735	38143.93
577.933	37771.2
578.131	38041.53
578.329	37519.3
578.527	37230.54
578.725	37470.15
578.923	37582.79
579.121	37111.75
579.319	36505.55
579.516	37169.1
579.714	37126.09
579.912	36669.39
580.11	36456.4
580.308	36888.53
580.506	36511.7
580.704	35653.6
580.901	36493.27
581.099	36755.41
581.297	36220.89
581.495	35813.34
581.692	36214.74
581.89	35831.77
582.088	35921.88
582.285	35864.54
582.483	35878.88
582.681	35612.64
582.878	35737.57
583.076	35002.35
583.274	35477.47
583.471	34916.33
583.669	34985.96
583.866	34576.37
584.064	35067.88
584.262	34529.27
584.459	34748.4
584.657	34514.93
584.854	34781.17
585.052	33806.33
585.249	34390
585.447	34179.06
585.644	33765.37
585.841	33988.6
586.039	34308.08
586.236	33818.62
586.434	33470.47
586.631	33650.69
586.828	33406.98
587.026	33460.23
587.223	33835
587.42	33144.84
587.618	33527.81
587.815	32604.17
588.012	32735.24
588.21	32784.4
588.407	33046.54
588.604	32823.31
588.801	32565.26
588.999	32401.43
589.196	32407.57
589.393	32532.5
589.59	32514.06
589.787	32188.44
589.984	31664.16
590.182	31791.13
590.379	32143.38
590.576	31744.03
590.773	31938.58
590.97	31694.88
591.167	32006.17
591.364	31471.65
591.561	31547.42
591.758	31389.73
591.955	31021.09
592.152	31287.33
592.349	31361.06
592.546	31264.8
592.743	31184.93
592.94	31049.77
593.137	30941.22
593.334	30883.88
593.531	30271.54
593.727	30881.83
593.924	30828.59
594.121	30255.15
594.318	30576.69
594.515	30109.75
594.712	30484.53
594.908	30208.05
595.105	30158.9
595.302	29777.98
595.499	30537.77
595.696	29472.83
595.892	29782.07
596.089	29485.12
596.286	29624.38
596.482	29284.42
596.679	29612.09
596.876	29587.52
597.072	29284.42
597.269	29655.1
597.466	29087.81
597.662	29206.59
597.859	28971.08
598.055	29102.15
598.252	28827.72
598.448	28749.9
598.645	28573.77
598.841	28459.09
599.038	28516.43
599.234	28659.79
599.431	28158.03
599.627	28323.92
599.824	28491.85
600.02	28217.43
600.217	28317.78
600.413	28100.69
600.609	28168.27
600.806	27779.16
601.002	27877.46
601.198	27856.98
601.395	27234.4
601.591	27742.3
601.787	27635.8
601.984	27398.24
602.18	27578.46
602.376	27476.06
602.572	27113.57
602.769	27170.91
602.965	26964.07
603.161	27498.59
603.357	27097.19
603.553	27072.61
603.75	26755.18
603.946	26568.81
604.142	26620.01
604.338	26321.01
604.534	26454.12
604.73	26480.75
604.926	26361.97
605.122	26331.25
605.318	26255.47
605.514	26269.81
605.71	26091.63
605.906	25907.32
606.102	25565.31
606.298	25843.83
606.494	25901.17
606.69	25915.51
606.886	25987.19
607.082	25442.43
607.278	25579.64
607.474	25112.7
607.67	25510.01
607.866	25268.35
608.062	25612.41
608.257	25155.71
608.453	25538.68
608.649	25583.74
608.845	25010.31
609.041	25049.22
609.236	25370.75
609.432	24991.87
609.628	25016.45
609.824	24465.55
610.019	24672.39
610.215	24828.04
610.411	24862.85
610.606	24451.21
610.802	24623.24
610.998	24684.68
611.193	24604.81
611.389	24381.58
611.584	24318.09
611.78	23976.08
611.976	24367.24
612.171	24223.89
612.367	24135.82
612.562	24084.62
612.758	23715.99
612.953	23812.24
613.149	24262.8
613.344	23740.57
613.539	24189.07
613.735	24146.06
613.93	23885.97
614.126	23875.73
614.321	23986.32
614.517	24148.11
614.712	23595.16
614.907	23455.9
615.103	23679.13
615.298	23552.15
615.493	23627.93
615.688	23310.49
615.884	23531.67
616.079	23017.63
616.274	23500.95
616.47	23343.26
616.665	22929.57
616.86	23062.69
617.055	22880.42
617.25	22927.52
617.445	23249.05
617.641	22538.41
617.836	22941.86
618.031	22503.59
618.226	23011.49
618.421	22470.83
618.616	22524.07
618.811	22405.29
619.006	22626.47
619.201	21905.59
619.396	22089.9
619.591	21852.34
619.786	22085.81
619.981	21649.59
620.176	21846.19
620.371	21495.99
620.566	21641.4
620.761	21604.53
620.956	21661.88
621.151	21147.84
621.346	21534.9
621.541	20920.51
621.735	21020.86
621.93	20728
622.125	21057.73
622.32	20451.53
622.515	20803.78
622.709	20488.39
622.904	20269.26
623.099	20234.44
623.294	20265.16
623.488	19876.05
623.683	19706.07
623.878	19667.16
624.072	19796.18
624.267	19931.34
624.462	19687.64
624.656	19439.83
624.851	19282.14
625.046	19441.88
625.24	19316.95
625.435	18856.16
625.629	19050.72
625.824	18696.42
626.018	18794.72
626.213	18358.5
626.407	18483.43
626.602	18039.02
626.796	18368.74
626.991	18335.98
627.185	18227.43
627.38	17869.04
627.574	17973.49
627.768	18116.84
627.963	17856.75
628.157	17580.28
628.352	17662.19
628.546	17363.19
628.74	17469.69
628.935	17250.55
629.129	17355
629.323	17015.04
629.517	17031.42
629.712	16912.64
629.906	17047.8
630.1	16554.24
630.294	16650.5
630.489	16523.52
630.683	16324.87
630.877	16249.1
631.071	16247.05
631.265	16204.04
631.459	16156.94
631.653	16023.82
631.848	15948.04
632.042	16171.27
632.236	15939.85
632.43	15776.02
632.624	15466.77
632.818	15761.68
633.012	15491.35
633.206	15366.42
633.4	15268.12
633.594	14852.38
633.788	15259.93
633.982	15212.82
634.176	14985.5
634.369	14866.72
634.563	14860.57
634.757	14885.15
634.951	14580
635.145	14719.26
635.339	14813.47
635.533	14418.21
635.726	14436.64
635.92	14231.85
636.114	14147.88
636.308	13961.51
636.501	14287.14
636.695	14096.68
636.889	13816.11
637.083	13889.84
637.276	13709.61
637.47	13508.91
637.664	13549.87
637.857	13519.15
638.051	13404.47
638.244	13181.24
638.438	13156.66
638.632	13144.38
638.825	13072.7
639.019	13093.18
639.212	12849.47
639.406	12904.76
639.599	12839.23
639.793	12712.25
639.986	12738.88
640.18	12390.72
640.373	12550.46
640.567	12212.55
640.76	12495.17
640.954	12009.8
641.147	12187.97
641.34	12157.25
641.534	11927.88
641.727	12022.09
641.92	11972.94
642.114	11856.2
642.307	11493.71
642.5	11526.48
642.694	11272.53
642.887	11231.57
643.08	11438.42
643.273	11280.72
643.467	11129.17
643.66	11120.98
643.853	10973.53
644.046	11098.45
644.239	11155.8
644.432	10959.19
644.626	10926.43
644.819	10830.17
645.012	10805.6
645.205	10758.49
645.398	10576.22
645.591	10608.99
645.784	10475.87
645.977	10262.88
646.17	10223.97
646.363	10109.29
646.556	10154.34
646.749	10017.13
646.942	10113.38
647.135	9951.59
647.328	10131.81
647.521	9904.49
647.714	9593.2
647.907	9951.59
648.099	9793.9
648.292	9785.71
648.485	9683.31
648.678	9574.77
648.871	9562.48
649.064	9150.84
649.256	9550.19
649.449	9308.53
649.642	9154.93
649.835	9142.64
650.027	9032.05
650.22	9208.18
650.413	9030.01
650.605	8833.4
650.798	9038.2
650.991	8884.6
651.183	8767.87
651.376	8722.81
651.568	8827.26
651.761	8688
651.954	8589.69
652.146	8487.29
652.339	8384.9
652.531	8421.76
652.724	8372.61
652.916	8352.13
653.109	8233.35
653.301	8219.01
653.494	8262.02
653.686	8098.18
653.879	8307.07
654.071	8116.61
654.263	7993.73
654.456	8108.42
654.648	8001.93
654.84	7770.51
655.033	7844.23
655.225	7788.94
655.417	7715.21
655.61	7948.68
655.802	7604.62
655.994	7780.75
656.186	7573.9
656.379	7639.44
656.571	7512.46
656.763	7545.23
656.955	7448.97
657.148	7518.61
657.34	7278.99
657.532	7422.35
657.724	7365.01
657.916	7246.23
658.108	7160.21
658.3	7233.94
658.492	7068.05
658.684	7096.72
658.876	7080.34
659.068	7090.58
659.26	6750.62
659.452	6977.94
659.644	6963.61
659.836	6850.97
660.028	6883.73
660.22	6693.27
660.412	6635.93
660.604	6594.97
660.796	6744.47
660.988	6746.52
661.18	6478.24
661.372	6492.57
661.563	6660.51
661.755	6338.98
661.947	6449.57
662.139	6574.49
662.331	6308.26
662.522	6390.17
662.714	6316.45
662.906	6336.93
663.097	6341.02
663.289	6160.8
663.481	6160.8
663.673	6218.15
663.864	5921.19
664.056	5876.13
664.247	6140.32
664.439	5831.08
664.631	6054.31
664.822	6068.64
665.014	6021.54
665.205	5636.52
665.397	5910.95
665.588	5872.04
665.78	5863.85
665.971	5659.05
666.163	5628.33
666.354	5679.53
666.546	5452.2
666.737	5495.21
666.929	5446.06
667.12	5495.21
667.311	5468.59
667.503	5478.83
667.694	5669.29
667.885	5329.33
668.077	5472.68
668.268	5302.7
668.459	5384.62
668.651	5327.28
668.842	5343.66
669.033	5335.47
669.224	5181.87
669.416	5390.77
669.607	5104.05
669.798	5265.84
669.989	5200.3
670.18	5233.07
670.371	5179.82
670.563	5142.96
670.754	5179.82
670.945	5054.9
671.136	5112.24
671.327	5134.77
671.518	5018.04
671.709	4948.4
671.9	4917.68
672.091	5038.52
672.282	5020.08
672.473	4985.27
672.664	4970.93
672.855	4897.21
673.046	4901.3
673.237	5028.28
673.428	4932.02
673.619	4905.4
673.809	5054.9
674	4821.43
674.191	4903.35
674.382	4813.24
674.573	4909.49
674.764	4862.39
674.954	4813.24
675.145	4716.98
675.336	4858.29
675.527	4772.28
675.717	4708.79
675.908	4544.95
676.099	4893.11
676.289	4565.43
676.48	4805.05
676.671	4690.36
676.861	4807.09
677.052	4581.82
677.243	4647.35
677.433	4493.76
677.624	4657.59
677.814	4534.71
678.005	4536.76
678.195	4596.15
678.386	4569.53
678.576	4344.25
678.767	4682.17
678.957	4487.61
679.148	4659.64
679.338	4657.59
679.529	4499.9
679.719	4698.55
679.909	4606.39
680.1	4616.63
680.29	4473.28
680.481	4422.08
680.671	4532.67
680.861	4547
681.052	4596.15
681.242	4536.76
681.432	4524.47
681.622	4286.91
681.813	4485.56
682.003	4522.43
682.193	4487.61
682.383	4422.08
682.573	4458.94
682.764	4436.41
682.954	4616.63
683.144	4311.49
683.334	4481.47
683.524	4407.74
683.714	4628.92
683.904	4366.78
684.094	4432.32
684.284	4323.77
684.474	4510.14
684.664	4354.49
684.854	4415.93
685.044	4278.72
685.234	4319.68
685.424	4407.74
685.614	4344.25
685.804	4360.64
685.994	4411.84
686.184	4307.39
686.374	4399.55
686.564	4358.59
686.753	4229.57
686.943	4270.53
687.133	4358.59
687.323	4405.69
687.513	4297.15
687.702	4252.1
687.892	4217.28
688.082	4307.39
688.272	4278.72
688.461	4184.51
688.651	4272.57
688.841	4266.43
689.03	4096.45
689.22	4106.69
689.41	4186.56
689.599	4102.59
689.789	3961.28
689.979	4067.78
690.168	4131.26
690.358	4104.64
690.547	3930.56
690.737	4123.07
690.926	4116.93
691.116	4078.02
691.305	4018.63
691.495	4010.43
691.684	4067.78
691.874	4000.19
692.063	4006.34
692.252	4090.31
692.442	4086.21
692.631	3918.28
692.82	3969.48
693.01	4049.35
693.199	3975.62
693.388	3832.26
693.578	4012.48
693.767	3951.04
693.956	3938.76
694.146	3901.89
694.335	3869.12
694.524	3803.59
694.713	3994.05
694.902	3928.52
695.092	4000.19
695.281	3942.85
695.47	3871.17
695.659	3879.36
695.848	3858.89
696.037	3916.23
696.226	3852.74
696.415	3832.26
696.604	3828.17
696.793	3670.47
696.982	3887.56
697.171	3871.17
697.36	3760.58
697.549	3742.15
697.738	3776.97
697.927	3819.97
698.116	3776.97
698.305	3756.49
698.494	3693
698.683	3817.93
698.872	3637.7
699.061	3703.24
699.25	3682.76
699.438	3736.01
699.627	3815.88
699.816	3705.29
700.005	3789.25
700.193	3834.31
700.382	3834.31
700.571	3736.01
700.76	3680.71
700.948	3760.58
701.137	3682.76
701.326	3713.48
701.514	3731.91
701.703	3566.03
701.892	3693
702.08	3672.52
702.269	3738.05
702.457	3695.05
702.646	3615.18
702.834	3508.68
703.023	3660.23
703.212	3512.78
703.4	3819.97
703.589	3783.11
703.777	3629.51
703.965	3547.59
704.154	3506.63
704.342	3488.2
704.531	3541.45
704.719	3602.89
704.907	3424.72
705.096	3527.11
705.284	3541.45
705.472	3670.47
705.661	3580.36
705.849	3566.03
706.037	3553.74
706.226	3432.91
706.414	3307.98
706.602	3414.48
706.79	3336.65
706.979	3439.05
707.167	3463.63
707.355	3312.08
707.543	3482.06
707.731	3422.67
707.919	3375.56
708.107	3359.18
708.296	3328.46
708.484	3291.6
708.672	3342.8
708.86	3361.23
709.048	3373.52
709.236	3277.26
709.424	3365.32
709.612	3303.89
709.8	3430.86
709.988	3228.11
710.176	3152.34
710.364	3152.34
710.551	3346.89
710.739	3097.04
710.927	3097.04
711.115	3320.27
711.303	3129.81
711.491	3148.24
711.679	3170.77
711.866	3164.62
712.054	3138
712.242	3111.38
712.43	3283.41
712.617	3084.75
712.805	3109.33
712.993	3062.23
713.181	3109.33
713.368	3166.67
713.556	3043.79
713.744	2959.83
713.931	3078.61
714.119	3094.99
714.306	3090.9
714.494	3068.37
714.682	3058.13
714.869	2931.16
715.057	3072.47
715.244	2865.62
715.432	2998.74
715.619	3021.27
715.807	2945.49
715.994	3039.7
716.182	2931.16
716.369	2922.96
716.556	2955.73
716.744	2857.43
716.931	2859.48
717.119	2916.82
717.306	2869.72
717.493	2861.52
717.681	2961.87
717.868	2689.49
718.055	2869.72
718.242	2859.48
718.43	2908.63
718.617	2783.7
718.804	2849.24
718.991	2822.61
719.179	2886.1
719.366	2843.09
719.553	2875.86
719.74	2820.56
719.927	2806.23
720.114	2769.37
720.301	2759.13
720.488	2849.24
720.676	2851.28
720.863	2673.11
721.05	2826.71
721.237	2718.17
721.424	2642.39
721.611	2748.89
721.798	2726.36
721.985	2654.68
722.172	2613.72
722.358	2634.2
722.545	2730.45
722.732	2576.86
722.919	2652.63
723.106	2578.9
723.293	2638.3
723.48	2580.95
723.667	2533.85
723.853	2548.19
724.04	2499.03
724.227	2494.94
724.414	2466.27
724.6	2539.99
724.787	2351.58
724.974	2529.75
725.161	2482.65
725.347	2515.42
725.534	2488.79
725.72	2449.88
725.907	2519.51
726.094	2447.83
726.28	2380.25
726.467	2591.19
726.653	2410.97
726.84	2378.2
727.027	2374.11
727.213	2564.57
727.4	2482.65
727.586	2372.06
727.773	2451.93
727.959	2433.5
728.145	2456.03
728.332	2435.55
728.518	2347.48
728.705	2400.73
728.891	2312.67
729.077	2517.47
729.264	2275.81
729.45	2417.12
729.636	2288.09
729.823	2384.35
730.009	2275.81
730.195	2335.2
730.382	2374.11
730.568	2351.58
730.754	2212.32
730.94	2370.01
731.126	2273.76
731.313	2152.93
731.499	2292.19
731.685	2343.39
731.871	2318.81
732.057	2324.96
732.243	2361.82
732.429	2269.66
732.615	2306.52
732.801	2286.05
732.987	2263.52
733.173	2189.79
733.359	2220.51
733.545	2177.5
733.731	2136.54
733.917	2228.7
734.103	2267.61
734.289	2269.66
734.475	2118.11
734.661	2171.36
734.847	2079.2
735.033	2042.34
735.219	2062.82
735.404	2058.72
735.59	2136.54
735.776	2085.34
735.962	2005.47
736.148	2204.13
736.333	2126.3
736.519	1950.18
736.705	2175.45
736.89	2038.24
737.076	2114.02
737.262	2054.62
737.447	2038.24
737.633	2066.91
737.819	1997.28
738.004	2009.57
738.19	2085.34
738.375	1997.28
738.561	1960.42
738.747	2025.95
738.932	2007.52
739.118	1944.03
739.303	2003.43
739.489	2046.43
739.674	1948.13
739.859	2013.67
740.045	2034.14
740.23	1917.41
740.416	1825.25
740.601	1937.89
740.786	1993.19
740.972	1903.07
741.157	1894.88
741.342	1931.75
741.528	1849.83
741.713	1843.68
741.898	1907.17
742.084	1851.88
742.269	1913.31
742.454	1974.75
742.639	1796.58
742.824	1950.18
743.01	1878.5
743.195	1763.81
743.38	1833.44
743.565	1882.6
743.75	1780.2
743.935	1751.53
744.12	1802.72
744.305	1700.33
744.49	1741.29
744.675	1733.09
744.86	1722.85
745.045	1698.28
745.23	1683.94
745.415	1720.81
745.6	1589.74
745.785	1694.18
745.97	1741.29
746.155	1696.23
746.34	1620.46
746.525	1712.61
746.71	1685.99
746.895	1573.35
747.079	1528.3
747.264	1604.07
747.449	1675.75
747.634	1563.11
747.819	1622.5
748.003	1618.41
748.188	1524.2
748.373	1653.22
748.557	1528.3
748.742	1499.63
748.927	1448.43
749.111	1473
749.296	1468.91
749.481	1556.97
749.665	1516.01
749.85	1438.19
750.034	1522.15
750.219	1448.43
750.404	1427.95
750.588	1362.41
750.773	1294.83
750.957	1366.51
751.141	1456.62
751.326	1372.65
751.51	1427.95
751.695	1354.22
751.879	1266.16
752.064	1401.32
752.248	1434.09
752.432	1333.74
752.617	1339.88
752.801	1399.27
752.985	1278.44
753.17	1329.64
753.354	1329.64
753.538	1260.01
753.722	1139.18
753.907	1237.49
754.091	1231.34
754.275	1221.1
754.459	1102.32
754.643	1194.48
754.828	1196.53
755.012	1221.1
755.196	1200.62
755.38	1102.32
755.564	1196.53
755.748	1167.85
755.932	1192.43
756.116	1174
756.3	1200.62
756.484	1176.05
756.668	1087.98
756.852	1141.23
757.036	1071.6
757.22	1063.41
757.404	1114.61
757.588	1047.02
757.772	1055.22
757.956	1055.22
758.14	1047.02
758.323	958.96
758.507	1090.03
758.691	1055.22
758.875	1083.89
759.059	1126.89
759.242	1008.11
759.426	1006.06
759.61	1047.02
759.794	979.44
759.977	977.39
760.161	936.43
760.345	1016.3
760.528	1020.4
760.712	911.86
760.895	922.1
761.079	979.44
761.263	893.43
761.446	885.23
761.63	1028.59
761.813	1016.3
761.997	844.28
762.18	920.05
762.364	944.63
762.547	817.65
762.731	920.05
762.914	907.76
763.098	903.67
763.281	854.51
763.464	817.65
763.648	879.09
763.831	879.09
764.015	842.23
764.198	907.76
764.381	864.75
764.564	874.99
764.748	899.57
764.931	915.95
765.114	850.42
765.297	807.41
765.481	791.03
765.664	870.9
765.847	870.9
766.03	903.67
766.213	846.32
766.397	846.32
766.58	770.55
766.763	866.8
766.946	715.25
767.129	788.98
767.312	731.64
767.495	803.32
767.678	854.51
767.861	831.99
768.044	727.54
768.227	809.46
768.41	780.79
768.593	838.13
768.776	838.13
768.959	780.79
769.142	768.5
769.324	743.92
769.507	735.73
769.69	825.84
769.873	668.15
770.056	817.65
770.239	670.2
770.421	774.64
770.604	662.01
770.787	719.35
770.97	750.07
771.152	682.49
771.335	721.4
771.518	682.49
771.7	862.71
771.883	776.69
772.066	690.68
772.248	723.44
772.431	692.73
772.613	739.83
772.796	750.07
772.978	694.77
773.161	713.21
773.343	719.35
773.526	723.44
773.708	731.64
773.891	586.23
774.073	709.11
774.256	668.15
774.438	692.73
774.621	674.29
774.803	612.85
774.985	684.53
775.168	619
775.35	610.81
775.532	575.99
775.715	635.38
775.897	586.23
776.079	700.92
776.261	657.91
776.444	543.22
776.626	592.37
776.808	651.77
776.99	682.49
777.173	567.8
777.355	520.7
777.537	614.9
777.719	649.72
777.901	547.32
778.083	582.14
778.265	469.5
778.447	506.36
778.629	537.08
778.811	483.83
778.993	578.04
779.175	514.55
779.357	575.99
779.539	516.6
779.721	481.78
779.903	578.04
780.085	502.26
780.267	475.64
780.449	459.26
780.631	561.66
780.812	530.94
780.994	483.83
781.176	578.04
781.358	492.02
781.54	465.4
781.721	528.89
781.903	393.72
782.085	502.26
782.267	512.5
782.448	436.73
782.63	463.35
782.812	446.97
782.993	430.59
783.175	422.39
783.357	393.72
783.538	436.73
783.72	403.96
783.901	432.63
784.083	436.73
784.264	516.6
784.446	418.3
784.627	449.02
784.809	354.81
784.99	391.67
785.172	393.72
785.353	367.1
785.535	358.91
785.716	401.91
785.897	324.09
786.079	381.43
786.26	324.09
786.441	403.96
786.623	309.76
786.804	274.94
786.985	317.95
787.167	301.56
787.348	283.13
787.529	401.91
787.71	399.87
787.891	348.67
788.073	297.47
788.254	303.61
788.435	418.3
788.616	293.37
788.797	317.95
788.978	276.99
789.159	387.58
789.34	381.43
789.522	322.04
789.703	358.91
789.884	285.18
790.065	340.47
790.246	338.43
790.427	326.14
790.607	317.95
790.788	342.52
790.969	303.61
791.15	381.43
791.331	350.71
791.512	338.43
791.693	291.32
791.874	330.23
792.054	354.81
792.235	348.67
792.416	320
792.597	285.18
792.778	324.09
792.958	213.5
793.139	231.93
793.32	281.08
793.5	356.86
793.681	258.56
793.862	215.55
794.042	268.8
794.223	254.46
794.404	219.64
794.584	301.56
794.765	279.04
794.945	274.94
795.126	324.09
795.306	254.46
795.487	244.22
795.667	274.94
795.848	252.41
796.028	252.41
796.209	326.14
796.389	199.16
796.57	313.85
796.75	180.73
796.93	283.13
797.111	223.74
797.291	248.32
797.471	236.03
797.652	221.69
797.832	215.55
798.012	209.4
798.192	338.43
798.373	262.65
798.553	180.73
798.733	238.08
798.913	152.06
799.093	168.45
799.274	186.88
799.454	229.88
799.634	219.64
799.814	201.21
799.994	154.11
800.174	225.79
800.354	156.16
800.534	152.06
800.714	227.84
800.894	125.44
801.074	231.93
801.254	184.83
801.434	262.65
801.614	242.17
801.794	186.88
801.974	602.61
802.154	195.07
802.334	195.07
802.514	195.07
802.693	156.16
802.873	156.16
803.053	205.31
803.233	107.01
803.413	182.78
803.592	211.45
803.772	209.4
803.952	160.25
804.131	213.5
804.311	197.12
804.491	137.73
804.67	201.21
804.85	195.07
805.03	227.84
805.209	197.12
805.389	190.97
805.568	197.12
805.748	139.77
805.928	182.78
806.107	172.54
806.287	176.64
806.466	215.55
806.646	199.16
806.825	156.16
807.004	203.26
807.184	147.97
807.363	188.93
807.543	207.36
807.722	184.83
807.901	190.97
808.081	158.21
808.26	135.68
808.439	98.81
808.619	193.02
808.798	182.78
808.977	184.83
809.156	129.53
809.336	72.19
809.515	162.3
809.694	113.15
809.873	215.55
810.052	117.25
810.231	145.92
810.411	123.39
810.59	197.12
810.769	137.73
810.948	264.7
811.127	131.58
811.306	90.62
811.485	137.73
811.664	227.84
811.843	98.81
812.022	76.29
812.201	145.92
812.38	156.16
812.559	102.91
812.737	213.5
812.916	78.33
813.095	135.68
813.274	109.05
813.453	168.45
813.632	184.83
813.811	135.68
813.989	-1.54
814.168	176.64
814.347	94.72
814.526	66.05
814.704	109.05
814.883	92.67
815.062	233.98
815.24	129.53
815.419	111.1
815.598	109.05
815.776	111.1
815.955	57.86
816.133	41.47
816.312	131.58
816.49	117.25
816.669	100.86
816.847	172.54
817.026	90.62
817.204	100.86
817.383	152.06
817.561	145.92
817.74	170.49
817.918	76.29
818.097	96.77
818.275	152.06
818.453	129.53
818.632	123.39
818.81	59.9
818.988	113.15
819.167	55.81
819.345	166.4
819.523	68.09
819.701	137.73
819.879	90.62
820.058	94.72
820.236	172.54
820.414	133.63
820.592	102.91
820.77	86.53
820.948	66.05
821.127	61.95
821.305	139.77
821.483	117.25
821.661	98.81
821.839	145.92
822.017	115.2
822.195	88.57
822.373	57.86
822.551	94.72
822.729	160.25
822.907	96.77
823.085	43.52
823.262	84.48
823.44	137.73
823.618	16.9
823.796	39.42
823.974	37.38
824.152	53.76
824.329	125.44
824.507	80.38
824.685	78.33
824.863	107.01
825.04	178.69
825.218	160.25
825.396	53.76
825.574	139.77
825.751	109.05
825.929	111.1
826.107	-7.68
826.284	37.38
826.462	94.72
826.639	109.05
826.817	92.67
826.994	139.77
827.172	4.61
827.349	121.34
827.527	72.19
827.704	78.33
827.882	39.42
828.059	47.62
828.237	64
828.414	119.29
828.591	72.19
828.769	121.34
828.946	-36.35
829.124	76.29
829.301	135.68
829.478	104.96
829.655	49.66
829.833	57.86
830.01	43.52
830.187	117.25
830.364	39.42
830.542	90.62
830.719	141.82
830.896	180.73
831.073	59.9
831.25	127.49
831.427	31.23
831.604	96.77
831.782	92.67
831.959	88.57
832.136	35.33
832.313	47.62
832.49	88.57
832.667	59.9
832.844	72.19
833.021	94.72
833.198	125.44
833.374	29.18
833.551	84.48
833.728	43.52
833.905	104.96
834.082	-3.58
834.259	53.76
834.436	16.9
834.612	29.18
834.789	113.15
834.966	64
835.143	64
835.319	14.85
835.496	127.49
835.673	51.71
835.85	66.05
836.026	125.44
836.203	45.57
836.38	72.19
836.556	20.99
836.733	8.7
836.909	49.66
837.086	74.24
837.262	84.48
837.439	33.28
837.616	25.09
837.792	-11.78
837.968	29.18
838.145	-22.02
838.321	55.81
838.498	27.14
838.674	68.09
838.851	74.24
839.027	57.86
839.203	23.04
839.38	31.23
839.556	33.28
839.732	72.19
839.909	80.38
840.085	94.72
840.261	-7.68
840.437	14.85
840.614	111.1
840.79	82.43
840.966	88.57
841.142	55.81
841.318	78.33
841.494	84.48
841.671	29.18
841.847	43.52
842.023	61.95
842.199	57.86
842.375	6.66
842.551	-26.11
842.727	12.8
842.903	102.91
843.079	12.8
843.255	78.33
843.431	47.62
843.607	88.57
843.783	8.7
843.959	133.63
844.134	-9.73
844.31	49.66
844.486	-7.68
844.662	39.42
844.838	55.81
845.013	25.09
845.189	27.14
845.365	29.18
845.541	39.42
845.716	10.75
845.892	45.57
846.068	14.85
846.244	20.99
846.419	113.15
846.595	-1.54
846.77	16.9
846.946	-17.92
847.122	100.86
847.297	25.09
847.473	8.7
847.648	-3.58
847.824	6.66
847.999	2.56
848.175	57.86
848.35	0.51
848.526	49.66
848.701	90.62
848.876	8.7
849.052	55.81
849.227	16.9
849.403	94.72
849.578	18.94
849.753	20.99
849.929	-7.68
850.104	-36.35
850.279	16.9
850.454	4.61
850.63	68.09
850.805	61.95
850.98	107.01
851.155	31.23
851.33	76.29
851.505	8.7
851.681	78.33
851.856	43.52
852.031	-9.73
852.206	12.8
852.381	102.91
852.556	66.05
852.731	98.81
852.906	16.9
853.081	31.23
853.256	55.81
853.431	-3.58
853.606	6.66
853.781	-19.97
853.956	-38.4
854.131	-3.58
854.305	16.9
854.48	-19.97
854.655	29.18
854.83	39.42
855.005	66.05
855.18	55.81
855.354	41.47
855.529	64
855.704	41.47
855.879	-26.11
856.053	-19.97
856.228	18.94
856.403	39.42
856.577	72.19
856.752	-7.68
856.926	14.85
857.101	-19.97
857.276	80.38
857.45	33.28
857.625	43.52
857.799	14.85
857.974	47.62
858.148	25.09
858.323	16.9
858.497	-38.4
858.672	0.51
858.846	29.18
859.02	84.48
859.195	12.8
859.369	25.09
859.543	-11.78
859.718	-65.02
859.892	76.29
860.066	-7.68
860.241	-7.68
860.415	31.23
860.589	-32.26
860.763	-5.63
860.938	-7.68
861.112	49.66
861.286	-11.78
861.46	-11.78
861.634	4.61
861.808	29.18
861.982	20.99
862.157	6.66
862.331	43.52
862.505	-46.59
862.679	4.61
862.853	0.51
863.027	6.66
863.201	68.09
863.375	-1.54
863.549	61.95
863.722	-19.97
863.896	-28.16
864.07	-30.21
864.244	25.09
864.418	59.9
864.592	64
864.766	2.56
864.939	82.43
865.113	-28.16
865.287	29.18
865.461	-1.54
865.634	51.71
865.808	31.23
865.982	-15.87
866.156	-19.97
866.329	64
866.503	-71.17
866.676	-7.68
866.85	29.18
867.024	64
867.197	37.38
867.371	8.7
867.544	-58.88
867.718	16.9
867.891	53.76
868.065	-15.87
868.238	4.61
868.412	16.9
868.585	4.61
868.759	53.76
868.932	-34.3
869.105	8.7
869.279	25.09
869.452	-34.3
869.625	43.52
869.799	37.38
869.972	6.66
870.145	-7.68
870.319	80.38
870.492	76.29
870.665	57.86
870.838	-13.82
871.011	-15.87
871.185	27.14
871.358	8.7
871.531	23.04
871.704	14.85
871.877	-26.11
872.05	-46.59
872.223	6.66
872.396	-9.73
872.569	51.71
872.742	-17.92
872.915	31.23
873.088	-32.26
873.261	-17.92
873.434	35.33
873.607	2.56
873.78	33.28
873.953	41.47
874.126	0.51
874.299	4.61
874.471	-28.16
874.644	16.9
874.817	33.28
874.99	51.71
875.163	51.71
875.335	-5.63
875.508	-11.78
875.681	53.76
875.853	37.38
876.026	4.61
876.199	33.28
876.371	37.38
876.544	57.86
876.717	6.66
876.889	0.51
877.062	-3.58
877.234	-7.68
877.407	-67.07
877.579	18.94
877.752	-24.06
877.924	-48.64
878.097	-65.02
878.269	-95.74
878.442	-17.92
878.614	6.66
878.786	25.09
878.959	29.18
879.131	-32.26
879.303	14.85
879.476	10.75
879.648	31.23
879.82	41.47
879.993	45.57
880.165	59.9
880.337	-24.06
880.509	90.62
880.681	-62.98
880.854	23.04
881.026	53.76
881.198	74.24
881.37	18.94
881.542	72.19
881.714	-15.87
881.886	45.57
882.058	-32.26
882.23	4.61
882.402	41.47
882.574	88.57
882.746	18.94
882.918	2.56
883.09	96.77
883.262	4.61
883.434	-22.02
883.606	23.04
883.778	-17.92
883.95	76.29
884.122	8.7
884.293	64
884.465	55.81
884.637	72.19
884.809	-1.54
884.98	-9.73
885.152	70.14
885.324	14.85
885.496	-56.83
885.667	-38.4
885.839	-56.83
886.011	-34.3
886.182	41.47
886.354	23.04
886.525	66.05
886.697	27.14
886.869	-17.92
887.04	25.09
887.212	-30.21
887.383	10.75
887.555	8.7
887.726	33.28
887.897	45.57
888.069	4.61
888.24	57.86
888.412	72.19
888.583	-71.17
888.754	47.62
888.926	14.85
889.097	-13.82
889.268	35.33
889.44	-19.97
889.611	55.81
889.782	33.28
889.953	10.75
890.125	29.18
890.296	-13.82
890.467	-11.78
890.638	29.18
890.809	-24.06
890.98	-56.83
891.151	2.56
891.323	8.7
891.494	-26.11
891.665	20.99
891.836	14.85
892.007	35.33
892.178	-22.02
892.349	8.7
892.52	31.23
892.691	16.9
892.862	-1.54
893.032	12.8
893.203	0.51
893.374	18.94
893.545	6.66
893.716	-69.12
893.887	20.99
894.057	-34.3
894.228	-28.16
894.399	-17.92
894.57	2.56
894.74	-32.26
894.911	-9.73
895.082	-36.35
895.253	-1.54
895.423	12.8
895.594	35.33
895.764	4.61
895.935	-52.74
896.106	-9.73
896.276	20.99
896.447	43.52
896.617	-34.3
896.788	-56.83
896.958	10.75
897.129	-77.31
897.299	-32.26
897.47	74.24
897.64	29.18
897.81	-13.82
897.981	25.09
898.151	-46.59
898.322	-32.26
898.492	23.04
898.662	16.9
898.832	-3.58
899.003	47.62
899.173	-34.3
899.343	-24.06
899.513	-13.82
