Data from USB4F104151__66__12-36-35-734.txt Node

Date: Fri Mar 14 12:36:35 EDT 2025
User: louis
Spectrometer: USB4F10415
Trigger mode: 4
Integration Time (sec): 2.000000E-2
Scans to average: 1
Electric dark correction enabled: true
Nonlinearity correction enabled: false
Boxcar width: 0
XAxis mode: Wavelengths
Number of Pixels in Spectrum: 3648
>>>>>Begin Spectral Data<<<<<
178.204	-67.92
178.424	-67.92
178.644	-67.92
178.864	-86.36
179.084	-26.96
179.304	24.23
179.524	18.09
179.744	-24.92
179.964	13.99
180.184	30.38
180.404	-4.44
180.624	-2.39
180.844	38.57
181.064	-67.92
181.283	-37.2
181.503	-2.39
181.723	13.99
181.943	22.19
182.163	-22.87
182.383	65.19
182.602	42.67
182.822	77.48
183.042	46.76
183.262	18.09
183.482	-29.01
183.701	30.38
183.921	87.72
184.141	-10.58
184.361	-41.3
184.58	38.57
184.8	-6.49
185.02	-94.55
185.239	22.19
185.459	5.8
185.679	77.48
185.898	-31.06
186.118	87.72
186.338	57
186.557	13.99
186.777	67.24
186.997	-12.63
187.216	-53.59
187.436	130.73
187.655	83.63
187.875	26.28
188.095	30.38
188.314	110.25
188.534	-20.82
188.753	-39.25
188.973	65.19
189.192	34.47
189.412	77.48
189.631	106.15
189.851	26.28
190.07	52.91
190.29	-33.11
190.509	28.33
190.729	7.85
190.948	97.96
191.168	42.67
191.387	30.38
191.607	42.67
191.826	71.34
192.045	30.38
192.265	-57.68
192.484	42.67
192.704	83.63
192.923	-16.73
193.142	77.48
193.362	34.47
193.581	73.39
193.8	-16.73
194.02	20.14
194.239	57
194.458	40.62
194.678	42.67
194.897	11.95
195.116	30.38
195.335	112.3
195.555	54.95
195.774	38.57
195.993	112.3
196.212	108.2
196.432	-16.73
196.651	-4.44
196.87	57
197.089	48.81
197.308	24.23
197.528	65.19
197.747	-29.01
197.966	63.15
198.185	75.43
198.404	11.95
198.623	3.75
198.842	40.62
199.062	5.8
199.281	22.19
199.5	-10.58
199.719	102.06
199.938	18.09
200.157	57
200.376	9.9
200.595	77.48
200.814	-18.77
201.033	-14.68
201.252	18.09
201.471	-6.49
201.69	26.28
201.909	-10.58
202.128	71.34
202.347	16.04
202.566	-6.49
202.785	-16.73
203.004	-6.49
203.223	67.24
203.442	30.38
203.661	28.33
203.879	54.95
204.098	28.33
204.317	-51.54
204.536	22.19
204.755	5.8
204.974	28.33
205.193	63.15
205.411	73.39
205.63	79.53
205.849	79.53
206.068	59.05
206.287	-31.06
206.505	-18.77
206.724	3.75
206.943	50.86
207.162	-37.2
207.381	-8.53
207.599	36.52
207.818	22.19
208.037	73.39
208.255	95.91
208.474	85.67
208.693	46.76
208.911	11.95
209.13	13.99
209.349	20.14
209.567	28.33
209.786	57
210.005	97.96
210.223	42.67
210.442	42.67
210.661	124.58
210.879	44.71
211.098	73.39
211.316	18.09
211.535	61.1
211.753	-41.3
211.972	-37.2
212.191	9.9
212.409	67.24
212.628	67.24
212.846	-29.01
213.065	52.91
213.283	122.54
213.502	89.77
213.72	30.38
213.938	28.33
214.157	48.81
214.375	67.24
214.594	-41.3
214.812	-6.49
215.031	13.99
215.249	-4.44
215.467	73.39
215.686	-2.39
215.904	-2.39
216.122	-2.39
216.341	5.8
216.559	26.28
216.778	44.71
216.996	71.34
217.214	73.39
217.432	22.19
217.651	18.09
217.869	3.75
218.087	-24.92
218.306	3.75
218.524	147.11
218.742	24.23
218.96	63.15
219.179	22.19
219.397	36.52
219.615	63.15
219.833	3.75
220.051	-0.34
220.27	46.76
220.488	-0.34
220.706	118.44
220.924	-20.82
221.142	71.34
221.36	5.8
221.578	-20.82
221.796	11.95
222.015	79.53
222.233	63.15
222.451	48.81
222.669	-26.96
222.887	85.67
223.105	50.86
223.323	3.75
223.541	67.24
223.759	20.14
223.977	30.38
224.195	44.71
224.413	73.39
224.631	-10.58
224.849	3.75
225.067	91.82
225.285	-16.73
225.503	9.9
225.721	-12.63
225.939	9.9
226.157	54.95
226.375	89.77
226.592	42.67
226.81	59.05
227.028	48.81
227.246	28.33
227.464	-16.73
227.682	32.43
227.9	91.82
228.117	20.14
228.335	91.82
228.553	-65.88
228.771	32.43
228.989	34.47
229.206	44.71
229.424	38.57
229.642	9.9
229.86	-12.63
230.077	75.43
230.295	48.81
230.513	118.44
230.731	-8.53
230.948	63.15
231.166	85.67
231.384	28.33
231.601	5.8
231.819	69.29
232.037	30.38
232.254	16.04
232.472	89.77
232.689	5.8
232.907	3.75
233.125	-47.44
233.342	67.24
233.56	-41.3
233.777	32.43
233.995	40.62
234.213	153.26
234.43	95.91
234.648	104.11
234.865	24.23
235.083	50.86
235.3	38.57
235.518	11.95
235.735	110.25
235.953	-10.58
236.17	22.19
236.388	28.33
236.605	79.53
236.822	85.67
237.04	-26.96
237.257	42.67
237.475	40.62
237.692	102.06
237.909	16.04
238.127	63.15
238.344	18.09
238.562	71.34
238.779	54.95
238.996	46.76
239.214	-16.73
239.431	83.63
239.648	-16.73
239.865	69.29
240.083	112.3
240.3	-4.44
240.517	-26.96
240.735	-8.53
240.952	104.11
241.169	63.15
241.386	28.33
241.603	16.04
241.821	52.91
242.038	22.19
242.255	34.47
242.472	-8.53
242.689	57
242.907	44.71
243.124	-33.11
243.341	46.76
243.558	40.62
243.775	5.8
243.992	46.76
244.209	13.99
244.426	102.06
244.643	87.72
244.86	11.95
245.078	11.95
245.295	1.71
245.512	71.34
245.729	36.52
245.946	75.43
246.163	16.04
246.38	118.44
246.597	-4.44
246.814	11.95
247.031	83.63
247.248	143.02
247.464	1.71
247.681	-0.34
247.898	46.76
248.115	79.53
248.332	28.33
248.549	100.01
248.766	59.05
248.983	91.82
249.2	30.38
249.417	7.85
249.633	24.23
249.85	61.1
250.067	26.28
250.284	67.24
250.501	81.58
250.717	83.63
250.934	30.38
251.151	65.19
251.368	-14.68
251.585	57
251.801	38.57
252.018	52.91
252.235	61.1
252.451	-24.92
252.668	18.09
252.885	22.19
253.102	32.43
253.318	85.67
253.535	65.19
253.752	32.43
253.968	9.9
254.185	57
254.401	9.9
254.618	34.47
254.835	73.39
255.051	34.47
255.268	-16.73
255.484	-6.49
255.701	-4.44
255.917	59.05
256.134	-20.82
256.351	-0.34
256.567	-14.68
256.784	-29.01
257	-4.44
257.217	77.48
257.433	87.72
257.65	7.85
257.866	48.81
258.082	95.91
258.299	26.28
258.515	81.58
258.732	-16.73
258.948	-0.34
259.165	26.28
259.381	61.1
259.597	61.1
259.814	20.14
260.03	16.04
260.246	36.52
260.463	30.38
260.679	-16.73
260.895	-4.44
261.112	-0.34
261.328	13.99
261.544	52.91
261.761	9.9
261.977	13.99
262.193	-12.63
262.409	16.04
262.626	67.24
262.842	59.05
263.058	7.85
263.274	-12.63
263.49	26.28
263.707	5.8
263.923	57
264.139	-18.77
264.355	50.86
264.571	93.87
264.787	-22.87
265.004	1.71
265.22	91.82
265.436	73.39
265.652	38.57
265.868	50.86
266.084	-49.49
266.3	63.15
266.516	44.71
266.732	48.81
266.948	89.77
267.164	13.99
267.38	42.67
267.596	57
267.812	57
268.028	63.15
268.244	36.52
268.46	100.01
268.676	-29.01
268.892	69.29
269.108	59.05
269.324	3.75
269.54	13.99
269.756	-4.44
269.972	11.95
270.188	61.1
270.403	-14.68
270.619	22.19
270.835	34.47
271.051	1.71
271.267	89.77
271.483	-6.49
271.698	36.52
271.914	75.43
272.13	77.48
272.346	-24.92
272.562	112.3
272.777	36.52
272.993	65.19
273.209	34.47
273.425	-10.58
273.64	-2.39
273.856	20.14
274.072	54.95
274.287	54.95
274.503	44.71
274.719	11.95
274.934	-0.34
275.15	26.28
275.366	112.3
275.581	65.19
275.797	52.91
276.012	26.28
276.228	54.95
276.444	20.14
276.659	28.33
276.875	73.39
277.09	52.91
277.306	-6.49
277.521	54.95
277.737	73.39
277.952	91.82
278.168	54.95
278.383	69.29
278.599	20.14
278.814	9.9
279.03	89.77
279.245	57
279.461	44.71
279.676	24.23
279.892	20.14
280.107	57
280.322	54.95
280.538	57
280.753	54.95
280.969	97.96
281.184	16.04
281.399	30.38
281.615	7.85
281.83	44.71
282.045	-2.39
282.26	28.33
282.476	-41.3
282.691	46.76
282.906	-0.34
283.122	54.95
283.337	26.28
283.552	77.48
283.767	13.99
283.983	20.14
284.198	48.81
284.413	75.43
284.628	24.23
284.843	-10.58
285.058	3.75
285.274	-8.53
285.489	13.99
285.704	5.8
285.919	-12.63
286.134	147.11
286.349	9.9
286.564	83.63
286.779	32.43
286.995	95.91
287.21	-20.82
287.425	7.85
287.64	38.57
287.855	69.29
288.07	-4.44
288.285	77.48
288.5	36.52
288.715	79.53
288.93	-10.58
289.145	40.62
289.36	85.67
289.575	20.14
289.79	63.15
290.004	54.95
290.219	59.05
290.434	83.63
290.649	-72.02
290.864	3.75
291.079	65.19
291.294	30.38
291.509	9.9
291.724	50.86
291.938	-31.06
292.153	73.39
292.368	-8.53
292.583	79.53
292.798	13.99
293.012	100.01
293.227	54.95
293.442	63.15
293.657	42.67
293.871	-16.73
294.086	36.52
294.301	63.15
294.516	22.19
294.73	69.29
294.945	81.58
295.16	48.81
295.374	42.67
295.589	57
295.804	57
296.018	26.28
296.233	48.81
296.447	138.92
296.662	24.23
296.877	26.28
297.091	11.95
297.306	69.29
297.52	102.06
297.735	71.34
297.949	-51.54
298.164	110.25
298.378	42.67
298.593	61.1
298.807	46.76
299.022	69.29
299.236	32.43
299.451	44.71
299.665	85.67
299.88	42.67
300.094	18.09
300.309	24.23
300.523	5.8
300.737	69.29
300.952	30.38
301.166	57
301.381	54.95
301.595	57
301.809	1.71
302.024	48.81
302.238	57
302.452	52.91
302.667	59.05
302.881	89.77
303.095	22.19
303.309	61.1
303.524	40.62
303.738	63.15
303.952	-12.63
304.166	67.24
304.381	-12.63
304.595	147.11
304.809	38.57
305.023	97.96
305.237	79.53
305.452	85.67
305.666	83.63
305.88	149.16
306.094	20.14
306.308	38.57
306.522	3.75
306.736	69.29
306.95	-4.44
307.164	3.75
307.379	32.43
307.593	71.34
307.807	130.73
308.021	42.67
308.235	69.29
308.449	85.67
308.663	100.01
308.877	63.15
309.091	20.14
309.305	40.62
309.519	61.1
309.733	97.96
309.947	11.95
310.161	91.82
310.374	87.72
310.588	87.72
310.802	36.52
311.016	28.33
311.23	44.71
311.444	65.19
311.658	3.75
311.872	97.96
312.085	79.53
312.299	63.15
312.513	30.38
312.727	87.72
312.941	-49.49
313.154	54.95
313.368	50.86
313.582	-55.64
313.796	71.34
314.009	52.91
314.223	77.48
314.437	30.38
314.651	44.71
314.864	67.24
315.078	30.38
315.292	26.28
315.505	22.19
315.719	28.33
315.933	57
316.146	122.54
316.36	30.38
316.573	130.73
316.787	30.38
317.001	11.95
317.214	75.43
317.428	59.05
317.641	91.82
317.855	-4.44
318.068	61.1
318.282	71.34
318.495	167.59
318.709	95.91
318.922	24.23
319.136	63.15
319.349	75.43
319.563	38.57
319.776	42.67
319.99	3.75
320.203	36.52
320.417	20.14
320.63	61.1
320.843	32.43
321.057	16.04
321.27	-8.53
321.483	50.86
321.697	81.58
321.91	102.06
322.124	57
322.337	42.67
322.55	-12.63
322.763	-8.53
322.977	57
323.19	36.52
323.403	18.09
323.617	67.24
323.83	93.87
324.043	46.76
324.256	132.78
324.469	38.57
324.683	61.1
324.896	42.67
325.109	26.28
325.322	11.95
325.535	110.25
325.748	95.91
325.962	38.57
326.175	48.81
326.388	93.87
326.601	44.71
326.814	42.67
327.027	30.38
327.24	124.58
327.453	28.33
327.666	20.14
327.879	91.82
328.092	34.47
328.305	38.57
328.518	38.57
328.731	32.43
328.944	71.34
329.157	61.1
329.37	46.76
329.583	48.81
329.796	48.81
330.009	54.95
330.222	44.71
330.435	73.39
330.648	100.01
330.861	97.96
331.073	34.47
331.286	59.05
331.499	18.09
331.712	-18.77
331.925	52.91
332.138	48.81
332.35	161.45
332.563	85.67
332.776	-26.96
332.989	-4.44
333.202	1.71
333.414	116.39
333.627	46.76
333.84	104.11
334.053	-4.44
334.265	52.91
334.478	61.1
334.691	79.53
334.903	114.34
335.116	79.53
335.329	59.05
335.541	75.43
335.754	59.05
335.966	67.24
336.179	34.47
336.392	-2.39
336.604	36.52
336.817	130.73
337.029	75.43
337.242	-18.77
337.454	81.58
337.667	100.01
337.88	65.19
338.092	-0.34
338.305	42.67
338.517	-2.39
338.729	36.52
338.942	87.72
339.154	13.99
339.367	28.33
339.579	153.26
339.792	26.28
340.004	40.62
340.217	122.54
340.429	77.48
340.641	69.29
340.854	73.39
341.066	16.04
341.278	1.71
341.491	63.15
341.703	52.91
341.915	38.57
342.128	48.81
342.34	104.11
342.552	5.8
342.764	79.53
342.977	52.91
343.189	91.82
343.401	110.25
343.613	46.76
343.826	48.81
344.038	42.67
344.25	69.29
344.462	34.47
344.674	54.95
344.886	44.71
345.099	3.75
345.311	32.43
345.523	73.39
345.735	83.63
345.947	89.77
346.159	67.24
346.371	87.72
346.583	73.39
346.795	136.87
347.007	3.75
347.219	77.48
347.431	54.95
347.643	57
347.855	46.76
348.067	75.43
348.279	26.28
348.491	13.99
348.703	36.52
348.915	108.2
349.127	48.81
349.339	118.44
349.551	42.67
349.763	85.67
349.975	-4.44
350.187	126.63
350.399	36.52
350.61	63.15
350.822	-24.92
351.034	48.81
351.246	-14.68
351.458	77.48
351.669	112.3
351.881	118.44
352.093	-57.68
352.305	143.02
352.517	18.09
352.728	106.15
352.94	44.71
353.152	97.96
353.363	114.34
353.575	79.53
353.787	100.01
353.999	32.43
354.21	63.15
354.422	-33.11
354.633	59.05
354.845	7.85
355.057	-4.44
355.268	87.72
355.48	5.8
355.692	93.87
355.903	59.05
356.115	63.15
356.326	7.85
356.538	28.33
356.749	42.67
356.961	95.91
357.172	34.47
357.384	24.23
357.595	95.91
357.807	36.52
358.018	63.15
358.23	89.77
358.441	85.67
358.653	73.39
358.864	46.76
359.075	87.72
359.287	-0.34
359.498	110.25
359.709	18.09
359.921	30.38
360.132	46.76
360.344	118.44
360.555	65.19
360.766	87.72
360.977	57
361.189	77.48
361.4	38.57
361.611	48.81
361.823	42.67
362.034	63.15
362.245	40.62
362.456	16.04
362.667	42.67
362.879	71.34
363.09	42.67
363.301	34.47
363.512	120.49
363.723	116.39
363.935	36.52
364.146	136.87
364.357	130.73
364.568	85.67
364.779	95.91
364.99	138.92
365.201	34.47
365.412	87.72
365.623	24.23
365.834	63.15
366.045	42.67
366.256	63.15
366.467	116.39
366.678	9.9
366.889	11.95
367.1	69.29
367.311	91.82
367.522	-12.63
367.733	100.01
367.944	46.76
368.155	9.9
368.366	28.33
368.577	69.29
368.788	69.29
368.999	18.09
369.209	71.34
369.42	104.11
369.631	132.78
369.842	42.67
370.053	149.16
370.264	79.53
370.474	81.58
370.685	54.95
370.896	67.24
371.107	85.67
371.317	46.76
371.528	32.43
371.739	77.48
371.95	61.1
372.16	54.95
372.371	65.19
372.582	126.63
372.792	77.48
373.003	89.77
373.214	112.3
373.424	114.34
373.635	50.86
373.846	85.67
374.056	59.05
374.267	67.24
374.477	93.87
374.688	87.72
374.898	71.34
375.109	73.39
375.319	44.71
375.53	73.39
375.74	75.43
375.951	20.14
376.161	24.23
376.372	114.34
376.582	-2.39
376.793	87.72
377.003	5.8
377.214	71.34
377.424	106.15
377.635	87.72
377.845	22.19
378.055	71.34
378.266	63.15
378.476	32.43
378.686	77.48
378.897	100.01
379.107	63.15
379.317	93.87
379.528	138.92
379.738	102.06
379.948	28.33
380.158	140.97
380.369	26.28
380.579	24.23
380.789	44.71
380.999	116.39
381.21	54.95
381.42	61.1
381.63	30.38
381.84	44.71
382.05	30.38
382.261	81.58
382.471	67.24
382.681	87.72
382.891	112.3
383.101	159.4
383.311	34.47
383.521	106.15
383.731	65.19
383.941	63.15
384.151	95.91
384.361	87.72
384.571	124.58
384.781	38.57
384.991	100.01
385.201	100.01
385.411	16.04
385.621	100.01
385.831	79.53
386.041	63.15
386.251	95.91
386.461	112.3
386.671	89.77
386.881	9.9
387.091	22.19
387.301	89.77
387.511	93.87
387.72	128.68
387.93	69.29
388.14	91.82
388.35	42.67
388.56	153.26
388.769	65.19
388.979	36.52
389.189	114.34
389.399	61.1
389.609	79.53
389.818	44.71
390.028	61.1
390.238	120.49
390.447	26.28
390.657	79.53
390.867	57
391.076	157.35
391.286	67.24
391.496	118.44
391.705	104.11
391.915	108.2
392.125	73.39
392.334	138.92
392.544	138.92
392.753	73.39
392.963	54.95
393.172	75.43
393.382	169.64
393.591	75.43
393.801	112.3
394.01	87.72
394.22	108.2
394.429	100.01
394.639	126.63
394.848	97.96
395.058	130.73
395.267	153.26
395.477	54.95
395.686	194.22
395.895	171.69
396.105	116.39
396.314	153.26
396.524	83.63
396.733	116.39
396.942	136.87
397.152	134.82
397.361	48.81
397.57	147.11
397.78	140.97
397.989	108.2
398.198	200.36
398.407	143.02
398.617	122.54
398.826	167.59
399.035	218.79
399.244	167.59
399.453	114.34
399.663	89.77
399.872	104.11
400.081	173.74
400.29	188.07
400.499	194.22
400.708	143.02
400.917	181.93
401.127	91.82
401.336	167.59
401.545	140.97
401.754	272.04
401.963	169.64
402.172	140.97
402.381	126.63
402.59	204.46
402.799	177.83
403.008	155.3
403.217	216.74
403.426	210.6
403.635	157.35
403.844	157.35
404.053	97.96
404.262	243.37
404.471	134.82
404.68	218.79
404.888	245.41
405.097	222.89
405.306	173.74
405.515	214.7
405.724	253.61
405.933	239.27
406.142	231.08
406.35	196.26
406.559	302.76
406.768	204.46
406.977	263.85
407.185	251.56
407.394	224.94
407.603	267.94
407.812	351.91
408.02	353.96
408.229	319.14
408.438	339.62
408.646	280.23
408.855	341.67
409.064	366.25
409.272	347.81
409.481	470.69
409.69	331.43
409.898	304.81
410.107	466.6
410.315	466.6
410.524	427.68
410.733	554.66
410.941	431.78
411.15	605.86
411.358	544.42
411.567	640.67
411.775	568.99
411.984	532.13
412.192	581.28
412.401	599.71
412.609	722.59
412.818	751.26
413.026	718.5
413.234	755.36
413.443	644.77
413.651	753.31
413.86	792.22
414.068	880.29
414.276	847.52
414.485	849.57
414.693	915.1
414.901	1056.41
415.11	1058.46
415.318	984.73
415.526	1046.17
415.734	1044.12
415.943	1132.19
416.151	1150.62
416.359	1207.96
416.567	1277.59
416.776	1308.31
416.984	1400.47
417.192	1488.53
417.4	1433.24
417.608	1388.18
417.817	1476.24
418.025	1556.11
418.233	1742.48
418.441	1715.86
418.649	1685.14
418.857	1799.82
419.065	1828.49
419.273	1881.74
419.481	1865.36
419.689	2072.2
419.897	2231.94
420.105	2170.51
420.313	2272.9
420.521	2315.91
420.729	2422.41
420.937	2516.61
421.145	2526.85
421.353	2635.39
421.561	2780.8
421.769	2872.96
421.977	2928.25
422.185	3094.14
422.393	3151.48
422.601	3341.94
422.809	3356.28
423.017	3370.62
423.224	3413.62
423.432	3806.83
423.64	3714.67
423.848	4034.16
424.056	3821.17
424.263	4200.04
424.471	4249.19
424.679	4257.39
424.887	4601.44
425.094	4609.64
425.302	4652.64
425.51	4843.1
425.718	5017.18
425.925	5070.43
426.133	5305.95
426.341	5533.27
426.548	5781.07
426.756	5803.6
426.964	5824.08
427.171	6184.52
427.379	6340.17
427.586	6307.4
427.794	6583.88
428.001	6831.68
428.209	7286.33
428.417	7087.68
428.624	7579.19
428.832	7667.25
429.039	7611.96
429.247	7740.98
429.454	8365.61
429.662	8810.02
429.869	8459.82
430.076	8896.03
430.284	8584.74
430.491	8918.56
430.699	9621.02
430.906	9528.86
431.114	9682.45
431.321	10094.1
431.528	10307.09
431.736	10958.34
431.943	11417.08
432.15	11017.73
432.358	11144.7
432.565	11832.82
432.772	11812.34
432.979	12219.89
433.187	12613.1
433.394	12584.43
433.601	13815.26
433.808	13536.73
434.016	13585.88
434.223	13952.47
434.43	14943.69
434.637	14597.58
434.844	15832.51
435.052	15887.8
435.259	15941.05
435.466	15908.28
435.673	15803.83
435.88	16733.61
436.087	17620.38
436.294	17892.76
436.501	17173.92
436.708	17597.85
436.915	18148.76
437.122	18965.9
437.329	18969.99
437.537	19615.1
437.743	20051.32
437.95	19694.97
438.157	20788.59
438.364	21478.75
438.571	21335.4
438.778	21460.32
438.985	23715.14
439.192	22455.64
439.399	23143.75
439.606	22859.09
439.813	24065.34
440.02	25783.59
440.227	25562.4
440.433	25163.05
440.64	25896.22
440.847	25564.45
441.054	26131.74
441.261	28099.84
441.467	27864.32
441.674	28321.02
441.881	29277.42
442.088	29213.93
442.294	28955.89
442.501	29748.45
442.708	30428.38
442.914	31259.85
443.121	32611.51
443.328	32122.05
443.534	34059.43
443.741	33180.85
443.948	32910.52
444.154	35286.16
444.361	34700.44
444.568	35376.27
444.774	35200.15
444.981	35701.9
445.187	36334.72
445.394	37909.61
445.6	37590.13
445.807	41282.61
446.013	39418.96
446.22	40240.2
446.426	41968.68
446.633	41940.01
446.839	43209.75
447.046	41405.49
447.252	44137.48
447.459	44395.53
447.665	43875.34
447.871	45624.31
448.078	47576.02
448.284	45732.85
448.491	46693.35
448.697	48542.66
448.903	49288.12
449.11	48913.34
449.316	48638.92
449.522	49480.63
449.728	50586.53
449.935	51143.58
450.141	50856.87
450.347	52278.16
450.553	50736.04
450.76	50852.77
450.966	53123.97
451.172	52519.82
451.378	53576.57
451.584	52511.63
451.791	54010.74
451.997	53500.79
452.203	54678.38
452.409	54600.55
452.615	54117.23
452.821	52683.65
453.027	51712.92
453.233	54197.1
453.44	52603.78
453.646	52822.92
453.852	53412.73
454.058	54582.12
454.264	52560.78
454.47	53756.79
454.676	52575.11
454.882	54045.55
455.088	49783.73
455.294	50070.45
455.5	51071.9
455.705	51579.8
455.911	49648.57
456.117	48761.79
456.323	47887.31
456.529	45626.35
456.735	47866.83
456.941	46300.14
457.147	45454.33
457.352	44297.22
457.558	43748.37
457.764	44030.99
457.97	42822.69
458.176	42234.92
458.381	42523.68
458.587	39787.6
458.793	40152.13
458.999	38194.28
459.204	41024.57
459.41	39996.49
459.616	37049.46
459.821	36824.18
460.027	36922.49
460.233	35861.64
460.438	34462.88
460.644	35128.47
460.85	33184.94
461.055	32572.6
461.261	32472.25
461.466	30127.33
461.672	29406.44
461.878	31628.49
462.083	29435.11
462.289	28574.97
462.494	28230.91
462.7	27129.1
462.905	26623.25
463.111	27348.23
463.316	27694.34
463.522	26832.15
463.727	26922.26
463.932	26844.43
464.138	26584.34
464.343	26817.81
464.549	25605.41
464.754	26709.27
464.959	26324.25
465.165	26471.7
465.37	25300.26
465.575	24753.46
465.781	25406.76
465.986	26187.04
466.191	24995.12
466.397	24440.12
466.602	23172.43
466.807	23930.17
467.012	24005.95
467.218	23934.27
467.423	23252.3
467.628	23645.51
467.833	24497.46
468.038	23893.31
468.244	23096.65
468.449	24124.73
468.654	23477.57
468.859	22875.47
469.064	23022.92
469.269	22228.31
469.474	22299.99
469.679	22916.43
469.885	22277.46
470.09	22494.55
470.295	22377.81
470.5	21747.04
470.705	21917.02
470.91	21378.4
471.115	21179.75
471.32	21486.95
471.525	21392.74
471.73	20860.27
471.935	20651.38
472.139	20008.31
472.344	20096.38
472.549	20141.43
472.754	20018.55
472.959	19527.04
473.164	18879.88
473.369	18826.64
473.574	19537.28
473.778	19445.12
473.983	19064.2
474.188	18933.13
474.393	18181.53
474.598	18195.86
474.802	17986.97
475.007	17880.47
475.212	17966.49
475.417	17255.84
475.621	17343.91
475.826	17415.58
476.031	17036.71
476.235	16602.54
476.44	17100.2
476.645	16473.52
476.849	16541.1
477.054	16520.62
477.259	16418.22
477.463	16440.75
477.668	15934.9
477.872	15941.05
478.077	15740.35
478.282	15244.74
478.486	15437.25
478.691	15218.11
478.895	14968.26
479.1	15191.49
479.304	14953.93
479.509	14437.84
479.713	15035.85
479.918	14497.23
480.122	14089.68
480.326	14388.69
480.531	14511.57
480.735	14335.44
480.94	14013.91
481.144	14747.08
481.348	13993.43
481.553	14200.27
481.757	14042.58
481.961	14046.68
482.166	14200.27
482.37	14089.68
482.574	13813.21
482.778	13921.75
482.983	14323.15
483.187	13919.7
483.391	14110.16
483.595	13850.07
483.8	13600.22
484.004	13972.95
484.208	14241.23
484.412	14063.06
484.616	13835.74
484.821	13690.33
485.025	13766.1
485.229	14255.57
485.433	13903.32
485.637	13950.42
485.841	13710.81
486.045	13753.82
486.249	13876.69
486.453	13753.82
486.657	13995.48
486.861	13874.65
487.065	13706.71
487.269	13743.58
487.473	13735.39
487.677	14048.72
487.881	14018
488.085	13632.99
488.289	14030.29
488.493	14116.31
488.697	13931.99
488.901	14114.26
489.105	13743.58
489.309	13903.32
489.512	14028.24
489.716	14028.24
489.92	14034.39
490.124	13923.8
490.328	14253.52
490.531	14274
490.735	14122.45
490.939	14421.45
491.143	14278.1
491.346	14312.91
491.55	14419.41
491.754	14597.58
491.958	14552.52
492.161	14577.1
492.365	14603.72
492.569	14245.33
492.772	14570.96
492.976	14687.69
493.18	14960.07
493.383	15117.76
493.587	15144.39
493.79	15285.7
493.994	15037.89
494.197	15082.95
494.401	15408.58
494.605	15392.19
494.808	15412.67
495.012	15570.37
495.215	15795.64
495.419	15990.2
495.622	15924.66
495.825	15930.81
496.029	15900.09
496.232	16494
496.436	16289.2
496.639	16823.72
496.843	16747.95
497.046	16960.94
497.249	17290.66
497.453	16909.74
497.656	17515.94
497.859	17612.19
498.063	17649.05
498.266	18036.12
498.469	17946.01
498.673	18072.98
498.876	18419.09
499.079	18685.33
499.282	18677.13
499.485	19049.86
499.689	18988.42
499.892	19547.52
500.095	19508.61
500.298	19809.66
500.501	19510.66
500.705	20125.05
500.908	20436.34
501.111	20561.26
501.314	20899.18
501.517	21130.6
501.72	21368.16
501.923	21298.53
502.126	21843.29
502.329	22035.8
502.532	22232.41
502.735	22383.96
502.938	22515.03
503.141	22791.5
503.344	23313.73
503.547	23002.44
503.75	23475.52
503.953	23563.59
504.156	23766.34
504.359	24204.6
504.562	24565.04
504.765	25017.64
504.968	25169.19
505.17	25668.9
505.373	25670.95
505.576	25888.03
505.779	26127.64
505.982	26215.71
506.185	26629.4
506.387	26668.31
506.59	27041.04
506.793	27487.5
506.996	27350.28
507.198	28626.17
507.401	28314.87
507.604	28466.42
507.807	29269.23
508.009	29377.77
508.212	29322.48
508.415	29508.84
508.617	30207.2
508.82	30661.85
509.022	30039.26
509.225	30608.6
509.428	31010
509.63	31421.64
509.833	31788.23
510.035	32287.93
510.238	31943.88
510.44	32388.28
510.643	33297.58
510.845	33324.21
511.048	33289.39
511.25	33809.57
511.453	33918.12
511.655	35021.97
511.858	34241.7
512.06	34813.08
512.262	35261.58
512.465	35056.79
512.667	35904.65
512.87	36295.81
513.072	36295.81
513.274	36897.91
513.477	37282.93
513.679	37796.97
513.881	38057.06
514.084	38593.63
514.286	38306.91
514.488	39021.66
514.69	39713.87
514.893	39560.27
515.095	39523.41
515.297	40389.7
515.499	40535.1
515.701	40967.23
515.904	41149.49
516.106	41667.63
516.308	41933.87
516.51	42134.57
516.712	42132.52
516.914	43017.24
517.116	43467.8
517.318	43203.61
517.52	43822.09
517.722	43852.81
517.925	44286.98
518.127	45347.83
518.329	45650.93
518.531	45050.88
518.733	45970.41
518.935	45814.77
519.136	46066.67
519.338	46996.45
519.54	47295.45
519.742	47463.38
519.944	47930.32
520.146	48755.65
520.348	48557
520.55	48663.49
520.752	48778.18
520.954	49687.48
521.155	49161.15
521.357	49945.52
521.559	50445.22
521.761	50875.3
521.963	50813.86
522.164	51479.45
522.366	51145.63
522.568	51854.23
522.77	52446.09
522.971	52837.25
523.173	52245.39
523.375	52745.09
523.576	53228.41
523.778	53093.25
523.98	53726.07
524.181	53779.32
524.383	53951.35
524.584	54911.84
524.786	54418.28
524.988	53975.92
525.189	54946.66
525.391	55335.77
525.592	55626.59
525.794	55888.73
525.995	56048.47
526.197	55946.07
526.398	55995.22
526.6	56720.2
526.801	56785.74
527.003	56918.85
527.204	57015.11
527.406	57959.22
527.607	57494.33
527.808	57502.53
528.01	56597.32
528.211	57760.57
528.412	58032.95
528.614	58280.75
528.815	57822.01
529.016	58784.55
529.218	57682.75
529.419	58450.73
529.62	58762.03
529.822	58532.65
530.023	58508.08
530.224	58446.64
530.425	58823.47
530.626	58374.96
530.828	58387.25
531.029	59444
531.23	59015.97
531.431	58858.28
531.632	59097.89
531.833	59462.43
532.035	59259.68
532.236	59343.65
532.437	59427.62
532.638	59482.91
532.839	59687.71
533.04	59607.84
533.241	59372.32
533.442	59962.14
533.643	59495.2
533.844	59280.16
534.045	59882.26
534.246	58999.59
534.447	59405.09
534.648	59482.91
534.849	59906.84
535.05	59689.76
535.251	59646.75
535.451	59527.97
535.652	59919.13
535.853	59294.5
536.054	59599.65
536.255	59892.5
536.456	59652.89
536.657	59984.66
536.857	59403.04
537.058	59314.98
537.259	59937.56
537.46	59994.9
537.66	59872.03
537.861	60123.93
538.062	59427.62
538.263	59853.59
538.463	59427.62
538.664	59757.34
538.865	59743
539.065	60205.84
539.266	59478.82
539.466	60648.21
539.667	59667.23
539.868	60437.26
540.068	59661.08
540.269	59697.95
540.469	59589.41
540.67	59308.83
540.87	59618.08
541.071	59751.19
541.271	59472.67
541.472	59396.9
541.672	59261.73
541.873	58772.27
542.073	58614.57
542.274	59583.26
542.474	59239.2
542.675	59093.8
542.875	59634.46
543.075	59314.98
543.276	58612.52
543.476	59419.42
543.676	58946.34
543.877	59530.01
544.077	59018.02
544.277	59267.87
544.478	59028.26
544.678	59018.02
544.878	59171.62
545.078	59259.68
545.279	58577.71
545.479	58626.86
545.679	59091.75
545.879	59284.26
546.079	58774.31
546.28	58802.99
546.48	58534.7
546.68	58770.22
546.88	59384.61
547.08	58792.75
547.28	58659.63
547.48	58243.89
547.68	58422.06
547.88	58270.51
548.081	59091.75
548.281	59022.12
548.481	58688.3
548.681	58960.68
548.881	59046.69
549.081	58950.44
549.28	58737.45
549.48	58878.76
549.68	58553.13
549.88	59462.43
550.08	58348.34
550.28	59163.43
550.48	58370.86
550.68	58747.69
550.88	58905.38
551.08	58489.65
551.279	58841.9
551.479	58069.81
551.679	58577.71
551.879	58403.63
552.079	58719.02
552.278	58415.92
552.478	58520.37
552.678	58426.16
552.878	58723.11
553.077	58145.59
553.277	57948.98
553.477	58383.15
553.676	58078
553.876	58176.31
554.076	58096.44
554.275	57983.8
554.475	57678.65
554.674	58131.25
554.874	58387.25
555.074	57846.58
555.273	58268.47
555.473	58051.38
555.672	57803.58
555.872	57895.74
556.071	58010.42
556.271	58354.48
556.47	57684.79
556.67	57406.27
556.869	57584.44
557.068	58211.12
557.268	56976.2
557.467	57439.04
557.667	57451.33
557.866	57400.13
558.065	57299.78
558.265	57238.34
558.464	57078.6
558.663	57393.98
558.863	56478.54
559.062	57705.27
559.261	56468.3
559.461	57408.32
559.66	56499.02
559.859	56908.61
560.058	56523.6
560.258	56912.71
560.457	56466.25
560.656	57150.27
560.855	56011.6
561.054	57293.63
561.253	56267.6
561.453	56980.29
561.652	56869.7
561.851	56666.95
562.05	56089.43
562.249	55788.38
562.448	56470.35
562.647	55931.73
562.846	55755.61
563.045	56140.63
563.244	55440.22
563.443	56286.03
563.642	55376.73
563.841	55855.96
564.04	55038.82
564.239	55919.45
564.438	54883.17
564.637	55683.93
564.836	55472.99
565.035	55126.88
565.234	55053.15
565.432	54815.59
565.631	54588.27
565.83	55319.39
566.029	54563.69
566.228	54735.72
566.427	54844.26
566.625	54199.15
566.824	53990.26
567.023	54565.74
567.222	53558.14
567.42	54774.63
567.619	54283.12
567.818	54225.78
568.016	54045.55
568.215	54289.26
568.414	53988.21
568.612	54039.41
568.811	53463.93
569.01	53332.86
569.208	52974.47
569.407	53947.25
569.605	53080.96
569.804	53443.45
570.002	52431.75
570.201	53162.88
570.4	52976.51
570.598	52566.92
570.797	52450.19
570.995	52622.22
571.193	52034.45
571.392	52988.8
571.59	52267.92
571.789	52464.52
571.987	51925.91
572.186	51501.98
572.384	51862.42
572.582	51837.84
572.781	51723.16
572.979	51202.97
573.177	51411.87
573.376	51504.02
573.574	51514.26
573.772	51100.57
573.971	51239.84
574.169	50875.3
574.367	50457.51
574.565	51008.42
574.763	50293.68
574.962	50738.08
575.16	50105.26
575.358	50545.58
575.556	49580.98
575.754	50953.12
575.952	49599.41
576.151	50226.09
576.349	49423.29
576.547	49603.51
576.745	49529.78
576.943	49922.99
577.141	49918.9
577.339	49814.45
577.537	48849.86
577.735	49275.83
577.933	48966.59
578.131	49048.51
578.329	48675.78
578.527	49015.74
578.725	48622.53
578.923	48788.42
579.121	48221.13
579.319	48268.23
579.516	48462.79
579.714	48520.13
579.912	48116.68
580.11	47983.57
580.308	48028.62
580.506	47590.36
580.704	47074.27
580.901	47504.34
581.099	47877.07
581.297	47213.53
581.495	46955.49
581.692	47403.99
581.89	46795.74
582.088	47148
582.285	46812.13
582.483	47057.88
582.681	46722.02
582.878	46435.3
583.076	45728.75
583.274	46621.67
583.471	46001.13
583.669	46250.98
583.866	45882.35
584.064	46228.46
584.262	45341.69
584.459	46109.68
584.657	45536.24
584.854	45548.53
585.052	44510.21
585.249	45210.62
585.447	45304.82
585.644	44321.8
585.841	44753.92
586.039	44897.28
586.236	44534.79
586.434	44645.38
586.631	44307.46
586.828	44295.17
587.026	44041.23
587.223	44055.56
587.42	43803.66
587.618	43842.57
587.815	43553.81
588.012	43609.11
588.21	43228.18
588.407	43805.71
588.604	43453.46
588.801	42644.51
588.999	42982.43
589.196	42775.58
589.393	42871.84
589.59	42769.44
589.787	42388.52
589.984	42277.93
590.182	42351.65
590.379	42437.67
590.576	41925.67
590.773	41532.46
590.97	42101.8
591.167	41761.84
591.364	41155.64
591.561	41618.48
591.758	41366.58
591.955	41299
592.152	41307.19
592.349	41040.95
592.546	40926.27
592.743	40995.9
592.94	40791.1
593.137	41049.14
593.334	40780.86
593.531	40240.2
593.727	40414.27
593.924	40031.3
594.121	40123.46
594.318	39922.76
594.515	39595.09
594.712	40223.81
594.908	39359.57
595.105	39808.08
595.302	39126.1
595.499	39494.74
595.696	39160.92
595.892	38923.35
596.089	39064.66
596.286	39177.3
596.482	38603.87
596.679	38775.9
596.876	38728.8
597.072	38165.6
597.269	38524
597.466	38087.78
597.662	38390.88
597.859	38055.01
598.055	38433.89
598.252	37895.27
598.448	38124.64
598.645	37842.03
598.841	37309.55
599.038	37418.1
599.234	37356.66
599.431	36996.21
599.627	36918.39
599.824	37289.07
600.02	36912.25
600.217	36785.27
600.413	36734.07
600.609	36725.88
600.806	36373.63
601.002	36488.32
601.198	36387.97
601.395	36377.73
601.591	35890.31
601.787	36347.01
601.984	35966.09
602.18	36043.91
602.376	35503.24
602.572	35955.85
602.769	35765.38
602.965	35257.49
603.161	35892.36
603.357	34561.18
603.553	34659.48
603.75	34981.01
603.946	34837.66
604.142	35079.32
604.338	34452.64
604.534	34909.33
604.73	34614.43
604.926	34448.54
605.122	34499.74
605.318	34165.92
605.514	33877.16
605.71	33655.98
605.906	33875.11
606.102	33911.97
606.298	33748.14
606.494	33311.92
606.69	33920.17
606.886	33324.21
607.082	33084.59
607.278	33201.33
607.474	32416.96
607.67	33031.35
607.866	32556.22
608.062	32720.06
608.257	33143.98
608.453	32517.31
608.649	33113.27
608.845	32801.97
609.041	32466.11
609.236	32720.06
609.432	32142.53
609.628	32459.96
609.824	32328.89
610.019	31950.02
610.215	32212.16
610.411	32187.58
610.606	32042.18
610.802	32210.11
610.998	32130.24
611.193	32113.86
611.389	31507.66
611.584	31710.41
611.78	31515.85
611.976	31880.39
612.171	31880.39
612.367	31685.83
612.562	31571.14
612.758	30799.06
612.953	31374.54
613.149	31251.66
613.344	31157.46
613.539	31143.12
613.735	30989.52
613.93	31382.73
614.126	30975.19
614.321	31149.26
614.517	30909.65
614.712	30745.81
614.907	30792.92
615.103	30977.23
615.298	30786.77
615.493	30858.45
615.688	30237.92
615.884	31010
616.079	30110.94
616.274	30436.57
616.47	30835.92
616.665	30305.5
616.86	30344.41
617.055	30248.16
617.25	29820.13
617.445	30364.89
617.641	29553.9
617.836	30051.55
618.031	29578.47
618.226	29586.66
618.421	29641.96
618.616	29908.19
618.811	29226.22
619.006	29676.77
619.201	29160.69
619.396	29283.56
619.591	28654.84
619.786	29121.77
619.981	28622.07
620.176	28888.31
620.371	28343.55
620.566	28607.73
620.761	28628.21
620.956	28568.82
621.151	27684.1
621.346	28187.9
621.541	27407.62
621.735	28112.13
621.93	27389.19
622.125	27569.41
622.32	27184.4
622.515	27153.68
622.709	27024.65
622.904	27022.61
623.099	26916.11
623.294	26723.6
623.488	26305.82
623.683	26459.41
623.878	26103.07
624.072	26217.75
624.267	26266.91
624.462	25546.02
624.656	25468.2
624.851	25447.72
625.046	25478.44
625.24	25388.33
625.435	25189.67
625.629	25115.95
625.824	24687.92
626.018	24857.9
626.213	24360.25
626.407	24796.46
626.602	24298.81
626.796	24636.72
626.991	24085.82
627.185	24200.51
627.38	23926.08
627.574	23897.41
627.768	23393.61
627.963	23555.4
628.157	23266.63
628.352	23369.03
628.546	22922.57
628.74	23121.23
628.935	22553.94
629.129	22957.39
629.323	22369.62
629.517	22488.4
629.712	22431.06
629.906	22598.99
630.1	22037.85
630.294	22187.35
630.489	21941.6
630.683	21718.37
630.877	21411.17
631.071	21599.59
631.265	21642.59
631.459	21247.33
631.653	21161.32
631.848	21353.83
632.042	20931.95
632.236	21114.22
632.43	20901.23
632.624	20653.42
632.818	20624.75
633.012	20397.43
633.206	20133.24
633.4	20352.37
633.594	20155.77
633.788	20426.1
633.982	20184.44
634.176	20012.41
634.369	19901.82
634.563	19565.95
634.757	19471.75
634.951	19377.54
635.145	19393.92
635.339	19490.18
635.533	19049.86
635.726	19395.97
635.92	18972.04
636.114	18793.87
636.308	18707.85
636.501	18685.33
636.695	18724.24
636.889	18417.04
637.083	18486.67
637.276	18230.68
637.47	18173.33
637.664	17984.92
637.857	18017.69
638.051	17792.41
638.244	17737.12
638.438	17587.61
638.632	17530.27
638.825	17458.59
639.019	17499.55
639.212	17290.66
639.406	16985.51
639.599	17526.18
639.793	17388.96
639.986	16750
640.18	16821.67
640.373	16936.36
640.567	16833.96
640.76	16590.25
640.954	16399.79
641.147	16498.09
641.34	16143.8
641.534	16475.57
641.727	16086.45
641.92	16354.74
642.114	15957.43
642.307	16016.82
642.5	15828.41
642.694	15838.65
642.887	15662.52
643.08	15840.7
643.273	15553.98
643.467	15543.74
643.66	15279.55
643.853	15318.46
644.046	15107.52
644.239	15191.49
644.432	15021.51
644.626	14816.71
644.819	14622.16
645.012	14792.14
645.205	14816.71
645.398	14738.89
645.591	14593.48
645.784	14626.25
645.977	14310.86
646.17	14564.81
646.363	14249.43
646.556	14138.83
646.749	14206.42
646.942	14220.75
647.135	14196.18
647.328	13868.5
647.521	13868.5
647.714	13819.35
647.907	13669.85
648.099	13721.05
648.292	13696.47
648.485	13759.96
648.678	13448.67
648.871	13286.88
649.064	13145.57
649.256	13331.94
649.449	13207.01
649.642	13327.84
649.835	12948.97
650.027	12811.75
650.22	13088.23
650.413	12930.53
650.605	12684.78
650.798	12789.22
650.991	12717.54
651.183	12430.83
651.376	12441.07
651.568	12641.77
651.761	12203.5
651.954	12240.37
652.146	12209.65
652.339	12180.98
652.531	12305.9
652.724	11918.84
652.916	11744.76
653.109	11779.57
653.301	11879.93
653.494	11947.51
653.686	11773.43
653.879	11816.44
654.071	11726.33
654.263	11535.87
654.456	11691.51
654.648	11759.1
654.84	11140.61
655.033	11277.82
655.225	11214.34
655.417	11052.55
655.61	11247.1
655.802	11159.04
655.994	11058.69
656.186	11052.55
656.379	10761.73
656.571	10886.66
656.763	10620.42
656.955	10671.62
657.148	10765.83
657.34	10563.08
657.532	10558.99
657.724	10352.14
657.916	10458.64
658.108	10374.67
658.3	10485.26
658.492	10298.89
658.684	10126.86
658.876	10194.45
659.068	10112.53
659.26	10176.02
659.452	10087.95
659.644	10118.67
659.836	9985.55
660.028	9973.27
660.22	9725.46
660.412	9659.93
660.604	9727.51
660.796	9698.84
660.988	9647.64
661.18	9618.97
661.372	9455.13
661.563	9549.34
661.755	9322.01
661.947	9385.5
662.139	9285.15
662.331	9238.05
662.522	9166.37
662.714	9199.13
662.906	9084.45
663.097	9190.94
663.289	8932.9
663.481	8885.8
663.673	9023.01
663.864	8762.92
664.056	8773.16
664.247	8799.78
664.439	8605.22
664.631	8721.96
664.822	8517.16
665.014	8683.05
665.205	8537.64
665.397	8531.5
665.588	8455.72
665.78	8447.53
665.971	8474.15
666.163	8500.78
666.354	8244.78
666.546	8314.41
666.737	8252.97
666.929	8218.16
667.12	8142.38
667.311	8197.68
667.503	8062.51
667.694	7970.35
667.885	7962.16
668.077	8068.66
668.268	8072.75
668.459	7835.19
668.651	7945.78
668.842	7679.54
669.033	7738.93
669.224	7505.46
669.416	7773.75
669.607	7855.67
669.798	7718.45
669.989	7607.86
670.18	7661.11
670.371	7697.97
670.563	7558.71
670.754	7464.5
670.945	7441.98
671.136	7355.96
671.327	7376.44
671.518	7265.85
671.709	7243.32
671.9	7192.12
672.091	7333.43
672.282	7073.34
672.473	7028.29
672.664	7157.31
672.855	7050.82
673.046	7259.71
673.237	7136.83
673.428	7061.05
673.619	7069.25
673.809	6981.18
674	7009.86
674.191	6975.04
674.382	6856.26
674.573	6903.36
674.764	6850.11
674.954	6872.64
675.145	6688.32
675.336	6790.72
675.527	6649.41
675.717	6800.96
675.908	6544.97
676.099	6723.14
676.289	6471.24
676.48	6553.16
676.671	6440.52
676.861	6680.13
677.052	6463.05
677.243	6391.37
677.433	6461
677.624	6583.88
677.814	6370.89
678.005	6331.98
678.195	6434.38
678.386	6426.18
678.576	6311.5
678.767	6305.35
678.957	6295.11
679.148	6325.83
679.338	6135.37
679.529	6207.05
679.719	6065.74
679.909	6311.5
680.1	6198.86
680.29	6219.34
680.481	5961.3
680.671	6086.22
680.861	6008.4
681.052	6006.35
681.242	5967.44
681.432	5994.06
681.622	5910.1
681.813	5877.33
682.003	5992.02
682.193	5637.72
682.383	5934.67
682.573	5805.65
682.764	5795.41
682.954	5885.52
683.144	5873.23
683.334	5723.73
683.524	5862.99
683.714	5719.64
683.904	5729.88
684.094	5656.15
684.284	5736.02
684.474	5662.29
684.664	5705.3
684.854	5637.72
685.044	5693.01
685.234	5547.61
685.424	5512.79
685.614	5627.48
685.804	5422.68
685.994	5547.61
686.184	5664.34
686.374	5445.21
686.564	5355.1
686.753	5570.13
686.943	5221.98
687.133	5402.2
687.323	5445.21
687.513	5299.8
687.702	5168.73
687.892	5271.13
688.082	5205.6
688.272	5181.02
688.461	5086.81
688.651	5238.36
688.841	5000.8
689.03	5150.3
689.22	4980.32
689.41	5045.85
689.599	4898.4
689.789	5064.29
689.979	4820.58
690.168	5174.88
690.358	4949.6
690.547	4884.06
690.737	4945.5
690.926	4898.4
691.116	4834.91
691.305	4894.3
691.495	4685.41
691.684	4673.12
691.874	4662.88
692.063	4871.78
692.252	4664.93
692.442	4691.56
692.631	4652.64
692.82	4691.56
693.01	4623.97
693.199	4662.88
693.388	4574.82
693.578	4568.68
693.767	4460.13
693.956	4482.66
694.146	4566.63
694.335	4515.43
694.524	4441.7
694.713	4492.9
694.902	4417.13
695.092	4499.05
695.281	4339.3
695.47	4415.08
695.659	4363.88
695.848	4376.17
696.037	4195.95
696.226	4441.7
696.415	4380.26
696.604	4349.54
696.793	4245.1
696.982	4290.15
697.171	4241
697.36	4312.68
697.549	4241
697.738	4259.43
697.927	4224.62
698.116	4204.14
698.305	4085.36
698.494	4099.69
698.683	4212.33
698.872	4105.84
699.061	4097.64
699.25	4122.22
699.438	4126.32
699.627	4124.27
699.816	4157.04
700.005	4009.58
700.193	4083.31
700.382	3964.53
700.571	3995.25
700.76	3919.47
700.948	3950.19
701.137	3923.57
701.326	3995.25
701.514	3960.43
701.703	3962.48
701.892	3917.42
702.08	4007.53
702.269	3866.22
702.457	3915.37
702.646	3950.19
702.834	3950.19
703.023	4034.16
703.212	3896.94
703.4	3960.43
703.589	3774.07
703.777	3870.32
703.965	3716.72
704.154	3683.95
704.342	3964.53
704.531	3757.68
704.719	3665.52
704.907	3759.73
705.096	3610.23
705.284	3782.26
705.472	3759.73
705.661	3593.84
705.849	3862.13
706.037	3741.3
706.226	3710.58
706.414	3694.19
706.602	3585.65
706.79	3712.63
706.979	3718.77
707.167	3585.65
707.355	3763.83
707.543	3657.33
707.731	3649.14
707.919	3499.64
708.107	3591.8
708.296	3468.92
708.484	3595.89
708.672	3780.21
708.86	3696.24
709.048	3599.99
709.236	3552.88
709.424	3387
709.612	3452.53
709.8	3487.35
709.988	3456.63
710.176	3608.18
710.364	3546.74
710.551	3466.87
710.739	3399.29
710.927	3427.96
711.115	3591.8
711.303	3417.72
711.491	3419.77
711.679	3516.02
711.866	3452.53
712.054	3358.33
712.242	3329.66
712.43	3503.73
712.617	3430.01
712.805	3202.68
712.993	3384.95
713.181	3255.93
713.368	3343.99
713.556	3548.79
713.744	3212.92
713.931	3415.67
714.119	3339.9
714.306	3288.7
714.494	3245.69
714.682	3214.97
714.869	3190.39
715.057	3128.95
715.244	3337.85
715.432	3352.18
715.619	3198.59
715.807	3229.31
715.994	3239.55
716.182	3229.31
716.369	3278.46
716.556	3341.94
716.744	3169.91
716.931	3253.88
717.119	3208.83
717.306	3339.9
717.493	3174.01
717.681	3192.44
717.868	3235.45
718.055	3184.25
718.242	3042.94
718.43	3161.72
718.617	3174.01
718.804	3094.14
718.991	3071.61
719.179	3012.22
719.366	3171.96
719.553	3118.72
719.74	3044.99
719.927	3026.56
720.114	3010.17
720.301	3153.53
720.488	3073.66
720.676	3051.13
720.863	3055.23
721.05	3063.42
721.237	3038.84
721.424	3122.81
721.611	3022.46
721.798	2938.49
721.985	2987.65
722.172	3044.99
722.358	2946.69
722.545	2983.55
722.732	3004.03
722.919	3065.47
723.106	2975.36
723.293	2903.68
723.48	2891.39
723.667	2868.86
723.853	2971.26
724.04	3053.18
724.227	3022.46
724.414	3026.56
724.6	2866.81
724.787	3018.36
724.974	2852.48
725.161	2958.97
725.347	2850.43
725.534	3020.41
725.72	2924.16
725.907	2848.38
726.094	2895.49
726.28	2895.49
726.467	2764.42
726.653	2825.86
726.84	2889.34
727.027	2772.61
727.213	2819.71
727.4	2875.01
727.586	2719.36
727.773	2870.91
727.959	2786.94
728.145	2776.7
728.332	2799.23
728.518	2733.7
728.705	2825.86
728.891	2842.24
729.077	2887.29
729.264	2774.66
729.45	2868.86
729.636	2737.79
729.823	2813.57
730.009	2752.13
730.195	2879.1
730.382	2756.22
730.568	2702.98
730.754	2627.2
730.94	2705.03
731.126	2668.16
731.313	2700.93
731.499	2563.72
731.685	2631.3
731.871	2602.63
732.057	2707.07
732.243	2655.87
732.429	2649.73
732.615	2709.12
732.801	2596.48
732.987	2592.39
733.173	2713.22
733.359	2477.7
733.545	2602.63
733.731	2594.44
733.917	2682.5
734.103	2653.83
734.289	2584.2
734.475	2657.92
734.661	2641.54
734.847	2578.05
735.033	2563.72
735.219	2684.55
735.404	2563.72
735.59	2594.44
735.776	2430.6
735.962	2514.56
736.148	2643.59
736.333	2645.63
736.519	2594.44
736.705	2518.66
736.89	2414.21
737.076	2453.13
737.262	2393.73
737.447	2385.54
737.633	2481.8
737.819	2543.24
738.004	2436.74
738.19	2446.98
738.375	2420.36
738.561	2502.28
738.747	2442.89
738.932	2375.3
739.118	2442.89
739.303	2383.49
739.489	2399.88
739.674	2408.07
739.859	2485.89
740.045	2479.75
740.23	2426.5
740.416	2442.89
740.601	2360.97
740.786	2383.49
740.972	2371.21
741.157	2301.58
741.342	2332.3
741.528	2252.42
741.713	2281.1
741.898	2248.33
742.084	2289.29
742.269	2262.66
742.454	2217.61
742.639	2256.52
742.824	2238.09
743.01	2231.94
743.195	2320.01
743.38	2150.03
743.565	2096.78
743.75	2141.83
743.935	2152.07
744.12	2053.77
744.305	2156.17
744.49	2154.12
744.675	2059.92
744.86	2162.31
745.045	2188.94
745.23	2217.61
745.415	2061.96
745.6	2182.79
745.785	2061.96
745.97	2152.07
746.155	2107.02
746.34	1957.52
746.525	2086.54
746.71	2057.87
746.895	1994.38
747.079	2051.72
747.264	1945.23
747.449	1965.71
747.634	1965.71
747.819	1937.04
748.003	1840.78
748.188	2002.57
748.373	1963.66
748.557	1984.14
748.742	1926.8
748.927	1941.13
749.111	1914.51
749.296	1844.88
749.481	1808.02
749.665	1758.86
749.85	1781.39
750.034	1803.92
750.219	1785.49
750.404	1668.75
750.588	1775.25
750.773	1830.54
750.957	1736.34
751.141	1736.34
751.326	1627.79
751.51	1681.04
751.695	1660.56
751.879	1730.19
752.064	1781.39
752.248	1738.38
752.432	1658.51
752.617	1648.27
752.801	1728.14
752.985	1666.71
753.17	1568.4
753.354	1554.07
753.538	1666.71
753.722	1687.18
753.907	1515.16
754.091	1558.16
754.275	1586.83
754.459	1531.54
754.643	1515.16
754.828	1509.01
755.012	1515.16
755.196	1414.81
755.38	1400.47
755.564	1404.57
755.748	1402.52
755.932	1502.87
756.116	1523.35
756.3	1404.57
756.484	1482.39
756.668	1347.22
756.852	1384.09
757.036	1406.61
757.22	1330.84
757.404	1379.99
757.588	1365.65
757.772	1357.46
757.956	1355.41
758.14	1373.85
758.323	1265.3
758.507	1302.17
758.691	1312.41
758.875	1275.54
759.059	1318.55
759.242	1300.12
759.426	1220.25
759.61	1291.93
759.794	1367.7
759.977	1220.25
760.161	1248.92
760.345	1193.62
760.528	1220.25
760.712	1212.06
760.895	1220.25
761.079	1236.63
761.263	1250.97
761.446	1212.06
761.63	1173.14
761.813	1207.96
761.997	1144.47
762.18	1183.38
762.364	1111.71
762.547	1154.71
762.731	1162.9
762.914	1101.47
763.098	1078.94
763.281	1257.11
763.464	1146.52
763.648	1185.43
763.831	1179.29
764.015	1162.9
764.198	1064.6
764.381	1228.44
764.564	1103.51
764.748	1050.27
764.931	1099.42
765.114	1072.79
765.297	1193.62
765.481	1058.46
765.664	1078.94
765.847	1146.52
766.03	1076.89
766.213	1050.27
766.397	1068.7
766.58	1011.36
766.763	1054.36
766.946	1068.7
767.129	1031.83
767.312	937.63
767.495	1007.26
767.678	1007.26
767.861	1027.74
768.044	960.16
768.227	972.44
768.41	990.88
768.593	1046.17
768.776	1033.88
768.959	1078.94
769.142	994.97
769.324	1035.93
769.507	1011.36
769.69	900.76
769.873	911
770.056	1037.98
770.239	951.96
770.421	976.54
770.604	896.67
770.787	988.83
770.97	951.96
771.152	937.63
771.335	978.59
771.518	902.81
771.7	958.11
771.883	874.14
772.066	943.77
772.248	898.72
772.431	908.96
772.613	937.63
772.796	902.81
772.978	904.86
773.161	904.86
773.343	917.15
773.526	890.53
773.708	808.61
773.891	784.03
774.073	810.65
774.256	845.47
774.438	810.65
774.621	822.94
774.803	822.94
774.985	818.85
775.168	816.8
775.35	818.85
775.532	757.41
775.715	767.65
775.897	726.69
776.079	736.93
776.261	769.69
776.444	755.36
776.626	681.63
776.808	732.83
776.99	718.5
777.173	718.5
777.355	736.93
777.537	761.5
777.719	798.37
777.901	773.79
778.083	794.27
778.265	671.39
778.447	775.84
778.629	700.06
778.811	720.54
778.993	661.15
779.175	722.59
779.357	720.54
779.539	579.23
779.721	704.16
779.903	738.98
780.085	671.39
780.267	616.1
780.449	607.91
780.631	673.44
780.812	646.82
780.994	638.62
781.176	591.52
781.358	620.19
781.54	659.1
781.721	636.58
781.903	673.44
782.085	513.7
782.267	614.05
782.448	644.77
782.63	577.19
782.812	659.1
782.993	511.65
783.175	540.32
783.357	599.71
783.538	603.81
783.72	497.32
783.901	511.65
784.083	548.51
784.264	558.75
784.446	536.23
784.627	521.89
784.809	566.95
784.99	544.42
785.172	505.51
785.353	519.84
785.535	513.7
785.716	581.28
785.897	550.56
786.079	460.45
786.26	480.93
786.441	485.03
786.623	421.54
786.804	454.31
786.985	530.08
787.167	431.78
787.348	444.07
787.529	405.16
787.71	517.79
787.891	409.25
788.073	403.11
788.254	446.12
788.435	446.12
788.616	437.92
788.797	403.11
788.978	429.73
789.159	450.21
789.34	419.49
789.522	407.2
789.703	349.86
789.884	415.4
790.065	427.68
790.246	431.78
790.427	401.06
790.607	376.48
790.788	458.4
790.969	392.87
791.15	403.11
791.331	362.15
791.512	409.25
791.693	396.96
791.874	374.44
792.054	347.81
792.235	396.96
792.416	286.37
792.597	321.19
792.778	380.58
792.958	419.49
793.139	347.81
793.32	411.3
793.5	411.3
793.681	384.68
793.862	317.09
794.042	341.67
794.223	272.04
794.404	337.57
794.584	200.36
794.765	290.47
794.945	378.53
795.126	323.24
795.306	372.39
795.487	396.96
795.667	364.2
795.848	333.48
796.028	399.01
796.209	298.66
796.389	347.81
796.57	263.85
796.75	368.29
796.93	261.8
797.111	237.22
797.291	321.19
797.471	243.37
797.652	255.65
797.832	337.57
798.012	374.44
798.192	298.66
798.373	253.61
798.553	239.27
798.733	310.95
798.913	188.07
799.093	333.48
799.274	245.41
799.454	235.18
799.634	306.85
799.814	313
799.994	278.18
800.174	335.53
800.354	288.42
800.534	315.05
800.714	190.12
800.894	243.37
801.074	319.14
801.254	298.66
801.434	261.8
801.614	249.51
801.794	267.94
801.974	548.51
802.154	216.74
802.334	177.83
802.514	243.37
802.693	210.6
802.873	263.85
803.053	292.52
803.233	249.51
803.413	253.61
803.592	196.26
803.772	231.08
803.952	310.95
804.131	222.89
804.311	216.74
804.491	196.26
804.67	251.56
804.85	212.65
805.03	202.41
805.209	292.52
805.389	245.41
805.568	196.26
805.748	216.74
805.928	249.51
806.107	251.56
806.287	255.65
806.466	169.64
806.646	181.93
806.825	253.61
807.004	233.13
807.184	212.65
807.363	229.03
807.543	208.55
807.722	226.98
807.901	216.74
808.081	196.26
808.26	167.59
808.439	296.61
808.619	208.55
808.798	190.12
808.977	210.6
809.156	206.5
809.336	212.65
809.515	216.74
809.694	190.12
809.873	229.03
810.052	220.84
810.231	192.17
810.411	175.78
810.59	173.74
810.769	222.89
810.948	243.37
811.127	188.07
811.306	132.78
811.485	165.54
811.664	226.98
811.843	216.74
812.022	202.41
812.201	204.46
812.38	216.74
812.559	83.63
812.737	145.06
812.916	118.44
813.095	126.63
813.274	145.06
813.453	157.35
813.632	102.06
813.811	128.68
813.989	190.12
814.168	153.26
814.347	124.58
814.526	179.88
814.704	132.78
814.883	186.02
815.062	167.59
815.24	192.17
815.419	190.12
815.598	124.58
815.776	97.96
815.955	159.4
816.133	116.39
816.312	157.35
816.49	165.54
816.669	149.16
816.847	181.93
817.026	159.4
817.204	132.78
817.383	134.82
817.561	104.11
817.74	210.6
817.918	140.97
818.097	157.35
818.275	143.02
818.453	48.81
818.632	163.5
818.81	138.92
818.988	108.2
819.167	89.77
819.345	198.31
819.523	132.78
819.701	196.26
819.879	214.7
820.058	112.3
820.236	153.26
820.414	108.2
820.592	110.25
820.77	165.54
820.948	145.06
821.127	204.46
821.305	106.15
821.483	190.12
821.661	167.59
821.839	79.53
822.017	126.63
822.195	59.05
822.373	130.73
822.551	155.3
822.729	112.3
822.907	104.11
823.085	85.67
823.262	179.88
823.44	108.2
823.618	52.91
823.796	124.58
823.974	108.2
824.152	95.91
824.329	83.63
824.507	42.67
824.685	104.11
824.863	136.87
825.04	126.63
825.218	192.17
825.396	81.58
825.574	106.15
825.751	50.86
825.929	110.25
826.107	140.97
826.284	48.81
826.462	110.25
826.639	104.11
826.817	52.91
826.994	169.64
827.172	147.11
827.349	128.68
827.527	116.39
827.704	153.26
827.882	130.73
828.059	169.64
828.237	143.02
828.414	132.78
828.591	102.06
828.769	73.39
828.946	91.82
829.124	95.91
829.301	169.64
829.478	130.73
829.655	75.43
829.833	128.68
830.01	100.01
830.187	110.25
830.364	63.15
830.542	126.63
830.719	110.25
830.896	81.58
831.073	57
831.25	26.28
831.427	147.11
831.604	147.11
831.782	85.67
831.959	118.44
832.136	91.82
832.313	69.29
832.49	30.38
832.667	93.87
832.844	102.06
833.021	95.91
833.198	59.05
833.374	153.26
833.551	71.34
833.728	13.99
833.905	75.43
834.082	95.91
834.259	77.48
834.436	130.73
834.612	83.63
834.789	110.25
834.966	69.29
835.143	122.54
835.319	97.96
835.496	116.39
835.673	110.25
835.85	54.95
836.026	140.97
836.203	97.96
836.38	59.05
836.556	61.1
836.733	102.06
836.909	124.58
837.086	-12.63
837.262	28.33
837.439	57
837.616	102.06
837.792	34.47
837.968	73.39
838.145	44.71
838.321	34.47
838.498	112.3
838.674	63.15
838.851	77.48
839.027	89.77
839.203	65.19
839.38	149.16
839.556	46.76
839.732	179.88
839.909	32.43
840.085	112.3
840.261	42.67
840.437	38.57
840.614	85.67
840.79	97.96
840.966	30.38
841.142	52.91
841.318	65.19
841.494	40.62
841.671	-43.35
841.847	102.06
842.023	30.38
842.199	108.2
842.375	83.63
842.551	100.01
842.727	48.81
842.903	26.28
843.079	95.91
843.255	122.54
843.431	34.47
843.607	36.52
843.783	-0.34
843.959	79.53
844.134	36.52
844.31	63.15
844.486	-10.58
844.662	42.67
844.838	151.21
845.013	95.91
845.189	11.95
845.365	89.77
845.541	50.86
845.716	-43.35
845.892	22.19
846.068	11.95
846.244	65.19
846.419	95.91
846.595	114.34
846.77	34.47
846.946	83.63
847.122	61.1
847.297	-10.58
847.473	59.05
847.648	22.19
847.824	20.14
847.999	67.24
848.175	67.24
848.35	-24.92
848.526	124.58
848.701	75.43
848.876	100.01
849.052	61.1
849.227	30.38
849.403	24.23
849.578	71.34
849.753	52.91
849.929	95.91
850.104	-35.16
850.279	126.63
850.454	93.87
850.63	46.76
850.805	61.1
850.98	22.19
851.155	-24.92
851.33	65.19
851.505	-22.87
851.681	147.11
851.856	69.29
852.031	28.33
852.206	79.53
852.381	38.57
852.556	7.85
852.731	79.53
852.906	108.2
853.081	9.9
853.256	52.91
853.431	75.43
853.606	-29.01
853.781	81.58
853.956	-31.06
854.131	36.52
854.305	24.23
854.48	32.43
854.655	114.34
854.83	20.14
855.005	32.43
855.18	87.72
855.354	-14.68
855.529	65.19
855.704	9.9
855.879	30.38
856.053	46.76
856.228	30.38
856.403	57
856.577	114.34
856.752	77.48
856.926	54.95
857.101	36.52
857.276	11.95
857.45	36.52
857.625	52.91
857.799	13.99
857.974	79.53
858.148	22.19
858.323	7.85
858.497	52.91
858.672	44.71
858.846	-18.77
859.02	81.58
859.195	-45.4
859.369	-6.49
859.543	40.62
859.718	28.33
859.892	67.24
860.066	44.71
860.241	69.29
860.415	32.43
860.589	18.09
860.763	50.86
860.938	50.86
861.112	-18.77
861.286	89.77
861.46	79.53
861.634	63.15
861.808	54.95
861.982	32.43
862.157	13.99
862.331	24.23
862.505	42.67
862.679	46.76
862.853	-20.82
863.027	1.71
863.201	67.24
863.375	-0.34
863.549	-10.58
863.722	28.33
863.896	13.99
864.07	63.15
864.244	81.58
864.418	-2.39
864.592	-26.96
864.766	77.48
864.939	34.47
865.113	52.91
865.287	38.57
865.461	38.57
865.634	9.9
865.808	54.95
865.982	38.57
866.156	30.38
866.329	20.14
866.503	13.99
866.676	3.75
866.85	26.28
867.024	75.43
867.197	13.99
867.371	13.99
867.544	-20.82
867.718	-24.92
867.891	77.48
868.065	93.87
868.238	24.23
868.412	13.99
868.585	18.09
868.759	1.71
868.932	63.15
869.105	11.95
869.279	-4.44
869.452	-35.16
869.625	48.81
869.799	-31.06
869.972	-8.53
870.145	67.24
870.319	11.95
870.492	-6.49
870.665	32.43
870.838	73.39
871.011	-4.44
871.185	42.67
871.358	30.38
871.531	22.19
871.704	-8.53
871.877	-8.53
872.05	24.23
872.223	-8.53
872.396	16.04
872.569	40.62
872.742	-4.44
872.915	13.99
873.088	-26.96
873.261	-8.53
873.434	3.75
873.607	-47.44
873.78	22.19
873.953	-8.53
874.126	30.38
874.299	-4.44
874.471	-20.82
874.644	-8.53
874.817	26.28
874.99	20.14
875.163	-33.11
875.335	34.47
875.508	83.63
875.681	48.81
875.853	71.34
876.026	34.47
876.199	22.19
876.371	-4.44
876.544	1.71
876.717	44.71
876.889	24.23
877.062	-12.63
877.234	3.75
877.407	38.57
877.579	50.86
877.752	5.8
877.924	-20.82
878.097	36.52
878.269	50.86
878.442	-20.82
878.614	16.04
878.786	1.71
878.959	-63.83
879.131	54.95
879.303	38.57
879.476	28.33
879.648	52.91
879.82	-6.49
879.993	-4.44
880.165	20.14
880.337	16.04
880.509	28.33
880.681	34.47
880.854	26.28
881.026	-26.96
881.198	46.76
881.37	-12.63
881.542	48.81
881.714	-12.63
881.886	50.86
882.058	63.15
882.23	57
882.402	59.05
882.574	5.8
882.746	11.95
882.918	-29.01
883.09	-47.44
883.262	44.71
883.434	22.19
883.606	-33.11
883.778	9.9
883.95	91.82
884.122	13.99
884.293	87.72
884.465	7.85
884.637	48.81
884.809	20.14
884.98	48.81
885.152	-2.39
885.324	11.95
885.496	-53.59
885.667	-74.07
885.839	9.9
886.011	20.14
886.182	-18.77
886.354	-26.96
886.525	24.23
886.697	46.76
886.869	11.95
887.04	50.86
887.212	-14.68
887.383	50.86
887.555	22.19
887.726	7.85
887.897	50.86
888.069	34.47
888.24	32.43
888.412	-16.73
888.583	36.52
888.754	48.81
888.926	-22.87
889.097	3.75
889.268	-35.16
889.44	-8.53
889.611	-20.82
889.782	-51.54
889.953	-16.73
890.125	57
890.296	1.71
890.467	30.38
890.638	-2.39
890.809	61.1
890.98	-31.06
891.151	18.09
891.323	65.19
891.494	-69.97
891.665	-31.06
891.836	-31.06
892.007	9.9
892.178	93.87
892.349	-2.39
892.52	-33.11
892.691	-16.73
892.862	13.99
893.032	20.14
893.203	89.77
893.374	-12.63
893.545	-18.77
893.716	54.95
893.887	36.52
894.057	42.67
894.228	52.91
894.399	-0.34
894.57	30.38
894.74	1.71
894.911	16.04
895.082	-31.06
895.253	-22.87
895.423	-22.87
895.594	1.71
895.764	9.9
895.935	67.24
896.106	89.77
896.276	13.99
896.447	-12.63
896.617	-22.87
896.788	38.57
896.958	-63.83
897.129	7.85
897.299	-8.53
897.47	-31.06
897.64	34.47
897.81	26.28
897.981	1.71
898.151	-55.64
898.322	40.62
898.492	26.28
898.662	44.71
898.832	67.24
899.003	-39.25
899.173	-10.58
899.343	-26.96
899.513	9.9
