Data from USB4F104151__37__12-35-46-040.txt Node

Date: Fri Mar 14 12:35:46 EDT 2025
User: louis
Spectrometer: USB4F10415
Trigger mode: 4
Integration Time (sec): 2.000000E-2
Scans to average: 1
Electric dark correction enabled: true
Nonlinearity correction enabled: false
Boxcar width: 0
XAxis mode: Wavelengths
Number of Pixels in Spectrum: 3648
>>>>>Begin Spectral Data<<<<<
178.204	-95.74
178.424	-95.74
178.644	-95.74
178.864	-87.55
179.084	-134.65
179.304	23.04
179.524	-56.83
179.744	-13.82
179.964	6.66
180.184	-3.58
180.404	68.09
180.624	16.9
180.844	-22.02
181.064	-15.87
181.283	18.94
181.503	-42.5
181.723	20.99
181.943	10.75
182.163	80.38
182.383	61.95
182.602	31.23
182.822	53.76
183.042	74.24
183.262	0.51
183.482	29.18
183.701	10.75
183.921	55.81
184.141	-17.92
184.361	80.38
184.58	27.14
184.8	6.66
185.02	-56.83
185.239	74.24
185.459	18.94
185.679	37.38
185.898	-9.73
186.118	33.28
186.338	-15.87
186.557	37.38
186.777	-28.16
186.997	70.14
187.216	-11.78
187.436	55.81
187.655	16.9
187.875	41.47
188.095	-17.92
188.314	68.09
188.534	43.52
188.753	-36.35
188.973	31.23
189.192	18.94
189.412	49.66
189.631	-11.78
189.851	6.66
190.07	27.14
190.29	-3.58
190.509	31.23
190.729	33.28
190.948	27.14
191.168	102.91
191.387	37.38
191.607	-48.64
191.826	-22.02
192.045	12.8
192.265	-58.88
192.484	64
192.704	0.51
192.923	-40.45
193.142	31.23
193.362	-42.5
193.581	74.24
193.8	43.52
194.02	-1.54
194.239	49.66
194.458	61.95
194.678	-22.02
194.897	-3.58
195.116	10.75
195.335	59.9
195.555	51.71
195.774	-34.3
195.993	29.18
196.212	-5.63
196.432	10.75
196.651	88.57
196.87	55.81
197.089	31.23
197.308	88.57
197.528	68.09
197.747	-65.02
197.966	14.85
198.185	45.57
198.404	-44.54
198.623	-13.82
198.842	10.75
199.062	88.57
199.281	74.24
199.5	35.33
199.719	66.05
199.938	12.8
200.157	43.52
200.376	18.94
200.595	111.1
200.814	8.7
201.033	74.24
201.252	39.42
201.471	49.66
201.69	78.33
201.909	-1.54
202.128	68.09
202.347	-22.02
202.566	-17.92
202.785	-13.82
203.004	-46.59
203.223	107.01
203.442	12.8
203.661	47.62
203.879	-9.73
204.098	31.23
204.317	12.8
204.536	10.75
204.755	-11.78
204.974	29.18
205.193	57.86
205.411	70.14
205.63	-5.63
205.849	14.85
206.068	2.56
206.287	55.81
206.505	61.95
206.724	20.99
206.943	35.33
207.162	51.71
207.381	8.7
207.599	10.75
207.818	-13.82
208.037	16.9
208.255	41.47
208.474	23.04
208.693	125.44
208.911	-3.58
209.13	-13.82
209.349	51.71
209.567	78.33
209.786	-17.92
210.005	0.51
210.223	27.14
210.442	-60.93
210.661	0.51
210.879	84.48
211.098	-36.35
211.316	29.18
211.535	27.14
211.753	-62.98
211.972	82.43
212.191	27.14
212.409	-28.16
212.628	68.09
212.846	64
213.065	78.33
213.283	29.18
213.502	53.76
213.72	18.94
213.938	16.9
214.157	90.62
214.375	-19.97
214.594	-1.54
214.812	61.95
215.031	-28.16
215.249	-30.21
215.467	-46.59
215.686	43.52
215.904	61.95
216.122	-3.58
216.341	-13.82
216.559	27.14
216.778	-7.68
216.996	74.24
217.214	-42.5
217.432	39.42
217.651	25.09
217.869	16.9
218.087	35.33
218.306	49.66
218.524	-13.82
218.742	-3.58
218.96	4.61
219.179	43.52
219.397	-19.97
219.615	-11.78
219.833	14.85
220.051	98.81
220.27	6.66
220.488	92.67
220.706	20.99
220.924	-30.21
221.142	64
221.36	39.42
221.578	31.23
221.796	14.85
222.015	45.57
222.233	0.51
222.451	33.28
222.669	53.76
222.887	66.05
223.105	43.52
223.323	53.76
223.541	-26.11
223.759	70.14
223.977	-32.26
224.195	84.48
224.413	31.23
224.631	12.8
224.849	66.05
225.067	68.09
225.285	-7.68
225.503	33.28
225.721	-42.5
225.939	-42.5
226.157	27.14
226.375	64
226.592	-50.69
226.81	25.09
227.028	74.24
227.246	72.19
227.464	53.76
227.682	-36.35
227.9	35.33
228.117	55.81
228.335	-5.63
228.553	94.72
228.771	43.52
228.989	133.63
229.206	104.96
229.424	23.04
229.642	43.52
229.86	6.66
230.077	29.18
230.295	18.94
230.513	61.95
230.731	35.33
230.948	51.71
231.166	31.23
231.384	6.66
231.601	18.94
231.819	-36.35
232.037	94.72
232.254	-56.83
232.472	-54.78
232.689	72.19
232.907	-58.88
233.125	53.76
233.342	-42.5
233.56	49.66
233.777	-13.82
233.995	-40.45
234.213	47.62
234.43	68.09
234.648	4.61
234.865	23.04
235.083	27.14
235.3	-15.87
235.518	33.28
235.735	-7.68
235.953	16.9
236.17	-19.97
236.388	25.09
236.605	-7.68
236.822	25.09
237.04	25.09
237.257	-7.68
237.475	47.62
237.692	80.38
237.909	66.05
238.127	6.66
238.344	47.62
238.562	23.04
238.779	-9.73
238.996	41.47
239.214	-3.58
239.431	49.66
239.648	-13.82
239.865	20.99
240.083	2.56
240.3	53.76
240.517	-24.06
240.735	-3.58
240.952	72.19
241.169	18.94
241.386	51.71
241.603	55.81
241.821	-5.63
242.038	27.14
242.255	39.42
242.472	-1.54
242.689	25.09
242.907	78.33
243.124	-1.54
243.341	-15.87
243.558	55.81
243.775	-13.82
243.992	-30.21
244.209	-22.02
244.426	-50.69
244.643	25.09
244.86	-67.07
245.078	84.48
245.295	18.94
245.512	66.05
245.729	18.94
245.946	-9.73
246.163	6.66
246.38	14.85
246.597	10.75
246.814	25.09
247.031	-54.78
247.248	49.66
247.464	-38.4
247.681	-36.35
247.898	-1.54
248.115	61.95
248.332	-44.54
248.549	45.57
248.766	98.81
248.983	49.66
249.2	72.19
249.417	-17.92
249.633	-30.21
249.85	55.81
250.067	16.9
250.284	90.62
250.501	25.09
250.717	98.81
250.934	-5.63
251.151	10.75
251.368	4.61
251.585	35.33
251.801	27.14
252.018	-7.68
252.235	33.28
252.451	10.75
252.668	47.62
252.885	-3.58
253.102	-52.74
253.318	-36.35
253.535	10.75
253.752	43.52
253.968	16.9
254.185	-36.35
254.401	68.09
254.618	-26.11
254.835	29.18
255.051	59.9
255.268	31.23
255.484	18.94
255.701	2.56
255.917	-11.78
256.134	37.38
256.351	29.18
256.567	-42.5
256.784	70.14
257	12.8
257.217	-9.73
257.433	43.52
257.65	82.43
257.866	43.52
258.082	2.56
258.299	-48.64
258.515	-7.68
258.732	-11.78
258.948	29.18
259.165	90.62
259.381	25.09
259.597	43.52
259.814	-15.87
260.03	23.04
260.246	20.99
260.463	74.24
260.679	66.05
260.895	-7.68
261.112	102.91
261.328	16.9
261.544	-7.68
261.761	31.23
261.977	-17.92
262.193	-9.73
262.409	35.33
262.626	84.48
262.842	47.62
263.058	-1.54
263.274	20.99
263.49	51.71
263.707	57.86
263.923	4.61
264.139	27.14
264.355	6.66
264.571	84.48
264.787	88.57
265.004	-1.54
265.22	20.99
265.436	-11.78
265.652	41.47
265.868	31.23
266.084	-17.92
266.3	12.8
266.516	51.71
266.732	43.52
266.948	53.76
267.164	57.86
267.38	31.23
267.596	29.18
267.812	20.99
268.028	35.33
268.244	12.8
268.46	61.95
268.676	-5.63
268.892	14.85
269.108	-30.21
269.324	49.66
269.54	18.94
269.756	20.99
269.972	10.75
270.188	-5.63
270.403	4.61
270.619	45.57
270.835	31.23
271.051	33.28
271.267	72.19
271.483	55.81
271.698	27.14
271.914	174.59
272.13	-19.97
272.346	121.34
272.562	-52.74
272.777	78.33
272.993	25.09
273.209	53.76
273.425	45.57
273.64	-95.74
273.856	76.29
274.072	45.57
274.287	35.33
274.503	107.01
274.719	39.42
274.934	2.56
275.15	-79.36
275.366	59.9
275.581	-1.54
275.797	16.9
276.012	-5.63
276.228	107.01
276.444	18.94
276.659	-7.68
276.875	55.81
277.09	6.66
277.306	66.05
277.521	70.14
277.737	-7.68
277.952	-7.68
278.168	-3.58
278.383	66.05
278.599	-3.58
278.814	51.71
279.03	27.14
279.245	61.95
279.461	6.66
279.676	78.33
279.892	98.81
280.107	49.66
280.322	68.09
280.538	-30.21
280.753	-60.93
280.969	35.33
281.184	31.23
281.399	33.28
281.615	57.86
281.83	80.38
282.045	-44.54
282.26	51.71
282.476	33.28
282.691	92.67
282.906	35.33
283.122	8.7
283.337	33.28
283.552	47.62
283.767	14.85
283.983	51.71
284.198	37.38
284.413	14.85
284.628	-22.02
284.843	57.86
285.058	41.47
285.274	-11.78
285.489	2.56
285.704	43.52
285.919	25.09
286.134	31.23
286.349	8.7
286.564	0.51
286.779	14.85
286.995	53.76
287.21	23.04
287.425	12.8
287.64	-30.21
287.855	27.14
288.07	41.47
288.285	39.42
288.5	72.19
288.715	29.18
288.93	33.28
289.145	64
289.36	43.52
289.575	-32.26
289.79	92.67
290.004	74.24
290.219	37.38
290.434	51.71
290.649	-7.68
290.864	90.62
291.079	-19.97
291.294	37.38
291.509	10.75
291.724	25.09
291.938	39.42
292.153	39.42
292.368	-11.78
292.583	6.66
292.798	98.81
293.012	25.09
293.227	14.85
293.442	-40.45
293.657	64
293.871	64
294.086	127.49
294.301	41.47
294.516	51.71
294.73	0.51
294.945	29.18
295.16	23.04
295.374	84.48
295.589	2.56
295.804	41.47
296.018	-11.78
296.233	92.67
296.447	12.8
296.662	64
296.877	61.95
297.091	-17.92
297.306	86.53
297.52	-3.58
297.735	59.9
297.949	76.29
298.164	84.48
298.378	14.85
298.593	68.09
298.807	78.33
299.022	59.9
299.236	-30.21
299.451	55.81
299.665	49.66
299.88	53.76
300.094	18.94
300.309	-3.58
300.523	55.81
300.737	18.94
300.952	0.51
301.166	-40.45
301.381	-34.3
301.595	25.09
301.809	25.09
302.024	31.23
302.238	-17.92
302.452	55.81
302.667	-44.54
302.881	23.04
303.095	12.8
303.309	61.95
303.524	-32.26
303.738	18.94
303.952	-13.82
304.166	74.24
304.381	-30.21
304.595	70.14
304.809	47.62
305.023	20.99
305.237	12.8
305.452	61.95
305.666	76.29
305.88	16.9
306.094	49.66
306.308	8.7
306.522	2.56
306.736	72.19
306.95	33.28
307.164	-28.16
307.379	-3.58
307.593	-7.68
307.807	41.47
308.021	29.18
308.235	72.19
308.449	12.8
308.663	-11.78
308.877	6.66
309.091	66.05
309.305	-3.58
309.519	70.14
309.733	-15.87
309.947	12.8
310.161	84.48
310.374	14.85
310.588	23.04
310.802	43.52
311.016	39.42
311.23	64
311.444	6.66
311.658	43.52
311.872	86.53
312.085	72.19
312.299	61.95
312.513	33.28
312.727	53.76
312.941	8.7
313.154	-15.87
313.368	92.67
313.582	70.14
313.796	59.9
314.009	94.72
314.223	-38.4
314.437	51.71
314.651	78.33
314.864	39.42
315.078	6.66
315.292	-9.73
315.505	-58.88
315.719	29.18
315.933	-34.3
316.146	23.04
316.36	121.34
316.573	43.52
316.787	27.14
317.001	-3.58
317.214	27.14
317.428	-9.73
317.641	39.42
317.855	25.09
318.068	23.04
318.282	-34.3
318.495	14.85
318.709	33.28
318.922	18.94
319.136	12.8
319.349	35.33
319.563	-36.35
319.776	59.9
319.99	4.61
320.203	8.7
320.417	98.81
320.63	14.85
320.843	45.57
321.057	45.57
321.27	70.14
321.483	98.81
321.697	31.23
321.91	-13.82
322.124	107.01
322.337	53.76
322.55	-36.35
322.763	61.95
322.977	70.14
323.19	-26.11
323.403	31.23
323.617	35.33
323.83	98.81
324.043	29.18
324.256	-22.02
324.469	20.99
324.683	51.71
324.896	-19.97
325.109	43.52
325.322	-75.26
325.535	16.9
325.748	27.14
325.962	-30.21
326.175	84.48
326.388	18.94
326.601	64
326.814	23.04
327.027	78.33
327.24	29.18
327.453	-26.11
327.666	23.04
327.879	80.38
328.092	31.23
328.305	68.09
328.518	29.18
328.731	57.86
328.944	27.14
329.157	-3.58
329.37	-54.78
329.583	35.33
329.796	2.56
330.009	-3.58
330.222	33.28
330.435	92.67
330.648	16.9
330.861	43.52
331.073	-44.54
331.286	-56.83
331.499	8.7
331.712	55.81
331.925	4.61
332.138	57.86
332.35	10.75
332.563	107.01
332.776	84.48
332.989	-28.16
333.202	78.33
333.414	25.09
333.627	37.38
333.84	25.09
334.053	18.94
334.265	10.75
334.478	-17.92
334.691	41.47
334.903	80.38
335.116	12.8
335.329	-7.68
335.541	23.04
335.754	61.95
335.966	47.62
336.179	29.18
336.392	82.43
336.604	-38.4
336.817	88.57
337.029	57.86
337.242	-28.16
337.454	-32.26
337.667	23.04
337.88	12.8
338.092	10.75
338.305	27.14
338.517	-40.45
338.729	94.72
338.942	84.48
339.154	-15.87
339.367	-19.97
339.579	35.33
339.792	57.86
340.004	43.52
340.217	109.05
340.429	20.99
340.641	55.81
340.854	51.71
341.066	0.51
341.278	86.53
341.491	45.57
341.703	35.33
341.915	-13.82
342.128	78.33
342.34	27.14
342.552	27.14
342.764	-34.3
342.977	45.57
343.189	-62.98
343.401	51.71
343.613	33.28
343.826	68.09
344.038	-42.5
344.25	51.71
344.462	10.75
344.674	-11.78
344.886	-3.58
345.099	-30.21
345.311	35.33
345.523	23.04
345.735	-19.97
345.947	66.05
346.159	47.62
346.371	14.85
346.583	-9.73
346.795	18.94
347.007	25.09
347.219	78.33
347.431	2.56
347.643	74.24
347.855	43.52
348.067	14.85
348.279	4.61
348.491	0.51
348.703	2.56
348.915	100.86
349.127	31.23
349.339	121.34
349.551	59.9
349.763	80.38
349.975	33.28
350.187	70.14
350.399	68.09
350.61	18.94
350.822	51.71
351.034	72.19
351.246	68.09
351.458	18.94
351.669	92.67
351.881	35.33
352.093	94.72
352.305	96.77
352.517	18.94
352.728	82.43
352.94	25.09
353.152	53.76
353.363	-30.21
353.575	33.28
353.787	76.29
353.999	25.09
354.21	49.66
354.422	-7.68
354.633	29.18
354.845	-9.73
355.057	-15.87
355.268	66.05
355.48	29.18
355.692	-11.78
355.903	20.99
356.115	-11.78
356.326	-17.92
356.538	123.39
356.749	57.86
356.961	18.94
357.172	-101.89
357.384	61.95
357.595	37.38
357.807	41.47
358.018	45.57
358.23	20.99
358.441	59.9
358.653	111.1
358.864	-52.74
359.075	31.23
359.287	-13.82
359.498	57.86
359.709	49.66
359.921	94.72
360.132	20.99
360.344	4.61
360.555	74.24
360.766	51.71
360.977	94.72
361.189	107.01
361.4	135.68
361.611	68.09
361.823	100.86
362.034	53.76
362.245	16.9
362.456	39.42
362.667	39.42
362.879	-38.4
363.09	29.18
363.301	10.75
363.512	94.72
363.723	47.62
363.935	14.85
364.146	53.76
364.357	51.71
364.568	-11.78
364.779	51.71
364.99	59.9
365.201	49.66
365.412	86.53
365.623	20.99
365.834	90.62
366.045	18.94
366.256	16.9
366.467	43.52
366.678	61.95
366.889	55.81
367.1	88.57
367.311	27.14
367.522	-26.11
367.733	74.24
367.944	70.14
368.155	47.62
368.366	18.94
368.577	27.14
368.788	94.72
368.999	96.77
369.209	90.62
369.42	16.9
369.631	94.72
369.842	59.9
370.053	14.85
370.264	98.81
370.474	4.61
370.685	102.91
370.896	18.94
371.107	49.66
371.317	55.81
371.528	55.81
371.739	16.9
371.95	76.29
372.16	88.57
372.371	8.7
372.582	53.76
372.792	27.14
373.003	74.24
373.214	12.8
373.424	68.09
373.635	-3.58
373.846	-13.82
374.056	25.09
374.267	35.33
374.477	29.18
374.688	64
374.898	4.61
375.109	31.23
375.319	64
375.53	43.52
375.74	12.8
375.951	-48.64
376.161	41.47
376.372	27.14
376.582	-28.16
376.793	55.81
377.003	47.62
377.214	-7.68
377.424	82.43
377.635	29.18
377.845	72.19
378.055	6.66
378.266	2.56
378.476	92.67
378.686	78.33
378.897	35.33
379.107	33.28
379.317	20.99
379.528	39.42
379.738	64
379.948	37.38
380.158	35.33
380.369	90.62
380.579	-3.58
380.789	35.33
380.999	-5.63
381.21	72.19
381.42	96.77
381.63	135.68
381.84	76.29
382.05	14.85
382.261	98.81
382.471	41.47
382.681	-1.54
382.891	131.58
383.101	84.48
383.311	39.42
383.521	55.81
383.731	57.86
383.941	59.9
384.151	18.94
384.361	82.43
384.571	-1.54
384.781	51.71
384.991	86.53
385.201	51.71
385.411	70.14
385.621	96.77
385.831	-24.06
386.041	82.43
386.251	25.09
386.461	66.05
386.671	57.86
386.881	72.19
387.091	4.61
387.301	66.05
387.511	43.52
387.72	-7.68
387.93	74.24
388.14	2.56
388.35	-22.02
388.56	39.42
388.769	102.91
388.979	35.33
389.189	6.66
389.399	51.71
389.609	49.66
389.818	111.1
390.028	57.86
390.238	92.67
390.447	20.99
390.657	45.57
390.867	74.24
391.076	74.24
391.286	45.57
391.496	41.47
391.705	-34.3
391.915	156.16
392.125	115.2
392.334	53.76
392.544	27.14
392.753	135.68
392.963	94.72
393.172	72.19
393.382	35.33
393.591	59.9
393.801	66.05
394.01	143.87
394.22	96.77
394.429	70.14
394.639	18.94
394.848	35.33
395.058	107.01
395.267	94.72
395.477	90.62
395.686	92.67
395.895	109.05
396.105	121.34
396.314	74.24
396.524	117.25
396.733	66.05
396.942	84.48
397.152	107.01
397.361	158.21
397.57	113.15
397.78	104.96
397.989	102.91
398.198	182.78
398.407	92.67
398.617	76.29
398.826	123.39
399.035	162.3
399.244	55.81
399.453	129.53
399.663	72.19
399.872	113.15
400.081	102.91
400.29	166.4
400.499	66.05
400.708	41.47
400.917	80.38
401.127	64
401.336	145.92
401.545	152.06
401.754	133.63
401.963	98.81
402.172	180.73
402.381	121.34
402.59	82.43
402.799	74.24
403.008	102.91
403.217	104.96
403.426	193.02
403.635	84.48
403.844	100.86
404.053	109.05
404.262	53.76
404.471	209.4
404.68	193.02
404.888	45.57
405.097	188.93
405.306	158.21
405.515	166.4
405.724	96.77
405.933	102.91
406.142	90.62
406.35	135.68
406.559	160.25
406.768	111.1
406.977	186.88
407.185	240.12
407.394	231.93
407.603	141.82
407.812	231.93
408.02	242.17
408.229	188.93
408.438	211.45
408.646	231.93
408.855	176.64
409.064	236.03
409.272	262.65
409.481	281.08
409.69	250.36
409.898	248.32
410.107	289.28
410.315	358.91
410.524	285.18
410.733	266.75
410.941	326.14
411.15	340.47
411.358	301.56
411.567	340.47
411.775	301.56
411.984	358.91
412.192	440.83
412.401	403.96
412.609	344.57
412.818	412.15
413.026	582.14
413.234	502.26
413.443	455.16
413.651	500.22
413.86	479.74
414.068	553.46
414.276	594.42
414.485	539.13
414.693	631.29
414.901	571.9
415.11	608.76
415.318	635.38
415.526	643.57
415.734	717.3
415.943	741.88
416.151	813.56
416.359	729.59
416.567	801.27
416.776	754.16
416.984	821.75
417.192	883.19
417.4	893.43
417.608	872.95
417.817	948.72
418.025	1092.08
418.233	1085.94
418.441	973.3
418.649	1118.7
418.857	1130.99
419.065	1151.47
419.273	1069.55
419.481	1223.15
419.689	1210.86
419.897	1339.88
420.105	1370.6
420.313	1423.85
420.521	1518.06
420.729	1487.34
420.937	1559.02
421.145	1599.98
421.353	1694.18
421.561	1735.14
421.769	1765.86
421.977	1921.51
422.185	1718.76
422.393	1909.22
422.601	2097.63
422.809	2075.1
423.017	2179.55
423.224	2220.51
423.432	2271.71
423.64	2185.69
423.848	2572.76
424.056	2390.49
424.263	2615.77
424.471	2679.26
424.679	2568.66
424.887	2722.26
425.094	2836.95
425.302	2714.07
425.51	3002.83
425.718	2957.78
425.925	3156.43
426.133	3119.57
426.341	3305.93
426.548	3533.26
426.756	3609.03
426.964	3596.75
427.171	3809.73
427.379	3965.38
427.586	3840.45
427.794	4022.72
428.001	4174.27
428.209	4497.85
428.417	4288.96
428.624	4749.75
428.832	4753.85
429.039	4745.66
429.247	4663.74
429.454	4940.21
429.662	5470.64
429.869	5015.99
430.076	5441.96
430.284	5206.45
430.491	5681.58
430.699	5779.88
430.906	5867.94
431.114	5769.64
431.321	6267.3
431.528	6138.27
431.736	6654.36
431.943	6867.35
432.15	6832.54
432.358	6676.89
432.565	7043.48
432.772	6953.37
432.979	7399.82
433.187	7690.63
433.394	7557.52
433.601	8206.72
433.808	8167.81
434.016	8243.59
434.223	8386.94
434.43	9062.77
434.637	8814.97
434.844	9447.79
435.052	9597.29
435.259	9302.39
435.466	9603.44
435.673	9357.68
435.88	9947.5
436.087	10760.54
436.294	10586.46
436.501	10410.34
436.708	10627.42
436.915	10871.13
437.122	11417.94
437.329	11243.86
437.537	11766.09
437.743	11780.43
437.95	11768.14
438.157	12726.59
438.364	12988.73
438.571	12702.01
438.778	12663.1
438.985	14199.08
439.192	13504.82
439.399	13842.73
439.606	13682.99
439.813	14438.69
440.02	15438.1
440.227	14977.31
440.433	14872.86
440.64	15259.93
440.847	15331.61
441.054	15921.42
441.261	16646.4
441.467	16396.55
441.674	16830.72
441.881	17608.95
442.088	17193.21
442.294	17111.29
442.501	17690.87
442.708	18182.38
442.914	18868.45
443.121	19523.8
443.328	19089.63
443.534	20193.48
443.741	19683.54
443.948	19384.54
444.154	20791.49
444.361	20674.76
444.568	21033.15
444.774	20775.11
444.981	21061.82
445.187	21991.6
445.394	22728.87
445.6	22345.9
445.807	24684.68
446.013	23472.28
446.22	23931.03
446.426	24598.66
446.633	24981.63
446.839	25956.47
447.046	24801.41
447.252	26214.51
447.459	26073.2
447.665	25864.31
447.871	27258.98
448.078	28399.69
448.284	27166.82
448.491	27766.87
448.697	28663.88
448.903	29466.69
449.11	29550.65
449.316	28868.68
449.522	29571.13
449.728	30261.3
449.935	30648.36
450.141	30253.11
450.347	31211.56
450.553	30117.94
450.76	30599.21
450.966	31608.86
451.172	30793.77
451.378	31666.2
451.584	31184.93
451.791	32174.1
451.997	31975.45
452.203	32555.02
452.409	32241.68
452.615	32452.62
452.821	31029.29
453.027	30720.04
453.233	32569.36
453.44	31205.41
453.646	31361.06
453.852	31502.37
454.058	31782.94
454.264	31131.68
454.47	31615.01
454.676	31164.45
454.882	31957.02
455.088	29268.03
455.294	29651
455.5	30021.69
455.705	30476.33
455.911	29184.07
456.117	28895.3
456.323	28305.49
456.529	26882.15
456.735	27830.36
456.941	27215.97
457.147	26660.97
457.352	25970.8
457.558	25815.16
457.764	25630.84
457.97	25077.89
458.176	24821.89
458.381	24891.52
458.587	23507.1
458.793	23779.48
458.999	22075.57
459.204	24062.1
459.41	23146.65
459.616	21665.97
459.821	21412.03
460.027	21573.81
460.233	20934.85
460.438	19955.92
460.644	20592.84
460.85	19169.5
461.055	18860.26
461.261	18790.63
461.466	17707.25
461.672	16922.88
461.878	18063.6
462.083	17105.15
462.289	17023.23
462.494	16619.78
462.7	15683.86
462.905	15165.72
463.111	15706.38
463.316	15915.28
463.522	15517.97
463.727	15690
463.932	15407.38
464.138	15198.49
464.343	15368.47
464.549	14967.07
464.754	15593.75
464.959	15421.72
465.165	15372.57
465.37	14688.54
465.575	14317.86
465.781	14602.53
465.986	14971.16
466.191	14117.16
466.397	13963.56
466.602	13510.96
466.807	13883.69
467.012	13781.29
467.218	13752.62
467.423	13721.9
467.628	13627.7
467.833	14307.62
468.038	13576.5
468.244	13164.86
468.449	13943.08
468.654	13230.39
468.859	13412.66
469.064	13109.56
469.269	12667.2
469.474	12808.51
469.679	13097.27
469.885	12697.92
470.09	12970.3
470.295	12800.32
470.5	12454.21
470.705	12550.46
470.91	12228.93
471.115	12269.89
471.32	12282.18
471.525	12282.18
471.73	11901.26
471.935	11958.6
472.139	11555.15
472.344	11809.1
472.549	11536.72
472.754	11561.3
472.959	11090.26
473.164	10899.8
473.369	10924.38
473.574	11067.74
473.778	11061.59
473.983	10840.41
474.188	10928.47
474.393	10418.53
474.598	10477.92
474.802	10398.05
475.007	10316.13
475.212	10332.51
475.417	10021.22
475.621	9871.72
475.826	9976.17
476.031	9884.01
476.235	9683.31
476.44	9732.46
476.645	9576.81
476.849	9924.97
477.054	9498.99
477.259	9570.67
477.463	9539.95
477.668	9234.8
477.872	9197.94
478.077	9171.32
478.282	8784.25
478.486	8679.8
478.691	8737.15
478.895	8872.31
479.1	8728.95
479.304	8677.76
479.509	8391.04
479.713	8698.24
479.918	8405.38
480.122	8190.34
480.326	8364.42
480.531	8536.45
480.735	8290.69
480.94	8472.96
481.144	8495.49
481.348	8030.6
481.553	8335.74
481.757	7963.01
481.961	8294.79
482.166	8255.87
482.37	8159.62
482.574	7827.85
482.778	8100.23
482.983	8225.15
483.187	8089.99
483.391	8161.67
483.595	7909.77
483.8	8061.32
484.004	8096.13
484.208	8247.68
484.412	8073.6
484.616	8126.85
484.821	8036.74
485.025	8001.93
485.229	8184.2
485.433	8044.93
485.637	8206.72
485.841	7965.06
486.045	8100.23
486.249	8237.44
486.453	8085.89
486.657	7942.53
486.861	8171.91
487.065	8092.04
487.269	8159.62
487.473	7905.67
487.677	8122.76
487.881	8130.95
488.085	7946.63
488.289	8221.06
488.493	8227.2
488.697	8274.31
488.901	8001.93
489.105	8139.14
489.309	8178.05
489.512	8198.53
489.716	8327.55
489.92	8241.54
490.124	8073.6
490.328	8380.8
490.531	8235.39
490.735	8151.43
490.939	8440.19
491.143	8403.33
491.346	8184.2
491.55	8544.64
491.754	8622.46
491.958	8671.61
492.161	8479.1
492.365	8620.41
492.569	8450.43
492.772	8593.79
492.976	8667.52
493.18	8814.97
493.383	8948.09
493.587	8894.84
493.79	8925.56
493.994	8954.23
494.197	8989.05
494.401	9015.67
494.605	9120.12
494.808	9187.7
495.012	9339.25
495.215	9269.62
495.419	9415.02
495.622	9398.64
495.825	9597.29
496.029	9310.58
496.232	9714.03
496.436	9617.77
496.639	9896.3
496.843	9662.83
497.046	10140.01
497.249	10205.54
497.453	10125.67
497.656	10428.77
497.859	10357.09
498.063	10682.72
498.266	10772.83
498.469	10690.91
498.673	10803.55
498.876	11139.41
499.079	11006.3
499.282	11157.85
499.485	11327.83
499.689	11448.66
499.892	11403.6
500.095	11598.16
500.298	11925.83
500.501	11868.49
500.705	12196.17
500.908	12302.66
501.111	12448.07
501.314	12624.19
501.517	12605.76
501.72	12747.07
501.923	12921.15
502.126	13007.16
502.329	13383.99
502.532	13340.98
502.735	13494.58
502.938	13713.71
503.141	14002.47
503.344	13994.28
503.547	14014.76
503.75	14268.71
503.953	14534.95
504.156	14657.82
504.359	14971.16
504.562	14881.05
504.765	15087.9
504.968	15345.94
505.17	15468.82
505.373	15593.75
505.576	16189.7
505.779	15894.8
505.982	15859.98
506.185	16589.06
506.387	16572.68
506.59	16914.69
506.793	16922.88
506.996	17033.47
507.198	17277.18
507.401	17549.56
507.604	17441.01
507.807	17944.81
508.009	18325.74
508.212	18229.48
508.415	18639.08
508.617	18741.47
508.82	18749.67
509.022	19022.05
509.225	19546.33
509.428	19564.76
509.63	19753.17
509.833	19747.03
510.035	20181.2
510.238	20310.22
510.44	20396.23
510.643	20791.49
510.845	20936.9
511.048	20857.03
511.25	21473.46
511.453	21582.01
511.655	22544.55
511.858	22065.33
512.06	22296.75
512.262	22593.7
512.465	22481.06
512.667	23310.49
512.87	23386.27
513.072	23341.21
513.274	23746.71
513.477	23998.61
513.679	23963.79
513.881	24414.35
514.084	24596.62
514.286	24901.76
514.488	24801.41
514.69	25538.68
514.893	25641.08
515.095	25798.77
515.297	26429.55
515.499	26544.23
515.701	26722.41
515.904	27062.37
516.106	27291.74
516.308	27697.24
516.51	27543.64
516.712	27986
516.914	28211.28
517.116	28614.73
517.318	28788.81
517.52	29167.68
517.722	29259.84
517.925	29591.61
518.127	29950.01
518.329	30181.43
518.531	30236.72
518.733	31139.88
518.935	30855.21
519.136	31176.74
519.338	31672.35
519.54	31647.77
519.742	32434.19
519.944	32395.28
520.146	32765.96
520.348	33099.78
520.55	33058.82
520.752	33161.22
520.954	33888.25
521.155	33908.73
521.357	34217.97
521.559	34091
521.761	35024.87
521.963	35063.78
522.164	35100.65
522.366	35489.76
522.568	35858.4
522.77	35909.6
522.971	36423.64
523.173	36061.15
523.375	36460.5
523.576	36587.47
523.778	36911.05
523.98	37509.06
524.181	37808.06
524.383	37367.75
524.584	37842.88
524.786	37922.75
524.988	37990.33
525.189	38547.38
525.391	38430.65
525.592	38641.59
525.794	38954.93
525.995	39192.49
526.197	39157.67
526.398	39141.29
526.6	39894.94
526.801	39700.39
527.003	39933.85
527.204	39989.15
527.406	40605.59
527.607	40105.88
527.808	40591.25
528.01	40277.91
528.211	40353.69
528.412	41410.44
528.614	40904.59
528.815	40933.26
529.016	41613.19
529.218	41209.74
529.419	41398.15
529.62	41396.1
529.822	41400.2
530.023	41521.03
530.224	41625.48
530.425	41668.48
530.626	41107.34
530.828	41494.41
531.029	42512.25
531.23	41322.38
531.431	41547.65
531.632	41836.42
531.833	42002.3
532.035	42039.17
532.236	42061.69
532.437	42260.35
532.638	41854.85
532.839	41875.33
533.04	42194.81
533.241	41846.66
533.442	42676.08
533.643	42325.88
533.844	42108.8
534.045	42223.48
534.246	41918.34
534.447	42215.29
534.648	42047.36
534.849	42041.21
535.05	41852.8
535.251	42162.04
535.451	42233.72
535.652	42354.55
535.853	41977.73
536.054	42264.44
536.255	42459
536.456	41881.47
536.657	42499.96
536.857	42035.07
537.058	41838.47
537.259	42184.57
537.46	42094.46
537.66	42039.17
537.861	41881.47
538.062	42000.26
538.263	42274.68
538.463	41985.92
538.664	42063.74
538.865	41904
539.065	41973.63
539.266	41715.59
539.466	42393.47
539.667	41430.92
539.868	42317.69
540.068	41781.12
540.269	42002.3
540.469	41764.74
540.67	41824.13
540.87	41738.12
541.071	41402.25
541.271	41629.57
541.472	41639.81
541.672	41578.37
541.873	41293.71
542.073	41037.71
542.274	41904
542.474	41428.87
542.675	41533.32
542.875	41805.7
543.075	41197.45
543.276	41080.72
543.476	41529.22
543.676	41027.47
543.877	41351.05
544.077	41064.33
544.277	41097.1
544.478	40935.31
544.678	41322.38
544.878	41285.51
545.078	41050
545.279	40863.63
545.479	41002.89
545.679	40986.51
545.879	40810.39
546.079	41101.2
546.28	40572.82
546.48	40759.19
546.68	40697.75
546.88	40923.02
547.08	41123.72
547.28	41166.73
547.48	40298.39
547.68	40812.43
547.88	40288.15
548.081	40699.79
548.281	40712.08
548.481	40347.54
548.681	40720.27
548.881	40605.59
549.081	40527.77
549.28	40327.06
549.48	40837.01
549.68	40341.4
549.88	41023.37
550.08	40316.82
550.28	40626.07
550.48	40513.43
550.68	40679.32
550.88	40585.11
551.08	40486.81
551.279	40556.44
551.479	39991.2
551.679	40349.59
551.879	40411.03
552.079	40355.74
552.278	40419.22
552.478	40658.84
552.678	40228.76
552.878	40542.1
553.077	40353.69
553.277	39946.14
553.477	40458.13
553.676	39866.27
553.876	40081.31
554.076	40089.5
554.275	39966.62
554.475	39663.52
554.674	40275.87
554.874	40384.41
555.074	39614.37
555.273	39782.3
555.473	39970.72
555.672	39514.02
555.872	39546.79
556.071	39925.66
556.271	40189.85
556.47	39786.4
556.67	39651.23
556.869	39352.23
557.068	39575.46
557.268	39333.8
557.467	39184.3
557.667	39618.47
557.866	39157.67
558.065	39399.33
558.265	39104.43
558.464	38979.5
558.663	39745.44
558.863	38596.53
559.062	39311.27
559.261	38348.73
559.461	39253.93
559.66	38504.37
559.859	38725.55
560.058	38234.04
560.258	38823.86
560.457	38039.48
560.656	39067.56
560.855	38690.74
561.054	38737.84
561.253	38430.65
561.453	38150.07
561.652	38514.61
561.851	38172.6
562.05	37674.95
562.249	37758.91
562.448	38543.28
562.647	37939.13
562.846	37455.81
563.045	37799.87
563.244	37451.72
563.443	38074.3
563.642	36933.58
563.841	37236.68
564.04	37255.11
564.239	37484.48
564.438	37185.48
564.637	37277.64
564.836	36857.81
565.035	36515.79
565.234	36653.01
565.432	36599.76
565.631	36696.02
565.83	36706.26
566.029	36411.35
566.228	36147.16
566.427	36331.48
566.625	36263.89
566.824	35502.05
567.023	36427.73
567.222	35538.91
567.42	35907.55
567.619	35848.16
567.818	35483.62
568.016	35524.58
568.215	35346.4
568.414	34852.84
568.612	35407.84
568.811	35262.44
569.01	34953.19
569.208	34580.46
569.407	35061.74
569.605	34439.15
569.804	35151.85
570.002	34097.14
570.201	34605.04
570.4	34142.2
570.598	33984.51
570.797	33931.26
570.995	34019.32
571.193	33327.11
571.392	34078.71
571.59	33300.48
571.789	33738.75
571.987	33478.66
572.186	33523.71
572.384	33603.58
572.582	33200.13
572.781	33171.46
572.979	32759.82
573.177	32970.76
573.376	33110.02
573.574	32655.37
573.772	32540.69
573.971	32495.63
574.169	32630.8
574.367	31934.49
574.565	32405.52
574.763	32057.37
574.962	32110.61
575.16	31588.38
575.358	31500.32
575.556	31369.25
575.754	31920.15
575.952	31180.84
576.151	31318.05
576.349	31219.75
576.547	31191.08
576.745	31074.34
576.943	30806.06
577.141	30619.69
577.339	30640.17
577.537	30609.45
577.735	30494.77
577.933	30181.43
578.131	30562.35
578.329	30148.66
578.527	29933.62
578.725	30502.96
578.923	30103.6
579.121	29755.45
579.319	29759.55
579.516	30005.3
579.714	29505.6
579.912	29626.43
580.11	29468.73
580.308	29028.42
580.506	29257.79
580.704	28979.27
580.901	29194.31
581.099	29159.49
581.297	28807.24
581.495	29157.44
581.692	29141.06
581.89	28530.76
582.088	28690.51
582.285	28385.36
582.483	28487.76
582.681	28661.83
582.878	28498
583.076	28067.92
583.274	28031.06
583.471	27764.82
583.669	28080.21
583.866	27856.98
584.064	27969.62
584.262	27404.38
584.459	27666.52
584.657	27574.36
584.854	27420.77
585.052	26923.11
585.249	27445.34
585.447	27195.49
585.644	27033.7
585.841	27134.05
586.039	27009.12
586.236	26890.34
586.434	26603.63
586.631	26937.44
586.828	26841.19
587.026	26443.88
587.223	26572.91
587.42	26101.87
587.618	26306.67
587.815	26091.63
588.012	26290.29
588.21	25892.98
588.407	26118.26
588.604	25927.8
588.801	25581.69
588.999	25679.99
589.196	25933.94
589.393	25739.38
589.59	25876.6
589.787	25589.88
589.984	25499.77
590.182	25270.4
590.379	25395.32
590.576	25096.32
590.773	25428.09
590.97	24883.33
591.167	25469.05
591.364	25168
591.561	25073.79
591.758	24531.08
591.955	24780.93
592.152	24858.76
592.349	24580.23
592.546	24625.29
592.743	24418.44
592.94	24144.02
593.137	24256.65
593.334	24617.1
593.531	23820.44
593.727	24254.61
593.924	24391.82
594.121	23978.13
594.318	23947.41
594.515	23851.16
594.712	23785.62
594.908	23705.75
595.105	23931.03
595.302	23330.97
595.499	23505.05
595.696	23562.39
595.892	23191.71
596.089	23509.15
596.286	23255.2
596.482	23492.76
596.679	23152.8
596.876	23077.02
597.072	23132.32
597.269	23238.81
597.466	22632.61
597.662	22923.43
597.859	22892.71
598.055	22499.5
598.252	22722.73
598.448	22773.92
598.645	22356.14
598.841	22298.8
599.038	22601.9
599.234	22460.59
599.431	22149.29
599.627	22304.94
599.824	22137.01
600.02	22012.08
600.217	22255.79
600.413	21870.77
600.609	22032.56
600.806	21473.46
601.002	21905.59
601.198	21518.52
601.395	21465.27
601.591	21481.66
601.787	21541.05
601.984	21321.91
602.18	21364.92
602.376	21108.93
602.572	21215.42
602.769	21246.14
602.965	21317.82
603.161	21008.58
603.357	21188.8
603.553	20914.37
603.75	21024.96
603.946	20641.99
604.142	21094.59
604.338	20443.34
604.534	20787.39
604.73	20551.88
604.926	20359.37
605.122	20424.9
605.318	20338.89
605.514	20263.11
605.71	20259.02
605.906	20467.91
606.102	20388.04
606.298	20033.74
606.494	19822.8
606.69	20238.54
606.886	20121.8
607.082	19601.62
607.278	19886.29
607.474	19740.88
607.67	19767.51
607.866	19441.88
608.062	19863.76
608.257	19710.16
608.453	19806.42
608.649	19429.59
608.845	19302.62
609.041	19534.04
609.236	19503.32
609.432	19390.68
609.628	19374.3
609.824	19413.21
610.019	19048.67
610.215	19138.78
610.411	19417.3
610.606	19122.4
610.802	19200.22
610.998	19194.08
611.193	19003.61
611.389	18862.3
611.584	19165.4
611.78	18854.11
611.976	18847.97
612.171	18833.63
612.367	18809.06
612.562	18725.09
612.758	18565.35
612.953	18432.23
613.149	18747.62
613.344	18555.11
613.539	18766.05
613.735	18626.79
613.93	18680.03
614.126	18301.16
614.321	18372.84
614.517	18446.57
614.712	18618.6
614.907	18202.86
615.103	18360.55
615.298	18141.42
615.493	18243.82
615.688	17914.09
615.884	18157.8
616.079	17770.74
616.274	18358.5
616.47	18020.59
616.665	18057.45
616.86	17754.35
617.055	17862.9
617.25	18041.07
617.445	17932.53
617.641	17436.92
617.836	17772.78
618.031	17496.31
618.226	17676.53
618.421	17563.89
618.616	17717.49
618.811	17283.32
619.006	17527.03
619.201	17111.29
619.396	17477.88
619.591	17228.03
619.786	17246.46
619.981	16795.9
620.176	17076.48
620.371	16779.52
620.566	16746.75
620.761	16662.79
620.956	16898.3
621.151	16625.92
621.346	16509.19
621.541	16025.87
621.735	16533.76
621.93	16109.83
622.125	16224.52
622.32	16156.94
622.515	16263.43
622.709	15976.72
622.904	15956.24
623.099	15599.89
623.294	15878.41
623.488	15522.07
623.683	15462.68
623.878	15417.62
624.072	15477.01
624.267	15374.61
624.462	15245.59
624.656	15221.02
624.851	15108.38
625.046	15012.12
625.24	14905.63
625.435	15001.88
625.629	14805.28
625.824	14772.51
626.018	14602.53
626.213	14663.97
626.407	14819.61
626.602	14213.42
626.796	14362.92
626.991	14272.81
627.185	14076.2
627.38	13973.8
627.574	13967.66
627.768	13973.8
627.963	13873.45
628.157	13648.18
628.352	13822.25
628.546	13572.4
628.74	13750.57
628.935	13453.62
629.129	13781.29
629.323	13287.73
629.517	13353.27
629.712	13181.24
629.906	13302.07
630.1	13029.69
630.294	13105.46
630.489	12958.01
630.683	13201.72
630.877	12947.77
631.071	12681.53
631.265	12720.45
631.459	12648.77
631.653	12841.28
631.848	12384.58
632.042	12421.44
632.236	12204.36
632.43	12314.95
632.624	12417.35
632.818	12280.13
633.012	12224.84
633.206	12063.05
633.4	12063.05
633.594	11698.51
633.788	11936.07
633.982	11841.87
634.176	11721.04
634.369	11712.85
634.563	11649.36
634.757	11792.72
634.951	11657.55
635.145	11456.85
635.339	11487.57
635.533	11245.91
635.726	11442.51
635.92	11209.04
636.114	11403.6
636.308	11344.21
636.501	11000.15
636.695	11069.78
636.889	10787.16
637.083	10891.61
637.276	10979.67
637.47	10905.95
637.664	10785.12
637.857	10738.01
638.051	10690.91
638.244	10451.3
638.438	10668.38
638.632	10328.42
638.825	10342.75
639.019	10352.99
639.212	10273.12
639.406	10264.93
639.599	10207.59
639.793	9990.5
639.986	9994.6
640.18	9906.54
640.373	10029.41
640.567	9781.61
640.76	9859.43
640.954	9652.59
641.147	9781.61
641.34	9558.38
641.534	9527.66
641.727	9410.93
641.92	9367.92
642.114	9542
642.307	9388.4
642.5	9355.63
642.694	8948.09
642.887	9195.89
643.08	9386.35
643.273	9109.88
643.467	9083.25
643.66	8995.19
643.853	8880.5
644.046	8706.43
644.239	8653.18
644.432	8763.77
644.626	8937.85
644.819	8632.7
645.012	8661.37
645.205	8606.08
645.398	8499.58
645.591	8370.56
645.784	8374.66
645.977	8376.7
646.17	8405.38
646.363	8421.76
646.556	8073.6
646.749	8171.91
646.942	8165.76
647.135	7936.39
647.328	8075.65
647.521	8055.17
647.714	7989.64
647.907	7858.57
648.099	7788.94
648.292	7920.01
648.485	7661.96
648.678	7635.34
648.871	7618.96
649.064	7610.76
649.256	7801.22
649.449	7500.17
649.642	7446.93
649.835	7467.41
650.027	7309.71
650.22	7383.44
650.413	7412.11
650.605	7203.22
650.798	7192.98
650.991	7281.04
651.183	7244.18
651.376	7137.68
651.568	7149.97
651.761	7170.45
651.954	7119.25
652.146	6971.8
652.339	6914.45
652.531	6904.21
652.724	6879.64
652.916	6789.53
653.109	6889.88
653.301	6912.41
653.494	6844.82
653.686	6658.46
653.879	6715.8
654.071	6554.01
654.263	6607.26
654.456	6554.01
654.648	6644.12
654.84	6445.47
655.033	6480.29
655.225	6482.33
655.417	6607.26
655.61	6341.02
655.802	6384.03
655.994	6474.14
656.186	6293.92
656.379	6488.48
656.571	6195.62
656.763	6363.55
656.955	6232.48
657.148	5978.53
657.34	5994.92
657.532	6011.3
657.724	5964.2
657.916	5935.53
658.108	5953.96
658.3	5908.9
658.492	5953.96
658.684	5851.56
658.876	5841.32
659.068	5839.27
659.26	5685.67
659.452	5816.74
659.644	5734.82
659.836	5708.2
660.028	5691.82
660.22	5431.73
660.412	5794.22
660.604	5460.4
660.796	5605.8
660.988	5583.27
661.18	5491.12
661.372	5439.92
661.563	5401.01
661.755	5484.97
661.947	5282.22
662.139	5456.3
662.331	5265.84
662.522	5239.22
662.714	5214.64
662.906	5196.21
663.097	5175.73
663.289	5208.5
663.481	5157.3
663.673	5208.5
663.864	4932.02
664.056	5165.49
664.247	5042.61
664.439	4702.65
664.631	4991.41
664.822	5022.13
665.014	5181.87
665.205	5028.28
665.397	4880.82
665.588	5003.7
665.78	4835.77
665.971	4790.71
666.163	4825.53
666.354	4837.81
666.546	4751.8
666.737	4628.92
666.929	4657.59
667.12	4661.69
667.311	4571.58
667.503	4567.48
667.694	4665.78
667.885	4569.53
668.077	4551.1
668.268	4682.17
668.459	4547
668.651	4587.96
668.842	4667.83
669.033	4547
669.224	4471.23
669.416	4473.28
669.607	4530.62
669.798	4413.88
669.989	4530.62
670.18	4491.71
670.371	4372.93
670.563	4420.03
670.754	4348.35
670.945	4405.69
671.136	4374.97
671.327	4401.6
671.518	4348.35
671.709	4370.88
671.9	4368.83
672.091	4260.29
672.282	4190.66
672.473	4336.06
672.664	4297.15
672.855	4211.14
673.046	4329.92
673.237	4217.28
673.428	4123.07
673.619	4114.88
673.809	4168.13
674	4143.55
674.191	4161.98
674.382	4102.59
674.573	4143.55
674.764	4131.26
674.954	4151.74
675.145	4051.39
675.336	4090.31
675.527	4110.79
675.717	4241.86
675.908	3983.81
676.099	4151.74
676.289	3893.7
676.48	4149.7
676.671	4043.2
676.861	4032.96
677.052	4174.27
677.243	4035.01
677.433	3971.52
677.624	4061.63
677.814	3965.38
678.005	4078.02
678.195	3963.33
678.386	4000.19
678.576	3959.24
678.767	3918.28
678.957	4024.77
679.148	4141.5
679.338	3987.91
679.529	3946.95
679.719	3932.61
679.909	3934.66
680.1	3994.05
680.29	4035.01
680.481	3908.04
680.671	4166.08
680.861	3989.96
681.052	3951.04
681.242	4010.43
681.432	4049.35
681.622	4057.54
681.813	3914.18
682.003	4014.53
682.193	3826.12
682.383	3944.9
682.573	4053.44
682.764	3871.17
682.954	3910.08
683.144	3852.74
683.334	3996.1
683.524	3858.89
683.714	3846.6
683.904	3826.12
684.094	4012.48
684.284	3901.89
684.474	3938.76
684.664	3912.13
684.854	3973.57
685.044	3875.27
685.234	3883.46
685.424	3877.32
685.614	3834.31
685.804	3883.46
685.994	3844.55
686.184	3903.94
686.374	3701.19
686.564	3819.97
686.753	3901.89
686.943	3930.56
687.133	3809.73
687.323	3815.88
687.513	3875.27
687.702	3758.53
687.892	3729.86
688.082	3748.29
688.272	3836.36
688.461	3703.24
688.651	3703.24
688.841	3688.9
689.03	3686.86
689.22	3772.87
689.41	3811.78
689.599	3670.47
689.789	3654.09
689.979	3680.71
690.168	3672.52
690.358	3658.18
690.547	3590.6
690.737	3649.99
690.926	3535.31
691.116	3609.03
691.305	3486.15
691.495	3533.26
691.684	3641.8
691.874	3549.64
692.063	3557.83
692.252	3518.92
692.442	3551.69
692.631	3441.1
692.82	3615.18
693.01	3486.15
693.199	3559.88
693.388	3437
693.578	3414.48
693.767	3391.95
693.956	3328.46
694.146	3559.88
694.335	3426.76
694.524	3443.15
694.713	3381.71
694.902	3361.23
695.092	3510.73
695.281	3426.76
695.47	3367.37
695.659	3439.05
695.848	3379.66
696.037	3365.32
696.226	3348.94
696.415	3394
696.604	3385.8
696.793	3412.43
696.982	3348.94
697.171	3371.47
697.36	3426.76
697.549	3486.15
697.738	3437
697.927	3332.56
698.116	3420.62
698.305	3471.82
698.494	3502.54
698.683	3420.62
698.872	3310.03
699.061	3387.85
699.25	3361.23
699.438	3480.01
699.627	3334.61
699.816	3418.57
700.005	3285.45
700.193	3387.85
700.382	3398.09
700.571	3285.45
700.76	3291.6
700.948	3295.69
701.137	3264.97
701.326	3365.32
701.514	3297.74
701.703	3213.77
701.892	3340.75
702.08	3262.93
702.269	3246.54
702.457	3215.82
702.646	3262.93
702.834	3232.21
703.023	3277.26
703.212	3258.83
703.4	3254.73
703.589	3332.56
703.777	3250.64
703.965	3271.12
704.154	3338.7
704.342	3295.69
704.531	3285.45
704.719	3094.99
704.907	3289.55
705.096	3287.5
705.284	3099.09
705.472	3203.54
705.661	3314.13
705.849	3158.48
706.037	3267.02
706.226	3181.01
706.414	3228.11
706.602	3209.68
706.79	3283.41
706.979	3138
707.167	3142.1
707.355	3289.55
707.543	3051.99
707.731	3297.74
707.919	3205.58
708.107	3078.61
708.296	3195.34
708.484	2994.64
708.672	3076.56
708.86	3138
709.048	3074.51
709.236	3168.72
709.424	3191.25
709.612	2988.5
709.8	2951.63
709.988	2992.59
710.176	3064.27
710.364	3035.6
710.551	3097.04
710.739	3051.99
710.927	3004.88
711.115	3011.03
711.303	2984.4
711.491	3150.29
711.679	3043.79
711.866	2994.64
712.054	2935.25
712.242	2916.82
712.43	3037.65
712.617	2941.4
712.805	3000.79
712.993	3019.22
713.181	2912.72
713.368	2976.21
713.556	3066.32
713.744	2953.68
713.931	3027.41
714.119	2908.63
714.306	2902.48
714.494	2804.18
714.682	2943.44
714.869	2779.61
715.057	2853.33
715.244	2927.06
715.432	3013.07
715.619	2922.96
715.807	2982.35
715.994	2957.78
716.182	2793.94
716.369	2886.1
716.556	2820.56
716.744	2824.66
716.931	2773.46
717.119	2890.2
717.306	2853.33
717.493	2779.61
717.681	2877.91
717.868	2843.09
718.055	2775.51
718.242	2787.8
718.43	2789.85
718.617	2886.1
718.804	2671.06
718.991	2638.3
719.179	2630.1
719.366	2785.75
719.553	2638.3
719.74	2755.03
719.927	2732.5
720.114	2746.84
720.301	2736.6
720.488	2746.84
720.676	2660.82
720.863	2816.47
721.05	2748.89
721.237	2697.69
721.424	2648.54
721.611	2626.01
721.798	2687.45
721.985	2630.1
722.172	2738.65
722.358	2750.93
722.545	2623.96
722.732	2585.05
722.919	2634.2
723.106	2632.15
723.293	2595.29
723.48	2535.9
723.667	2476.51
723.853	2578.9
724.04	2660.82
724.227	2576.86
724.414	2677.21
724.6	2583
724.787	2671.06
724.974	2669.02
725.161	2521.56
725.347	2537.95
725.534	2456.03
725.72	2410.97
725.907	2406.88
726.094	2556.38
726.28	2443.74
726.467	2429.4
726.653	2316.76
726.84	2515.42
727.027	2511.32
727.213	2398.68
727.4	2509.27
727.586	2574.81
727.773	2413.02
727.959	2421.21
728.145	2517.47
728.332	2431.45
728.518	2341.34
728.705	2499.03
728.891	2284
729.077	2447.83
729.264	2476.51
729.45	2539.99
729.636	2427.35
729.823	2456.03
730.009	2458.07
730.195	2451.93
730.382	2476.51
730.568	2449.88
730.754	2458.07
730.94	2380.25
731.126	2431.45
731.313	2300.38
731.499	2337.24
731.685	2331.1
731.871	2544.09
732.057	2367.96
732.243	2294.24
732.429	2456.03
732.615	2480.6
732.801	2318.81
732.987	2410.97
733.173	2294.24
733.359	2292.19
733.545	2345.44
733.731	2292.19
733.917	2312.67
734.103	2302.43
734.289	2263.52
734.475	2269.66
734.661	2333.15
734.847	2232.8
735.033	2290.14
735.219	2281.95
735.404	2167.26
735.59	2177.5
735.776	2200.03
735.962	2261.47
736.148	2265.57
736.333	2163.17
736.519	2173.41
736.705	2208.22
736.89	2114.02
737.076	2161.12
737.262	2185.69
737.447	2175.45
737.633	2034.14
737.819	2150.88
738.004	2288.09
738.19	2179.55
738.375	2159.07
738.561	2150.88
738.747	2185.69
738.932	2175.45
739.118	2085.34
739.303	2171.36
739.489	2140.64
739.674	2183.65
739.859	2015.71
740.045	2050.53
740.23	1976.8
740.416	2142.69
740.601	2040.29
740.786	2011.62
740.972	2081.25
741.157	2109.92
741.342	1999.33
741.528	2103.78
741.713	1903.07
741.898	2146.78
742.084	2021.86
742.269	2034.14
742.454	1993.19
742.639	1964.51
742.824	2005.47
743.01	1989.09
743.195	2042.34
743.38	1896.93
743.565	2066.91
743.75	2064.86
743.935	1929.7
744.12	2068.96
744.305	1864.16
744.49	1919.46
744.675	1921.51
744.86	1827.3
745.045	1935.84
745.23	1802.72
745.415	1892.84
745.6	1931.75
745.785	1913.31
745.97	1829.35
746.155	1841.64
746.34	1837.54
746.525	1769.96
746.71	1858.02
746.895	1794.53
747.079	1772
747.264	1745.38
747.449	1841.64
747.634	1776.1
747.819	1671.65
748.003	1669.61
748.188	1708.52
748.373	1675.75
748.557	1559.02
748.742	1624.55
748.927	1692.13
749.111	1620.46
749.296	1606.12
749.481	1524.2
749.665	1602.02
749.85	1622.5
750.034	1628.65
750.219	1591.78
750.404	1556.97
750.588	1530.34
750.773	1516.01
750.957	1640.93
751.141	1526.25
751.326	1475.05
751.51	1401.32
751.695	1397.23
751.879	1511.91
752.064	1495.53
752.248	1554.92
752.432	1493.48
752.617	1380.84
752.801	1483.24
752.985	1313.26
753.17	1370.6
753.354	1389.03
753.538	1468.91
753.722	1380.84
753.907	1477.1
754.091	1370.6
754.275	1419.75
754.459	1321.45
754.643	1325.55
754.828	1262.06
755.012	1257.96
755.196	1247.72
755.38	1229.29
755.564	1329.64
755.748	1221.1
755.932	1245.68
756.116	1169.9
756.3	1253.87
756.484	1212.91
756.668	1280.49
756.852	1198.57
757.036	1202.67
757.22	1233.39
757.404	1188.33
757.588	1102.32
757.772	1083.89
757.956	1130.99
758.14	1206.77
758.323	1124.85
758.507	1157.61
758.691	1147.37
758.875	1120.75
759.059	1010.16
759.242	1085.94
759.426	1067.5
759.61	1149.42
759.794	1030.64
759.977	1135.09
760.161	1096.18
760.345	1147.37
760.528	1079.79
760.712	1040.88
760.895	1028.59
761.079	1038.83
761.263	1085.94
761.446	1020.4
761.63	1006.06
761.813	1042.93
761.997	1128.94
762.18	999.92
762.364	1001.97
762.547	952.82
762.731	965.11
762.914	954.87
763.098	1008.11
763.281	956.91
763.464	948.72
763.648	1004.02
763.831	907.76
764.015	889.33
764.198	946.67
764.381	952.82
764.564	926.19
764.748	901.62
764.931	897.52
765.114	862.71
765.297	956.91
765.481	811.51
765.664	864.75
765.847	860.66
766.03	915.95
766.213	913.91
766.397	885.23
766.58	848.37
766.763	883.19
766.946	834.04
767.129	903.67
767.312	856.56
767.495	829.94
767.678	827.89
767.861	877.04
768.044	733.68
768.227	907.76
768.41	905.71
768.593	887.28
768.776	791.03
768.959	825.84
769.142	918
769.324	872.95
769.507	862.71
769.69	809.46
769.873	834.04
770.056	838.13
770.239	805.36
770.421	717.3
770.604	764.4
770.787	760.31
770.97	819.7
771.152	817.65
771.335	735.73
771.518	807.41
771.7	750.07
771.883	745.97
772.066	760.31
772.248	750.07
772.431	662.01
772.613	786.93
772.796	774.64
772.978	672.25
773.161	668.15
773.343	764.4
773.526	639.48
773.708	735.73
773.891	668.15
774.073	700.92
774.256	682.49
774.438	754.16
774.621	817.65
774.803	758.26
774.985	797.17
775.168	602.61
775.35	666.1
775.532	719.35
775.715	649.72
775.897	723.44
776.079	635.38
776.261	606.71
776.444	635.38
776.626	575.99
776.808	705.01
776.99	602.61
777.173	586.23
777.355	582.14
777.537	598.52
777.719	659.96
777.901	594.42
778.083	563.7
778.265	543.22
778.447	559.61
778.629	590.33
778.811	537.08
778.993	543.22
779.175	553.46
779.357	580.09
779.539	475.64
779.721	614.9
779.903	535.03
780.085	481.78
780.267	524.79
780.449	625.14
780.631	451.07
780.812	516.6
780.994	469.5
781.176	496.12
781.358	496.12
781.54	514.55
781.721	539.13
781.903	569.85
782.085	547.32
782.267	516.6
782.448	383.48
782.63	451.07
782.812	489.98
782.993	479.74
783.175	471.54
783.357	446.97
783.538	426.49
783.72	498.17
783.901	444.92
784.083	399.87
784.264	481.78
784.446	446.97
784.627	346.62
784.809	494.07
784.99	432.63
785.172	420.35
785.353	438.78
785.535	365.05
785.716	414.2
785.897	408.06
786.079	477.69
786.26	375.29
786.441	371.19
786.623	377.34
786.804	420.35
786.985	367.1
787.167	406.01
787.348	449.02
787.529	309.76
787.71	412.15
787.891	428.54
788.073	360.95
788.254	371.19
788.435	379.39
788.616	334.33
788.797	350.71
788.978	418.3
789.159	342.52
789.34	336.38
789.522	352.76
789.703	395.77
789.884	397.82
790.065	363
790.246	371.19
790.427	422.39
790.607	315.9
790.788	291.32
790.969	272.89
791.15	268.8
791.331	367.1
791.512	311.8
791.693	285.18
791.874	320
792.054	315.9
792.235	266.75
792.416	328.19
792.597	254.46
792.778	348.67
792.958	299.52
793.139	242.17
793.32	283.13
793.5	270.84
793.681	348.67
793.862	186.88
794.042	320
794.223	289.28
794.404	266.75
794.584	309.76
794.765	299.52
794.945	213.5
795.126	266.75
795.306	320
795.487	244.22
795.667	254.46
795.848	301.56
796.028	258.56
796.209	252.41
796.389	223.74
796.57	250.36
796.75	186.88
796.93	279.04
797.111	244.22
797.291	246.27
797.471	274.94
797.652	260.6
797.832	238.08
798.012	260.6
798.192	174.59
798.373	250.36
798.553	266.75
798.733	184.83
798.913	197.12
799.093	258.56
799.274	264.7
799.454	248.32
799.634	174.59
799.814	240.12
799.994	283.13
800.174	233.98
800.354	229.88
800.534	203.26
800.714	217.6
800.894	143.87
801.074	184.83
801.254	221.69
801.434	264.7
801.614	166.4
801.794	123.39
801.974	567.8
802.154	180.73
802.334	266.75
802.514	170.49
802.693	223.74
802.873	186.88
803.053	252.41
803.233	168.45
803.413	197.12
803.592	199.16
803.772	160.25
803.952	213.5
804.131	119.29
804.311	184.83
804.491	272.89
804.67	225.79
804.85	233.98
805.03	225.79
805.209	158.21
805.389	199.16
805.568	156.16
805.748	162.3
805.928	166.4
806.107	100.86
806.287	225.79
806.466	176.64
806.646	221.69
806.825	160.25
807.004	168.45
807.184	240.12
807.363	125.44
807.543	125.44
807.722	188.93
807.901	244.22
808.081	195.07
808.26	172.54
808.439	127.49
808.619	117.25
808.798	131.58
808.977	188.93
809.156	176.64
809.336	154.11
809.515	168.45
809.694	174.59
809.873	47.62
810.052	143.87
810.231	160.25
810.411	147.97
810.59	223.74
810.769	176.64
810.948	94.72
811.127	166.4
811.306	170.49
811.485	133.63
811.664	190.97
811.843	145.92
812.022	188.93
812.201	86.53
812.38	141.82
812.559	129.53
812.737	117.25
812.916	76.29
813.095	150.01
813.274	164.35
813.453	133.63
813.632	94.72
813.811	158.21
813.989	139.77
814.168	100.86
814.347	72.19
814.526	78.33
814.704	57.86
814.883	168.45
815.062	90.62
815.24	154.11
815.419	178.69
815.598	86.53
815.776	107.01
815.955	176.64
816.133	98.81
816.312	168.45
816.49	92.67
816.669	168.45
816.847	100.86
817.026	100.86
817.204	131.58
817.383	104.96
817.561	72.19
817.74	133.63
817.918	90.62
818.097	133.63
818.275	84.48
818.453	86.53
818.632	88.57
818.81	111.1
818.988	113.15
819.167	193.02
819.345	88.57
819.523	57.86
819.701	20.99
819.879	150.01
820.058	115.2
820.236	172.54
820.414	115.2
820.592	66.05
820.77	86.53
820.948	107.01
821.127	57.86
821.305	180.73
821.483	80.38
821.661	109.05
821.839	113.15
822.017	68.09
822.195	213.5
822.373	156.16
822.551	115.2
822.729	129.53
822.907	117.25
823.085	123.39
823.262	137.73
823.44	164.35
823.618	64
823.796	76.29
823.974	123.39
824.152	133.63
824.329	107.01
824.507	104.96
824.685	145.92
824.863	31.23
825.04	121.34
825.218	147.97
825.396	43.52
825.574	172.54
825.751	98.81
825.929	113.15
826.107	96.77
826.284	113.15
826.462	80.38
826.639	94.72
826.817	111.1
826.994	88.57
827.172	51.71
827.349	160.25
827.527	16.9
827.704	57.86
827.882	145.92
828.059	51.71
828.237	49.66
828.414	184.83
828.591	18.94
828.769	133.63
828.946	94.72
829.124	111.1
829.301	68.09
829.478	78.33
829.655	123.39
829.833	59.9
830.01	61.95
830.187	156.16
830.364	29.18
830.542	107.01
830.719	100.86
830.896	39.42
831.073	78.33
831.25	64
831.427	127.49
831.604	88.57
831.782	86.53
831.959	137.73
832.136	35.33
832.313	133.63
832.49	82.43
832.667	80.38
832.844	102.91
833.021	18.94
833.198	64
833.374	70.14
833.551	55.81
833.728	59.9
833.905	57.86
834.082	10.75
834.259	25.09
834.436	74.24
834.612	64
834.789	41.47
834.966	-1.54
835.143	55.81
835.319	29.18
835.496	113.15
835.673	27.14
835.85	115.2
836.026	59.9
836.203	117.25
836.38	55.81
836.556	18.94
836.733	0.51
836.909	66.05
837.086	4.61
837.262	53.76
837.439	39.42
837.616	88.57
837.792	35.33
837.968	76.29
838.145	6.66
838.321	76.29
838.498	33.28
838.674	43.52
838.851	0.51
839.027	31.23
839.203	2.56
839.38	35.33
839.556	61.95
839.732	-24.06
839.909	41.47
840.085	84.48
840.261	96.77
840.437	76.29
840.614	-30.21
840.79	14.85
840.966	49.66
841.142	27.14
841.318	51.71
841.494	49.66
841.671	33.28
841.847	45.57
842.023	145.92
842.199	78.33
842.375	80.38
842.551	92.67
842.727	-13.82
842.903	88.57
843.079	23.04
843.255	104.96
843.431	0.51
843.607	78.33
843.783	111.1
843.959	4.61
844.134	61.95
844.31	104.96
844.486	29.18
844.662	53.76
844.838	23.04
845.013	88.57
845.189	86.53
845.365	-22.02
845.541	82.43
845.716	14.85
845.892	45.57
846.068	18.94
846.244	96.77
846.419	43.52
846.595	31.23
846.77	41.47
846.946	33.28
847.122	76.29
847.297	64
847.473	14.85
847.648	45.57
847.824	12.8
847.999	-15.87
848.175	0.51
848.35	-3.58
848.526	100.86
848.701	80.38
848.876	125.44
849.052	-15.87
849.227	45.57
849.403	47.62
849.578	59.9
849.753	98.81
849.929	-15.87
850.104	16.9
850.279	57.86
850.454	-1.54
850.63	6.66
850.805	-48.64
850.98	57.86
851.155	-24.06
851.33	27.14
851.505	18.94
851.681	74.24
851.856	-17.92
852.031	-11.78
852.206	31.23
852.381	74.24
852.556	18.94
852.731	4.61
852.906	80.38
853.081	76.29
853.256	25.09
853.431	41.47
853.606	20.99
853.781	-42.5
853.956	-26.11
854.131	2.56
854.305	-24.06
854.48	90.62
854.655	37.38
854.83	-19.97
855.005	8.7
855.18	10.75
855.354	39.42
855.529	51.71
855.704	-56.83
855.879	57.86
856.053	59.9
856.228	-62.98
856.403	4.61
856.577	43.52
856.752	64
856.926	37.38
857.101	27.14
857.276	72.19
857.45	31.23
857.625	-3.58
857.799	-3.58
857.974	37.38
858.148	41.47
858.323	86.53
858.497	94.72
858.672	-69.12
858.846	-30.21
859.02	86.53
859.195	-48.64
859.369	8.7
859.543	23.04
859.718	-9.73
859.892	6.66
860.066	20.99
860.241	12.8
860.415	37.38
860.589	23.04
860.763	80.38
860.938	-24.06
861.112	84.48
861.286	-40.45
861.46	6.66
861.634	10.75
861.808	131.58
861.982	53.76
862.157	6.66
862.331	23.04
862.505	-5.63
862.679	-3.58
862.853	0.51
863.027	18.94
863.201	80.38
863.375	-56.83
863.549	4.61
863.722	-19.97
863.896	2.56
864.07	4.61
864.244	-22.02
864.418	-34.3
864.592	-3.58
864.766	2.56
864.939	25.09
865.113	27.14
865.287	-30.21
865.461	-22.02
865.634	-11.78
865.808	-9.73
865.982	55.81
866.156	2.56
866.329	-50.69
866.503	25.09
866.676	-5.63
866.85	59.9
867.024	0.51
867.197	49.66
867.371	-17.92
867.544	-11.78
867.718	59.9
867.891	57.86
868.065	0.51
868.238	43.52
868.412	-56.83
868.585	41.47
868.759	8.7
868.932	57.86
869.105	-30.21
869.279	-15.87
869.452	-15.87
869.625	37.38
869.799	37.38
869.972	35.33
870.145	-32.26
870.319	59.9
870.492	23.04
870.665	33.28
870.838	-11.78
871.011	-11.78
871.185	10.75
871.358	86.53
871.531	-46.59
871.704	23.04
871.877	-1.54
872.05	14.85
872.223	33.28
872.396	-69.12
872.569	12.8
872.742	12.8
872.915	49.66
873.088	-15.87
873.261	-77.31
873.434	-7.68
873.607	-11.78
873.78	-15.87
873.953	18.94
874.126	23.04
874.299	-38.4
874.471	57.86
874.644	29.18
874.817	55.81
874.99	90.62
875.163	12.8
875.335	47.62
875.508	27.14
875.681	39.42
875.853	18.94
876.026	37.38
876.199	-54.78
876.371	53.76
876.544	23.04
876.717	14.85
876.889	27.14
877.062	64
877.234	-56.83
877.407	4.61
877.579	6.66
877.752	-26.11
877.924	80.38
878.097	8.7
878.269	4.61
878.442	59.9
878.614	16.9
878.786	72.19
878.959	10.75
879.131	8.7
879.303	-50.69
879.476	57.86
879.648	45.57
879.82	12.8
879.993	12.8
880.165	-1.54
880.337	-71.17
880.509	10.75
880.681	12.8
880.854	-32.26
881.026	43.52
881.198	-5.63
881.37	109.05
881.542	57.86
881.714	-30.21
881.886	-22.02
882.058	-50.69
882.23	37.38
882.402	-44.54
882.574	35.33
882.746	55.81
882.918	-30.21
883.09	39.42
883.262	-42.5
883.434	29.18
883.606	64
883.778	33.28
883.95	61.95
884.122	25.09
884.293	61.95
884.465	49.66
884.637	37.38
884.809	-7.68
884.98	43.52
885.152	39.42
885.324	55.81
885.496	41.47
885.667	-36.35
885.839	-19.97
886.011	-1.54
886.182	8.7
886.354	39.42
886.525	8.7
886.697	12.8
886.869	12.8
887.04	78.33
887.212	27.14
887.383	70.14
887.555	29.18
887.726	0.51
887.897	-19.97
888.069	78.33
888.24	41.47
888.412	25.09
888.583	2.56
888.754	39.42
888.926	-46.59
889.097	-3.58
889.268	27.14
889.44	-13.82
889.611	-79.36
889.782	-17.92
889.953	-40.45
890.125	78.33
890.296	-58.88
890.467	-83.45
890.638	-15.87
890.809	18.94
890.98	-1.54
891.151	8.7
891.323	-93.69
891.494	-26.11
891.665	12.8
891.836	76.29
892.007	-5.63
892.178	76.29
892.349	31.23
892.52	18.94
892.691	18.94
892.862	-22.02
893.032	-34.3
893.203	-91.65
893.374	-22.02
893.545	125.44
893.716	0.51
893.887	53.76
894.057	74.24
894.228	-3.58
894.399	23.04
894.57	37.38
894.74	14.85
894.911	20.99
895.082	-26.11
895.253	20.99
895.423	35.33
895.594	92.67
895.764	-48.64
895.935	-22.02
896.106	12.8
896.276	43.52
896.447	-42.5
896.617	8.7
896.788	-5.63
896.958	76.29
897.129	70.14
897.299	-3.58
897.47	45.57
897.64	37.38
897.81	6.66
897.981	10.75
898.151	-7.68
898.322	-3.58
898.492	-13.82
898.662	-40.45
898.832	55.81
899.003	-28.16
899.173	6.66
899.343	41.47
899.513	29.18
