Data from USB4F104151__80__12-36-54-853.txt Node

Date: Fri Mar 14 12:36:54 EDT 2025
User: louis
Spectrometer: USB4F10415
Trigger mode: 4
Integration Time (sec): 2.000000E-2
Scans to average: 1
Electric dark correction enabled: true
Nonlinearity correction enabled: false
Boxcar width: 0
XAxis mode: Wavelengths
Number of Pixels in Spectrum: 3648
>>>>>Begin Spectral Data<<<<<
178.204	-44.88
178.424	-44.88
178.644	-44.88
178.864	-96.08
179.084	-42.84
179.304	18.6
179.524	-14.17
179.744	34.99
179.964	-34.64
180.184	-20.31
180.404	34.99
180.624	28.84
180.844	0.17
181.064	-91.99
181.283	26.79
181.503	-3.93
181.723	20.65
181.943	20.65
182.163	49.32
182.383	14.51
182.602	32.94
182.822	12.46
183.042	49.32
183.262	69.8
183.482	4.27
183.701	32.94
183.921	39.08
184.141	-44.88
184.361	-14.17
184.58	10.41
184.8	43.18
185.02	28.84
185.239	45.23
185.459	-53.08
185.679	-10.07
185.898	12.46
186.118	88.23
186.338	-26.45
186.557	26.79
186.777	80.04
186.997	90.28
187.216	59.56
187.436	43.18
187.655	61.61
187.875	28.84
188.095	-18.26
188.314	18.6
188.534	102.57
188.753	-8.02
188.973	82.09
189.192	-3.93
189.412	80.04
189.631	63.66
189.851	4.27
190.07	106.67
190.29	-59.22
190.509	-24.4
190.729	55.47
190.948	-3.93
191.168	77.99
191.387	34.99
191.607	8.36
191.826	20.65
192.045	84.14
192.265	26.79
192.484	65.71
192.704	51.37
192.923	24.75
193.142	96.43
193.362	28.84
193.581	82.09
193.8	53.42
194.02	41.13
194.239	4.27
194.458	10.41
194.678	-8.02
194.897	-36.69
195.116	-8.02
195.335	69.8
195.555	43.18
195.774	37.03
195.993	71.85
196.212	57.51
196.432	69.8
196.651	-28.5
196.87	32.94
197.089	61.61
197.308	57.51
197.528	112.81
197.747	41.13
197.966	77.99
198.185	59.56
198.404	22.7
198.623	-40.79
198.842	43.18
199.062	2.22
199.281	37.03
199.5	4.27
199.719	45.23
199.938	6.31
200.157	41.13
200.376	6.31
200.595	69.8
200.814	55.47
201.033	-34.64
201.252	55.47
201.471	57.51
201.69	-5.97
201.909	32.94
202.128	34.99
202.347	69.8
202.566	82.09
202.785	-16.21
203.004	-57.17
203.223	67.75
203.442	24.75
203.661	-5.97
203.879	57.51
204.098	24.75
204.317	6.31
204.536	96.43
204.755	80.04
204.974	37.03
205.193	43.18
205.411	49.32
205.63	73.9
205.849	129.19
206.068	98.47
206.287	65.71
206.505	-16.21
206.724	71.85
206.943	55.47
207.162	28.84
207.381	-5.97
207.599	-8.02
207.818	30.89
208.037	30.89
208.255	18.6
208.474	12.46
208.693	39.08
208.911	55.47
209.13	104.62
209.349	26.79
209.567	75.95
209.786	47.27
210.005	-18.26
210.223	10.41
210.442	-34.64
210.661	53.42
210.879	0.17
211.098	49.32
211.316	80.04
211.535	51.37
211.753	63.66
211.972	69.8
212.191	2.22
212.409	14.51
212.628	-22.36
212.846	55.47
213.065	28.84
213.283	34.99
213.502	-71.51
213.72	102.57
213.938	75.95
214.157	39.08
214.375	77.99
214.594	10.41
214.812	49.32
215.031	32.94
215.249	-12.12
215.467	0.17
215.686	69.8
215.904	123.05
216.122	108.71
216.341	61.61
216.559	-40.79
216.778	73.9
216.996	47.27
217.214	65.71
217.432	-8.02
217.651	55.47
217.869	26.79
218.087	90.28
218.306	34.99
218.524	61.61
218.742	45.23
218.96	12.46
219.179	6.31
219.397	-24.4
219.615	80.04
219.833	-32.6
220.051	47.27
220.27	26.79
220.488	24.75
220.706	59.56
220.924	28.84
221.142	51.37
221.36	80.04
221.578	129.19
221.796	20.65
222.015	16.55
222.233	26.79
222.451	32.94
222.669	-8.02
222.887	102.57
223.105	39.08
223.323	32.94
223.541	49.32
223.759	30.89
223.977	71.85
224.195	34.99
224.413	82.09
224.631	20.65
224.849	69.8
225.067	71.85
225.285	12.46
225.503	20.65
225.721	-1.88
225.939	26.79
226.157	-3.93
226.375	90.28
226.592	45.23
226.81	82.09
227.028	26.79
227.246	57.51
227.464	-8.02
227.682	121
227.9	110.76
228.117	88.23
228.335	28.84
228.553	57.51
228.771	92.33
228.989	65.71
229.206	121
229.424	67.75
229.642	0.17
229.86	47.27
230.077	61.61
230.295	10.41
230.513	49.32
230.731	67.75
230.948	41.13
231.166	96.43
231.384	12.46
231.601	8.36
231.819	14.51
232.037	12.46
232.254	102.57
232.472	12.46
232.689	-1.88
232.907	14.51
233.125	32.94
233.342	71.85
233.56	8.36
233.777	61.61
233.995	14.51
234.213	65.71
234.43	102.57
234.648	98.47
234.865	73.9
235.083	106.67
235.3	37.03
235.518	75.95
235.735	37.03
235.953	39.08
236.17	41.13
236.388	6.31
236.605	94.38
236.822	71.85
237.04	55.47
237.257	65.71
237.475	-16.21
237.692	47.27
237.909	94.38
238.127	131.24
238.344	45.23
238.562	37.03
238.779	41.13
238.996	4.27
239.214	41.13
239.431	96.43
239.648	100.52
239.865	34.99
240.083	10.41
240.3	22.7
240.517	86.19
240.735	65.71
240.952	4.27
241.169	90.28
241.386	34.99
241.603	55.47
241.821	-5.97
242.038	73.9
242.255	127.14
242.472	20.65
242.689	39.08
242.907	32.94
243.124	-10.07
243.341	-46.93
243.558	73.9
243.775	22.7
243.992	-10.07
244.209	37.03
244.426	131.24
244.643	102.57
244.86	77.99
245.078	41.13
245.295	47.27
245.512	106.67
245.729	55.47
245.946	-44.88
246.163	57.51
246.38	59.56
246.597	61.61
246.814	47.27
247.031	18.6
247.248	-36.69
247.464	-34.64
247.681	34.99
247.898	59.56
248.115	4.27
248.332	-14.17
248.549	139.43
248.766	59.56
248.983	94.38
249.2	84.14
249.417	108.71
249.633	12.46
249.85	-32.6
250.067	-28.5
250.284	22.7
250.501	112.81
250.717	71.85
250.934	-26.45
251.151	6.31
251.368	73.9
251.585	69.8
251.801	-1.88
252.018	30.89
252.235	49.32
252.451	32.94
252.668	51.37
252.885	131.24
253.102	-18.26
253.318	39.08
253.535	-3.93
253.752	43.18
253.968	10.41
254.185	73.9
254.401	75.95
254.618	51.37
254.835	20.65
255.051	55.47
255.268	16.55
255.484	51.37
255.701	-22.36
255.917	16.55
256.134	16.55
256.351	47.27
256.567	37.03
256.784	96.43
257	24.75
257.217	18.6
257.433	47.27
257.65	20.65
257.866	80.04
258.082	-48.98
258.299	43.18
258.515	63.66
258.732	69.8
258.948	14.51
259.165	84.14
259.381	84.14
259.597	69.8
259.814	110.76
260.03	41.13
260.246	32.94
260.463	53.42
260.679	92.33
260.895	12.46
261.112	6.31
261.328	43.18
261.544	98.47
261.761	114.86
261.977	71.85
262.193	34.99
262.409	92.33
262.626	61.61
262.842	32.94
263.058	-3.93
263.274	63.66
263.49	28.84
263.707	45.23
263.923	39.08
264.139	34.99
264.355	88.23
264.571	-3.93
264.787	49.32
265.004	94.38
265.22	28.84
265.436	47.27
265.652	41.13
265.868	51.37
266.084	43.18
266.3	86.19
266.516	-26.45
266.732	59.56
266.948	-18.26
267.164	37.03
267.38	47.27
267.596	57.51
267.812	63.66
268.028	47.27
268.244	82.09
268.46	59.56
268.676	16.55
268.892	114.86
269.108	32.94
269.324	18.6
269.54	-61.27
269.756	30.89
269.972	2.22
270.188	71.85
270.403	2.22
270.619	34.99
270.835	22.7
271.051	43.18
271.267	96.43
271.483	26.79
271.698	90.28
271.914	2.22
272.13	34.99
272.346	65.71
272.562	67.75
272.777	80.04
272.993	39.08
273.209	28.84
273.425	20.65
273.64	59.56
273.856	-8.02
274.072	20.65
274.287	20.65
274.503	67.75
274.719	10.41
274.934	77.99
275.15	22.7
275.366	-3.93
275.581	39.08
275.797	28.84
276.012	102.57
276.228	4.27
276.444	-14.17
276.659	135.34
276.875	-12.12
277.09	86.19
277.306	43.18
277.521	94.38
277.737	28.84
277.952	147.62
278.168	8.36
278.383	-18.26
278.599	82.09
278.814	61.61
279.03	75.95
279.245	65.71
279.461	61.61
279.676	65.71
279.892	88.23
280.107	49.32
280.322	-8.02
280.538	88.23
280.753	43.18
280.969	168.1
281.184	41.13
281.399	147.62
281.615	-12.12
281.83	86.19
282.045	90.28
282.26	26.79
282.476	71.85
282.691	47.27
282.906	84.14
283.122	30.89
283.337	10.41
283.552	125.1
283.767	71.85
283.983	65.71
284.198	12.46
284.413	22.7
284.628	90.28
284.843	28.84
285.058	47.27
285.274	18.6
285.489	6.31
285.704	55.47
285.919	-30.55
286.134	67.75
286.349	-28.5
286.564	26.79
286.779	51.37
286.995	45.23
287.21	24.75
287.425	30.89
287.64	65.71
287.855	18.6
288.07	61.61
288.285	47.27
288.5	-5.97
288.715	96.43
288.93	67.75
289.145	45.23
289.36	10.41
289.575	51.37
289.79	26.79
290.004	2.22
290.219	47.27
290.434	34.99
290.649	53.42
290.864	-10.07
291.079	80.04
291.294	-18.26
291.509	14.51
291.724	65.71
291.938	61.61
292.153	-1.88
292.368	34.99
292.583	96.43
292.798	94.38
293.012	28.84
293.227	16.55
293.442	-14.17
293.657	104.62
293.871	51.37
294.086	65.71
294.301	32.94
294.516	98.47
294.73	63.66
294.945	57.51
295.16	73.9
295.374	92.33
295.589	71.85
295.804	10.41
296.018	86.19
296.233	118.95
296.447	108.71
296.662	-28.5
296.877	94.38
297.091	69.8
297.306	39.08
297.52	41.13
297.735	18.6
297.949	2.22
298.164	127.14
298.378	106.67
298.593	20.65
298.807	112.81
299.022	6.31
299.236	123.05
299.451	45.23
299.665	16.55
299.88	39.08
300.094	116.9
300.309	14.51
300.523	67.75
300.737	-1.88
300.952	63.66
301.166	34.99
301.381	34.99
301.595	-22.36
301.809	90.28
302.024	57.51
302.238	59.56
302.452	57.51
302.667	30.89
302.881	61.61
303.095	39.08
303.309	2.22
303.524	69.8
303.738	88.23
303.952	-8.02
304.166	75.95
304.381	0.17
304.595	151.72
304.809	88.23
305.023	39.08
305.237	2.22
305.452	69.8
305.666	77.99
305.88	53.42
306.094	96.43
306.308	37.03
306.522	0.17
306.736	20.65
306.95	51.37
307.164	71.85
307.379	30.89
307.593	90.28
307.807	67.75
308.021	100.52
308.235	86.19
308.449	108.71
308.663	30.89
308.877	145.58
309.091	47.27
309.305	65.71
309.519	55.47
309.733	75.95
309.947	110.76
310.161	49.32
310.374	47.27
310.588	73.9
310.802	34.99
311.016	8.36
311.23	45.23
311.444	34.99
311.658	-1.88
311.872	80.04
312.085	10.41
312.299	75.95
312.513	104.62
312.727	73.9
312.941	69.8
313.154	32.94
313.368	65.71
313.582	94.38
313.796	71.85
314.009	84.14
314.223	118.95
314.437	55.47
314.651	32.94
314.864	59.56
315.078	116.9
315.292	4.27
315.505	30.89
315.719	39.08
315.933	-14.17
316.146	39.08
316.36	6.31
316.573	41.13
316.787	63.66
317.001	71.85
317.214	28.84
317.428	53.42
317.641	84.14
317.855	82.09
318.068	96.43
318.282	-20.31
318.495	121
318.709	-14.17
318.922	10.41
319.136	69.8
319.349	8.36
319.563	49.32
319.776	104.62
319.99	0.17
320.203	116.9
320.417	71.85
320.63	65.71
320.843	67.75
321.057	12.46
321.27	125.1
321.483	10.41
321.697	47.27
321.91	16.55
322.124	106.67
322.337	65.71
322.55	-10.07
322.763	0.17
322.977	100.52
323.19	47.27
323.403	90.28
323.617	-16.21
323.83	61.61
324.043	108.71
324.256	59.56
324.469	37.03
324.683	102.57
324.896	90.28
325.109	63.66
325.322	98.47
325.535	73.9
325.748	63.66
325.962	30.89
326.175	59.56
326.388	47.27
326.601	26.79
326.814	98.47
327.027	100.52
327.24	143.53
327.453	20.65
327.666	6.31
327.879	94.38
328.092	96.43
328.305	84.14
328.518	55.47
328.731	84.14
328.944	24.75
329.157	65.71
329.37	69.8
329.583	75.95
329.796	116.9
330.009	71.85
330.222	-10.07
330.435	28.84
330.648	47.27
330.861	28.84
331.073	116.9
331.286	96.43
331.499	90.28
331.712	55.47
331.925	39.08
332.138	57.51
332.35	80.04
332.563	28.84
332.776	94.38
332.989	32.94
333.202	104.62
333.414	65.71
333.627	41.13
333.84	0.17
334.053	71.85
334.265	55.47
334.478	102.57
334.691	67.75
334.903	92.33
335.116	12.46
335.329	49.32
335.541	121
335.754	92.33
335.966	30.89
336.179	20.65
336.392	16.55
336.604	55.47
336.817	123.05
337.029	65.71
337.242	96.43
337.454	67.75
337.667	98.47
337.88	55.47
338.092	32.94
338.305	123.05
338.517	45.23
338.729	100.52
338.942	104.62
339.154	22.7
339.367	-12.12
339.579	112.81
339.792	-24.4
340.004	22.7
340.217	37.03
340.429	59.56
340.641	55.47
340.854	43.18
341.066	82.09
341.278	10.41
341.491	73.9
341.703	53.42
341.915	12.46
342.128	18.6
342.34	59.56
342.552	6.31
342.764	73.9
342.977	137.38
343.189	65.71
343.401	12.46
343.613	22.7
343.826	80.04
344.038	73.9
344.25	39.08
344.462	-1.88
344.674	86.19
344.886	86.19
345.099	57.51
345.311	24.75
345.523	65.71
345.735	98.47
345.947	102.57
346.159	12.46
346.371	108.71
346.583	14.51
346.795	110.76
347.007	10.41
347.219	34.99
347.431	-20.31
347.643	28.84
347.855	26.79
348.067	63.66
348.279	4.27
348.491	90.28
348.703	80.04
348.915	67.75
349.127	16.55
349.339	57.51
349.551	-5.97
349.763	45.23
349.975	39.08
350.187	80.04
350.399	90.28
350.61	94.38
350.822	34.99
351.034	116.9
351.246	92.33
351.458	39.08
351.669	16.55
351.881	110.76
352.093	18.6
352.305	159.91
352.517	67.75
352.728	96.43
352.94	114.86
353.152	182.44
353.363	47.27
353.575	106.67
353.787	63.66
353.999	32.94
354.21	104.62
354.422	45.23
354.633	41.13
354.845	118.95
355.057	28.84
355.268	41.13
355.48	-46.93
355.692	110.76
355.903	-8.02
356.115	123.05
356.326	63.66
356.538	129.19
356.749	53.42
356.961	26.79
357.172	90.28
357.384	73.9
357.595	127.14
357.807	94.38
358.018	16.55
358.23	39.08
358.441	98.47
358.653	28.84
358.864	39.08
359.075	30.89
359.287	110.76
359.498	123.05
359.709	39.08
359.921	94.38
360.132	49.32
360.344	90.28
360.555	92.33
360.766	34.99
360.977	59.56
361.189	88.23
361.4	-16.21
361.611	55.47
361.823	57.51
362.034	92.33
362.245	67.75
362.456	16.55
362.667	84.14
362.879	114.86
363.09	90.28
363.301	26.79
363.512	100.52
363.723	39.08
363.935	55.47
364.146	71.85
364.357	43.18
364.568	71.85
364.779	32.94
364.99	123.05
365.201	-20.31
365.412	30.89
365.623	65.71
365.834	129.19
366.045	141.48
366.256	88.23
366.467	59.56
366.678	133.29
366.889	77.99
367.1	73.9
367.311	110.76
367.522	30.89
367.733	94.38
367.944	112.81
368.155	39.08
368.366	34.99
368.577	73.9
368.788	30.89
368.999	30.89
369.209	106.67
369.42	67.75
369.631	75.95
369.842	73.9
370.053	80.04
370.264	39.08
370.474	16.55
370.685	45.23
370.896	6.31
371.107	108.71
371.317	106.67
371.528	53.42
371.739	47.27
371.95	100.52
372.16	67.75
372.371	-16.21
372.582	41.13
372.792	108.71
373.003	73.9
373.214	39.08
373.424	0.17
373.635	41.13
373.846	65.71
374.056	118.95
374.267	51.37
374.477	114.86
374.688	-28.5
374.898	43.18
375.109	94.38
375.319	37.03
375.53	108.71
375.74	51.37
375.951	82.09
376.161	139.43
376.372	77.99
376.582	73.9
376.793	135.34
377.003	80.04
377.214	96.43
377.424	100.52
377.635	65.71
377.845	77.99
378.055	59.56
378.266	-22.36
378.476	39.08
378.686	45.23
378.897	121
379.107	110.76
379.317	53.42
379.528	116.9
379.738	100.52
379.948	20.65
380.158	75.95
380.369	84.14
380.579	45.23
380.789	57.51
380.999	174.25
381.21	63.66
381.42	110.76
381.63	-38.74
381.84	100.52
382.05	-5.97
382.261	141.48
382.471	86.19
382.681	77.99
382.891	92.33
383.101	51.37
383.311	-3.93
383.521	77.99
383.731	90.28
383.941	135.34
384.151	59.56
384.361	16.55
384.571	14.51
384.781	59.56
384.991	121
385.201	137.38
385.411	77.99
385.621	77.99
385.831	61.61
386.041	98.47
386.251	57.51
386.461	98.47
386.671	73.9
386.881	90.28
387.091	-40.79
387.301	133.29
387.511	49.32
387.72	129.19
387.93	57.51
388.14	43.18
388.35	100.52
388.56	98.47
388.769	153.77
388.979	53.42
389.189	88.23
389.399	14.51
389.609	92.33
389.818	118.95
390.028	135.34
390.238	114.86
390.447	-8.02
390.657	63.66
390.867	41.13
391.076	45.23
391.286	114.86
391.496	61.61
391.705	110.76
391.915	80.04
392.125	110.76
392.334	131.24
392.544	139.43
392.753	80.04
392.963	55.47
393.172	65.71
393.382	106.67
393.591	112.81
393.801	75.95
394.01	110.76
394.22	180.39
394.429	88.23
394.639	104.62
394.848	98.47
395.058	125.1
395.267	22.7
395.477	168.1
395.686	94.38
395.895	57.51
396.105	196.78
396.314	149.67
396.524	155.82
396.733	141.48
396.942	102.57
397.152	194.73
397.361	184.49
397.57	112.81
397.78	100.52
397.989	217.26
398.198	159.91
398.407	110.76
398.617	102.57
398.826	131.24
399.035	159.91
399.244	110.76
399.453	129.19
399.663	223.4
399.872	170.15
400.081	155.82
400.29	204.97
400.499	155.82
400.708	161.96
400.917	161.96
401.127	178.34
401.336	190.63
401.545	184.49
401.754	145.58
401.963	231.59
402.172	73.9
402.381	151.72
402.59	141.48
402.799	88.23
403.008	192.68
403.217	198.82
403.426	184.49
403.635	164.01
403.844	227.5
404.053	207.02
404.262	194.73
404.471	170.15
404.68	188.58
404.888	170.15
405.097	223.4
405.306	192.68
405.515	266.41
405.724	184.49
405.933	254.12
406.142	272.55
406.35	293.03
406.559	190.63
406.768	266.41
406.977	217.26
407.185	293.03
407.394	342.18
407.603	297.13
407.812	258.21
408.02	311.46
408.229	350.37
408.438	299.17
408.646	293.03
408.855	311.46
409.064	344.23
409.272	362.66
409.481	360.61
409.69	295.08
409.898	420
410.107	450.72
410.315	325.8
410.524	374.95
410.733	420
410.941	420
411.15	442.53
411.358	491.68
411.567	600.23
411.775	516.26
411.984	602.27
412.192	583.84
412.401	522.4
412.609	596.13
412.818	639.14
413.026	577.7
413.234	616.61
413.443	637.09
413.651	620.71
413.86	659.62
414.068	794.78
414.276	817.31
414.485	827.55
414.693	841.89
414.901	835.74
415.11	825.5
415.318	882.85
415.526	897.18
415.734	991.39
415.943	989.34
416.151	983.2
416.359	1038.49
416.567	1036.44
416.776	1118.36
416.984	1222.81
417.192	1167.51
417.4	1194.14
417.608	1296.53
417.817	1368.21
418.025	1487
418.233	1476.76
418.441	1433.75
418.649	1538.2
418.857	1618.07
419.065	1562.77
419.273	1640.59
419.481	1671.31
419.689	1882.25
419.897	1984.65
420.105	1863.82
420.313	1880.21
420.521	2013.32
420.729	2082.95
420.937	2089.1
421.145	2195.59
421.353	2304.14
421.561	2359.43
421.769	2472.07
421.977	2586.76
422.185	2470.02
422.393	2705.54
422.601	2873.47
422.809	2816.13
423.017	2809.98
423.224	3080.32
423.432	3135.61
423.64	3055.74
423.848	3446.9
424.056	3371.13
424.263	3491.96
424.471	3580.02
424.679	3698.8
424.887	3801.2
425.094	4014.19
425.302	4073.58
425.51	4190.31
425.718	4264.04
425.925	4208.75
426.133	4450.41
426.341	4626.53
426.548	4833.38
426.756	4870.24
426.964	5095.52
427.171	5349.47
427.379	5402.71
427.586	5574.74
427.794	5724.24
428.001	5826.64
428.209	6176.84
428.417	6101.07
428.624	6625.35
428.832	6568.01
429.039	6488.14
429.247	6496.33
429.454	7143.49
429.662	7532.6
429.869	7110.72
430.076	7718.96
430.284	7573.56
430.491	7774.26
430.699	8288.3
430.906	8337.45
431.114	8331.31
431.321	8634.41
431.528	8828.96
431.736	9300
431.943	9838.61
432.15	9572.38
432.358	9498.65
432.565	10094.61
432.772	10123.28
432.979	10620.94
433.187	10627.08
433.394	10899.46
433.601	11626.49
433.808	11804.66
434.016	11409.4
434.223	12124.15
434.43	12597.23
434.637	12578.79
434.844	13039.59
435.052	13520.86
435.259	13447.13
435.466	13643.74
435.673	13340.64
435.88	14342.1
436.087	14952.39
436.294	15185.86
436.501	14882.76
436.708	15071.17
436.915	15706.04
437.122	16261.04
437.329	16242.61
437.537	16908.2
437.743	16832.43
437.95	16838.57
438.157	17735.58
438.364	18491.28
438.571	18155.41
438.778	18397.07
438.985	19988.35
439.192	19535.74
439.399	19994.49
439.606	19611.52
439.813	20539.25
440.02	22003.55
440.227	21380.96
440.433	21288.81
440.64	22034.27
440.847	21864.29
441.054	22294.36
441.261	23844.67
441.467	23682.88
441.674	24280.89
441.881	24670
442.088	24809.26
442.294	24528.69
442.501	25202.47
442.708	26027.81
442.914	26867.47
443.121	27877.12
443.328	27246.35
443.534	29327.08
443.741	28425.98
443.948	27950.85
444.154	30283.48
444.361	29763.3
444.568	30258.91
444.774	30140.13
444.981	30768.85
445.187	31700.68
445.394	32685.75
445.6	32274.11
445.807	35425.93
446.013	33896.1
446.22	34389.66
446.426	35956.36
446.633	36069
446.839	37604.97
447.046	35540.62
447.252	37949.03
447.459	37705.32
447.665	37813.87
447.871	39310.93
448.078	41256.5
448.284	39157.33
448.491	39997
448.697	42112.55
448.903	42915.36
449.11	42659.36
449.316	41680.43
449.522	42530.34
449.728	43712.02
449.935	43974.16
450.141	44209.67
450.347	44992
450.553	43976.2
450.76	44045.83
450.966	45721.07
451.172	45168.12
451.378	46593.51
451.584	45176.31
451.791	46495.21
451.997	46190.06
452.203	46872.03
452.409	47093.21
452.615	46859.74
452.821	45254.14
453.027	45096.44
453.233	47166.94
453.44	45438.45
453.646	46112.24
453.852	45784.56
454.058	46802.4
454.264	45291
454.47	46296.55
454.676	45327.86
454.882	46798.3
455.088	43015.71
455.294	43720.21
455.5	44389.89
455.705	44568.07
455.911	42667.55
456.117	42049.07
456.323	41428.53
456.529	39519.82
456.735	41121.34
456.941	39890.51
457.147	39411.28
457.352	37951.08
457.558	37473.9
457.764	37912.17
457.97	37127.8
458.176	36652.67
458.381	35956.36
458.587	34571.93
458.793	34858.65
458.999	32820.92
459.204	34680.47
459.41	34414.24
459.616	31583.94
459.821	31741.64
460.027	31397.58
460.233	31315.66
460.438	29357.8
460.644	30176.99
460.85	28610.29
461.055	28169.98
461.261	27930.37
461.466	26081.05
461.672	25360.17
461.878	26867.47
462.083	25376.55
462.289	24573.75
462.494	24504.12
462.7	23607.11
462.905	22822.73
463.111	23691.07
463.316	23643.97
463.522	23209.8
463.727	23461.7
463.932	23250.76
464.138	23037.77
464.343	23035.72
464.549	22493.01
464.754	23054.15
464.959	22921.04
465.165	22816.59
465.37	21464.93
465.575	21202.79
465.781	22124.38
465.986	22269.78
466.191	21753.69
466.397	20928.36
466.602	19951.48
466.807	20942.7
467.012	20823.92
467.218	20506.48
467.423	20551.54
467.628	20510.58
467.833	21577.57
468.038	20553.59
468.244	19896.19
468.449	20895.6
468.654	20092.79
468.859	20148.09
469.064	19888
469.269	18907.02
469.474	19353.48
469.679	19343.24
469.885	19363.72
470.09	19240.84
470.295	19218.31
470.5	18755.47
470.705	18603.92
470.91	18595.73
471.115	18110.36
471.32	18550.67
471.525	18419.6
471.73	17756.06
471.935	17813.4
472.139	17350.56
472.344	17616.8
472.549	17457.06
472.754	17399.71
472.959	17084.33
473.164	16613.29
473.369	16514.99
473.574	16996.26
473.778	16603.05
473.983	16746.41
474.188	16502.7
474.393	15626.17
474.598	15863.74
474.802	15531.97
475.007	15683.52
475.212	15593.4
475.417	15042.5
475.621	15005.64
475.826	15089.6
476.031	14716.87
476.235	14489.55
476.44	14561.23
476.645	14405.58
476.849	14645.2
477.054	14163.92
477.259	13936.6
477.463	13940.69
477.668	13844.44
477.872	13938.65
478.077	13678.55
478.282	13389.79
478.486	13365.21
478.691	13107.17
478.895	13051.88
479.1	13074.4
479.304	13080.55
479.509	12640.23
479.713	12963.81
479.918	12527.6
480.122	12400.62
480.326	12750.82
480.531	12668.91
480.735	12521.45
480.94	12333.04
481.144	12918.76
481.348	12077.04
481.553	12230.64
481.757	12099.57
481.961	12079.09
482.166	12328.94
482.37	12386.29
482.574	11892.73
482.778	12279.79
482.983	12347.37
483.187	12034.04
483.391	12220.4
483.595	11999.22
483.8	12097.52
484.004	12195.82
484.208	12343.28
484.412	11958.26
484.616	12070.9
484.821	11966.45
485.025	11978.74
485.229	12185.58
485.433	12058.61
485.637	11927.54
485.841	11870.2
486.045	12050.42
486.249	12023.8
486.453	11927.54
486.657	12279.79
486.861	11974.64
487.065	11919.35
487.269	12021.75
487.473	11819
487.677	12177.39
487.881	12216.3
488.085	11939.83
488.289	12244.98
488.493	11857.91
488.697	12158.96
488.901	12220.4
489.105	12074.99
489.309	12132.34
489.512	12005.36
489.716	12023.8
489.92	12218.35
490.124	12238.83
490.328	12498.92
490.531	12228.59
490.735	12261.36
490.939	12341.23
491.143	12300.27
491.346	12206.06
491.55	12582.89
491.754	12505.07
491.958	12558.32
492.161	12720.1
492.365	12683.24
492.569	12589.03
492.772	12539.88
492.976	12759.02
493.18	12711.91
493.383	13019.11
493.587	13037.54
493.79	13101.03
493.994	13037.54
494.197	13017.06
494.401	13158.37
494.605	13420.51
494.808	13350.88
495.012	13690.84
495.215	13662.17
495.419	13672.41
495.622	13725.66
495.825	13869.02
496.029	14059.48
496.232	14161.87
496.436	14090.2
496.639	14712.78
496.843	14397.39
497.046	14776.27
497.249	14729.16
497.453	14862.28
497.656	15046.6
497.859	14936.01
498.063	15161.28
498.266	15816.63
498.469	15437.76
498.673	15613.88
498.876	15865.78
499.079	16037.81
499.282	15933.37
499.485	16525.23
499.689	16641.96
499.892	16562.09
500.095	16963.5
500.298	17135.53
500.501	17004.46
500.705	17483.68
500.908	17737.63
501.111	17629.09
501.314	18024.34
501.517	17989.53
501.72	18530.19
501.923	18087.83
502.126	18876.3
502.329	19339.14
502.532	19005.32
502.735	19103.62
502.938	19552.13
503.141	19793.79
503.344	20133.75
503.547	19812.22
503.75	20451.19
503.953	20555.63
504.156	20936.56
504.359	21401.44
504.562	21182.31
504.765	21663.58
504.968	21804.89
505.17	21849.95
505.373	21856.09
505.576	22443.86
505.779	22783.82
505.982	22703.95
506.185	23289.67
506.387	23353.16
506.59	23392.07
506.793	23930.69
506.996	23895.87
507.198	24446.77
507.401	24262.46
507.604	25040.68
507.807	25175.85
508.009	25202.47
508.212	25421.61
508.415	25880.35
508.617	26361.62
508.82	26201.88
509.022	26347.29
509.225	26859.28
509.428	27021.07
509.63	27186.96
509.833	27229.96
510.035	27813.63
510.238	27672.32
510.44	27866.88
510.643	28677.88
510.845	28767.99
511.048	28624.63
511.25	29089.52
511.453	29132.53
511.655	30473.95
511.858	30093.02
512.06	30531.29
512.262	30854.87
512.465	30406.36
512.667	31278.8
512.87	31106.77
513.072	31442.63
513.274	32372.41
513.477	32648.89
513.679	32571.07
513.881	33210.03
514.084	33406.64
514.286	33365.68
514.488	33805.99
514.69	34139.81
514.893	34469.53
515.095	34576.03
515.297	35081.88
515.499	35436.17
515.701	35581.58
515.904	36179.59
516.106	36099.72
516.308	36433.53
516.51	36736.63
516.712	36656.76
516.914	37541.49
517.116	37750.38
517.318	37998.18
517.52	38442.59
517.722	38561.37
517.925	39159.38
518.127	39323.22
518.329	39798.35
518.531	39722.57
518.733	40339.01
518.935	40695.36
519.136	40820.28
519.338	41358.9
519.54	41430.58
519.742	41535.02
519.944	41924.14
520.146	42708.51
520.348	42614.3
520.55	42784.29
520.752	43044.38
520.954	43826.7
521.155	43247.13
521.357	43828.75
521.559	44557.83
521.761	45016.57
521.963	44500.48
522.164	45100.54
522.366	45155.83
522.568	45731.31
522.77	45907.44
522.971	46878.18
523.173	46050.8
523.375	46720.48
523.576	46317.03
523.778	46843.36
523.98	47769.04
524.181	47779.28
524.383	47699.41
524.584	48199.12
524.786	48410.06
524.988	48356.81
525.189	48813.51
525.391	49085.89
525.592	49190.33
525.794	49649.08
525.995	49563.06
526.197	49219
526.398	49741.24
526.6	50105.77
526.801	50447.78
527.003	50689.45
527.204	50339.24
527.406	51592.6
527.607	51164.57
527.808	51002.78
528.01	50689.45
528.211	51172.77
528.412	52020.62
528.614	51531.16
528.815	51604.89
529.016	52127.12
529.218	51789.2
529.419	51797.4
529.62	52006.29
529.822	52141.46
530.023	52114.83
530.224	52163.98
530.425	52323.72
530.626	52338.06
530.828	52088.21
531.029	53392.76
531.23	52905.35
531.431	52495.75
531.632	52563.34
531.833	53294.46
532.035	53136.77
532.236	53153.15
532.437	53597.56
532.638	52938.11
532.839	53271.93
533.04	53577.08
533.241	52686.21
533.442	53507.45
533.643	53069.18
533.844	53460.35
534.045	53710.2
534.246	52991.36
534.447	53734.77
534.648	53560.7
534.849	53542.27
535.05	52837.76
535.251	52997.51
535.451	53331.32
535.652	53214.59
535.853	53364.09
536.054	53523.83
536.255	53523.83
536.456	52954.5
536.657	53679.48
536.857	53108.1
537.058	52993.41
537.259	53808.5
537.46	53493.11
537.66	53128.58
537.861	53020.03
538.062	53466.49
538.263	53757.3
538.463	53222.78
538.664	53591.42
538.865	53532.03
539.065	53513.59
539.266	53216.64
539.466	53960.05
539.667	52974.98
539.868	54383.98
540.068	53480.83
540.269	53452.16
540.469	53769.59
540.67	53071.23
540.87	53292.41
541.071	53128.58
541.271	53484.92
541.472	53153.15
541.672	53022.08
541.873	52843.91
542.073	52651.4
542.274	53253.5
542.474	53470.59
542.675	52886.92
542.875	53585.27
543.075	52999.55
543.276	52729.22
543.476	53171.58
543.676	53104
543.877	53396.86
544.077	53360
544.277	52891.01
544.478	52774.28
544.678	53282.17
544.878	52901.25
545.078	53310.85
545.279	52589.96
545.479	52909.44
545.679	53013.89
545.879	53001.6
546.079	53288.32
546.28	52788.61
546.48	52331.92
546.68	52716.93
546.88	53304.7
547.08	53273.98
547.28	52784.52
547.48	52338.06
547.68	53417.34
547.88	52743.56
548.081	52694.41
548.281	52596.1
548.481	52888.96
548.681	53011.84
548.881	52692.36
549.081	52229.52
549.28	52733.32
549.48	52979.07
549.68	52569.48
549.88	53212.54
550.08	52360.59
550.28	53097.86
550.48	52600.2
550.68	52899.2
550.88	52774.28
551.08	52770.18
551.279	52938.11
551.479	52254.09
551.679	52295.05
551.879	52598.15
552.079	52571.53
552.278	52448.65
552.478	52137.36
552.678	52460.94
552.878	52600.2
553.077	52303.24
553.277	52241.81
553.477	52370.83
553.676	52309.39
553.876	52321.68
554.076	52395.4
554.275	51928.47
554.475	51934.61
554.674	52393.36
554.874	52436.36
555.074	52180.37
555.273	52225.42
555.473	52305.29
555.672	51537.3
555.872	52059.54
556.071	51907.99
556.271	52075.92
556.47	51963.28
556.67	51627.41
556.869	51676.57
557.068	51787.16
557.268	51553.69
557.467	51869.08
557.667	51586.46
557.866	51443.1
558.065	51568.02
558.265	51140
558.464	51178.91
558.663	51815.83
558.863	51015.07
559.062	52051.34
559.261	51064.22
559.461	51275.16
559.66	50363.82
559.859	51037.6
560.058	50724.26
560.258	50935.2
560.457	50308.52
560.656	51332.51
560.855	50998.69
561.054	51090.85
561.253	50345.39
561.453	50922.91
561.652	50521.51
561.851	50726.31
562.05	50433.45
562.249	50107.82
562.448	50343.34
562.647	50394.54
562.846	50351.53
563.045	50435.5
563.244	49225.15
563.443	50484.65
563.642	49860.02
563.841	49982.9
564.04	49505.72
564.239	50150.83
564.438	49825.2
564.637	49755.57
564.836	49761.72
565.035	49100.22
565.234	49409.46
565.432	48985.54
565.631	49051.07
565.83	49364.41
566.029	48823.75
566.228	49135.04
566.427	48754.11
566.625	48532.93
566.824	48184.78
567.023	48655.81
567.222	48127.44
567.42	49200.57
567.619	48186.83
567.818	48039.37
568.016	48367.05
568.215	48496.07
568.414	47914.45
568.612	48025.04
568.811	47926.74
569.01	47742.42
569.208	47470.04
569.407	47560.15
569.605	46865.89
569.804	47881.68
570.002	47220.19
570.201	47226.33
570.4	47275.48
570.598	46839.26
570.797	46593.51
570.995	47076.83
571.193	46288.36
571.392	47138.27
571.59	46126.57
571.789	46693.86
571.987	46198.25
572.186	46147.05
572.384	46114.28
572.582	46294.5
572.781	46622.18
572.979	45491.7
573.177	45874.67
573.376	45913.58
573.574	45370.87
573.772	46067.18
573.971	45348.34
574.169	45215.22
574.367	44924.41
574.565	45403.64
574.763	44860.93
574.962	44795.39
575.16	44502.53
575.358	44910.08
575.556	44117.51
575.754	44602.88
575.952	44152.33
576.151	44561.92
576.349	44154.38
576.547	44164.62
576.745	44213.77
576.943	43988.49
577.141	44174.86
577.339	43875.85
577.537	43451.92
577.735	43648.53
577.933	43177.5
578.131	43453.97
578.329	43253.27
578.527	42962.46
578.725	42937.88
578.923	43480.6
579.121	42780.19
579.319	42513.95
579.516	42769.95
579.714	42597.92
579.912	42401.32
580.11	42454.56
580.308	42124.84
580.506	42075.69
580.704	41328.18
580.901	42386.98
581.099	42186.28
581.297	41518.64
581.495	41662
581.692	41608.75
581.89	41217.59
582.088	41743.92
582.285	41252.41
582.483	41512.5
582.681	41430.58
582.878	40808
583.076	40646.21
583.274	41051.7
583.471	40293.96
583.669	40515.14
583.866	40191.56
584.064	40683.07
584.262	39855.69
584.459	40375.87
584.657	39769.68
584.854	40218.18
585.052	39601.74
585.249	39673.42
585.447	39867.98
585.644	39302.74
585.841	39579.21
586.039	39571.02
586.236	38852.19
586.434	39124.57
586.631	38979.16
586.828	38858.33
587.026	38966.87
587.223	38755.93
587.42	39044.69
587.618	38639.2
587.815	38358.63
588.012	38141.54
588.21	38125.16
588.407	38501.98
588.604	37996.13
588.801	37807.72
588.999	37965.42
589.196	37705.32
589.393	37400.18
589.59	37510.77
589.787	37209.71
589.984	37441.14
590.182	36677.24
590.379	37760.62
590.576	36755.07
590.773	36853.37
590.97	36849.27
591.167	36828.79
591.364	36679.29
591.561	36347.52
591.758	36296.32
591.955	36083.33
592.152	36667
592.349	35985.03
592.546	36357.76
592.743	35917.45
592.94	35403.41
593.137	35858.06
593.334	35481.23
593.531	35149.46
593.727	35301.01
593.924	34897.56
594.121	34938.52
594.318	35667.59
594.515	34700.95
594.712	35202.71
594.908	34621.08
595.105	34975.38
595.302	34387.61
595.499	34418.33
595.696	34481.82
595.892	34002.6
596.089	34371.23
596.286	34252.45
596.482	33818.28
596.679	33879.72
596.876	33869.48
597.072	33830.57
597.269	33437.36
597.466	33306.29
597.662	33285.81
597.859	33396.4
598.055	33246.9
598.252	33044.15
598.448	33281.71
598.645	32964.28
598.841	32507.58
599.038	32925.36
599.234	32560.83
599.431	32278.21
599.627	32489.15
599.824	32396.99
600.02	32329.41
600.217	32306.88
600.413	32251.58
600.609	31930.05
600.806	31254.22
601.002	32048.83
601.198	31534.79
601.395	31426.25
601.591	31149.78
601.787	31330
601.984	31137.49
602.18	31393.48
602.376	30971.6
602.572	31067.86
602.769	30926.55
602.965	30562.01
603.161	30643.93
603.357	30768.85
603.553	30566.1
603.75	30643.93
603.946	30250.72
604.142	30349.02
604.338	29943.52
604.534	30432.99
604.73	29775.59
604.926	29783.78
605.122	29796.07
605.318	29316.84
605.514	29585.13
605.71	29374.19
605.906	29441.77
606.102	29277.93
606.298	29296.36
606.494	29353.71
606.69	29247.21
606.886	29441.77
607.082	28794.61
607.278	29212.4
607.474	28815.09
607.67	29103.85
607.866	28444.41
608.062	28681.97
608.257	28483.32
608.453	28528.38
608.649	28602.1
608.845	28366.59
609.041	28284.67
609.236	28219.13
609.432	28206.84
609.628	28296.95
609.824	27932.42
610.019	27844.35
610.215	27989.76
610.411	27684.61
610.606	27832.07
610.802	28008.19
610.998	27660.04
611.193	27905.79
611.389	27586.31
611.584	27531.01
611.78	27401.99
611.976	27502.34
612.171	27619.08
612.367	27305.74
612.562	27166.48
612.758	26951.44
612.953	26939.15
613.149	27328.27
613.344	27137.8
613.539	27553.54
613.735	27008.78
613.93	27168.52
614.126	26846.99
614.321	27180.81
614.517	26914.58
614.712	26869.52
614.907	26507.03
615.103	26869.52
615.298	26808.08
615.493	26773.27
615.688	26312.47
615.884	26867.47
616.079	26042.14
616.274	26615.57
616.47	26287.9
616.665	25921.31
616.86	26070.81
617.055	26029.85
617.25	25831.2
617.445	26101.53
617.641	25730.85
617.836	26244.89
618.031	25782.05
618.226	25984.8
618.421	25528.1
618.616	25685.79
618.811	25104.17
619.006	25796.39
619.201	24926
619.396	25153.32
619.591	24782.64
619.786	24989.49
619.981	24604.47
620.176	25044.78
620.371	24629.04
620.566	24549.17
620.761	24563.51
620.956	24377.14
621.151	24227.64
621.346	24575.8
621.541	23877.44
621.735	24002.36
621.93	23756.61
622.125	23750.46
622.32	23541.57
622.515	23648.07
622.709	23275.34
622.904	23222.09
623.099	23131.98
623.294	23326.53
623.488	22996.81
623.683	22988.62
623.878	22581.07
624.072	22388.57
624.267	22679.38
624.462	22282.07
624.656	22142.81
624.851	22413.14
625.046	22073.18
625.24	22382.42
625.435	21815.13
625.629	21649.25
625.824	21534.56
626.018	21413.73
626.213	21219.17
626.407	21573.47
626.602	20987.75
626.796	20979.56
626.991	20780.91
627.185	20895.6
627.38	20639.6
627.574	20297.59
627.768	20412.28
627.963	20371.32
628.157	20072.31
628.352	20133.75
628.546	19881.85
628.74	19963.77
628.935	19939.19
629.129	19849.08
629.323	19693.44
629.517	19554.18
629.712	19441.54
629.906	19150.73
630.1	18937.74
630.294	18999.18
630.489	18841.48
630.683	19208.07
630.877	18964.36
631.071	18679.69
631.265	18583.44
631.459	18495.38
631.653	18220.95
631.848	18284.44
632.042	18309.01
632.236	18268.05
632.43	17950.62
632.624	17786.78
632.818	17778.59
633.012	17954.71
633.206	17794.97
633.4	17930.14
633.594	17500.06
633.788	17694.62
633.982	17311.65
634.176	17227.68
634.369	17194.92
634.563	17035.17
634.757	16906.15
634.951	17096.61
635.145	16795.56
635.339	16971.69
635.533	16463.79
635.726	16596.91
635.92	16318.39
636.114	16611.25
636.308	16152.5
636.501	16250.8
636.695	16091.06
636.889	16150.45
637.083	15857.59
637.276	15959.99
637.47	15796.15
637.664	15577.02
637.857	15765.43
638.051	15603.64
638.244	15615.93
638.438	15372.22
638.632	15359.94
638.825	15198.15
639.019	15073.22
639.212	14741.45
639.406	15222.72
639.599	14796.74
639.793	15099.84
639.986	14897.1
640.18	14903.24
640.373	14700.49
640.567	14360.53
640.76	14532.56
640.954	14350.29
641.147	14219.22
641.34	14288.85
641.534	14278.61
641.727	13959.13
641.92	13967.32
642.114	13907.93
642.307	13875.16
642.5	13926.36
642.694	13748.18
642.887	13498.33
643.08	13615.07
643.273	13338.59
643.467	13402.08
643.66	13453.28
643.853	13144.03
644.046	13123.55
644.239	13189.09
644.432	13238.24
644.626	12992.48
644.819	12959.72
645.012	12890.09
645.205	12898.28
645.398	12861.41
645.591	12675.05
645.784	12646.38
645.977	12605.42
646.17	12728.3
646.363	12503.02
646.556	12150.77
646.749	12271.6
646.942	12257.26
647.135	12140.53
647.328	12099.57
647.521	12023.8
647.714	11941.88
647.907	11843.57
648.099	11735.03
648.292	11845.62
648.485	11732.98
648.678	11519.99
648.871	11558.91
649.064	11505.66
649.256	11642.87
649.449	11573.24
649.642	11427.84
649.835	11304.96
650.027	11214.85
650.22	11147.26
650.413	11167.74
650.605	11116.55
650.798	11055.11
650.991	11147.26
651.183	10891.27
651.376	10756.1
651.568	10821.64
651.761	10610.7
651.954	10719.24
652.146	10706.95
652.339	10567.69
652.531	10483.72
652.724	10420.24
652.916	10283.02
653.109	10418.19
653.301	10342.41
653.494	10444.81
653.686	10291.21
653.879	10141.71
654.071	10135.57
654.263	9842.71
654.456	10061.84
654.648	10031.12
654.84	9918.48
655.033	10004.5
655.225	9791.51
655.417	9603.1
655.61	9740.31
655.802	9730.07
655.994	9547.8
656.186	9508.89
656.379	9386.01
656.571	9463.83
656.763	9250.85
656.955	9242.65
657.148	9185.31
657.34	9377.82
657.532	9158.69
657.724	9035.81
657.916	9132.06
658.108	9066.53
658.3	8937.51
658.492	9259.04
658.684	8933.41
658.876	8970.27
659.068	8882.21
659.26	8863.78
659.452	8753.19
659.644	8701.99
659.836	8769.57
660.028	8718.37
660.22	8472.62
660.412	8468.52
660.604	8501.29
660.796	8439.85
660.988	8345.64
661.18	8280.11
661.372	8214.57
661.563	8357.93
661.755	8136.75
661.947	8005.68
662.139	8103.98
662.331	8134.7
662.522	7929.91
662.714	8097.84
662.906	7825.46
663.097	7837.75
663.289	7835.7
663.481	7987.25
663.673	7858.23
663.864	7712.82
664.056	7528.5
664.247	7616.57
664.439	7477.3
664.631	7682.1
664.822	7501.88
665.014	7532.6
665.205	7635
665.397	7501.88
665.588	7485.5
665.78	7301.18
665.971	7338.04
666.163	7198.78
666.354	7286.84
666.546	7354.43
666.737	7213.12
666.929	7295.04
667.12	7055.42
667.311	7135.29
667.503	7196.73
667.694	7016.51
667.885	7137.34
668.077	6967.36
668.268	6856.77
668.459	6983.74
668.651	6813.76
668.842	6789.19
669.033	6774.85
669.224	6811.71
669.416	6821.95
669.607	6559.81
669.798	6625.35
669.989	6770.76
670.18	6711.36
670.371	6656.07
670.563	6543.43
670.754	6441.03
670.945	6355.02
671.136	6553.67
671.327	6451.27
671.518	6393.93
671.709	6299.72
671.9	6453.32
672.091	6479.94
672.282	6273.1
672.473	6326.35
672.664	6117.45
672.855	6158.41
673.046	6232.14
673.237	6314.06
673.428	6053.97
673.619	6174.8
673.809	6105.17
674	5916.75
674.191	5992.53
674.382	6049.87
674.573	6094.93
674.764	5972.05
674.954	6035.53
675.145	5988.43
675.336	5732.44
675.527	5947.47
675.717	5820.5
675.908	5941.33
676.099	5703.76
676.289	5824.59
676.48	5896.27
676.671	5685.33
676.861	5718.1
677.052	5744.72
677.243	5627.99
677.433	5613.65
677.624	5728.34
677.814	5517.4
678.005	5709.91
678.195	5732.44
678.386	5492.82
678.576	5562.45
678.767	5597.27
678.957	5496.92
679.148	5503.06
679.338	5480.54
679.529	5435.48
679.719	5429.34
679.909	5556.31
680.1	5406.81
680.29	5335.13
680.481	5357.66
680.671	5288.03
680.861	5277.79
681.052	5312.6
681.242	5236.83
681.432	5294.17
681.622	5165.15
681.813	5294.17
682.003	5136.48
682.193	5218.4
682.383	5232.73
682.573	5326.94
682.764	5130.33
682.954	5138.52
683.144	5179.48
683.334	5267.55
683.524	4991.07
683.714	5093.47
683.904	5054.56
684.094	5062.75
684.284	5083.23
684.474	5040.22
684.664	5019.74
684.854	5189.72
685.044	4890.72
685.234	4915.3
685.424	4925.54
685.614	4771.94
685.804	4833.38
685.994	4962.4
686.184	4978.78
686.374	4796.51
686.564	4870.24
686.753	4866.14
686.943	4708.45
687.133	4767.84
687.323	4724.83
687.513	4776.03
687.702	4712.55
687.892	4550.76
688.082	4698.21
688.272	4733.03
688.461	4616.29
688.651	4737.12
688.841	4612.2
689.03	4546.66
689.22	4642.92
689.41	4495.46
689.599	4458.6
689.789	4687.97
689.979	4384.87
690.168	4362.34
690.358	4294.76
690.547	4370.54
690.737	4489.32
690.926	4335.72
691.116	4253.8
691.305	4323.43
691.495	4184.17
691.684	4329.58
691.874	4466.79
692.063	4235.37
692.252	4276.33
692.442	4319.34
692.631	4061.29
692.82	4253.8
693.01	4180.07
693.199	4075.63
693.388	4173.93
693.578	4083.82
693.767	4030.57
693.956	4026.48
694.146	4040.81
694.335	4112.49
694.524	3905.65
694.713	4038.77
694.902	3979.37
695.092	3975.28
695.281	3911.79
695.47	3879.02
695.659	3858.54
695.848	3917.93
696.037	3868.78
696.226	3911.79
696.415	3940.46
696.604	3969.13
696.793	3776.63
696.982	3874.93
697.171	3854.45
697.36	3809.39
697.549	3856.5
697.738	3860.59
697.927	3666.03
698.116	3848.3
698.305	3672.18
698.494	3854.45
698.683	3823.73
698.872	3776.63
699.061	3733.62
699.25	3706.99
699.438	3616.88
699.627	3684.47
699.816	3663.99
700.005	3641.46
700.193	3815.54
700.382	3618.93
700.571	3541.11
700.76	3541.11
700.948	3557.49
701.137	3625.08
701.326	3500.15
701.514	3549.3
701.703	3537.01
701.892	3563.64
702.08	3725.43
702.269	3709.04
702.457	3528.82
702.646	3596.4
702.834	3534.96
703.023	3483.77
703.212	3577.97
703.4	3463.29
703.589	3616.88
703.777	3504.25
703.965	3522.68
704.154	3518.58
704.342	3537.01
704.531	3342.46
704.719	3358.84
704.907	3407.99
705.096	3393.65
705.284	3407.99
705.472	3324.02
705.661	3377.27
705.849	3407.99
706.037	3287.16
706.226	3352.7
706.414	3397.75
706.602	3496.05
706.79	3461.24
706.979	3254.39
707.167	3256.44
707.355	3401.85
707.543	3260.54
707.731	3281.02
707.919	3354.74
708.107	3242.11
708.296	3287.16
708.484	3154.04
708.672	3315.83
708.86	3283.06
709.048	3287.16
709.236	3293.3
709.424	3242.11
709.612	3151.99
709.8	3076.22
709.988	3139.71
710.176	3223.67
710.364	3211.39
710.551	3149.95
710.739	3119.23
710.927	3147.9
711.115	3180.67
711.303	3131.51
711.491	3108.99
711.679	3221.63
711.866	3053.69
712.054	3045.5
712.242	3149.95
712.43	3221.63
712.617	3111.04
712.805	2975.87
712.993	3133.56
713.181	3100.8
713.368	3076.22
713.556	3137.66
713.744	2996.35
713.931	3018.88
714.119	3137.66
714.306	3104.89
714.494	2947.2
714.682	2977.92
714.869	3022.97
715.057	3029.12
715.244	2951.29
715.432	3082.36
715.619	2936.96
715.807	3014.78
715.994	3065.98
716.182	3016.83
716.369	2945.15
716.556	2945.15
716.744	2873.47
716.931	2740.35
717.119	3020.92
717.306	2791.55
717.493	2809.98
717.681	2926.72
717.868	2850.94
718.055	2984.06
718.242	2762.88
718.43	2926.72
718.617	2973.82
718.804	2973.82
718.991	2844.8
719.179	2850.94
719.366	2723.97
719.553	2967.68
719.74	2932.86
719.927	2801.79
720.114	2818.18
720.301	2775.17
720.488	2805.89
720.676	2676.87
720.863	2867.33
721.05	2863.23
721.237	2824.32
721.424	2760.83
721.611	2809.98
721.798	2742.4
721.985	2693.25
722.172	2742.4
722.358	2857.09
722.545	2603.14
722.732	2719.87
722.919	2787.46
723.106	2660.48
723.293	2680.96
723.48	2660.48
723.667	2551.94
723.853	2652.29
724.04	2646.15
724.227	2717.83
724.414	2672.77
724.6	2695.3
724.787	2640
724.974	2523.27
725.161	2633.86
725.347	2566.28
725.534	2709.63
725.72	2685.06
725.907	2687.11
726.094	2629.76
726.28	2625.67
726.467	2666.63
726.653	2531.46
726.84	2578.56
727.027	2640
727.213	2582.66
727.4	2457.73
727.586	2560.13
727.773	2553.99
727.959	2558.08
728.145	2498.69
728.332	2521.22
728.518	2496.64
728.705	2576.52
728.891	2449.54
729.077	2494.6
729.264	2461.83
729.45	2431.11
729.636	2635.91
729.823	2459.78
730.009	2553.99
730.195	2414.73
730.382	2433.16
730.568	2371.72
730.754	2390.15
730.94	2410.63
731.126	2513.03
731.313	2478.21
731.499	2365.57
731.685	2388.1
731.871	2455.69
732.057	2482.31
732.243	2527.36
732.429	2463.88
732.615	2437.25
732.801	2427.01
732.987	2289.8
733.173	2439.3
733.359	2381.96
733.545	2379.91
733.731	2326.66
733.917	2369.67
734.103	2357.38
734.289	2408.58
734.475	2396.29
734.661	2439.3
734.847	2328.71
735.033	2373.77
735.219	2396.29
735.404	2386.05
735.59	2224.26
735.776	2427.01
735.962	2328.71
736.148	2250.89
736.333	2222.22
736.519	2261.13
736.705	2179.21
736.89	2349.19
737.076	2222.22
737.262	2209.93
737.447	2242.7
737.633	2285.7
737.819	2234.5
738.004	2238.6
738.19	2289.8
738.375	2140.3
738.561	2189.45
738.747	2101.39
738.932	2181.26
739.118	2228.36
739.303	2244.74
739.489	2218.12
739.674	2134.15
739.859	2187.4
740.045	2101.39
740.23	2099.34
740.416	2111.63
740.601	2111.63
740.786	2181.26
740.972	2046.09
741.157	2097.29
741.342	2119.82
741.528	2025.61
741.713	2035.85
741.898	2005.13
742.084	2039.95
742.269	2064.52
742.454	1947.79
742.639	2091.15
742.824	2033.8
743.01	2064.52
743.195	2089.1
743.38	1964.17
743.565	1947.79
743.75	1980.56
743.935	1937.55
744.12	2068.62
744.305	1902.73
744.49	1933.45
744.675	1994.89
744.86	1925.26
745.045	1894.54
745.23	1941.65
745.415	1837.2
745.6	1915.02
745.785	1835.15
745.97	1800.34
746.155	1888.4
746.34	1849.49
746.525	1765.52
746.71	1826.96
746.895	1761.42
747.079	1843.34
747.264	1763.47
747.449	1880.21
747.634	1726.61
747.819	1765.52
748.003	1722.51
748.188	1722.51
748.373	1661.07
748.557	1708.18
748.742	1638.55
748.927	1745.04
749.111	1638.55
749.296	1636.5
749.481	1714.32
749.665	1579.15
749.85	1583.25
750.034	1667.22
750.219	1616.02
750.404	1638.55
750.588	1665.17
750.773	1599.63
750.957	1552.53
751.141	1552.53
751.326	1607.83
751.51	1581.2
751.695	1546.39
751.879	1515.67
752.064	1595.54
752.248	1460.37
752.432	1487
752.617	1476.76
752.801	1552.53
752.985	1423.51
753.17	1480.85
753.354	1411.22
753.538	1437.84
753.722	1421.46
753.907	1480.85
754.091	1482.9
754.275	1345.69
754.459	1390.74
754.643	1300.63
754.828	1325.21
755.012	1343.64
755.196	1308.82
755.38	1304.73
755.564	1329.3
755.748	1329.3
755.932	1288.34
756.116	1333.4
756.3	1228.95
756.484	1343.64
756.668	1296.53
756.852	1253.53
757.036	1204.38
757.22	1190.04
757.404	1335.45
757.588	1183.9
757.772	1128.6
757.956	1142.94
758.14	1312.92
758.323	1185.94
758.507	1269.91
758.691	1011.87
758.875	1179.8
759.059	1163.42
759.242	1120.41
759.426	1177.75
759.61	1116.31
759.794	1073.31
759.977	1065.11
760.161	1235.1
760.345	1099.93
760.528	1130.65
760.712	1034.39
760.895	977.05
761.079	1110.17
761.263	1128.6
761.446	1093.79
761.63	1134.75
761.813	1032.35
761.997	1013.92
762.18	1144.99
762.364	1056.92
762.547	1036.44
762.731	1022.11
762.914	1018.01
763.098	1001.63
763.281	989.34
763.464	1056.92
763.648	1024.16
763.831	1020.06
764.015	1061.02
764.198	1040.54
764.381	1015.96
764.564	962.72
764.748	1073.31
764.931	1042.59
765.114	999.58
765.297	987.29
765.481	1007.77
765.664	997.53
765.847	1028.25
766.03	1056.92
766.213	868.51
766.397	858.27
766.58	886.94
766.763	948.38
766.946	929.95
767.129	893.09
767.312	940.19
767.495	907.42
767.678	874.65
767.861	985.24
768.044	837.79
768.227	956.57
768.41	872.61
768.593	860.32
768.776	839.84
768.959	919.71
769.142	813.21
769.324	829.6
769.507	923.8
769.69	911.52
769.873	913.56
770.056	987.29
770.239	864.41
770.421	878.75
770.604	823.45
770.787	745.63
770.97	862.37
771.152	841.89
771.335	862.37
771.518	825.5
771.7	893.09
771.883	866.46
772.066	809.12
772.248	823.45
772.431	696.48
772.613	811.17
772.796	751.78
772.978	805.02
773.161	792.73
773.343	766.11
773.526	747.68
773.708	792.73
773.891	825.5
774.073	790.69
774.256	850.08
774.438	841.89
774.621	716.96
774.803	737.44
774.985	809.12
775.168	821.41
775.35	755.87
775.532	833.69
775.715	710.82
775.897	719.01
776.079	819.36
776.261	706.72
776.444	606.37
776.626	616.61
776.808	610.47
776.99	653.47
777.173	673.95
777.355	702.62
777.537	655.52
777.719	645.28
777.901	696.48
778.083	721.06
778.265	671.9
778.447	745.63
778.629	618.66
778.811	704.67
778.993	624.8
779.175	647.33
779.357	639.14
779.539	518.31
779.721	508.07
779.903	624.8
780.085	530.59
780.267	598.18
780.449	653.47
780.631	585.89
780.812	655.52
780.994	579.75
781.176	571.55
781.358	524.45
781.54	567.46
781.721	499.88
781.903	573.6
782.085	559.27
782.267	540.83
782.448	510.11
782.63	506.02
782.812	536.74
782.993	485.54
783.175	549.03
783.357	508.07
783.538	542.88
783.72	544.93
783.901	522.4
784.083	426.15
784.264	471.2
784.446	546.98
784.627	487.59
784.809	508.07
784.99	434.34
785.172	387.24
785.353	483.49
785.535	407.72
785.716	420
785.897	469.16
786.079	444.58
786.26	534.69
786.441	503.97
786.623	438.44
786.804	440.48
786.985	329.89
787.167	428.2
787.348	411.81
787.529	460.96
787.71	448.68
787.891	381.09
788.073	360.61
788.254	454.82
788.435	377
788.616	440.48
788.797	325.8
788.978	325.8
789.159	417.96
789.34	411.81
789.522	344.23
789.703	325.8
789.884	385.19
790.065	426.15
790.246	377
790.427	372.9
790.607	327.85
790.788	401.57
790.969	358.57
791.15	293.03
791.331	368.81
791.512	370.85
791.693	315.56
791.874	276.65
792.054	354.47
792.235	342.18
792.416	387.24
792.597	413.86
792.778	344.23
792.958	411.81
793.139	344.23
793.32	321.7
793.5	293.03
793.681	362.66
793.862	233.64
794.042	352.42
794.223	321.7
794.404	358.57
794.584	303.27
794.765	352.42
794.945	352.42
795.126	389.28
795.306	309.41
795.487	178.34
795.667	229.54
795.848	344.23
796.028	321.7
796.209	235.69
796.389	358.57
796.57	342.18
796.75	315.56
796.93	319.65
797.111	247.97
797.291	264.36
797.471	311.46
797.652	241.83
797.832	272.55
798.012	252.07
798.192	284.84
798.373	280.74
798.553	264.36
798.733	321.7
798.913	295.08
799.093	311.46
799.274	274.6
799.454	327.85
799.634	321.7
799.814	247.97
799.994	323.75
800.174	290.98
800.354	344.23
800.534	243.88
800.714	276.65
800.894	254.12
801.074	170.15
801.254	262.31
801.434	340.13
801.614	319.65
801.794	270.5
801.974	653.47
802.154	250.02
802.334	166.06
802.514	286.89
802.693	196.78
802.873	286.89
803.053	161.96
803.233	254.12
803.413	178.34
803.592	229.54
803.772	186.54
803.952	235.69
804.131	286.89
804.311	204.97
804.491	194.73
804.67	182.44
804.85	186.54
805.03	245.93
805.209	184.49
805.389	227.5
805.568	237.74
805.748	200.87
805.928	166.06
806.107	180.39
806.287	217.26
806.466	256.17
806.646	161.96
806.825	252.07
807.004	137.38
807.184	192.68
807.363	182.44
807.543	260.26
807.722	221.35
807.901	260.26
808.081	178.34
808.26	141.48
808.439	202.92
808.619	198.82
808.798	209.06
808.977	239.78
809.156	221.35
809.336	190.63
809.515	247.97
809.694	149.67
809.873	288.93
810.052	207.02
810.231	239.78
810.411	211.11
810.59	178.34
810.769	174.25
810.948	106.67
811.127	166.06
811.306	180.39
811.485	153.77
811.664	204.97
811.843	141.48
812.022	217.26
812.201	211.11
812.38	159.91
812.559	164.01
812.737	170.15
812.916	121
813.095	215.21
813.274	215.21
813.453	141.48
813.632	129.19
813.811	207.02
813.989	86.19
814.168	118.95
814.347	75.95
814.526	129.19
814.704	145.58
814.883	227.5
815.062	108.71
815.24	184.49
815.419	157.86
815.598	190.63
815.776	90.28
815.955	112.81
816.133	114.86
816.312	192.68
816.49	149.67
816.669	168.1
816.847	121
817.026	227.5
817.204	202.92
817.383	213.16
817.561	75.95
817.74	145.58
817.918	143.53
818.097	166.06
818.275	94.38
818.453	182.44
818.632	164.01
818.81	135.34
818.988	71.85
819.167	84.14
819.345	100.52
819.523	127.14
819.701	217.26
819.879	168.1
820.058	69.8
820.236	100.52
820.414	125.1
820.592	139.43
820.77	71.85
820.948	133.29
821.127	149.67
821.305	123.05
821.483	100.52
821.661	114.86
821.839	114.86
822.017	200.87
822.195	92.33
822.373	125.1
822.551	55.47
822.729	71.85
822.907	133.29
823.085	61.61
823.262	123.05
823.44	141.48
823.618	106.67
823.796	151.72
823.974	139.43
824.152	139.43
824.329	57.51
824.507	149.67
824.685	192.68
824.863	55.47
825.04	73.9
825.218	129.19
825.396	170.15
825.574	108.71
825.751	100.52
825.929	139.43
826.107	108.71
826.284	127.14
826.462	65.71
826.639	26.79
826.817	121
826.994	63.66
827.172	125.1
827.349	90.28
827.527	139.43
827.704	98.47
827.882	73.9
828.059	73.9
828.237	96.43
828.414	159.91
828.591	61.61
828.769	137.38
828.946	51.37
829.124	209.06
829.301	37.03
829.478	145.58
829.655	75.95
829.833	139.43
830.01	71.85
830.187	63.66
830.364	94.38
830.542	55.47
830.719	96.43
830.896	145.58
831.073	145.58
831.25	100.52
831.427	75.95
831.604	82.09
831.782	90.28
831.959	133.29
832.136	90.28
832.313	86.19
832.49	73.9
832.667	57.51
832.844	28.84
833.021	174.25
833.198	90.28
833.374	47.27
833.551	84.14
833.728	37.03
833.905	131.24
834.082	127.14
834.259	110.76
834.436	69.8
834.612	172.2
834.789	90.28
834.966	102.57
835.143	67.75
835.319	102.57
835.496	106.67
835.673	45.23
835.85	63.66
836.026	57.51
836.203	100.52
836.38	102.57
836.556	65.71
836.733	65.71
836.909	49.32
837.086	112.81
837.262	51.37
837.439	41.13
837.616	127.14
837.792	61.61
837.968	80.04
838.145	-20.31
838.321	67.75
838.498	16.55
838.674	129.19
838.851	121
839.027	92.33
839.203	8.36
839.38	47.27
839.556	65.71
839.732	73.9
839.909	92.33
840.085	32.94
840.261	90.28
840.437	10.41
840.614	88.23
840.79	151.72
840.966	61.61
841.142	41.13
841.318	-10.07
841.494	143.53
841.671	82.09
841.847	14.51
842.023	-14.17
842.199	145.58
842.375	129.19
842.551	82.09
842.727	100.52
842.903	106.67
843.079	57.51
843.255	65.71
843.431	45.23
843.607	96.43
843.783	88.23
843.959	71.85
844.134	28.84
844.31	94.38
844.486	18.6
844.662	55.47
844.838	43.18
845.013	108.71
845.189	125.1
845.365	28.84
845.541	88.23
845.716	63.66
845.892	106.67
846.068	16.55
846.244	8.36
846.419	96.43
846.595	34.99
846.77	86.19
846.946	37.03
847.122	37.03
847.297	43.18
847.473	-5.97
847.648	24.75
847.824	80.04
847.999	12.46
848.175	43.18
848.35	86.19
848.526	63.66
848.701	67.75
848.876	92.33
849.052	57.51
849.227	88.23
849.403	39.08
849.578	75.95
849.753	69.8
849.929	53.42
850.104	-1.88
850.279	12.46
850.454	39.08
850.63	94.38
850.805	53.42
850.98	84.14
851.155	37.03
851.33	59.56
851.505	-18.26
851.681	-28.5
851.856	30.89
852.031	110.76
852.206	69.8
852.381	47.27
852.556	88.23
852.731	82.09
852.906	65.71
853.081	24.75
853.256	141.48
853.431	53.42
853.606	30.89
853.781	53.42
853.956	2.22
854.131	86.19
854.305	28.84
854.48	49.32
854.655	-3.93
854.83	53.42
855.005	88.23
855.18	45.23
855.354	-5.97
855.529	71.85
855.704	67.75
855.879	106.67
856.053	14.51
856.228	-8.02
856.403	88.23
856.577	-8.02
856.752	41.13
856.926	59.56
857.101	-57.17
857.276	84.14
857.45	61.61
857.625	41.13
857.799	55.47
857.974	88.23
858.148	49.32
858.323	6.31
858.497	6.31
858.672	-18.26
858.846	102.57
859.02	57.51
859.195	57.51
859.369	51.37
859.543	49.32
859.718	45.23
859.892	28.84
860.066	-1.88
860.241	104.62
860.415	-8.02
860.589	92.33
860.763	12.46
860.938	67.75
861.112	108.71
861.286	-40.79
861.46	55.47
861.634	32.94
861.808	-85.84
861.982	49.32
862.157	-8.02
862.331	45.23
862.505	39.08
862.679	-12.12
862.853	90.28
863.027	37.03
863.201	82.09
863.375	-40.79
863.549	67.75
863.722	-32.6
863.896	-5.97
864.07	-34.64
864.244	4.27
864.418	104.62
864.592	59.56
864.766	37.03
864.939	92.33
865.113	75.95
865.287	98.47
865.461	-8.02
865.634	63.66
865.808	22.7
865.982	24.75
866.156	-8.02
866.329	24.75
866.503	84.14
866.676	41.13
866.85	34.99
867.024	45.23
867.197	22.7
867.371	63.66
867.544	102.57
867.718	22.7
867.891	41.13
868.065	77.99
868.238	22.7
868.412	69.8
868.585	80.04
868.759	20.65
868.932	8.36
869.105	57.51
869.279	32.94
869.452	67.75
869.625	90.28
869.799	51.37
869.972	14.51
870.145	96.43
870.319	112.81
870.492	24.75
870.665	26.79
870.838	-32.6
871.011	-1.88
871.185	73.9
871.358	80.04
871.531	53.42
871.704	-28.5
871.877	61.61
872.05	39.08
872.223	6.31
872.396	75.95
872.569	-10.07
872.742	47.27
872.915	20.65
873.088	-1.88
873.261	63.66
873.434	102.57
873.607	14.51
873.78	20.65
873.953	8.36
874.126	39.08
874.299	24.75
874.471	45.23
874.644	-32.6
874.817	-5.97
874.99	41.13
875.163	55.47
875.335	28.84
875.508	-12.12
875.681	65.71
875.853	-32.6
876.026	28.84
876.199	92.33
876.371	69.8
876.544	0.17
876.717	16.55
876.889	59.56
877.062	69.8
877.234	-36.69
877.407	108.71
877.579	-18.26
877.752	18.6
877.924	-67.41
878.097	77.99
878.269	-12.12
878.442	-32.6
878.614	92.33
878.786	6.31
878.959	82.09
879.131	63.66
879.303	41.13
879.476	37.03
879.648	18.6
879.82	86.19
879.993	16.55
880.165	8.36
880.337	-18.26
880.509	-69.46
880.681	57.51
880.854	0.17
881.026	8.36
881.198	32.94
881.37	24.75
881.542	20.65
881.714	22.7
881.886	32.94
882.058	37.03
882.23	-20.31
882.402	-12.12
882.574	80.04
882.746	57.51
882.918	-10.07
883.09	80.04
883.262	-89.94
883.434	-18.26
883.606	53.42
883.778	-53.08
883.95	-20.31
884.122	14.51
884.293	55.47
884.465	41.13
884.637	47.27
884.809	47.27
884.98	-14.17
885.152	-12.12
885.324	69.8
885.496	-12.12
885.667	73.9
885.839	30.89
886.011	96.43
886.182	96.43
886.354	77.99
886.525	45.23
886.697	-28.5
886.869	18.6
887.04	18.6
887.212	28.84
887.383	53.42
887.555	10.41
887.726	26.79
887.897	-5.97
888.069	20.65
888.24	2.22
888.412	22.7
888.583	10.41
888.754	43.18
888.926	-5.97
889.097	8.36
889.268	6.31
889.44	63.66
889.611	6.31
889.782	41.13
889.953	98.47
890.125	-32.6
890.296	45.23
890.467	26.79
890.638	32.94
890.809	47.27
890.98	45.23
891.151	82.09
891.323	-3.93
891.494	39.08
891.665	71.85
891.836	30.89
892.007	14.51
892.178	18.6
892.349	-1.88
892.52	47.27
892.691	28.84
892.862	-22.36
893.032	22.7
893.203	24.75
893.374	-42.84
893.545	34.99
893.716	14.51
893.887	139.43
894.057	18.6
894.228	32.94
894.399	-12.12
894.57	98.47
894.74	94.38
894.911	-10.07
895.082	71.85
895.253	69.8
895.423	2.22
895.594	-18.26
895.764	-12.12
895.935	-5.97
896.106	57.51
896.276	45.23
896.447	32.94
896.617	28.84
896.788	-26.45
896.958	-34.64
897.129	39.08
897.299	49.32
897.47	51.37
897.64	80.04
897.81	-22.36
897.981	4.27
898.151	-1.88
898.322	-5.97
898.492	49.32
898.662	-73.56
898.832	8.36
899.003	0.17
899.173	-38.74
899.343	4.27
899.513	8.36
