Data from USB4F104151__19__12-35-20-903.txt Node

Date: Fri Mar 14 12:35:20 EDT 2025
User: louis
Spectrometer: USB4F10415
Trigger mode: 4
Integration Time (sec): 2.000000E-2
Scans to average: 1
Electric dark correction enabled: true
Nonlinearity correction enabled: false
Boxcar width: 0
XAxis mode: Wavelengths
Number of Pixels in Spectrum: 3648
>>>>>Begin Spectral Data<<<<<
178.204	-29.18
178.424	-29.18
178.644	-29.18
178.864	-45.57
179.084	-25.09
179.304	1.54
179.524	-6.66
179.744	58.88
179.964	38.4
180.184	-8.7
180.404	-37.38
180.624	3.58
180.844	-18.94
181.064	-59.9
181.283	-33.28
181.503	26.11
181.723	36.35
181.943	-98.81
182.163	19.97
182.383	-4.61
182.602	40.45
182.822	-8.7
183.042	103.93
183.262	-92.67
183.482	69.12
183.701	11.78
183.921	-20.99
184.141	15.87
184.361	54.78
184.58	50.69
184.8	5.63
185.02	-2.56
185.239	110.08
185.459	-4.61
185.679	67.07
185.898	42.5
186.118	5.63
186.338	146.94
186.557	1.54
186.777	46.59
186.997	15.87
187.216	-23.04
187.436	110.08
187.655	38.4
187.875	26.11
188.095	-10.75
188.314	38.4
188.534	38.4
188.753	3.58
188.973	58.88
189.192	13.82
189.412	-14.85
189.631	50.69
189.851	7.68
190.07	19.97
190.29	-23.04
190.509	60.93
190.729	26.11
190.948	52.74
191.168	116.22
191.387	28.16
191.607	58.88
191.826	30.21
192.045	1.54
192.265	73.21
192.484	105.98
192.704	50.69
192.923	-53.76
193.142	15.87
193.362	58.88
193.581	60.93
193.8	-20.99
194.02	11.78
194.239	52.74
194.458	91.65
194.678	-43.52
194.897	56.83
195.116	11.78
195.335	26.11
195.555	-27.14
195.774	42.5
195.993	34.3
196.212	34.3
196.432	3.58
196.651	-35.33
196.87	65.02
197.089	40.45
197.308	19.97
197.528	38.4
197.747	22.02
197.966	46.59
198.185	38.4
198.404	1.54
198.623	69.12
198.842	85.5
199.062	-16.9
199.281	75.26
199.5	60.93
199.719	30.21
199.938	67.07
200.157	-10.75
200.376	48.64
200.595	65.02
200.814	62.98
201.033	-4.61
201.252	87.55
201.471	30.21
201.69	67.07
201.909	40.45
202.128	-23.04
202.347	54.78
202.566	60.93
202.785	36.35
203.004	11.78
203.223	15.87
203.442	114.17
203.661	19.97
203.879	105.98
204.098	79.36
204.317	5.63
204.536	26.11
204.755	89.6
204.974	13.82
205.193	-8.7
205.411	87.55
205.63	91.65
205.849	71.17
206.068	42.5
206.287	19.97
206.505	17.92
206.724	9.73
206.943	-6.66
207.162	-47.62
207.381	-4.61
207.599	22.02
207.818	46.59
208.037	3.58
208.255	-51.71
208.474	48.64
208.693	11.78
208.911	118.27
209.13	-16.9
209.349	52.74
209.567	5.63
209.786	44.54
210.005	7.68
210.223	11.78
210.442	-25.09
210.661	52.74
210.879	44.54
211.098	-45.57
211.316	46.59
211.535	3.58
211.753	54.78
211.972	7.68
212.191	-33.28
212.409	7.68
212.628	60.93
212.846	-2.56
213.065	46.59
213.283	81.41
213.502	67.07
213.72	5.63
213.938	50.69
214.157	22.02
214.375	52.74
214.594	65.02
214.812	7.68
215.031	36.35
215.249	15.87
215.467	17.92
215.686	50.69
215.904	97.79
216.122	36.35
216.341	42.5
216.559	-0.51
216.778	38.4
216.996	34.3
217.214	-53.76
217.432	40.45
217.651	32.26
217.869	-10.75
218.087	26.11
218.306	24.06
218.524	79.36
218.742	48.64
218.96	91.65
219.179	24.06
219.397	5.63
219.615	44.54
219.833	81.41
220.051	24.06
220.27	-10.75
220.488	52.74
220.706	-27.14
220.924	-23.04
221.142	-18.94
221.36	-41.47
221.578	71.17
221.796	-29.18
222.015	36.35
222.233	-12.8
222.451	56.83
222.669	44.54
222.887	126.46
223.105	58.88
223.323	40.45
223.541	60.93
223.759	24.06
223.977	19.97
224.195	28.16
224.413	46.59
224.631	36.35
224.849	58.88
225.067	44.54
225.285	26.11
225.503	60.93
225.721	1.54
225.939	-43.52
226.157	-10.75
226.375	48.64
226.592	44.54
226.81	75.26
227.028	65.02
227.246	36.35
227.464	-59.9
227.682	81.41
227.9	7.68
228.117	-10.75
228.335	5.63
228.553	13.82
228.771	-10.75
228.989	40.45
229.206	48.64
229.424	-8.7
229.642	50.69
229.86	89.6
230.077	60.93
230.295	24.06
230.513	9.73
230.731	65.02
230.948	22.02
231.166	124.41
231.384	17.92
231.601	11.78
231.819	36.35
232.037	-2.56
232.254	24.06
232.472	50.69
232.689	-4.61
232.907	65.02
233.125	28.16
233.342	-37.38
233.56	-23.04
233.777	42.5
233.995	1.54
234.213	73.21
234.43	32.26
234.648	38.4
234.865	-18.94
235.083	-31.23
235.3	85.5
235.518	110.08
235.735	-10.75
235.953	101.89
236.17	11.78
236.388	24.06
236.605	44.54
236.822	22.02
237.04	-14.85
237.257	71.17
237.475	38.4
237.692	-6.66
237.909	-27.14
238.127	19.97
238.344	38.4
238.562	62.98
238.779	26.11
238.996	50.69
239.214	34.3
239.431	11.78
239.648	-0.51
239.865	60.93
240.083	28.16
240.3	40.45
240.517	38.4
240.735	-23.04
240.952	105.98
241.169	36.35
241.386	34.3
241.603	36.35
241.821	-0.51
242.038	44.54
242.255	-16.9
242.472	-8.7
242.689	-27.14
242.907	17.92
243.124	24.06
243.341	93.69
243.558	38.4
243.775	77.31
243.992	3.58
244.209	65.02
244.426	60.93
244.643	97.79
244.86	38.4
245.078	-2.56
245.295	36.35
245.512	32.26
245.729	-14.85
245.946	26.11
246.163	-6.66
246.38	-2.56
246.597	-6.66
246.814	-16.9
247.031	24.06
247.248	58.88
247.464	32.26
247.681	52.74
247.898	151.04
248.115	22.02
248.332	38.4
248.549	124.41
248.766	85.5
248.983	75.26
249.2	-16.9
249.417	130.56
249.633	36.35
249.85	73.21
250.067	97.79
250.284	71.17
250.501	-35.33
250.717	79.36
250.934	-43.52
251.151	101.89
251.368	9.73
251.585	22.02
251.801	52.74
252.018	-2.56
252.235	9.73
252.451	13.82
252.668	13.82
252.885	17.92
253.102	-4.61
253.318	40.45
253.535	-0.51
253.752	32.26
253.968	34.3
254.185	9.73
254.401	-18.94
254.618	79.36
254.835	42.5
255.051	83.45
255.268	17.92
255.484	7.68
255.701	40.45
255.917	30.21
256.134	30.21
256.351	-12.8
256.567	11.78
256.784	17.92
257	-4.61
257.217	44.54
257.433	42.5
257.65	56.83
257.866	60.93
258.082	65.02
258.299	11.78
258.515	32.26
258.732	44.54
258.948	56.83
259.165	3.58
259.381	28.16
259.597	15.87
259.814	19.97
260.03	50.69
260.246	105.98
260.463	13.82
260.679	110.08
260.895	7.68
261.112	17.92
261.328	-51.71
261.544	48.64
261.761	118.27
261.977	-14.85
262.193	22.02
262.409	40.45
262.626	1.54
262.842	95.74
263.058	24.06
263.274	89.6
263.49	36.35
263.707	52.74
263.923	19.97
264.139	22.02
264.355	13.82
264.571	-20.99
264.787	-12.8
265.004	36.35
265.22	69.12
265.436	46.59
265.652	-0.51
265.868	71.17
266.084	108.03
266.3	34.3
266.516	-25.09
266.732	75.26
266.948	-8.7
267.164	7.68
267.38	-49.66
267.596	77.31
267.812	71.17
268.028	91.65
268.244	17.92
268.46	5.63
268.676	-23.04
268.892	93.69
269.108	26.11
269.324	32.26
269.54	11.78
269.756	65.02
269.972	46.59
270.188	19.97
270.403	24.06
270.619	-14.85
270.835	67.07
271.051	36.35
271.267	-51.71
271.483	103.93
271.698	-10.75
271.914	75.26
272.13	3.58
272.346	75.26
272.562	-6.66
272.777	71.17
272.993	9.73
273.209	73.21
273.425	19.97
273.64	34.3
273.856	67.07
274.072	48.64
274.287	3.58
274.503	13.82
274.719	99.84
274.934	50.69
275.15	36.35
275.366	-45.57
275.581	-23.04
275.797	36.35
276.012	28.16
276.228	38.4
276.444	46.59
276.659	101.89
276.875	46.59
277.09	-0.51
277.306	67.07
277.521	19.97
277.737	46.59
277.952	11.78
278.168	22.02
278.383	32.26
278.599	52.74
278.814	5.63
279.03	91.65
279.245	71.17
279.461	9.73
279.676	30.21
279.892	3.58
280.107	15.87
280.322	46.59
280.538	11.78
280.753	112.13
280.969	-6.66
281.184	32.26
281.399	19.97
281.615	-2.56
281.83	-41.47
282.045	-0.51
282.26	62.98
282.476	89.6
282.691	44.54
282.906	32.26
283.122	-14.85
283.337	24.06
283.552	81.41
283.767	52.74
283.983	50.69
284.198	-16.9
284.413	67.07
284.628	17.92
284.843	79.36
285.058	19.97
285.274	77.31
285.489	1.54
285.704	24.06
285.919	-25.09
286.134	93.69
286.349	58.88
286.564	83.45
286.779	73.21
286.995	11.78
287.21	38.4
287.425	-16.9
287.64	-8.7
287.855	9.73
288.07	24.06
288.285	73.21
288.5	79.36
288.715	77.31
288.93	93.69
289.145	-8.7
289.36	42.5
289.575	36.35
289.79	1.54
290.004	44.54
290.219	32.26
290.434	-39.42
290.649	9.73
290.864	56.83
291.079	26.11
291.294	79.36
291.509	44.54
291.724	34.3
291.938	-20.99
292.153	46.59
292.368	-33.28
292.583	19.97
292.798	48.64
293.012	42.5
293.227	22.02
293.442	22.02
293.657	38.4
293.871	65.02
294.086	50.69
294.301	128.51
294.516	-18.94
294.73	40.45
294.945	-6.66
295.16	5.63
295.374	65.02
295.589	75.26
295.804	-20.99
296.018	-12.8
296.233	15.87
296.447	-6.66
296.662	17.92
296.877	65.02
297.091	75.26
297.306	38.4
297.52	26.11
297.735	71.17
297.949	-43.52
298.164	95.74
298.378	34.3
298.593	71.17
298.807	26.11
299.022	58.88
299.236	-2.56
299.451	89.6
299.665	56.83
299.88	95.74
300.094	75.26
300.309	93.69
300.523	62.98
300.737	44.54
300.952	75.26
301.166	36.35
301.381	-23.04
301.595	54.78
301.809	42.5
302.024	1.54
302.238	1.54
302.452	13.82
302.667	-39.42
302.881	50.69
303.095	48.64
303.309	73.21
303.524	71.17
303.738	85.5
303.952	-14.85
304.166	-10.75
304.381	17.92
304.595	60.93
304.809	28.16
305.023	36.35
305.237	-6.66
305.452	-16.9
305.666	52.74
305.88	36.35
306.094	32.26
306.308	9.73
306.522	54.78
306.736	28.16
306.95	34.3
307.164	-6.66
307.379	38.4
307.593	1.54
307.807	19.97
308.021	77.31
308.235	81.41
308.449	-2.56
308.663	-18.94
308.877	89.6
309.091	15.87
309.305	42.5
309.519	-12.8
309.733	26.11
309.947	-78.33
310.161	42.5
310.374	83.45
310.588	58.88
310.802	7.68
311.016	44.54
311.23	30.21
311.444	5.63
311.658	42.5
311.872	56.83
312.085	-2.56
312.299	50.69
312.513	83.45
312.727	30.21
312.941	54.78
313.154	42.5
313.368	38.4
313.582	36.35
313.796	-2.56
314.009	52.74
314.223	62.98
314.437	73.21
314.651	-33.28
314.864	-39.42
315.078	-12.8
315.292	44.54
315.505	-0.51
315.719	138.75
315.933	85.5
316.146	28.16
316.36	-31.23
316.573	52.74
316.787	22.02
317.001	65.02
317.214	-14.85
317.428	91.65
317.641	17.92
317.855	24.06
318.068	52.74
318.282	7.68
318.495	65.02
318.709	44.54
318.922	71.17
319.136	62.98
319.349	79.36
319.563	52.74
319.776	50.69
319.99	38.4
320.203	40.45
320.417	-55.81
320.63	26.11
320.843	120.32
321.057	-18.94
321.27	34.3
321.483	19.97
321.697	138.75
321.91	103.93
322.124	75.26
322.337	38.4
322.55	62.98
322.763	83.45
322.977	71.17
323.19	-14.85
323.403	30.21
323.617	38.4
323.83	54.78
324.043	30.21
324.256	-14.85
324.469	-55.81
324.683	124.41
324.896	42.5
325.109	62.98
325.322	75.26
325.535	93.69
325.748	110.08
325.962	-10.75
326.175	48.64
326.388	36.35
326.601	157.18
326.814	30.21
327.027	34.3
327.24	34.3
327.453	-14.85
327.666	50.69
327.879	73.21
328.092	52.74
328.305	52.74
328.518	19.97
328.731	36.35
328.944	22.02
329.157	60.93
329.37	44.54
329.583	99.84
329.796	36.35
330.009	26.11
330.222	-14.85
330.435	118.27
330.648	22.02
330.861	44.54
331.073	60.93
331.286	73.21
331.499	114.17
331.712	77.31
331.925	9.73
332.138	54.78
332.35	65.02
332.563	11.78
332.776	-8.7
332.989	56.83
333.202	114.17
333.414	36.35
333.627	50.69
333.84	38.4
334.053	73.21
334.265	36.35
334.478	1.54
334.691	77.31
334.903	44.54
335.116	13.82
335.329	32.26
335.541	38.4
335.754	58.88
335.966	28.16
336.179	-10.75
336.392	54.78
336.604	46.59
336.817	101.89
337.029	69.12
337.242	34.3
337.454	112.13
337.667	52.74
337.88	101.89
338.092	110.08
338.305	30.21
338.517	28.16
338.729	91.65
338.942	54.78
339.154	69.12
339.367	17.92
339.579	32.26
339.792	60.93
340.004	93.69
340.217	116.22
340.429	75.26
340.641	34.3
340.854	56.83
341.066	93.69
341.278	15.87
341.491	42.5
341.703	105.98
341.915	48.64
342.128	56.83
342.34	99.84
342.552	52.74
342.764	-20.99
342.977	81.41
343.189	97.79
343.401	42.5
343.613	-8.7
343.826	13.82
344.038	36.35
344.25	58.88
344.462	17.92
344.674	62.98
344.886	11.78
345.099	-4.61
345.311	1.54
345.523	-0.51
345.735	83.45
345.947	22.02
346.159	91.65
346.371	87.55
346.583	30.21
346.795	122.37
347.007	-4.61
347.219	46.59
347.431	34.3
347.643	26.11
347.855	-2.56
348.067	89.6
348.279	9.73
348.491	67.07
348.703	130.56
348.915	3.58
349.127	9.73
349.339	17.92
349.551	44.54
349.763	81.41
349.975	-33.28
350.187	91.65
350.399	79.36
350.61	91.65
350.822	-10.75
351.034	56.83
351.246	73.21
351.458	91.65
351.669	46.59
351.881	91.65
352.093	46.59
352.305	32.26
352.517	89.6
352.728	110.08
352.94	58.88
353.152	19.97
353.363	38.4
353.575	44.54
353.787	97.79
353.999	91.65
354.21	157.18
354.422	99.84
354.633	71.17
354.845	114.17
355.057	-25.09
355.268	83.45
355.48	30.21
355.692	-0.51
355.903	79.36
356.115	-23.04
356.326	112.13
356.538	65.02
356.749	60.93
356.961	120.32
357.172	11.78
357.384	44.54
357.595	32.26
357.807	-8.7
358.018	73.21
358.23	40.45
358.441	200.19
358.653	44.54
358.864	42.5
359.075	24.06
359.287	-35.33
359.498	93.69
359.709	60.93
359.921	60.93
360.132	83.45
360.344	173.57
360.555	91.65
360.766	26.11
360.977	26.11
361.189	89.6
361.4	-8.7
361.611	77.31
361.823	67.07
362.034	62.98
362.245	-12.8
362.456	42.5
362.667	108.03
362.879	71.17
363.09	110.08
363.301	58.88
363.512	38.4
363.723	15.87
363.935	17.92
364.146	81.41
364.357	24.06
364.568	32.26
364.779	67.07
364.99	134.65
365.201	3.58
365.412	75.26
365.623	-23.04
365.834	95.74
366.045	32.26
366.256	71.17
366.467	60.93
366.678	52.74
366.889	17.92
367.1	40.45
367.311	-16.9
367.522	54.78
367.733	83.45
367.944	132.61
368.155	52.74
368.366	99.84
368.577	73.21
368.788	91.65
368.999	-29.18
369.209	110.08
369.42	153.09
369.631	116.22
369.842	124.41
370.053	83.45
370.264	118.27
370.474	54.78
370.685	85.5
370.896	77.31
371.107	3.58
371.317	114.17
371.528	56.83
371.739	42.5
371.95	26.11
372.16	105.98
372.371	28.16
372.582	99.84
372.792	69.12
373.003	38.4
373.214	85.5
373.424	34.3
373.635	77.31
373.846	118.27
374.056	62.98
374.267	97.79
374.477	95.74
374.688	3.58
374.898	42.5
375.109	34.3
375.319	60.93
375.53	134.65
375.74	56.83
375.951	42.5
376.161	40.45
376.372	97.79
376.582	97.79
376.793	48.64
377.003	69.12
377.214	34.3
377.424	54.78
377.635	89.6
377.845	24.06
378.055	99.84
378.266	-10.75
378.476	58.88
378.686	130.56
378.897	3.58
379.107	73.21
379.317	54.78
379.528	32.26
379.738	118.27
379.948	48.64
380.158	108.03
380.369	38.4
380.579	108.03
380.789	42.5
380.999	112.13
381.21	1.54
381.42	48.64
381.63	40.45
381.84	-16.9
382.05	112.13
382.261	38.4
382.471	-4.61
382.681	54.78
382.891	110.08
383.101	83.45
383.311	60.93
383.521	118.27
383.731	83.45
383.941	5.63
384.151	50.69
384.361	87.55
384.571	48.64
384.781	93.69
384.991	148.99
385.201	153.09
385.411	65.02
385.621	67.07
385.831	52.74
386.041	42.5
386.251	28.16
386.461	128.51
386.671	120.32
386.881	99.84
387.091	85.5
387.301	73.21
387.511	19.97
387.72	114.17
387.93	73.21
388.14	-0.51
388.35	7.68
388.56	71.17
388.769	19.97
388.979	114.17
389.189	73.21
389.399	85.5
389.609	42.5
389.818	110.08
390.028	38.4
390.238	48.64
390.447	79.36
390.657	65.02
390.867	87.55
391.076	69.12
391.286	142.85
391.496	56.83
391.705	26.11
391.915	93.69
392.125	69.12
392.334	95.74
392.544	52.74
392.753	120.32
392.963	105.98
393.172	71.17
393.382	108.03
393.591	81.41
393.801	62.98
394.01	157.18
394.22	77.31
394.429	99.84
394.639	122.37
394.848	87.55
395.058	73.21
395.267	140.8
395.477	110.08
395.686	138.75
395.895	155.13
396.105	189.95
396.314	58.88
396.524	110.08
396.733	69.12
396.942	99.84
397.152	155.13
397.361	112.13
397.57	103.93
397.78	83.45
397.989	118.27
398.198	130.56
398.407	144.89
398.617	120.32
398.826	142.85
399.035	171.52
399.244	196.09
399.453	194.05
399.663	257.53
399.872	192
400.081	95.74
400.29	132.61
400.499	177.66
400.708	189.95
400.917	192
401.127	171.52
401.336	146.94
401.545	212.48
401.754	198.14
401.963	151.04
402.172	148.99
402.381	173.57
402.59	73.21
402.799	73.21
403.008	241.15
403.217	224.76
403.426	185.85
403.635	105.98
403.844	220.67
404.053	157.18
404.262	187.9
404.471	259.58
404.68	286.2
404.888	208.38
405.097	228.86
405.306	155.13
405.515	222.72
405.724	222.72
405.933	263.68
406.142	228.86
406.35	278.01
406.559	300.54
406.768	228.86
406.977	226.81
407.185	361.98
407.394	376.31
407.603	251.39
407.812	349.69
408.02	300.54
408.229	302.59
408.438	235
408.646	269.82
408.855	351.74
409.064	347.64
409.272	361.98
409.481	439.8
409.69	398.84
409.898	443.9
410.107	484.86
410.315	472.57
410.524	466.42
410.733	443.9
410.941	452.09
411.15	507.38
411.358	634.36
411.567	482.81
411.775	613.88
411.984	646.65
412.192	646.65
412.401	599.54
412.609	710.13
412.818	703.99
413.026	665.08
413.234	744.95
413.443	691.7
413.651	796.15
413.86	769.52
414.068	927.22
414.276	880.11
414.485	865.78
414.693	929.27
414.901	978.42
415.11	953.84
415.318	1027.57
415.526	1084.91
415.734	1039.86
415.943	1197.55
416.151	1177.07
416.359	1193.45
416.567	1209.84
416.776	1263.08
416.984	1455.59
417.192	1416.68
417.4	1367.53
417.608	1332.72
417.817	1594.86
418.025	1555.94
418.233	1689.06
418.441	1537.51
418.649	1715.69
418.857	1832.42
419.065	1934.82
419.273	1887.72
419.481	1908.19
419.689	2072.03
419.897	2176.48
420.105	2162.14
420.313	2254.3
420.521	2223.58
420.729	2295.26
420.937	2500.06
421.145	2502.11
421.353	2770.39
421.561	2809.3
421.769	2790.87
421.977	3024.34
422.185	2889.17
422.393	3055.06
422.601	3356.11
422.809	3286.48
423.017	3419.6
423.224	3456.46
423.432	3507.66
423.64	3587.53
423.848	3925.44
424.056	3749.32
424.263	4142.53
424.471	4087.23
424.679	4257.22
424.887	4412.86
425.094	4595.13
425.302	4545.98
425.51	4715.96
425.718	4982.2
425.925	4937.14
426.133	5111.22
426.341	5496.24
426.548	5604.78
426.756	5780.9
426.964	5754.28
427.171	6063.52
427.379	6178.21
427.586	6395.29
427.794	6620.57
428.001	6876.57
428.209	6940.05
428.417	6929.81
428.624	7441.81
428.832	7277.97
429.039	7302.54
429.247	7433.61
429.454	8209.79
429.662	8684.92
429.869	8015.24
430.076	8646.01
430.284	8480.13
430.491	8746.36
430.699	9375.09
430.906	9354.61
431.114	9485.68
431.321	9987.43
431.528	10063.21
431.736	10583.39
431.943	11183.45
432.15	10827.1
432.358	11009.37
432.565	11564.37
432.772	11593.04
432.979	12035.4
433.187	12301.64
433.394	12082.5
433.601	13120.82
433.808	13159.74
434.016	13315.38
434.223	13532.47
434.43	14431.52
434.637	14249.25
434.844	14882.08
435.052	15326.49
435.259	15052.06
435.466	15332.63
435.673	15310.1
435.88	16426.25
436.087	17245.43
436.294	17202.43
436.501	16899.33
436.708	17097.98
436.915	17661.17
437.122	18515.17
437.329	18328.81
437.537	19053.79
437.743	19317.98
437.95	19385.56
438.157	20305.1
438.364	20835.52
438.571	20610.25
438.778	21066.94
438.985	22674.6
439.192	21912.75
439.399	22690.98
439.606	22211.76
439.813	23628.95
440.02	24835.21
440.227	24384.65
440.433	24050.83
440.64	25341.05
440.847	24843.4
441.054	25379.96
441.261	27018.34
441.467	26602.6
441.674	27331.68
441.881	28114
442.088	28609.61
442.294	27968.6
442.501	28673.1
442.708	29303.87
442.914	30260.27
443.121	31855.64
443.328	30858.28
443.534	33111.05
443.741	31994.9
443.948	31661.08
444.154	34077.69
444.361	33461.25
444.568	34083.83
444.774	33872.89
444.981	34147.32
445.187	35179.5
445.394	36492.24
445.6	36576.21
445.807	39908.26
446.013	38009.79
446.22	38986.67
446.426	40459.16
446.633	40393.62
446.839	41862.02
447.046	40219.55
447.252	42650.49
447.459	42404.73
447.665	42306.43
447.871	43750.24
448.078	46007.11
448.284	43703.14
448.491	44831.57
448.697	46969.65
448.903	47641.39
449.11	47665.96
449.316	47252.27
449.522	47833.89
449.728	48743.19
449.935	49468.17
450.141	49197.84
450.347	50488.06
450.553	48941.85
450.76	49629.96
450.966	51206.9
451.172	50508.54
451.378	51698.41
451.584	50905.85
451.791	52085.48
451.997	51833.58
452.203	52785.88
452.409	52839.13
452.615	52691.68
452.821	50379.52
453.027	50057.99
453.233	52529.89
453.44	50178.82
453.646	51045.11
453.852	51378.93
454.058	52284.13
454.264	50463.49
454.47	51583.72
454.676	50080.52
454.882	51878.63
455.088	47725.35
455.294	48431.9
455.5	48995.09
455.705	49820.42
455.911	47682.34
456.117	46916.4
456.323	46310.21
456.529	43686.76
456.735	45669.19
456.941	44553.05
457.147	43494.25
457.352	42560.37
457.558	42195.84
457.764	41743.24
457.97	41075.6
458.176	40233.88
458.381	40412.06
458.587	38173.63
458.793	38437.81
458.999	36256.73
459.204	39314.34
459.41	38120.38
459.616	35539.94
459.821	35576.8
460.027	35593.18
460.233	34563.06
460.438	32885.77
460.644	33330.18
460.85	31700
461.055	31202.34
461.261	31110.18
461.466	29060.16
461.672	27898.97
461.878	30243.89
462.083	27937.88
462.289	27464.8
462.494	27362.4
462.7	25844.85
462.905	25392.25
463.111	26426.48
463.316	26358.89
463.522	25781.37
463.727	25517.18
463.932	25607.29
464.138	25179.26
464.343	25574.52
464.549	24900.74
464.754	25754.74
464.959	25214.08
465.165	25255.04
465.37	24016.02
465.575	23667.86
465.781	24333.45
465.986	24978.56
466.191	24052.88
466.397	23063.71
466.602	21873.84
466.807	23086.24
467.012	22846.63
467.218	22781.09
467.423	22670.5
467.628	22729.89
467.833	23526.55
468.038	22920.35
468.244	21906.61
468.449	22760.61
468.654	22176.94
468.859	21824.69
469.064	21847.22
469.269	20985.02
469.474	21155.01
469.679	21392.57
469.885	21079.23
470.09	21189.82
470.295	21042.37
470.5	20741.32
470.705	20808.9
470.91	20348.11
471.115	20325.58
471.32	20190.41
471.525	20198.6
471.73	19889.36
471.935	19840.21
472.139	19188.96
472.344	19217.63
472.549	19133.66
472.754	18709.73
472.959	18445.54
473.164	18109.68
473.369	17911.02
473.574	18619.62
473.778	18513.13
473.983	18146.54
474.188	17874.16
474.393	17405.17
474.598	17536.24
474.802	16987.39
475.007	17151.23
475.212	17128.7
475.417	16426.25
475.621	16237.83
475.826	16733.44
476.031	16168.2
476.235	15961.36
476.44	16065.8
476.645	15774.99
476.849	15899.92
477.054	15820.05
477.259	15273.24
477.463	15430.93
477.668	14951.71
477.872	15168.79
478.077	14970.14
478.282	14509.35
478.486	14781.73
478.691	14286.12
478.895	14388.52
479.1	14460.2
479.304	14333.22
479.509	13833.52
479.713	14214.44
479.918	13901.1
480.122	13690.16
480.326	14019.88
480.531	13614.38
480.735	13704.49
480.94	13444.4
481.144	13788.46
481.348	13366.58
481.553	13210.93
481.757	13196.6
481.961	13360.44
482.166	13606.19
482.37	13468.98
482.574	13159.74
482.778	13395.25
482.983	13452.59
483.187	13460.79
483.391	13374.77
483.595	13440.31
483.8	13163.83
484.004	13016.38
484.208	13299
484.412	13188.41
484.616	13301.05
484.821	13278.52
485.025	12868.92
485.229	13434.16
485.433	13313.33
485.637	13133.11
485.841	12977.47
486.045	13245.75
486.249	13124.92
486.453	12961.08
486.657	13137.21
486.861	13108.54
487.065	12975.42
487.269	13112.63
487.473	12784.96
487.677	13235.51
487.881	13180.21
488.085	13153.59
488.289	13575.47
488.493	12854.59
488.697	13430.07
488.901	13145.4
489.105	13241.65
489.309	13356.34
489.512	13387.06
489.716	13266.23
489.92	13182.26
490.124	13260.09
490.328	13462.83
490.531	13358.39
490.735	13321.52
490.939	13442.35
491.143	13497.65
491.346	13686.06
491.55	13581.62
491.754	13958.44
491.958	13704.49
492.161	13856.04
492.365	13860.14
492.569	13829.42
492.772	13806.89
492.976	13933.87
493.18	14292.26
493.383	14290.21
493.587	14198.06
493.79	14320.93
493.994	14132.52
494.197	14484.77
494.401	14538.02
494.605	14423.33
494.808	14734.62
495.012	14900.51
495.215	14910.75
495.419	15230.23
495.622	14861.6
495.825	15228.18
496.029	15181.08
496.232	15596.82
496.436	15404.31
496.639	15809.81
496.843	15705.36
497.046	15879.44
497.249	16149.77
497.453	16338.18
497.656	16375.05
497.859	16782.59
498.063	16600.32
498.266	17145.08
498.469	16979.2
498.673	17095.93
498.876	17423.61
499.079	17763.57
499.282	17487.09
499.485	17814.77
499.689	18072.81
499.892	18246.89
500.095	18439.4
500.298	18877.66
500.501	18717.92
500.705	19158.24
500.908	19338.46
501.111	19582.17
501.314	19700.95
501.517	19748.05
501.72	20176.08
501.923	20161.74
502.126	20456.65
502.329	20700.36
502.532	21048.51
502.735	21083.33
502.938	21857.46
503.141	21777.59
503.344	22160.56
503.547	21955.76
503.75	22611.11
503.953	22860.96
504.156	23084.19
504.359	22985.89
504.562	23231.65
504.765	23682.2
504.968	24001.68
505.17	24149.14
505.373	24081.55
505.576	24634.5
505.779	25173.12
505.982	25201.79
506.185	25742.46
506.387	25730.17
506.59	26031.22
506.793	26477.68
506.996	26348.65
507.198	27057.25
507.401	27038.82
507.604	27440.22
507.807	27620.44
508.009	28015.7
508.212	28238.93
508.415	28736.59
508.617	28521.55
508.82	29084.74
509.022	29011.01
509.225	29875.26
509.428	29844.54
509.63	30131.25
509.833	30348.34
510.035	31118.37
510.238	31038.5
510.44	31405.09
510.643	31833.11
510.845	31931.42
511.048	31972.38
511.25	32752.65
511.453	32664.59
511.655	33844.22
511.858	33362.95
512.06	33530.88
512.262	34132.98
512.465	34442.23
512.667	34610.16
512.87	35048.43
513.072	34812.91
513.274	36035.55
513.477	36096.99
513.679	36207.58
513.881	36725.71
514.084	37317.57
514.286	37112.78
514.488	37505.99
514.69	38581.17
514.893	38833.07
515.095	38783.92
515.297	39046.06
515.499	38960.05
515.701	39582.63
515.904	39730.08
516.106	40059.8
516.308	40907.66
516.51	41388.94
516.712	41274.25
516.914	41757.57
517.116	42261.37
517.318	42412.92
517.52	42685.3
517.722	42742.64
517.925	43547.5
518.127	43639.65
518.329	44206.94
518.531	44266.33
518.733	45118.29
518.935	45226.83
519.136	45267.79
519.338	45701.96
519.54	46168.9
519.742	46455.61
519.944	47373.1
520.146	47567.66
520.348	47780.65
520.55	47616.81
520.752	47756.07
520.954	48552.73
521.155	48134.95
521.357	49142.55
521.559	49568.52
521.761	50232.07
521.963	49605.39
522.164	50279.17
522.366	50594.56
522.568	51155.7
522.77	51313.39
522.971	51976.93
523.173	51843.82
523.375	52419.3
523.576	52132.58
523.778	52472.54
523.98	52826.84
524.181	53179.09
524.383	53183.19
524.584	53877.45
524.786	53840.59
524.988	53703.37
525.189	54123.21
525.391	54321.86
525.592	54889.15
525.794	54627.01
525.995	55005.88
526.197	55192.25
526.398	55700.14
526.6	55605.94
526.801	56167.08
527.003	56152.74
527.204	56300.2
527.406	56421.03
527.607	56425.12
527.808	56756.89
528.01	56416.93
528.211	56980.12
528.412	57612.94
528.614	57158.3
528.815	56994.46
529.016	57670.29
529.218	57131.67
529.419	57604.75
529.62	57731.73
529.822	57522.83
530.023	57328.28
530.224	57768.59
530.425	57985.68
530.626	57569.94
530.828	57633.42
531.029	58567.3
531.23	57889.42
531.431	58014.35
531.632	58423.94
531.833	58528.39
532.035	57897.61
532.236	58569.35
532.437	58763.9
532.638	58399.36
532.839	58786.43
533.04	58919.55
533.241	58778.24
533.442	59300.47
533.643	58903.17
533.844	58964.6
534.045	59075.19
534.246	58563.2
534.447	59341.43
534.648	58983.04
534.849	58985.08
535.05	58239.62
535.251	58927.74
535.451	58589.83
535.652	58593.92
535.853	58575.49
536.054	58964.6
536.255	58790.53
536.456	58411.65
536.657	58817.15
536.857	58628.74
537.058	58432.13
537.259	58761.86
537.46	59081.34
537.66	58317.45
537.861	58585.73
538.062	58894.97
538.263	58692.22
538.463	58301.06
538.664	58581.63
538.865	58980.99
539.065	58522.24
539.266	58061.45
539.466	58632.83
539.667	58114.7
539.868	58469
540.068	58223.24
540.269	58215.05
540.469	58614.4
540.67	57866.89
540.87	58204.81
541.071	57821.84
541.271	58147.46
541.472	58083.98
541.672	58038.92
541.873	58018.44
542.073	57592.47
542.274	58849.92
542.474	58292.87
542.675	57463.44
542.875	58282.63
543.075	58049.16
543.276	57330.33
543.476	58376.84
543.676	57758.35
543.877	57983.63
544.077	57768.59
544.277	57924.24
544.478	57610.9
544.678	58145.42
544.878	57846.41
545.078	57688.72
545.279	57561.75
545.479	57379.48
545.679	57920.14
545.879	57674.38
546.079	57528.98
546.28	57823.89
546.48	57354.9
546.68	57492.11
546.88	57969.29
547.08	57399.96
547.28	57383.57
547.48	56601.25
547.68	57850.51
547.88	57258.65
548.081	57301.65
548.281	57209.5
548.481	57469.59
548.681	57283.22
548.881	57440.92
549.081	57348.76
549.28	57311.89
549.48	57969.29
549.68	56734.37
549.88	57795.21
550.08	56935.07
550.28	57193.11
550.48	57143.96
550.68	57166.49
550.88	56705.69
551.08	57053.85
551.279	57103
551.479	56969.88
551.679	57430.68
551.879	56859.29
552.079	56949.4
552.278	57277.08
552.478	57338.52
552.678	57051.8
552.878	57338.52
553.077	56908.44
553.277	56507.04
553.477	57039.51
553.676	56668.83
553.876	56836.76
554.076	56326.82
554.275	56367.78
554.475	55935.66
554.674	56314.53
554.874	56435.36
555.074	56251.05
555.273	56500.9
555.473	56492.71
555.672	56330.92
555.872	56396.45
556.071	56507.04
556.271	56677.02
556.47	56466.08
556.67	56134.31
556.869	56210.09
557.068	56494.75
557.268	55945.9
557.467	56060.58
557.667	55917.23
557.866	55913.13
558.065	55761.58
558.265	55384.75
558.464	55720.62
558.663	55913.13
558.863	55071.42
559.062	55820.97
559.261	55204.53
559.461	55558.83
559.66	54854.33
559.859	55517.87
560.058	55345.84
560.258	55278.26
560.457	54592.19
560.656	55364.28
560.855	54631.1
561.054	55259.83
561.253	54717.12
561.453	55104.18
561.652	54643.39
561.851	54719.17
562.05	54485.7
562.249	54332.1
562.448	55083.7
562.647	54450.88
562.846	54348.48
563.045	53961.42
563.244	54057.67
563.443	54364.87
563.642	53103.32
563.841	54215.36
564.04	53725.9
564.239	54354.63
564.438	53392.08
564.637	53969.61
564.836	53791.44
565.035	52775.64
565.234	53672.65
565.432	52894.42
565.631	52652.76
565.83	53009.11
566.029	52992.73
566.228	52585.18
566.427	52691.68
566.625	52495.07
566.824	51839.72
567.023	52546.27
567.222	51700.46
567.42	52841.18
567.619	52251.36
567.818	51837.67
568.016	52112.1
568.215	52234.98
568.414	51563.25
568.612	51862.25
568.811	51643.12
569.01	51581.68
569.208	50744.06
569.407	50987.77
569.605	51055.35
569.804	51297.01
570.002	50883.32
570.201	51065.59
570.4	50451.2
570.598	50440.96
570.797	50305.79
570.995	50776.83
571.193	50004.74
571.392	50199.3
571.59	50094.85
571.789	49845
571.987	49777.42
572.186	49625.87
572.384	49457.93
572.582	49412.88
572.781	49670.92
572.979	49201.94
573.177	49351.44
573.376	49253.14
573.574	48808.73
573.772	48902.93
573.971	48651.03
574.169	48294.69
574.367	48239.39
574.565	48268.06
574.763	48028.45
574.962	47899.43
575.16	48036.64
575.358	47921.96
575.556	47463.21
575.754	48155.43
575.952	47239.98
576.151	47940.39
576.349	46822.2
576.547	47119.15
576.745	47436.59
576.943	47520.55
577.141	47012.66
577.339	46895.92
577.537	46709.56
577.735	46588.73
577.933	46433.08
578.131	46904.12
578.329	45990.72
578.527	46043.97
578.725	45906.76
578.923	45970.24
579.121	45388.62
579.319	45638.47
579.516	45570.89
579.714	45595.46
579.912	45239.12
580.11	45284.17
580.308	45005.65
580.506	45175.63
580.704	44622.68
580.901	44893.01
581.099	45022.03
581.297	44510.04
581.495	44446.55
581.692	45013.84
581.89	44122.97
582.088	43979.62
582.285	43993.95
582.483	44241.76
582.681	44133.21
582.878	43500.39
583.076	43164.53
583.274	43477.86
583.471	42773.36
583.669	43268.97
583.866	43230.06
584.064	43170.67
584.262	42658.68
584.459	43232.11
584.657	42808.18
584.854	42963.82
585.052	41884.54
585.249	42333.05
585.447	42152.83
585.644	41847.68
585.841	42392.44
586.039	42417.02
586.236	41216.91
586.434	41575.3
586.631	41485.19
586.828	41165.71
587.026	41294.73
587.223	41132.94
587.42	40887.18
587.618	41081.74
587.815	40530.84
588.012	40682.39
588.21	40348.57
588.407	40864.66
588.604	40135.58
588.801	40305.56
588.999	40041.37
589.196	40203.16
589.393	40004.51
589.59	39994.27
589.787	39711.65
589.984	39971.74
590.182	39377.83
590.379	40131.48
590.576	39039.92
590.773	39328.68
590.97	39084.97
591.167	39209.9
591.364	38667.19
591.561	39048.11
591.758	38474.68
591.955	38278.07
592.152	38968.24
592.349	38650.8
592.546	38216.63
592.743	38384.57
592.94	37852.09
593.137	38175.67
593.334	38392.76
593.531	37415.88
593.727	37592
593.924	37567.43
594.121	37551.04
594.318	37368.77
594.515	37049.29
594.712	37446.6
594.908	37149.64
595.105	36987.85
595.302	36885.45
595.499	37141.45
595.696	36316.12
595.892	36168.66
596.089	36592.59
596.286	36547.54
596.482	36271.06
596.679	35859.42
596.876	36256.73
597.072	35816.41
597.269	35812.32
597.466	35376.1
597.662	35843.04
597.859	35646.43
598.055	35513.31
598.252	35232.74
598.448	35228.65
598.645	35214.31
598.841	35310.57
599.038	34769.9
599.234	35197.93
599.431	34462.71
599.627	34501.62
599.824	34980.84
600.02	34126.84
600.217	34325.49
600.413	34075.64
600.609	33975.29
600.806	33934.33
601.002	34028.54
601.198	33604.61
601.395	33512.45
601.591	33506.3
601.787	33514.5
601.984	33483.78
602.18	33637.37
602.376	32988.17
602.572	32773.13
602.769	32996.36
602.965	32607.25
603.161	32705.55
603.357	32611.34
603.553	32732.17
603.75	32105.49
603.946	32199.7
604.142	32539.66
604.338	31912.99
604.534	32324.63
604.73	32287.76
604.926	31925.27
605.122	32142.36
605.318	31667.23
605.514	31968.28
605.71	31718.43
605.906	31980.57
606.102	31294.5
606.298	31405.09
606.494	31398.94
606.69	31169.57
606.886	31245.35
607.082	30559.28
607.278	31095.85
607.474	30428.21
607.67	31030.31
607.866	30819.37
608.062	30972.97
608.257	30385.2
608.453	30671.92
608.649	30700.59
608.845	30430.26
609.041	30630.96
609.236	30180.4
609.432	30407.73
609.628	30037.05
609.824	29703.23
610.019	30071.86
610.215	29703.23
610.411	30049.33
610.606	29760.57
610.802	29721.66
610.998	29697.08
611.193	29967.41
611.389	29516.86
611.584	29584.44
611.78	29166.66
611.976	29236.29
612.171	29295.68
612.367	29344.83
612.562	29367.36
612.758	28644.43
612.953	28931.14
613.149	29199.43
613.344	28902.47
613.539	29371.46
613.735	28683.34
613.93	29080.64
614.126	28834.89
614.321	28679.24
614.517	28714.06
614.712	28578.89
614.907	28181.59
615.103	28585.04
615.298	28316.75
615.493	28507.21
615.688	27769.94
615.884	28601.42
616.079	27647.07
616.274	28064.85
616.47	27767.9
616.665	28382.29
616.86	27640.92
617.055	27624.54
617.25	27712.6
617.445	27755.61
617.641	27173.99
617.836	27749.46
618.031	27325.54
618.226	27647.07
618.421	27184.23
618.616	27286.62
618.811	27155.55
619.006	27198.56
619.201	26424.43
619.396	26831.97
619.591	26434.67
619.786	26567.79
619.981	26205.3
620.176	26596.46
620.371	26299.5
620.566	26272.88
620.761	25906.29
620.956	26178.67
621.151	25418.88
621.346	25662.58
621.541	25590.91
621.735	25607.29
621.93	25212.03
622.125	25193.6
622.32	24646.79
622.515	24841.35
622.709	24722.57
622.904	24994.95
623.099	24509.58
623.294	24755.33
623.488	24046.74
623.683	24396.94
623.878	23741.59
624.072	23921.81
624.267	23831.7
624.462	23755.93
624.656	23467.16
624.851	23481.5
625.046	23276.7
625.24	23188.64
625.435	22951.07
625.629	22715.56
625.824	22375.59
626.018	22791.33
626.213	22242.48
626.407	22297.77
626.602	22095.02
626.796	22375.59
626.991	22101.17
627.185	21879.99
627.38	21664.95
627.574	21728.44
627.768	21456.06
627.963	21714.1
628.157	21222.59
628.352	21411
628.546	20972.74
628.74	21019.84
628.935	20921.54
629.129	21013.7
629.323	20665.54
629.517	20546.76
629.712	20516.04
629.906	20434.12
630.1	20098.25
630.294	20303.05
630.489	19881.17
630.683	20073.68
630.877	19672.28
631.071	19559.64
631.265	19717.33
631.459	19281.11
631.653	19367.13
631.848	19393.75
632.042	19047.65
632.236	19135.71
632.43	18865.38
632.624	18904.29
632.818	18834.66
633.012	18578.66
633.206	18375.91
633.4	18324.71
633.594	18314.47
633.788	18392.3
633.982	18279.66
634.176	18074.86
634.369	17882.35
634.563	17835.25
634.757	17685.75
634.951	17921.26
635.145	17601.78
635.339	17673.46
635.533	17446.13
635.726	17450.23
635.92	17079.55
636.114	17272.06
636.308	17126.65
636.501	16981.24
636.695	16719.1
636.889	16694.53
637.083	16547.08
637.276	16651.52
637.47	16344.33
637.664	16241.93
637.857	16295.18
638.051	16297.22
638.244	16053.52
638.438	16047.37
638.632	16061.71
638.825	15828.24
639.019	15557.91
639.212	15824.14
639.406	15533.33
639.599	15467.8
639.793	15396.12
639.986	15140.12
640.18	15426.84
640.373	15269.14
640.567	14949.66
640.76	14890.27
640.954	14714.14
641.147	14462.24
641.34	14728.48
641.534	14861.6
641.727	14490.91
641.92	14564.64
642.114	14363.94
642.307	14155.05
642.5	14142.76
642.694	14085.42
642.887	13724.97
643.08	14089.51
643.273	13897
643.467	14083.37
643.66	13784.37
643.853	13618.48
644.046	13589.81
644.239	13434.16
644.432	13393.2
644.626	13212.98
644.819	13161.78
645.012	13235.51
645.205	13350.2
645.398	13102.39
645.591	13036.86
645.784	12940.6
645.977	12700.99
646.17	12633.41
646.363	12799.29
646.556	12516.67
646.749	12481.86
646.942	12629.31
647.135	12395.84
647.328	12320.07
647.521	12344.64
647.714	12059.98
647.907	12049.74
648.099	11806.03
648.292	12068.17
648.485	11976.01
648.678	11773.26
648.871	11646.29
649.064	11597.14
649.256	11674.96
649.449	11527.5
649.642	11543.89
649.835	11568.46
650.027	11361.62
650.22	11318.61
650.413	11099.48
650.605	11142.49
650.798	11185.49
650.991	10929.5
651.183	11142.49
651.376	11132.25
651.568	11058.52
651.761	10919.26
651.954	10671.45
652.146	10691.93
652.339	10612.06
652.531	10501.47
652.724	10626.4
652.916	10452.32
653.109	10380.64
653.301	10104.17
653.494	10386.79
653.686	10265.96
653.879	10417.51
654.071	10243.43
654.263	9960.81
654.456	10079.59
654.648	9987.43
654.84	9698.67
655.033	9882.99
655.225	9661.8
655.417	9645.42
655.61	9796.97
655.802	9854.31
655.994	9477.49
656.186	9717.1
656.379	9543.02
656.571	9414
656.763	9299.31
656.955	9315.7
657.148	9280.88
657.34	9307.51
657.532	9315.7
657.724	8879.48
657.916	9057.65
658.108	9178.48
658.3	9135.48
658.492	8977.78
658.684	8924.54
658.876	8979.83
659.068	8748.41
659.26	8826.23
659.452	8762.75
659.644	8582.53
659.836	8754.55
660.028	8603
660.22	8424.83
660.412	8502.65
660.604	8332.67
660.796	8332.67
660.988	8140.16
661.18	8152.45
661.372	8146.31
661.563	8279.43
661.755	8170.88
661.947	8185.22
662.139	8121.73
662.331	8062.34
662.522	7902.6
662.714	7806.34
662.906	7957.89
663.097	7871.88
663.289	7851.4
663.481	7658.89
663.673	7740.81
663.864	7579.02
664.056	7572.88
664.247	7628.17
664.439	7474.57
664.631	7726.47
664.822	7454.09
665.014	7273.87
665.205	7624.08
665.397	7300.5
665.588	7366.03
665.78	7337.36
665.971	7050.64
666.163	7353.74
666.354	7220.63
666.546	6935.96
666.737	7138.71
666.929	7183.76
667.12	6960.53
667.311	6962.58
667.503	6929.81
667.694	6925.72
667.885	6915.48
668.077	7042.45
668.268	6806.94
668.459	6938.01
668.651	6743.45
668.842	6825.37
669.033	6665.63
669.224	6673.82
669.416	6931.86
669.607	6610.33
669.798	6628.76
669.989	6483.36
670.18	6460.83
670.371	6628.76
670.563	6497.69
670.754	6428.06
670.945	6280.61
671.136	6462.88
671.327	6245.79
671.518	6217.12
671.709	6307.23
671.9	6393.25
672.091	6210.98
672.282	6342.05
672.473	6061.48
672.664	6161.83
672.855	6161.83
673.046	6174.11
673.237	6217.12
673.428	6122.91
673.619	6006.18
673.809	6065.57
674	6075.81
674.191	5950.89
674.382	6036.9
674.573	5936.55
674.764	5940.65
674.954	5864.87
675.145	5932.45
675.336	5793.19
675.527	5836.2
675.717	5844.39
675.908	5864.87
676.099	5959.08
676.289	5885.35
676.48	5752.23
676.671	5694.89
676.861	5594.54
677.052	5678.51
677.243	5686.7
677.433	5506.48
677.624	5731.75
677.814	5612.97
678.005	5701.03
678.195	5709.22
678.386	5555.63
678.576	5506.48
678.767	5475.76
678.957	5604.78
679.148	5643.69
679.338	5590.44
679.529	5535.15
679.719	5438.89
679.909	5547.44
680.1	5608.87
680.29	5412.27
680.481	5287.34
680.671	5477.8
680.861	5344.69
681.052	5539.24
681.242	5490.09
681.432	5301.68
681.622	5283.25
681.813	5414.32
682.003	5459.37
682.193	5359.02
682.383	5256.62
682.573	5397.93
682.764	5287.34
682.954	5324.21
683.144	5307.82
683.334	5316.01
683.524	5166.51
683.714	5318.06
683.904	5189.04
684.094	5340.59
684.284	5301.68
684.474	5238.19
684.664	5168.56
684.854	5096.88
685.044	5176.75
685.234	5031.35
685.424	5057.97
685.614	5055.92
685.804	5088.69
685.994	4916.66
686.184	5164.47
686.374	4998.58
686.564	4957.62
686.753	5125.55
686.943	5039.54
687.133	5111.22
687.323	4924.85
687.513	4922.8
687.702	4752.82
687.892	4777.4
688.082	4933.04
688.272	4980.15
688.461	4806.07
688.651	4900.28
688.841	4738.49
689.03	4738.49
689.22	4666.81
689.41	4847.03
689.599	4730.3
689.789	4670.9
689.979	4693.43
690.168	4609.47
690.358	4658.62
690.547	4459.96
690.737	4580.79
690.926	4769.21
691.116	4595.13
691.305	4558.27
691.495	4404.67
691.684	4560.31
691.874	4642.23
692.063	4574.65
692.252	4607.42
692.442	4541.88
692.631	4453.82
692.82	4498.88
693.01	4408.76
693.199	4615.61
693.388	4408.76
693.578	4392.38
693.767	4392.38
693.956	4287.93
694.146	4359.61
694.335	4398.52
694.524	4238.78
694.713	4361.66
694.902	4316.61
695.092	4316.61
695.281	4296.13
695.47	4390.33
695.659	4279.74
695.848	4201.92
696.037	4275.65
696.226	4240.83
696.415	4251.07
696.604	4300.22
696.793	4249.02
696.982	4289.98
697.171	4279.74
697.36	4087.23
697.549	4056.51
697.738	4214.21
697.927	4154.82
698.116	4089.28
698.305	4277.69
698.494	4089.28
698.683	4054.47
698.872	3958.21
699.061	3947.97
699.25	4140.48
699.438	4091.33
699.627	4023.75
699.816	4025.79
700.005	4070.85
700.193	4103.62
700.382	4109.76
700.571	4021.7
700.76	3907.01
700.948	4025.79
701.137	3925.44
701.326	4038.08
701.514	4052.42
701.703	3999.17
701.892	3802.57
702.08	3997.12
702.269	3888.58
702.457	4019.65
702.646	3980.74
702.834	3874.24
703.023	3958.21
703.212	3859.91
703.4	4056.51
703.589	3888.58
703.777	3907.01
703.965	3708.36
704.154	3816.9
704.342	3917.25
704.531	3775.94
704.719	3638.73
704.907	3864.01
705.096	3765.7
705.284	3777.99
705.472	3798.47
705.661	3843.53
705.849	3663.3
706.037	3726.79
706.226	3749.32
706.414	3798.47
706.602	3632.58
706.79	3792.33
706.979	3644.87
707.167	3644.87
707.355	3540.43
707.543	3755.46
707.731	3665.35
707.919	3571.15
708.107	3767.75
708.296	3567.05
708.484	3601.87
708.672	3634.63
708.86	3569.1
709.048	3640.78
709.236	3587.53
709.424	3622.34
709.612	3577.29
709.8	3612.1
709.988	3581.39
710.176	3614.15
710.364	3565
710.551	3614.15
710.739	3567.05
710.927	3497.42
711.115	3519.95
711.303	3507.66
711.491	3452.36
711.679	3374.54
711.866	3442.12
712.054	3378.64
712.242	3546.57
712.43	3544.52
712.617	3552.71
712.805	3329.49
712.993	3448.27
713.181	3521.99
713.368	3345.87
713.556	3454.41
713.744	3409.36
713.931	3487.18
714.119	3423.69
714.306	3483.08
714.494	3179.98
714.682	3300.81
714.869	3313.1
715.057	3290.57
715.244	3179.98
715.432	3290.57
715.619	3218.89
715.807	3214.8
715.994	3268.05
716.182	3255.76
716.369	3190.22
716.556	3200.46
716.744	3171.79
716.931	3169.74
717.119	3145.17
717.306	3100.11
717.493	3100.11
717.681	3245.52
717.868	3233.23
718.055	3286.48
718.242	3007.95
718.43	3034.58
718.617	3134.93
718.804	3198.42
718.991	3085.78
719.179	3089.87
719.366	3202.51
719.553	3093.97
719.74	3046.87
719.927	3042.77
720.114	3077.59
720.301	3155.41
720.488	3067.35
720.676	2878.93
720.863	2969.04
721.05	2997.71
721.237	3098.06
721.424	3012.05
721.611	3053.01
721.798	3034.58
721.985	2872.79
722.172	2876.88
722.358	2956.75
722.545	2985.43
722.732	2807.25
722.919	2944.47
723.106	2958.8
723.293	2938.32
723.48	2893.27
723.667	2915.8
723.853	2805.21
724.04	2817.49
724.227	2928.08
724.414	2809.3
724.6	2790.87
724.787	2815.45
724.974	2883.03
725.161	2840.02
725.347	2727.38
725.534	2878.93
725.72	2801.11
725.907	2733.53
726.094	2825.68
726.28	2778.58
726.467	2624.98
726.653	2741.72
726.84	2745.81
727.027	2792.92
727.213	2661.85
727.4	2702.81
727.586	2749.91
727.773	2694.61
727.959	2627.03
728.145	2719.19
728.332	2643.42
728.518	2635.22
728.705	2661.85
728.891	2711
729.077	2641.37
729.264	2581.98
729.45	2661.85
729.636	2682.33
729.823	2694.61
730.009	2657.75
730.195	2586.07
730.382	2731.48
730.568	2608.6
730.754	2584.02
730.94	2629.08
731.126	2633.18
731.313	2823.64
731.499	2555.35
731.685	2541.02
731.871	2493.91
732.057	2557.4
732.243	2641.37
732.429	2481.63
732.615	2479.58
732.801	2436.57
732.987	2457.05
733.173	2416.09
733.359	2510.3
733.545	2526.68
733.731	2489.82
733.917	2532.83
734.103	2528.73
734.289	2424.28
734.475	2465.24
734.661	2502.11
734.847	2457.05
735.033	2399.71
735.219	2444.76
735.404	2438.62
735.59	2430.43
735.776	2399.71
735.962	2371.04
736.148	2481.63
736.333	2336.22
736.519	2354.65
736.705	2399.71
736.89	2346.46
737.076	2323.93
737.262	2336.22
737.447	2321.88
737.633	2358.75
737.819	2409.95
738.004	2299.36
738.19	2237.92
738.375	2270.69
738.561	2325.98
738.747	2313.69
738.932	2239.97
739.118	2364.89
739.303	2225.63
739.489	2348.51
739.674	2268.64
739.859	2229.73
740.045	2162.14
740.23	2112.99
740.416	2203.1
740.601	2139.62
740.786	2256.35
740.972	2090.46
741.157	2196.96
741.342	2147.81
741.528	2201.05
741.713	2184.67
741.898	2059.74
742.084	2137.57
742.269	2051.55
742.454	2166.24
742.639	2117.09
742.824	2131.42
743.01	2151.9
743.195	2170.33
743.38	2008.55
743.565	2131.42
743.75	2112.99
743.935	2006.5
744.12	2092.51
744.305	1902.05
744.49	1957.35
744.675	1904.1
744.86	2010.59
745.045	1900
745.23	1977.83
745.415	1943.01
745.6	1955.3
745.785	1840.61
745.97	1902.05
746.155	1879.52
746.34	1871.33
746.525	1842.66
746.71	1922.53
746.895	1910.24
747.079	1799.65
747.264	1816.04
747.449	1861.09
747.634	1766.89
747.819	1836.52
748.003	1826.28
748.188	1797.6
748.373	1867.24
748.557	1891.81
748.742	1852.9
748.927	1725.93
749.111	1668.58
749.296	1740.26
749.481	1773.03
749.665	1725.93
749.85	1650.15
750.034	1705.45
750.219	1687.01
750.404	1717.73
750.588	1691.11
750.773	1609.19
750.957	1580.52
751.141	1574.38
751.326	1605.1
751.51	1467.88
751.695	1582.57
751.879	1545.7
752.064	1582.57
752.248	1521.13
752.432	1570.28
752.617	1494.51
752.801	1480.17
752.985	1506.79
753.17	1498.6
753.354	1531.37
753.538	1492.46
753.722	1469.93
753.907	1441.26
754.091	1406.44
754.275	1375.72
754.459	1383.91
754.643	1408.49
754.828	1459.69
755.012	1428.97
755.196	1390.06
755.38	1392.11
755.564	1314.28
755.748	1340.91
755.932	1324.52
756.116	1252.84
756.3	1342.96
756.484	1252.84
756.668	1330.67
756.852	1302
757.036	1263.08
757.22	1310.19
757.404	1152.49
757.588	1308.14
757.772	1168.88
757.956	1265.13
758.14	1355.24
758.323	1230.32
758.507	1252.84
758.691	1205.74
758.875	1148.4
759.059	1129.97
759.242	1170.93
759.426	1054.19
759.61	1164.78
759.794	1123.82
759.977	1068.53
760.161	1195.5
760.345	1185.26
760.528	1129.97
760.712	1148.4
760.895	1107.44
761.079	1109.49
761.263	1002.99
761.446	1023.47
761.63	1095.15
761.813	1105.39
761.997	1035.76
762.18	1076.72
762.364	1172.97
762.547	1037.81
762.731	1066.48
762.914	1144.3
763.098	976.37
763.281	992.75
763.464	900.59
763.648	1000.94
763.831	1052.14
764.015	972.27
764.198	1072.62
764.381	1031.66
764.564	974.32
764.748	1002.99
764.931	1060.34
765.114	945.65
765.297	992.75
765.481	923.12
765.664	910.83
765.847	949.75
766.03	988.66
766.213	990.7
766.397	939.51
766.58	937.46
766.763	980.47
766.946	921.07
767.129	951.79
767.312	990.7
767.495	906.74
767.678	906.74
767.861	828.92
768.044	1035.76
768.227	925.17
768.41	837.11
768.593	923.12
768.776	896.5
768.959	876.02
769.142	935.41
769.324	933.36
769.507	790
769.69	855.54
769.873	814.58
770.056	953.84
770.239	837.11
770.421	865.78
770.604	964.08
770.787	822.77
770.97	761.33
771.152	837.11
771.335	894.45
771.518	894.45
771.7	792.05
771.883	845.3
772.066	857.59
772.248	794.1
772.431	871.92
772.613	818.68
772.796	773.62
772.978	710.13
773.161	835.06
773.343	861.68
773.526	843.25
773.708	785.91
773.891	796.15
774.073	714.23
774.256	720.37
774.438	861.68
774.621	687.61
774.803	755.19
774.985	740.85
775.168	826.87
775.35	677.37
775.532	736.76
775.715	714.23
775.897	749.04
776.079	673.27
776.261	685.56
776.444	677.37
776.626	607.73
776.808	710.13
776.99	658.93
777.173	617.97
777.355	706.04
777.537	665.08
777.719	669.17
777.901	646.65
778.083	632.31
778.265	652.79
778.447	624.12
778.629	581.11
778.811	642.55
778.993	648.69
779.175	609.78
779.357	591.35
779.539	597.49
779.721	640.5
779.903	642.55
780.085	591.35
780.267	620.02
780.449	683.51
780.631	603.64
780.812	554.49
780.994	601.59
781.176	556.54
781.358	550.39
781.54	531.96
781.721	493.05
781.903	556.54
782.085	552.44
782.267	566.78
782.448	558.58
782.63	511.48
782.812	546.3
782.993	536.06
783.175	531.96
783.357	491
783.538	499.19
783.72	499.19
783.901	491
784.083	462.33
784.264	497.14
784.446	497.14
784.627	470.52
784.809	429.56
784.99	382.46
785.172	464.38
785.353	447.99
785.535	443.9
785.716	452.09
785.897	468.47
786.079	493.05
786.26	531.96
786.441	491
786.623	417.27
786.804	454.14
786.985	427.51
787.167	306.68
787.348	347.64
787.529	460.28
787.71	450.04
787.891	437.75
788.073	415.23
788.254	433.66
788.435	411.13
788.616	419.32
788.797	382.46
788.978	447.99
789.159	372.22
789.34	376.31
789.522	464.38
789.703	302.59
789.884	333.31
790.065	353.79
790.246	417.27
790.427	419.32
790.607	417.27
790.788	318.97
790.969	310.78
791.15	349.69
791.331	271.87
791.512	339.45
791.693	282.11
791.874	247.29
792.054	476.66
792.235	374.27
792.416	329.21
792.597	357.88
792.778	370.17
792.958	361.98
793.139	415.23
793.32	368.12
793.5	310.78
793.681	439.8
793.862	343.55
794.042	380.41
794.223	349.69
794.404	345.59
794.584	286.2
794.765	386.55
794.945	300.54
795.126	327.16
795.306	263.68
795.487	294.4
795.667	257.53
795.848	304.64
796.028	290.3
796.209	321.02
796.389	335.35
796.57	243.2
796.75	228.86
796.93	249.34
797.111	278.01
797.291	265.72
797.471	349.69
797.652	321.02
797.832	271.87
798.012	273.92
798.192	196.09
798.373	284.16
798.553	269.82
798.733	271.87
798.913	171.52
799.093	302.59
799.274	224.76
799.454	292.35
799.634	251.39
799.814	255.48
799.994	239.1
800.174	228.86
800.354	294.4
800.534	185.85
800.714	249.34
800.894	216.57
801.074	202.24
801.254	267.77
801.434	210.43
801.614	241.15
801.794	185.85
801.974	710.13
802.154	144.89
802.334	247.29
802.514	200.19
802.693	177.66
802.873	214.52
803.053	269.82
803.233	179.71
803.413	189.95
803.592	257.53
803.772	226.81
803.952	183.81
804.131	241.15
804.311	235
804.491	187.9
804.67	239.1
804.85	136.7
805.03	278.01
805.209	220.67
805.389	173.57
805.568	249.34
805.748	148.99
805.928	267.77
806.107	161.28
806.287	204.28
806.466	136.7
806.646	183.81
806.825	216.57
807.004	245.24
807.184	216.57
807.363	187.9
807.543	163.33
807.722	261.63
807.901	226.81
808.081	241.15
808.26	144.89
808.439	155.13
808.619	239.1
808.798	198.14
808.977	253.44
809.156	175.61
809.336	124.41
809.515	239.1
809.694	130.56
809.873	134.65
810.052	179.71
810.231	222.72
810.411	189.95
810.59	169.47
810.769	138.75
810.948	171.52
811.127	218.62
811.306	134.65
811.485	128.51
811.664	171.52
811.843	110.08
812.022	167.42
812.201	189.95
812.38	175.61
812.559	144.89
812.737	134.65
812.916	95.74
813.095	157.18
813.274	138.75
813.453	83.45
813.632	179.71
813.811	89.6
813.989	169.47
814.168	171.52
814.347	136.7
814.526	148.99
814.704	105.98
814.883	167.42
815.062	140.8
815.24	157.18
815.419	60.93
815.598	200.19
815.776	130.56
815.955	171.52
816.133	165.37
816.312	120.32
816.49	103.93
816.669	155.13
816.847	83.45
817.026	173.57
817.204	112.13
817.383	138.75
817.561	122.37
817.74	155.13
817.918	151.04
818.097	79.36
818.275	136.7
818.453	140.8
818.632	103.93
818.81	81.41
818.988	50.69
819.167	71.17
819.345	91.65
819.523	140.8
819.701	124.41
819.879	-4.61
820.058	126.46
820.236	163.33
820.414	130.56
820.592	93.69
820.77	161.28
820.948	140.8
821.127	83.45
821.305	134.65
821.483	79.36
821.661	126.46
821.839	120.32
822.017	146.94
822.195	114.17
822.373	89.6
822.551	65.02
822.729	114.17
822.907	122.37
823.085	136.7
823.262	71.17
823.44	95.74
823.618	114.17
823.796	122.37
823.974	118.27
824.152	54.78
824.329	140.8
824.507	120.32
824.685	91.65
824.863	142.85
825.04	126.46
825.218	28.16
825.396	67.07
825.574	87.55
825.751	103.93
825.929	99.84
826.107	19.97
826.284	136.7
826.462	126.46
826.639	26.11
826.817	112.13
826.994	52.74
827.172	155.13
827.349	171.52
827.527	118.27
827.704	60.93
827.882	38.4
828.059	52.74
828.237	110.08
828.414	116.22
828.591	124.41
828.769	50.69
828.946	69.12
829.124	71.17
829.301	120.32
829.478	58.88
829.655	101.89
829.833	93.69
830.01	65.02
830.187	116.22
830.364	75.26
830.542	128.51
830.719	124.41
830.896	83.45
831.073	36.35
831.25	83.45
831.427	89.6
831.604	99.84
831.782	42.5
831.959	130.56
832.136	81.41
832.313	108.03
832.49	95.74
832.667	58.88
832.844	101.89
833.021	114.17
833.198	167.42
833.374	42.5
833.551	38.4
833.728	36.35
833.905	58.88
834.082	77.31
834.259	28.16
834.436	114.17
834.612	79.36
834.789	122.37
834.966	116.22
835.143	138.75
835.319	85.5
835.496	9.73
835.673	95.74
835.85	48.64
836.026	69.12
836.203	83.45
836.38	87.55
836.556	9.73
836.733	-6.66
836.909	148.99
837.086	81.41
837.262	58.88
837.439	67.07
837.616	7.68
837.792	5.63
837.968	52.74
838.145	38.4
838.321	38.4
838.498	62.98
838.674	83.45
838.851	120.32
839.027	65.02
839.203	65.02
839.38	65.02
839.556	-66.05
839.732	50.69
839.909	69.12
840.085	34.3
840.261	87.55
840.437	11.78
840.614	42.5
840.79	71.17
840.966	56.83
841.142	19.97
841.318	22.02
841.494	65.02
841.671	73.21
841.847	83.45
842.023	-2.56
842.199	38.4
842.375	79.36
842.551	83.45
842.727	24.06
842.903	69.12
843.079	75.26
843.255	91.65
843.431	42.5
843.607	56.83
843.783	48.64
843.959	114.17
844.134	48.64
844.31	81.41
844.486	60.93
844.662	87.55
844.838	105.98
845.013	69.12
845.189	116.22
845.365	9.73
845.541	36.35
845.716	87.55
845.892	75.26
846.068	40.45
846.244	40.45
846.419	50.69
846.595	22.02
846.77	-23.04
846.946	81.41
847.122	36.35
847.297	48.64
847.473	93.69
847.648	-18.94
847.824	52.74
847.999	9.73
848.175	65.02
848.35	-23.04
848.526	32.26
848.701	50.69
848.876	42.5
849.052	40.45
849.227	62.98
849.403	75.26
849.578	3.58
849.753	97.79
849.929	77.31
850.104	19.97
850.279	42.5
850.454	19.97
850.63	48.64
850.805	65.02
850.98	54.78
851.155	-0.51
851.33	146.94
851.505	-2.56
851.681	-25.09
851.856	30.21
852.031	15.87
852.206	52.74
852.381	-31.23
852.556	34.3
852.731	87.55
852.906	34.3
853.081	-14.85
853.256	28.16
853.431	32.26
853.606	46.59
853.781	97.79
853.956	-10.75
854.131	67.07
854.305	32.26
854.48	1.54
854.655	22.02
854.83	48.64
855.005	26.11
855.18	95.74
855.354	87.55
855.529	26.11
855.704	97.79
855.879	58.88
856.053	9.73
856.228	-4.61
856.403	44.54
856.577	-39.42
856.752	-14.85
856.926	42.5
857.101	-2.56
857.276	-10.75
857.45	-59.9
857.625	52.74
857.799	17.92
857.974	9.73
858.148	26.11
858.323	48.64
858.497	46.59
858.672	101.89
858.846	71.17
859.02	42.5
859.195	24.06
859.369	9.73
859.543	11.78
859.718	15.87
859.892	17.92
860.066	-10.75
860.241	-41.47
860.415	-25.09
860.589	22.02
860.763	-2.56
860.938	5.63
861.112	7.68
861.286	26.11
861.46	-20.99
861.634	22.02
861.808	97.79
861.982	-2.56
862.157	65.02
862.331	38.4
862.505	38.4
862.679	-39.42
862.853	42.5
863.027	50.69
863.201	34.3
863.375	17.92
863.549	3.58
863.722	-35.33
863.896	26.11
864.07	-111.1
864.244	81.41
864.418	44.54
864.592	44.54
864.766	1.54
864.939	17.92
865.113	9.73
865.287	42.5
865.461	-27.14
865.634	13.82
865.808	-4.61
865.982	3.58
866.156	5.63
866.329	17.92
866.503	56.83
866.676	32.26
866.85	11.78
867.024	3.58
867.197	1.54
867.371	-6.66
867.544	58.88
867.718	5.63
867.891	97.79
868.065	48.64
868.238	26.11
868.412	11.78
868.585	54.78
868.759	38.4
868.932	-45.57
869.105	38.4
869.279	-14.85
869.452	-2.56
869.625	-10.75
869.799	75.26
869.972	-10.75
870.145	7.68
870.319	17.92
870.492	-14.85
870.665	28.16
870.838	-12.8
871.011	-8.7
871.185	5.63
871.358	-49.66
871.531	46.59
871.704	-25.09
871.877	42.5
872.05	60.93
872.223	-64
872.396	28.16
872.569	26.11
872.742	13.82
872.915	83.45
873.088	-55.81
873.261	-0.51
873.434	-27.14
873.607	36.35
873.78	7.68
873.953	-18.94
874.126	-29.18
874.299	24.06
874.471	-61.95
874.644	-16.9
874.817	-14.85
874.99	-2.56
875.163	-35.33
875.335	13.82
875.508	-27.14
875.681	44.54
875.853	-37.38
876.026	85.5
876.199	-2.56
876.371	19.97
876.544	15.87
876.717	99.84
876.889	-39.42
877.062	77.31
877.234	26.11
877.407	-0.51
877.579	-49.66
877.752	30.21
877.924	24.06
878.097	22.02
878.269	38.4
878.442	11.78
878.614	-66.05
878.786	-49.66
878.959	75.26
879.131	-0.51
879.303	-8.7
879.476	-10.75
879.648	28.16
879.82	-4.61
879.993	54.78
880.165	30.21
880.337	48.64
880.509	-14.85
880.681	-10.75
880.854	-6.66
881.026	-35.33
881.198	17.92
881.37	17.92
881.542	34.3
881.714	36.35
881.886	9.73
882.058	52.74
882.23	-0.51
882.402	11.78
882.574	-0.51
882.746	52.74
882.918	89.6
883.09	46.59
883.262	32.26
883.434	38.4
883.606	-35.33
883.778	112.13
883.95	67.07
884.122	36.35
884.293	67.07
884.465	-14.85
884.637	17.92
884.809	-10.75
884.98	40.45
885.152	17.92
885.324	67.07
885.496	-14.85
885.667	62.98
885.839	30.21
886.011	7.68
886.182	71.17
886.354	-6.66
886.525	32.26
886.697	-20.99
886.869	-8.7
887.04	-45.57
887.212	-12.8
887.383	67.07
887.555	-2.56
887.726	56.83
887.897	-33.28
888.069	50.69
888.24	30.21
888.412	-33.28
888.583	-10.75
888.754	-2.56
888.926	-64
889.097	-4.61
889.268	5.63
889.44	32.26
889.611	77.31
889.782	-2.56
889.953	38.4
890.125	44.54
890.296	-8.7
890.467	3.58
890.638	13.82
890.809	26.11
890.98	-12.8
891.151	-29.18
891.323	42.5
891.494	28.16
891.665	-92.67
891.836	-16.9
892.007	1.54
892.178	-0.51
892.349	124.41
892.52	-25.09
892.691	-10.75
892.862	44.54
893.032	-39.42
893.203	32.26
893.374	-72.19
893.545	15.87
893.716	-33.28
893.887	19.97
894.057	1.54
894.228	19.97
894.399	-31.23
894.57	-20.99
894.74	22.02
894.911	34.3
895.082	19.97
895.253	26.11
895.423	-25.09
895.594	32.26
895.764	32.26
895.935	13.82
896.106	19.97
896.276	-53.76
896.447	-23.04
896.617	48.64
896.788	-12.8
896.958	50.69
897.129	-27.14
897.299	22.02
897.47	26.11
897.64	5.63
897.81	42.5
897.981	40.45
898.151	28.16
898.322	3.58
898.492	40.45
898.662	-10.75
898.832	-53.76
899.003	19.97
899.173	-18.94
899.343	5.63
899.513	-23.04
