Data from USB4F104151__8__12-34-59-225.txt Node

Date: Fri Mar 14 12:34:59 EDT 2025
User: louis
Spectrometer: USB4F10415
Trigger mode: 4
Integration Time (sec): 2.000000E-2
Scans to average: 1
Electric dark correction enabled: true
Nonlinearity correction enabled: false
Boxcar width: 0
XAxis mode: Wavelengths
Number of Pixels in Spectrum: 3648
>>>>>Begin Spectral Data<<<<<
178.204	-120.49
178.424	-120.49
178.644	-120.49
178.864	-48.81
179.084	-114.34
179.304	-20.14
179.524	-97.96
179.744	-9.9
179.964	6.49
180.184	-34.47
180.404	-13.99
180.624	61.78
180.844	45.4
181.064	-48.81
181.283	-22.19
181.503	12.63
181.723	121.17
181.943	-65.19
182.163	37.2
182.383	37.2
182.602	33.11
182.822	-9.9
183.042	-1.71
183.262	55.64
183.482	22.87
183.701	-16.04
183.921	41.3
184.141	8.53
184.361	76.12
184.58	24.92
184.8	37.2
185.02	29.01
185.239	88.4
185.459	8.53
185.679	90.45
185.898	-61.1
186.118	96.6
186.338	16.73
186.557	-7.85
186.777	55.64
186.997	53.59
187.216	-34.47
187.436	115.03
187.655	-16.04
187.875	49.49
188.095	-69.29
188.314	43.35
188.534	59.73
188.753	37.2
188.973	72.02
189.192	55.64
189.412	-11.95
189.631	29.01
189.851	72.02
190.07	51.54
190.29	-5.8
190.509	-24.23
190.729	-71.34
190.948	69.97
191.168	45.4
191.387	20.82
191.607	29.01
191.826	12.63
192.045	24.92
192.265	-22.19
192.484	-30.38
192.704	41.3
192.923	12.63
193.142	67.92
193.362	39.25
193.581	63.83
193.8	90.45
194.02	39.25
194.239	4.44
194.458	-28.33
194.678	-44.71
194.897	-26.28
195.116	43.35
195.335	-18.09
195.555	20.82
195.774	4.44
195.993	96.6
196.212	41.3
196.432	67.92
196.651	-44.71
196.87	29.01
197.089	106.84
197.308	41.3
197.528	8.53
197.747	-9.9
197.966	51.54
198.185	61.78
198.404	0.34
198.623	10.58
198.842	39.25
199.062	41.3
199.281	-9.9
199.5	-5.8
199.719	-22.19
199.938	22.87
200.157	84.31
200.376	29.01
200.595	6.49
200.814	31.06
201.033	33.11
201.252	82.26
201.471	14.68
201.69	-5.8
201.909	90.45
202.128	-32.43
202.347	31.06
202.566	67.92
202.785	8.53
203.004	18.77
203.223	53.59
203.442	-18.09
203.661	33.11
203.879	45.4
204.098	-3.75
204.317	-71.34
204.536	45.4
204.755	55.64
204.974	63.83
205.193	-20.14
205.411	61.78
205.63	33.11
205.849	26.96
206.068	49.49
206.287	22.87
206.505	31.06
206.724	-18.09
206.943	-20.14
207.162	43.35
207.381	26.96
207.599	49.49
207.818	53.59
208.037	41.3
208.255	6.49
208.474	-61.1
208.693	49.49
208.911	49.49
209.13	33.11
209.349	14.68
209.567	6.49
209.786	92.5
210.005	37.2
210.223	47.44
210.442	22.87
210.661	-11.95
210.879	22.87
211.098	45.4
211.316	-32.43
211.535	26.96
211.753	16.73
211.972	-102.06
212.191	-36.52
212.409	14.68
212.628	-30.38
212.846	41.3
213.065	18.77
213.283	55.64
213.502	37.2
213.72	4.44
213.938	24.92
214.157	10.58
214.375	-13.99
214.594	53.59
214.812	29.01
215.031	96.6
215.249	45.4
215.467	59.73
215.686	4.44
215.904	84.31
216.122	33.11
216.341	55.64
216.559	14.68
216.778	2.39
216.996	39.25
217.214	6.49
217.432	-42.67
217.651	65.88
217.869	-18.09
218.087	96.6
218.306	67.92
218.524	39.25
218.742	29.01
218.96	20.82
219.179	55.64
219.397	-5.8
219.615	72.02
219.833	33.11
220.051	4.44
220.27	2.39
220.488	49.49
220.706	14.68
220.924	-42.67
221.142	78.16
221.36	59.73
221.578	0.34
221.796	90.45
222.015	84.31
222.233	-3.75
222.451	53.59
222.669	-5.8
222.887	55.64
223.105	10.58
223.323	45.4
223.541	-48.81
223.759	20.82
223.977	20.82
224.195	29.01
224.413	72.02
224.631	61.78
224.849	8.53
225.067	106.84
225.285	49.49
225.503	-7.85
225.721	-11.95
225.939	-1.71
226.157	-38.57
226.375	115.03
226.592	45.4
226.81	63.83
227.028	108.88
227.246	76.12
227.464	57.68
227.682	63.83
227.9	84.31
228.117	10.58
228.335	-13.99
228.553	72.02
228.771	2.39
228.989	22.87
229.206	51.54
229.424	2.39
229.642	-22.19
229.86	55.64
230.077	78.16
230.295	-7.85
230.513	104.79
230.731	-52.91
230.948	82.26
231.166	117.08
231.384	24.92
231.601	-104.11
231.819	24.92
232.037	-3.75
232.254	35.16
232.472	-13.99
232.689	57.68
232.907	53.59
233.125	-89.77
233.342	51.54
233.56	-5.8
233.777	33.11
233.995	59.73
234.213	94.55
234.43	-1.71
234.648	4.44
234.865	0.34
235.083	26.96
235.3	-97.96
235.518	10.58
235.735	33.11
235.953	69.97
236.17	37.2
236.388	12.63
236.605	115.03
236.822	33.11
237.04	35.16
237.257	18.77
237.475	29.01
237.692	88.4
237.909	8.53
238.127	12.63
238.344	26.96
238.562	22.87
238.779	72.02
238.996	0.34
239.214	90.45
239.431	63.83
239.648	65.88
239.865	31.06
240.083	33.11
240.3	29.01
240.517	-20.14
240.735	74.07
240.952	47.44
241.169	59.73
241.386	26.96
241.603	24.92
241.821	-46.76
242.038	2.39
242.255	39.25
242.472	-22.19
242.689	6.49
242.907	-18.09
243.124	41.3
243.341	16.73
243.558	55.64
243.775	49.49
243.992	-42.67
244.209	8.53
244.426	43.35
244.643	74.07
244.86	31.06
245.078	33.11
245.295	18.77
245.512	6.49
245.729	41.3
245.946	-1.71
246.163	-5.8
246.38	-65.19
246.597	94.55
246.814	12.63
247.031	90.45
247.248	61.78
247.464	53.59
247.681	41.3
247.898	14.68
248.115	2.39
248.332	26.96
248.549	59.73
248.766	82.26
248.983	-40.62
249.2	37.2
249.417	-1.71
249.633	74.07
249.85	31.06
250.067	55.64
250.284	-20.14
250.501	43.35
250.717	-26.28
250.934	16.73
251.151	-26.28
251.368	12.63
251.585	67.92
251.801	-91.82
252.018	-5.8
252.235	24.92
252.451	35.16
252.668	-9.9
252.885	-13.99
253.102	86.36
253.318	37.2
253.535	100.69
253.752	-50.86
253.968	80.21
254.185	-7.85
254.401	-26.28
254.618	78.16
254.835	26.96
255.051	2.39
255.268	49.49
255.484	-57
255.701	63.83
255.917	78.16
256.134	49.49
256.351	102.74
256.567	0.34
256.784	86.36
257	35.16
257.217	-9.9
257.433	45.4
257.65	0.34
257.866	55.64
258.082	-16.04
258.299	18.77
258.515	43.35
258.732	-5.8
258.948	41.3
259.165	-40.62
259.381	-11.95
259.597	26.96
259.814	35.16
260.03	51.54
260.246	-40.62
260.463	100.69
260.679	84.31
260.895	35.16
261.112	57.68
261.328	39.25
261.544	-3.75
261.761	45.4
261.977	61.78
262.193	86.36
262.409	0.34
262.626	24.92
262.842	53.59
263.058	12.63
263.274	51.54
263.49	37.2
263.707	49.49
263.923	82.26
264.139	-67.24
264.355	-1.71
264.571	24.92
264.787	-9.9
265.004	53.59
265.22	45.4
265.436	51.54
265.652	-7.85
265.868	80.21
266.084	-16.04
266.3	53.59
266.516	0.34
266.732	6.49
266.948	29.01
267.164	39.25
267.38	-5.8
267.596	-16.04
267.812	63.83
268.028	-1.71
268.244	49.49
268.46	47.44
268.676	37.2
268.892	12.63
269.108	-1.71
269.324	33.11
269.54	-85.67
269.756	6.49
269.972	-32.43
270.188	24.92
270.403	-28.33
270.619	12.63
270.835	6.49
271.051	43.35
271.267	39.25
271.483	33.11
271.698	6.49
271.914	-13.99
272.13	43.35
272.346	26.96
272.562	20.82
272.777	45.4
272.993	8.53
273.209	61.78
273.425	-11.95
273.64	18.77
273.856	43.35
274.072	22.87
274.287	24.92
274.503	86.36
274.719	37.2
274.934	-1.71
275.15	24.92
275.366	-38.57
275.581	57.68
275.797	-20.14
276.012	12.63
276.228	-9.9
276.444	-9.9
276.659	39.25
276.875	-28.33
277.09	-22.19
277.306	53.59
277.521	26.96
277.737	-9.9
277.952	29.01
278.168	127.32
278.383	72.02
278.599	39.25
278.814	41.3
279.03	22.87
279.245	0.34
279.461	31.06
279.676	61.78
279.892	12.63
280.107	18.77
280.322	59.73
280.538	20.82
280.753	-9.9
280.969	94.55
281.184	-59.05
281.399	133.46
281.615	-3.75
281.83	24.92
282.045	-1.71
282.26	-44.71
282.476	31.06
282.691	80.21
282.906	22.87
283.122	82.26
283.337	29.01
283.552	57.68
283.767	-16.04
283.983	76.12
284.198	10.58
284.413	67.92
284.628	-1.71
284.843	-9.9
285.058	31.06
285.274	37.2
285.489	18.77
285.704	24.92
285.919	22.87
286.134	84.31
286.349	16.73
286.564	67.92
286.779	8.53
286.995	31.06
287.21	-24.23
287.425	67.92
287.64	26.96
287.855	20.82
288.07	72.02
288.285	-1.71
288.5	63.83
288.715	-1.71
288.93	-3.75
289.145	18.77
289.36	14.68
289.575	20.82
289.79	88.4
290.004	29.01
290.219	-20.14
290.434	16.73
290.649	-9.9
290.864	45.4
291.079	-9.9
291.294	12.63
291.509	61.78
291.724	41.3
291.938	-28.33
292.153	4.44
292.368	29.01
292.583	55.64
292.798	29.01
293.012	8.53
293.227	-16.04
293.442	-7.85
293.657	33.11
293.871	43.35
294.086	8.53
294.301	92.5
294.516	106.84
294.73	-42.67
294.945	-71.34
295.16	57.68
295.374	-65.19
295.589	76.12
295.804	-3.75
296.018	0.34
296.233	69.97
296.447	47.44
296.662	29.01
296.877	80.21
297.091	84.31
297.306	-24.23
297.52	29.01
297.735	49.49
297.949	84.31
298.164	4.44
298.378	57.68
298.593	41.3
298.807	-34.47
299.022	98.64
299.236	22.87
299.451	-11.95
299.665	22.87
299.88	43.35
300.094	82.26
300.309	-46.76
300.523	45.4
300.737	33.11
300.952	90.45
301.166	24.92
301.381	12.63
301.595	20.82
301.809	29.01
302.024	-13.99
302.238	51.54
302.452	26.96
302.667	102.74
302.881	59.73
303.095	-38.57
303.309	108.88
303.524	18.77
303.738	119.12
303.952	49.49
304.166	12.63
304.381	10.58
304.595	10.58
304.809	-24.23
305.023	53.59
305.237	-26.28
305.452	90.45
305.666	45.4
305.88	-5.8
306.094	20.82
306.308	94.55
306.522	-11.95
306.736	106.84
306.95	20.82
307.164	-5.8
307.379	47.44
307.593	24.92
307.807	59.73
308.021	53.59
308.235	45.4
308.449	-46.76
308.663	55.64
308.877	12.63
309.091	6.49
309.305	18.77
309.519	-7.85
309.733	55.64
309.947	4.44
310.161	-22.19
310.374	8.53
310.588	115.03
310.802	92.5
311.016	55.64
311.23	-46.76
311.444	12.63
311.658	37.2
311.872	53.59
312.085	20.82
312.299	106.84
312.513	72.02
312.727	47.44
312.941	-16.04
313.154	74.07
313.368	41.3
313.582	65.88
313.796	-13.99
314.009	57.68
314.223	59.73
314.437	31.06
314.651	61.78
314.864	49.49
315.078	-34.47
315.292	31.06
315.505	16.73
315.719	18.77
315.933	33.11
316.146	98.64
316.36	14.68
316.573	0.34
316.787	112.98
317.001	51.54
317.214	-18.09
317.428	63.83
317.641	59.73
317.855	74.07
318.068	16.73
318.282	63.83
318.495	45.4
318.709	67.92
318.922	-26.28
319.136	65.88
319.349	-11.95
319.563	96.6
319.776	35.16
319.99	47.44
320.203	51.54
320.417	6.49
320.63	63.83
320.843	57.68
321.057	65.88
321.27	39.25
321.483	67.92
321.697	-28.33
321.91	45.4
322.124	82.26
322.337	0.34
322.55	72.02
322.763	-3.75
322.977	29.01
323.19	-42.67
323.403	31.06
323.617	0.34
323.83	22.87
324.043	65.88
324.256	31.06
324.469	-5.8
324.683	26.96
324.896	14.68
325.109	18.77
325.322	-20.14
325.535	35.16
325.748	31.06
325.962	74.07
326.175	43.35
326.388	4.44
326.601	41.3
326.814	-7.85
327.027	6.49
327.24	22.87
327.453	26.96
327.666	35.16
327.879	22.87
328.092	-18.09
328.305	65.88
328.518	22.87
328.731	14.68
328.944	43.35
329.157	43.35
329.37	-16.04
329.583	45.4
329.796	80.21
330.009	37.2
330.222	41.3
330.435	-3.75
330.648	33.11
330.861	8.53
331.073	31.06
331.286	115.03
331.499	78.16
331.712	29.01
331.925	14.68
332.138	47.44
332.35	76.12
332.563	0.34
332.776	170.32
332.989	59.73
333.202	57.68
333.414	-11.95
333.627	43.35
333.84	4.44
334.053	-20.14
334.265	41.3
334.478	26.96
334.691	33.11
334.903	-5.8
335.116	-1.71
335.329	76.12
335.541	88.4
335.754	84.31
335.966	4.44
336.179	98.64
336.392	-1.71
336.604	35.16
336.817	8.53
337.029	74.07
337.242	-1.71
337.454	65.88
337.667	18.77
337.88	49.49
338.092	-44.71
338.305	26.96
338.517	18.77
338.729	53.59
338.942	47.44
339.154	43.35
339.367	14.68
339.579	41.3
339.792	-42.67
340.004	80.21
340.217	-16.04
340.429	35.16
340.641	-5.8
340.854	10.58
341.066	29.01
341.278	100.69
341.491	104.79
341.703	90.45
341.915	22.87
342.128	18.77
342.34	72.02
342.552	61.78
342.764	8.53
342.977	41.3
343.189	6.49
343.401	86.36
343.613	-3.75
343.826	45.4
344.038	33.11
344.25	88.4
344.462	8.53
344.674	59.73
344.886	51.54
345.099	84.31
345.311	63.83
345.523	22.87
345.735	-3.75
345.947	20.82
346.159	12.63
346.371	59.73
346.583	-1.71
346.795	106.84
347.007	-16.04
347.219	24.92
347.431	67.92
347.643	41.3
347.855	61.78
348.067	29.01
348.279	-54.95
348.491	14.68
348.703	20.82
348.915	37.2
349.127	29.01
349.339	26.96
349.551	74.07
349.763	20.82
349.975	-5.8
350.187	86.36
350.399	63.83
350.61	102.74
350.822	-24.23
351.034	6.49
351.246	55.64
351.458	24.92
351.669	98.64
351.881	55.64
352.093	31.06
352.305	125.27
352.517	16.73
352.728	39.25
352.94	78.16
353.152	82.26
353.363	-3.75
353.575	26.96
353.787	162.13
353.999	51.54
354.21	31.06
354.422	33.11
354.633	47.44
354.845	10.58
355.057	61.78
355.268	94.55
355.48	61.78
355.692	33.11
355.903	10.58
356.115	24.92
356.326	55.64
356.538	33.11
356.749	22.87
356.961	96.6
357.172	90.45
357.384	121.17
357.595	43.35
357.807	-16.04
358.018	-3.75
358.23	98.64
358.441	49.49
358.653	67.92
358.864	80.21
359.075	53.59
359.287	-7.85
359.498	55.64
359.709	65.88
359.921	45.4
360.132	-36.52
360.344	33.11
360.555	37.2
360.766	29.01
360.977	8.53
361.189	94.55
361.4	-24.23
361.611	84.31
361.823	59.73
362.034	117.08
362.245	41.3
362.456	115.03
362.667	8.53
362.879	78.16
363.09	-18.09
363.301	39.25
363.512	22.87
363.723	57.68
363.935	4.44
364.146	31.06
364.357	20.82
364.568	88.4
364.779	-5.8
364.99	65.88
365.201	35.16
365.412	35.16
365.623	6.49
365.834	-16.04
366.045	29.01
366.256	63.83
366.467	61.78
366.678	78.16
366.889	22.87
367.1	24.92
367.311	69.97
367.522	-65.19
367.733	45.4
367.944	51.54
368.155	-5.8
368.366	63.83
368.577	55.64
368.788	31.06
368.999	16.73
369.209	49.49
369.42	37.2
369.631	39.25
369.842	6.49
370.053	18.77
370.264	119.12
370.474	55.64
370.685	-42.67
370.896	-3.75
371.107	141.65
371.317	43.35
371.528	26.96
371.739	110.93
371.95	63.83
372.16	43.35
372.371	59.73
372.582	33.11
372.792	-24.23
373.003	45.4
373.214	-3.75
373.424	22.87
373.635	29.01
373.846	69.97
374.056	53.59
374.267	69.97
374.477	37.2
374.688	53.59
374.898	24.92
375.109	10.58
375.319	0.34
375.53	-11.95
375.74	20.82
375.951	108.88
376.161	26.96
376.372	35.16
376.582	22.87
376.793	57.68
377.003	67.92
377.214	76.12
377.424	63.83
377.635	-3.75
377.845	22.87
378.055	45.4
378.266	-24.23
378.476	33.11
378.686	106.84
378.897	45.4
379.107	41.3
379.317	90.45
379.528	104.79
379.738	57.68
379.948	39.25
380.158	-18.09
380.369	39.25
380.579	31.06
380.789	-5.8
380.999	2.39
381.21	61.78
381.42	-18.09
381.63	45.4
381.84	35.16
382.05	29.01
382.261	39.25
382.471	53.59
382.681	65.88
382.891	47.44
383.101	74.07
383.311	61.78
383.521	72.02
383.731	59.73
383.941	141.65
384.151	-9.9
384.361	33.11
384.571	86.36
384.781	10.58
384.991	59.73
385.201	10.58
385.411	88.4
385.621	63.83
385.831	-5.8
386.041	57.68
386.251	22.87
386.461	100.69
386.671	18.77
386.881	-7.85
387.091	37.2
387.301	63.83
387.511	29.01
387.72	67.92
387.93	90.45
388.14	92.5
388.35	35.16
388.56	100.69
388.769	80.21
388.979	82.26
389.189	100.69
389.399	53.59
389.609	31.06
389.818	72.02
390.028	33.11
390.238	112.98
390.447	121.17
390.657	72.02
390.867	-3.75
391.076	57.68
391.286	61.78
391.496	41.3
391.705	65.88
391.915	51.54
392.125	119.12
392.334	92.5
392.544	24.92
392.753	74.07
392.963	-16.04
393.172	61.78
393.382	-9.9
393.591	82.26
393.801	51.54
394.01	76.12
394.22	69.97
394.429	80.21
394.639	39.25
394.848	82.26
395.058	16.73
395.267	86.36
395.477	57.68
395.686	37.2
395.895	104.79
396.105	33.11
396.314	82.26
396.524	119.12
396.733	96.6
396.942	129.36
397.152	129.36
397.361	72.02
397.57	-24.23
397.78	55.64
397.989	115.03
398.198	76.12
398.407	80.21
398.617	86.36
398.826	74.07
399.035	104.79
399.244	69.97
399.453	45.4
399.663	100.69
399.872	188.75
400.081	69.97
400.29	59.73
400.499	45.4
400.708	104.79
400.917	141.65
401.127	80.21
401.336	125.27
401.545	201.04
401.754	115.03
401.963	106.84
402.172	61.78
402.381	76.12
402.59	108.88
402.799	110.93
403.008	106.84
403.217	170.32
403.426	96.6
403.635	72.02
403.844	104.79
404.053	16.73
404.262	63.83
404.471	139.6
404.68	174.42
404.888	65.88
405.097	139.6
405.306	184.66
405.515	112.98
405.724	112.98
405.933	203.09
406.142	145.75
406.35	139.6
406.559	74.07
406.768	100.69
406.977	160.08
407.185	184.66
407.394	96.6
407.603	153.94
407.812	190.8
408.02	207.19
408.229	149.84
408.438	168.27
408.646	221.52
408.855	192.85
409.064	233.81
409.272	137.56
409.481	186.71
409.69	268.63
409.898	225.62
410.107	242
410.315	270.67
410.524	280.91
410.733	239.95
410.941	235.86
411.15	305.49
411.358	317.78
411.567	274.77
411.775	301.39
411.984	387.41
412.192	325.97
412.401	356.69
412.609	368.98
412.818	362.83
413.026	450.89
413.234	416.08
413.443	457.04
413.651	411.98
413.86	397.65
414.068	483.66
414.276	502.09
414.485	498
414.693	526.67
414.901	485.71
415.11	487.76
415.318	588.11
415.526	635.21
415.734	543.05
415.943	680.27
416.151	620.88
416.359	688.46
416.567	663.88
416.776	690.51
416.984	766.28
417.192	772.43
417.4	835.91
417.608	676.17
417.817	790.86
418.025	842.06
418.233	919.88
418.441	917.83
418.649	952.65
418.857	991.56
419.065	991.56
419.273	1030.47
419.481	989.51
419.689	1136.96
419.897	1120.58
420.105	1110.34
420.313	1229.12
420.521	1265.99
420.729	1302.85
420.937	1268.03
421.145	1388.86
421.353	1323.33
421.561	1513.79
421.769	1411.39
421.977	1624.38
422.185	1511.74
422.393	1714.49
422.601	1790.27
422.809	1769.79
423.017	1861.94
423.224	1812.79
423.432	1950.01
423.64	1990.97
423.848	2005.3
424.056	2099.51
424.263	2359.6
424.471	2199.86
424.679	2208.05
424.887	2396.46
425.094	2335.03
425.302	2394.42
425.51	2545.97
425.718	2605.36
425.925	2683.18
426.133	2750.76
426.341	2908.46
426.548	3096.87
426.756	3078.44
426.964	3076.39
427.171	3189.03
427.379	3141.93
427.586	3387.68
427.794	3522.85
428.001	3711.26
428.209	3658.01
428.417	3653.92
428.624	4124.95
428.832	4065.56
429.039	4002.07
429.247	4036.89
429.454	4315.41
429.662	4557.07
429.869	4393.23
430.076	4614.41
430.284	4624.65
430.491	4731.15
430.699	5024.01
430.906	4985.1
431.114	4970.76
431.321	5288.2
431.528	5353.73
431.736	5822.72
431.943	5855.48
432.15	5843.2
432.358	5886.2
432.565	6179.06
432.772	6209.78
432.979	6547.7
433.187	6646
433.394	6580.46
433.601	7172.33
433.808	7084.27
434.016	7231.72
434.223	7358.69
434.43	7637.22
434.637	7366.88
434.844	7930.08
435.052	8278.23
435.259	8157.4
435.466	8319.19
435.673	8098.01
435.88	8739.02
436.087	9312.46
436.294	9275.59
436.501	8878.29
436.708	8974.54
436.915	9523.4
437.122	9881.79
437.329	10047.68
437.537	10119.35
437.743	10279.1
437.95	10160.31
438.157	10727.6
438.364	11079.85
438.571	11284.65
438.778	11190.44
438.985	12093.6
439.192	11468.97
439.399	12212.38
439.606	11860.13
439.813	12435.61
440.02	13230.22
440.227	12994.7
440.433	12961.94
440.64	13269.13
440.847	13500.55
441.054	13529.22
441.261	14665.85
441.467	14235.77
441.674	14506.1
441.881	15216.75
442.088	15001.71
442.294	14788.72
442.501	15394.92
442.708	15716.45
442.914	16322.65
443.121	16857.17
443.328	16707.67
443.534	17659.98
443.741	17293.39
443.948	17115.22
444.154	18096.19
444.361	18208.83
444.568	18198.59
444.774	18257.98
444.981	18542.65
445.187	18716.73
445.394	19699.75
445.6	19767.34
445.807	21411.85
446.013	20549.66
446.22	21004.31
446.426	21833.74
446.633	21809.16
446.839	22396.93
447.046	21739.53
447.252	23011.32
447.459	22624.25
447.665	22870.01
447.871	23986.15
448.078	24571.87
448.284	23764.97
448.491	24627.17
448.697	25454.54
448.903	25769.93
449.11	26015.69
449.316	25454.54
449.522	26161.09
449.728	26605.5
449.935	26757.05
450.141	26769.34
450.347	27506.61
450.553	26466.24
450.76	26986.43
450.966	28008.36
451.172	27469.75
451.378	28235.69
451.584	27776.94
451.791	28204.97
451.997	28315.56
452.203	28817.31
452.409	28831.65
452.615	28692.38
452.821	27563.95
453.027	27350.96
453.233	28821.41
453.44	27717.55
453.646	27908.01
453.852	28350.37
454.058	28655.52
454.264	27727.79
454.47	28112.81
454.676	27383.73
454.882	28352.42
455.088	26136.52
455.294	26318.79
455.5	27078.58
455.705	27236.28
455.911	26054.6
456.117	25454.54
456.323	25309.14
456.529	24025.06
456.735	24946.65
456.941	24545.25
457.147	23850.99
457.352	23359.47
457.558	22972.41
457.764	22996.98
457.97	22679.55
458.176	22087.68
458.381	22102.02
458.587	20959.25
458.793	20797.46
458.999	19925.03
459.204	21346.32
459.41	20903.96
459.616	19443.76
459.821	19773.48
460.027	19363.89
460.233	18937.91
460.438	18116.67
460.644	18282.56
460.85	17520.71
461.055	17072.21
461.261	17068.11
461.466	15820.9
461.672	15335.53
461.878	16506.97
462.083	15249.52
462.289	14907.51
462.494	14805.11
462.7	14266.49
462.905	13899.91
463.111	14024.83
463.316	14211.2
463.522	14002.3
463.727	13971.58
463.932	14178.43
464.138	13756.55
464.343	13740.16
464.549	13656.2
464.754	13959.3
464.959	13803.65
465.165	13676.68
465.37	13230.22
465.575	12906.64
465.781	13269.13
465.986	13711.49
466.191	12947.6
466.397	12589.21
466.602	12173.47
466.807	12529.81
467.012	12611.73
467.218	12517.53
467.423	12179.61
467.628	12304.54
467.833	12837.01
468.038	12378.26
468.244	12021.92
468.449	12351.64
468.654	12292.25
468.859	12062.88
469.064	12032.16
469.269	11673.76
469.474	11395.24
469.679	11874.46
469.885	11643.04
470.09	11618.47
470.295	11716.77
470.5	11176.11
470.705	11282.6
470.91	11114.67
471.115	10922.16
471.32	11169.96
471.525	11188.39
471.73	11032.75
471.935	10821.81
472.139	10533.04
472.344	10473.65
472.549	10565.81
472.754	10318.01
472.959	9986.24
473.164	9857.21
473.369	9724.1
473.574	10221.75
473.778	10010.81
473.983	9971.9
474.188	10023.1
474.393	9492.68
474.598	9394.37
474.802	9468.1
475.007	9421
475.212	9429.19
475.417	8943.82
475.621	9072.84
475.826	9048.27
476.031	8999.12
476.235	8671.44
476.44	8866
476.645	8569.04
476.849	8800.46
477.054	8425.68
477.259	8384.73
477.463	8335.57
477.668	8351.96
477.872	8425.68
478.077	8114.39
478.282	7774.43
478.486	8026.33
478.691	7899.36
478.895	7774.43
479.1	7948.51
479.304	7581.92
479.509	7758.05
479.713	7725.28
479.918	7366.88
480.122	7465.19
480.326	7575.78
480.531	7647.46
480.735	7450.85
480.94	7524.58
481.144	7631.07
481.348	7209.19
481.553	7307.49
481.757	7092.46
481.961	7295.21
482.166	7180.52
482.37	7266.53
482.574	7284.97
482.778	7258.34
482.983	7358.69
483.187	7233.77
483.391	7223.53
483.595	7340.26
483.8	7102.7
484.004	7262.44
484.208	7334.12
484.412	7211.24
484.616	7135.46
484.821	7338.21
485.025	7209.19
485.229	7196.9
485.433	7035.11
485.637	7237.86
485.841	7155.94
486.045	7145.7
486.249	7203.05
486.453	7272.68
486.657	7186.66
486.861	7330.02
487.065	6885.61
487.269	7219.43
487.473	7102.7
487.677	7332.07
487.881	7155.94
488.085	7063.79
488.289	7110.89
488.493	7141.61
488.697	7127.27
488.901	7280.87
489.105	7131.37
489.309	7114.98
489.512	7246.05
489.716	7217.38
489.92	7219.43
490.124	7266.53
490.328	7260.39
490.531	7190.76
490.735	7350.5
490.939	7379.17
491.143	7370.98
491.346	7327.97
491.55	7413.99
491.754	7352.55
491.958	7543.01
492.161	7430.37
492.365	7727.33
492.569	7405.8
492.772	7631.07
492.976	7579.87
493.18	7721.18
493.383	7684.32
493.587	7772.38
493.79	7700.7
493.994	7694.56
494.197	7928.03
494.401	7997.66
494.605	8057.05
494.808	7991.52
495.012	8042.71
495.215	8001.76
495.419	8083.67
495.622	8110.3
495.825	8229.08
496.029	8323.29
496.232	8446.16
496.436	8655.06
496.639	8599.76
496.843	8542.42
497.046	8591.57
497.249	8886.48
497.453	8849.61
497.656	8855.76
497.859	9089.23
498.063	8972.49
498.266	9216.2
498.469	9167.05
498.673	9359.56
498.876	9398.47
499.079	9703.62
499.282	9679.04
499.485	9828.54
499.689	9871.55
499.892	10016.96
500.095	9806.02
500.298	10340.54
500.501	10125.5
500.705	10592.44
500.908	10569.91
501.111	10836.14
501.314	10696.88
501.517	10922.16
501.72	11022.51
501.923	10989.74
502.126	11229.35
502.329	11471.01
502.532	11567.27
502.735	11628.71
502.938	11559.08
503.141	11755.68
503.344	11896.99
503.547	12066.97
503.75	12193.95
503.953	12212.38
504.156	12564.63
504.359	12722.32
504.562	12710.04
504.765	12992.66
504.968	13260.94
505.17	13328.52
505.373	13101.2
505.576	13729.92
505.779	13586.57
505.982	13678.72
506.185	13940.86
506.387	14237.82
506.59	13981.82
506.793	14344.31
506.996	14383.23
507.198	14624.89
507.401	14868.59
507.604	15024.24
507.807	15050.86
508.009	15405.16
508.212	15267.95
508.415	15829.09
508.617	15845.48
508.82	15747.17
509.022	15730.79
509.225	16564.31
509.428	16398.43
509.63	16586.84
509.833	16736.34
510.035	17043.54
510.238	16584.79
510.44	17287.25
510.643	17277.01
510.845	17711.18
511.048	17750.09
511.25	17754.18
511.453	17836.1
511.655	18554.94
511.858	18157.63
512.06	18565.18
512.262	18690.1
512.465	18815.03
512.667	19193.9
512.87	19265.58
513.072	19327.02
513.274	19965.99
513.477	19941.41
513.679	20017.19
513.881	20510.75
514.084	20484.12
514.286	20545.56
514.488	20652.06
514.69	21137.43
514.893	21379.09
515.095	21579.79
515.297	21800.97
515.499	21704.71
515.701	22345.73
515.904	22206.47
516.106	22468.61
516.308	22751.23
516.51	23279.6
516.712	23083
516.914	23457.78
517.116	23545.84
517.318	23625.71
517.52	23746.54
517.722	24285.15
517.925	24344.55
518.127	24834.01
518.329	24973.27
518.531	24848.35
518.733	25534.42
518.935	25724.88
519.136	25751.5
519.338	26042.31
519.54	25987.02
519.742	26224.58
519.944	26077.13
520.146	27107.26
520.348	27088.82
520.55	27279.29
520.752	26908.6
520.954	28051.37
521.155	27682.73
521.357	27899.82
521.559	28141.48
521.761	28669.86
521.963	28368.8
522.164	28946.33
522.366	29018.01
522.568	29542.29
522.77	29319.06
522.971	29724.56
523.173	29411.22
523.375	29730.7
523.576	30240.65
523.778	29730.7
523.98	30521.22
524.181	30508.93
524.383	30683.01
524.584	30998.4
524.786	31151.99
524.988	30875.52
525.189	31182.71
525.391	31547.25
525.592	31483.76
525.794	32022.38
525.995	32112.49
526.197	32110.44
526.398	31897.45
526.6	32378.73
526.801	32280.42
527.003	32786.27
527.204	32790.37
527.406	32622.44
527.607	32849.76
527.808	33109.85
528.01	32909.15
528.211	32984.93
528.412	33693.52
528.614	33507.16
528.815	33378.14
529.016	33765.2
529.218	33582.93
529.419	33625.94
529.62	33840.98
529.822	33922.9
530.023	33709.91
530.224	33750.87
530.425	34060.11
530.626	33519.45
530.828	33947.47
531.029	34131.79
531.23	34086.73
531.431	34027.34
531.632	34488.14
531.833	34348.87
532.035	34262.86
532.236	34189.13
532.437	34252.62
532.638	34377.54
532.839	34516.81
533.04	34525
533.241	34023.25
533.442	34950.98
533.643	34451.27
533.844	34539.33
534.045	34811.71
534.246	34185.04
534.447	34756.42
534.648	34641.73
534.849	34520.9
535.05	34322.25
535.251	34694.98
535.451	34527.05
535.652	34877.25
535.853	34752.32
536.054	34596.68
536.255	34619.21
536.456	34352.97
536.657	34934.59
536.857	34383.69
537.058	34287.43
537.259	34633.54
537.46	34557.77
537.66	34434.89
537.861	34531.14
538.062	34455.37
538.263	34611.01
538.463	33916.75
538.664	34137.93
538.865	34420.55
539.065	34848.58
539.266	33994.57
539.466	34725.7
539.667	34027.34
539.868	34492.23
540.068	34066.25
540.269	34420.55
540.469	34764.61
540.67	34322.25
540.87	34676.55
541.071	34209.61
541.271	34598.73
541.472	34342.73
541.672	34088.78
541.873	34256.71
542.073	33812.31
542.274	34533.19
542.474	34158.41
542.675	34264.91
542.875	34692.93
543.075	33900.37
543.276	33671
543.476	34463.56
543.676	34613.06
543.877	34279.24
544.077	33937.23
544.277	34019.15
544.478	33920.85
544.678	34060.11
544.878	34266.95
545.078	34010.96
545.279	34033.49
545.479	34207.56
545.679	34037.58
545.879	33918.8
546.079	34363.21
546.28	33990.48
546.48	34021.2
546.68	34525
546.88	33980.24
547.08	33994.57
547.28	34082.64
547.48	33427.29
547.68	34045.77
547.88	33871.7
548.081	34324.3
548.281	33687.38
548.481	33904.46
548.681	34062.16
548.881	33666.9
549.081	33855.31
549.28	33826.64
549.48	33845.07
549.68	34244.43
549.88	34406.22
550.08	33443.67
550.28	33804.11
550.48	33873.74
550.68	33693.52
550.88	33767.25
551.08	34037.58
551.279	33879.89
551.479	33595.22
551.679	34010.96
551.879	33640.28
552.079	33785.68
552.278	33904.46
552.478	33980.24
552.678	33777.49
552.878	33945.42
553.077	33832.79
553.277	33605.46
553.477	34420.55
553.676	33902.42
553.876	33920.85
554.076	33648.47
554.275	33840.98
554.475	33421.14
554.674	33896.27
554.874	33664.85
555.074	33779.54
555.273	33769.3
555.473	34029.39
555.672	33544.02
555.872	33552.21
556.071	33470.29
556.271	33763.15
556.47	33464.15
556.67	33150.81
556.869	33537.88
557.068	33574.74
557.268	33023.84
557.467	33351.51
557.667	33441.62
557.866	33560.41
558.065	33245.02
558.265	32980.83
558.464	33060.7
558.663	33369.94
558.863	32905.06
559.062	33474.39
559.261	32833.38
559.461	33410.9
559.66	32778.08
559.859	32937.82
560.058	32792.42
560.258	32841.57
560.457	32503.65
560.656	33263.45
560.855	32790.37
561.054	32982.88
561.253	32407.4
561.453	32966.49
561.652	32667.49
561.851	32786.27
562.05	32651.11
562.249	32348.01
562.448	32849.76
562.647	32470.89
562.846	32669.54
563.045	32474.98
563.244	32171.88
563.443	32489.32
563.642	31735.67
563.841	31913.84
564.04	31881.07
564.239	32231.27
564.438	31948.65
564.637	31881.07
564.836	31999.85
565.035	31401.85
565.234	32175.98
565.432	31287.16
565.631	31162.23
565.83	31879.02
566.029	31186.81
566.228	31199.1
566.427	31176.57
566.625	31074.17
566.824	30838.65
567.023	31145.85
567.222	30607.23
567.42	30953.34
567.619	30769.02
567.818	30920.57
568.016	30596.99
568.215	31094.65
568.414	30371.72
568.612	31090.55
568.811	30693.25
569.01	30361.48
569.208	30156.68
569.407	30396.29
569.605	30056.33
569.804	30326.66
570.002	30015.37
570.201	30105.48
570.4	29822.86
570.598	29654.93
570.797	29607.83
570.995	29708.18
571.193	29400.98
571.392	29671.31
571.59	29472.66
571.789	29540.24
571.987	29362.07
572.186	29251.48
572.384	29050.78
572.582	29226.9
572.781	28917.66
572.979	28686.24
573.177	28663.71
573.376	29075.35
573.574	28377
573.772	28741.53
573.971	28364.71
574.169	28311.46
574.367	28065.71
574.565	28305.32
574.763	28151.72
574.962	27817.9
575.16	27842.48
575.358	27772.85
575.556	27330.48
575.754	28135.34
575.952	27580.34
576.151	27711.41
576.349	27230.13
576.547	27674.54
576.745	27602.86
576.943	27271.09
577.141	27072.44
577.339	27240.37
577.537	27424.69
577.735	27178.93
577.933	26613.7
578.131	26941.37
578.329	26535.87
578.527	26771.39
578.725	26580.93
578.923	26499.01
579.121	26492.87
579.319	26642.37
579.516	26701.76
579.714	26261.44
579.912	26267.59
580.11	26001.35
580.308	26376.13
580.506	26150.85
580.704	25554.9
580.901	25800.65
581.099	25892.81
581.297	25458.64
581.495	25499.6
581.692	25511.89
581.89	25335.76
582.088	25552.85
582.285	25362.39
582.483	25599.95
582.681	25319.38
582.878	25096.15
583.076	24905.69
583.274	25075.67
583.471	24819.67
583.669	24881.11
583.866	24737.76
584.064	24717.28
584.262	24578.01
584.459	24594.4
584.657	24342.5
584.854	24668.12
585.052	24440.8
585.249	24530.91
585.447	24684.51
585.644	24268.77
585.841	24070.12
586.039	24375.27
586.236	23646.19
586.434	23767.02
586.631	23494.64
586.828	23838.7
587.026	23482.35
587.223	23724.01
587.42	23801.83
587.618	23730.16
587.815	23474.16
588.012	23341.04
588.21	23205.88
588.407	23400.43
588.604	23203.83
588.801	23019.51
588.999	22941.69
589.196	22937.59
589.393	22853.62
589.59	22933.5
589.787	22632.44
589.984	22315.01
590.182	22335.49
590.379	22636.54
590.576	22421.5
590.773	22532.09
590.97	22331.39
591.167	22456.32
591.364	22269.95
591.561	22106.12
591.758	22073.35
591.955	22106.12
592.152	22063.11
592.349	21594.12
592.546	21809.16
592.743	21739.53
592.94	21532.68
593.137	21858.31
593.334	21778.44
593.531	21231.63
593.727	21352.46
593.924	21454.86
594.121	21272.59
594.318	21346.32
594.515	21028.88
594.712	21188.63
594.908	20977.69
595.105	21391.37
595.302	21088.28
595.499	21063.7
595.696	20910.1
595.892	20930.58
596.089	21082.13
596.286	20607
596.482	20568.09
596.679	20394.01
596.876	20535.32
597.072	20543.52
597.269	20346.91
597.466	20074.53
597.662	19961.89
597.859	20432.93
598.055	20242.46
598.252	20107.3
598.448	19957.8
598.645	20070.44
598.841	19925.03
599.038	19820.58
599.234	19965.99
599.431	19490.86
599.627	19753
599.824	19693.61
600.02	19623.98
600.217	19544.11
600.413	19449.9
600.609	19497
600.806	19480.62
601.002	19501.1
601.198	19111.99
601.395	18853.94
601.591	18946.1
601.787	19361.84
601.984	18839.61
602.18	18772.02
602.376	18694.2
602.572	18573.37
602.769	18823.22
602.965	18559.03
603.161	18790.45
603.357	18530.36
603.553	18800.69
603.75	18561.08
603.946	18331.71
604.142	18401.34
604.338	18088
604.534	18446.4
604.73	18096.19
604.926	18053.19
605.122	17848.39
605.318	18165.82
605.514	17985.6
605.71	17903.68
605.906	17819.72
606.102	17707.08
606.298	17809.48
606.494	17825.86
606.69	17633.35
606.886	17731.65
607.082	17463.37
607.278	17565.77
607.474	17252.43
607.67	17440.84
607.866	17266.77
608.062	17467.47
608.257	17066.06
608.453	17354.83
608.649	17242.19
608.845	17168.46
609.041	17207.37
609.236	17068.11
609.432	17100.88
609.628	17152.08
609.824	17078.35
610.019	16826.45
610.215	16730.2
610.411	17002.58
610.606	16785.49
610.802	16822.36
610.998	16957.52
611.193	16801.88
611.389	16670.81
611.584	16461.91
611.78	16455.77
611.976	16236.64
612.171	16476.25
612.367	16343.13
612.562	16371.8
612.758	16150.62
612.953	16265.31
613.149	16484.44
613.344	16308.32
613.539	16478.3
613.735	16087.14
613.93	16384.09
614.126	15837.28
614.321	16037.98
614.517	15849.57
614.712	15962.21
614.907	15890.53
615.103	16035.94
615.298	15935.59
615.493	16126.05
615.688	15634.53
615.884	16066.66
616.079	15691.88
616.274	16054.37
616.47	15464.55
616.665	15548.52
616.86	15644.77
617.055	15519.85
617.25	15532.14
617.445	15704.17
617.641	15327.34
617.836	15558.76
618.031	15319.15
618.226	15226.99
618.421	15310.96
618.616	15394.92
618.811	15009.9
619.006	15153.26
619.201	14934.13
619.396	15005.81
619.591	14803.06
619.786	14841.97
619.981	14585.97
620.176	14715
620.371	14573.69
620.566	14631.03
620.761	14391.42
620.956	14362.75
621.151	14286.97
621.346	14342.27
621.541	14119.04
621.735	14588.02
621.93	13895.81
622.125	13936.77
622.32	13924.48
622.515	13770.88
622.709	13834.37
622.904	13822.08
623.099	13713.54
623.294	13564.04
623.488	13410.44
623.683	13521.03
623.878	13228.17
624.072	13324.43
624.267	13414.54
624.462	13062.29
624.656	12953.74
624.851	13000.85
625.046	13168.78
625.24	12748.95
625.435	12656.79
625.629	12757.14
625.824	12726.42
626.018	12613.78
626.213	12423.32
626.407	12501.14
626.602	12157.08
626.796	12290.2
626.991	12214.43
627.185	12275.87
627.38	11956.38
627.574	12322.97
627.768	11892.9
627.963	11845.79
628.157	11884.7
628.352	11829.41
628.546	11745.44
628.74	11817.12
628.935	11708.58
629.129	11452.58
629.323	11718.82
629.517	11311.27
629.712	11298.98
629.906	11186.35
630.1	11157.68
630.294	11176.11
630.489	11040.94
630.683	11159.72
630.877	10834.1
631.071	10817.71
631.265	10913.97
631.459	10731.7
631.653	10815.66
631.848	10741.94
632.042	10717.36
632.236	10723.51
632.43	10578.1
632.624	10404.02
632.818	10148.03
633.012	10305.72
633.206	10248.38
633.4	10246.33
633.594	10166.46
633.788	10178.75
633.982	10064.06
634.176	10037.44
634.369	10082.49
634.563	9953.47
634.757	10014.91
634.951	9879.74
635.145	9732.29
635.339	9789.63
635.533	9597.12
635.726	9742.53
635.92	9449.67
636.114	9541.83
636.308	9562.31
636.501	9304.26
636.695	9484.48
636.889	9304.26
637.083	9171.15
637.276	9152.71
637.47	9033.93
637.664	9109.71
637.857	9265.35
638.051	8962.25
638.244	8700.11
638.438	9003.21
638.632	8810.7
638.825	8759.5
639.019	8753.36
639.212	8566.99
639.406	8681.68
639.599	8495.32
639.793	8503.51
639.986	8450.26
640.18	8372.44
640.373	8376.53
640.567	8311
640.76	8198.36
640.954	8272.09
641.147	7981.28
641.34	7973.08
641.534	7956.7
641.727	8128.73
641.92	8061.15
642.114	7952.6
642.307	7938.27
642.5	7932.12
642.694	7733.47
642.887	7745.76
643.08	7667.94
643.273	7686.37
643.467	7588.07
643.66	7495.91
643.853	7383.27
644.046	7352.55
644.239	7655.65
644.432	7297.25
644.626	7336.17
644.819	7244.01
645.012	7219.43
645.205	7135.46
645.398	7246.05
645.591	7137.51
645.784	7010.54
645.977	7061.74
646.17	6891.76
646.363	6959.34
646.556	6873.32
646.749	6916.33
646.942	6732.01
647.135	6805.74
647.328	6746.35
647.521	6697.2
647.714	6639.86
647.907	6744.3
648.099	6588.66
648.292	6781.17
648.485	6496.5
648.678	6406.39
648.871	6459.63
649.064	6404.34
649.256	6443.25
649.449	6506.74
649.642	6314.23
649.835	6168.82
650.027	6217.97
650.22	6207.73
650.413	6174.97
650.605	6064.38
650.798	6351.09
650.991	5808.38
651.183	6166.78
651.376	6056.18
651.568	6084.86
651.761	6009.08
651.954	6029.56
652.146	6039.8
652.339	5875.96
652.531	5787.9
652.724	5701.89
652.916	5599.49
653.109	5687.55
653.301	5667.07
653.494	5562.62
653.686	5609.73
653.879	5736.7
654.071	5449.99
654.263	5595.39
654.456	5579.01
654.648	5466.37
654.84	5275.91
655.033	5417.22
655.225	5318.92
655.417	5273.86
655.61	5374.21
655.802	5558.53
655.994	5288.2
656.186	5320.96
656.379	5187.85
656.571	5171.46
656.763	5116.17
656.955	5116.17
657.148	5103.88
657.34	5181.7
657.532	4981
657.724	4929.8
657.916	4993.29
658.108	4964.62
658.3	5040.39
658.492	5054.73
658.684	4864.27
658.876	4995.34
659.068	4843.79
659.26	4823.31
659.452	4837.64
659.644	4925.71
659.836	4784.4
660.028	4634.89
660.22	4645.13
660.412	4757.77
660.604	4616.46
660.796	4604.18
660.988	4661.52
661.18	4555.02
661.372	4589.84
661.563	4575.5
661.755	4585.74
661.947	4339.99
662.139	4446.48
662.331	4432.15
662.522	4243.73
662.714	4505.87
662.906	4296.98
663.097	4407.57
663.289	4184.34
663.481	4157.72
663.673	4364.56
663.864	4131.09
664.056	4333.84
664.247	4192.53
664.439	4133.14
664.631	4368.66
664.822	4151.57
665.014	4022.55
665.205	4133.14
665.397	4186.39
665.588	4018.46
665.78	3963.16
665.971	4055.32
666.163	3961.11
666.354	3985.69
666.546	4081.94
666.737	3889.43
666.929	3930.39
667.12	3907.87
667.311	3817.76
667.503	3762.46
667.694	3813.66
667.885	3858.71
668.077	3819.8
668.268	3725.6
668.459	3776.8
668.651	3866.91
668.842	3772.7
669.033	3750.17
669.224	3610.91
669.416	3840.28
669.607	3682.59
669.798	3660.06
669.989	3797.28
670.18	3698.97
670.371	3561.76
670.563	3721.5
670.754	3674.4
670.945	3680.54
671.136	3645.73
671.327	3432.74
671.518	3565.85
671.709	3619.1
671.9	3473.7
672.091	3561.76
672.282	3619.1
672.473	3572
672.664	3516.7
672.855	3504.42
673.046	3602.72
673.237	3617.05
673.428	3539.23
673.619	3524.9
673.809	3430.69
674	3342.63
674.191	3442.98
674.382	3344.67
674.573	3506.46
674.764	3326.24
674.954	3455.26
675.145	3535.14
675.336	3418.4
675.527	3449.12
675.717	3273
675.908	3275.04
676.099	3336.48
676.289	3348.77
676.48	3311.91
676.671	3377.44
676.861	3324.19
677.052	3352.87
677.243	3330.34
677.433	3373.35
677.624	3107.11
677.814	3123.49
678.005	3287.33
678.195	3256.61
678.386	3346.72
678.576	3236.13
678.767	3229.99
678.957	3266.85
679.148	3328.29
679.338	3234.08
679.529	3143.97
679.719	3229.99
679.909	3322.15
680.1	3166.5
680.29	3207.46
680.481	3211.56
680.671	3279.14
680.861	3244.32
681.052	3238.18
681.242	3105.06
681.432	3344.67
681.622	3240.23
681.813	3197.22
682.003	3283.24
682.193	3201.32
682.383	3223.84
682.573	3184.93
682.764	3170.6
682.954	3277.09
683.144	3178.79
683.334	3080.49
683.524	3086.63
683.714	3164.45
683.904	3275.04
684.094	3336.48
684.284	3326.24
684.474	3115.3
684.664	3162.41
684.854	3107.11
685.044	3189.03
685.234	3008.81
685.424	3121.45
685.614	3172.64
685.804	3029.29
685.994	3100.97
686.184	3060.01
686.374	3127.59
686.564	3078.44
686.753	3004.71
686.943	3010.86
687.133	2988.33
687.323	3168.55
687.513	2961.7
687.702	2996.52
687.892	3051.81
688.082	3021.1
688.272	3051.81
688.461	2906.41
688.651	3043.62
688.841	2998.57
689.03	2928.94
689.22	2824.49
689.41	2973.99
689.599	3066.15
689.789	3019.05
689.979	2996.52
690.168	2930.98
690.358	2896.17
690.547	2963.75
690.737	2804.01
690.926	3021.1
691.116	2748.72
691.305	2890.03
691.495	2920.74
691.684	2822.44
691.874	2799.91
692.063	2804.01
692.252	2767.15
692.442	2726.19
692.631	2785.58
692.82	2812.2
693.01	2750.76
693.199	2773.29
693.388	2928.94
693.578	2732.33
693.767	2799.91
693.956	2836.78
694.146	2695.47
694.335	2781.48
694.524	2722.09
694.713	2804.01
694.902	2795.82
695.092	2865.45
695.281	2720.04
695.47	2885.93
695.659	2797.87
695.848	2750.76
696.037	2736.43
696.226	2650.41
696.415	2670.89
696.604	2634.03
696.793	2664.75
696.982	2722.09
697.171	2683.18
697.36	2824.49
697.549	2664.75
697.738	2781.48
697.927	2689.32
698.116	2771.24
698.305	2779.43
698.494	2605.36
698.683	2607.41
698.872	2662.7
699.061	2605.36
699.25	2607.41
699.438	2634.03
699.627	2677.04
699.816	2611.5
700.005	2623.79
700.193	2752.81
700.382	2715.95
700.571	2679.08
700.76	2634.03
700.948	2754.86
701.137	2652.46
701.326	2576.69
701.514	2593.07
701.703	2715.95
701.892	2609.45
702.08	2619.69
702.269	2693.42
702.457	2621.74
702.646	2738.48
702.834	2648.36
703.023	2588.97
703.212	2681.13
703.4	2554.16
703.589	2595.12
703.777	2683.18
703.965	2586.93
704.154	2601.26
704.342	2703.66
704.531	2705.71
704.719	2548.01
704.907	2545.97
705.096	2599.21
705.284	2486.58
705.472	2636.08
705.661	2644.27
705.849	2588.97
706.037	2613.55
706.226	2498.86
706.414	2406.7
706.602	2447.66
706.79	2588.97
706.979	2449.71
707.167	2482.48
707.355	2478.38
707.543	2421.04
707.731	2634.03
707.919	2474.29
708.107	2431.28
708.296	2324.79
708.484	2453.81
708.672	2550.06
708.86	2564.4
709.048	2527.53
709.236	2447.66
709.424	2441.52
709.612	2490.67
709.8	2402.61
709.988	2560.3
710.176	2494.77
710.364	2511.15
710.551	2365.75
710.739	2515.25
710.927	2488.62
711.115	2371.89
711.303	2375.99
711.491	2418.99
711.679	2357.55
711.866	2455.86
712.054	2308.4
712.242	2386.22
712.43	2367.79
712.617	2292.02
712.805	2345.27
712.993	2402.61
713.181	2275.63
713.368	2330.93
713.556	2388.27
713.744	2332.98
713.931	2390.32
714.119	2279.73
714.306	2324.79
714.494	2312.5
714.682	2283.83
714.869	2228.53
715.057	2324.79
715.244	2351.41
715.432	2281.78
715.619	2244.92
715.807	2416.94
715.994	2304.31
716.182	2249.01
716.369	2208.05
716.556	2259.25
716.744	2259.25
716.931	2224.44
717.119	2341.17
717.306	2271.54
717.493	2150.71
717.681	2171.19
717.868	2322.74
718.055	2249.01
718.242	2068.79
718.43	2140.47
718.617	2261.3
718.804	2169.14
718.991	2234.68
719.179	2173.24
719.366	2244.92
719.553	2281.78
719.74	2156.85
719.927	2199.86
720.114	2261.3
720.301	2156.85
720.488	2193.72
720.676	2146.61
720.863	2212.15
721.05	2167.09
721.237	2154.8
721.424	2187.57
721.611	2109.75
721.798	2081.08
721.985	2128.18
722.172	2087.22
722.358	1968.44
722.545	2068.79
722.732	2062.65
722.919	2130.23
723.106	2060.6
723.293	2085.17
723.48	2167.09
723.667	2064.69
723.853	2007.35
724.04	2119.99
724.227	2038.07
724.414	1917.24
724.6	2130.23
724.787	2019.64
724.974	2036.02
725.161	1859.9
725.347	2001.21
725.534	2056.5
725.72	2027.83
725.907	2087.22
726.094	2070.84
726.28	1931.58
726.467	2054.45
726.653	2040.12
726.84	1964.34
727.027	2044.21
727.213	1980.73
727.4	1962.3
727.586	2027.83
727.773	2040.12
727.959	1980.73
728.145	1921.34
728.332	1923.38
728.518	1925.43
728.705	1964.34
728.891	2005.3
729.077	1902.9
729.264	1816.89
729.45	1896.76
729.636	1904.95
729.823	2031.93
730.009	1892.66
730.195	1913.14
730.382	1923.38
730.568	1835.32
730.754	1773.88
730.94	1872.18
731.126	1833.27
731.313	1941.82
731.499	1749.31
731.685	1827.13
731.871	1896.76
732.057	1890.62
732.243	1894.71
732.429	1882.42
732.615	1861.94
732.801	1835.32
732.987	1820.99
733.173	1818.94
733.359	1829.18
733.545	1808.7
733.731	1802.55
733.917	1794.36
734.103	1855.8
734.289	1804.6
734.475	1759.55
734.661	1896.76
734.847	1673.53
735.033	1728.83
735.219	1745.21
735.404	1691.96
735.59	1859.9
735.776	1718.59
735.962	1771.83
736.148	1782.07
736.333	1761.59
736.519	1866.04
736.705	1837.37
736.89	1892.66
737.076	1687.87
737.262	1763.64
737.447	1749.31
737.633	1720.64
737.819	1685.82
738.004	1689.92
738.19	1798.46
738.375	1716.54
738.561	1761.59
738.747	1667.39
738.932	1671.48
739.118	1667.39
739.303	1673.53
739.489	1702.2
739.674	1659.2
739.859	1669.44
740.045	1751.35
740.23	1651
740.416	1538.37
740.601	1698.11
740.786	1612.09
740.972	1569.09
741.157	1651
741.342	1489.21
741.528	1644.86
741.713	1632.57
741.898	1538.37
742.084	1524.03
742.269	1513.79
742.454	1605.95
742.639	1597.76
742.824	1567.04
743.01	1634.62
743.195	1466.69
743.38	1528.13
743.565	1517.89
743.75	1608
743.935	1472.83
744.12	1618.24
744.305	1544.51
744.49	1481.02
744.675	1564.99
744.86	1421.63
745.045	1487.17
745.23	1511.74
745.415	1505.6
745.6	1503.55
745.785	1442.11
745.97	1415.49
746.155	1483.07
746.34	1423.68
746.525	1347.9
746.71	1458.5
746.895	1341.76
747.079	1333.57
747.264	1341.76
747.449	1352
747.634	1407.3
747.819	1352
748.003	1306.95
748.188	1239.36
748.373	1405.25
748.557	1300.8
748.742	1282.37
748.927	1245.51
749.111	1274.18
749.296	1225.03
749.481	1233.22
749.665	1313.09
749.85	1141.06
750.034	1292.61
750.219	1200.45
750.404	1173.83
750.588	1212.74
750.773	1204.55
750.957	1276.23
751.141	1253.7
751.326	1173.83
751.51	1192.26
751.695	1186.12
751.879	1159.49
752.064	1233.22
752.248	1106.24
752.432	1169.73
752.617	1114.44
752.801	1130.82
752.985	1073.48
753.17	1237.31
753.354	1110.34
753.538	1100.1
753.722	1081.67
753.907	1167.68
754.091	1028.42
754.275	1089.86
754.459	1012.04
754.643	1061.19
754.828	977.22
755.012	1050.95
755.196	987.46
755.38	1012.04
755.564	1057.09
755.748	1040.71
755.932	1001.8
756.116	1028.42
756.3	944.45
756.484	1001.8
756.668	1038.66
756.852	991.56
757.036	905.54
757.22	936.26
757.404	919.88
757.588	1024.33
757.772	934.22
757.956	862.54
758.14	821.58
758.323	962.89
758.507	817.48
758.691	923.98
758.875	817.48
759.059	909.64
759.242	895.3
759.426	874.82
759.61	833.86
759.794	842.06
759.977	907.59
760.161	911.69
760.345	846.15
760.528	846.15
760.712	809.29
760.895	794.95
761.079	706.89
761.263	840.01
761.446	919.88
761.63	792.91
761.813	772.43
761.997	770.38
762.18	813.38
762.364	762.19
762.547	815.43
762.731	715.08
762.914	799.05
763.098	856.39
763.281	768.33
763.464	770.38
763.648	727.37
763.831	778.57
764.015	749.9
764.198	715.08
764.381	805.19
764.564	768.33
764.748	661.84
764.931	776.52
765.114	745.8
765.297	719.18
765.481	784.71
765.664	698.7
765.847	751.95
766.03	641.36
766.213	688.46
766.397	649.55
766.58	661.84
766.763	737.61
766.946	688.46
767.129	655.69
767.312	653.64
767.495	629.07
767.678	708.94
767.861	680.27
768.044	680.27
768.227	647.5
768.41	696.65
768.593	704.84
768.776	704.84
768.959	694.6
769.142	667.98
769.324	649.55
769.507	688.46
769.69	610.64
769.873	612.68
770.056	627.02
770.239	577.87
770.421	659.79
770.604	559.44
770.787	561.48
770.97	649.55
771.152	618.83
771.335	557.39
771.518	655.69
771.7	598.35
771.883	682.31
772.066	596.3
772.248	475.47
772.431	575.82
772.613	526.67
772.796	536.91
772.978	586.06
773.161	575.82
773.343	606.54
773.526	504.14
773.708	565.58
773.891	506.19
774.073	620.88
774.256	530.77
774.438	592.2
774.621	598.35
774.803	536.91
774.985	498
775.168	524.62
775.35	467.28
775.532	520.53
775.715	469.33
775.897	563.53
776.079	498
776.261	555.34
776.444	553.29
776.626	506.19
776.808	489.81
776.99	506.19
777.173	418.13
777.355	575.82
777.537	536.91
777.719	459.09
777.901	483.66
778.083	371.02
778.265	467.28
778.447	481.61
778.629	442.7
778.811	498
778.993	469.33
779.175	377.17
779.357	491.85
779.539	389.46
779.721	403.79
779.903	487.76
780.085	428.37
780.267	495.95
780.449	424.27
780.631	385.36
780.812	452.94
780.994	479.57
781.176	334.16
781.358	350.54
781.54	344.4
781.721	450.89
781.903	354.64
782.085	393.55
782.267	362.83
782.448	422.22
782.63	342.35
782.812	461.13
782.993	371.02
783.175	426.32
783.357	422.22
783.538	420.17
783.72	319.82
783.901	371.02
784.083	358.74
784.264	270.67
784.446	264.53
784.627	323.92
784.809	338.26
784.99	264.53
785.172	266.58
785.353	360.78
785.535	293.2
785.716	405.84
785.897	282.96
786.079	399.7
786.26	239.95
786.441	328.02
786.623	276.82
786.804	325.97
786.985	311.63
787.167	321.87
787.348	315.73
787.529	315.73
787.71	309.58
787.891	362.83
788.073	272.72
788.254	328.02
788.435	287.06
788.616	297.3
788.797	246.1
788.978	319.82
789.159	207.19
789.34	244.05
789.522	260.43
789.703	295.25
789.884	231.76
790.065	246.1
790.246	348.5
790.427	305.49
790.607	313.68
790.788	266.58
790.969	213.33
791.15	198.99
791.331	178.51
791.512	254.29
791.693	162.13
791.874	252.24
792.054	172.37
792.235	242
792.416	194.9
792.597	201.04
792.778	198.99
792.958	233.81
793.139	207.19
793.32	178.51
793.5	225.62
793.681	278.87
793.862	227.67
794.042	260.43
794.223	139.6
794.404	252.24
794.584	203.09
794.765	278.87
794.945	252.24
795.126	201.04
795.306	174.42
795.487	260.43
795.667	180.56
795.848	227.67
796.028	254.29
796.209	188.75
796.389	276.82
796.57	137.56
796.75	276.82
796.93	254.29
797.111	155.99
797.291	252.24
797.471	205.14
797.652	221.52
797.832	176.47
798.012	201.04
798.192	164.18
798.373	229.71
798.553	63.83
798.733	203.09
798.913	194.9
799.093	184.66
799.274	176.47
799.454	211.28
799.634	151.89
799.814	233.81
799.994	112.98
800.174	250.19
800.354	215.38
800.534	143.7
800.714	172.37
800.894	147.8
801.074	123.22
801.254	225.62
801.434	192.85
801.614	170.32
801.794	137.56
801.974	520.53
802.154	201.04
802.334	198.99
802.514	190.8
802.693	115.03
802.873	164.18
803.053	194.9
803.233	190.8
803.413	268.63
803.592	108.88
803.772	94.55
803.952	151.89
804.131	115.03
804.311	162.13
804.491	172.37
804.67	123.22
804.85	158.03
805.03	213.33
805.209	198.99
805.389	158.03
805.568	178.51
805.748	186.71
805.928	158.03
806.107	127.32
806.287	123.22
806.466	143.7
806.646	94.55
806.825	213.33
807.004	49.49
807.184	178.51
807.363	149.84
807.543	119.12
807.722	143.7
807.901	164.18
808.081	137.56
808.26	47.44
808.439	110.93
808.619	176.47
808.798	112.98
808.977	88.4
809.156	145.75
809.336	162.13
809.515	184.66
809.694	129.36
809.873	67.92
810.052	155.99
810.231	190.8
810.411	123.22
810.59	94.55
810.769	139.6
810.948	149.84
811.127	76.12
811.306	92.5
811.485	57.68
811.664	162.13
811.843	125.27
812.022	115.03
812.201	151.89
812.38	123.22
812.559	153.94
812.737	141.65
812.916	84.31
813.095	22.87
813.274	121.17
813.453	129.36
813.632	82.26
813.811	108.88
813.989	65.88
814.168	176.47
814.347	78.16
814.526	57.68
814.704	160.08
814.883	164.18
815.062	84.31
815.24	110.93
815.419	57.68
815.598	117.08
815.776	106.84
815.955	98.64
816.133	133.46
816.312	123.22
816.49	131.41
816.669	102.74
816.847	151.89
817.026	110.93
817.204	37.2
817.383	29.01
817.561	78.16
817.74	98.64
817.918	129.36
818.097	106.84
818.275	76.12
818.453	166.23
818.632	31.06
818.81	98.64
818.988	67.92
819.167	133.46
819.345	82.26
819.523	141.65
819.701	94.55
819.879	104.79
820.058	84.31
820.236	69.97
820.414	78.16
820.592	78.16
820.77	94.55
820.948	74.07
821.127	10.58
821.305	141.65
821.483	98.64
821.661	65.88
821.839	0.34
822.017	129.36
822.195	47.44
822.373	108.88
822.551	92.5
822.729	112.98
822.907	49.49
823.085	143.7
823.262	78.16
823.44	84.31
823.618	90.45
823.796	90.45
823.974	127.32
824.152	55.64
824.329	49.49
824.507	47.44
824.685	53.59
824.863	86.36
825.04	170.32
825.218	69.97
825.396	55.64
825.574	78.16
825.751	22.87
825.929	55.64
826.107	78.16
826.284	72.02
826.462	104.79
826.639	49.49
826.817	31.06
826.994	63.83
827.172	59.73
827.349	145.75
827.527	88.4
827.704	82.26
827.882	78.16
828.059	80.21
828.237	14.68
828.414	72.02
828.591	14.68
828.769	121.17
828.946	57.68
829.124	104.79
829.301	12.63
829.478	98.64
829.655	31.06
829.833	33.11
830.01	51.54
830.187	96.6
830.364	115.03
830.542	90.45
830.719	98.64
830.896	57.68
831.073	10.58
831.25	76.12
831.427	137.56
831.604	8.53
831.782	4.44
831.959	117.08
832.136	8.53
832.313	31.06
832.49	53.59
832.667	59.73
832.844	41.3
833.021	90.45
833.198	45.4
833.374	33.11
833.551	39.25
833.728	18.77
833.905	67.92
834.082	16.73
834.259	-20.14
834.436	67.92
834.612	37.2
834.789	147.8
834.966	74.07
835.143	121.17
835.319	26.96
835.496	55.64
835.673	74.07
835.85	104.79
836.026	63.83
836.203	119.12
836.38	82.26
836.556	98.64
836.733	47.44
836.909	55.64
837.086	8.53
837.262	72.02
837.439	41.3
837.616	-54.95
837.792	-1.71
837.968	31.06
838.145	31.06
838.321	74.07
838.498	74.07
838.674	39.25
838.851	8.53
839.027	20.82
839.203	22.87
839.38	22.87
839.556	84.31
839.732	123.22
839.909	43.35
840.085	94.55
840.261	98.64
840.437	-7.85
840.614	12.63
840.79	24.92
840.966	8.53
841.142	65.88
841.318	22.87
841.494	18.77
841.671	94.55
841.847	2.39
842.023	16.73
842.199	104.79
842.375	72.02
842.551	100.69
842.727	-1.71
842.903	92.5
843.079	20.82
843.255	24.92
843.431	51.54
843.607	76.12
843.783	80.21
843.959	0.34
844.134	14.68
844.31	76.12
844.486	26.96
844.662	12.63
844.838	14.68
845.013	82.26
845.189	76.12
845.365	2.39
845.541	-13.99
845.716	51.54
845.892	86.36
846.068	6.49
846.244	-9.9
846.419	16.73
846.595	22.87
846.77	84.31
846.946	24.92
847.122	39.25
847.297	-11.95
847.473	10.58
847.648	2.39
847.824	69.97
847.999	-16.04
848.175	72.02
848.35	-34.47
848.526	22.87
848.701	104.79
848.876	16.73
849.052	6.49
849.227	37.2
849.403	24.92
849.578	72.02
849.753	51.54
849.929	61.78
850.104	-16.04
850.279	110.93
850.454	90.45
850.63	67.92
850.805	96.6
850.98	10.58
851.155	41.3
851.33	6.49
851.505	12.63
851.681	88.4
851.856	86.36
852.031	86.36
852.206	2.39
852.381	29.01
852.556	39.25
852.731	69.97
852.906	10.58
853.081	-7.85
853.256	55.64
853.431	53.59
853.606	-61.1
853.781	49.49
853.956	24.92
854.131	72.02
854.305	61.78
854.48	51.54
854.655	-3.75
854.83	-16.04
855.005	6.49
855.18	33.11
855.354	-22.19
855.529	-18.09
855.704	6.49
855.879	12.63
856.053	-26.28
856.228	53.59
856.403	-44.71
856.577	18.77
856.752	76.12
856.926	39.25
857.101	29.01
857.276	0.34
857.45	-36.52
857.625	-30.38
857.799	26.96
857.974	8.53
858.148	-54.95
858.323	35.16
858.497	-42.67
858.672	-20.14
858.846	6.49
859.02	0.34
859.195	4.44
859.369	14.68
859.543	29.01
859.718	31.06
859.892	39.25
860.066	33.11
860.241	39.25
860.415	4.44
860.589	22.87
860.763	14.68
860.938	4.44
861.112	-7.85
861.286	37.2
861.46	35.16
861.634	33.11
861.808	69.97
861.982	-40.62
862.157	-30.38
862.331	41.3
862.505	39.25
862.679	2.39
862.853	-24.23
863.027	-20.14
863.201	88.4
863.375	-48.81
863.549	31.06
863.722	57.68
863.896	31.06
864.07	33.11
864.244	24.92
864.418	59.73
864.592	-28.33
864.766	2.39
864.939	24.92
865.113	-3.75
865.287	53.59
865.461	-16.04
865.634	-52.91
865.808	2.39
865.982	-5.8
866.156	33.11
866.329	-9.9
866.503	49.49
866.676	-26.28
866.85	65.88
867.024	-11.95
867.197	14.68
867.371	57.68
867.544	74.07
867.718	6.49
867.891	45.4
868.065	-18.09
868.238	-59.05
868.412	20.82
868.585	-1.71
868.759	-20.14
868.932	39.25
869.105	-42.67
869.279	-30.38
869.452	80.21
869.625	41.3
869.799	4.44
869.972	26.96
870.145	-13.99
870.319	29.01
870.492	-20.14
870.665	-24.23
870.838	-36.52
871.011	31.06
871.185	4.44
871.358	-3.75
871.531	31.06
871.704	14.68
871.877	-13.99
872.05	-48.81
872.223	41.3
872.396	18.77
872.569	12.63
872.742	-11.95
872.915	-9.9
873.088	-57
873.261	6.49
873.434	-48.81
873.607	-85.67
873.78	59.73
873.953	8.53
874.126	-13.99
874.299	29.01
874.471	0.34
874.644	31.06
874.817	14.68
874.99	-20.14
875.163	-32.43
875.335	94.55
875.508	51.54
875.681	63.83
875.853	6.49
876.026	-3.75
876.199	-1.71
876.371	4.44
876.544	-22.19
876.717	29.01
876.889	-11.95
877.062	24.92
877.234	26.96
877.407	47.44
877.579	49.49
877.752	29.01
877.924	37.2
878.097	-13.99
878.269	22.87
878.442	33.11
878.614	22.87
878.786	-26.28
878.959	88.4
879.131	2.39
879.303	-13.99
879.476	39.25
879.648	80.21
879.82	4.44
879.993	-32.43
880.165	-32.43
880.337	-71.34
880.509	65.88
880.681	-20.14
880.854	6.49
881.026	16.73
881.198	33.11
881.37	76.12
881.542	-59.05
881.714	12.63
881.886	-52.91
882.058	49.49
882.23	10.58
882.402	18.77
882.574	-11.95
882.746	-1.71
882.918	26.96
883.09	-1.71
883.262	14.68
883.434	-28.33
883.606	-46.76
883.778	88.4
883.95	117.08
884.122	-3.75
884.293	88.4
884.465	26.96
884.637	106.84
884.809	-22.19
884.98	-61.1
885.152	47.44
885.324	16.73
885.496	8.53
885.667	61.78
885.839	63.83
886.011	88.4
886.182	26.96
886.354	16.73
886.525	4.44
886.697	45.4
886.869	45.4
887.04	39.25
887.212	18.77
887.383	37.2
887.555	-24.23
887.726	10.58
887.897	-22.19
888.069	39.25
888.24	65.88
888.412	-24.23
888.583	-44.71
888.754	29.01
888.926	-13.99
889.097	6.49
889.268	-1.71
889.44	-9.9
889.611	-20.14
889.782	31.06
889.953	-50.86
890.125	92.5
890.296	-57
890.467	33.11
890.638	-7.85
890.809	24.92
890.98	-67.24
891.151	29.01
891.323	31.06
891.494	12.63
891.665	0.34
891.836	-5.8
892.007	-11.95
892.178	4.44
892.349	-22.19
892.52	6.49
892.691	-50.86
892.862	6.49
893.032	-22.19
893.203	41.3
893.374	4.44
893.545	43.35
893.716	-34.47
893.887	12.63
894.057	45.4
894.228	-22.19
894.399	-40.62
894.57	47.44
894.74	-3.75
894.911	-3.75
895.082	-32.43
895.253	-69.29
895.423	26.96
895.594	-30.38
895.764	-34.47
895.935	-18.09
896.106	-16.04
896.276	-65.19
896.447	59.73
896.617	-73.39
896.788	-3.75
896.958	4.44
897.129	35.16
897.299	-3.75
897.47	-18.09
897.64	-24.23
897.81	-20.14
897.981	20.82
898.151	-11.95
898.322	31.06
898.492	49.49
898.662	-24.23
898.832	-38.57
899.003	57.68
899.173	61.78
899.343	-32.43
899.513	43.35
