Data from USB4F104151__86__12-36-58-192.txt Node

Date: Fri Mar 14 12:36:58 EDT 2025
User: louis
Spectrometer: USB4F10415
Trigger mode: 4
Integration Time (sec): 2.000000E-2
Scans to average: 1
Electric dark correction enabled: true
Nonlinearity correction enabled: false
Boxcar width: 0
XAxis mode: Wavelengths
Number of Pixels in Spectrum: 3648
>>>>>Begin Spectral Data<<<<<
178.204	-122.02
178.424	-122.02
178.644	-122.02
178.864	-76.97
179.084	-52.39
179.304	-68.78
179.524	-54.44
179.744	-58.54
179.964	13.14
180.184	29.52
180.404	-17.58
180.624	-21.67
180.844	-62.63
181.064	9.05
181.283	86.87
181.503	13.14
181.723	131.92
181.943	-19.63
182.163	2.9
182.383	-48.3
182.602	47.96
182.822	-31.91
183.042	25.43
183.262	0.85
183.482	45.91
183.701	72.53
183.921	33.62
184.141	-3.24
184.361	62.29
184.58	27.48
184.8	37.72
185.02	-19.63
185.239	86.87
185.459	9.05
185.679	52.05
185.898	4.95
186.118	-83.11
186.338	31.57
186.557	-15.53
186.777	33.62
186.997	2.9
187.216	-11.43
187.436	31.57
187.655	2.9
187.875	0.85
188.095	54.1
188.314	4.95
188.534	88.92
188.753	43.86
188.973	-5.29
189.192	39.76
189.412	88.92
189.631	0.85
189.851	17.24
190.07	19.29
190.29	64.34
190.509	-31.91
190.729	-21.67
190.948	45.91
191.168	31.57
191.387	19.29
191.607	119.64
191.826	43.86
192.045	88.92
192.265	19.29
192.484	93.01
192.704	25.43
192.923	13.14
193.142	86.87
193.362	11.09
193.581	2.9
193.8	109.4
194.02	-31.91
194.239	19.29
194.458	111.44
194.678	-46.25
194.897	9.05
195.116	21.33
195.335	60.24
195.555	43.86
195.774	68.44
195.993	37.72
196.212	-68.78
196.432	29.52
196.651	60.24
196.87	-9.39
197.089	21.33
197.308	41.81
197.528	111.44
197.747	-38.06
197.966	111.44
198.185	33.62
198.404	-29.87
198.623	15.19
198.842	60.24
199.062	35.67
199.281	43.86
199.5	-5.29
199.719	-5.29
199.938	45.91
200.157	68.44
200.376	21.33
200.595	50
200.814	31.57
201.033	19.29
201.252	35.67
201.471	27.48
201.69	54.1
201.909	37.72
202.128	-3.24
202.347	15.19
202.566	60.24
202.785	25.43
203.004	-11.43
203.223	101.2
203.442	29.52
203.661	21.33
203.879	72.53
204.098	127.83
204.317	17.24
204.536	56.15
204.755	-3.24
204.974	27.48
205.193	0.85
205.411	80.72
205.63	62.29
205.849	9.05
206.068	-23.72
206.287	84.82
206.505	78.68
206.724	37.72
206.943	43.86
207.162	56.15
207.381	27.48
207.599	72.53
207.818	74.58
208.037	-27.82
208.255	35.67
208.474	-1.19
208.693	17.24
208.911	-17.58
209.13	-3.24
209.349	-3.24
209.567	-5.29
209.786	52.05
210.005	35.67
210.223	-19.63
210.442	-1.19
210.661	21.33
210.879	60.24
211.098	9.05
211.316	50
211.535	62.29
211.753	0.85
211.972	82.77
212.191	-19.63
212.409	21.33
212.628	7
212.846	41.81
213.065	37.72
213.283	29.52
213.502	68.44
213.72	35.67
213.938	60.24
214.157	-27.82
214.375	82.77
214.594	29.52
214.812	35.67
215.031	-7.34
215.249	109.4
215.467	93.01
215.686	9.05
215.904	35.67
216.122	21.33
216.341	105.3
216.559	39.76
216.778	43.86
216.996	-21.67
217.214	4.95
217.432	66.39
217.651	17.24
217.869	13.14
218.087	0.85
218.306	31.57
218.524	54.1
218.742	-21.67
218.96	2.9
219.179	127.83
219.397	50
219.615	41.81
219.833	-11.43
220.051	35.67
220.27	19.29
220.488	-23.72
220.706	31.57
220.924	21.33
221.142	43.86
221.36	-29.87
221.578	-11.43
221.796	56.15
222.015	-21.67
222.233	74.58
222.451	64.34
222.669	58.2
222.887	82.77
223.105	-68.78
223.323	-1.19
223.541	-15.53
223.759	76.63
223.977	19.29
224.195	133.97
224.413	33.62
224.631	4.95
224.849	72.53
225.067	58.2
225.285	17.24
225.503	52.05
225.721	-9.39
225.939	15.19
226.157	0.85
226.375	62.29
226.592	23.38
226.81	39.76
227.028	23.38
227.246	47.96
227.464	31.57
227.682	66.39
227.9	95.06
228.117	-27.82
228.335	37.72
228.553	15.19
228.771	56.15
228.989	2.9
229.206	50
229.424	74.58
229.642	23.38
229.86	88.92
230.077	-5.29
230.295	27.48
230.513	39.76
230.731	17.24
230.948	119.64
231.166	23.38
231.384	-27.82
231.601	113.49
231.819	-33.96
232.037	21.33
232.254	-56.49
232.472	29.52
232.689	56.15
232.907	52.05
233.125	-60.59
233.342	54.1
233.56	2.9
233.777	31.57
233.995	70.48
234.213	33.62
234.43	62.29
234.648	23.38
234.865	68.44
235.083	52.05
235.3	-38.06
235.518	146.26
235.735	50
235.953	-13.48
236.17	-1.19
236.388	47.96
236.605	15.19
236.822	43.86
237.04	-25.77
237.257	62.29
237.475	-1.19
237.692	99.16
237.909	31.57
238.127	64.34
238.344	2.9
238.562	15.19
238.779	-33.96
238.996	-19.63
239.214	-25.77
239.431	-7.34
239.648	7
239.865	39.76
240.083	70.48
240.3	4.95
240.517	13.14
240.735	29.52
240.952	50
241.169	33.62
241.386	-38.06
241.603	64.34
241.821	33.62
242.038	19.29
242.255	99.16
242.472	19.29
242.689	-42.15
242.907	90.96
243.124	-7.34
243.341	-27.82
243.558	19.29
243.775	13.14
243.992	-3.24
244.209	76.63
244.426	70.48
244.643	82.77
244.86	35.67
245.078	-17.58
245.295	78.68
245.512	-15.53
245.729	11.09
245.946	7
246.163	66.39
246.38	35.67
246.597	29.52
246.814	37.72
247.031	-7.34
247.248	0.85
247.464	39.76
247.681	39.76
247.898	2.9
248.115	47.96
248.332	11.09
248.549	7
248.766	131.92
248.983	0.85
249.2	84.82
249.417	2.9
249.633	0.85
249.85	97.11
250.067	37.72
250.284	88.92
250.501	25.43
250.717	35.67
250.934	4.95
251.151	78.68
251.368	41.81
251.585	-13.48
251.801	39.76
252.018	-13.48
252.235	27.48
252.451	45.91
252.668	62.29
252.885	66.39
253.102	15.19
253.318	60.24
253.535	43.86
253.752	-9.39
253.968	35.67
254.185	-1.19
254.401	11.09
254.618	-1.19
254.835	19.29
255.051	80.72
255.268	103.25
255.484	43.86
255.701	66.39
255.917	84.82
256.134	-42.15
256.351	84.82
256.567	-21.67
256.784	9.05
257	29.52
257.217	58.2
257.433	-1.19
257.65	-3.24
257.866	29.52
258.082	7
258.299	-17.58
258.515	82.77
258.732	45.91
258.948	23.38
259.165	9.05
259.381	17.24
259.597	11.09
259.814	62.29
260.03	17.24
260.246	54.1
260.463	21.33
260.679	11.09
260.895	9.05
261.112	19.29
261.328	33.62
261.544	4.95
261.761	56.15
261.977	-17.58
262.193	27.48
262.409	43.86
262.626	-9.39
262.842	58.2
263.058	15.19
263.274	9.05
263.49	45.91
263.707	19.29
263.923	43.86
264.139	-21.67
264.355	0.85
264.571	70.48
264.787	33.62
265.004	7
265.22	41.81
265.436	-17.58
265.652	76.63
265.868	37.72
266.084	-42.15
266.3	68.44
266.516	25.43
266.732	76.63
266.948	64.34
267.164	0.85
267.38	99.16
267.596	43.86
267.812	82.77
268.028	50
268.244	50
268.46	-17.58
268.676	13.14
268.892	86.87
269.108	25.43
269.324	35.67
269.54	-29.87
269.756	7
269.972	45.91
270.188	56.15
270.403	45.91
270.619	62.29
270.835	82.77
271.051	17.24
271.267	-36.01
271.483	50
271.698	-9.39
271.914	54.1
272.13	-25.77
272.346	74.58
272.562	35.67
272.777	43.86
272.993	45.91
273.209	9.05
273.425	47.96
273.64	-3.24
273.856	0.85
274.072	45.91
274.287	11.09
274.503	7
274.719	37.72
274.934	17.24
275.15	56.15
275.366	68.44
275.581	39.76
275.797	-11.43
276.012	17.24
276.228	39.76
276.444	-13.48
276.659	33.62
276.875	0.85
277.09	-13.48
277.306	52.05
277.521	60.24
277.737	-23.72
277.952	37.72
278.168	64.34
278.383	13.14
278.599	27.48
278.814	23.38
279.03	54.1
279.245	11.09
279.461	37.72
279.676	97.11
279.892	-29.87
280.107	64.34
280.322	-13.48
280.538	78.68
280.753	-23.72
280.969	43.86
281.184	19.29
281.399	27.48
281.615	45.91
281.83	138.07
282.045	43.86
282.26	-27.82
282.476	-29.87
282.691	35.67
282.906	0.85
283.122	23.38
283.337	15.19
283.552	-38.06
283.767	27.48
283.983	54.1
284.198	-23.72
284.413	54.1
284.628	39.76
284.843	19.29
285.058	35.67
285.274	58.2
285.489	29.52
285.704	64.34
285.919	33.62
286.134	0.85
286.349	29.52
286.564	-9.39
286.779	27.48
286.995	39.76
287.21	33.62
287.425	-23.72
287.64	35.67
287.855	45.91
288.07	0.85
288.285	76.63
288.5	21.33
288.715	123.73
288.93	21.33
289.145	21.33
289.36	25.43
289.575	58.2
289.79	-7.34
290.004	9.05
290.219	47.96
290.434	21.33
290.649	82.77
290.864	-15.53
291.079	-36.01
291.294	33.62
291.509	35.67
291.724	39.76
291.938	37.72
292.153	76.63
292.368	2.9
292.583	11.09
292.798	35.67
293.012	82.77
293.227	52.05
293.442	17.24
293.657	88.92
293.871	21.33
294.086	13.14
294.301	136.02
294.516	17.24
294.73	9.05
294.945	-29.87
295.16	25.43
295.374	103.25
295.589	58.2
295.804	39.76
296.018	-15.53
296.233	43.86
296.447	11.09
296.662	84.82
296.877	64.34
297.091	121.68
297.306	-5.29
297.52	43.86
297.735	4.95
297.949	97.11
298.164	58.2
298.378	62.29
298.593	33.62
298.807	-27.82
299.022	39.76
299.236	17.24
299.451	121.68
299.665	-5.29
299.88	-5.29
300.094	66.39
300.309	129.88
300.523	45.91
300.737	107.35
300.952	86.87
301.166	95.06
301.381	72.53
301.595	17.24
301.809	25.43
302.024	13.14
302.238	31.57
302.452	86.87
302.667	-36.01
302.881	35.67
303.095	45.91
303.309	27.48
303.524	23.38
303.738	9.05
303.952	15.19
304.166	113.49
304.381	0.85
304.595	93.01
304.809	97.11
305.023	-21.67
305.237	39.76
305.452	131.92
305.666	117.59
305.88	33.62
306.094	39.76
306.308	107.35
306.522	54.1
306.736	27.48
306.95	93.01
307.164	93.01
307.379	21.33
307.593	13.14
307.807	43.86
308.021	82.77
308.235	58.2
308.449	99.16
308.663	50
308.877	68.44
309.091	9.05
309.305	74.58
309.519	-52.39
309.733	35.67
309.947	74.58
310.161	109.4
310.374	58.2
310.588	33.62
310.802	54.1
311.016	70.48
311.23	62.29
311.444	101.2
311.658	29.52
311.872	136.02
312.085	27.48
312.299	74.58
312.513	109.4
312.727	25.43
312.941	43.86
313.154	50
313.368	11.09
313.582	17.24
313.796	109.4
314.009	50
314.223	31.57
314.437	127.83
314.651	43.86
314.864	54.1
315.078	60.24
315.292	-5.29
315.505	109.4
315.719	86.87
315.933	68.44
316.146	68.44
316.36	35.67
316.573	99.16
316.787	4.95
317.001	74.58
317.214	-21.67
317.428	64.34
317.641	-38.06
317.855	17.24
318.068	2.9
318.282	66.39
318.495	62.29
318.709	-21.67
318.922	56.15
319.136	70.48
319.349	2.9
319.563	17.24
319.776	29.52
319.99	-62.63
320.203	64.34
320.417	23.38
320.63	54.1
320.843	37.72
321.057	45.91
321.27	11.09
321.483	45.91
321.697	109.4
321.91	-31.91
322.124	11.09
322.337	37.72
322.55	-36.01
322.763	66.39
322.977	9.05
323.19	13.14
323.403	80.72
323.617	37.72
323.83	70.48
324.043	15.19
324.256	17.24
324.469	64.34
324.683	52.05
324.896	54.1
325.109	25.43
325.322	-13.48
325.535	84.82
325.748	9.05
325.962	21.33
326.175	50
326.388	35.67
326.601	88.92
326.814	66.39
327.027	56.15
327.24	60.24
327.453	-11.43
327.666	185.17
327.879	17.24
328.092	41.81
328.305	78.68
328.518	58.2
328.731	35.67
328.944	78.68
329.157	70.48
329.37	4.95
329.583	60.24
329.796	90.96
330.009	-70.83
330.222	37.72
330.435	70.48
330.648	11.09
330.861	29.52
331.073	76.63
331.286	45.91
331.499	54.1
331.712	-1.19
331.925	101.2
332.138	56.15
332.35	58.2
332.563	25.43
332.776	93.01
332.989	58.2
333.202	-15.53
333.414	-3.24
333.627	37.72
333.84	13.14
334.053	35.67
334.265	13.14
334.478	78.68
334.691	19.29
334.903	33.62
335.116	68.44
335.329	60.24
335.541	37.72
335.754	7
335.966	2.9
336.179	31.57
336.392	27.48
336.604	68.44
336.817	15.19
337.029	35.67
337.242	90.96
337.454	45.91
337.667	27.48
337.88	62.29
338.092	62.29
338.305	88.92
338.517	35.67
338.729	84.82
338.942	95.06
339.154	-13.48
339.367	80.72
339.579	-17.58
339.792	58.2
340.004	41.81
340.217	35.67
340.429	52.05
340.641	60.24
340.854	-15.53
341.066	60.24
341.278	68.44
341.491	113.49
341.703	27.48
341.915	50
342.128	84.82
342.34	93.01
342.552	39.76
342.764	31.57
342.977	60.24
343.189	43.86
343.401	99.16
343.613	0.85
343.826	4.95
344.038	11.09
344.25	23.38
344.462	62.29
344.674	80.72
344.886	-25.77
345.099	-1.19
345.311	11.09
345.523	60.24
345.735	62.29
345.947	99.16
346.159	97.11
346.371	107.35
346.583	4.95
346.795	25.43
347.007	95.06
347.219	41.81
347.431	45.91
347.643	95.06
347.855	56.15
348.067	74.58
348.279	17.24
348.491	37.72
348.703	39.76
348.915	47.96
349.127	23.38
349.339	-31.91
349.551	-40.11
349.763	84.82
349.975	95.06
350.187	64.34
350.399	45.91
350.61	70.48
350.822	60.24
351.034	74.58
351.246	64.34
351.458	125.78
351.669	23.38
351.881	33.62
352.093	72.53
352.305	37.72
352.517	50
352.728	74.58
352.94	66.39
353.152	52.05
353.363	41.81
353.575	29.52
353.787	76.63
353.999	-19.63
354.21	84.82
354.422	37.72
354.633	23.38
354.845	78.68
355.057	105.3
355.268	84.82
355.48	37.72
355.692	35.67
355.903	111.44
356.115	21.33
356.326	35.67
356.538	47.96
356.749	43.86
356.961	66.39
357.172	37.72
357.384	9.05
357.595	37.72
357.807	76.63
358.018	86.87
358.23	86.87
358.441	54.1
358.653	105.3
358.864	45.91
359.075	50
359.287	41.81
359.498	136.02
359.709	54.1
359.921	88.92
360.132	27.48
360.344	58.2
360.555	29.52
360.766	68.44
360.977	52.05
361.189	41.81
361.4	52.05
361.611	37.72
361.823	31.57
362.034	90.96
362.245	60.24
362.456	43.86
362.667	70.48
362.879	37.72
363.09	70.48
363.301	-11.43
363.512	70.48
363.723	47.96
363.935	33.62
364.146	93.01
364.357	90.96
364.568	25.43
364.779	66.39
364.99	47.96
365.201	-23.72
365.412	105.3
365.623	-3.24
365.834	9.05
366.045	4.95
366.256	80.72
366.467	9.05
366.678	131.92
366.889	105.3
367.1	41.81
367.311	113.49
367.522	29.52
367.733	54.1
367.944	88.92
368.155	84.82
368.366	105.3
368.577	84.82
368.788	74.58
368.999	41.81
369.209	-7.34
369.42	136.02
369.631	82.77
369.842	78.68
370.053	52.05
370.264	60.24
370.474	43.86
370.685	37.72
370.896	50
371.107	68.44
371.317	9.05
371.528	90.96
371.739	127.83
371.95	88.92
372.16	54.1
372.371	31.57
372.582	90.96
372.792	27.48
373.003	39.76
373.214	72.53
373.424	109.4
373.635	119.64
373.846	152.4
374.056	-40.11
374.267	62.29
374.477	119.64
374.688	60.24
374.898	31.57
375.109	140.12
375.319	60.24
375.53	60.24
375.74	-9.39
375.951	47.96
376.161	82.77
376.372	105.3
376.582	105.3
376.793	76.63
377.003	33.62
377.214	45.91
377.424	111.44
377.635	82.77
377.845	-19.63
378.055	56.15
378.266	-5.29
378.476	101.2
378.686	78.68
378.897	93.01
379.107	-5.29
379.317	33.62
379.528	60.24
379.738	99.16
379.948	-21.67
380.158	66.39
380.369	43.86
380.579	50
380.789	86.87
380.999	84.82
381.21	-58.54
381.42	146.26
381.63	13.14
381.84	-5.29
382.05	45.91
382.261	60.24
382.471	64.34
382.681	74.58
382.891	60.24
383.101	47.96
383.311	99.16
383.521	74.58
383.731	19.29
383.941	76.63
384.151	80.72
384.361	119.64
384.571	78.68
384.781	64.34
384.991	19.29
385.201	70.48
385.411	90.96
385.621	37.72
385.831	56.15
386.041	62.29
386.251	66.39
386.461	111.44
386.671	4.95
386.881	95.06
387.091	115.54
387.301	88.92
387.511	78.68
387.72	37.72
387.93	138.07
388.14	9.05
388.35	72.53
388.56	64.34
388.769	127.83
388.979	54.1
389.189	119.64
389.399	27.48
389.609	72.53
389.818	78.68
390.028	93.01
390.238	117.59
390.447	60.24
390.657	47.96
390.867	76.63
391.076	31.57
391.286	13.14
391.496	50
391.705	54.1
391.915	125.78
392.125	72.53
392.334	64.34
392.544	129.88
392.753	62.29
392.963	97.11
393.172	76.63
393.382	-5.29
393.591	176.98
393.801	68.44
394.01	113.49
394.22	95.06
394.429	68.44
394.639	35.67
394.848	129.88
395.058	88.92
395.267	123.73
395.477	127.83
395.686	121.68
395.895	113.49
396.105	125.78
396.314	129.88
396.524	101.2
396.733	95.06
396.942	127.83
397.152	101.2
397.361	68.44
397.57	101.2
397.78	119.64
397.989	152.4
398.198	107.35
398.407	140.12
398.617	86.87
398.826	101.2
399.035	144.21
399.244	154.45
399.453	86.87
399.663	136.02
399.872	150.36
400.081	27.48
400.29	64.34
400.499	84.82
400.708	156.5
400.917	88.92
401.127	191.31
401.336	95.06
401.545	156.5
401.754	109.4
401.963	107.35
402.172	70.48
402.381	140.12
402.59	138.07
402.799	164.69
403.008	99.16
403.217	107.35
403.426	154.45
403.635	205.65
403.844	242.51
404.053	215.89
404.262	119.64
404.471	146.26
404.68	211.79
404.888	174.93
405.097	113.49
405.306	152.4
405.515	226.13
405.724	181.07
405.933	187.22
406.142	150.36
406.35	213.84
406.559	187.22
406.768	164.69
406.977	258.9
407.185	271.19
407.394	203.6
407.603	207.7
407.812	195.41
408.02	260.95
408.229	242.51
408.438	262.99
408.646	262.99
408.855	324.43
409.064	314.19
409.272	217.94
409.481	383.82
409.69	287.57
409.898	346.96
410.107	332.62
410.315	369.49
410.524	437.07
410.733	430.93
410.941	361.3
411.15	453.45
411.358	471.89
411.567	516.94
411.775	500.56
411.984	478.03
412.192	553.8
412.401	539.47
412.609	584.52
412.818	660.3
413.026	521.04
413.234	629.58
413.443	576.33
413.651	615.24
413.86	693.07
414.068	707.4
414.276	791.37
414.485	729.93
414.693	801.61
414.901	801.61
415.11	756.55
415.318	844.62
415.526	834.38
415.734	938.82
415.943	867.14
416.151	1030.98
416.359	1037.13
416.567	1049.41
416.776	1143.62
416.984	1164.1
417.192	1051.46
417.4	1129.28
417.608	1143.62
417.817	1174.34
418.025	1241.92
418.233	1370.94
418.441	1420.1
418.649	1272.64
418.857	1512.25
419.065	1596.22
419.273	1538.88
419.481	1610.56
419.689	1565.5
419.897	1729.34
420.105	1839.93
420.313	1780.54
420.521	1923.9
420.729	1975.1
420.937	2028.34
421.145	2085.69
421.353	2194.23
421.561	2224.95
421.769	2239.28
421.977	2487.09
422.185	2450.22
422.393	2487.09
422.601	2765.61
422.809	2851.63
423.017	2661.16
423.224	2775.85
423.432	2855.72
423.64	2884.39
423.848	3234.6
424.056	3111.72
424.263	3361.57
424.471	3326.75
424.679	3468.06
424.887	3697.44
425.094	3775.26
425.302	3949.34
425.51	3939.1
425.718	4051.74
425.925	4104.98
426.133	4338.45
426.341	4498.19
426.548	4580.11
426.756	4672.27
426.964	4743.95
427.171	5081.86
427.379	5090.06
427.586	5270.28
427.794	5425.92
428.001	5636.86
428.209	6054.65
428.417	5751.55
428.624	6095.61
428.832	6327.03
429.039	6247.16
429.247	6206.2
429.454	6748.91
429.662	7322.34
429.869	6679.28
430.076	7361.25
430.284	6925.04
430.491	7336.68
430.699	7838.43
430.906	7885.53
431.114	7682.78
431.321	8159.96
431.528	8217.3
431.736	8743.63
431.943	9222.86
432.15	8970.96
432.358	9089.74
432.565	9669.31
432.772	9689.79
432.979	10164.92
433.187	10164.92
433.394	10367.67
433.601	11010.73
433.808	10908.33
434.016	10945.2
434.223	11610.79
434.43	12118.68
434.637	11883.17
434.844	12632.72
435.052	12958.35
435.259	12731.03
435.466	13032.08
435.673	13111.95
435.88	13613.7
436.087	14514.81
436.294	14576.25
436.501	14107.26
436.708	14248.57
436.915	14772.85
437.122	15682.15
437.329	15313.52
437.537	16274.01
437.743	16179.81
437.95	16034.4
438.157	17099.34
438.364	17461.83
438.571	17480.27
438.778	17723.97
438.985	19393.07
439.192	18510.39
439.399	18893.37
439.606	18473.53
439.813	19884.58
440.02	20711.96
440.227	20910.61
440.433	20177.44
440.64	20988.44
440.847	20824.6
441.054	21201.43
441.261	22751.74
441.467	22630.91
441.674	22919.67
441.881	23632.36
442.088	23652.84
442.294	23669.23
442.501	24031.72
442.708	24451.55
442.914	25696.72
443.121	26712.51
443.328	25821.64
443.534	27634.1
443.741	27124.15
443.948	26446.27
444.154	28799.39
444.361	28520.87
444.568	28744.09
444.774	28715.42
444.981	29276.57
445.187	30163.34
445.394	30878.08
445.6	30597.51
445.807	33722.71
446.013	31961.45
446.22	33124.7
446.426	34253.13
446.633	34150.73
446.839	35457.34
447.046	33829.2
447.252	36127.02
447.459	35797.3
447.665	36002.1
447.871	37611.8
448.078	39291.13
448.284	37443.87
448.491	38140.18
448.697	39786.74
448.903	40734.95
449.11	40237.3
449.316	39694.58
449.522	40800.49
449.728	41703.64
449.935	41855.19
450.141	41933.01
450.347	42727.63
450.553	41658.59
450.76	41937.11
450.966	43438.27
451.172	43188.42
451.378	44089.52
451.584	43321.54
451.791	44349.62
451.997	44091.57
452.203	45054.12
452.409	44708.01
452.615	44439.73
452.821	42940.61
453.027	42748.11
453.233	44787.88
453.44	43450.56
453.646	43802.81
453.852	43669.69
454.058	44599.47
454.264	42856.65
454.47	43790.52
454.676	43180.23
454.882	44222.64
455.088	40841.45
455.294	41122.02
455.5	41760.98
455.705	41957.59
455.911	40521.96
456.117	39586.04
456.323	39284.99
456.529	37134.62
456.735	38797.57
456.941	37880.08
457.147	37114.14
457.352	36012.34
457.558	35463.48
457.764	35938.61
457.97	34851.14
458.176	34492.74
458.381	34732.36
458.587	32704.87
458.793	32819.55
458.999	31283.58
459.204	33370.46
459.41	32295.27
459.616	29878.67
459.821	30222.73
460.027	29794.7
460.233	29518.23
460.438	28012.97
460.644	28303.78
460.85	27060.66
461.055	26937.79
461.261	26675.65
461.466	24506.85
461.672	23972.33
461.878	25362.9
462.083	24066.53
462.289	23466.48
462.494	23124.47
462.7	22276.61
462.905	21447.18
463.111	22180.35
463.316	22555.13
463.522	21662.22
463.727	21547.53
463.932	22034.95
464.138	21445.13
464.343	21848.58
464.549	20967.96
464.754	21479.95
464.959	21666.31
465.165	21428.75
465.37	20556.32
465.575	20177.44
465.781	21154.32
465.986	20783.64
466.191	20187.68
466.397	19888.68
466.602	18952.76
466.807	19360.3
467.012	19442.22
467.218	19302.96
467.423	19063.35
467.628	19212.85
467.833	19993.12
468.038	19268.14
468.244	18682.42
468.449	19495.47
468.654	18983.48
468.859	18811.45
469.064	18674.23
469.269	18053.7
469.474	18203.2
469.679	18401.85
469.885	17873.48
470.09	18141.76
470.295	17760.84
470.5	17488.46
470.705	17640.01
470.91	17361.48
471.115	17199.69
471.32	17416.78
471.525	17209.93
471.73	16880.21
471.935	16951.89
472.139	16394.84
472.344	16706.13
472.549	16339.55
472.754	16400.99
472.959	15788.64
473.164	15512.17
473.369	15362.67
473.574	16097.89
473.778	15622.76
473.983	15600.23
474.188	15471.21
474.393	14735.99
474.598	14705.27
474.802	14772.85
475.007	14877.3
475.212	14793.33
475.417	13822.59
475.621	14230.14
475.826	14234.24
476.031	13873.79
476.235	13632.13
476.44	13791.87
476.645	13558.41
476.849	13634.18
477.054	13369.99
477.259	13161.1
477.463	13218.44
477.668	13118.09
477.872	12950.16
478.077	12776.08
478.282	12358.3
478.486	12313.24
478.691	12257.95
478.895	12311.19
479.1	12100.25
479.304	12434.07
479.509	11819.68
479.713	12055.2
479.918	11801.25
480.122	11678.37
480.326	11844.26
480.531	11823.78
480.735	11467.43
480.94	11592.36
481.144	12118.68
481.348	11158.19
481.553	11625.12
481.757	11080.36
481.961	11608.74
482.166	11784.87
482.37	11467.43
482.574	11195.05
482.778	11285.16
482.983	11547.3
483.187	11340.46
483.391	11446.95
483.595	11307.69
483.8	11109.04
484.004	11623.08
484.208	11348.65
484.412	11303.59
484.616	11459.24
484.821	11410.09
485.025	11229.87
485.229	11246.25
485.433	11256.49
485.637	11379.37
485.841	11422.38
486.045	11395.75
486.249	11352.74
486.453	11195.05
486.657	11260.59
486.861	11315.88
487.065	11147.95
487.269	11184.81
487.473	11152.04
487.677	11369.13
487.881	11623.08
488.085	11420.33
488.289	11375.27
488.493	11248.3
488.697	11477.67
488.901	11309.74
489.105	11299.5
489.309	11512.49
489.512	11520.68
489.716	11645.6
489.92	11399.85
490.124	11477.67
490.328	11752.1
490.531	11496.1
490.735	11807.39
490.939	11625.12
491.143	11498.15
491.346	11788.96
491.55	11887.26
491.754	11846.3
491.958	11960.99
492.161	11834.02
492.365	12077.73
492.569	11909.79
492.772	12208.8
492.976	11969.18
493.18	12202.65
493.383	12325.53
493.587	12348.06
493.79	12501.65
493.994	12352.15
494.197	12518.04
494.401	12479.13
494.605	12624.53
494.808	12948.11
495.012	12743.31
495.215	13019.79
495.419	13120.14
495.622	13085.33
495.825	13290.12
496.029	13052.56
496.232	13408.9
496.436	13331.08
496.639	13906.56
496.843	13658.76
497.046	14021.25
497.249	13986.43
497.453	14191.23
497.656	14342.78
497.859	14516.86
498.063	14436.99
498.266	14752.37
498.469	14781.04
498.673	14920.31
498.876	15209.07
499.079	15319.66
499.282	15454.83
499.485	15852.13
499.689	15532.65
499.892	15948.39
500.095	16007.78
500.298	16566.87
500.501	16159.33
500.705	16622.17
500.908	16634.46
501.111	17080.91
501.314	16892.5
501.517	17271.37
501.72	17736.26
501.923	17527.37
502.126	17930.82
502.329	18133.57
502.532	18543.16
502.735	18422.33
502.938	18774.58
503.141	18764.34
503.344	19239.47
503.547	18956.85
503.75	19436.08
503.953	19440.17
504.156	20023.84
504.359	20259.36
504.562	19790.38
504.765	20302.37
504.968	20677.15
505.17	20898.33
505.373	21275.15
505.576	21297.68
505.779	21578.25
505.982	21709.32
506.185	22221.31
506.387	22290.95
506.59	22688.25
506.793	23175.67
506.996	22972.92
507.198	23630.32
507.401	23308.79
507.604	23642.6
507.807	24111.59
508.009	24373.73
508.212	24289.76
508.415	24875.48
508.617	24787.42
508.82	25184.73
509.022	25172.44
509.225	25584.08
509.428	25821.64
509.63	26094.02
509.833	26458.56
510.035	26800.57
510.238	26585.54
510.44	27390.39
510.643	27470.26
510.845	27785.65
511.048	27853.23
511.25	28320.17
511.453	27992.49
511.655	29260.18
511.858	28834.21
512.06	29170.07
512.262	29776.27
512.465	29467.03
512.667	30398.85
512.87	30548.36
513.072	30550.4
513.274	30906.75
513.477	31023.48
513.679	31558
513.881	31662.45
514.084	32137.58
514.286	32115.05
514.488	32330.09
514.69	33374.55
514.893	33190.23
515.095	33323.35
515.297	33585.49
515.499	33876.3
515.701	34228.56
515.904	34877.76
516.106	34799.94
516.308	35516.73
516.51	35430.71
516.712	35682.61
516.914	36096.3
517.116	36661.54
517.318	36493.61
517.52	36962.59
517.722	37138.72
517.925	37335.32
518.127	38263.05
518.329	38449.42
518.531	38035.73
518.733	38955.27
518.935	39139.58
519.136	38773
519.338	39672.06
519.54	39817.46
519.742	40016.11
519.944	40749.29
520.146	40804.58
520.348	41177.31
520.55	41181.41
520.752	41386.21
520.954	41984.21
521.155	41924.82
521.357	42662.09
521.559	43376.83
521.761	43788.47
521.963	43339.97
522.164	43964.6
522.366	44038.33
522.568	44443.82
522.77	44439.73
522.971	45025.45
523.173	44581.04
523.375	45289.63
523.576	45539.49
523.778	45060.26
523.98	45867.16
524.181	45783.19
524.383	46188.69
524.584	46686.35
524.786	46682.25
524.988	46547.09
525.189	47014.02
525.391	47495.3
525.592	47546.5
525.794	47911.03
525.995	48181.37
526.197	48191.61
526.398	48033.91
526.6	48455.79
526.801	48224.37
527.003	48902.25
527.204	48724.08
527.406	49315.94
527.607	48812.14
527.808	49823.84
528.01	48935.02
528.211	49455.2
528.412	50231.38
528.614	49967.19
528.815	50151.51
529.016	50538.58
529.218	50004.06
529.419	50368.6
529.62	50485.33
529.822	50319.45
530.023	50544.72
530.224	50544.72
530.425	50948.17
530.626	50532.43
530.828	50278.49
531.029	51054.67
531.23	51064.91
531.431	50065.5
531.632	51128.39
531.833	51015.75
532.035	51275.85
532.236	51099.72
532.437	51368.01
532.638	51017.8
532.839	51486.79
533.04	51669.06
533.241	50788.43
533.442	52101.18
533.643	51220.55
533.844	51288.13
534.045	51982.4
534.246	51050.57
534.447	51802.17
534.648	51159.11
534.849	51441.73
535.05	51415.11
535.251	51486.79
535.451	51316.81
535.652	51566.66
535.853	51671.1
536.054	51662.91
536.255	51757.12
536.456	50917.45
536.657	51679.3
536.857	51388.49
537.058	51071.05
537.259	52115.51
537.46	51714.11
537.66	51568.71
537.861	51198.02
538.062	51353.67
538.263	51937.34
538.463	51796.03
538.664	51382.34
538.865	51632.19
539.065	51757.12
539.266	50964.56
539.466	51652.67
539.667	50774.09
539.868	51820.61
540.068	51021.9
540.269	51236.94
540.469	51363.91
540.67	51077.19
540.87	51056.71
541.071	51114.06
541.271	51499.08
541.472	51066.95
541.672	50860.11
541.873	51077.19
542.073	50421.84
542.274	51124.3
542.474	51099.72
542.675	50868.3
542.875	51589.19
543.075	50974.8
543.276	50573.39
543.476	51351.62
543.676	50901.07
543.877	51146.82
544.077	50913.36
544.277	51124.3
544.478	50948.17
544.678	51275.85
544.878	51085.39
545.078	51146.82
545.279	50499.67
545.479	50423.89
545.679	51085.39
545.879	50815.05
546.079	50806.86
546.28	50534.48
546.48	50317.4
546.68	50704.46
546.88	50950.22
547.08	50786.38
547.28	50585.68
547.48	50370.64
547.68	50454.61
547.88	50225.24
548.081	50671.7
548.281	50632.78
548.481	50679.89
548.681	51243.08
548.881	50927.69
549.081	50942.03
549.28	50245.72
549.48	50511.95
549.68	50548.82
549.88	50896.97
550.08	50247.77
550.28	50663.5
550.48	50626.64
550.68	50683.98
550.88	50210.9
551.08	50376.79
551.279	50352.21
551.479	50210.9
551.679	50241.62
551.879	50614.35
552.079	50530.39
552.278	50106.46
552.478	50487.38
552.678	50212.95
552.878	50368.6
553.077	50434.13
553.277	49735.77
553.477	50683.98
553.676	49999.96
553.876	49891.42
554.076	49795.17
554.275	49868.89
554.475	49725.53
554.674	50227.29
554.874	50024.54
555.074	49813.6
555.273	50253.91
555.473	50114.65
555.672	49553.51
555.872	49137.77
556.071	49692.77
556.271	49922.14
556.47	49754.21
556.67	49029.23
556.869	49725.53
557.068	49598.56
557.268	49490.02
557.467	49717.34
557.667	49379.43
557.866	49418.34
558.065	48697.45
558.265	48674.93
558.464	49070.18
558.663	49705.05
558.863	48570.48
559.062	49598.56
559.261	48439.41
559.461	49387.62
559.66	48719.98
559.859	49088.62
560.058	48754.8
560.258	48857.2
560.457	48625.78
560.656	49184.87
560.855	48599.15
561.054	48668.78
561.253	47898.75
561.453	48148.6
561.652	48345.2
561.851	48717.93
562.05	48234.61
562.249	48038.01
562.448	48625.78
562.647	48050.3
562.846	48124.02
563.045	48140.41
563.244	48072.82
563.443	47894.65
563.642	47059.08
563.841	47427.71
564.04	47384.71
564.239	47837.31
564.438	46975.11
564.637	47376.51
564.836	47317.12
565.035	46973.06
565.234	47237.25
565.432	47247.49
565.631	46811.28
565.83	47370.37
566.029	46985.35
566.228	46231.7
566.427	46715.02
566.625	46133.4
566.824	45729.95
567.023	46854.28
567.222	45811.87
567.42	46604.43
567.619	45871.26
567.818	45856.92
568.016	45785.24
568.215	46424.21
568.414	45770.91
568.612	45981.85
568.811	45904.02
569.01	45629.6
569.208	44843.18
569.407	45539.49
569.605	45172.9
569.804	45889.69
570.002	45349.03
570.201	45168.8
570.4	44767.4
570.598	44697.77
570.797	44499.12
570.995	44767.4
571.193	44409.01
571.392	44873.9
571.59	44023.99
571.789	44558.51
571.987	44261.55
572.186	43866.3
572.384	44003.51
572.582	44200.11
572.781	43704.51
572.979	43614.4
573.177	43659.45
573.376	43647.16
573.574	43163.84
573.772	43690.17
573.971	43327.68
574.169	43071.68
574.367	43055.3
574.565	43221.19
574.763	42877.13
574.962	43126.98
575.16	42305.74
575.358	42692.81
575.556	42107.09
575.754	43344.06
575.952	41986.26
576.151	42365.13
576.349	42059.99
576.547	41668.83
576.745	42234.06
576.943	42033.36
577.141	41588.95
577.339	41963.73
577.537	41201.89
577.735	41320.67
577.933	41165.03
578.131	41697.5
578.329	41003.24
578.527	40673.51
578.725	40980.71
578.923	40958.18
579.121	40935.65
579.319	40798.44
579.516	41074.91
579.714	40564.97
579.912	40777.96
580.11	40452.33
580.308	40157.42
580.506	40335.6
580.704	39518.46
580.901	40042.74
581.099	40575.21
581.297	39684.34
581.495	40116.47
581.692	40112.37
581.89	39272.7
582.088	39725.3
582.285	39080.19
582.483	39403.77
582.681	39291.13
582.878	38756.61
583.076	38619.4
583.274	39321.85
583.471	38623.5
583.669	38566.15
583.866	38453.51
584.064	38611.21
584.262	37976.34
584.459	38605.06
584.657	38324.49
584.854	38091.02
585.052	37320.99
585.249	37810.45
585.447	37939.47
585.644	37755.16
585.841	37847.32
586.039	37871.89
586.236	37204.25
586.434	37644.57
586.631	37101.86
586.828	36978.98
587.026	37005.6
587.223	37038.37
587.42	37054.75
587.618	36968.74
587.815	36833.57
588.012	36763.94
588.21	36585.77
588.407	36550.95
588.604	36370.73
588.801	36426.03
588.999	35897.65
589.196	36018.48
589.393	35979.57
589.59	35985.71
589.787	35701.04
589.984	35436.86
590.182	35320.12
590.379	35520.82
590.576	35375.42
590.773	35223.87
590.97	35082.56
591.167	35086.65
591.364	34586.95
591.561	34738.5
591.758	34556.23
591.955	34349.39
592.152	34709.83
592.349	34511.17
592.546	34486.6
592.743	34312.52
592.94	33984.85
593.137	34224.46
593.334	34228.56
593.531	33681.75
593.727	33444.18
593.924	33462.61
594.121	33562.97
594.318	33642.84
594.515	33356.12
594.712	33827.15
594.908	33397.08
595.105	33171.8
595.302	32946.53
595.499	32766.31
595.696	32729.44
595.892	32612.71
596.089	33014.11
596.286	32719.2
596.482	32731.49
596.679	32457.06
596.876	32807.26
597.072	32358.76
597.269	32170.35
597.466	32178.54
597.662	31973.74
597.859	31971.69
598.055	31998.32
598.252	31428.98
598.448	31566.2
598.645	31445.37
598.841	31482.23
599.038	31639.92
599.234	31504.76
599.431	30843.26
599.627	31146.36
599.824	30808.45
600.02	30947.71
600.217	31164.79
600.413	30620.03
600.609	30597.51
600.806	30443.91
601.002	30476.68
601.198	30458.24
601.395	30570.88
601.591	30192.01
601.787	30275.98
601.984	30075.27
602.18	30105.99
602.376	29774.22
602.572	29704.59
602.769	29602.19
602.965	29354.39
603.161	29720.98
603.357	29397.4
603.553	29530.51
603.75	29227.42
603.946	28864.92
604.142	29012.38
604.338	28875.16
604.534	28965.28
604.73	28664.22
604.926	28707.23
605.122	28656.03
605.318	28357.03
605.514	28608.93
605.71	28064.17
605.906	28418.47
606.102	28244.39
606.298	28058.03
606.494	28187.05
606.69	28033.45
606.886	28258.73
607.082	27859.37
607.278	28121.51
607.474	27464.11
607.67	28146.09
607.866	27320.76
608.062	27777.45
608.257	27369.91
608.453	27521.46
608.649	27091.38
608.845	27109.82
609.041	27290.04
609.236	27496.88
609.432	27109.82
609.628	27251.13
609.824	27009.47
610.019	26800.57
610.215	27099.58
610.411	26988.99
610.606	26911.16
610.802	27023.8
610.998	26784.19
611.193	26845.63
611.389	26446.27
611.584	26360.26
611.78	26347.97
611.976	26528.19
612.171	26515.9
612.367	26335.68
612.562	26261.96
612.758	25934.28
612.953	26126.79
613.149	26538.43
613.344	25784.78
613.539	26223.05
613.735	25840.08
613.93	25805.26
614.126	26044.87
614.321	25835.98
614.517	26243.52
614.712	25471.44
614.907	25600.46
615.103	25651.66
615.298	25979.34
615.493	25811.4
615.688	25151.96
615.884	25727.44
616.079	25588.17
616.274	25321.94
616.47	25485.78
616.665	25266.64
616.86	25020.89
617.055	25307.6
617.25	25049.56
617.445	25016.79
617.641	24691.16
617.836	25190.87
618.031	24349.15
618.226	24848.86
618.421	24347.11
618.616	24758.75
618.811	24334.82
619.006	24564.19
619.201	23929.32
619.396	24439.26
619.591	23798.25
619.786	23980.52
619.981	23560.69
620.176	24265.19
620.371	23595.5
620.566	23665.13
620.761	23568.88
620.956	23630.32
621.151	23116.28
621.346	23099.89
621.541	22827.51
621.735	22989.3
621.93	22546.94
622.125	23036.41
622.32	22575.61
622.515	22684.16
622.709	22153.73
622.904	22469.12
623.099	22317.57
623.294	22168.07
623.488	21946.89
623.683	22209.03
623.878	21543.44
624.072	21752.33
624.267	21793.29
624.462	21406.22
624.656	21426.7
624.851	21422.61
625.046	21359.12
625.24	21201.43
625.435	20804.12
625.629	21021.2
625.824	20818.46
626.018	20548.12
626.213	20242.98
626.407	20519.45
626.602	20154.91
626.796	20382.24
626.991	20095.52
627.185	20099.62
627.38	19802.66
627.574	19614.25
627.768	19755.56
627.963	19360.3
628.157	19546.67
628.352	19456.56
628.546	18676.28
628.74	19298.86
628.935	18958.9
629.129	19040.82
629.323	18885.17
629.517	18670.14
629.712	18770.49
629.906	18461.24
630.1	18229.82
630.294	18377.28
630.489	18162.24
630.683	18479.68
630.877	17801.8
631.071	17932.87
631.265	17930.82
631.459	17809.99
631.653	17721.93
631.848	17828.42
632.042	17484.36
632.236	17797.7
632.43	17171.02
632.624	17146.45
632.818	17136.21
633.012	16876.12
633.206	16804.44
633.4	16953.94
633.594	16722.52
633.788	16699.99
633.982	16695.89
634.176	16597.59
634.369	16431.71
634.563	16292.44
634.757	16286.3
634.951	16175.71
635.145	16052.83
635.339	16073.31
635.533	15536.74
635.726	15807.08
635.92	15796.84
636.114	15882.85
636.308	15620.71
636.501	15669.86
636.695	15489.64
636.889	15325.8
637.083	15239.79
637.276	15180.4
637.47	15026.8
637.664	14934.64
637.857	15049.33
638.051	14692.98
638.244	14811.76
638.438	14760.56
638.632	14731.89
638.825	14494.33
639.019	14617.21
639.212	14285.44
639.406	14609.01
639.599	14219.9
639.793	14436.99
639.986	14088.83
640.18	13984.38
640.373	13980.29
640.567	13927.04
640.76	13701.76
640.954	13793.92
641.147	13458.06
641.34	13550.21
641.534	13716.1
641.727	13316.75
641.92	13513.35
642.114	13445.77
642.307	13140.62
642.5	13288.07
642.694	12884.62
642.887	13001.36
643.08	13064.85
643.273	12878.48
643.467	12804.75
643.66	12599.96
643.853	12829.33
644.046	12614.29
644.239	12593.81
644.432	12663.44
644.626	12458.65
644.819	12384.92
645.012	12210.84
645.205	12135.07
645.398	12065.44
645.591	12020.38
645.784	12036.77
645.977	12087.96
646.17	11909.79
646.363	11907.74
646.556	11936.42
646.749	11776.67
646.942	11670.18
647.135	11686.56
647.328	11584.16
647.521	11264.68
647.714	11375.27
647.907	11389.61
648.099	11164.33
648.292	11279.02
648.485	11227.82
648.678	11076.27
648.871	11147.95
649.064	10959.53
649.256	11240.11
649.449	10914.48
649.642	10750.64
649.835	10898.1
650.027	10656.43
650.22	10781.36
650.413	10640.05
650.605	10609.33
650.798	10672.82
650.991	10308.28
651.183	10396.34
651.376	10549.94
651.568	10324.66
651.761	10207.93
651.954	10230.46
652.146	10087.1
652.339	10115.77
652.531	10152.63
652.724	9976.51
652.916	9743.04
653.109	9927.36
653.301	9867.97
653.494	9863.87
653.686	9519.81
653.879	9607.87
654.071	9716.42
654.263	9411.27
654.456	9595.59
654.648	9519.81
654.84	9194.19
655.033	9401.03
655.225	9267.91
655.417	9237.19
655.61	9196.23
655.802	9319.11
655.994	9134.79
656.186	9093.83
656.379	9054.92
656.571	9233.1
656.763	8831.69
656.955	8964.81
657.148	8970.96
657.34	8827.6
657.532	8630.99
657.724	8706.77
657.916	8712.91
658.108	8706.77
658.3	8594.13
658.492	8620.75
658.684	8422.1
658.876	8362.71
659.068	8473.3
659.26	8387.29
659.452	8469.2
659.644	8348.37
659.836	8266.46
660.028	8188.63
660.22	8032.99
660.412	8057.56
660.604	8069.85
660.796	7979.74
660.988	8026.84
661.18	7820
661.372	7832.29
661.563	7850.72
661.755	7674.59
661.947	7836.38
662.139	7756.51
662.331	7725.79
662.522	7619.3
662.714	7613.15
662.906	7574.24
663.097	7586.53
663.289	7504.61
663.481	7525.09
663.673	7367.4
663.864	7461.6
664.056	7396.07
664.247	7267.05
664.439	7219.94
664.631	7332.58
664.822	7301.86
665.014	7318.25
665.205	7254.76
665.397	7135.98
665.588	6898.41
665.78	6955.76
665.971	7074.54
666.163	6898.41
666.354	6966
666.546	6992.62
666.737	6847.21
666.929	6836.97
667.12	6804.21
667.311	6847.21
667.503	6789.87
667.694	6644.46
667.885	6683.38
668.077	6648.56
668.268	6619.89
668.459	6638.32
668.651	6554.35
668.842	6564.59
669.033	6300.41
669.224	6443.76
669.416	6505.2
669.607	6396.66
669.798	6234.87
669.989	6341.36
670.18	6341.36
670.371	6349.56
670.563	6212.34
670.754	6288.12
670.945	6267.64
671.136	6218.49
671.327	6193.91
671.518	6116.09
671.709	6025.98
671.9	6083.32
672.091	6169.34
672.282	6013.69
672.473	5907.2
672.664	6099.7
672.855	5911.29
673.046	6032.12
673.237	6140.66
673.428	5802.75
673.619	5858.04
673.809	5821.18
674	5745.41
674.191	5802.75
674.382	5753.6
674.573	5821.18
674.764	5530.37
674.954	5827.32
675.145	5618.43
675.336	5503.75
675.527	5524.23
675.717	5722.88
675.908	5567.23
676.099	5571.33
676.289	5530.37
676.48	5503.75
676.671	5493.51
676.861	5653.25
677.052	5491.46
677.243	5468.93
677.433	5395.2
677.624	5489.41
677.814	5522.18
678.005	5444.35
678.195	5411.59
678.386	5366.53
678.576	5200.65
678.767	5307.14
678.957	5257.99
679.148	5296.9
679.338	5296.9
679.529	5317.38
679.719	5344
679.909	5339.91
680.1	5139.21
680.29	5268.23
680.481	5184.26
680.671	5315.33
680.861	5126.92
681.052	5102.34
681.242	5128.97
681.432	5204.74
681.622	5237.51
681.813	5100.3
682.003	5145.35
682.193	4993.8
682.383	4975.37
682.573	5147.4
682.764	5112.58
682.954	4987.66
683.144	5075.72
683.334	4981.51
683.524	4971.27
683.714	4985.61
683.904	4932.36
684.094	5067.53
684.284	4963.08
684.474	4842.25
684.664	4862.73
684.854	4829.96
685.044	4733.71
685.234	4743.95
685.424	4754.19
685.614	4680.46
685.804	4662.03
685.994	4629.26
686.184	4805.39
686.374	4684.56
686.564	4698.89
686.753	4643.6
686.943	4514.58
687.133	4696.85
687.323	4584.21
687.513	4533.01
687.702	4389.65
687.892	4592.4
688.082	4496.14
688.272	4567.82
688.461	4541.2
688.651	4471.57
688.841	4432.66
689.03	4496.14
689.22	4446.99
689.41	4442.9
689.599	4348.69
689.789	4426.51
689.979	4193.05
690.168	4438.8
690.358	4303.64
690.547	4297.49
690.737	4231.96
690.926	4205.33
691.116	4170.52
691.305	4330.26
691.495	4164.37
691.684	4369.17
691.874	4166.42
692.063	4076.31
692.252	4090.65
692.442	4025.11
692.631	4156.18
692.82	3959.58
693.01	4002.58
693.199	3975.96
693.388	3971.86
693.578	3961.62
693.767	3967.77
693.956	3875.61
694.146	3926.81
694.335	3945.24
694.524	4088.6
694.713	3986.2
694.902	3881.75
695.092	3801.88
695.281	3953.43
695.47	3840.79
695.659	3834.65
695.848	3842.84
696.037	3742.49
696.226	3873.56
696.415	3742.49
696.604	3777.31
696.793	3801.88
696.982	3707.68
697.171	3674.91
697.36	3799.84
697.549	3691.29
697.738	3672.86
697.927	3693.34
698.116	3752.73
698.305	3646.24
698.494	3734.3
698.683	3617.57
698.872	3662.62
699.061	3463.97
699.25	3562.27
699.438	3611.42
699.627	3502.88
699.816	3599.13
700.005	3560.22
700.193	3638.05
700.382	3672.86
700.571	3636
700.76	3625.76
700.948	3470.11
701.137	3527.46
701.326	3590.94
701.514	3560.22
701.703	3590.94
701.892	3498.78
702.08	3486.5
702.269	3541.79
702.457	3476.26
702.646	3408.67
702.834	3425.06
703.023	3568.41
703.212	3511.07
703.4	3429.15
703.589	3543.84
703.777	3621.66
703.965	3310.37
704.154	3412.77
704.342	3468.06
704.531	3353.38
704.719	3253.03
704.907	3543.84
705.096	3461.92
705.284	3468.06
705.472	3394.34
705.661	3423.01
705.849	3330.85
706.037	3242.79
706.226	3345.19
706.414	3306.27
706.602	3240.74
706.79	3380
706.979	3179.3
707.167	3257.12
707.355	3214.12
707.543	3216.16
707.731	3363.62
707.919	3402.53
708.107	3230.5
708.296	3187.49
708.484	3324.71
708.672	3203.88
708.86	3066.66
709.048	3275.56
709.236	3156.77
709.424	3238.69
709.612	3148.58
709.8	3255.08
709.988	3101.48
710.176	3138.34
710.364	3064.61
710.551	3193.64
710.739	3136.29
710.927	3130.15
711.115	3224.36
711.303	3181.35
711.491	3091.24
711.679	3107.62
711.866	2982.7
712.054	3218.21
712.242	3130.15
712.43	3081
712.617	3054.37
712.805	3074.85
712.993	3117.86
713.181	3126.05
713.368	2978.6
713.556	3031.85
713.744	3042.09
713.931	2980.65
714.119	3130.15
714.306	3081
714.494	2968.36
714.682	2968.36
714.869	3056.42
715.057	3033.9
715.244	2880.3
715.432	2927.4
715.619	2958.12
715.807	2837.29
715.994	2982.7
716.182	3009.32
716.369	2994.98
716.556	2865.96
716.744	2937.64
716.931	2876.2
717.119	3025.7
717.306	2847.53
717.493	2849.58
717.681	2906.92
717.868	2839.34
718.055	2825
718.242	2908.97
718.43	2906.92
718.617	2831.15
718.804	2802.47
718.991	2857.77
719.179	2765.61
719.366	2851.63
719.553	2915.11
719.74	2923.3
719.927	2835.24
720.114	2781.99
720.301	2734.89
720.488	2814.76
720.676	2781.99
720.863	2763.56
721.05	2726.7
721.237	2741.04
721.424	2745.13
721.611	2714.41
721.798	2554.67
721.985	2710.32
722.172	2673.45
722.358	2755.37
722.545	2612.01
722.732	2724.65
722.919	2646.83
723.106	2624.3
723.293	2720.56
723.48	2671.4
723.667	2661.16
723.853	2636.59
724.04	2657.07
724.227	2605.87
724.414	2769.71
724.6	2640.69
724.787	2636.59
724.974	2714.41
725.161	2603.82
725.347	2671.4
725.534	2665.26
725.72	2675.5
725.907	2708.27
726.094	2626.35
726.28	2589.49
726.467	2521.9
726.653	2562.86
726.84	2607.92
727.027	2575.15
727.213	2601.77
727.4	2558.77
727.586	2599.73
727.773	2480.94
727.959	2679.6
728.145	2562.86
728.332	2466.61
728.518	2435.89
728.705	2468.66
728.891	2546.48
729.077	2462.51
729.264	2532.14
729.45	2573.1
729.636	2503.47
729.823	2552.62
730.009	2466.61
730.195	2472.75
730.382	2519.85
730.568	2405.17
730.754	2528.05
730.94	2542.38
731.126	2384.69
731.313	2538.29
731.499	2425.65
731.685	2405.17
731.871	2427.7
732.057	2431.79
732.243	2456.37
732.429	2439.98
732.615	2427.7
732.801	2474.8
732.987	2417.46
733.173	2384.69
733.359	2394.93
733.545	2501.42
733.731	2362.16
733.917	2495.28
734.103	2384.69
734.289	2437.94
734.475	2421.55
734.661	2413.36
734.847	2310.96
735.033	2409.26
735.219	2421.55
735.404	2343.73
735.59	2280.24
735.776	2386.74
735.962	2360.11
736.148	2265.91
736.333	2356.02
736.519	2333.49
736.705	2382.64
736.89	2362.16
737.076	2245.43
737.262	2382.64
737.447	2253.62
737.633	2216.76
737.819	2358.07
738.004	2188.08
738.19	2261.81
738.375	2218.8
738.561	2282.29
738.747	2337.59
738.932	2321.2
739.118	2304.82
739.303	2267.95
739.489	2276.15
739.674	2265.91
739.859	2210.61
740.045	2227
740.23	2157.36
740.416	2143.03
740.601	2147.12
740.786	2089.78
740.972	2073.4
741.157	2155.32
741.342	2132.79
741.528	2206.52
741.713	2108.21
741.898	2106.17
742.084	2085.69
742.269	2122.55
742.454	2095.93
742.639	2171.7
742.824	2114.36
743.01	1995.57
743.195	2108.21
743.38	1985.34
743.565	2026.29
743.75	1975.1
743.935	1975.1
744.12	2091.83
744.305	2050.87
744.49	1971
744.675	1981.24
744.86	1956.66
745.045	1979.19
745.23	1987.38
745.415	1882.94
745.6	1868.6
745.785	1938.23
745.97	1891.13
746.155	1878.84
746.34	1925.94
746.525	1819.45
746.71	1803.07
746.895	1846.07
747.079	1815.35
747.264	1846.07
747.449	1860.41
747.634	1864.5
747.819	1715
748.003	1805.11
748.188	1721.15
748.373	1770.3
748.557	1780.54
748.742	1868.6
748.927	1747.77
749.111	1815.35
749.296	1760.06
749.481	1788.73
749.665	1698.62
749.85	1665.85
750.034	1618.75
750.219	1729.34
750.404	1651.52
750.588	1655.61
750.773	1669.95
750.957	1473.34
751.141	1633.08
751.326	1661.76
751.51	1489.73
751.695	1528.64
751.879	1536.83
752.064	1516.35
752.248	1499.97
752.432	1542.97
752.617	1491.77
752.801	1520.45
752.985	1366.85
753.17	1487.68
753.354	1463.1
753.538	1403.71
753.722	1377.09
753.907	1395.52
754.091	1428.29
754.275	1334.08
754.459	1317.7
754.643	1381.18
754.828	1430.34
755.012	1442.62
755.196	1299.27
755.38	1379.14
755.564	1336.13
755.748	1329.99
755.932	1186.63
756.116	1368.9
756.3	1375.04
756.484	1303.36
756.668	1209.15
756.852	1286.98
757.036	1237.83
757.22	1350.46
757.404	1137.48
757.588	1149.76
757.772	1106.76
757.956	1243.97
758.14	1215.3
758.323	1270.59
758.507	1131.33
758.691	1180.48
758.875	1108.8
759.059	1305.41
759.242	1223.49
759.426	1147.72
759.61	1131.33
759.794	1141.57
759.977	1135.43
760.161	1256.26
760.345	1082.18
760.528	1157.96
760.712	1108.8
760.895	1080.13
761.079	1000.26
761.263	1047.37
761.446	1096.52
761.63	1035.08
761.813	1073.99
761.997	1125.19
762.18	985.93
762.364	1041.22
762.547	1049.41
762.731	1037.13
762.914	1069.89
763.098	1102.66
763.281	1063.75
763.464	1055.56
763.648	1092.42
763.831	904.01
764.015	922.44
764.198	1010.5
764.381	1020.74
764.564	918.34
764.748	1125.19
764.931	1002.31
765.114	965.45
765.297	936.78
765.481	924.49
765.664	957.25
765.847	940.87
766.03	1045.32
766.213	891.72
766.397	904.01
766.58	926.54
766.763	883.53
766.946	883.53
767.129	918.34
767.312	920.39
767.495	891.72
767.678	856.9
767.861	955.21
768.044	987.97
768.227	840.52
768.41	918.34
768.593	865.1
768.776	883.53
768.959	781.13
769.142	869.19
769.324	774.99
769.507	920.39
769.69	801.61
769.873	922.44
770.056	856.9
770.239	836.42
770.421	877.38
770.604	809.8
770.787	766.79
770.97	815.94
771.152	795.47
771.335	797.51
771.518	856.9
771.7	922.44
771.883	858.95
772.066	781.13
772.248	842.57
772.431	844.62
772.613	830.28
772.796	781.13
772.978	820.04
773.161	858.95
773.343	748.36
773.526	727.88
773.708	746.31
773.891	738.12
774.073	791.37
774.256	789.32
774.438	772.94
774.621	809.8
774.803	633.68
774.985	764.75
775.168	684.87
775.35	740.17
775.532	742.22
775.715	633.68
775.897	676.68
776.079	658.25
776.261	760.65
776.444	717.64
776.626	713.55
776.808	719.69
776.99	658.25
777.173	637.77
777.355	695.11
777.537	607.05
777.719	654.16
777.901	678.73
778.083	631.63
778.265	594.76
778.447	656.2
778.629	592.72
778.811	672.59
778.993	537.42
779.175	637.77
779.357	639.82
779.539	557.9
779.721	695.11
779.903	596.81
780.085	619.34
780.267	641.87
780.449	562
780.631	627.53
780.812	598.86
780.994	617.29
781.176	564.04
781.358	574.28
781.54	566.09
781.721	525.13
781.903	594.76
782.085	529.23
782.267	633.68
782.448	613.2
782.63	531.28
782.812	510.8
782.993	473.93
783.175	539.47
783.357	500.56
783.538	547.66
783.72	531.28
783.901	553.8
784.083	535.37
784.264	521.04
784.446	351.06
784.627	410.45
784.809	457.55
784.99	504.65
785.172	504.65
785.353	502.61
785.535	432.97
785.716	559.95
785.897	346.96
786.079	471.89
786.26	459.6
786.441	475.98
786.623	467.79
786.804	467.79
786.985	377.68
787.167	369.49
787.348	412.5
787.529	338.77
787.71	451.41
787.891	412.5
788.073	428.88
788.254	424.78
788.435	385.87
788.616	394.06
788.797	373.58
788.978	406.35
789.159	385.87
789.34	312.14
789.522	418.64
789.703	398.16
789.884	389.97
790.065	353.1
790.246	381.78
790.427	355.15
790.607	379.73
790.788	500.56
790.969	361.3
791.15	392.02
791.331	330.58
791.512	371.54
791.693	330.58
791.874	334.67
792.054	394.06
792.235	346.96
792.416	252.75
792.597	349.01
792.778	389.97
792.958	297.81
793.139	383.82
793.32	273.23
793.5	328.53
793.681	381.78
793.862	215.89
794.042	295.76
794.223	338.77
794.404	306
794.584	273.23
794.765	295.76
794.945	295.76
795.126	289.62
795.306	318.29
795.487	310.1
795.667	240.47
795.848	357.2
796.028	342.86
796.209	336.72
796.389	273.23
796.57	297.81
796.75	318.29
796.93	314.19
797.111	306
797.291	248.66
797.471	281.43
797.652	267.09
797.832	314.19
798.012	283.47
798.192	269.14
798.373	213.84
798.553	275.28
798.733	203.6
798.913	234.32
799.093	303.95
799.274	246.61
799.454	291.66
799.634	205.65
799.814	275.28
799.994	219.99
800.174	230.23
800.354	197.46
800.534	211.79
800.714	262.99
800.894	213.84
801.074	181.07
801.254	158.55
801.434	254.8
801.614	250.71
801.794	222.03
801.974	580.43
802.154	230.23
802.334	254.8
802.514	299.86
802.693	246.61
802.873	228.18
803.053	273.23
803.233	191.31
803.413	244.56
803.592	283.47
803.772	213.84
803.952	209.75
804.131	219.99
804.311	265.04
804.491	181.07
804.67	148.31
804.85	148.31
805.03	244.56
805.209	275.28
805.389	215.89
805.568	125.78
805.748	160.59
805.928	213.84
806.107	166.74
806.287	277.33
806.466	209.75
806.646	160.59
806.825	160.59
807.004	164.69
807.184	217.94
807.363	222.03
807.543	281.43
807.722	166.74
807.901	222.03
808.081	199.51
808.26	93.01
808.439	164.69
808.619	187.22
808.798	217.94
808.977	224.08
809.156	133.97
809.336	191.31
809.515	176.98
809.694	185.17
809.873	164.69
810.052	213.84
810.231	238.42
810.411	193.36
810.59	240.47
810.769	189.27
810.948	162.64
811.127	78.68
811.306	189.27
811.485	125.78
811.664	117.59
811.843	209.75
812.022	189.27
812.201	179.03
812.38	207.7
812.559	160.59
812.737	197.46
812.916	205.65
813.095	138.07
813.274	191.31
813.453	197.46
813.632	197.46
813.811	213.84
813.989	72.53
814.168	209.75
814.347	138.07
814.526	133.97
814.704	181.07
814.883	170.83
815.062	78.68
815.24	187.22
815.419	97.11
815.598	203.6
815.776	150.36
815.955	148.31
816.133	164.69
816.312	138.07
816.49	56.15
816.669	168.79
816.847	136.02
817.026	127.83
817.204	68.44
817.383	140.12
817.561	140.12
817.74	107.35
817.918	150.36
818.097	74.58
818.275	72.53
818.453	121.68
818.632	160.59
818.81	181.07
818.988	142.16
819.167	123.73
819.345	86.87
819.523	129.88
819.701	148.31
819.879	115.54
820.058	115.54
820.236	170.83
820.414	82.77
820.592	117.59
820.77	148.31
820.948	72.53
821.127	109.4
821.305	164.69
821.483	56.15
821.661	191.31
821.839	99.16
822.017	133.97
822.195	88.92
822.373	160.59
822.551	82.77
822.729	127.83
822.907	97.11
823.085	117.59
823.262	68.44
823.44	93.01
823.618	93.01
823.796	148.31
823.974	119.64
824.152	88.92
824.329	62.29
824.507	64.34
824.685	119.64
824.863	136.02
825.04	113.49
825.218	174.93
825.396	99.16
825.574	131.92
825.751	95.06
825.929	68.44
826.107	156.5
826.284	25.43
826.462	131.92
826.639	133.97
826.817	121.68
826.994	111.44
827.172	133.97
827.349	72.53
827.527	95.06
827.704	84.82
827.882	101.2
828.059	62.29
828.237	64.34
828.414	39.76
828.591	23.38
828.769	84.82
828.946	86.87
829.124	189.27
829.301	107.35
829.478	54.1
829.655	70.48
829.833	131.92
830.01	35.67
830.187	103.25
830.364	109.4
830.542	86.87
830.719	146.26
830.896	88.92
831.073	72.53
831.25	138.07
831.427	35.67
831.604	68.44
831.782	0.85
831.959	27.48
832.136	119.64
832.313	88.92
832.49	101.2
832.667	121.68
832.844	23.38
833.021	47.96
833.198	37.72
833.374	154.45
833.551	60.24
833.728	43.86
833.905	13.14
834.082	64.34
834.259	195.41
834.436	170.83
834.612	117.59
834.789	58.2
834.966	19.29
835.143	27.48
835.319	80.72
835.496	82.77
835.673	146.26
835.85	43.86
836.026	76.63
836.203	111.44
836.38	64.34
836.556	52.05
836.733	54.1
836.909	86.87
837.086	99.16
837.262	-31.91
837.439	-5.29
837.616	58.2
837.792	78.68
837.968	117.59
838.145	7
838.321	93.01
838.498	66.39
838.674	99.16
838.851	80.72
839.027	82.77
839.203	9.05
839.38	107.35
839.556	7
839.732	70.48
839.909	19.29
840.085	31.57
840.261	2.9
840.437	56.15
840.614	-11.43
840.79	54.1
840.966	72.53
841.142	4.95
841.318	27.48
841.494	142.16
841.671	107.35
841.847	68.44
842.023	19.29
842.199	-5.29
842.375	17.24
842.551	11.09
842.727	35.67
842.903	0.85
843.079	50
843.255	103.25
843.431	-21.67
843.607	-13.48
843.783	25.43
843.959	60.24
844.134	84.82
844.31	17.24
844.486	-23.72
844.662	90.96
844.838	107.35
845.013	74.58
845.189	117.59
845.365	131.92
845.541	23.38
845.716	54.1
845.892	131.92
846.068	-5.29
846.244	45.91
846.419	70.48
846.595	37.72
846.77	-29.87
846.946	93.01
847.122	-13.48
847.297	2.9
847.473	93.01
847.648	17.24
847.824	23.38
847.999	-31.91
848.175	-19.63
848.35	50
848.526	142.16
848.701	50
848.876	76.63
849.052	52.05
849.227	84.82
849.403	13.14
849.578	13.14
849.753	-5.29
849.929	-9.39
850.104	58.2
850.279	-3.24
850.454	31.57
850.63	-9.39
850.805	39.76
850.98	27.48
851.155	13.14
851.33	72.53
851.505	56.15
851.681	109.4
851.856	2.9
852.031	9.05
852.206	29.52
852.381	54.1
852.556	-42.15
852.731	21.33
852.906	101.2
853.081	11.09
853.256	0.85
853.431	68.44
853.606	47.96
853.781	33.62
853.956	50
854.131	-66.73
854.305	19.29
854.48	64.34
854.655	4.95
854.83	47.96
855.005	97.11
855.18	33.62
855.354	70.48
855.529	29.52
855.704	64.34
855.879	37.72
856.053	39.76
856.228	74.58
856.403	25.43
856.577	66.39
856.752	39.76
856.926	62.29
857.101	97.11
857.276	62.29
857.45	56.15
857.625	47.96
857.799	-5.29
857.974	31.57
858.148	-62.63
858.323	-3.24
858.497	31.57
858.672	60.24
858.846	11.09
859.02	76.63
859.195	-1.19
859.369	68.44
859.543	13.14
859.718	76.63
859.892	-3.24
860.066	80.72
860.241	50
860.415	72.53
860.589	27.48
860.763	90.96
860.938	31.57
861.112	41.81
861.286	50
861.46	88.92
861.634	115.54
861.808	64.34
861.982	25.43
862.157	39.76
862.331	58.2
862.505	27.48
862.679	-52.39
862.853	39.76
863.027	41.81
863.201	13.14
863.375	19.29
863.549	54.1
863.722	-62.63
863.896	76.63
864.07	109.4
864.244	101.2
864.418	76.63
864.592	35.67
864.766	11.09
864.939	27.48
865.113	-19.63
865.287	41.81
865.461	-9.39
865.634	0.85
865.808	43.86
865.982	41.81
866.156	-48.3
866.329	23.38
866.503	-15.53
866.676	19.29
866.85	31.57
867.024	41.81
867.197	58.2
867.371	47.96
867.544	-31.91
867.718	9.05
867.891	-1.19
868.065	-7.34
868.238	15.19
868.412	60.24
868.585	-5.29
868.759	-40.11
868.932	11.09
869.105	52.05
869.279	52.05
869.452	-40.11
869.625	27.48
869.799	-27.82
869.972	33.62
870.145	-23.72
870.319	21.33
870.492	-29.87
870.665	-23.72
870.838	-56.49
871.011	-54.44
871.185	35.67
871.358	54.1
871.531	66.39
871.704	2.9
871.877	52.05
872.05	21.33
872.223	0.85
872.396	31.57
872.569	-5.29
872.742	-58.54
872.915	70.48
873.088	7
873.261	35.67
873.434	4.95
873.607	45.91
873.78	39.76
873.953	2.9
874.126	-23.72
874.299	78.68
874.471	-11.43
874.644	15.19
874.817	2.9
874.99	54.1
875.163	21.33
875.335	35.67
875.508	125.78
875.681	33.62
875.853	-17.58
876.026	-21.67
876.199	31.57
876.371	13.14
876.544	13.14
876.717	107.35
876.889	-103.59
877.062	41.81
877.234	-13.48
877.407	-42.15
877.579	-17.58
877.752	13.14
877.924	-7.34
878.097	19.29
878.269	15.19
878.442	113.49
878.614	-56.49
878.786	-23.72
878.959	-7.34
879.131	17.24
879.303	-19.63
879.476	41.81
879.648	105.3
879.82	21.33
879.993	-3.24
880.165	45.91
880.337	-9.39
880.509	0.85
880.681	-25.77
880.854	-1.19
881.026	-3.24
881.198	113.49
881.37	9.05
881.542	19.29
881.714	17.24
881.886	-5.29
882.058	56.15
882.23	-17.58
882.402	17.24
882.574	23.38
882.746	76.63
882.918	58.2
883.09	-11.43
883.262	-42.15
883.434	-44.2
883.606	7
883.778	4.95
883.95	35.67
884.122	0.85
884.293	33.62
884.465	-40.11
884.637	9.05
884.809	-13.48
884.98	56.15
885.152	-33.96
885.324	23.38
885.496	-44.2
885.667	27.48
885.839	-27.82
886.011	45.91
886.182	7
886.354	47.96
886.525	-19.63
886.697	-23.72
886.869	-42.15
887.04	27.48
887.212	-7.34
887.383	82.77
887.555	-91.31
887.726	25.43
887.897	-23.72
888.069	93.01
888.24	43.86
888.412	56.15
888.583	-38.06
888.754	80.72
888.926	-38.06
889.097	-3.24
889.268	17.24
889.44	13.14
889.611	-72.87
889.782	17.24
889.953	9.05
890.125	50
890.296	-27.82
890.467	-36.01
890.638	-11.43
890.809	68.44
890.98	25.43
891.151	88.92
891.323	-27.82
891.494	-13.48
891.665	2.9
891.836	-15.53
892.007	45.91
892.178	29.52
892.349	7
892.52	-66.73
892.691	29.52
892.862	76.63
893.032	-21.67
893.203	-64.68
893.374	62.29
893.545	13.14
893.716	-36.01
893.887	9.05
894.057	-15.53
894.228	58.2
894.399	-23.72
894.57	13.14
894.74	21.33
894.911	-25.77
895.082	45.91
895.253	13.14
895.423	-15.53
895.594	-36.01
895.764	35.67
895.935	-87.21
896.106	4.95
896.276	-62.63
896.447	47.96
896.617	58.2
896.788	-13.48
896.958	29.52
897.129	-9.39
897.299	-25.77
897.47	35.67
897.64	21.33
897.81	-15.53
897.981	0.85
898.151	56.15
898.322	47.96
898.492	66.39
898.662	23.38
898.832	-21.67
899.003	7
899.173	-21.67
899.343	13.14
899.513	-62.63
