Data from USB4F104151__54__12-36-17-296.txt Node

Date: Fri Mar 14 12:36:17 EDT 2025
User: louis
Spectrometer: USB4F10415
Trigger mode: 4
Integration Time (sec): 2.000000E-2
Scans to average: 1
Electric dark correction enabled: true
Nonlinearity correction enabled: false
Boxcar width: 0
XAxis mode: Wavelengths
Number of Pixels in Spectrum: 3648
>>>>>Begin Spectral Data<<<<<
178.204	-116.9
178.424	-116.9
178.644	-116.9
178.864	-26.79
179.084	-53.42
179.304	-22.7
179.524	32.6
179.744	-14.51
179.964	65.36
180.184	42.84
180.404	-24.75
180.624	-43.18
180.844	-18.6
181.064	5.97
181.283	32.6
181.503	-47.27
181.723	-8.36
181.943	-2.22
182.163	102.23
182.383	67.41
182.602	46.93
182.822	34.64
183.042	53.08
183.262	48.98
183.482	-32.94
183.701	-34.99
183.921	5.97
184.141	-8.36
184.361	51.03
184.58	-18.6
184.8	34.64
185.02	102.23
185.239	5.97
185.459	53.08
185.679	100.18
185.898	12.12
186.118	-10.41
186.338	-0.17
186.557	-26.79
186.777	-12.46
186.997	-10.41
187.216	30.55
187.436	18.26
187.655	12.12
187.875	34.64
188.095	98.13
188.314	20.31
188.534	-14.51
188.753	-45.23
188.973	-18.6
189.192	-14.51
189.412	16.21
189.631	100.18
189.851	-14.51
190.07	34.64
190.29	-10.41
190.509	-18.6
190.729	-6.31
190.948	10.07
191.168	69.46
191.387	12.12
191.607	-26.79
191.826	75.6
192.045	57.17
192.265	-45.23
192.484	-4.27
192.704	20.31
192.923	-22.7
193.142	40.79
193.362	-2.22
193.581	36.69
193.8	36.69
194.02	-10.41
194.239	-20.65
194.458	18.26
194.678	69.46
194.897	87.89
195.116	71.51
195.335	16.21
195.555	40.79
195.774	5.97
195.993	20.31
196.212	44.88
196.432	89.94
196.651	24.4
196.87	-32.94
197.089	20.31
197.308	67.41
197.528	53.08
197.747	-51.37
197.966	87.89
198.185	-12.46
198.404	-34.99
198.623	57.17
198.842	-28.84
199.062	38.74
199.281	48.98
199.5	3.93
199.719	22.36
199.938	104.28
200.157	67.41
200.376	34.64
200.595	1.88
200.814	69.46
201.033	-26.79
201.252	-22.7
201.471	28.5
201.69	16.21
201.909	108.37
202.128	40.79
202.347	20.31
202.566	38.74
202.785	1.88
203.004	65.36
203.223	59.22
203.442	44.88
203.661	-37.03
203.879	-90.28
204.098	-59.56
204.317	34.64
204.536	36.69
204.755	-2.22
204.974	26.45
205.193	-61.61
205.411	14.17
205.63	16.21
205.849	-16.55
206.068	22.36
206.287	16.21
206.505	48.98
206.724	10.07
206.943	10.07
207.162	-4.27
207.381	12.12
207.599	16.21
207.818	77.65
208.037	12.12
208.255	3.93
208.474	16.21
208.693	14.17
208.911	-6.31
209.13	71.51
209.349	48.98
209.567	77.65
209.786	40.79
210.005	14.17
210.223	1.88
210.442	-100.52
210.661	46.93
210.879	14.17
211.098	3.93
211.316	79.7
211.535	44.88
211.753	-24.75
211.972	26.45
212.191	12.12
212.409	46.93
212.628	10.07
212.846	32.6
213.065	-0.17
213.283	44.88
213.502	18.26
213.72	77.65
213.938	-45.23
214.157	28.5
214.375	-47.27
214.594	-32.94
214.812	77.65
215.031	12.12
215.249	53.08
215.467	-59.56
215.686	48.98
215.904	26.45
216.122	14.17
216.341	42.84
216.559	24.4
216.778	8.02
216.996	12.12
217.214	-4.27
217.432	-30.89
217.651	8.02
217.869	12.12
218.087	36.69
218.306	-26.79
218.524	55.12
218.742	-55.47
218.96	-6.31
219.179	-47.27
219.397	85.84
219.615	-39.08
219.833	40.79
220.051	-61.61
220.27	53.08
220.488	57.17
220.706	-8.36
220.924	63.32
221.142	40.79
221.36	8.02
221.578	-51.37
221.796	38.74
222.015	3.93
222.233	69.46
222.451	30.55
222.669	-41.13
222.887	-4.27
223.105	-22.7
223.323	98.13
223.541	-92.33
223.759	48.98
223.977	8.02
224.195	53.08
224.413	36.69
224.631	-8.36
224.849	-30.89
225.067	24.4
225.285	46.93
225.503	-47.27
225.721	-75.95
225.939	87.89
226.157	-4.27
226.375	24.4
226.592	36.69
226.81	32.6
227.028	3.93
227.246	26.45
227.464	30.55
227.682	55.12
227.9	34.64
228.117	18.26
228.335	-8.36
228.553	-16.55
228.771	42.84
228.989	-12.46
229.206	16.21
229.424	100.18
229.642	57.17
229.86	-16.55
230.077	16.21
230.295	24.4
230.513	22.36
230.731	83.8
230.948	-26.79
231.166	32.6
231.384	-73.9
231.601	-26.79
231.819	38.74
232.037	-12.46
232.254	-49.32
232.472	-22.7
232.689	-67.75
232.907	-43.18
233.125	51.03
233.342	16.21
233.56	-34.99
233.777	1.88
233.995	-12.46
234.213	16.21
234.43	34.64
234.648	44.88
234.865	-53.42
235.083	-0.17
235.3	-63.66
235.518	-14.51
235.735	-2.22
235.953	30.55
236.17	63.32
236.388	28.5
236.605	5.97
236.822	55.12
237.04	34.64
237.257	71.51
237.475	-53.42
237.692	8.02
237.909	14.17
238.127	-4.27
238.344	16.21
238.562	53.08
238.779	-16.55
238.996	-26.79
239.214	79.7
239.431	-18.6
239.648	14.17
239.865	-18.6
240.083	69.46
240.3	-20.65
240.517	26.45
240.735	18.26
240.952	18.26
241.169	100.18
241.386	18.26
241.603	-2.22
241.821	10.07
242.038	71.51
242.255	-6.31
242.472	-41.13
242.689	14.17
242.907	65.36
243.124	-20.65
243.341	-22.7
243.558	14.17
243.775	-10.41
243.992	-39.08
244.209	3.93
244.426	-24.75
244.643	51.03
244.86	-16.55
245.078	14.17
245.295	16.21
245.512	44.88
245.729	-0.17
245.946	-6.31
246.163	22.36
246.38	-10.41
246.597	106.32
246.814	65.36
247.031	34.64
247.248	32.6
247.464	24.4
247.681	12.12
247.898	22.36
248.115	-10.41
248.332	-20.65
248.549	-47.27
248.766	110.42
248.983	36.69
249.2	32.6
249.417	53.08
249.633	44.88
249.85	-41.13
250.067	8.02
250.284	44.88
250.501	16.21
250.717	89.94
250.934	-18.6
251.151	28.5
251.368	-26.79
251.585	85.84
251.801	55.12
252.018	48.98
252.235	24.4
252.451	-32.94
252.668	-20.65
252.885	51.03
253.102	46.93
253.318	-26.79
253.535	-8.36
253.752	12.12
253.968	-20.65
254.185	63.32
254.401	-6.31
254.618	53.08
254.835	-45.23
255.051	34.64
255.268	14.17
255.484	5.97
255.701	75.6
255.917	28.5
256.134	3.93
256.351	10.07
256.567	-30.89
256.784	34.64
257	-10.41
257.217	59.22
257.433	20.31
257.65	10.07
257.866	65.36
258.082	-26.79
258.299	-20.65
258.515	46.93
258.732	26.45
258.948	-8.36
259.165	46.93
259.381	-28.84
259.597	73.56
259.814	22.36
260.03	-6.31
260.246	-16.55
260.463	24.4
260.679	122.71
260.895	94.04
261.112	108.37
261.328	-10.41
261.544	-14.51
261.761	94.04
261.977	51.03
262.193	-37.03
262.409	-22.7
262.626	55.12
262.842	18.26
263.058	-32.94
263.274	-4.27
263.49	1.88
263.707	16.21
263.923	48.98
264.139	-8.36
264.355	149.33
264.571	-18.6
264.787	12.12
265.004	18.26
265.22	46.93
265.436	-22.7
265.652	44.88
265.868	42.84
266.084	-0.17
266.3	36.69
266.516	-14.51
266.732	42.84
266.948	30.55
267.164	-2.22
267.38	91.99
267.596	67.41
267.812	63.32
268.028	75.6
268.244	59.22
268.46	83.8
268.676	-22.7
268.892	46.93
269.108	-22.7
269.324	-26.79
269.54	22.36
269.756	20.31
269.972	-51.37
270.188	-8.36
270.403	-63.66
270.619	20.31
270.835	20.31
271.051	87.89
271.267	3.93
271.483	40.79
271.698	63.32
271.914	-10.41
272.13	20.31
272.346	20.31
272.562	28.5
272.777	14.17
272.993	-6.31
273.209	46.93
273.425	-28.84
273.64	-20.65
273.856	5.97
274.072	1.88
274.287	16.21
274.503	-18.6
274.719	32.6
274.934	38.74
275.15	-80.04
275.366	36.69
275.581	-77.99
275.797	48.98
276.012	10.07
276.228	-20.65
276.444	44.88
276.659	12.12
276.875	-41.13
277.09	-39.08
277.306	-4.27
277.521	-4.27
277.737	26.45
277.952	46.93
278.168	18.26
278.383	24.4
278.599	14.17
278.814	46.93
279.03	-6.31
279.245	14.17
279.461	55.12
279.676	44.88
279.892	-39.08
280.107	40.79
280.322	8.02
280.538	51.03
280.753	-28.84
280.969	71.51
281.184	81.75
281.399	-16.55
281.615	36.69
281.83	120.66
282.045	55.12
282.26	30.55
282.476	5.97
282.691	71.51
282.906	18.26
283.122	75.6
283.337	-10.41
283.552	20.31
283.767	-102.57
283.983	87.89
284.198	-28.84
284.413	38.74
284.628	28.5
284.843	-18.6
285.058	69.46
285.274	53.08
285.489	22.36
285.704	12.12
285.919	-12.46
286.134	-24.75
286.349	38.74
286.564	-4.27
286.779	48.98
286.995	38.74
287.21	-10.41
287.425	100.18
287.64	8.02
287.855	10.07
288.07	20.31
288.285	67.41
288.5	46.93
288.715	24.4
288.93	53.08
289.145	28.5
289.36	14.17
289.575	-30.89
289.79	20.31
290.004	-12.46
290.219	30.55
290.434	-4.27
290.649	10.07
290.864	51.03
291.079	1.88
291.294	63.32
291.509	-26.79
291.724	-6.31
291.938	-10.41
292.153	16.21
292.368	-4.27
292.583	-4.27
292.798	22.36
293.012	24.4
293.227	-22.7
293.442	8.02
293.657	75.6
293.871	-49.32
294.086	22.36
294.301	16.21
294.516	-22.7
294.73	-34.99
294.945	77.65
295.16	-4.27
295.374	26.45
295.589	63.32
295.804	10.07
296.018	-63.66
296.233	-12.46
296.447	-14.51
296.662	38.74
296.877	26.45
297.091	38.74
297.306	65.36
297.52	22.36
297.735	63.32
297.949	-34.99
298.164	30.55
298.378	-28.84
298.593	42.84
298.807	8.02
299.022	79.7
299.236	57.17
299.451	79.7
299.665	71.51
299.88	73.56
300.094	-0.17
300.309	-49.32
300.523	18.26
300.737	26.45
300.952	-37.03
301.166	40.79
301.381	-20.65
301.595	24.4
301.809	1.88
302.024	44.88
302.238	-8.36
302.452	-6.31
302.667	44.88
302.881	36.69
303.095	24.4
303.309	-2.22
303.524	-12.46
303.738	12.12
303.952	55.12
304.166	-8.36
304.381	-14.51
304.595	48.98
304.809	44.88
305.023	69.46
305.237	-63.66
305.452	38.74
305.666	-12.46
305.88	94.04
306.094	-16.55
306.308	-10.41
306.522	-10.41
306.736	57.17
306.95	-55.47
307.164	-28.84
307.379	34.64
307.593	16.21
307.807	44.88
308.021	-14.51
308.235	-8.36
308.449	-2.22
308.663	-20.65
308.877	48.98
309.091	5.97
309.305	36.69
309.519	-57.51
309.733	51.03
309.947	-34.99
310.161	57.17
310.374	48.98
310.588	-4.27
310.802	-6.31
311.016	-24.75
311.23	55.12
311.444	24.4
311.658	8.02
311.872	65.36
312.085	-14.51
312.299	18.26
312.513	61.27
312.727	-47.27
312.941	26.45
313.154	26.45
313.368	-26.79
313.582	61.27
313.796	-28.84
314.009	-4.27
314.223	12.12
314.437	5.97
314.651	57.17
314.864	3.93
315.078	-12.46
315.292	3.93
315.505	100.18
315.719	71.51
315.933	65.36
316.146	20.31
316.36	48.98
316.573	77.65
316.787	24.4
317.001	57.17
317.214	-34.99
317.428	67.41
317.641	-77.99
317.855	20.31
318.068	5.97
318.282	46.93
318.495	63.32
318.709	40.79
318.922	36.69
319.136	44.88
319.349	10.07
319.563	8.02
319.776	16.21
319.99	-43.18
320.203	-18.6
320.417	71.51
320.63	1.88
320.843	71.51
321.057	51.03
321.27	-6.31
321.483	61.27
321.697	36.69
321.91	44.88
322.124	-20.65
322.337	55.12
322.55	63.32
322.763	-43.18
322.977	89.94
323.19	-26.79
323.403	14.17
323.617	87.89
323.83	69.46
324.043	-0.17
324.256	16.21
324.469	-2.22
324.683	61.27
324.896	1.88
325.109	-6.31
325.322	71.51
325.535	104.28
325.748	-2.22
325.962	-20.65
326.175	-10.41
326.388	20.31
326.601	20.31
326.814	14.17
327.027	-53.42
327.24	44.88
327.453	-51.37
327.666	12.12
327.879	32.6
328.092	18.26
328.305	69.46
328.518	28.5
328.731	44.88
328.944	55.12
329.157	65.36
329.37	16.21
329.583	36.69
329.796	61.27
330.009	-69.8
330.222	-10.41
330.435	87.89
330.648	42.84
330.861	-0.17
331.073	46.93
331.286	24.4
331.499	-30.89
331.712	3.93
331.925	-16.55
332.138	112.47
332.35	53.08
332.563	3.93
332.776	65.36
332.989	-26.79
333.202	14.17
333.414	32.6
333.627	94.04
333.84	12.12
334.053	51.03
334.265	94.04
334.478	28.5
334.691	10.07
334.903	-6.31
335.116	20.31
335.329	16.21
335.541	57.17
335.754	14.17
335.966	71.51
336.179	63.32
336.392	3.93
336.604	-26.79
336.817	38.74
337.029	-43.18
337.242	14.17
337.454	53.08
337.667	-6.31
337.88	34.64
338.092	-34.99
338.305	69.46
338.517	28.5
338.729	63.32
338.942	63.32
339.154	63.32
339.367	-24.75
339.579	8.02
339.792	1.88
340.004	46.93
340.217	-10.41
340.429	120.66
340.641	51.03
340.854	12.12
341.066	102.23
341.278	-6.31
341.491	71.51
341.703	42.84
341.915	-39.08
342.128	112.47
342.34	18.26
342.552	22.36
342.764	61.27
342.977	32.6
343.189	-16.55
343.401	28.5
343.613	-61.61
343.826	-24.75
344.038	-6.31
344.25	1.88
344.462	22.36
344.674	-20.65
344.886	28.5
345.099	36.69
345.311	51.03
345.523	-47.27
345.735	1.88
345.947	-18.6
346.159	46.93
346.371	-10.41
346.583	-22.7
346.795	71.51
347.007	20.31
347.219	46.93
347.431	55.12
347.643	61.27
347.855	-57.51
348.067	48.98
348.279	18.26
348.491	5.97
348.703	53.08
348.915	32.6
349.127	-10.41
349.339	-18.6
349.551	18.26
349.763	24.4
349.975	-10.41
350.187	112.47
350.399	30.55
350.61	69.46
350.822	-24.75
351.034	67.41
351.246	48.98
351.458	-8.36
351.669	32.6
351.881	38.74
352.093	22.36
352.305	22.36
352.517	26.45
352.728	51.03
352.94	-34.99
353.152	53.08
353.363	-28.84
353.575	48.98
353.787	36.69
353.999	67.41
354.21	-22.7
354.422	-10.41
354.633	63.32
354.845	36.69
355.057	57.17
355.268	-45.23
355.48	128.85
355.692	-18.6
355.903	53.08
356.115	53.08
356.326	73.56
356.538	48.98
356.749	14.17
356.961	57.17
357.172	-49.32
357.384	-10.41
357.595	-16.55
357.807	61.27
358.018	57.17
358.23	16.21
358.441	38.74
358.653	8.02
358.864	28.5
359.075	10.07
359.287	22.36
359.498	63.32
359.709	-8.36
359.921	20.31
360.132	20.31
360.344	-39.08
360.555	36.69
360.766	94.04
360.977	-43.18
361.189	100.18
361.4	-34.99
361.611	69.46
361.823	77.65
362.034	1.88
362.245	-26.79
362.456	44.88
362.667	48.98
362.879	61.27
363.09	77.65
363.301	40.79
363.512	89.94
363.723	28.5
363.935	44.88
364.146	65.36
364.357	-45.23
364.568	26.45
364.779	-45.23
364.99	44.88
365.201	16.21
365.412	28.5
365.623	-6.31
365.834	32.6
366.045	-16.55
366.256	98.13
366.467	28.5
366.678	-59.56
366.889	12.12
367.1	-0.17
367.311	-34.99
367.522	44.88
367.733	59.22
367.944	83.8
368.155	-34.99
368.366	67.41
368.577	22.36
368.788	65.36
368.999	8.02
369.209	87.89
369.42	28.5
369.631	118.61
369.842	42.84
370.053	53.08
370.264	-22.7
370.474	61.27
370.685	10.07
370.896	-6.31
371.107	143.19
371.317	75.6
371.528	77.65
371.739	-0.17
371.95	26.45
372.16	-34.99
372.371	71.51
372.582	53.08
372.792	-34.99
373.003	-37.03
373.214	-24.75
373.424	20.31
373.635	32.6
373.846	46.93
374.056	22.36
374.267	36.69
374.477	40.79
374.688	-2.22
374.898	22.36
375.109	-2.22
375.319	38.74
375.53	85.84
375.74	26.45
375.951	20.31
376.161	40.79
376.372	71.51
376.582	96.08
376.793	10.07
377.003	12.12
377.214	73.56
377.424	48.98
377.635	53.08
377.845	-34.99
378.055	44.88
378.266	-61.61
378.476	44.88
378.686	65.36
378.897	61.27
379.107	75.6
379.317	44.88
379.528	48.98
379.738	59.22
379.948	12.12
380.158	26.45
380.369	114.52
380.579	87.89
380.789	38.74
380.999	100.18
381.21	61.27
381.42	46.93
381.63	20.31
381.84	106.32
382.05	18.26
382.261	87.89
382.471	65.36
382.681	59.22
382.891	-2.22
383.101	-22.7
383.311	-32.94
383.521	1.88
383.731	79.7
383.941	16.21
384.151	77.65
384.361	1.88
384.571	40.79
384.781	94.04
384.991	30.55
385.201	14.17
385.411	57.17
385.621	44.88
385.831	67.41
386.041	108.37
386.251	87.89
386.461	132.95
386.671	51.03
386.881	3.93
387.091	-24.75
387.301	46.93
387.511	69.46
387.72	26.45
387.93	114.52
388.14	1.88
388.35	38.74
388.56	79.7
388.769	71.51
388.979	42.84
389.189	79.7
389.399	-8.36
389.609	34.64
389.818	12.12
390.028	79.7
390.238	61.27
390.447	42.84
390.657	20.31
390.867	-59.56
391.076	3.93
391.286	46.93
391.496	73.56
391.705	14.17
391.915	89.94
392.125	46.93
392.334	-61.61
392.544	44.88
392.753	14.17
392.963	32.6
393.172	69.46
393.382	-39.08
393.591	38.74
393.801	8.02
394.01	46.93
394.22	102.23
394.429	87.89
394.639	36.69
394.848	59.22
395.058	59.22
395.267	38.74
395.477	32.6
395.686	44.88
395.895	-0.17
396.105	36.69
396.314	63.32
396.524	24.4
396.733	71.51
396.942	61.27
397.152	81.75
397.361	61.27
397.57	77.65
397.78	51.03
397.989	42.84
398.198	120.66
398.407	96.08
398.617	28.5
398.826	55.12
399.035	61.27
399.244	63.32
399.453	67.41
399.663	108.37
399.872	46.93
400.081	5.97
400.29	122.71
400.499	18.26
400.708	63.32
400.917	55.12
401.127	46.93
401.336	55.12
401.545	120.66
401.754	69.46
401.963	44.88
402.172	55.12
402.381	38.74
402.59	116.56
402.799	91.99
403.008	87.89
403.217	96.08
403.426	128.85
403.635	108.37
403.844	71.51
404.053	87.89
404.262	71.51
404.471	71.51
404.68	55.12
404.888	87.89
405.097	81.75
405.306	106.32
405.515	153.43
405.724	126.8
405.933	51.03
406.142	118.61
406.35	1.88
406.559	69.46
406.768	77.65
406.977	91.99
407.185	112.47
407.394	10.07
407.603	57.17
407.812	77.65
408.02	89.94
408.229	42.84
408.438	73.56
408.646	85.84
408.855	180.05
409.064	89.94
409.272	149.33
409.481	159.57
409.69	100.18
409.898	73.56
410.107	122.71
410.315	141.14
410.524	124.76
410.733	110.42
410.941	216.91
411.15	157.52
411.358	135
411.567	173.91
411.775	186.19
411.984	214.87
412.192	186.19
412.401	221.01
412.609	171.86
412.818	241.49
413.026	286.54
413.234	202.58
413.443	241.49
413.651	239.44
413.86	206.67
414.068	261.97
414.276	352.08
414.485	200.53
414.693	223.06
414.901	278.35
415.11	296.78
415.318	300.88
415.526	300.88
415.734	347.98
415.943	341.84
416.151	374.61
416.359	341.84
416.567	401.23
416.776	302.93
416.984	460.62
417.192	376.66
417.4	436.05
417.608	524.11
417.817	462.67
418.025	509.77
418.233	530.25
418.441	540.49
418.649	517.97
418.857	558.92
419.065	614.22
419.273	479.05
419.481	595.79
419.689	595.79
419.897	608.08
420.105	689.99
420.313	710.47
420.521	714.57
420.729	769.87
420.937	776.01
421.145	810.82
421.353	792.39
421.561	945.99
421.769	884.55
421.977	929.61
422.185	960.33
422.393	909.13
422.601	976.71
422.809	1034.05
423.017	1056.58
423.224	1118.02
423.432	1085.25
423.64	1150.79
423.848	1189.7
424.056	1214.27
424.263	1349.44
424.471	1201.99
424.679	1331.01
424.887	1376.06
425.094	1480.51
425.302	1490.75
425.51	1539.9
425.718	1511.23
425.925	1546.05
426.133	1730.36
426.341	1724.22
426.548	1802.04
426.756	1756.99
426.964	1900.34
427.171	1902.39
427.379	2023.22
427.586	1994.55
427.794	2021.17
428.001	2240.31
428.209	2348.85
428.417	2234.16
428.624	2342.71
428.832	2430.77
429.039	2334.51
429.247	2453.3
429.454	2721.58
429.662	2768.68
429.869	2545.45
430.076	2877.23
430.284	2662.19
430.491	2875.18
430.699	3061.54
430.906	3016.49
431.114	3079.97
431.321	3059.49
431.528	3204.9
431.736	3430.18
431.943	3540.77
432.15	3495.71
432.358	3487.52
432.565	3700.51
432.772	3659.55
432.979	3753.76
433.187	3895.07
433.394	3929.88
433.601	4198.17
433.808	4210.45
434.016	4255.51
434.223	4269.84
434.43	4779.79
434.637	4544.27
434.844	4839.18
435.052	5009.16
435.259	4880.14
435.466	5021.45
435.673	4998.92
435.88	5187.33
436.087	5441.28
436.294	5641.98
436.501	5332.74
436.708	5635.84
436.915	5584.64
437.122	5934.84
437.329	5900.03
437.537	6035.19
437.743	6166.26
437.95	6285.05
438.157	6665.97
438.364	6815.47
438.571	6649.58
438.778	6838
438.985	7374.56
439.192	7120.62
439.399	7223.02
439.606	7272.17
439.813	7595.75
440.02	8074.97
440.227	8015.58
440.433	7741.15
440.64	7978.72
440.847	7845.6
441.054	8154.84
441.261	8795.86
441.467	8713.94
441.674	8709.84
441.881	9080.52
442.088	9098.95
442.294	9084.62
442.501	9354.95
442.708	9572.04
442.914	9785.02
443.121	10258.1
443.328	9983.68
443.534	10733.23
443.741	10368.7
443.948	10370.74
444.154	10983.09
444.361	10880.69
444.568	11165.35
444.774	10991.28
444.981	11167.4
445.187	11376.3
445.394	11873.95
445.6	11878.05
445.807	13082.25
446.013	12410.52
446.22	12543.64
446.426	12930.7
446.633	13033.1
446.839	13614.73
447.046	13239.95
447.252	13975.17
447.459	13997.7
447.665	13803.14
447.871	14380.67
448.078	15197.81
448.284	14157.44
448.491	14622.33
448.697	15369.83
448.903	15537.77
449.11	15597.16
449.316	15349.36
449.522	15801.96
449.728	15994.47
449.935	16354.91
450.141	16270.94
450.347	16606.81
450.553	16045.66
450.76	16328.28
450.966	16967.25
451.172	16823.89
451.378	17296.97
451.584	16858.71
451.791	17321.55
451.997	17116.75
452.203	17395.28
452.409	17528.39
452.615	17382.99
452.821	16850.52
453.027	16592.47
453.233	17464.91
453.44	16791.13
453.646	16995.92
453.852	17051.22
454.058	17473.1
454.264	16991.83
454.47	17092.18
454.676	16602.71
454.882	17473.1
455.088	15869.54
455.294	16008.8
455.5	16236.13
455.705	16272.99
455.911	15572.58
456.117	15541.86
456.323	15042.16
456.529	14759.54
456.735	15177.33
456.941	14777.97
457.147	14339.71
457.352	13837.95
457.558	13751.94
457.764	13813.38
457.97	13596.29
458.176	13319.82
458.381	13465.22
458.587	12623.51
458.793	12801.68
458.999	11937.44
459.204	12936.85
459.41	12508.82
459.616	11679.4
459.821	11722.4
460.027	11640.48
460.233	11171.5
460.438	10796.72
460.644	10938.03
460.85	10305.21
461.055	10305.21
461.261	10243.77
461.466	9498.31
461.672	9248.46
461.878	10028.73
462.083	9256.65
462.289	8924.88
462.494	8826.57
462.7	8593.11
462.905	8316.63
463.111	8664.79
463.316	8877.77
463.522	8478.42
463.727	8382.17
463.932	8353.49
464.138	8351.45
464.343	8333.01
464.549	8120.03
464.754	8330.97
464.959	8220.38
465.165	8343.25
465.37	7925.47
465.575	7646.94
465.781	8167.13
465.986	7943.9
466.191	7737.06
466.397	7575.27
466.602	7276.26
466.807	7601.89
467.012	7519.97
467.218	7390.95
467.423	7315.17
467.628	7438.05
467.833	7657.18
468.038	7499.49
468.244	7300.84
468.449	7489.25
468.654	7405.28
468.859	7251.69
469.064	7194.34
469.269	6915.82
469.474	7071.47
469.679	6901.48
469.885	6981.35
470.09	6940.4
470.295	6932.2
470.5	6758.13
470.705	6797.04
470.91	6524.66
471.115	6582
471.32	6618.86
471.525	6625.01
471.73	6401.78
471.935	6545.14
472.139	6260.47
472.344	6418.16
472.549	6246.13
472.754	6375.16
472.959	5953.27
473.164	6006.52
473.369	5844.73
473.574	6104.82
473.778	6078.2
473.983	5846.78
474.188	6035.19
474.393	5848.83
474.598	5648.13
474.802	5609.22
475.007	5705.47
475.212	5629.7
475.417	5402.37
475.621	5433.09
475.826	5402.37
476.031	5324.55
476.235	5244.68
476.44	5287.68
476.645	5166.85
476.849	5293.83
477.054	5105.42
477.259	5019.4
477.463	5025.54
477.668	4996.87
477.872	4933.39
478.077	4871.95
478.282	4708.11
478.486	4749.07
478.691	4761.36
478.895	4734.73
479.1	4570.9
479.304	4783.88
479.509	4478.74
479.713	4642.57
479.918	4511.5
480.122	4390.67
480.326	4661.01
480.531	4566.8
480.735	4478.74
480.94	4476.69
481.144	4710.16
481.348	4247.32
481.553	4468.5
481.757	4400.91
481.961	4468.5
482.166	4376.34
482.37	4421.39
482.574	4269.84
482.778	4257.56
482.983	4306.71
483.187	4376.34
483.391	4411.15
483.595	4407.06
483.8	4382.48
484.004	4343.57
484.208	4484.88
484.412	4206.36
484.616	4448.02
484.821	4472.59
485.025	4286.23
485.229	4345.62
485.433	4294.42
485.637	4431.63
485.841	4232.98
486.045	4482.83
486.249	4323.09
486.453	4396.82
486.657	4308.76
486.861	4308.76
487.065	4222.74
487.269	4314.9
487.473	4321.04
487.677	4337.43
487.881	4462.35
488.085	4382.48
488.289	4362
488.493	4306.71
488.697	4402.96
488.901	4271.89
489.105	4306.71
489.309	4417.3
489.512	4359.95
489.716	4513.55
489.92	4411.15
490.124	4462.35
490.328	4409.11
490.531	4376.34
490.735	4546.32
490.939	4499.22
491.143	4536.08
491.346	4538.13
491.55	4564.75
491.754	4648.72
491.958	4581.14
492.161	4511.5
492.365	4771.6
492.569	4583.18
492.772	4630.29
492.976	4652.81
493.18	4626.19
493.383	4855.56
493.587	4785.93
493.79	4878.09
493.994	4775.69
494.197	4890.38
494.401	4982.54
494.605	4771.6
494.808	4863.76
495.012	5025.54
495.215	5099.27
495.419	5050.12
495.622	5113.61
495.825	5095.18
496.029	5058.31
496.232	5316.36
496.436	5310.21
496.639	5455.62
496.843	5439.23
497.046	5299.97
497.249	5334.79
497.453	5568.26
497.656	5601.02
497.859	5611.26
498.063	5629.7
498.266	5895.93
498.469	5916.41
498.673	5934.84
498.876	5877.5
499.079	6072.06
499.282	6029.05
499.485	6215.41
499.689	6096.63
499.892	6389.49
500.095	6227.7
500.298	6561.52
500.501	6428.4
500.705	6686.45
500.908	6713.07
501.111	6809.33
501.314	6815.47
501.517	6819.57
501.72	6827.76
501.923	7153.38
502.126	7173.86
502.329	7323.37
502.532	7186.15
502.735	7249.64
502.938	7505.63
503.141	7536.35
503.344	7601.89
503.547	7544.55
503.75	7853.79
503.953	7761.63
504.156	8044.25
504.359	8025.82
504.562	8089.31
504.765	8210.14
504.968	8384.21
505.17	8681.17
505.373	8470.23
505.576	8705.74
505.779	8726.22
505.982	8701.65
506.185	9074.38
506.387	9070.28
506.59	9246.41
506.793	9410.25
506.996	9367.24
507.198	9668.29
507.401	9418.44
507.604	9842.37
507.807	9852.61
508.009	10100.41
508.212	10108.6
508.415	10288.82
508.617	10524.34
508.82	10340.02
509.022	10325.69
509.225	10761.91
509.428	10737.33
509.63	10966.7
509.833	11062.96
510.035	11251.37
510.238	11017.9
510.44	11525.8
510.643	11548.33
510.845	11601.57
511.048	11589.28
511.25	11779.75
511.453	11949.73
511.655	12445.34
511.858	12312.22
512.06	12400.28
512.262	12684.95
512.465	12570.26
512.667	12916.37
512.87	12977.81
513.072	13069.97
513.274	13235.85
513.477	13547.14
513.679	13577.86
513.881	13971.07
514.084	13983.36
514.286	14186.11
514.488	14124.67
514.69	14618.23
514.893	14663.29
515.095	14296.7
515.297	14773.88
515.499	15013.49
515.701	14919.28
515.904	15281.77
516.106	15466.09
516.308	15699.56
516.51	15707.75
516.712	15660.65
516.914	15705.7
517.116	16350.81
517.318	16307.8
517.52	16727.64
517.722	16432.73
517.925	16930.39
518.127	16987.73
518.329	17329.74
518.531	17028.69
518.733	17632.84
518.935	17630.79
519.136	17753.67
519.338	18083.39
519.54	18228.8
519.742	18351.68
519.944	18333.25
520.146	18785.85
520.348	18912.82
520.55	18859.57
520.752	18859.57
520.954	19490.35
521.155	19158.58
521.357	19856.93
521.559	19820.07
521.761	19885.61
521.963	20031.01
522.164	19959.33
522.366	20205.09
522.568	20500
522.77	20524.57
522.971	20704.79
523.173	20575.77
523.375	20813.34
523.576	21085.72
523.778	21038.61
523.98	21220.88
524.181	21435.92
524.383	21450.25
524.584	21777.93
524.786	21706.25
524.988	21882.38
525.189	22158.85
525.391	21960.2
525.592	22392.32
525.794	22287.87
525.995	22375.94
526.197	22498.81
526.398	22736.38
526.6	22605.31
526.801	22951.42
527.003	22793.72
527.204	22855.16
527.406	23152.12
527.607	22883.83
527.808	23225.84
528.01	23023.09
528.211	22978.04
528.412	23543.28
528.614	23436.78
528.815	23807.47
529.016	23637.48
529.218	23561.71
529.419	23510.51
529.62	23711.21
529.822	23401.97
530.023	23719.4
530.224	23707.12
530.425	24028.65
530.626	23719.4
530.828	23391.73
531.029	24120.81
531.23	23770.6
531.431	23533.04
531.632	23942.63
531.833	24002.02
532.035	24122.85
532.236	24112.61
532.437	24157.67
532.638	23959.02
532.839	24116.71
533.04	24036.84
533.241	23770.6
533.442	24124.9
533.643	24040.93
533.844	24006.12
534.045	24012.26
534.246	24034.79
534.447	24247.78
534.648	23938.54
534.849	24100.33
535.05	23741.93
535.251	24145.38
535.451	24059.37
535.652	24124.9
535.853	24051.17
536.054	23883.24
536.255	24382.95
536.456	23776.75
536.657	24190.44
536.857	23864.81
537.058	23909.86
537.259	24237.54
537.46	23942.63
537.66	23887.34
537.861	23965.16
538.062	23877.1
538.263	23905.77
538.463	23809.51
538.664	23596.53
538.865	23901.67
539.065	23879.14
539.266	23619.05
539.466	23963.11
539.667	23518.7
539.868	23864.81
540.068	23485.93
540.269	23614.96
540.469	23846.38
540.67	23719.4
540.87	23608.81
541.071	23373.3
541.271	23561.71
541.472	23567.85
541.672	23109.11
541.873	23680.49
542.073	23346.67
542.274	23559.66
542.474	23504.37
542.675	23221.75
542.875	23754.22
543.075	23344.63
543.276	23107.06
543.476	23674.35
543.676	23262.71
543.877	23365.1
544.077	23610.86
544.277	23117.3
544.478	23207.41
544.678	23170.55
544.878	23105.01
545.078	23164.4
545.279	22941.18
545.479	23109.11
545.679	23203.32
545.879	23047.67
546.079	23191.03
546.28	23432.69
546.48	23031.29
546.68	23270.9
546.88	23487.98
547.08	23264.75
547.28	23318
547.48	23250.42
547.68	23084.53
547.88	23076.34
548.081	23375.34
548.281	23088.63
548.481	22986.23
548.681	23313.91
548.881	23057.91
549.081	23078.39
549.28	23086.58
549.48	23250.42
549.68	23250.42
549.88	23651.82
550.08	23231.99
550.28	23244.27
550.48	23049.72
550.68	23072.25
550.88	23164.4
551.08	23039.48
551.279	23150.07
551.479	23006.71
551.679	22959.61
551.879	23184.88
552.079	23350.77
552.278	23195.12
552.478	23207.41
552.678	23377.39
552.878	22840.82
553.077	23430.64
553.277	22941.18
553.477	23227.89
553.676	23199.22
553.876	22930.94
554.076	23045.62
554.275	23356.91
554.475	23178.74
554.674	23066.1
554.874	23207.41
555.074	22924.79
555.273	23254.51
555.473	23098.87
555.672	22980.09
555.872	23072.25
556.071	22914.55
556.271	23285.23
556.47	23240.18
556.67	22685.18
556.869	22971.89
557.068	22795.77
557.268	22986.23
557.467	22935.03
557.667	22920.7
557.866	22846.97
558.065	22820.35
558.265	22828.54
558.464	22676.99
558.663	22945.27
558.863	22595.07
559.062	22988.28
559.261	22791.67
559.461	22869.5
559.66	22810.11
559.859	22633.98
560.058	22730.23
560.258	23016.95
560.457	22584.83
560.656	22892.02
560.855	22263.3
561.054	22433.28
561.253	22275.59
561.453	22623.74
561.652	22646.27
561.851	22597.12
562.05	22224.39
562.249	22162.95
562.448	22609.4
562.647	22371.84
562.846	22216.19
563.045	22283.78
563.244	22025.73
563.443	22629.88
563.642	21921.29
563.841	21917.19
564.04	21988.87
564.239	22214.15
564.438	21884.42
564.637	21929.48
564.836	21548.56
565.035	21474.83
565.234	21659.15
565.432	21773.83
565.631	21460.49
565.83	21894.66
566.029	21192.21
566.228	21368.34
566.427	21444.11
566.625	21317.14
566.824	21063.19
567.023	21444.11
567.222	20942.36
567.42	21325.33
567.619	21370.38
567.818	21171.73
568.016	20942.36
568.215	21102.1
568.414	21003.8
568.612	20977.17
568.811	20706.84
569.01	20641.31
569.208	20571.68
569.407	20682.27
569.605	20459.04
569.804	20610.59
570.002	20516.38
570.201	20475.42
570.4	20364.83
570.598	20096.55
570.797	19934.76
570.995	20051.49
571.193	20090.4
571.392	20203.04
571.59	19703.34
571.789	19930.66
571.987	19799.59
572.186	19645.99
572.384	19582.51
572.582	19723.82
572.781	19750.44
572.979	19271.22
573.177	19662.38
573.376	19613.23
573.574	19021.36
573.772	19490.35
573.971	19209.78
574.169	19244.59
574.367	19025.46
574.565	19080.75
574.763	18980.4
574.962	18904.63
575.16	18617.91
575.358	18927.16
575.556	18533.95
575.754	18724.41
575.952	18464.32
576.151	18597.43
576.349	18122.3
576.547	18468.41
576.745	18288.19
576.943	18159.17
577.141	18271.81
577.339	18347.58
577.537	18370.11
577.735	18173.5
577.933	17784.39
578.131	17720.9
578.329	17800.77
578.527	17837.64
578.725	17626.7
578.923	17765.96
579.121	17593.93
579.319	17430.09
579.516	17544.78
579.714	17294.93
579.912	17417.8
580.11	17288.78
580.308	17315.41
580.506	17299.02
580.704	16969.3
580.901	16985.68
581.099	17358.41
581.297	16840.28
581.495	17266.25
581.692	16670.29
581.89	16627.29
582.088	16887.38
582.285	16518.75
582.483	16641.62
582.681	16576.09
582.878	16367.2
583.076	16346.72
583.274	16543.32
583.471	16154.21
583.669	16143.97
583.866	16266.85
584.064	16207.45
584.262	16076.38
584.459	16299.61
584.657	16090.72
584.854	16146.01
585.052	15668.84
585.249	15871.59
585.447	16027.23
585.644	15693.41
585.841	15742.57
586.039	15709.8
586.236	15597.16
586.434	15728.23
586.631	15775.33
586.828	15572.58
587.026	15507.05
587.223	15318.64
587.42	15507.05
587.618	15277.68
587.815	15050.35
588.012	15042.16
588.21	15095.41
588.407	15418.99
588.604	15210.09
588.801	14990.96
588.999	15380.07
589.196	15015.54
589.393	15218.29
589.59	15052.4
589.787	14861.94
589.984	15036.02
590.182	14757.49
590.379	14757.49
590.576	14763.64
590.773	14673.53
590.97	14706.29
591.167	14651
591.364	14763.64
591.561	14671.48
591.758	14542.46
591.955	14399.1
592.152	14597.75
592.349	14368.38
592.546	14421.63
592.743	14392.95
592.94	14278.27
593.137	14395
593.334	14413.43
593.531	14059.13
593.727	14360.19
593.924	14046.85
594.121	13958.78
594.318	14204.54
594.515	14012.03
594.712	14014.08
594.908	14063.23
595.105	14106.24
595.302	14020.22
595.499	13512.33
595.696	13751.94
595.892	13690.5
596.089	13717.12
596.286	13866.63
596.482	13645.45
596.679	13618.82
596.876	13880.96
597.072	13649.54
597.269	13682.31
597.466	13446.79
597.662	13647.49
597.859	13631.11
598.055	13643.4
598.252	13270.67
598.448	13401.74
598.645	13262.47
598.841	13168.27
599.038	13196.94
599.234	13268.62
599.431	13153.93
599.627	13252.24
599.824	13297.29
600.02	13080.21
600.217	13074.06
600.413	12910.22
600.609	12947.09
600.806	12924.56
601.002	13151.88
601.198	12947.09
601.395	12809.87
601.591	12834.45
601.787	12592.79
601.984	12891.79
602.18	12971.66
602.376	12607.12
602.572	12744.34
602.769	12687
602.965	12428.95
603.161	12650.13
603.357	12707.48
603.553	12568.21
603.75	12605.08
603.946	12437.14
604.142	12713.62
604.338	12373.66
604.534	12363.42
604.73	12304.03
604.926	12082.84
605.122	12291.74
605.318	12148.38
605.514	12254.87
605.71	12365.46
605.906	12072.61
606.102	12193.44
606.298	12318.36
606.494	12263.07
606.69	12158.62
606.886	12162.72
607.082	12115.61
607.278	12039.84
607.474	11980.45
607.67	12039.84
607.866	11972.25
608.062	12095.13
608.257	12127.9
608.453	11974.3
608.649	11927.2
608.845	11843.23
609.041	11943.58
609.236	11816.61
609.432	11888.29
609.628	11808.42
609.824	11613.86
610.019	11595.43
610.215	11869.86
610.411	11779.75
610.606	11740.83
610.802	11775.65
610.998	11476.65
611.193	11591.33
611.389	11513.51
611.584	11583.14
611.78	11617.96
611.976	11269.8
612.171	11499.17
612.367	11460.26
612.562	11427.49
612.758	11216.55
612.953	11294.38
613.149	11622.05
613.344	11318.95
613.539	11357.86
613.735	11347.62
613.93	11304.62
614.126	11024.05
614.321	11269.8
614.517	11286.19
614.712	11079.34
614.907	11108.01
615.103	11335.34
615.298	10978.99
615.493	11198.12
615.688	10919.6
615.884	11157.16
616.079	10829.49
616.274	11134.64
616.47	10768.05
616.665	11114.16
616.86	10964.65
617.055	10847.92
617.25	10956.46
617.445	10829.49
617.641	10708.66
617.836	10862.26
618.031	10811.06
618.226	10847.92
618.421	10634.93
618.616	10927.79
618.811	10512.05
619.006	10616.5
619.201	10505.91
619.396	10411.7
619.591	10266.3
619.786	10337.98
619.981	10333.88
620.176	10176.19
620.371	10208.95
620.566	10108.6
620.761	10249.91
620.956	10159.8
621.151	9957.05
621.346	10256.06
621.541	9907.9
621.735	9768.64
621.93	9932.48
622.125	9739.97
622.32	9443.01
622.515	9817.79
622.709	9842.37
622.904	9699.01
623.099	9660.1
623.294	9612.99
623.488	9473.73
623.683	9526.98
623.878	9533.12
624.072	9514.69
624.267	9252.55
624.462	9291.46
624.656	9189.07
624.851	9219.78
625.046	9086.67
625.24	9184.97
625.435	8990.41
625.629	9064.14
625.824	9041.61
626.018	8937.16
626.213	8740.56
626.407	8808.14
626.602	8705.74
626.796	8711.89
626.991	8494.8
627.185	8525.52
627.38	8574.67
627.574	8666.83
627.768	8617.68
627.963	8416.98
628.157	8410.84
628.352	8517.33
628.546	8197.85
628.74	8488.66
628.935	8138.46
629.129	8337.11
629.323	8044.25
629.517	8183.51
629.712	7999.2
629.906	8115.93
630.1	7837.41
630.294	8034.01
630.489	7839.45
630.683	7933.66
630.877	7792.35
631.071	7866.08
631.265	7845.6
631.459	7732.96
631.653	7646.94
631.848	7796.45
632.042	7554.79
632.236	7624.42
632.43	7448.29
632.624	7491.3
632.818	7546.59
633.012	7364.32
633.206	7438.05
633.4	7409.38
633.594	7294.69
633.788	7173.86
633.982	7139.05
634.176	6952.68
634.369	7141.1
634.563	7204.58
634.757	7032.55
634.951	7001.83
635.145	7069.42
635.339	7046.89
635.533	6872.81
635.726	6901.48
635.92	6688.5
636.114	6866.67
636.308	6737.65
636.501	6604.53
636.695	6655.73
636.889	6514.42
637.083	6629.1
637.276	6426.36
637.47	6434.55
637.664	6575.86
637.857	6448.88
638.051	6428.4
638.244	6291.19
638.438	6375.16
638.632	6391.54
638.825	6211.32
639.019	6211.32
639.212	6209.27
639.406	6207.22
639.599	6172.41
639.793	6125.3
639.986	6051.58
640.18	6096.63
640.373	5836.54
640.567	5791.48
640.76	5801.72
640.954	5811.96
641.147	5699.33
641.34	5605.12
641.534	5779.2
641.727	5709.57
641.92	5488.39
642.114	5637.89
642.307	5572.35
642.5	5504.77
642.694	5467.91
642.887	5474.05
643.08	5392.13
643.273	5381.89
643.467	5285.64
643.66	5402.37
643.853	5322.5
644.046	5193.48
644.239	5220.1
644.432	5123.85
644.626	5134.09
644.819	5197.57
645.012	5091.08
645.205	5123.85
645.398	5064.46
645.591	5111.56
645.784	4933.39
645.977	4974.35
646.17	4798.22
646.363	4744.97
646.556	4865.8
646.749	4618
646.942	4767.5
647.135	4828.94
647.328	4730.64
647.521	4740.88
647.714	4755.21
647.907	4708.11
648.099	4501.26
648.292	4669.2
648.485	4661.01
648.678	4433.68
648.871	4507.41
649.064	4394.77
649.256	4263.7
649.449	4466.45
649.642	4415.25
649.835	4347.67
650.027	4204.31
650.22	4265.75
650.413	4480.78
650.605	4173.59
650.798	4214.55
650.991	4269.84
651.183	4013.85
651.376	4077.34
651.568	4144.92
651.761	4009.75
651.954	4034.33
652.146	4181.78
652.339	4003.61
652.531	4007.7
652.724	4011.8
652.916	3874.59
653.109	3882.78
653.301	4046.62
653.494	4040.47
653.686	3942.17
653.879	3864.35
654.071	3833.63
654.263	3850.01
654.456	3811.1
654.648	3782.43
654.84	3829.53
655.033	3847.96
655.225	3731.23
655.417	3643.17
655.61	3702.56
655.802	3669.79
655.994	3624.73
656.186	3577.63
656.379	3548.96
656.571	3649.31
656.763	3555.1
656.955	3561.25
657.148	3567.39
657.34	3548.96
657.532	3440.42
657.724	3518.24
657.916	3483.42
658.108	3430.18
658.3	3460.9
658.492	3512.1
658.684	3442.46
658.876	3370.79
659.068	3329.83
659.26	3295.01
659.452	3372.83
659.644	3280.68
659.836	3262.24
660.028	3258.15
660.22	3172.13
660.412	3182.37
660.604	3174.18
660.796	3125.03
660.988	3151.65
661.18	3147.56
661.372	3116.84
661.563	3170.08
661.755	3155.75
661.947	2975.53
662.139	3004.2
662.331	2903.85
662.522	3051.3
662.714	3073.83
662.906	3096.36
663.097	2965.29
663.289	2938.66
663.481	2934.57
663.673	2881.32
663.864	2912.04
664.056	2905.9
664.247	2701.1
664.439	2709.29
664.631	2760.49
664.822	2807.59
665.014	2932.52
665.205	2873.13
665.397	2785.07
665.588	2864.94
665.78	2733.87
665.971	2711.34
666.163	2744.11
666.354	2670.38
666.546	2608.94
666.737	2684.72
666.929	2746.16
667.12	2637.61
667.311	2639.66
667.503	2633.52
667.694	2621.23
667.885	2563.89
668.077	2590.51
668.268	2574.13
668.459	2547.5
668.651	2529.07
668.842	2584.37
669.033	2602.8
669.224	2588.46
669.416	2694.96
669.607	2471.73
669.798	2465.58
669.989	2610.99
670.18	2557.74
670.371	2541.36
670.563	2434.86
670.754	2352.95
670.945	2432.82
671.136	2420.53
671.327	2408.24
671.518	2496.3
671.709	2389.81
671.9	2529.07
672.091	2438.96
672.282	2531.12
672.473	2287.41
672.664	2363.19
672.855	2457.39
673.046	2330.42
673.237	2359.09
673.428	2361.14
673.619	2422.58
673.809	2383.66
674	2402.1
674.191	2393.9
674.382	2393.9
674.573	2381.62
674.764	2316.08
674.954	2357.04
675.145	2316.08
675.336	2336.56
675.527	2314.03
675.717	2432.82
675.908	2434.86
676.099	2242.36
676.289	2385.71
676.48	2266.93
676.671	2275.12
676.861	2258.74
677.052	2262.83
677.243	2324.27
677.433	2236.21
677.624	2359.09
677.814	2361.14
678.005	2334.51
678.195	2389.81
678.386	2379.57
678.576	2326.32
678.767	2264.88
678.957	2266.93
679.148	2373.43
679.338	2303.79
679.529	2342.71
679.719	2344.75
679.909	2350.9
680.1	2293.55
680.29	2256.69
680.481	2234.16
680.671	2246.45
680.861	2252.59
681.052	2199.35
681.242	2266.93
681.432	2297.65
681.622	2359.09
681.813	2262.83
682.003	2301.75
682.193	2320.18
682.383	2320.18
682.573	2441.01
682.764	2254.64
682.954	2387.76
683.144	2373.43
683.334	2332.47
683.524	2273.07
683.714	2314.03
683.904	2420.53
684.094	2367.28
684.284	2326.32
684.474	2307.89
684.664	2361.14
684.854	2307.89
685.044	2400.05
685.234	2297.65
685.424	2223.92
685.614	2295.6
685.804	2283.31
685.994	2385.71
686.184	2246.45
686.374	2281.27
686.564	2281.27
686.753	2295.6
686.943	2373.43
687.133	2209.59
687.323	2236.21
687.513	2234.16
687.702	2281.27
687.892	2221.88
688.082	2209.59
688.272	2230.07
688.461	2311.99
688.651	2166.58
688.841	2244.4
689.03	2221.88
689.22	2139.96
689.41	2094.9
689.599	2217.78
689.789	2137.91
689.979	2281.27
690.168	2172.72
690.358	2193.2
690.547	2119.48
690.737	2238.26
690.926	2178.87
691.116	2189.11
691.305	2144.05
691.495	2207.54
691.684	2189.11
691.874	2187.06
692.063	2103.09
692.252	2215.73
692.442	2148.15
692.631	2109.24
692.82	2146.1
693.01	2254.64
693.199	2135.86
693.388	2174.77
693.578	2189.11
693.767	2092.85
693.956	2283.31
694.146	2099
694.335	2099
694.524	2060.09
694.713	2129.72
694.902	2131.76
695.092	2094.9
695.281	2037.56
695.47	2207.54
695.659	2137.91
695.848	2113.33
696.037	2082.61
696.226	2168.63
696.415	2109.24
696.604	2168.63
696.793	2119.48
696.982	2062.13
697.171	2103.09
697.36	2139.96
697.549	2033.46
697.738	1951.54
697.927	2086.71
698.116	2099
698.305	2117.43
698.494	2107.19
698.683	2068.28
698.872	2109.24
699.061	1994.55
699.25	2129.72
699.438	2133.81
699.627	2162.48
699.816	2119.48
700.005	2047.8
700.193	2185.01
700.382	2078.52
700.571	2088.76
700.76	2041.65
700.948	2103.09
701.137	2023.22
701.326	2049.85
701.514	2060.09
701.703	2019.13
701.892	2076.47
702.08	2074.42
702.269	2062.13
702.457	1994.55
702.646	1972.02
702.834	2055.99
703.023	2021.17
703.212	1881.91
703.4	2041.65
703.589	2035.51
703.777	1967.93
703.965	1933.11
704.154	2027.32
704.342	1969.98
704.531	2047.8
704.719	1939.26
704.907	2090.81
705.096	1965.88
705.284	1888.06
705.472	1908.54
705.661	2064.18
705.849	1949.5
706.037	1916.73
706.226	1941.3
706.414	1873.72
706.602	1875.77
706.79	1898.3
706.979	1879.86
707.167	1914.68
707.355	1822.52
707.543	1877.82
707.731	1863.48
707.919	1914.68
708.107	1867.58
708.296	1892.15
708.484	1951.54
708.672	1828.67
708.86	1855.29
709.048	1740.6
709.236	1863.48
709.424	1879.86
709.612	1908.54
709.8	1828.67
709.988	1959.74
710.176	1873.72
710.364	1822.52
710.551	1863.48
710.739	1799.99
710.927	1705.79
711.115	1695.55
711.303	1775.42
711.491	1797.95
711.679	1691.45
711.866	1722.17
712.054	1718.08
712.242	1726.27
712.43	1787.71
712.617	1650.49
712.805	1748.79
712.993	1660.73
713.181	1730.36
713.368	1754.94
713.556	1679.16
713.744	1654.59
713.931	1716.03
714.119	1845.05
714.306	1701.69
714.494	1554.24
714.682	1677.12
714.869	1683.26
715.057	1711.93
715.244	1546.05
715.432	1681.21
715.619	1689.4
715.807	1707.84
715.994	1632.06
716.182	1593.15
716.369	1781.56
716.556	1638.2
716.744	1625.92
716.931	1707.84
717.119	1656.64
717.306	1615.68
717.493	1593.15
717.681	1513.28
717.868	1580.86
718.055	1630.01
718.242	1627.96
718.43	1582.91
718.617	1554.24
718.804	1611.58
718.991	1572.67
719.179	1580.86
719.366	1544
719.553	1568.57
719.74	1601.34
719.927	1490.75
720.114	1613.63
720.301	1509.18
720.488	1566.53
720.676	1476.41
720.863	1556.29
721.05	1511.23
721.237	1492.8
721.424	1472.32
721.611	1523.52
721.798	1466.17
721.985	1584.96
722.172	1371.97
722.358	1464.13
722.545	1490.75
722.732	1552.19
722.919	1484.61
723.106	1498.94
723.293	1417.02
723.48	1486.65
723.667	1421.12
723.853	1480.51
724.04	1503.04
724.227	1384.26
724.414	1513.28
724.6	1398.59
724.787	1392.45
724.974	1390.4
725.161	1296.19
725.347	1359.68
725.534	1460.03
725.72	1392.45
725.907	1417.02
726.094	1443.65
726.28	1394.5
726.467	1226.56
726.653	1328.96
726.84	1474.37
727.027	1333.06
727.213	1437.5
727.4	1343.3
727.586	1296.19
727.773	1359.68
727.959	1357.63
728.145	1361.73
728.332	1361.73
728.518	1226.56
728.705	1345.34
728.891	1294.15
729.077	1302.34
729.264	1386.3
729.45	1220.42
729.636	1353.54
729.823	1263.43
730.009	1298.24
730.195	1302.34
730.382	1310.53
730.568	1351.49
730.754	1228.61
730.94	1292.1
731.126	1220.42
731.313	1224.51
731.499	1204.03
731.685	1288
731.871	1255.23
732.057	1292.1
732.243	1247.04
732.429	1339.2
732.615	1236.8
732.801	1371.97
732.987	1195.84
733.173	1296.19
733.359	1175.36
733.545	1283.91
733.731	1255.23
733.917	1216.32
734.103	1271.62
734.289	1244.99
734.475	1267.52
734.661	1177.41
734.847	1300.29
735.033	1210.18
735.219	1234.75
735.404	1234.75
735.59	1161.03
735.776	1167.17
735.962	1269.57
736.148	1236.8
736.333	1208.13
736.519	1185.6
736.705	1167.17
736.89	1158.98
737.076	1173.32
737.262	1152.84
737.447	1046.34
737.633	1216.32
737.819	1204.03
738.004	1177.41
738.19	1122.12
738.375	1130.31
738.561	1132.36
738.747	1085.25
738.932	1187.65
739.118	1142.6
739.303	1066.82
739.489	1066.82
739.674	1146.69
739.859	1150.79
740.045	1204.03
740.23	1056.58
740.416	1044.29
740.601	997.19
740.786	1105.73
740.972	972.61
741.157	970.57
741.342	1001.29
741.528	962.37
741.713	1144.64
741.898	1072.96
742.084	937.8
742.269	1089.35
742.454	1034.05
742.639	1050.44
742.824	1034.05
743.01	986.95
743.195	997.19
743.38	1001.29
743.565	1079.11
743.75	991.05
743.935	849.74
744.12	900.94
744.305	900.94
744.49	843.59
744.675	1001.29
744.86	880.46
745.045	884.55
745.23	952.13
745.415	950.09
745.6	1001.29
745.785	886.6
745.97	989
746.155	993.09
746.34	923.46
746.525	884.55
746.71	909.13
746.895	833.35
747.079	833.35
747.264	896.84
747.449	935.75
747.634	823.11
747.819	870.22
748.003	859.98
748.188	862.02
748.373	843.59
748.557	816.97
748.742	880.46
748.927	847.69
749.111	876.36
749.296	808.78
749.481	802.63
749.665	804.68
749.85	747.34
750.034	780.11
750.219	706.38
750.404	749.39
750.588	845.64
750.773	741.19
750.957	868.17
751.141	745.29
751.326	786.25
751.51	704.33
751.695	786.25
751.879	776.01
752.064	765.77
752.248	716.62
752.432	710.47
752.617	712.52
752.801	741.19
752.985	681.8
753.17	685.9
753.354	655.18
753.538	733
753.722	608.08
753.907	651.08
754.091	638.8
754.275	722.76
754.459	745.29
754.643	694.09
754.828	614.22
755.012	675.66
755.196	589.64
755.38	718.67
755.564	661.32
755.748	620.36
755.932	620.36
756.116	671.56
756.3	571.21
756.484	671.56
756.668	558.92
756.852	563.02
757.036	577.36
757.22	558.92
757.404	591.69
757.588	556.88
757.772	640.84
757.956	581.45
758.14	552.78
758.323	487.25
758.507	610.12
758.691	595.79
758.875	589.64
759.059	515.92
759.242	470.86
759.426	532.3
759.61	612.17
759.794	526.16
759.977	536.4
760.161	501.58
760.345	563.02
760.528	556.88
760.712	491.34
760.895	513.87
761.079	548.68
761.263	517.97
761.446	470.86
761.63	495.44
761.813	522.06
761.997	499.53
762.18	517.97
762.364	489.29
762.547	483.15
762.731	501.58
762.914	425.81
763.098	503.63
763.281	497.49
763.464	493.39
763.648	524.11
763.831	528.21
764.015	444.24
764.198	425.81
764.381	456.53
764.564	388.94
764.748	466.77
764.931	423.76
765.114	429.9
765.297	468.81
765.481	468.81
765.664	444.24
765.847	440.14
766.03	421.71
766.213	440.14
766.397	427.85
766.58	399.18
766.763	454.48
766.946	421.71
767.129	468.81
767.312	403.28
767.495	364.37
767.678	339.79
767.861	495.44
768.044	423.76
768.227	440.14
768.41	427.85
768.593	401.23
768.776	395.09
768.959	417.61
769.142	407.38
769.324	358.22
769.507	329.55
769.69	462.67
769.873	366.42
770.056	464.72
770.239	423.76
770.421	390.99
770.604	411.47
770.787	421.71
770.97	374.61
771.152	333.65
771.335	384.85
771.518	421.71
771.7	345.94
771.883	280.4
772.066	415.57
772.248	401.23
772.431	345.94
772.613	339.79
772.796	339.79
772.978	372.56
773.161	390.99
773.343	343.89
773.526	343.89
773.708	315.22
773.891	245.59
774.073	323.41
774.256	335.7
774.438	429.9
774.621	366.42
774.803	266.07
774.985	341.84
775.168	337.74
775.35	292.69
775.532	323.41
775.715	329.55
775.897	321.36
776.079	302.93
776.261	339.79
776.444	352.08
776.626	331.6
776.808	268.11
776.99	278.35
777.173	296.78
777.355	266.07
777.537	337.74
777.719	352.08
777.901	307.02
778.083	261.97
778.265	307.02
778.447	374.61
778.629	165.71
778.811	368.46
778.993	302.93
779.175	300.88
779.357	317.26
779.539	278.35
779.721	276.31
779.903	298.83
780.085	161.62
780.267	286.54
780.449	229.2
780.631	259.92
780.812	218.96
780.994	261.97
781.176	208.72
781.358	208.72
781.54	245.59
781.721	272.21
781.903	229.2
782.085	200.53
782.267	278.35
782.448	276.31
782.63	235.35
782.812	233.3
782.993	315.22
783.175	202.58
783.357	239.44
783.538	200.53
783.72	223.06
783.901	284.5
784.083	243.54
784.264	286.54
784.446	221.01
784.627	212.82
784.809	251.73
784.99	204.63
785.172	223.06
785.353	153.43
785.535	184.15
785.716	153.43
785.897	223.06
786.079	223.06
786.26	108.37
786.441	171.86
786.623	157.52
786.804	204.63
786.985	231.25
787.167	257.87
787.348	194.39
787.529	155.47
787.71	304.98
787.891	173.91
788.073	245.59
788.254	192.34
788.435	155.47
788.616	155.47
788.797	210.77
788.978	143.19
789.159	190.29
789.34	251.73
789.522	243.54
789.703	151.38
789.884	147.28
790.065	112.47
790.246	190.29
790.427	204.63
790.607	182.1
790.788	216.91
790.969	167.76
791.15	147.28
791.331	221.01
791.512	186.19
791.693	143.19
791.874	229.2
792.054	159.57
792.235	204.63
792.416	161.62
792.597	147.28
792.778	208.72
792.958	184.15
793.139	124.76
793.32	122.71
793.5	126.8
793.681	214.87
793.862	139.09
794.042	149.33
794.223	46.93
794.404	130.9
794.584	65.36
794.765	147.28
794.945	114.52
795.126	96.08
795.306	147.28
795.487	48.98
795.667	118.61
795.848	216.91
796.028	85.84
796.209	200.53
796.389	112.47
796.57	98.13
796.75	65.36
796.93	26.45
797.111	108.37
797.291	87.89
797.471	100.18
797.652	126.8
797.832	36.69
798.012	163.67
798.192	110.42
798.373	38.74
798.553	96.08
798.733	212.82
798.913	75.6
799.093	178
799.274	122.71
799.454	143.19
799.634	143.19
799.814	229.2
799.994	147.28
800.174	96.08
800.354	69.46
800.534	116.56
800.714	83.8
800.894	102.23
801.074	1.88
801.254	61.27
801.434	48.98
801.614	71.51
801.794	53.08
801.974	558.92
802.154	182.1
802.334	91.99
802.514	53.08
802.693	51.03
802.873	100.18
803.053	77.65
803.233	126.8
803.413	96.08
803.592	116.56
803.772	120.66
803.952	63.32
804.131	155.47
804.311	67.41
804.491	110.42
804.67	81.75
804.85	96.08
805.03	98.13
805.209	165.71
805.389	57.17
805.568	67.41
805.748	22.36
805.928	108.37
806.107	116.56
806.287	104.28
806.466	59.22
806.646	55.12
806.825	48.98
807.004	124.76
807.184	55.12
807.363	145.24
807.543	98.13
807.722	69.46
807.901	83.8
808.081	126.8
808.26	14.17
808.439	32.6
808.619	106.32
808.798	48.98
808.977	55.12
809.156	79.7
809.336	30.55
809.515	34.64
809.694	40.79
809.873	44.88
810.052	91.99
810.231	79.7
810.411	59.22
810.59	116.56
810.769	38.74
810.948	73.56
811.127	18.26
811.306	81.75
811.485	96.08
811.664	89.94
811.843	32.6
812.022	132.95
812.201	69.46
812.38	120.66
812.559	59.22
812.737	51.03
812.916	12.12
813.095	14.17
813.274	108.37
813.453	87.89
813.632	112.47
813.811	116.56
813.989	55.12
814.168	26.45
814.347	61.27
814.526	89.94
814.704	63.32
814.883	1.88
815.062	59.22
815.24	81.75
815.419	30.55
815.598	42.84
815.776	42.84
815.955	83.8
816.133	-4.27
816.312	40.79
816.49	44.88
816.669	77.65
816.847	65.36
817.026	36.69
817.204	38.74
817.383	73.56
817.561	40.79
817.74	8.02
817.918	65.36
818.097	87.89
818.275	75.6
818.453	96.08
818.632	42.84
818.81	102.23
818.988	81.75
819.167	61.27
819.345	44.88
819.523	32.6
819.701	67.41
819.879	30.55
820.058	69.46
820.236	10.07
820.414	20.31
820.592	42.84
820.77	55.12
820.948	44.88
821.127	20.31
821.305	81.75
821.483	38.74
821.661	71.51
821.839	-2.22
822.017	1.88
822.195	18.26
822.373	87.89
822.551	40.79
822.729	94.04
822.907	46.93
823.085	94.04
823.262	124.76
823.44	10.07
823.618	30.55
823.796	46.93
823.974	34.64
824.152	104.28
824.329	-43.18
824.507	46.93
824.685	42.84
824.863	61.27
825.04	108.37
825.218	91.99
825.396	40.79
825.574	79.7
825.751	51.03
825.929	118.61
826.107	16.21
826.284	81.75
826.462	38.74
826.639	26.45
826.817	91.99
826.994	55.12
827.172	-14.51
827.349	149.33
827.527	44.88
827.704	53.08
827.882	110.42
828.059	22.36
828.237	63.32
828.414	44.88
828.591	3.93
828.769	91.99
828.946	55.12
829.124	79.7
829.301	110.42
829.478	36.69
829.655	-28.84
829.833	65.36
830.01	3.93
830.187	67.41
830.364	38.74
830.542	32.6
830.719	46.93
830.896	10.07
831.073	51.03
831.25	104.28
831.427	-45.23
831.604	94.04
831.782	-28.84
831.959	112.47
832.136	44.88
832.313	57.17
832.49	34.64
832.667	55.12
832.844	-14.51
833.021	8.02
833.198	77.65
833.374	67.41
833.551	12.12
833.728	36.69
833.905	55.12
834.082	26.45
834.259	57.17
834.436	51.03
834.612	-12.46
834.789	48.98
834.966	38.74
835.143	122.71
835.319	83.8
835.496	89.94
835.673	8.02
835.85	53.08
836.026	12.12
836.203	100.18
836.38	-43.18
836.556	14.17
836.733	32.6
836.909	-4.27
837.086	30.55
837.262	34.64
837.439	69.46
837.616	22.36
837.792	32.6
837.968	-2.22
838.145	51.03
838.321	-14.51
838.498	-20.65
838.674	28.5
838.851	36.69
839.027	18.26
839.203	14.17
839.38	69.46
839.556	10.07
839.732	34.64
839.909	85.84
840.085	30.55
840.261	14.17
840.437	51.03
840.614	8.02
840.79	3.93
840.966	51.03
841.142	20.31
841.318	-0.17
841.494	18.26
841.671	16.21
841.847	-0.17
842.023	24.4
842.199	-14.51
842.375	71.51
842.551	20.31
842.727	-18.6
842.903	59.22
843.079	-10.41
843.255	112.47
843.431	63.32
843.607	51.03
843.783	-30.89
843.959	85.84
844.134	48.98
844.31	63.32
844.486	36.69
844.662	14.17
844.838	30.55
845.013	51.03
845.189	85.84
845.365	8.02
845.541	42.84
845.716	91.99
845.892	-2.22
846.068	-16.55
846.244	34.64
846.419	-30.89
846.595	36.69
846.77	-2.22
846.946	-24.75
847.122	5.97
847.297	-2.22
847.473	12.12
847.648	100.18
847.824	61.27
847.999	3.93
848.175	34.64
848.35	40.79
848.526	77.65
848.701	40.79
848.876	91.99
849.052	63.32
849.227	28.5
849.403	28.5
849.578	18.26
849.753	-4.27
849.929	-12.46
850.104	38.74
850.279	-2.22
850.454	-43.18
850.63	87.89
850.805	48.98
850.98	46.93
851.155	48.98
851.33	38.74
851.505	5.97
851.681	12.12
851.856	42.84
852.031	94.04
852.206	40.79
852.381	34.64
852.556	22.36
852.731	42.84
852.906	-34.99
853.081	20.31
853.256	12.12
853.431	-4.27
853.606	40.79
853.781	-26.79
853.956	5.97
854.131	118.61
854.305	-12.46
854.48	71.51
854.655	-26.79
854.83	-41.13
855.005	-30.89
855.18	-59.56
855.354	-8.36
855.529	-24.75
855.704	-28.84
855.879	53.08
856.053	-8.36
856.228	87.89
856.403	8.02
856.577	-53.42
856.752	-10.41
856.926	18.26
857.101	40.79
857.276	-26.79
857.45	22.36
857.625	-4.27
857.799	24.4
857.974	67.41
858.148	-43.18
858.323	-12.46
858.497	-16.55
858.672	36.69
858.846	10.07
859.02	61.27
859.195	-67.75
859.369	24.4
859.543	71.51
859.718	55.12
859.892	57.17
860.066	55.12
860.241	12.12
860.415	34.64
860.589	42.84
860.763	38.74
860.938	-28.84
861.112	3.93
861.286	-98.47
861.46	57.17
861.634	-18.6
861.808	114.52
861.982	-24.75
862.157	16.21
862.331	-55.47
862.505	-20.65
862.679	-59.56
862.853	-30.89
863.027	-30.89
863.201	-4.27
863.375	-41.13
863.549	26.45
863.722	20.31
863.896	-10.41
864.07	-71.85
864.244	-28.84
864.418	46.93
864.592	46.93
864.766	24.4
864.939	20.31
865.113	-26.79
865.287	55.12
865.461	-2.22
865.634	108.37
865.808	22.36
865.982	48.98
866.156	-57.51
866.329	28.5
866.503	53.08
866.676	32.6
866.85	-20.65
867.024	-14.51
867.197	91.99
867.371	32.6
867.544	48.98
867.718	-24.75
867.891	36.69
868.065	83.8
868.238	18.26
868.412	-6.31
868.585	5.97
868.759	-26.79
868.932	-0.17
869.105	-14.51
869.279	10.07
869.452	-57.51
869.625	10.07
869.799	1.88
869.972	-12.46
870.145	-12.46
870.319	-34.99
870.492	-51.37
870.665	-57.51
870.838	-22.7
871.011	48.98
871.185	3.93
871.358	8.02
871.531	55.12
871.704	-24.75
871.877	-24.75
872.05	-8.36
872.223	36.69
872.396	3.93
872.569	10.07
872.742	46.93
872.915	-45.23
873.088	53.08
873.261	-69.8
873.434	36.69
873.607	-47.27
873.78	73.56
873.953	5.97
874.126	-30.89
874.299	48.98
874.471	-18.6
874.644	57.17
874.817	51.03
874.99	87.89
875.163	-30.89
875.335	18.26
875.508	-24.75
875.681	12.12
875.853	-55.47
876.026	77.65
876.199	8.02
876.371	10.07
876.544	89.94
876.717	-8.36
876.889	36.69
877.062	18.26
877.234	-2.22
877.407	77.65
877.579	16.21
877.752	55.12
877.924	-20.65
878.097	46.93
878.269	30.55
878.442	46.93
878.614	12.12
878.786	51.03
878.959	28.5
879.131	48.98
879.303	-10.41
879.476	26.45
879.648	28.5
879.82	48.98
879.993	-24.75
880.165	34.64
880.337	-55.47
880.509	8.02
880.681	-26.79
880.854	-20.65
881.026	-0.17
881.198	10.07
881.37	-47.27
881.542	-4.27
881.714	1.88
881.886	-86.19
882.058	10.07
882.23	36.69
882.402	-2.22
882.574	-16.55
882.746	5.97
882.918	57.17
883.09	28.5
883.262	28.5
883.434	1.88
883.606	22.36
883.778	26.45
883.95	-12.46
884.122	-8.36
884.293	-4.27
884.465	32.6
884.637	-14.51
884.809	-67.75
884.98	-0.17
885.152	40.79
885.324	22.36
885.496	-6.31
885.667	-0.17
885.839	-82.09
886.011	24.4
886.182	26.45
886.354	-14.51
886.525	-20.65
886.697	-41.13
886.869	40.79
887.04	-59.56
887.212	71.51
887.383	55.12
887.555	14.17
887.726	18.26
887.897	-22.7
888.069	-0.17
888.24	-55.47
888.412	-6.31
888.583	-10.41
888.754	8.02
888.926	-53.42
889.097	-26.79
889.268	-26.79
889.44	59.22
889.611	-59.56
889.782	-73.9
889.953	-82.09
890.125	85.84
890.296	22.36
890.467	-34.99
890.638	-8.36
890.809	-28.84
890.98	-53.42
891.151	34.64
891.323	53.08
891.494	-18.6
891.665	-53.42
891.836	-6.31
892.007	22.36
892.178	-73.9
892.349	-43.18
892.52	-30.89
892.691	28.5
892.862	-4.27
893.032	-20.65
893.203	-30.89
893.374	-14.51
893.545	-41.13
893.716	-51.37
893.887	-12.46
894.057	-18.6
894.228	28.5
894.399	-20.65
894.57	-14.51
894.74	-67.75
894.911	24.4
895.082	-84.14
895.253	-10.41
895.423	-32.94
895.594	16.21
895.764	-8.36
895.935	-30.89
896.106	51.03
896.276	34.64
896.447	-77.99
896.617	-20.65
896.788	12.12
896.958	-47.27
897.129	-16.55
897.299	-4.27
897.47	40.79
897.64	73.56
897.81	1.88
897.981	1.88
898.151	16.21
898.322	40.79
898.492	-75.95
898.662	-90.28
898.832	-28.84
899.003	26.45
899.173	28.5
899.343	32.6
899.513	-30.89
