Data from USB4F104151__5__12-34-58-125.txt Node

Date: Fri Mar 14 12:34:58 EDT 2025
User: louis
Spectrometer: USB4F10415
Trigger mode: 4
Integration Time (sec): 2.000000E-2
Scans to average: 1
Electric dark correction enabled: true
Nonlinearity correction enabled: false
Boxcar width: 0
XAxis mode: Wavelengths
Number of Pixels in Spectrum: 3648
>>>>>Begin Spectral Data<<<<<
178.204	-96.25
178.424	-96.25
178.644	-96.25
178.864	-59.39
179.084	24.58
179.304	8.19
179.524	20.48
179.744	-12.29
179.964	38.91
180.184	4.1
180.404	-8.19
180.624	-57.34
180.844	2.05
181.064	-53.25
181.283	10.24
181.503	-4.1
181.723	51.2
181.943	-36.86
182.163	73.73
182.383	40.96
182.602	59.39
182.822	8.19
183.042	90.11
183.262	75.77
183.482	8.19
183.701	0
183.921	77.82
184.141	36.86
184.361	57.34
184.58	51.2
184.8	67.58
185.02	4.1
185.239	30.72
185.459	22.53
185.679	59.39
185.898	-10.24
186.118	-6.14
186.338	69.63
186.557	0
186.777	69.63
186.997	38.91
187.216	-14.34
187.436	102.4
187.655	75.77
187.875	53.25
188.095	49.15
188.314	47.1
188.534	100.35
188.753	-43.01
188.973	30.72
189.192	172.03
189.412	51.2
189.631	53.25
189.851	-6.14
190.07	69.63
190.29	79.87
190.509	36.86
190.729	57.34
190.948	53.25
191.168	71.68
191.387	10.24
191.607	92.16
191.826	0
192.045	67.58
192.265	-32.77
192.484	-12.29
192.704	59.39
192.923	49.15
193.142	57.34
193.362	59.39
193.581	32.77
193.8	86.01
194.02	71.68
194.239	12.29
194.458	122.88
194.678	36.86
194.897	-71.68
195.116	10.24
195.335	69.63
195.555	-20.48
195.774	71.68
195.993	32.77
196.212	28.67
196.432	14.34
196.651	-10.24
196.87	-10.24
197.089	90.11
197.308	57.34
197.528	69.63
197.747	-53.25
197.966	61.44
198.185	83.97
198.404	49.15
198.623	59.39
198.842	49.15
199.062	-36.86
199.281	92.16
199.5	-8.19
199.719	73.73
199.938	-28.67
200.157	75.77
200.376	63.49
200.595	32.77
200.814	67.58
201.033	-36.86
201.252	-2.05
201.471	2.05
201.69	57.34
201.909	38.91
202.128	36.86
202.347	81.92
202.566	10.24
202.785	-57.34
203.004	-22.53
203.223	118.78
203.442	-10.24
203.661	4.1
203.879	51.2
204.098	-38.91
204.317	2.05
204.536	14.34
204.755	18.43
204.974	63.49
205.193	81.92
205.411	116.73
205.63	14.34
205.849	49.15
206.068	86.01
206.287	-6.14
206.505	32.77
206.724	67.58
206.943	-28.67
207.162	14.34
207.381	4.1
207.599	0
207.818	47.1
208.037	47.1
208.255	-32.77
208.474	43.01
208.693	16.38
208.911	61.44
209.13	55.3
209.349	49.15
209.567	-4.1
209.786	18.43
210.005	-10.24
210.223	65.54
210.442	-30.72
210.661	55.3
210.879	10.24
211.098	34.82
211.316	-59.39
211.535	83.97
211.753	4.1
211.972	0
212.191	94.21
212.409	86.01
212.628	81.92
212.846	26.62
213.065	34.82
213.283	100.35
213.502	-2.05
213.72	67.58
213.938	26.62
214.157	24.58
214.375	94.21
214.594	-22.53
214.812	14.34
215.031	75.77
215.249	-12.29
215.467	-8.19
215.686	12.29
215.904	53.25
216.122	86.01
216.341	16.38
216.559	18.43
216.778	55.3
216.996	81.92
217.214	79.87
217.432	20.48
217.651	18.43
217.869	65.54
218.087	10.24
218.306	47.1
218.524	14.34
218.742	-20.48
218.96	77.82
219.179	16.38
219.397	24.58
219.615	14.34
219.833	14.34
220.051	10.24
220.27	59.39
220.488	20.48
220.706	-24.58
220.924	59.39
221.142	55.3
221.36	-2.05
221.578	63.49
221.796	20.48
222.015	53.25
222.233	-38.91
222.451	79.87
222.669	-4.1
222.887	67.58
223.105	30.72
223.323	55.3
223.541	14.34
223.759	22.53
223.977	10.24
224.195	73.73
224.413	102.4
224.631	26.62
224.849	10.24
225.067	53.25
225.285	22.53
225.503	28.67
225.721	-38.91
225.939	108.54
226.157	24.58
226.375	135.17
226.592	-30.72
226.81	49.15
227.028	77.82
227.246	63.49
227.464	18.43
227.682	-40.96
227.9	30.72
228.117	36.86
228.335	-14.34
228.553	-4.1
228.771	79.87
228.989	10.24
229.206	57.34
229.424	90.11
229.642	-4.1
229.86	-32.77
230.077	94.21
230.295	71.68
230.513	59.39
230.731	59.39
230.948	112.64
231.166	104.45
231.384	63.49
231.601	79.87
231.819	63.49
232.037	-6.14
232.254	-8.19
232.472	71.68
232.689	32.77
232.907	2.05
233.125	16.38
233.342	55.3
233.56	0
233.777	-22.53
233.995	38.91
234.213	98.3
234.43	83.97
234.648	59.39
234.865	28.67
235.083	63.49
235.3	-22.53
235.518	8.19
235.735	69.63
235.953	6.14
236.17	75.77
236.388	20.48
236.605	24.58
236.822	40.96
237.04	98.3
237.257	18.43
237.475	-43.01
237.692	-34.82
237.909	-18.43
238.127	30.72
238.344	55.3
238.562	53.25
238.779	43.01
238.996	55.3
239.214	4.1
239.431	49.15
239.648	-22.53
239.865	32.77
240.083	67.58
240.3	79.87
240.517	-2.05
240.735	28.67
240.952	57.34
241.169	-4.1
241.386	65.54
241.603	73.73
241.821	30.72
242.038	-18.43
242.255	-26.62
242.472	61.44
242.689	2.05
242.907	0
243.124	22.53
243.341	18.43
243.558	81.92
243.775	16.38
243.992	-20.48
244.209	34.82
244.426	81.92
244.643	40.96
244.86	40.96
245.078	-20.48
245.295	0
245.512	45.06
245.729	0
245.946	-6.14
246.163	81.92
246.38	-38.91
246.597	-12.29
246.814	18.43
247.031	32.77
247.248	98.3
247.464	18.43
247.681	63.49
247.898	14.34
248.115	-12.29
248.332	26.62
248.549	38.91
248.766	88.06
248.983	49.15
249.2	69.63
249.417	122.88
249.633	6.14
249.85	30.72
250.067	18.43
250.284	122.88
250.501	36.86
250.717	141.31
250.934	-28.67
251.151	-4.1
251.368	59.39
251.585	108.54
251.801	8.19
252.018	30.72
252.235	114.69
252.451	-8.19
252.668	124.93
252.885	77.82
253.102	10.24
253.318	26.62
253.535	-22.53
253.752	18.43
253.968	22.53
254.185	55.3
254.401	-10.24
254.618	108.54
254.835	-6.14
255.051	71.68
255.268	14.34
255.484	59.39
255.701	51.2
255.917	51.2
256.134	106.49
256.351	36.86
256.567	20.48
256.784	20.48
257	10.24
257.217	8.19
257.433	12.29
257.65	14.34
257.866	55.3
258.082	14.34
258.299	55.3
258.515	26.62
258.732	14.34
258.948	40.96
259.165	2.05
259.381	-18.43
259.597	12.29
259.814	-8.19
260.03	-59.39
260.246	22.53
260.463	55.3
260.679	10.24
260.895	59.39
261.112	-22.53
261.328	-24.58
261.544	102.4
261.761	131.07
261.977	43.01
262.193	-24.58
262.409	43.01
262.626	-51.2
262.842	8.19
263.058	-20.48
263.274	112.64
263.49	61.44
263.707	24.58
263.923	-14.34
264.139	-12.29
264.355	90.11
264.571	98.3
264.787	-4.1
265.004	73.73
265.22	20.48
265.436	-6.14
265.652	73.73
265.868	106.49
266.084	30.72
266.3	22.53
266.516	-6.14
266.732	104.45
266.948	18.43
267.164	36.86
267.38	28.67
267.596	6.14
267.812	88.06
268.028	65.54
268.244	102.4
268.46	34.82
268.676	53.25
268.892	-4.1
269.108	51.2
269.324	-16.38
269.54	55.3
269.756	108.54
269.972	18.43
270.188	-14.34
270.403	40.96
270.619	90.11
270.835	34.82
271.051	92.16
271.267	61.44
271.483	38.91
271.698	53.25
271.914	51.2
272.13	8.19
272.346	10.24
272.562	36.86
272.777	61.44
272.993	51.2
273.209	65.54
273.425	14.34
273.64	22.53
273.856	30.72
274.072	55.3
274.287	16.38
274.503	-28.67
274.719	45.06
274.934	28.67
275.15	-30.72
275.366	-6.14
275.581	20.48
275.797	77.82
276.012	10.24
276.228	0
276.444	53.25
276.659	69.63
276.875	36.86
277.09	106.49
277.306	10.24
277.521	133.12
277.737	26.62
277.952	20.48
278.168	65.54
278.383	38.91
278.599	16.38
278.814	47.1
279.03	16.38
279.245	69.63
279.461	22.53
279.676	67.58
279.892	-2.05
280.107	6.14
280.322	-4.1
280.538	40.96
280.753	10.24
280.969	61.44
281.184	77.82
281.399	38.91
281.615	51.2
281.83	63.49
282.045	53.25
282.26	24.58
282.476	65.54
282.691	53.25
282.906	32.77
283.122	43.01
283.337	-24.58
283.552	43.01
283.767	34.82
283.983	90.11
284.198	-2.05
284.413	4.1
284.628	-14.34
284.843	-6.14
285.058	6.14
285.274	12.29
285.489	-24.58
285.704	73.73
285.919	67.58
286.134	-22.53
286.349	-22.53
286.564	98.3
286.779	36.86
286.995	26.62
287.21	30.72
287.425	36.86
287.64	49.15
287.855	6.14
288.07	18.43
288.285	22.53
288.5	-2.05
288.715	20.48
288.93	-6.14
289.145	40.96
289.36	26.62
289.575	38.91
289.79	36.86
290.004	79.87
290.219	32.77
290.434	55.3
290.649	32.77
290.864	75.77
291.079	-6.14
291.294	4.1
291.509	63.49
291.724	0
291.938	20.48
292.153	59.39
292.368	26.62
292.583	43.01
292.798	36.86
293.012	26.62
293.227	59.39
293.442	-22.53
293.657	69.63
293.871	92.16
294.086	-10.24
294.301	102.4
294.516	10.24
294.73	71.68
294.945	-2.05
295.16	-6.14
295.374	102.4
295.589	-8.19
295.804	-12.29
296.018	53.25
296.233	83.97
296.447	65.54
296.662	63.49
296.877	63.49
297.091	-22.53
297.306	88.06
297.52	28.67
297.735	40.96
297.949	-47.1
298.164	53.25
298.378	77.82
298.593	106.49
298.807	26.62
299.022	59.39
299.236	0
299.451	36.86
299.665	67.58
299.88	92.16
300.094	-14.34
300.309	65.54
300.523	-14.34
300.737	79.87
300.952	-38.91
301.166	-12.29
301.381	51.2
301.595	57.34
301.809	51.2
302.024	30.72
302.238	-6.14
302.452	67.58
302.667	51.2
302.881	65.54
303.095	18.43
303.309	53.25
303.524	45.06
303.738	4.1
303.952	0
304.166	133.12
304.381	-34.82
304.595	71.68
304.809	-38.91
305.023	40.96
305.237	32.77
305.452	86.01
305.666	26.62
305.88	57.34
306.094	51.2
306.308	-40.96
306.522	-26.62
306.736	108.54
306.95	59.39
307.164	67.58
307.379	-12.29
307.593	30.72
307.807	55.3
308.021	77.82
308.235	43.01
308.449	32.77
308.663	47.1
308.877	86.01
309.091	81.92
309.305	12.29
309.519	18.43
309.733	71.68
309.947	-6.14
310.161	100.35
310.374	57.34
310.588	124.93
310.802	-2.05
311.016	12.29
311.23	36.86
311.444	-43.01
311.658	34.82
311.872	151.55
312.085	86.01
312.299	83.97
312.513	94.21
312.727	26.62
312.941	45.06
313.154	61.44
313.368	63.49
313.582	51.2
313.796	16.38
314.009	45.06
314.223	59.39
314.437	98.3
314.651	-12.29
314.864	4.1
315.078	47.1
315.292	2.05
315.505	14.34
315.719	-2.05
315.933	2.05
316.146	-38.91
316.36	6.14
316.573	90.11
316.787	83.97
317.001	45.06
317.214	40.96
317.428	28.67
317.641	63.49
317.855	49.15
318.068	92.16
318.282	53.25
318.495	122.88
318.709	100.35
318.922	-26.62
319.136	24.58
319.349	53.25
319.563	55.3
319.776	65.54
319.99	86.01
320.203	26.62
320.417	43.01
320.63	-8.19
320.843	4.1
321.057	30.72
321.27	79.87
321.483	2.05
321.697	83.97
321.91	61.44
322.124	-8.19
322.337	45.06
322.55	67.58
322.763	79.87
322.977	30.72
323.19	36.86
323.403	14.34
323.617	24.58
323.83	88.06
324.043	-12.29
324.256	65.54
324.469	26.62
324.683	69.63
324.896	34.82
325.109	0
325.322	20.48
325.535	40.96
325.748	94.21
325.962	18.43
326.175	26.62
326.388	2.05
326.601	4.1
326.814	-2.05
327.027	55.3
327.24	86.01
327.453	40.96
327.666	43.01
327.879	73.73
328.092	26.62
328.305	122.88
328.518	22.53
328.731	34.82
328.944	53.25
329.157	81.92
329.37	32.77
329.583	120.83
329.796	34.82
330.009	2.05
330.222	94.21
330.435	36.86
330.648	6.14
330.861	104.45
331.073	18.43
331.286	51.2
331.499	100.35
331.712	-20.48
331.925	12.29
332.138	43.01
332.35	30.72
332.563	28.67
332.776	49.15
332.989	32.77
333.202	36.86
333.414	34.82
333.627	12.29
333.84	-32.77
334.053	90.11
334.265	69.63
334.478	98.3
334.691	10.24
334.903	86.01
335.116	26.62
335.329	51.2
335.541	53.25
335.754	45.06
335.966	32.77
336.179	32.77
336.392	49.15
336.604	10.24
336.817	12.29
337.029	32.77
337.242	73.73
337.454	12.29
337.667	106.49
337.88	90.11
338.092	67.58
338.305	79.87
338.517	26.62
338.729	73.73
338.942	108.54
339.154	12.29
339.367	-2.05
339.579	67.58
339.792	22.53
340.004	100.35
340.217	88.06
340.429	-6.14
340.641	-12.29
340.854	28.67
341.066	18.43
341.278	69.63
341.491	81.92
341.703	14.34
341.915	94.21
342.128	61.44
342.34	63.49
342.552	61.44
342.764	12.29
342.977	49.15
343.189	65.54
343.401	118.78
343.613	0
343.826	55.3
344.038	51.2
344.25	40.96
344.462	18.43
344.674	45.06
344.886	10.24
345.099	49.15
345.311	43.01
345.523	26.62
345.735	28.67
345.947	-18.43
346.159	10.24
346.371	34.82
346.583	34.82
346.795	53.25
347.007	-22.53
347.219	53.25
347.431	32.77
347.643	88.06
347.855	34.82
348.067	57.34
348.279	36.86
348.491	38.91
348.703	98.3
348.915	59.39
349.127	-12.29
349.339	26.62
349.551	47.1
349.763	55.3
349.975	92.16
350.187	114.69
350.399	55.3
350.61	-26.62
350.822	2.05
351.034	112.64
351.246	88.06
351.458	63.49
351.669	73.73
351.881	-16.38
352.093	8.19
352.305	14.34
352.517	53.25
352.728	96.25
352.94	49.15
353.152	98.3
353.363	8.19
353.575	20.48
353.787	53.25
353.999	43.01
354.21	98.3
354.422	73.73
354.633	20.48
354.845	34.82
355.057	26.62
355.268	18.43
355.48	63.49
355.692	22.53
355.903	59.39
356.115	18.43
356.326	12.29
356.538	43.01
356.749	96.25
356.961	45.06
357.172	55.3
357.384	36.86
357.595	104.45
357.807	73.73
358.018	6.14
358.23	40.96
358.441	53.25
358.653	45.06
358.864	69.63
359.075	-20.48
359.287	65.54
359.498	40.96
359.709	104.45
359.921	67.58
360.132	-16.38
360.344	118.78
360.555	47.1
360.766	45.06
360.977	32.77
361.189	53.25
361.4	49.15
361.611	55.3
361.823	45.06
362.034	90.11
362.245	-16.38
362.456	67.58
362.667	71.68
362.879	26.62
363.09	43.01
363.301	88.06
363.512	112.64
363.723	20.48
363.935	92.16
364.146	81.92
364.357	24.58
364.568	51.2
364.779	-12.29
364.99	71.68
365.201	51.2
365.412	94.21
365.623	-40.96
365.834	55.3
366.045	12.29
366.256	18.43
366.467	12.29
366.678	-4.1
366.889	61.44
367.1	53.25
367.311	96.25
367.522	49.15
367.733	79.87
367.944	92.16
368.155	2.05
368.366	71.68
368.577	94.21
368.788	24.58
368.999	75.77
369.209	96.25
369.42	110.59
369.631	79.87
369.842	53.25
370.053	10.24
370.264	65.54
370.474	40.96
370.685	38.91
370.896	49.15
371.107	32.77
371.317	30.72
371.528	10.24
371.739	20.48
371.95	81.92
372.16	79.87
372.371	20.48
372.582	10.24
372.792	2.05
373.003	-32.77
373.214	90.11
373.424	75.77
373.635	83.97
373.846	49.15
374.056	26.62
374.267	20.48
374.477	65.54
374.688	49.15
374.898	53.25
375.109	16.38
375.319	-14.34
375.53	122.88
375.74	98.3
375.951	69.63
376.161	92.16
376.372	53.25
376.582	38.91
376.793	94.21
377.003	63.49
377.214	55.3
377.424	53.25
377.635	75.77
377.845	-16.38
378.055	49.15
378.266	43.01
378.476	77.82
378.686	75.77
378.897	22.53
379.107	88.06
379.317	47.1
379.528	102.4
379.738	30.72
379.948	-47.1
380.158	69.63
380.369	61.44
380.579	135.17
380.789	0
380.999	47.1
381.21	61.44
381.42	118.78
381.63	0
381.84	24.58
382.05	51.2
382.261	90.11
382.471	71.68
382.681	40.96
382.891	45.06
383.101	67.58
383.311	-2.05
383.521	81.92
383.731	45.06
383.941	49.15
384.151	63.49
384.361	86.01
384.571	151.55
384.781	77.82
384.991	53.25
385.201	110.59
385.411	110.59
385.621	92.16
385.831	36.86
386.041	6.14
386.251	26.62
386.461	59.39
386.671	40.96
386.881	32.77
387.091	22.53
387.301	43.01
387.511	59.39
387.72	104.45
387.93	67.58
388.14	32.77
388.35	86.01
388.56	32.77
388.769	94.21
388.979	20.48
389.189	55.3
389.399	45.06
389.609	71.68
389.818	73.73
390.028	-14.34
390.238	108.54
390.447	0
390.657	55.3
390.867	-8.19
391.076	2.05
391.286	2.05
391.496	20.48
391.705	159.74
391.915	86.01
392.125	90.11
392.334	90.11
392.544	88.06
392.753	100.35
392.963	65.54
393.172	94.21
393.382	92.16
393.591	77.82
393.801	98.3
394.01	49.15
394.22	-2.05
394.429	0
394.639	61.44
394.848	16.38
395.058	83.97
395.267	112.64
395.477	-2.05
395.686	129.02
395.895	49.15
396.105	38.91
396.314	18.43
396.524	67.58
396.733	83.97
396.942	88.06
397.152	45.06
397.361	172.03
397.57	98.3
397.78	86.01
397.989	6.14
398.198	96.25
398.407	59.39
398.617	104.45
398.826	90.11
399.035	47.1
399.244	114.69
399.453	100.35
399.663	153.6
399.872	139.26
400.081	135.17
400.29	116.73
400.499	43.01
400.708	53.25
400.917	79.87
401.127	69.63
401.336	86.01
401.545	139.26
401.754	100.35
401.963	38.91
402.172	67.58
402.381	147.45
402.59	100.35
402.799	112.64
403.008	126.97
403.217	149.5
403.426	77.82
403.635	69.63
403.844	120.83
404.053	163.84
404.262	157.69
404.471	139.26
404.68	169.98
404.888	131.07
405.097	75.77
405.306	81.92
405.515	192.51
405.724	81.92
405.933	147.45
406.142	86.01
406.35	73.73
406.559	151.55
406.768	206.84
406.977	274.43
407.185	194.56
407.394	114.69
407.603	135.17
407.812	204.8
408.02	120.83
408.229	210.94
408.438	188.41
408.646	161.79
408.855	176.13
409.064	260.09
409.272	235.52
409.481	256
409.69	251.9
409.898	290.81
410.107	198.65
410.315	217.08
410.524	194.56
410.733	270.33
410.941	311.29
411.15	284.67
411.358	352.25
411.567	335.87
411.775	335.87
411.984	360.44
412.192	362.49
412.401	370.68
412.609	292.86
412.818	333.82
413.026	284.67
413.234	382.97
413.443	391.16
413.651	393.21
413.86	413.69
414.068	448.51
414.276	473.08
414.485	509.94
414.693	483.32
414.901	567.29
415.11	522.23
415.318	491.51
415.526	624.63
415.734	634.87
415.943	626.68
416.151	632.82
416.359	626.68
416.567	702.45
416.776	684.02
416.984	731.12
417.192	774.13
417.4	833.52
417.608	720.88
417.817	851.96
418.025	919.54
418.233	884.72
418.441	862.19
418.649	880.63
418.857	892.91
419.065	1023.98
419.273	901.11
419.481	1032.18
419.689	1036.27
419.897	1038.32
420.105	1189.87
420.313	1251.31
420.521	1175.53
420.729	1282.03
420.937	1333.23
421.145	1292.27
421.353	1302.51
421.561	1433.58
421.769	1409
421.977	1544.17
422.185	1589.22
422.393	1644.52
422.601	1730.53
422.809	1757.16
423.017	1656.81
423.224	1753.06
423.432	1877.99
423.64	1779.68
423.848	2000.87
424.056	2009.06
424.263	2117.6
424.471	2220
424.679	2191.33
424.887	2301.92
425.094	2381.79
425.302	2414.56
425.51	2478.04
425.718	2605.02
425.925	2586.58
426.133	2805.72
426.341	2914.26
426.548	2942.93
426.756	2848.72
426.964	2971.6
427.171	3278.8
427.379	3196.88
427.586	3229.65
427.794	3334.09
428.001	3438.54
428.209	3690.44
428.417	3688.39
428.624	3858.37
428.832	3858.37
429.039	3780.55
429.247	3753.93
429.454	4179.9
429.662	4460.48
429.869	4075.46
430.076	4495.29
430.284	4368.32
430.491	4536.25
430.699	4851.64
430.906	4792.25
431.114	4792.25
431.321	5050.29
431.528	5076.91
431.736	5455.79
431.943	5636.01
432.15	5638.06
432.358	5603.24
432.565	5863.33
432.772	5984.16
432.979	6207.39
433.187	6217.63
433.394	6340.51
433.601	6729.63
433.808	6774.68
434.016	6776.73
434.223	6981.53
434.43	7550.86
434.637	7260.05
434.844	7806.86
435.052	7843.72
435.259	7974.79
435.466	7876.49
435.673	7939.97
435.88	8431.49
436.087	8990.58
436.294	8583.04
436.501	8554.37
436.708	8789.88
436.915	9197.43
437.122	9344.88
437.329	9516.91
437.537	9676.65
437.743	9789.29
437.95	9877.35
438.157	10352.48
438.364	10823.51
438.571	10504.03
438.778	10706.78
438.985	11755.34
439.192	11128.66
439.399	11806.54
439.606	11419.47
439.813	12046.15
440.02	12773.18
440.227	12693.31
440.433	12427.07
440.64	12728.13
440.847	12691.26
441.054	13229.88
441.261	13930.28
441.467	13537.07
441.674	14143.27
441.881	14573.35
442.088	14411.56
442.294	14292.77
442.501	14688.03
442.708	14952.22
442.914	15716.11
443.121	16281.35
443.328	15689.49
443.534	16793.34
443.741	16355.08
443.948	16400.13
444.154	17508.08
444.361	17475.32
444.568	17495.8
444.774	17553.14
444.981	17698.55
445.187	18050.8
445.394	19101.4
445.6	18804.45
445.807	20481.74
446.013	19545.81
446.22	19941.07
446.426	20635.33
446.633	21042.88
446.839	21806.77
447.046	20514.5
447.252	22111.92
447.459	22130.35
447.665	21782.2
447.871	23201.44
448.078	23944.85
448.284	22521.51
448.491	23223.97
448.697	24592.01
448.903	24735.37
449.11	24813.19
449.316	24581.77
449.522	24860.29
449.728	25517.69
449.935	25783.93
450.141	25675.38
450.347	26594.92
450.553	25435.77
450.76	25900.66
450.966	26494.57
451.172	26449.52
451.378	27383.39
451.584	26529.39
451.791	27197.02
451.997	27213.41
452.203	27545.18
452.409	27471.45
452.615	27496.03
452.821	26357.36
453.027	25947.76
453.233	27491.93
453.44	26642.03
453.646	26955.36
453.852	27039.33
454.058	27305.57
454.264	26467.95
454.47	27227.74
454.676	26361.45
454.882	27313.76
455.088	24856.2
455.294	25374.33
455.5	25667.19
455.705	26125.94
455.911	25118.34
456.117	24270.48
456.323	24243.85
456.529	23031.46
456.735	23873.17
456.941	23348.89
457.147	22941.35
457.352	22351.53
457.558	21956.27
457.764	21769.91
457.97	21581.49
458.176	21096.13
458.381	21208.76
458.587	20084.43
458.793	20106.96
458.999	19109.6
459.204	20377.29
459.41	19826.39
459.616	18306.79
459.821	18573.03
460.027	18298.6
460.233	18054.89
460.438	17313.53
460.644	17393.4
460.85	16649.99
461.055	16267.02
461.261	16402.18
461.466	15068.95
461.672	14587.68
461.878	15619.86
462.083	14669.6
462.289	14241.57
462.494	14184.23
462.7	13463.35
462.905	13301.56
463.111	13618.99
463.316	13899.56
463.522	13459.25
463.727	13459.25
463.932	13418.29
464.138	13340.47
464.343	13449.01
464.549	12836.67
464.754	13444.91
464.959	13139.77
465.165	13172.53
465.37	12425.03
465.575	12482.37
465.781	12732.22
465.986	12652.35
466.191	12453.7
466.397	12175.17
466.602	11435.86
466.807	11913.03
467.012	12019.53
467.218	12040.01
467.423	11661.13
467.628	11896.65
467.833	12291.91
468.038	11773.77
468.244	11485.01
468.449	11925.32
468.654	11620.17
468.859	11679.57
469.064	11499.34
469.269	11044.7
469.474	11071.32
469.679	11374.42
469.885	10940.25
470.09	11165.53
470.295	11065.18
470.5	10807.13
470.705	11040.6
470.91	10555.23
471.115	10770.27
471.32	10616.67
471.525	10747.74
471.73	10258.28
471.935	10166.12
472.139	10104.68
472.344	10028.9
472.549	10086.25
472.754	9989.99
472.959	9537.39
473.164	9492.34
473.369	9340.79
473.574	9641.84
473.778	9600.88
473.983	9521.01
474.188	9480.05
474.393	9176.95
474.598	9082.74
474.802	8904.57
475.007	8914.81
475.212	8923
475.417	8427.39
475.621	8421.25
475.826	8624
476.031	8523.65
476.235	8169.35
476.44	8744.83
476.645	8161.16
476.849	8208.26
477.054	8044.42
477.259	8124.29
477.463	8179.59
477.668	7778.19
477.872	8103.81
478.077	7747.47
478.282	7794.57
478.486	7554.96
478.691	7608.2
478.895	7651.21
479.1	7475.09
479.304	7620.49
479.509	7356.3
479.713	7401.36
479.918	7231.38
480.122	7145.36
480.326	7137.17
480.531	7122.84
480.735	7217.04
480.94	6944.66
481.144	7362.45
481.348	6817.69
481.553	7073.68
481.757	6764.44
481.961	7102.36
482.166	7120.79
482.37	7006.1
482.574	6823.83
482.778	7171.99
482.983	6864.79
483.187	7014.29
483.391	7104.4
483.595	6875.03
483.8	6731.67
484.004	6639.51
484.208	7040.92
484.412	6803.35
484.616	7020.44
484.821	7055.25
485.025	6846.36
485.229	6891.41
485.433	6909.85
485.637	6616.99
485.841	6805.4
486.045	6703
486.249	7032.72
486.453	6854.55
486.657	6901.65
486.861	6918.04
487.065	6813.59
487.269	6827.93
487.473	6762.39
487.677	6891.41
487.881	7030.68
488.085	6823.83
488.289	6819.74
488.493	7004.05
488.697	7032.72
488.901	7047.06
489.105	6911.89
489.309	7012.24
489.512	7061.4
489.716	6981.53
489.92	6915.99
490.124	6987.67
490.328	6954.9
490.531	6932.37
490.735	6983.57
490.939	7081.88
491.143	6940.57
491.346	7071.64
491.55	7174.03
491.754	7124.88
491.958	7354.26
492.161	7249.81
492.365	7221.14
492.569	7200.66
492.772	7077.78
492.976	7335.82
493.18	7251.86
493.383	7362.45
493.587	7423.89
493.79	7464.85
493.994	7464.85
494.197	7448.46
494.401	7585.68
494.605	7540.62
494.808	7780.23
495.012	7567.24
495.215	7729.03
495.419	7671.69
495.622	7837.58
495.825	8064.9
496.029	7968.65
496.232	8091.52
496.436	8056.71
496.639	8202.11
496.843	8335.23
497.046	8224.64
497.249	8398.72
497.453	8357.76
497.656	8611.71
497.859	8808.31
498.063	8888.18
498.266	9013.11
498.469	8810.36
498.673	9037.69
498.876	9135.99
499.079	9246.58
499.282	9176.95
499.485	9580.4
499.689	9529.2
499.892	9670.51
500.095	9602.93
500.298	9940.84
500.501	9619.31
500.705	9946.98
500.908	10235.75
501.111	10288.99
501.314	10387.3
501.517	10411.87
501.72	10700.64
501.923	10458.98
502.126	10741.6
502.329	11059.03
502.532	11087.7
502.735	10993.5
502.938	11153.24
503.141	11317.08
503.344	11536.21
503.547	11788.11
503.75	11759.44
503.953	11769.68
504.156	12074.82
504.359	11951.95
504.562	11962.19
504.765	12334.92
504.968	12355.4
505.17	12803.9
505.373	12674.88
505.576	13057.85
505.779	12998.46
505.982	13016.89
506.185	13283.13
506.387	13465.39
506.59	13618.99
506.793	13719.34
506.996	13668.14
507.198	14382.88
507.401	14036.78
507.604	14399.27
507.807	14516
508.009	14708.51
508.212	14532.39
508.415	14888.73
508.617	15329.05
508.82	15181.59
509.022	15189.78
509.225	15685.39
509.428	15787.79
509.63	16031.5
509.833	15933.2
510.035	16393.99
510.238	16191.24
510.44	16482.05
510.643	16652.03
510.845	16985.85
511.048	16623.36
511.25	17348.34
511.453	17284.86
511.655	17993.45
511.858	17587.96
512.06	17780.46
512.262	17923.82
512.465	18329.32
512.667	18482.92
512.87	18743.01
513.072	18599.65
513.274	19101.4
513.477	19017.44
513.679	19357.4
513.881	19703.51
514.084	19670.74
514.286	19914.45
514.488	19947.22
514.69	20377.29
514.893	20432.58
515.095	20627.14
515.297	21036.73
515.499	21190.33
515.701	21239.48
515.904	21354.17
516.106	21890.74
516.308	21909.17
516.51	21907.12
516.712	22183.6
516.914	22369.96
517.116	22879.91
517.318	22742.69
517.52	22824.61
517.722	23111.33
517.925	23754.39
518.127	23697.05
518.329	24073.87
518.531	23881.36
518.733	24432.27
518.935	24589.96
519.136	24389.26
519.338	25020.03
519.54	25118.34
519.742	25484.92
519.944	25464.44
520.146	25925.24
520.348	25886.32
520.55	25927.28
520.752	26261.1
520.954	26906.21
521.155	26377.84
521.357	27108.96
521.559	27141.73
521.761	27285.09
521.963	27575.9
522.164	27887.19
522.366	27868.76
522.568	28087.89
522.77	28143.19
522.971	28593.74
523.173	28663.37
523.375	28763.72
523.576	28720.71
523.778	28843.59
523.98	29445.69
524.181	29236.8
524.383	29564.48
524.584	30072.37
524.786	29855.29
524.988	29996.6
525.189	30426.67
525.391	30187.06
525.592	30465.58
525.794	30588.46
525.995	30692.91
526.197	30719.53
526.398	31039.01
526.6	31151.65
526.801	31120.93
527.003	31727.13
527.204	31469.09
527.406	31831.58
527.607	31702.56
527.808	32187.92
528.01	31219.24
528.211	31610.4
528.412	32253.46
528.614	32548.37
528.815	32366.1
529.016	32912.91
529.218	32073.24
529.419	32570.89
529.62	32464.4
529.822	32587.28
530.023	32560.66
530.224	32890.38
530.425	32697.87
530.626	32450.06
530.828	32235.03
531.029	33181.19
531.23	32558.61
531.431	32806.41
531.632	32851.47
531.833	33185.29
532.035	32808.46
532.236	33107.46
532.437	32941.58
532.638	33263.11
532.839	33046.02
533.04	33043.98
533.241	32796.17
533.442	33365.51
533.643	33173
533.844	33484.29
534.045	33785.34
534.246	32749.07
534.447	33349.12
534.648	33117.7
534.849	33447.43
535.05	32945.67
535.251	33324.55
535.451	32982.54
535.652	33766.91
535.853	33302.02
536.054	33545.73
536.255	33641.98
536.456	33062.41
536.657	33580.54
536.857	33132.04
537.058	33234.44
537.259	33553.92
537.46	33193.48
537.66	33218.05
537.861	33328.64
538.062	33193.48
538.263	33056.26
538.463	33461.76
538.664	33168.9
538.865	33361.41
539.065	33363.46
539.266	32765.45
539.466	33635.84
539.667	32923.15
539.868	33437.19
540.068	33318.4
540.269	33238.53
540.469	33146.37
540.67	33195.53
540.87	33164.81
541.071	33338.88
541.271	33201.67
541.472	33041.93
541.672	32933.39
541.873	32976.39
542.073	32394.77
542.274	33275.4
542.474	33113.61
542.675	32765.45
542.875	33353.22
543.075	33113.61
543.276	32531.98
543.476	32923.15
543.676	32646.67
543.877	33461.76
544.077	32865.8
544.277	32818.7
544.478	32826.89
544.678	32931.34
544.878	32630.29
545.078	32761.36
545.279	32624.14
545.479	32456.21
545.679	32767.5
545.879	32802.32
546.079	33023.5
546.28	32906.76
546.48	32218.64
546.68	32972.3
546.88	32822.8
547.08	32763.4
547.28	32767.5
547.48	32626.19
547.68	32769.55
547.88	32722.44
548.081	32665.1
548.281	32744.97
548.481	32392.72
548.681	32787.98
548.881	32472.59
549.081	32673.29
549.28	32431.63
549.48	32882.19
549.68	32634.38
549.88	33132.04
550.08	32343.57
550.28	32601.61
550.48	32704.01
550.68	32531.98
550.88	32423.44
551.08	32730.64
551.279	32992.78
551.479	32349.71
551.679	32534.03
551.879	32527.89
552.079	32871.95
552.278	32747.02
552.478	32908.81
552.678	32714.25
552.878	32454.16
553.077	32611.85
553.277	32312.85
553.477	32751.12
553.676	32689.68
553.876	32734.73
554.076	32697.87
554.275	32409.11
554.475	32091.67
554.674	32482.83
554.874	32536.08
555.074	32601.61
555.273	32540.18
555.473	32734.73
555.672	32257.56
555.872	32171.54
556.071	32574.99
556.271	32599.57
556.47	32405.01
556.67	32194.07
556.869	32110.1
557.068	32253.46
557.268	31958.55
557.467	32163.35
557.667	32181.78
557.866	31786.52
558.065	32106.01
558.265	31770.14
558.464	31940.12
558.663	32071.19
558.863	31456.8
559.062	32308.75
559.261	31741.47
559.461	32308.75
559.66	31743.52
559.859	31716.89
560.058	31702.56
560.258	31727.13
560.457	31487.52
560.656	31708.7
560.855	31200.8
561.054	31747.61
561.253	31221.28
561.453	31870.49
561.652	31354.4
561.851	31831.58
562.05	31440.42
562.249	31106.6
562.448	31766.04
562.647	31143.46
562.846	30983.72
563.045	31198.76
563.244	30746.15
563.443	31608.35
563.642	30715.44
563.841	30998.05
564.04	30469.68
564.239	31260.19
564.438	30613.04
564.637	30686.76
564.836	30813.74
565.035	30135.86
565.234	30232.11
565.432	30209.59
565.631	30797.35
565.83	30484.01
566.029	30156.34
566.228	30072.37
566.427	30127.67
566.625	29722.17
566.824	29761.08
567.023	30307.89
567.222	29476.41
567.42	29988.41
567.619	29769.27
567.818	29574.72
568.016	29410.88
568.215	29890.1
568.414	29195.84
568.612	29756.99
568.811	29324.86
569.01	29275.71
569.208	28909.13
569.407	29365.82
569.605	28952.13
569.804	29253.19
570.002	28679.75
570.201	28864.07
570.4	28673.61
570.598	28761.67
570.797	28259.92
570.995	28677.71
571.193	28091.99
571.392	28507.72
571.59	28382.8
571.789	28517.96
571.987	28253.78
572.186	28415.57
572.384	27883.09
572.582	28020.31
572.781	28198.48
572.979	27465.31
573.177	27825.75
573.376	27799.13
573.574	27463.26
573.772	27629.15
573.971	27315.81
574.169	27348.57
574.367	26660.46
574.565	27776.6
574.763	27045.48
574.962	27000.42
575.16	26795.62
575.358	27061.86
575.556	26517.1
575.754	26898.02
575.952	26383.98
576.151	26836.58
576.349	26308.21
576.547	26564.2
576.745	26410.6
576.943	26582.63
577.141	26076.79
577.339	25986.68
577.537	26160.75
577.735	25876.09
577.933	25757.3
578.131	25958
578.329	25538.17
578.527	25609.85
578.725	25771.64
578.923	25486.97
579.121	25435.77
579.319	25257.6
579.516	25673.34
579.714	25515.64
579.912	25235.07
580.11	24915.59
580.308	25169.54
580.506	25140.86
580.704	24538.76
580.901	24927.88
581.099	25024.13
581.297	24704.65
581.495	24577.67
581.692	24592.01
581.89	24592.01
582.088	24747.65
582.285	24356.49
582.483	24659.59
582.681	24206.99
582.878	24194.7
583.076	24206.99
583.274	24114.83
583.471	23854.74
583.669	23838.36
583.866	23858.84
584.064	23717.53
584.262	23486.11
584.459	23613.08
584.657	23699.09
584.854	23944.85
585.052	23148.19
585.249	23596.7
585.447	23365.28
585.644	22851.24
585.841	23168.67
586.039	23322.27
586.236	22869.67
586.434	22697.64
586.631	22572.71
586.828	22646.44
587.026	22732.45
587.223	22533.8
587.42	22587.05
587.618	22757.03
587.815	22462.12
588.012	22339.24
588.21	22304.43
588.407	22402.73
588.604	22329
588.801	22187.69
588.999	22265.52
589.196	21984.94
589.393	21962.42
589.59	22132.4
589.787	21997.23
589.984	21628.6
590.182	21563.06
590.379	21702.32
590.576	21731
590.773	21431.99
590.97	21108.41
591.167	21276.35
591.364	21268.16
591.561	21425.85
591.758	20868.8
591.955	21178.04
592.152	21038.78
592.349	20938.43
592.546	20813.51
592.743	20975.3
592.94	20463.3
593.137	20940.48
593.334	20649.67
593.531	20616.9
593.727	20840.13
593.924	20696.77
594.121	20481.74
594.318	20641.48
594.515	20162.25
594.712	20682.44
594.908	19953.36
595.105	20377.29
595.302	19781.33
595.499	20152.01
595.696	19893.97
595.892	19871.44
596.089	20135.63
596.286	19863.25
596.482	19644.12
596.679	19844.82
596.876	19893.97
597.072	19775.19
597.269	19859.15
597.466	19334.87
597.662	19431.13
597.859	19447.51
598.055	19752.66
598.252	19304.15
598.448	19089.12
598.645	19085.02
598.841	18941.66
599.038	19216.09
599.234	19150.56
599.431	18607.84
599.627	18884.32
599.824	18966.24
600.02	18833.12
600.217	18800.35
600.413	18513.64
600.609	18331.37
600.806	18372.33
601.002	18620.13
601.198	18407.14
601.395	18607.84
601.591	18081.52
601.787	18484.97
601.984	18155.24
602.18	18202.35
602.376	18190.06
602.572	17870.58
602.769	18276.07
602.965	17800.94
603.161	17913.58
603.357	17641.2
603.553	17956.59
603.75	17905.39
603.946	17725.17
604.142	17700.59
604.338	17192.7
604.534	17686.26
604.73	17389.3
604.926	17590
605.122	17426.17
605.318	17280.76
605.514	17190.65
605.71	17129.21
605.906	17305.34
606.102	17323.77
606.298	17125.11
606.494	16932.61
606.69	17102.59
606.886	17110.78
607.082	16996.09
607.278	16809.73
607.474	16678.66
607.67	17004.28
607.866	16590.59
608.062	17037.05
608.257	16723.71
608.453	16678.66
608.649	16539.4
608.845	16389.89
609.041	16385.8
609.236	16512.77
609.432	16142.09
609.628	16416.52
609.824	16539.4
610.019	16242.44
610.215	16164.62
610.411	16228.1
610.606	16181
610.802	16246.54
610.998	16033.55
611.193	15843.09
611.389	16045.84
611.584	15974.16
611.78	15836.94
611.976	16011.02
612.171	15773.46
612.367	15777.55
612.562	15943.44
612.758	15478.55
612.953	15802.13
613.149	15888.14
613.344	15587.09
613.539	15527.7
613.735	15738.64
613.93	15451.92
614.126	15451.92
614.321	15576.85
614.517	15517.46
614.712	15388.44
614.907	15273.75
615.103	15585.04
615.298	15394.58
615.493	15288.09
615.688	15142.68
615.884	15365.91
616.079	14984.99
616.274	15017.75
616.47	15042.33
616.665	15073.05
616.86	15107.87
617.055	15013.66
617.25	14782.24
617.445	15009.56
617.641	14788.38
617.836	14903.07
618.031	14540.58
618.226	14858.01
618.421	14534.43
618.616	14597.92
618.811	14212.9
619.006	14841.63
619.201	14329.64
619.396	14329.64
619.591	14139.18
619.786	14321.45
619.981	14243.62
620.176	14350.12
620.371	13975.34
620.566	14026.54
620.761	14032.68
620.956	14016.3
621.151	13764.4
621.346	13750.06
621.541	13532.98
621.735	13557.55
621.93	13477.68
622.125	13530.93
622.32	13096.76
622.515	13137.72
622.709	13301.56
622.904	13195.06
623.099	13162.3
623.294	13115.19
623.488	13004.6
623.683	13127.48
623.878	12838.72
624.072	12859.2
624.267	12668.73
624.462	12584.77
624.656	12785.47
624.851	12728.13
625.046	12275.52
625.24	12361.54
625.435	12238.66
625.629	12222.28
625.824	12140.36
626.018	12269.38
626.213	11796.3
626.407	12023.62
626.602	11863.88
626.796	11874.12
626.991	11771.72
627.185	11577.17
627.38	11687.76
627.574	11628.37
627.768	11378.51
627.963	11607.89
628.157	11427.67
628.352	11409.23
628.546	11173.72
628.74	11392.85
628.935	11124.57
629.129	11175.77
629.323	10960.73
629.517	10731.36
629.712	11030.36
629.906	11007.83
630.1	10610.53
630.294	10635.1
630.489	10579.81
630.683	10534.75
630.877	10620.77
631.071	10393.44
631.265	10418.02
631.459	10299.23
631.653	10438.5
631.848	10311.52
632.042	10266.47
632.236	10239.84
632.43	10078.05
632.624	10176.36
632.818	9906.02
633.012	10104.68
633.206	9844.59
633.4	9908.07
633.594	9748.33
633.788	9992.04
633.982	9942.89
634.176	9678.7
634.369	9545.58
634.563	9664.36
634.757	9551.73
634.951	9521.01
635.145	9533.29
635.339	9437.04
635.533	9332.59
635.726	9373.55
635.92	9138.04
636.114	9162.61
636.308	8935.29
636.501	9025.4
636.695	9021.3
636.889	9115.51
637.083	8984.44
637.276	8640.38
637.47	8824.7
637.664	8685.44
637.857	8726.39
638.051	8472.45
638.244	8521.6
638.438	8525.69
638.632	8447.87
638.825	8445.82
639.019	8157.06
639.212	8376.19
639.406	8279.94
639.599	8359.81
639.793	8208.26
639.986	7960.45
640.18	8101.76
640.373	8224.64
640.567	7913.35
640.76	7862.15
640.954	7950.21
641.147	7704.46
641.34	7774.09
641.534	7831.43
641.727	7753.61
641.92	7643.02
642.114	7475.09
642.307	7700.36
642.5	7743.37
642.694	7380.88
642.887	7516.05
643.08	7466.89
643.273	7503.76
643.467	7348.11
643.66	7294.86
643.853	7217.04
644.046	7114.64
644.239	7110.55
644.432	7169.94
644.626	7010.2
644.819	7065.49
645.012	6930.33
645.205	6803.35
645.398	6940.57
645.591	6973.33
645.784	6799.26
645.977	6727.58
646.17	6778.78
646.363	6750.11
646.556	6500.25
646.749	6533.02
646.942	6596.51
647.135	6479.77
647.328	6655.9
647.521	6514.59
647.714	6528.92
647.907	6317.98
648.099	6117.28
648.292	6379.42
648.485	6178.72
648.678	6291.36
648.871	6127.52
649.064	6225.82
649.256	6297.5
649.449	6295.46
649.642	5973.92
649.835	6002.6
650.027	5892.01
650.22	6150.05
650.413	5967.78
650.605	5875.62
650.798	5783.46
650.991	5619.63
651.183	5836.71
651.376	5676.97
651.568	5779.37
651.761	5607.34
651.954	5672.87
652.146	5670.83
652.339	5658.54
652.531	5631.91
652.724	5683.11
652.916	5550
653.109	5433.26
653.301	5468.08
653.494	5431.21
653.686	5443.5
653.879	5447.6
654.071	5461.93
654.263	5242.8
654.456	5279.66
654.648	5298.1
654.84	5240.75
655.033	5220.27
655.225	5173.17
655.417	5095.35
655.61	5132.21
655.802	5124.02
655.994	5078.96
656.186	5025.72
656.379	4880.31
656.571	4947.89
656.763	5017.52
656.955	4831.16
657.148	4960.18
657.34	4861.88
657.532	4872.12
657.724	4804.53
657.916	4775.86
658.108	4849.59
658.3	4702.14
658.492	4702.14
658.684	4652.98
658.876	4618.17
659.068	4671.42
659.26	4638.65
659.452	4636.6
659.644	4552.63
659.836	4562.87
660.028	4556.73
660.22	4431.8
660.412	4523.96
660.604	4358.08
660.796	4423.61
660.988	4450.24
661.18	4302.78
661.372	4382.65
661.563	4317.12
661.755	4376.51
661.947	4218.82
662.139	4220.86
662.331	4220.86
662.522	4188.1
662.714	4177.86
662.906	4095.94
663.097	4200.38
663.289	4136.9
663.481	4128.7
663.673	4163.52
663.864	4005.83
664.056	4079.55
664.247	3952.58
664.439	3950.53
664.631	4057.03
664.822	4024.26
665.014	3950.53
665.205	4177.86
665.397	3930.05
665.588	3901.38
665.78	3932.1
665.971	3919.81
666.163	3753.93
666.354	3760.07
666.546	3672.01
666.737	3866.56
666.929	3684.3
667.12	3735.49
667.311	3809.22
667.503	3751.88
667.694	3831.75
667.885	3829.7
668.077	3657.67
668.268	3600.33
668.459	3592.14
668.651	3661.77
668.842	3633.1
669.033	3606.47
669.224	3512.27
669.416	3596.23
669.607	3594.19
669.798	3506.12
669.989	3571.66
670.18	3348.43
670.371	3395.53
670.563	3430.35
670.754	3450.83
670.945	3469.26
671.136	3471.31
671.327	3407.82
671.518	3426.25
671.709	3352.52
671.9	3393.48
672.091	3270.61
672.282	3301.33
672.473	3409.87
672.664	3258.32
672.855	3409.87
673.046	3266.51
673.237	3383.24
673.428	3518.41
673.619	3188.69
673.809	3256.27
674	3416.01
674.191	3325.9
674.382	3235.79
674.573	3215.31
674.764	3176.4
674.954	3291.09
675.145	3133.39
675.336	3391.44
675.527	3194.83
675.717	3215.31
675.908	3237.84
676.099	3190.74
676.289	3180.5
676.48	3131.34
676.671	3184.59
676.861	3278.8
677.052	3143.63
677.243	3080.15
677.433	3127.25
677.624	3082.19
677.814	3074
678.005	3274.7
678.195	3203.02
678.386	3108.82
678.576	3063.76
678.767	3184.59
678.957	3131.34
679.148	3164.11
679.338	3293.13
679.529	3205.07
679.719	3143.63
679.909	3196.88
680.1	3231.69
680.29	3102.67
680.481	3184.59
680.671	3219.41
680.861	3108.82
681.052	3125.2
681.242	3133.39
681.432	3141.58
681.622	3043.28
681.813	3104.72
682.003	3139.54
682.193	3071.95
682.383	3153.87
682.573	3106.77
682.764	3022.8
682.954	3067.86
683.144	3143.63
683.334	3055.57
683.524	3108.82
683.714	3096.53
683.904	3172.3
684.094	3125.2
684.284	3016.66
684.474	3016.66
684.664	3131.34
684.854	3014.61
685.044	2963.41
685.234	2998.23
685.424	3045.33
685.614	3049.43
685.804	2963.41
685.994	3069.91
686.184	3057.62
686.374	2961.36
686.564	3030.99
686.753	2908.12
686.943	2885.59
687.133	2934.74
687.323	2977.75
687.513	2885.59
687.702	2879.44
687.892	2795.48
688.082	2963.41
688.272	2920.4
688.461	2932.69
688.651	2910.16
688.841	2858.96
689.03	2906.07
689.22	2783.19
689.41	2881.49
689.599	2834.39
689.789	2891.73
689.979	2762.71
690.168	2815.96
690.358	2740.18
690.547	2861.01
690.737	2762.71
690.926	2971.6
691.116	2811.86
691.305	2944.98
691.495	2799.57
691.684	2789.33
691.874	2723.8
692.063	2676.7
692.252	2668.5
692.442	2736.09
692.631	2676.7
692.82	2787.29
693.01	2768.85
693.199	2590.68
693.388	2547.67
693.578	2840.53
693.767	2625.5
693.956	2828.24
694.146	2777.05
694.335	2596.82
694.524	2650.07
694.713	2738.13
694.902	2736.09
695.092	2637.78
695.281	2695.13
695.47	2727.89
695.659	2717.65
695.848	2688.98
696.037	2570.2
696.226	2748.37
696.415	2564.06
696.604	2656.22
696.793	2584.54
696.982	2648.02
697.171	2691.03
697.36	2656.22
697.549	2578.39
697.738	2535.39
697.927	2617.3
698.116	2693.08
698.305	2488.28
698.494	2506.71
698.683	2627.54
698.872	2562.01
699.061	2641.88
699.25	2523.1
699.438	2619.35
699.627	2643.93
699.816	2684.89
700.005	2578.39
700.193	2619.35
700.382	2594.78
700.571	2500.57
700.76	2553.82
700.948	2541.53
701.137	2592.73
701.326	2426.84
701.514	2553.82
701.703	2471.9
701.892	2502.62
702.08	2648.02
702.269	2596.82
702.457	2584.54
702.646	2629.59
702.834	2514.91
703.023	2541.53
703.212	2684.89
703.4	2547.67
703.589	2488.28
703.777	2705.37
703.965	2482.14
704.154	2533.34
704.342	2441.18
704.531	2475.99
704.719	2523.1
704.907	2621.4
705.096	2410.46
705.284	2568.15
705.472	2387.93
705.661	2398.17
705.849	2392.03
706.037	2523.1
706.226	2490.33
706.414	2232.29
706.602	2596.82
706.79	2519
706.979	2377.69
707.167	2478.04
707.355	2512.86
707.543	2441.18
707.731	2473.95
707.919	2469.85
708.107	2400.22
708.296	2455.51
708.484	2344.92
708.672	2471.9
708.86	2369.5
709.048	2455.51
709.236	2385.88
709.424	2439.13
709.612	2398.17
709.8	2447.32
709.988	2367.45
710.176	2340.83
710.364	2459.61
710.551	2410.46
710.739	2355.16
710.927	2367.45
711.115	2451.42
711.303	2244.57
711.491	2367.45
711.679	2394.08
711.866	2310.11
712.054	2295.77
712.242	2318.3
712.43	2346.97
712.617	2394.08
712.805	2385.88
712.993	2346.97
713.181	2332.64
713.368	2332.64
713.556	2263.01
713.744	2234.33
713.931	2230.24
714.119	2416.6
714.306	2263.01
714.494	2334.68
714.682	2254.81
714.869	2281.44
715.057	2086.88
715.244	2336.73
715.432	2260.96
715.619	2097.12
715.807	2308.06
715.994	2265.05
716.182	2203.61
716.369	2240.48
716.556	2172.89
716.744	2189.28
716.931	2086.88
717.119	2156.51
717.306	2185.18
717.493	2240.48
717.681	2144.22
717.868	2070.5
718.055	2209.76
718.242	2154.46
718.43	2203.61
718.617	2164.7
718.804	2174.94
718.991	2146.27
719.179	2129.89
719.366	2097.12
719.553	2099.17
719.74	2140.13
719.927	2064.35
720.114	2172.89
720.301	2131.94
720.488	2078.69
720.676	1980.39
720.863	2234.33
721.05	2080.74
721.237	2150.37
721.424	2082.78
721.611	2129.89
721.798	2000.87
721.985	2009.06
722.172	2133.98
722.358	2062.3
722.545	2136.03
722.732	2074.59
722.919	2050.02
723.106	2156.51
723.293	1947.62
723.48	2103.26
723.667	2013.15
723.853	1970.15
724.04	2076.64
724.227	2031.58
724.414	2117.6
724.6	2004.96
724.787	2015.2
724.974	2142.18
725.161	1988.58
725.347	2047.97
725.534	2019.3
725.72	2033.63
725.907	2033.63
726.094	1992.67
726.28	1968.1
726.467	1986.53
726.653	2019.3
726.84	1976.29
727.027	1986.53
727.213	1933.28
727.4	1972.19
727.586	2027.49
727.773	1933.28
727.959	1777.64
728.145	1951.71
728.332	1941.47
728.518	1933.28
728.705	1961.95
728.891	1837.03
729.077	1822.69
729.264	1796.07
729.45	1773.54
729.636	2031.58
729.823	1837.03
730.009	1959.91
730.195	1828.84
730.382	1843.17
730.568	1900.52
730.754	1941.47
730.94	1822.69
731.126	1925.09
731.313	1851.36
731.499	1742.82
731.685	1808.36
731.871	1714.15
732.057	1804.26
732.243	1873.89
732.429	1777.64
732.615	1816.55
732.801	1880.04
732.987	1730.53
733.173	1824.74
733.359	1714.15
733.545	1839.08
733.731	1888.23
733.917	1783.78
734.103	1830.88
734.289	1679.33
734.475	1791.97
734.661	1828.84
734.847	1748.97
735.033	1800.16
735.219	1761.25
735.404	1677.29
735.59	1820.64
735.776	1751.01
735.962	1880.04
736.148	1720.29
736.333	1773.54
736.519	1720.29
736.705	1675.24
736.89	1687.53
737.076	1701.86
737.262	1687.53
737.447	1644.52
737.633	1667.05
737.819	1751.01
738.004	1675.24
738.19	1626.09
738.375	1685.48
738.561	1759.21
738.747	1615.85
738.932	1640.42
739.118	1710.05
739.303	1587.18
739.489	1662.95
739.674	1695.72
739.859	1531.88
740.045	1609.7
740.23	1597.42
740.416	1632.23
740.601	1566.7
740.786	1755.11
740.972	1628.14
741.157	1605.61
741.342	1638.37
741.528	1578.98
741.713	1540.07
741.898	1535.98
742.084	1523.69
742.269	1525.74
742.454	1511.4
742.639	1495.02
742.824	1527.78
743.01	1566.7
743.195	1490.92
743.38	1523.69
743.565	1497.07
743.75	1505.26
743.935	1419.24
744.12	1454.06
744.305	1417.19
744.49	1558.5
744.675	1409
744.86	1521.64
745.045	1478.63
745.23	1499.11
745.415	1415.15
745.6	1413.1
745.785	1452.01
745.97	1443.82
746.155	1388.52
746.34	1458.15
746.525	1345.52
746.71	1431.53
746.895	1282.03
747.079	1347.56
747.264	1318.89
747.449	1345.52
747.634	1333.23
747.819	1310.7
748.003	1222.64
748.188	1298.41
748.373	1335.28
748.557	1259.5
748.742	1312.75
748.927	1294.32
749.111	1286.12
749.296	1167.34
749.481	1249.26
749.665	1279.98
749.85	1298.41
750.034	1177.58
750.219	1267.69
750.404	1265.64
750.588	1236.97
750.773	1187.82
750.957	1171.44
751.141	1118.19
751.326	1124.33
751.51	1146.86
751.695	1124.33
751.879	1062.9
752.064	1232.88
752.248	1116.14
752.432	1165.29
752.617	1146.86
752.801	1128.43
752.985	1107.95
753.17	1064.94
753.354	1054.7
753.538	1134.57
753.722	1058.8
753.907	1095.66
754.091	1040.37
754.275	1112.05
754.459	968.69
754.643	993.26
754.828	1064.94
755.012	993.26
755.196	1040.37
755.38	935.92
755.564	948.21
755.748	1009.65
755.932	1034.22
756.116	1003.5
756.3	911.35
756.484	925.68
756.668	935.92
756.852	933.87
757.036	917.49
757.22	899.06
757.404	763.89
757.588	925.68
757.772	880.63
757.956	980.98
758.14	833.52
758.323	851.96
758.507	892.91
758.691	890.87
758.875	972.79
759.059	925.68
759.242	825.33
759.426	825.33
759.61	903.15
759.794	815.09
759.977	843.76
760.161	948.21
760.345	911.35
760.528	792.56
760.712	837.62
760.895	858.1
761.079	825.33
761.263	874.48
761.446	808.95
761.63	813.04
761.813	761.84
761.997	796.66
762.18	843.76
762.364	800.76
762.547	745.46
762.731	782.32
762.914	786.42
763.098	716.79
763.281	784.37
763.464	786.42
763.648	673.78
763.831	753.65
764.015	692.21
764.198	765.94
764.381	755.7
764.564	796.66
764.748	739.32
764.931	708.6
765.114	704.5
765.297	694.26
765.481	641.01
765.664	675.83
765.847	761.84
766.03	722.93
766.213	647.16
766.397	706.55
766.58	681.97
766.763	722.93
766.946	704.5
767.129	690.17
767.312	716.79
767.495	727.03
767.678	600.05
767.861	647.16
768.044	638.97
768.227	600.05
768.41	593.91
768.593	616.44
768.776	665.59
768.959	688.12
769.142	624.63
769.324	665.59
769.507	595.96
769.69	710.65
769.873	581.62
770.056	708.6
770.239	606.2
770.421	690.17
770.604	653.3
770.787	559.1
770.97	614.39
771.152	567.29
771.335	643.06
771.518	593.91
771.7	579.58
771.883	669.69
772.066	579.58
772.248	636.92
772.431	624.63
772.613	471.03
772.796	536.57
772.978	563.19
773.161	585.72
773.343	548.86
773.526	526.33
773.708	579.58
773.891	532.47
774.073	571.38
774.256	546.81
774.438	591.86
774.621	561.14
774.803	559.1
774.985	559.1
775.168	577.53
775.35	534.52
775.532	616.44
775.715	511.99
775.897	577.53
776.079	550.9
776.261	550.9
776.444	538.62
776.626	530.42
776.808	436.22
776.99	428.03
777.173	485.37
777.355	454.65
777.537	434.17
777.719	450.55
777.901	503.8
778.083	421.88
778.265	419.83
778.447	567.29
778.629	399.35
778.811	440.31
778.993	425.98
779.175	493.56
779.357	417.79
779.539	440.31
779.721	399.35
779.903	399.35
780.085	436.22
780.267	483.32
780.449	354.3
780.631	393.21
780.812	409.59
780.994	409.59
781.176	440.31
781.358	434.17
781.54	401.4
781.721	428.03
781.903	413.69
782.085	315.39
782.267	376.83
782.448	366.59
782.63	419.83
782.812	397.31
782.993	329.72
783.175	423.93
783.357	415.74
783.538	405.5
783.72	401.4
783.901	364.54
784.083	372.73
784.264	391.16
784.446	354.3
784.627	397.31
784.809	407.55
784.99	331.77
785.172	411.64
785.353	360.44
785.535	301.05
785.716	301.05
785.897	284.67
786.079	317.44
786.26	417.79
786.441	352.25
786.623	270.33
786.804	305.15
786.985	288.76
787.167	360.44
787.348	290.81
787.529	372.73
787.71	350.2
787.891	319.48
788.073	256
788.254	266.24
788.435	241.66
788.616	323.58
788.797	286.72
788.978	260.09
789.159	262.14
789.34	337.91
789.522	225.28
789.703	315.39
789.884	260.09
790.065	284.67
790.246	350.2
790.427	233.47
790.607	245.76
790.788	342.01
790.969	180.22
791.15	210.94
791.331	249.85
791.512	206.84
791.693	198.65
791.874	313.34
792.054	385.02
792.235	317.44
792.416	176.13
792.597	223.23
792.778	303.1
792.958	243.71
793.139	286.72
793.32	294.91
793.5	212.99
793.681	253.95
793.862	169.98
794.042	194.56
794.223	227.32
794.404	249.85
794.584	208.89
794.765	219.13
794.945	176.13
795.126	292.86
795.306	227.32
795.487	202.75
795.667	262.14
795.848	278.52
796.028	178.17
796.209	188.41
796.389	167.93
796.57	157.69
796.75	204.8
796.93	202.75
797.111	139.26
797.291	204.8
797.471	190.46
797.652	143.36
797.832	225.28
798.012	174.08
798.192	176.13
798.373	147.45
798.553	145.41
798.733	239.61
798.913	169.98
799.093	159.74
799.274	208.89
799.454	174.08
799.634	217.08
799.814	221.18
799.994	176.13
800.174	186.37
800.354	169.98
800.534	223.23
800.714	116.73
800.894	141.31
801.074	141.31
801.254	126.97
801.434	223.23
801.614	161.79
801.794	163.84
801.974	641.01
802.154	133.12
802.334	194.56
802.514	147.45
802.693	145.41
802.873	210.94
803.053	159.74
803.233	186.37
803.413	147.45
803.592	124.93
803.772	124.93
803.952	190.46
804.131	124.93
804.311	182.27
804.491	163.84
804.67	92.16
804.85	186.37
805.03	161.79
805.209	147.45
805.389	151.55
805.568	129.02
805.748	106.49
805.928	141.31
806.107	129.02
806.287	237.56
806.466	137.21
806.646	92.16
806.825	77.82
807.004	104.45
807.184	176.13
807.363	157.69
807.543	118.78
807.722	112.64
807.901	180.22
808.081	163.84
808.26	135.17
808.439	69.63
808.619	98.3
808.798	163.84
808.977	133.12
809.156	180.22
809.336	110.59
809.515	124.93
809.694	67.58
809.873	129.02
810.052	139.26
810.231	133.12
810.411	90.11
810.59	163.84
810.769	94.21
810.948	157.69
811.127	135.17
811.306	124.93
811.485	71.68
811.664	124.93
811.843	32.77
812.022	102.4
812.201	92.16
812.38	151.55
812.559	112.64
812.737	145.41
812.916	98.3
813.095	124.93
813.274	133.12
813.453	169.98
813.632	131.07
813.811	55.3
813.989	116.73
814.168	133.12
814.347	141.31
814.526	118.78
814.704	143.36
814.883	137.21
815.062	65.54
815.24	59.39
815.419	143.36
815.598	34.82
815.776	90.11
815.955	112.64
816.133	59.39
816.312	98.3
816.49	63.49
816.669	112.64
816.847	79.87
817.026	83.97
817.204	47.1
817.383	88.06
817.561	73.73
817.74	131.07
817.918	147.45
818.097	86.01
818.275	149.5
818.453	75.77
818.632	55.3
818.81	163.84
818.988	73.73
819.167	163.84
819.345	153.6
819.523	126.97
819.701	51.2
819.879	145.41
820.058	116.73
820.236	116.73
820.414	26.62
820.592	129.02
820.77	73.73
820.948	135.17
821.127	120.83
821.305	108.54
821.483	126.97
821.661	135.17
821.839	24.58
822.017	30.72
822.195	147.45
822.373	104.45
822.551	96.25
822.729	129.02
822.907	86.01
823.085	110.59
823.262	149.5
823.44	102.4
823.618	86.01
823.796	75.77
823.974	112.64
824.152	122.88
824.329	143.36
824.507	28.67
824.685	118.78
824.863	149.5
825.04	51.2
825.218	106.49
825.396	77.82
825.574	71.68
825.751	43.01
825.929	161.79
826.107	34.82
826.284	79.87
826.462	106.49
826.639	88.06
826.817	77.82
826.994	145.41
827.172	-22.53
827.349	120.83
827.527	63.49
827.704	88.06
827.882	112.64
828.059	88.06
828.237	83.97
828.414	116.73
828.591	67.58
828.769	94.21
828.946	100.35
829.124	83.97
829.301	79.87
829.478	75.77
829.655	53.25
829.833	90.11
830.01	51.2
830.187	90.11
830.364	90.11
830.542	98.3
830.719	114.69
830.896	61.44
831.073	100.35
831.25	43.01
831.427	98.3
831.604	141.31
831.782	65.54
831.959	-28.67
832.136	57.34
832.313	65.54
832.49	38.91
832.667	73.73
832.844	96.25
833.021	79.87
833.198	67.58
833.374	79.87
833.551	112.64
833.728	63.49
833.905	96.25
834.082	49.15
834.259	67.58
834.436	149.5
834.612	88.06
834.789	88.06
834.966	57.34
835.143	20.48
835.319	79.87
835.496	59.39
835.673	-14.34
835.85	57.34
836.026	40.96
836.203	55.3
836.38	69.63
836.556	22.53
836.733	26.62
836.909	65.54
837.086	40.96
837.262	63.49
837.439	110.59
837.616	71.68
837.792	59.39
837.968	106.49
838.145	4.1
838.321	75.77
838.498	28.67
838.674	120.83
838.851	49.15
839.027	108.54
839.203	94.21
839.38	34.82
839.556	45.06
839.732	36.86
839.909	106.49
840.085	83.97
840.261	47.1
840.437	116.73
840.614	118.78
840.79	98.3
840.966	34.82
841.142	90.11
841.318	63.49
841.494	98.3
841.671	51.2
841.847	8.19
842.023	4.1
842.199	147.45
842.375	40.96
842.551	47.1
842.727	65.54
842.903	102.4
843.079	22.53
843.255	100.35
843.431	79.87
843.607	32.77
843.783	43.01
843.959	28.67
844.134	57.34
844.31	73.73
844.486	30.72
844.662	75.77
844.838	-10.24
845.013	24.58
845.189	75.77
845.365	38.91
845.541	96.25
845.716	55.3
845.892	22.53
846.068	-71.68
846.244	-34.82
846.419	104.45
846.595	4.1
846.77	63.49
846.946	30.72
847.122	51.2
847.297	133.12
847.473	69.63
847.648	51.2
847.824	145.41
847.999	28.67
848.175	32.77
848.35	63.49
848.526	24.58
848.701	114.69
848.876	63.49
849.052	110.59
849.227	124.93
849.403	77.82
849.578	24.58
849.753	69.63
849.929	108.54
850.104	69.63
850.279	92.16
850.454	92.16
850.63	10.24
850.805	40.96
850.98	65.54
851.155	36.86
851.33	-16.38
851.505	-53.25
851.681	57.34
851.856	-2.05
852.031	98.3
852.206	92.16
852.381	-10.24
852.556	32.77
852.731	55.3
852.906	24.58
853.081	38.91
853.256	69.63
853.431	32.77
853.606	73.73
853.781	-10.24
853.956	20.48
854.131	106.49
854.305	-45.06
854.48	73.73
854.655	45.06
854.83	49.15
855.005	28.67
855.18	32.77
855.354	-49.15
855.529	55.3
855.704	49.15
855.879	53.25
856.053	59.39
856.228	20.48
856.403	26.62
856.577	2.05
856.752	49.15
856.926	20.48
857.101	14.34
857.276	-28.67
857.45	43.01
857.625	-6.14
857.799	18.43
857.974	114.69
858.148	-34.82
858.323	69.63
858.497	-14.34
858.672	51.2
858.846	10.24
859.02	26.62
859.195	-36.86
859.369	-24.58
859.543	14.34
859.718	65.54
859.892	-28.67
860.066	43.01
860.241	-30.72
860.415	36.86
860.589	-14.34
860.763	92.16
860.938	20.48
861.112	-55.3
861.286	47.1
861.46	69.63
861.634	55.3
861.808	65.54
861.982	45.06
862.157	43.01
862.331	24.58
862.505	-2.05
862.679	-4.1
862.853	-28.67
863.027	34.82
863.201	94.21
863.375	36.86
863.549	40.96
863.722	40.96
863.896	26.62
864.07	12.29
864.244	0
864.418	63.49
864.592	4.1
864.766	-6.14
864.939	32.77
865.113	-20.48
865.287	71.68
865.461	-32.77
865.634	47.1
865.808	6.14
865.982	38.91
866.156	-34.82
866.329	2.05
866.503	14.34
866.676	61.44
866.85	-6.14
867.024	20.48
867.197	81.92
867.371	120.83
867.544	100.35
867.718	-28.67
867.891	-20.48
868.065	6.14
868.238	6.14
868.412	32.77
868.585	-47.1
868.759	26.62
868.932	-45.06
869.105	34.82
869.279	-16.38
869.452	47.1
869.625	24.58
869.799	26.62
869.972	47.1
870.145	28.67
870.319	61.44
870.492	36.86
870.665	22.53
870.838	2.05
871.011	-8.19
871.185	24.58
871.358	-22.53
871.531	36.86
871.704	28.67
871.877	20.48
872.05	53.25
872.223	59.39
872.396	-49.15
872.569	90.11
872.742	-45.06
872.915	92.16
873.088	-32.77
873.261	24.58
873.434	45.06
873.607	18.43
873.78	77.82
873.953	24.58
874.126	2.05
874.299	65.54
874.471	2.05
874.644	18.43
874.817	40.96
874.99	4.1
875.163	-16.38
875.335	-34.82
875.508	10.24
875.681	43.01
875.853	34.82
876.026	22.53
876.199	2.05
876.371	-20.48
876.544	18.43
876.717	79.87
876.889	38.91
877.062	14.34
877.234	2.05
877.407	94.21
877.579	26.62
877.752	-14.34
877.924	59.39
878.097	49.15
878.269	-65.54
878.442	22.53
878.614	-45.06
878.786	24.58
878.959	4.1
879.131	71.68
879.303	-2.05
879.476	22.53
879.648	61.44
879.82	47.1
879.993	-45.06
880.165	10.24
880.337	8.19
880.509	49.15
880.681	-88.06
880.854	20.48
881.026	2.05
881.198	57.34
881.37	-2.05
881.542	38.91
881.714	-6.14
881.886	-16.38
882.058	20.48
882.23	36.86
882.402	6.14
882.574	45.06
882.746	49.15
882.918	49.15
883.09	-34.82
883.262	55.3
883.434	-32.77
883.606	59.39
883.778	47.1
883.95	8.19
884.122	0
884.293	88.06
884.465	22.53
884.637	40.96
884.809	-59.39
884.98	16.38
885.152	53.25
885.324	-6.14
885.496	-96.25
885.667	-26.62
885.839	12.29
886.011	43.01
886.182	86.01
886.354	34.82
886.525	36.86
886.697	81.92
886.869	-24.58
887.04	69.63
887.212	22.53
887.383	36.86
887.555	-34.82
887.726	32.77
887.897	55.3
888.069	94.21
888.24	16.38
888.412	75.77
888.583	-47.1
888.754	0
888.926	-4.1
889.097	-14.34
889.268	-75.77
889.44	0
889.611	59.39
889.782	71.68
889.953	-2.05
890.125	8.19
890.296	2.05
890.467	18.43
890.638	16.38
890.809	2.05
890.98	14.34
891.151	59.39
891.323	-26.62
891.494	38.91
891.665	30.72
891.836	-28.67
892.007	-12.29
892.178	49.15
892.349	45.06
892.52	2.05
892.691	71.68
892.862	2.05
893.032	59.39
893.203	-18.43
893.374	49.15
893.545	18.43
893.716	49.15
893.887	28.67
894.057	22.53
894.228	67.58
894.399	-14.34
894.57	79.87
894.74	26.62
894.911	-16.38
895.082	32.77
895.253	12.29
895.423	40.96
895.594	73.73
895.764	61.44
895.935	16.38
896.106	-73.73
896.276	14.34
896.447	43.01
896.617	-32.77
896.788	55.3
896.958	26.62
897.129	57.34
897.299	43.01
897.47	61.44
897.64	139.26
897.81	-14.34
897.981	20.48
898.151	30.72
898.322	-26.62
898.492	6.14
898.662	59.39
898.832	14.34
899.003	67.58
899.173	61.44
899.343	-18.43
899.513	22.53
