Data from USB4F104151__32__12-35-35-801.txt Node

Date: Fri Mar 14 12:35:35 EDT 2025
User: louis
Spectrometer: USB4F10415
Trigger mode: 4
Integration Time (sec): 2.000000E-2
Scans to average: 1
Electric dark correction enabled: true
Nonlinearity correction enabled: false
Boxcar width: 0
XAxis mode: Wavelengths
Number of Pixels in Spectrum: 3648
>>>>>Begin Spectral Data<<<<<
178.204	-99.33
178.424	-99.33
178.644	-99.33
178.864	-64.51
179.084	21.5
179.304	-62.46
179.524	48.13
179.744	5.12
179.964	23.55
180.184	-23.55
180.404	27.65
180.624	13.31
180.844	-15.36
181.064	-21.5
181.283	-11.26
181.503	-1.02
181.723	17.41
181.943	-29.7
182.163	117.76
182.383	-35.84
182.602	91.13
182.822	-23.55
183.042	91.13
183.262	66.56
183.482	-19.46
183.701	33.79
183.921	-5.12
184.141	54.27
184.361	-7.17
184.58	15.36
184.8	31.74
185.02	1.02
185.239	74.75
185.459	93.18
185.679	66.56
185.898	-31.74
186.118	50.18
186.338	54.27
186.557	56.32
186.777	-5.12
186.997	-1.02
187.216	76.8
187.436	128
187.655	72.7
187.875	-7.17
188.095	-19.46
188.314	54.27
188.534	17.41
188.753	13.31
188.973	-31.74
189.192	82.94
189.412	-3.07
189.631	21.5
189.851	37.89
190.07	60.42
190.29	-3.07
190.509	48.13
190.729	-9.22
190.948	21.5
191.168	144.38
191.387	17.41
191.607	13.31
191.826	46.08
192.045	64.51
192.265	-1.02
192.484	58.37
192.704	17.41
192.923	7.17
193.142	109.57
193.362	82.94
193.581	41.98
193.8	72.7
194.02	7.17
194.239	21.5
194.458	41.98
194.678	68.61
194.897	41.98
195.116	74.75
195.335	21.5
195.555	-31.74
195.774	-7.17
195.993	39.94
196.212	70.65
196.432	27.65
196.651	23.55
196.87	21.5
197.089	52.22
197.308	76.8
197.528	60.42
197.747	11.26
197.966	109.57
198.185	74.75
198.404	31.74
198.623	91.13
198.842	3.07
199.062	35.84
199.281	29.7
199.5	23.55
199.719	29.7
199.938	31.74
200.157	-31.74
200.376	15.36
200.595	23.55
200.814	52.22
201.033	39.94
201.252	52.22
201.471	60.42
201.69	31.74
201.909	60.42
202.128	15.36
202.347	130.05
202.566	68.61
202.785	31.74
203.004	7.17
203.223	160.77
203.442	76.8
203.661	41.98
203.879	-13.31
204.098	11.26
204.317	-5.12
204.536	39.94
204.755	15.36
204.974	60.42
205.193	62.46
205.411	132.09
205.63	9.22
205.849	25.6
206.068	70.65
206.287	-19.46
206.505	97.28
206.724	-19.46
206.943	27.65
207.162	23.55
207.381	97.28
207.599	5.12
207.818	35.84
208.037	21.5
208.255	39.94
208.474	11.26
208.693	41.98
208.911	-3.07
209.13	82.94
209.349	17.41
209.567	-27.65
209.786	103.42
210.005	46.08
210.223	97.28
210.442	-64.51
210.661	39.94
210.879	-27.65
211.098	-31.74
211.316	27.65
211.535	91.13
211.753	60.42
211.972	74.75
212.191	-31.74
212.409	125.95
212.628	27.65
212.846	21.5
213.065	19.46
213.283	91.13
213.502	1.02
213.72	13.31
213.938	29.7
214.157	68.61
214.375	113.66
214.594	54.27
214.812	-60.42
215.031	23.55
215.249	15.36
215.467	54.27
215.686	-11.26
215.904	103.42
216.122	-27.65
216.341	84.99
216.559	15.36
216.778	27.65
216.996	107.52
217.214	46.08
217.432	125.95
217.651	89.09
217.869	37.89
218.087	130.05
218.306	99.33
218.524	95.23
218.742	3.07
218.96	13.31
219.179	-1.02
219.397	58.37
219.615	107.52
219.833	103.42
220.051	31.74
220.27	78.85
220.488	64.51
220.706	33.79
220.924	-19.46
221.142	60.42
221.36	54.27
221.578	78.85
221.796	39.94
222.015	97.28
222.233	54.27
222.451	37.89
222.669	-17.41
222.887	74.75
223.105	13.31
223.323	54.27
223.541	-35.84
223.759	66.56
223.977	-27.65
224.195	35.84
224.413	27.65
224.631	50.18
224.849	64.51
225.067	37.89
225.285	62.46
225.503	66.56
225.721	-56.32
225.939	13.31
226.157	95.23
226.375	97.28
226.592	78.85
226.81	17.41
227.028	15.36
227.246	70.65
227.464	33.79
227.682	44.03
227.9	103.42
228.117	91.13
228.335	66.56
228.553	21.5
228.771	109.57
228.989	-33.79
229.206	13.31
229.424	58.37
229.642	50.18
229.86	-33.79
230.077	72.7
230.295	50.18
230.513	115.71
230.731	103.42
230.948	97.28
231.166	19.46
231.384	62.46
231.601	62.46
231.819	91.13
232.037	7.17
232.254	54.27
232.472	9.22
232.689	15.36
232.907	74.75
233.125	1.02
233.342	33.79
233.56	-7.17
233.777	25.6
233.995	-13.31
234.213	136.19
234.43	125.95
234.648	54.27
234.865	-29.7
235.083	-33.79
235.3	62.46
235.518	-13.31
235.735	78.85
235.953	44.03
236.17	41.98
236.388	21.5
236.605	35.84
236.822	60.42
237.04	60.42
237.257	76.8
237.475	-31.74
237.692	46.08
237.909	58.37
238.127	11.26
238.344	74.75
238.562	140.29
238.779	31.74
238.996	56.32
239.214	82.94
239.431	62.46
239.648	-3.07
239.865	62.46
240.083	11.26
240.3	97.28
240.517	74.75
240.735	17.41
240.952	-17.41
241.169	33.79
241.386	70.65
241.603	3.07
241.821	13.31
242.038	37.89
242.255	44.03
242.472	9.22
242.689	41.98
242.907	19.46
243.124	68.61
243.341	-7.17
243.558	48.13
243.775	-3.07
243.992	25.6
244.209	148.48
244.426	84.99
244.643	103.42
244.86	15.36
245.078	25.6
245.295	80.89
245.512	46.08
245.729	37.89
245.946	119.81
246.163	5.12
246.38	70.65
246.597	13.31
246.814	13.31
247.031	41.98
247.248	76.8
247.464	31.74
247.681	31.74
247.898	-64.51
248.115	48.13
248.332	19.46
248.549	31.74
248.766	72.7
248.983	107.52
249.2	103.42
249.417	37.89
249.633	3.07
249.85	5.12
250.067	99.33
250.284	66.56
250.501	80.89
250.717	76.8
250.934	3.07
251.151	44.03
251.368	84.99
251.585	91.13
251.801	54.27
252.018	11.26
252.235	25.6
252.451	35.84
252.668	-15.36
252.885	-39.94
253.102	66.56
253.318	39.94
253.535	21.5
253.752	29.7
253.968	37.89
254.185	23.55
254.401	54.27
254.618	15.36
254.835	33.79
255.051	78.85
255.268	21.5
255.484	37.89
255.701	-1.02
255.917	78.85
256.134	35.84
256.351	54.27
256.567	39.94
256.784	-62.46
257	29.7
257.217	3.07
257.433	50.18
257.65	60.42
257.866	74.75
258.082	29.7
258.299	-9.22
258.515	115.71
258.732	99.33
258.948	113.66
259.165	29.7
259.381	21.5
259.597	125.95
259.814	-25.6
260.03	68.61
260.246	101.37
260.463	101.37
260.679	84.99
260.895	35.84
261.112	52.22
261.328	76.8
261.544	21.5
261.761	123.9
261.977	74.75
262.193	11.26
262.409	3.07
262.626	78.85
262.842	39.94
263.058	19.46
263.274	68.61
263.49	37.89
263.707	68.61
263.923	82.94
264.139	5.12
264.355	21.5
264.571	50.18
264.787	9.22
265.004	105.47
265.22	9.22
265.436	-3.07
265.652	82.94
265.868	37.89
266.084	31.74
266.3	111.61
266.516	115.71
266.732	-9.22
266.948	74.75
267.164	29.7
267.38	95.23
267.596	44.03
267.812	111.61
268.028	9.22
268.244	37.89
268.46	60.42
268.676	60.42
268.892	140.29
269.108	58.37
269.324	99.33
269.54	29.7
269.756	78.85
269.972	5.12
270.188	15.36
270.403	52.22
270.619	80.89
270.835	23.55
271.051	37.89
271.267	39.94
271.483	99.33
271.698	72.7
271.914	66.56
272.13	39.94
272.346	52.22
272.562	35.84
272.777	31.74
272.993	82.94
273.209	1.02
273.425	95.23
273.64	87.04
273.856	58.37
274.072	25.6
274.287	84.99
274.503	121.85
274.719	52.22
274.934	-25.6
275.15	-3.07
275.366	68.61
275.581	115.71
275.797	64.51
276.012	56.32
276.228	7.17
276.444	29.7
276.659	48.13
276.875	7.17
277.09	46.08
277.306	-1.02
277.521	66.56
277.737	50.18
277.952	91.13
278.168	27.65
278.383	-1.02
278.599	7.17
278.814	97.28
279.03	7.17
279.245	56.32
279.461	35.84
279.676	-1.02
279.892	54.27
280.107	23.55
280.322	68.61
280.538	37.89
280.753	37.89
280.969	52.22
281.184	68.61
281.399	-17.41
281.615	107.52
281.83	-66.56
282.045	66.56
282.26	80.89
282.476	64.51
282.691	101.37
282.906	70.65
283.122	-25.6
283.337	62.46
283.552	89.09
283.767	25.6
283.983	46.08
284.198	84.99
284.413	105.47
284.628	-39.94
284.843	101.37
285.058	48.13
285.274	15.36
285.489	-11.26
285.704	70.65
285.919	21.5
286.134	33.79
286.349	84.99
286.564	27.65
286.779	93.18
286.995	144.38
287.21	-31.74
287.425	99.33
287.64	33.79
287.855	62.46
288.07	33.79
288.285	72.7
288.5	78.85
288.715	60.42
288.93	33.79
289.145	138.24
289.36	76.8
289.575	72.7
289.79	62.46
290.004	84.99
290.219	82.94
290.434	-3.07
290.649	-19.46
290.864	148.48
291.079	35.84
291.294	74.75
291.509	-21.5
291.724	64.51
291.938	93.18
292.153	78.85
292.368	58.37
292.583	-9.22
292.798	76.8
293.012	11.26
293.227	99.33
293.442	31.74
293.657	52.22
293.871	58.37
294.086	-48.13
294.301	35.84
294.516	21.5
294.73	31.74
294.945	39.94
295.16	48.13
295.374	50.18
295.589	58.37
295.804	87.04
296.018	52.22
296.233	66.56
296.447	50.18
296.662	5.12
296.877	39.94
297.091	146.43
297.306	70.65
297.52	-33.79
297.735	113.66
297.949	-29.7
298.164	101.37
298.378	25.6
298.593	56.32
298.807	52.22
299.022	74.75
299.236	103.42
299.451	74.75
299.665	80.89
299.88	62.46
300.094	105.47
300.309	-29.7
300.523	21.5
300.737	9.22
300.952	132.09
301.166	62.46
301.381	19.46
301.595	72.7
301.809	44.03
302.024	56.32
302.238	19.46
302.452	107.52
302.667	-9.22
302.881	123.9
303.095	91.13
303.309	70.65
303.524	-11.26
303.738	109.57
303.952	-66.56
304.166	41.98
304.381	-5.12
304.595	41.98
304.809	68.61
305.023	89.09
305.237	19.46
305.452	-5.12
305.666	74.75
305.88	70.65
306.094	37.89
306.308	37.89
306.522	103.42
306.736	95.23
306.95	-29.7
307.164	50.18
307.379	46.08
307.593	37.89
307.807	52.22
308.021	23.55
308.235	13.31
308.449	31.74
308.663	-15.36
308.877	35.84
309.091	37.89
309.305	72.7
309.519	41.98
309.733	97.28
309.947	29.7
310.161	13.31
310.374	29.7
310.588	140.29
310.802	21.5
311.016	97.28
311.23	80.89
311.444	56.32
311.658	62.46
311.872	93.18
312.085	60.42
312.299	54.27
312.513	17.41
312.727	37.89
312.941	37.89
313.154	19.46
313.368	17.41
313.582	46.08
313.796	103.42
314.009	-1.02
314.223	132.09
314.437	80.89
314.651	119.81
314.864	89.09
315.078	39.94
315.292	-9.22
315.505	52.22
315.719	70.65
315.933	44.03
316.146	103.42
316.36	31.74
316.573	52.22
316.787	103.42
317.001	166.91
317.214	23.55
317.428	46.08
317.641	52.22
317.855	95.23
318.068	66.56
318.282	39.94
318.495	140.29
318.709	54.27
318.922	70.65
319.136	60.42
319.349	66.56
319.563	13.31
319.776	-46.08
319.99	48.13
320.203	-21.5
320.417	21.5
320.63	72.7
320.843	72.7
321.057	72.7
321.27	74.75
321.483	1.02
321.697	-13.31
321.91	91.13
322.124	70.65
322.337	72.7
322.55	13.31
322.763	41.98
322.977	82.94
323.19	56.32
323.403	89.09
323.617	52.22
323.83	21.5
324.043	-7.17
324.256	62.46
324.469	56.32
324.683	50.18
324.896	-21.5
325.109	1.02
325.322	64.51
325.535	44.03
325.748	-7.17
325.962	68.61
326.175	39.94
326.388	113.66
326.601	54.27
326.814	48.13
327.027	-1.02
327.24	121.85
327.453	60.42
327.666	82.94
327.879	105.47
328.092	68.61
328.305	58.37
328.518	103.42
328.731	76.8
328.944	58.37
329.157	62.46
329.37	76.8
329.583	54.27
329.796	93.18
330.009	48.13
330.222	58.37
330.435	64.51
330.648	74.75
330.861	148.48
331.073	105.47
331.286	78.85
331.499	25.6
331.712	62.46
331.925	93.18
332.138	50.18
332.35	78.85
332.563	9.22
332.776	52.22
332.989	19.46
333.202	-17.41
333.414	52.22
333.627	62.46
333.84	52.22
334.053	105.47
334.265	56.32
334.478	41.98
334.691	41.98
334.903	58.37
335.116	39.94
335.329	60.42
335.541	66.56
335.754	97.28
335.966	31.74
336.179	35.84
336.392	33.79
336.604	50.18
336.817	15.36
337.029	54.27
337.242	39.94
337.454	107.52
337.667	41.98
337.88	93.18
338.092	158.72
338.305	87.04
338.517	-13.31
338.729	119.81
338.942	66.56
339.154	39.94
339.367	31.74
339.579	72.7
339.792	-9.22
340.004	130.05
340.217	-7.17
340.429	35.84
340.641	27.65
340.854	62.46
341.066	-1.02
341.278	25.6
341.491	74.75
341.703	68.61
341.915	72.7
342.128	56.32
342.34	78.85
342.552	89.09
342.764	48.13
342.977	11.26
343.189	140.29
343.401	105.47
343.613	60.42
343.826	64.51
344.038	13.31
344.25	101.37
344.462	97.28
344.674	64.51
344.886	31.74
345.099	13.31
345.311	7.17
345.523	113.66
345.735	7.17
345.947	17.41
346.159	33.79
346.371	103.42
346.583	44.03
346.795	125.95
347.007	76.8
347.219	101.37
347.431	107.52
347.643	52.22
347.855	17.41
348.067	-7.17
348.279	121.85
348.491	27.65
348.703	84.99
348.915	58.37
349.127	50.18
349.339	11.26
349.551	46.08
349.763	123.9
349.975	37.89
350.187	93.18
350.399	54.27
350.61	89.09
350.822	52.22
351.034	68.61
351.246	95.23
351.458	54.27
351.669	97.28
351.881	9.22
352.093	25.6
352.305	19.46
352.517	70.65
352.728	70.65
352.94	54.27
353.152	101.37
353.363	-1.02
353.575	54.27
353.787	74.75
353.999	62.46
354.21	41.98
354.422	58.37
354.633	33.79
354.845	89.09
355.057	82.94
355.268	27.65
355.48	25.6
355.692	76.8
355.903	117.76
356.115	48.13
356.326	66.56
356.538	125.95
356.749	37.89
356.961	58.37
357.172	56.32
357.384	87.04
357.595	117.76
357.807	48.13
358.018	23.55
358.23	101.37
358.441	144.38
358.653	99.33
358.864	117.76
359.075	95.23
359.287	101.37
359.498	148.48
359.709	117.76
359.921	48.13
360.132	39.94
360.344	48.13
360.555	66.56
360.766	66.56
360.977	78.85
361.189	74.75
361.4	105.47
361.611	58.37
361.823	160.77
362.034	62.46
362.245	76.8
362.456	152.57
362.667	-17.41
362.879	-13.31
363.09	46.08
363.301	35.84
363.512	74.75
363.723	84.99
363.935	44.03
364.146	97.28
364.357	46.08
364.568	31.74
364.779	29.7
364.99	70.65
365.201	109.57
365.412	82.94
365.623	76.8
365.834	76.8
366.045	93.18
366.256	111.61
366.467	35.84
366.678	95.23
366.889	78.85
367.1	128
367.311	113.66
367.522	89.09
367.733	29.7
367.944	33.79
368.155	33.79
368.366	35.84
368.577	46.08
368.788	123.9
368.999	82.94
369.209	66.56
369.42	105.47
369.631	50.18
369.842	15.36
370.053	113.66
370.264	148.48
370.474	13.31
370.685	25.6
370.896	72.7
371.107	130.05
371.317	23.55
371.528	111.61
371.739	95.23
371.95	113.66
372.16	56.32
372.371	11.26
372.582	74.75
372.792	46.08
373.003	111.61
373.214	70.65
373.424	101.37
373.635	136.19
373.846	144.38
374.056	25.6
374.267	56.32
374.477	9.22
374.688	99.33
374.898	-33.79
375.109	111.61
375.319	99.33
375.53	78.85
375.74	101.37
375.951	35.84
376.161	154.62
376.372	138.24
376.582	15.36
376.793	164.86
377.003	46.08
377.214	72.7
377.424	115.71
377.635	25.6
377.845	19.46
378.055	115.71
378.266	74.75
378.476	95.23
378.686	107.52
378.897	72.7
379.107	95.23
379.317	148.48
379.528	148.48
379.738	60.42
379.948	35.84
380.158	144.38
380.369	58.37
380.579	107.52
380.789	82.94
380.999	82.94
381.21	103.42
381.42	82.94
381.63	91.13
381.84	66.56
382.05	39.94
382.261	125.95
382.471	78.85
382.681	64.51
382.891	31.74
383.101	37.89
383.311	70.65
383.521	99.33
383.731	52.22
383.941	50.18
384.151	44.03
384.361	37.89
384.571	50.18
384.781	117.76
384.991	78.85
385.201	62.46
385.411	21.5
385.621	111.61
385.831	66.56
386.041	156.67
386.251	140.29
386.461	89.09
386.671	144.38
386.881	93.18
387.091	48.13
387.301	111.61
387.511	46.08
387.72	183.29
387.93	76.8
388.14	70.65
388.35	37.89
388.56	109.57
388.769	44.03
388.979	82.94
389.189	21.5
389.399	109.57
389.609	113.66
389.818	121.85
390.028	58.37
390.238	175.1
390.447	60.42
390.657	37.89
390.867	152.57
391.076	68.61
391.286	56.32
391.496	132.09
391.705	119.81
391.915	132.09
392.125	130.05
392.334	78.85
392.544	56.32
392.753	154.62
392.963	72.7
393.172	111.61
393.382	89.09
393.591	136.19
393.801	48.13
394.01	142.33
394.22	99.33
394.429	89.09
394.639	70.65
394.848	189.44
395.058	132.09
395.267	66.56
395.477	101.37
395.686	162.81
395.895	152.57
396.105	164.86
396.314	138.24
396.524	166.91
396.733	99.33
396.942	195.58
397.152	117.76
397.361	214.01
397.57	168.96
397.78	123.9
397.989	93.18
398.198	164.86
398.407	211.96
398.617	156.67
398.826	216.06
399.035	123.9
399.244	216.06
399.453	191.49
399.663	107.52
399.872	193.53
400.081	136.19
400.29	224.25
400.499	113.66
400.708	248.83
400.917	87.04
401.127	193.53
401.336	177.15
401.545	201.72
401.754	193.53
401.963	216.06
402.172	191.49
402.381	199.68
402.59	203.77
402.799	160.77
403.008	132.09
403.217	138.24
403.426	144.38
403.635	185.34
403.844	228.35
404.053	164.86
404.262	209.92
404.471	189.44
404.68	242.68
404.888	238.59
405.097	191.49
405.306	160.77
405.515	146.43
405.724	226.3
405.933	199.68
406.142	328.7
406.35	224.25
406.559	283.64
406.768	228.35
406.977	338.94
407.185	252.92
407.394	273.4
407.603	259.07
407.812	283.64
408.02	336.89
408.229	340.99
408.438	336.89
408.646	316.41
408.855	336.89
409.064	353.27
409.272	375.8
409.481	383.99
409.69	349.18
409.898	388.09
410.107	408.57
410.315	472.06
410.524	465.91
410.733	414.71
410.941	418.81
411.15	492.54
411.358	590.84
411.567	523.26
411.775	553.98
411.984	558.07
412.192	572.41
412.401	656.37
412.609	685.05
412.818	691.19
413.026	627.7
413.234	736.24
413.443	629.75
413.651	683
413.86	803.83
414.068	869.36
414.276	795.64
414.485	871.41
414.693	797.68
414.901	912.37
415.11	977.91
415.318	943.09
415.526	928.75
415.734	1014.77
415.943	1129.45
416.151	1162.22
416.359	1131.5
416.567	1215.47
416.776	1217.52
416.984	1291.24
417.192	1225.71
417.4	1354.73
417.608	1350.64
417.817	1412.07
418.025	1518.57
418.233	1545.19
418.441	1545.19
418.649	1561.58
418.857	1694.69
419.065	1797.09
419.273	1700.84
419.481	1758.18
419.689	1889.25
419.897	1956.83
420.105	2063.33
420.313	2100.19
420.521	2036.7
420.729	2149.34
420.937	2323.42
421.145	2403.29
421.353	2536.41
421.561	2452.44
421.769	2636.76
421.977	2698.2
422.185	2700.25
422.393	2866.13
422.601	2939.86
422.809	3085.26
423.017	3097.55
423.224	3322.83
423.432	3204.05
423.64	3314.64
423.848	3681.22
424.056	3587.02
424.263	3808.2
424.471	3804.1
424.679	3840.97
424.887	4045.76
425.094	4178.88
425.302	4182.98
425.51	4500.41
425.718	4621.24
425.925	4537.27
426.133	4815.8
426.341	4936.63
426.548	5227.44
426.756	5039.03
426.964	5258.16
427.171	5561.26
427.379	5639.08
427.586	5723.05
427.794	5880.74
428.001	6314.91
428.209	6689.69
428.417	6335.39
428.624	6855.58
428.832	6935.45
429.039	6914.97
429.247	6980.5
429.454	7365.52
429.662	8047.49
429.869	7744.39
430.076	8020.87
430.284	7861.13
430.491	8209.28
430.699	8487.81
430.906	8602.49
431.114	8762.23
431.321	8944.5
431.528	9438.06
431.736	9649
431.943	10320.74
432.15	9898.86
432.358	10316.64
432.565	10697.56
432.772	10675.04
432.979	11180.89
433.187	11299.67
433.394	11307.86
433.601	12045.13
433.808	12125
434.016	11899.72
434.223	12618.56
434.43	13368.12
434.637	13245.24
434.844	14013.23
435.052	14017.32
435.259	14109.48
435.466	14213.93
435.673	14127.91
435.88	14994.2
436.087	15799.05
436.294	15956.75
436.501	15512.34
436.708	15676.18
436.915	16263.94
437.122	17052.41
437.329	17199.87
437.537	17443.57
437.743	17703.67
437.95	17652.47
438.157	18551.52
438.364	19186.4
438.571	19163.87
438.778	19116.76
438.985	20982.46
439.192	19968.72
439.399	20703.94
439.606	20351.69
439.813	21582.52
440.02	22629.03
440.227	22569.64
440.433	22381.23
440.64	22901.41
440.847	22932.13
441.054	23245.47
441.261	24879.75
441.467	24564.36
441.674	25012.87
441.881	25723.51
442.088	25858.68
442.294	25696.89
442.501	26243.7
442.708	27126.37
442.914	27640.41
443.121	29082.18
443.328	28254.8
443.534	30323.25
443.741	29420.1
443.948	28793.42
444.154	31330.85
444.361	30816.81
444.568	30978.6
444.774	30935.59
444.981	31537.69
445.187	32115.22
445.394	34109.94
445.6	33268.23
445.807	36606.42
446.013	35060.2
446.22	35424.74
446.426	36803.02
446.633	37341.64
446.839	38562.23
447.046	36647.38
447.252	38834.61
447.459	39086.51
447.665	38676.91
447.871	40319.38
448.078	42056.06
448.284	40378.78
448.491	41157
448.697	42910.07
448.903	43530.6
449.11	43934.05
449.316	42934.64
449.522	43952.48
449.728	45271.37
449.935	45242.7
450.141	45175.12
450.347	46244.16
450.553	44755.29
450.76	45373.77
450.966	47024.43
451.172	46604.6
451.378	47640.87
451.584	46348.6
451.791	47933.73
451.997	47890.73
452.203	48560.41
452.409	48257.31
452.615	48007.46
452.821	47012.15
453.027	46055.75
453.233	48398.62
453.44	46874.93
453.646	47470.89
453.852	47200.56
454.058	48138.53
454.264	46545.21
454.47	47620.39
454.676	46344.51
454.882	48285.98
455.088	43792.74
455.294	44388.7
455.5	45379.92
455.705	45660.49
455.911	44235.1
456.117	43463.02
456.323	42656.12
456.529	40546.71
456.735	41982.34
456.941	41197.96
457.147	40118.68
457.352	39289.26
457.558	38644.15
457.764	38871.47
457.97	37716.42
458.176	36868.56
458.381	37353.93
458.587	35699.17
458.793	35420.64
458.999	33749.5
459.204	36170.2
459.41	35088.87
459.616	32705.04
459.821	32793.1
460.027	32713.23
460.233	31676.96
460.438	30323.25
460.644	30722.6
460.85	29237.83
461.055	28703.31
461.261	28910.15
461.466	26962.53
461.672	26073.71
461.878	28013.14
462.083	25821.81
462.289	25475.71
462.494	25221.76
462.7	24050.32
462.905	23356.06
463.111	24375.95
463.316	24226.45
463.522	23591.58
463.727	23997.07
463.932	23634.58
464.138	23460.51
464.343	23487.13
464.549	22694.57
464.754	23540.38
464.959	23407.26
465.165	23462.55
465.37	22182.57
465.575	21508.79
465.781	22512.3
465.986	22741.67
466.191	22014.64
466.397	21355.19
466.602	20361.93
466.807	21209.79
467.012	21086.91
467.218	21076.67
467.423	20564.68
467.628	20966.08
467.833	21815.99
468.038	21054.14
468.244	20366.03
468.449	21158.59
468.654	20388.55
468.859	20441.8
469.064	20212.43
469.269	19260.12
469.474	19598.04
469.679	20052.69
469.885	19550.93
470.09	19571.41
470.295	19516.12
470.5	19043.04
470.705	19339.99
470.91	18746.08
471.115	18338.54
471.32	19047.13
471.525	18631.4
471.73	18377.45
471.935	18266.86
472.139	17621.75
472.344	17742.58
472.549	17492.73
472.754	17777.39
472.959	17132.28
473.164	16743.17
473.369	16509.7
473.574	17099.52
473.778	17146.62
473.983	16956.16
474.188	16491.27
474.393	15866.64
474.598	16286.47
474.802	15827.73
475.007	15883.02
475.212	15739.66
475.417	15358.74
475.621	15332.12
475.826	15479.57
476.031	15131.42
476.235	14740.26
476.44	14883.61
476.645	14764.83
476.849	14850.85
477.054	14695.2
477.259	14150.44
477.463	14484.26
477.668	13972.27
477.872	14228.26
478.077	13699.89
478.282	13703.98
478.486	13472.56
478.691	13259.57
478.895	13738.8
479.1	13312.82
479.304	13429.56
479.509	12675.9
479.713	12954.43
479.918	12987.19
480.122	12667.71
480.326	13034.3
480.531	12860.22
480.735	12786.49
480.94	12499.78
481.144	13040.44
481.348	12434.24
481.553	12645.18
481.757	12331.84
481.961	12370.76
482.166	12462.91
482.37	12471.11
482.574	12172.1
482.778	12475.2
482.983	12606.27
483.187	12473.15
483.391	12262.21
483.595	12235.59
483.8	12184.39
484.004	12266.31
484.208	12381
484.412	12106.57
484.616	12233.54
484.821	12235.59
485.025	12264.26
485.229	12184.39
485.433	12217.16
485.637	12286.79
485.841	12294.98
486.045	12352.32
486.249	12190.53
486.453	12286.79
486.657	12321.6
486.861	12485.44
487.065	11998.02
487.269	12143.43
487.473	12145.48
487.677	12188.49
487.881	12303.17
488.085	12348.23
488.289	12358.47
488.493	12155.72
488.697	12260.16
488.901	12598.08
489.105	12403.52
489.309	12444.48
489.512	12593.98
489.716	12481.35
489.92	12223.3
490.124	12389.19
490.328	12866.36
490.531	12671.81
490.735	12755.77
490.939	12733.25
491.143	12718.91
491.346	12708.67
491.55	12995.39
491.754	12958.52
491.958	13009.72
492.161	12860.22
492.365	13040.44
492.569	12966.71
492.772	12841.79
492.976	13216.57
493.18	13224.76
493.383	13341.49
493.587	13693.74
493.79	13495.09
493.994	13490.99
494.197	13599.54
494.401	13699.89
494.605	13718.32
494.808	13855.53
495.012	14164.78
495.215	13908.78
495.419	14084.91
495.622	14127.91
495.825	14039.85
496.029	14265.13
496.232	14498.59
496.436	14506.79
496.639	15041.31
496.843	14717.73
497.046	15061.79
497.249	15229.72
497.453	15354.65
497.656	15686.42
497.859	15612.69
498.063	15741.71
498.266	16374.53
498.469	15868.69
498.673	16204.55
498.876	16313.1
499.079	16599.81
499.282	16626.43
499.485	17128.19
499.689	17068.8
499.892	17472.25
500.095	17357.56
500.298	17693.43
500.501	17490.68
500.705	18215.66
500.908	18273
501.111	18291.43
501.314	18653.92
501.517	18830.05
501.72	19057.37
501.923	19112.67
502.126	19616.47
502.329	19825.36
502.532	19690.2
502.735	20091.6
502.938	20433.61
503.141	20349.64
503.344	20882.11
503.547	20984.51
503.75	21134.01
503.953	21484.22
504.156	21551.8
504.359	22057.65
504.562	22078.13
504.765	22276.78
504.968	22729.38
505.17	23057.06
505.373	23179.93
505.576	23550.62
505.779	23675.54
505.982	23818.9
506.185	24007.31
506.387	24291.98
506.59	24586.89
506.793	25039.49
506.996	24937.09
507.198	25637.5
507.401	25586.3
507.604	25717.37
507.807	26280.56
508.009	26573.42
508.212	26645.1
508.415	26886.76
508.617	27495
508.82	27822.68
509.022	27562.59
509.225	28170.83
509.428	28856.9
509.63	28854.86
509.833	28588.62
510.035	29719.1
510.238	29248.07
510.44	29680.19
510.643	30482.99
510.845	30538.29
511.048	30497.33
511.25	30765.61
511.453	31052.33
511.655	32274.96
511.858	31644.19
512.06	32229.91
512.262	32289.3
512.465	32451.09
512.667	33034.76
512.87	33372.67
513.072	33331.72
513.274	34167.29
513.477	34320.88
513.679	34552.3
513.881	35281.38
514.084	35293.67
514.286	35453.41
514.488	35863
514.69	36862.41
514.893	37050.83
515.095	36827.6
515.297	37556.67
515.499	37485
515.701	38093.24
515.904	38605.23
516.106	38623.67
516.308	38818.22
516.51	39164.33
516.712	39166.38
516.914	39860.64
517.116	40499.61
517.318	40350.1
517.52	40997.26
517.722	41007.5
517.925	41630.08
518.127	41853.31
518.329	42406.26
518.531	41974.14
518.733	43358.57
518.935	43510.12
519.136	43168.11
519.338	44208.48
519.54	44022.11
519.742	44607.83
519.944	44611.93
520.146	45250.89
520.348	45586.76
520.55	45578.57
520.752	46106.94
520.954	46692.66
521.155	46102.85
521.357	47368.49
521.559	47290.67
521.761	48118.05
521.963	47946.02
522.164	48091.43
522.366	48417.05
522.568	48914.71
522.77	48943.38
522.971	49522.96
523.173	49457.42
523.375	49422.61
523.576	49772.81
523.778	50340.1
523.98	50381.06
524.181	50897.14
524.383	50989.3
524.584	51392.75
524.786	51267.83
524.988	51165.43
525.189	51800.3
525.391	51828.97
525.592	52492.51
525.794	52455.65
525.995	52627.68
526.197	52699.36
526.398	52558.05
526.6	53303.51
526.801	53487.82
527.003	53426.38
527.204	53231.83
527.406	53846.22
527.607	53893.32
527.808	54028.49
528.01	53524.69
528.211	53721.29
528.412	55005.37
528.614	54409.41
528.815	54311.11
529.016	54968.51
529.218	54407.36
529.419	54599.87
529.62	54816.96
529.822	54665.41
530.023	54696.13
530.224	54499.52
530.425	54986.94
530.626	54806.72
530.828	54614.21
531.029	55328.95
531.23	55044.28
531.431	54384.83
531.632	55285.94
531.833	55247.03
532.035	55306.42
532.236	55003.32
532.437	55531.7
532.638	55183.54
532.839	55503.03
533.04	55609.52
533.241	54945.98
533.442	55642.29
533.643	55369.91
533.844	55517.36
534.045	55406.77
534.246	54876.35
534.447	55584.94
534.648	54671.55
534.849	55247.03
535.05	54749.37
535.251	55292.08
535.451	55083.19
535.652	54925.5
535.853	54943.93
536.054	55511.22
536.255	55023.8
536.456	54476.99
536.657	55277.75
536.857	54900.92
537.058	54319.3
537.259	54743.23
537.46	54732.99
537.66	54657.21
537.861	54694.08
538.062	54499.52
538.263	54993.08
538.463	54188.23
538.664	54079.69
538.865	54634.69
539.065	54722.75
539.266	53729.48
539.466	54941.88
539.667	53446.86
539.868	54839.48
540.068	54327.49
540.269	54208.71
540.469	54431.94
540.67	53827.79
540.87	54294.72
541.071	53670.09
541.271	54247.62
541.472	54063.3
541.672	53758.16
541.873	53799.12
542.073	53070.04
542.274	54231.24
542.474	53719.24
542.675	53184.72
542.875	53842.12
543.075	53602.51
543.276	53111
543.476	53991.62
543.676	53307.6
543.877	53672.14
544.077	53645.52
544.277	53477.58
544.478	53258.45
544.678	53453.01
544.878	53485.78
545.078	53440.72
545.279	53227.73
545.479	53057.75
545.679	53657.81
545.879	53502.16
546.079	53389.52
546.28	53307.6
546.48	52646.11
546.68	53188.82
546.88	53305.55
547.08	52936.92
547.28	53211.35
547.48	52586.72
547.68	53151.96
547.88	52781.27
548.081	53061.85
548.281	53221.59
548.481	52750.56
548.681	52998.36
548.881	53352.66
549.081	53078.23
549.28	52566.24
549.48	53313.75
549.68	53475.54
549.88	53319.89
550.08	52486.37
550.28	53158.1
550.48	52631.77
550.68	53235.92
550.88	52609.25
551.08	52355.3
551.279	52781.27
551.479	52093.16
551.679	52736.22
551.879	52570.33
552.079	52756.7
552.278	52492.51
552.478	52758.75
552.678	52400.35
552.878	52783.32
553.077	52558.05
553.277	52633.82
553.477	53061.85
553.676	52349.15
553.876	52340.96
554.076	52283.62
554.275	52087.01
554.475	51851.5
554.674	52332.77
554.874	52396.26
555.074	52189.41
555.273	52521.18
555.473	52476.13
555.672	51882.22
555.872	51886.31
556.071	52461.79
556.271	52371.68
556.47	52148.45
556.67	51513.58
556.869	52336.87
557.068	51869.93
557.268	51648.75
557.467	52074.73
557.667	51511.53
557.866	51906.79
558.065	51558.64
558.265	51491.05
558.464	51433.71
558.663	52222.18
558.863	51370.22
559.062	52340.96
559.261	51095.8
559.461	51949.8
559.66	51044.6
559.859	51130.61
560.058	51196.15
560.258	51226.87
560.457	51157.24
560.656	51337.46
560.855	50858.23
561.054	51271.92
561.253	50639.1
561.453	50712.83
561.652	51267.83
561.851	50761.98
562.05	50424.06
562.249	50630.91
562.448	50899.19
562.647	50536.7
562.846	50741.5
563.045	50221.31
563.244	50454.78
563.443	50637.05
563.642	49838.34
563.841	50071.81
564.04	49805.58
564.239	50333.95
564.438	49854.73
564.637	49883.4
564.836	49993.99
565.035	49209.62
565.234	49690.89
565.432	49426.7
565.631	49238.29
565.83	49512.72
566.029	49158.42
566.228	49537.29
566.427	48613.66
566.625	48941.33
566.824	48294.18
567.023	49215.76
567.222	47974.69
567.42	49056.02
567.619	48279.84
567.818	48296.22
568.016	48085.28
568.215	48216.35
568.414	48386.33
568.612	48916.76
568.811	47735.08
569.01	47937.83
569.208	47608.11
569.407	47937.83
569.605	47259.95
569.804	47976.74
570.002	47255.85
570.201	47364.4
570.4	47110.45
570.598	47161.65
570.797	46674.23
570.995	46913.84
571.193	46338.36
571.392	46745.91
571.59	46332.22
571.789	46063.94
571.987	46254.4
572.186	46231.87
572.384	46025.03
572.582	46321.98
572.781	46364.99
572.979	45445.45
573.177	45775.17
573.376	45867.33
573.574	45101.39
573.772	45726.02
573.971	45355.34
574.169	45171.02
574.367	44788.05
574.565	45105.49
574.763	44763.48
574.962	44308.83
575.16	44382.55
575.358	44540.25
575.556	43915.62
575.754	44491.1
575.952	43841.89
576.151	44427.61
576.349	43743.59
576.547	43524.46
576.745	43440.49
576.943	43567.46
577.141	43843.94
577.339	43870.56
577.537	43008.37
577.735	43262.32
577.933	42639.73
578.131	43118.96
578.329	42975.6
578.527	42918.26
578.725	42664.31
578.923	42664.31
579.121	42531.19
579.319	42332.54
579.516	42340.73
579.714	42189.18
579.912	42017.15
580.11	41578.89
580.308	42226.04
580.506	41802.11
580.704	41271.69
580.901	41642.37
581.099	41752.96
581.297	41249.16
581.495	40845.71
581.692	41355.66
581.89	40788.37
582.088	40841.62
582.285	40978.83
582.483	40911.25
582.681	40622.48
582.878	40358.3
583.076	40073.63
583.274	40774.03
583.471	39553.44
583.669	39999.9
583.866	39414.18
584.064	39532.96
584.262	39266.73
584.459	40061.34
584.657	39358.89
584.854	39664.03
585.052	38771.12
585.249	39160.23
585.447	39342.5
585.644	38572.47
585.841	39195.05
586.039	38986.16
586.236	38545.84
586.434	38508.98
586.631	38480.31
586.828	38357.43
587.026	38306.23
587.223	38109.63
587.42	38140.35
587.618	38252.98
587.815	37319.11
588.012	37595.59
588.21	37446.08
588.407	37734.85
588.604	37683.65
588.801	37132.75
588.999	37726.66
589.196	37118.41
589.393	37114.31
589.59	36749.78
589.787	36909.52
589.984	36620.75
590.182	36563.41
590.379	36600.27
590.576	36407.76
590.773	36379.09
590.97	36483.54
591.167	36610.51
591.364	35662.3
591.561	36026.84
591.758	35551.71
591.955	35584.48
592.152	35932.64
592.349	35475.94
592.546	35838.43
592.743	35543.52
592.94	34935.27
593.137	35334.63
593.334	35471.84
593.531	34978.28
593.727	35326.44
593.924	35019.24
594.121	34634.22
594.318	35080.68
594.515	34533.87
594.712	35009
594.908	34484.72
595.105	34728.43
595.302	34101.75
595.499	34435.57
595.696	34218.49
595.892	34081.27
596.089	34187.77
596.286	33880.57
596.482	33937.91
596.679	33647.1
596.876	34019.83
597.072	33454.59
597.269	33649.15
597.466	33124.87
597.662	33550.85
597.859	33219.08
598.055	33786.36
598.252	32940.55
598.448	33094.15
598.645	32848.39
598.841	32881.16
599.038	32956.94
599.234	32963.08
599.431	32522.77
599.627	32401.94
599.824	32903.69
600.02	32504.34
600.217	32756.24
600.413	32365.07
600.609	31730.2
600.806	32231.96
601.002	32160.28
601.198	31791.64
601.395	31709.72
601.591	31793.69
601.787	31431.2
601.984	31932.95
602.18	31783.45
602.376	31382.05
602.572	31015.46
602.769	30974.5
602.965	31097.38
603.161	31212.07
603.357	31275.55
603.553	30960.17
603.75	31150.63
603.946	30904.87
604.142	31089.19
604.338	30599.73
604.534	30646.83
604.73	30249.52
604.926	30149.17
605.122	30345.78
605.318	30046.77
605.514	30173.75
605.71	30134.84
605.906	30069.3
606.102	29809.21
606.298	29895.22
606.494	29698.62
606.69	29727.29
606.886	29723.19
607.082	29346.37
607.278	29782.59
607.474	29057.6
607.67	29444.67
607.866	29174.34
608.062	29698.62
608.257	29149.76
608.453	29280.83
608.649	29209.15
608.845	29110.85
609.041	28764.75
609.236	29186.63
609.432	28850.76
609.628	29002.31
609.824	28959.3
610.019	28475.98
610.215	28555.85
610.411	28713.55
610.606	28138.07
610.802	28731.98
610.998	28375.63
611.193	28392.01
611.389	28273.23
611.584	28201.55
611.78	27927.13
611.976	28060.24
612.171	28332.62
612.367	27959.89
612.562	27861.59
612.758	27581.02
612.953	27630.17
613.149	27648.6
613.344	27462.24
613.539	27982.42
613.735	27787.86
613.93	28064.34
614.126	27390.56
614.321	27746.9
614.517	27443.81
614.712	27535.96
614.907	27284.06
615.103	27630.17
615.298	27120.23
615.493	27495
615.688	27146.85
615.884	27365.98
616.079	26581.61
616.274	27083.36
616.47	26770.02
616.665	27050.6
616.86	26641
617.055	26856.04
617.25	26733.16
617.445	26997.35
617.641	26540.65
617.836	26475.12
618.031	26395.25
618.226	26387.05
618.421	26225.26
618.616	26411.63
618.811	26010.23
619.006	26315.37
619.201	25768.57
619.396	25870.97
619.591	25821.81
619.786	26061.43
619.981	25297.53
620.176	25662.07
620.371	25303.68
620.566	25363.07
620.761	24930.95
620.956	25266.81
621.151	25119.36
621.346	24812.17
621.541	24728.2
621.735	24965.76
621.93	24482.44
622.125	24418.96
622.32	24085.14
622.515	24154.77
622.709	24185.49
622.904	23790.23
623.099	23722.65
623.294	23730.84
623.488	23593.62
623.683	23528.09
623.878	23249.57
624.072	23405.21
624.267	23243.42
624.462	22887.07
624.656	22794.92
624.851	23077.54
625.046	22694.57
625.24	22452.91
625.435	22375.08
625.629	22340.27
625.824	22045.36
626.018	22182.57
626.213	21723.83
626.407	21729.97
626.602	21842.61
626.796	21818.04
626.991	21787.32
627.185	21535.42
627.38	21117.63
627.574	21160.64
627.768	20855.49
627.963	21002.94
628.157	20597.45
628.352	20896.45
628.546	20165.32
628.74	20677.32
628.935	20280.01
629.129	20603.59
629.323	20071.12
629.517	19958.48
629.712	20013.77
629.906	19985.1
630.1	19659.48
630.294	19780.31
630.489	19532.5
630.683	19737.3
630.877	19399.38
631.071	19165.92
631.265	19319.51
631.459	19206.87
631.653	18940.64
631.848	18909.92
632.042	18766.56
632.236	18791.14
632.43	18430.69
632.624	18467.56
632.818	18541.29
633.012	18490.09
633.206	17988.33
633.4	18481.89
633.594	17883.89
633.788	17912.56
633.982	17978.09
634.176	17750.77
634.369	17677.04
634.563	17890.03
634.757	17423.09
634.951	17419
635.145	17357.56
635.339	17175.29
635.533	17013.5
635.726	17015.55
635.92	16847.61
636.114	16857.85
636.308	16892.67
636.501	16669.44
636.695	16552.71
636.889	16462.6
637.083	16255.75
637.276	16372.49
637.47	16118.54
637.664	16030.48
637.857	16089.87
638.051	15772.43
638.244	16016.14
638.438	15698.7
638.632	15770.38
638.825	15713.04
639.019	15627.03
639.212	15411.99
639.406	15145.75
639.599	15194.9
639.793	15332.12
639.986	15086.36
640.18	15039.26
640.373	14992.16
640.567	14625.57
640.76	14680.86
640.954	14639.9
641.147	14406.44
641.34	14463.78
641.534	14304.04
641.727	14377.76
641.92	14099.24
642.114	13892.4
642.307	14299.94
642.5	13896.49
642.694	13771.57
642.887	13636.4
643.08	13847.34
643.273	13611.82
643.467	13685.55
643.66	13542.19
643.853	13523.76
644.046	13257.53
644.239	13415.22
644.432	13169.46
644.626	13255.48
644.819	12989.24
645.012	12991.29
645.205	13108.02
645.398	12870.46
645.591	12718.91
645.784	12587.84
645.977	12680
646.17	12454.72
646.363	12446.53
646.556	12254.02
646.749	12399.43
646.942	12356.42
647.135	12055.37
647.328	12229.45
647.521	11889.48
647.714	11922.25
647.907	11905.87
648.099	11694.93
648.292	11782.99
648.485	11699.02
648.678	11381.59
648.871	11481.94
649.064	11473.74
649.256	11471.7
649.449	11191.13
649.642	11160.41
649.835	11139.93
650.027	11070.3
650.22	10933.08
650.413	11033.43
650.605	11058.01
650.798	10910.55
650.991	10959.7
651.183	10740.57
651.376	10728.28
651.568	10623.84
651.761	10787.68
651.954	10556.25
652.146	10548.06
652.339	10318.69
652.531	10414.95
652.724	10279.78
652.916	10187.62
653.109	9986.92
653.301	10197.86
653.494	10290.02
653.686	10107.75
653.879	10074.98
654.071	10070.89
654.263	10068.84
654.456	9798.51
654.648	9597.81
654.84	9601.9
655.033	9786.22
655.225	9665.39
655.417	9683.82
655.61	9571.18
655.802	9515.89
655.994	9614.19
656.186	9487.22
656.379	9368.43
656.571	9356.15
656.763	9372.53
656.955	9122.68
657.148	9173.88
657.34	9012.09
657.532	8809.34
657.724	8993.65
657.916	8948.6
658.108	8686.46
658.3	8651.64
658.492	8835.96
658.684	8426.37
658.876	8700.8
659.068	8661.88
659.26	8620.92
659.452	8684.41
659.644	8545.15
659.836	8532.86
660.028	8295.3
660.22	8285.06
660.412	8336.26
660.604	8151.94
660.796	8225.67
660.988	8151.94
661.18	8235.91
661.372	7879.56
661.563	7924.62
661.755	7908.23
661.947	7902.09
662.139	7822.22
662.331	7795.59
662.522	7758.73
662.714	7820.17
662.906	7660.43
663.097	7873.42
663.289	7627.66
663.481	7465.87
663.673	7625.61
663.864	7314.32
664.056	7439.25
664.247	7437.2
664.439	7306.13
664.631	7420.81
664.822	7326.61
665.014	7277.46
665.205	7363.47
665.397	7193.49
665.588	7140.24
665.78	7054.23
665.971	6835.1
666.163	7267.22
666.354	7011.22
666.546	7087
666.737	6894.49
666.929	6863.77
667.12	6898.58
667.311	6910.87
667.503	6740.89
667.694	6706.07
667.885	6738.84
668.077	6562.72
668.268	6697.88
668.459	6570.91
668.651	6484.89
668.842	6583.2
669.033	6355.87
669.224	6472.61
669.416	6433.69
669.607	6323.1
669.798	6386.59
669.989	6579.1
670.18	6445.98
670.371	6280.1
670.563	6339.49
670.754	6228.9
670.945	6110.11
671.136	6230.94
671.327	6222.75
671.518	6128.55
671.709	6130.59
671.9	6249.38
672.091	6163.36
672.282	6044.58
672.473	6071.2
672.664	6069.16
672.855	5876.65
673.046	5981.09
673.237	5780.39
673.428	5938.09
673.619	5925.8
673.809	5770.15
674	5876.65
674.191	5839.78
674.382	5782.44
674.573	5854.12
674.764	5737.38
674.954	5786.54
675.145	5663.66
675.336	5811.11
675.527	5575.59
675.717	5637.03
675.908	5626.79
676.099	5542.83
676.289	5649.32
676.48	5594.03
676.671	5653.42
676.861	5497.77
677.052	5479.34
677.243	5528.49
677.433	5364.65
677.624	5458.86
677.814	5526.44
678.005	5399.47
678.195	5305.26
678.386	5436.33
678.576	5264.3
678.767	5352.37
678.957	5301.17
679.148	5362.61
679.338	5317.55
679.529	5356.46
679.719	5198.77
679.909	5342.13
680.1	5239.73
680.29	5254.06
680.481	5141.43
680.671	5180.34
680.861	5141.43
681.052	5110.71
681.242	5161.91
681.432	5200.82
681.622	5172.15
681.813	5139.38
682.003	5166
682.193	5106.61
682.383	5233.58
682.573	5055.41
682.764	5051.31
682.954	5022.64
683.144	4946.87
683.334	4938.68
683.524	4977.59
683.714	5026.74
683.904	4942.77
684.094	5055.41
684.284	4953.01
684.474	5002.16
684.664	4996.02
684.854	4920.24
685.044	4989.88
685.234	5047.22
685.424	4996.02
685.614	4852.66
685.804	4934.58
685.994	4819.89
686.184	4932.53
686.374	4928.44
686.564	4760.5
686.753	4823.99
686.943	4686.78
687.133	4752.31
687.323	4686.78
687.513	4881.33
687.702	4750.26
687.892	4637.63
688.082	4735.93
688.272	4793.27
688.461	4737.98
688.651	4600.76
688.841	4684.73
689.03	4631.48
689.22	4594.62
689.41	4498.36
689.599	4563.9
689.789	4617.15
689.979	4500.41
690.168	4502.46
690.358	4524.99
690.547	4510.65
690.737	4668.34
690.926	4584.38
691.116	4451.26
691.305	4453.31
691.495	4481.98
691.684	4434.88
691.874	4447.16
692.063	4398.01
692.252	4359.1
692.442	4426.68
692.631	4395.96
692.82	4422.59
693.01	4264.89
693.199	4404.16
693.388	4287.42
693.578	4174.78
693.767	4328.38
693.956	4209.6
694.146	4260.8
694.335	4539.32
694.524	4365.25
694.713	4185.02
694.902	4146.11
695.092	4154.3
695.281	4268.99
695.47	4225.98
695.659	4291.52
695.848	4260.8
696.037	4182.98
696.226	4268.99
696.415	4266.94
696.604	4144.06
696.793	4131.78
696.982	4285.37
697.171	4062.15
697.36	4182.98
697.549	4056
697.738	4127.68
697.927	4113.35
698.116	4053.95
698.305	4209.6
698.494	4154.3
698.683	4078.53
698.872	4066.24
699.061	4178.88
699.25	3916.74
699.438	4094.91
699.627	3978.18
699.816	4070.34
700.005	3972.04
700.193	3969.99
700.382	4101.06
700.571	3965.89
700.76	4096.96
700.948	3976.13
701.137	3900.36
701.326	4021.19
701.514	3906.5
701.703	3754.95
701.892	4017.09
702.08	3822.53
702.269	3836.87
702.457	3857.35
702.646	3877.83
702.834	3949.51
703.023	3857.35
703.212	3896.26
703.4	3761.09
703.589	3861.45
703.777	3974.08
703.965	3828.68
704.154	3826.63
704.342	3615.69
704.531	3748.81
704.719	3750.85
704.907	3746.76
705.096	3728.33
705.284	3722.18
705.472	3767.24
705.661	3675.08
705.849	3836.87
706.037	3754.95
706.226	3599.31
706.414	3572.68
706.602	3625.93
706.79	3609.54
706.979	3595.21
707.167	3562.44
707.355	3601.35
707.543	3595.21
707.731	3603.4
707.919	3519.43
708.107	3474.38
708.296	3601.35
708.484	3560.39
708.672	3603.4
708.86	3505.1
709.048	3554.25
709.236	3421.13
709.424	3445.71
709.612	3464.14
709.8	3337.17
709.988	3427.28
710.176	3507.15
710.364	3408.84
710.551	3503.05
710.739	3382.22
710.927	3247.05
711.115	3376.08
711.303	3419.08
711.491	3435.47
711.679	3218.38
711.866	3292.11
712.054	3218.38
712.242	3271.63
712.43	3263.44
712.617	3255.25
712.805	3251.15
712.993	3294.16
713.181	3132.37
713.368	3271.63
713.556	3183.57
713.744	3146.7
713.931	3316.69
714.119	3210.19
714.306	3087.31
714.494	3181.52
714.682	3154.9
714.869	3204.05
715.057	3103.7
715.244	3165.14
715.432	3187.66
715.619	2982.87
715.807	3066.83
715.994	3038.16
716.182	3175.38
716.369	2960.34
716.556	3079.12
716.744	2917.33
716.931	3054.55
717.119	2980.82
717.306	2976.72
717.493	3070.93
717.681	3013.59
717.868	3009.49
718.055	2958.29
718.242	2911.19
718.43	2900.95
718.617	2894.8
718.804	2970.58
718.991	2880.47
719.179	2931.67
719.366	2921.43
719.553	2896.85
719.74	2876.37
719.927	2806.74
720.114	2687.96
720.301	2870.23
720.488	2710.49
720.676	2694.1
720.863	2765.78
721.05	2821.08
721.237	2778.07
721.424	2696.15
721.611	2798.55
721.798	2698.2
721.985	2747.35
722.172	2661.34
722.358	2591.7
722.545	2640.86
722.732	2667.48
722.919	2638.81
723.106	2665.43
723.293	2692.05
723.48	2647
723.667	2628.57
723.853	2577.37
724.04	2560.98
724.227	2579.42
724.414	2653.14
724.6	2714.58
724.787	2530.27
724.974	2571.22
725.161	2470.87
725.347	2526.17
725.534	2601.94
725.72	2509.79
725.907	2483.16
726.094	2477.02
726.28	2343.9
726.467	2522.07
726.653	2329.56
726.84	2481.11
727.027	2542.55
727.213	2489.31
727.4	2438.11
727.586	2454.49
727.773	2421.72
727.959	2403.29
728.145	2315.23
728.332	2345.95
728.518	2329.56
728.705	2442.2
728.891	2415.58
729.077	2345.95
729.264	2296.8
729.45	2304.99
729.636	2468.83
729.823	2325.47
730.009	2434.01
730.195	2335.71
730.382	2300.89
730.568	2313.18
730.754	2333.66
730.94	2378.72
731.126	2321.37
731.313	2210.78
731.499	2130.91
731.685	2231.26
731.871	2249.69
732.057	2272.22
732.243	2188.25
732.429	2184.16
732.615	2212.83
732.801	2257.89
732.987	2108.38
733.173	2137.06
733.359	2210.78
733.545	2167.77
733.731	2042.85
733.917	2264.03
734.103	2092
734.289	2106.34
734.475	2108.38
734.661	2317.28
734.847	2229.21
735.033	2118.62
735.219	2153.44
735.404	2180.06
735.59	2110.43
735.776	2120.67
735.962	2149.34
736.148	2071.52
736.333	2053.09
736.519	1981.41
736.705	2028.51
736.89	1991.65
737.076	2100.19
737.262	2008.03
737.447	2018.27
737.633	1971.17
737.819	1989.6
738.004	1979.36
738.19	2020.32
738.375	2055.14
738.561	1952.74
738.747	1903.59
738.932	1938.4
739.118	1956.83
739.303	1999.84
739.489	1899.49
739.674	2053.09
739.859	1772.52
740.045	1930.21
740.23	1899.49
740.416	1881.06
740.601	1850.34
740.786	1819.62
740.972	1719.27
741.157	1891.3
741.342	1922.02
741.528	1936.35
741.713	1862.63
741.898	1782.76
742.084	1813.48
742.269	1797.09
742.454	1840.1
742.639	1887.2
742.824	1823.72
743.01	1788.9
743.195	1741.8
743.38	1604.58
743.565	1823.72
743.75	1729.51
743.935	1614.82
744.12	1776.61
744.305	1659.88
744.49	1629.16
744.675	1741.8
744.86	1643.49
745.045	1739.75
745.23	1749.99
745.415	1700.84
745.6	1653.73
745.785	1625.06
745.97	1651.69
746.155	1610.73
746.34	1569.77
746.525	1612.78
746.71	1582.06
746.895	1518.57
747.079	1575.91
747.264	1559.53
747.449	1547.24
747.634	1561.58
747.819	1565.67
748.003	1418.22
748.188	1461.23
748.373	1532.9
748.557	1551.34
748.742	1395.69
748.927	1614.82
749.111	1465.32
749.296	1401.83
749.481	1514.47
749.665	1405.93
749.85	1424.36
750.034	1446.89
750.219	1412.07
750.404	1405.93
750.588	1283.05
750.773	1418.22
750.957	1362.92
751.141	1291.24
751.326	1334.25
751.51	1328.11
751.695	1289.2
751.879	1354.73
752.064	1330.16
752.248	1260.52
752.432	1291.24
752.617	1309.68
752.801	1299.44
752.985	1328.11
753.17	1387.5
753.354	1287.15
753.538	1268.72
753.722	1258.48
753.907	1313.77
754.091	1240.05
754.275	1199.09
754.459	1192.94
754.643	1135.6
754.828	1203.18
755.012	1117.17
755.196	1137.65
755.38	1205.23
755.564	1117.17
755.748	1117.17
755.932	1162.22
756.116	1154.03
756.3	1149.93
756.484	1076.21
756.668	1143.79
756.852	988.14
757.036	1029.1
757.22	1127.41
757.404	1117.17
757.588	1141.74
757.772	1094.64
757.956	1035.25
758.14	1027.06
758.323	1012.72
758.507	973.81
758.691	1072.11
758.875	1061.87
759.059	1014.77
759.242	865.27
759.426	1010.67
759.61	1051.63
759.794	998.38
759.977	920.56
760.161	1084.4
760.345	1008.62
760.528	990.19
760.712	977.91
760.895	879.6
761.079	883.7
761.263	838.64
761.446	883.7
761.63	953.33
761.813	846.84
761.997	863.22
762.18	938.99
762.364	898.03
762.547	881.65
762.731	816.12
762.914	822.26
763.098	945.14
763.281	832.5
763.464	871.41
763.648	887.79
763.831	918.51
764.015	879.6
764.198	871.41
764.381	836.6
764.564	873.46
764.748	879.6
764.931	840.69
765.114	869.36
765.297	941.04
765.481	889.84
765.664	867.31
765.847	783.35
766.03	947.19
766.213	865.27
766.397	793.59
766.58	793.59
766.763	883.7
766.946	842.74
767.129	715.77
767.312	723.96
767.495	783.35
767.678	766.96
767.861	773.11
768.044	709.62
768.227	793.59
768.41	834.55
768.593	762.87
768.776	672.76
768.959	766.96
769.142	789.49
769.324	857.07
769.507	732.15
769.69	707.57
769.873	734.2
770.056	769.01
770.239	752.63
770.421	726
770.604	764.92
770.787	670.71
770.97	832.5
771.152	732.15
771.335	723.96
771.518	740.34
771.7	656.37
771.883	799.73
772.066	738.29
772.248	683
772.431	615.41
772.613	721.91
772.796	723.96
772.978	623.61
773.161	672.76
773.343	631.8
773.526	732.15
773.708	689.14
773.891	633.85
774.073	627.7
774.256	635.89
774.438	752.63
774.621	605.17
774.803	642.04
774.985	629.75
775.168	672.76
775.35	601.08
775.532	615.41
775.715	617.46
775.897	629.75
776.079	547.83
776.261	697.33
776.444	621.56
776.626	631.8
776.808	619.51
776.99	545.78
777.173	592.89
777.355	633.85
777.537	564.22
777.719	525.3
777.901	590.84
778.083	590.84
778.265	590.84
778.447	590.84
778.629	443.39
778.811	549.88
778.993	541.69
779.175	572.41
779.357	535.54
779.539	525.3
779.721	508.92
779.903	556.02
780.085	527.35
780.267	504.82
780.449	486.39
780.631	502.78
780.812	584.7
780.994	474.1
781.176	465.91
781.358	502.78
781.54	435.19
781.721	496.63
781.903	492.54
782.085	484.34
782.267	472.06
782.448	441.34
782.63	443.39
782.812	494.58
782.993	566.26
783.175	521.21
783.357	404.47
783.538	449.53
783.72	447.48
783.901	381.95
784.083	396.28
784.264	400.38
784.446	396.28
784.627	498.68
784.809	427
784.99	392.19
785.172	324.6
785.353	392.19
785.535	513.02
785.716	406.52
785.897	347.13
786.079	377.85
786.26	392.19
786.441	353.27
786.623	361.47
786.804	416.76
786.985	396.28
787.167	402.43
787.348	336.89
787.529	400.38
787.71	349.18
787.891	300.03
788.073	343.03
788.254	369.66
788.435	400.38
788.616	363.51
788.797	254.97
788.978	351.23
789.159	345.08
789.34	377.85
789.522	297.98
789.703	324.6
789.884	336.89
790.065	414.71
790.246	443.39
790.427	285.69
790.607	310.27
790.788	343.03
790.969	283.64
791.15	318.46
791.331	351.23
791.512	257.02
791.693	355.32
791.874	330.75
792.054	271.36
792.235	361.47
792.416	340.99
792.597	265.21
792.778	287.74
792.958	386.04
793.139	353.27
793.32	269.31
793.5	271.36
793.681	308.22
793.862	226.3
794.042	320.51
794.223	289.79
794.404	267.26
794.584	222.2
794.765	306.17
794.945	222.2
795.126	252.92
795.306	287.74
795.487	230.4
795.667	244.73
795.848	259.07
796.028	226.3
796.209	271.36
796.389	273.4
796.57	232.44
796.75	187.39
796.93	222.2
797.111	261.12
797.291	246.78
797.471	283.64
797.652	111.61
797.832	238.59
798.012	197.63
798.192	261.12
798.373	201.72
798.553	164.86
798.733	254.97
798.913	240.64
799.093	220.16
799.274	238.59
799.454	193.53
799.634	189.44
799.814	156.67
799.994	177.15
800.174	250.88
800.354	263.16
800.534	185.34
800.714	267.26
800.894	183.29
801.074	222.2
801.254	267.26
801.434	173.05
801.614	162.81
801.794	224.25
801.974	531.45
802.154	171.01
802.334	113.66
802.514	259.07
802.693	252.92
802.873	150.53
803.053	240.64
803.233	254.97
803.413	228.35
803.592	179.2
803.772	214.01
803.952	166.91
804.131	166.91
804.311	222.2
804.491	224.25
804.67	240.64
804.85	173.05
805.03	220.16
805.209	261.12
805.389	216.06
805.568	234.49
805.748	220.16
805.928	218.11
806.107	154.62
806.287	203.77
806.466	123.9
806.646	91.13
806.825	254.97
807.004	189.44
807.184	248.83
807.363	146.43
807.543	207.87
807.722	99.33
807.901	119.81
808.081	240.64
808.26	189.44
808.439	148.48
808.619	107.52
808.798	187.39
808.977	62.46
809.156	189.44
809.336	111.61
809.515	197.63
809.694	230.4
809.873	121.85
810.052	158.72
810.231	220.16
810.411	166.91
810.59	160.77
810.769	181.25
810.948	168.96
811.127	146.43
811.306	236.54
811.485	156.67
811.664	156.67
811.843	54.27
812.022	132.09
812.201	146.43
812.38	142.33
812.559	99.33
812.737	246.78
812.916	80.89
813.095	166.91
813.274	101.37
813.453	101.37
813.632	148.48
813.811	246.78
813.989	236.54
814.168	109.57
814.347	146.43
814.526	156.67
814.704	125.95
814.883	164.86
815.062	87.04
815.24	132.09
815.419	76.8
815.598	152.57
815.776	171.01
815.955	234.49
816.133	166.91
816.312	58.37
816.49	117.76
816.669	132.09
816.847	140.29
817.026	134.14
817.204	82.94
817.383	203.77
817.561	164.86
817.74	164.86
817.918	138.24
818.097	74.75
818.275	132.09
818.453	136.19
818.632	171.01
818.81	123.9
818.988	185.34
819.167	56.32
819.345	144.38
819.523	117.76
819.701	66.56
819.879	117.76
820.058	74.75
820.236	111.61
820.414	82.94
820.592	154.62
820.77	128
820.948	72.7
821.127	119.81
821.305	189.44
821.483	68.61
821.661	121.85
821.839	25.6
822.017	140.29
822.195	111.61
822.373	107.52
822.551	44.03
822.729	168.96
822.907	162.81
823.085	168.96
823.262	150.53
823.44	211.96
823.618	62.46
823.796	56.32
823.974	109.57
824.152	68.61
824.329	62.46
824.507	78.85
824.685	125.95
824.863	125.95
825.04	60.42
825.218	74.75
825.396	138.24
825.574	97.28
825.751	35.84
825.929	156.67
826.107	76.8
826.284	62.46
826.462	44.03
826.639	105.47
826.817	156.67
826.994	168.96
827.172	48.13
827.349	48.13
827.527	46.08
827.704	56.32
827.882	125.95
828.059	162.81
828.237	134.14
828.414	56.32
828.591	25.6
828.769	136.19
828.946	101.37
829.124	95.23
829.301	87.04
829.478	128
829.655	39.94
829.833	60.42
830.01	54.27
830.187	35.84
830.364	168.96
830.542	78.85
830.719	80.89
830.896	119.81
831.073	62.46
831.25	58.37
831.427	50.18
831.604	113.66
831.782	58.37
831.959	89.09
832.136	68.61
832.313	201.72
832.49	46.08
832.667	115.71
832.844	48.13
833.021	23.55
833.198	121.85
833.374	50.18
833.551	52.22
833.728	56.32
833.905	56.32
834.082	66.56
834.259	13.31
834.436	168.96
834.612	33.79
834.789	166.91
834.966	44.03
835.143	130.05
835.319	46.08
835.496	62.46
835.673	33.79
835.85	62.46
836.026	132.09
836.203	97.28
836.38	68.61
836.556	60.42
836.733	76.8
836.909	111.61
837.086	64.51
837.262	66.56
837.439	87.04
837.616	37.89
837.792	41.98
837.968	19.46
838.145	84.99
838.321	25.6
838.498	54.27
838.674	89.09
838.851	97.28
839.027	9.22
839.203	140.29
839.38	119.81
839.556	99.33
839.732	87.04
839.909	48.13
840.085	101.37
840.261	-3.07
840.437	95.23
840.614	37.89
840.79	138.24
840.966	52.22
841.142	58.37
841.318	119.81
841.494	87.04
841.671	82.94
841.847	17.41
842.023	113.66
842.199	89.09
842.375	-7.17
842.551	58.37
842.727	117.76
842.903	117.76
843.079	46.08
843.255	62.46
843.431	39.94
843.607	99.33
843.783	74.75
843.959	25.6
844.134	82.94
844.31	117.76
844.486	144.38
844.662	35.84
844.838	60.42
845.013	195.58
845.189	62.46
845.365	68.61
845.541	115.71
845.716	44.03
845.892	48.13
846.068	107.52
846.244	58.37
846.419	58.37
846.595	54.27
846.77	48.13
846.946	23.55
847.122	33.79
847.297	21.5
847.473	107.52
847.648	46.08
847.824	89.09
847.999	52.22
848.175	91.13
848.35	91.13
848.526	89.09
848.701	1.02
848.876	97.28
849.052	142.33
849.227	9.22
849.403	58.37
849.578	50.18
849.753	39.94
849.929	46.08
850.104	89.09
850.279	93.18
850.454	33.79
850.63	-25.6
850.805	52.22
850.98	15.36
851.155	3.07
851.33	76.8
851.505	-37.89
851.681	50.18
851.856	39.94
852.031	160.77
852.206	35.84
852.381	23.55
852.556	56.32
852.731	66.56
852.906	23.55
853.081	5.12
853.256	21.5
853.431	-15.36
853.606	72.7
853.781	87.04
853.956	19.46
854.131	50.18
854.305	17.41
854.48	56.32
854.655	29.7
854.83	31.74
855.005	52.22
855.18	46.08
855.354	13.31
855.529	113.66
855.704	13.31
855.879	62.46
856.053	60.42
856.228	50.18
856.403	37.89
856.577	72.7
856.752	52.22
856.926	91.13
857.101	58.37
857.276	-9.22
857.45	5.12
857.625	68.61
857.799	25.6
857.974	99.33
858.148	97.28
858.323	33.79
858.497	46.08
858.672	-54.27
858.846	1.02
859.02	97.28
859.195	-13.31
859.369	-11.26
859.543	35.84
859.718	25.6
859.892	103.42
860.066	97.28
860.241	-25.6
860.415	-1.02
860.589	44.03
860.763	31.74
860.938	78.85
861.112	76.8
861.286	-27.65
861.46	48.13
861.634	52.22
861.808	62.46
861.982	80.89
862.157	70.65
862.331	35.84
862.505	25.6
862.679	29.7
862.853	-23.55
863.027	99.33
863.201	56.32
863.375	-17.41
863.549	15.36
863.722	64.51
863.896	27.65
864.07	-25.6
864.244	48.13
864.418	-13.31
864.592	27.65
864.766	31.74
864.939	23.55
865.113	58.37
865.287	82.94
865.461	-3.07
865.634	119.81
865.808	39.94
865.982	-15.36
866.156	70.65
866.329	13.31
866.503	13.31
866.676	29.7
866.85	15.36
867.024	41.98
867.197	7.17
867.371	-35.84
867.544	9.22
867.718	-7.17
867.891	25.6
868.065	23.55
868.238	82.94
868.412	105.47
868.585	21.5
868.759	87.04
868.932	60.42
869.105	39.94
869.279	21.5
869.452	-25.6
869.625	89.09
869.799	25.6
869.972	25.6
870.145	21.5
870.319	89.09
870.492	62.46
870.665	5.12
870.838	-17.41
871.011	7.17
871.185	5.12
871.358	39.94
871.531	19.46
871.704	19.46
871.877	31.74
872.05	25.6
872.223	48.13
872.396	74.75
872.569	33.79
872.742	1.02
872.915	23.55
873.088	17.41
873.261	-25.6
873.434	54.27
873.607	1.02
873.78	62.46
873.953	31.74
874.126	25.6
874.299	-17.41
874.471	27.65
874.644	62.46
874.817	54.27
874.99	138.24
875.163	-29.7
875.335	3.07
875.508	-31.74
875.681	35.84
875.853	39.94
876.026	52.22
876.199	35.84
876.371	35.84
876.544	95.23
876.717	-5.12
876.889	-17.41
877.062	87.04
877.234	23.55
877.407	19.46
877.579	5.12
877.752	3.07
877.924	-21.5
878.097	50.18
878.269	-29.7
878.442	-21.5
878.614	60.42
878.786	-3.07
878.959	5.12
879.131	-3.07
879.303	3.07
879.476	19.46
879.648	39.94
879.82	-29.7
879.993	-33.79
880.165	-5.12
880.337	19.46
880.509	11.26
880.681	-62.46
880.854	1.02
881.026	-54.27
881.198	82.94
881.37	19.46
881.542	9.22
881.714	27.65
881.886	-52.22
882.058	-23.55
882.23	41.98
882.402	-64.51
882.574	-41.98
882.746	93.18
882.918	66.56
883.09	39.94
883.262	-66.56
883.434	9.22
883.606	-27.65
883.778	25.6
883.95	25.6
884.122	87.04
884.293	74.75
884.465	11.26
884.637	72.7
884.809	-7.17
884.98	50.18
885.152	21.5
885.324	89.09
885.496	-11.26
885.667	-41.98
885.839	-48.13
886.011	60.42
886.182	-19.46
886.354	78.85
886.525	78.85
886.697	17.41
886.869	-60.42
887.04	29.7
887.212	72.7
887.383	113.66
887.555	31.74
887.726	50.18
887.897	-25.6
888.069	35.84
888.24	44.03
888.412	27.65
888.583	25.6
888.754	23.55
888.926	15.36
889.097	-3.07
889.268	-44.03
889.44	31.74
889.611	-9.22
889.782	13.31
889.953	7.17
890.125	74.75
890.296	11.26
890.467	35.84
890.638	37.89
890.809	46.08
890.98	27.65
891.151	31.74
891.323	39.94
891.494	1.02
891.665	-31.74
891.836	115.71
892.007	111.61
892.178	52.22
892.349	23.55
892.52	25.6
892.691	48.13
892.862	-1.02
893.032	-23.55
893.203	76.8
893.374	37.89
893.545	87.04
893.716	33.79
893.887	-7.17
894.057	17.41
894.228	-15.36
894.399	39.94
894.57	9.22
894.74	-37.89
894.911	74.75
895.082	-21.5
895.253	23.55
895.423	66.56
895.594	-27.65
895.764	13.31
895.935	13.31
896.106	74.75
896.276	-62.46
896.447	-21.5
896.617	-1.02
896.788	-29.7
896.958	-11.26
897.129	41.98
897.299	-35.84
897.47	5.12
897.64	-3.07
897.81	-7.17
897.981	68.61
898.151	-72.7
898.322	13.31
898.492	11.26
898.662	-35.84
898.832	-35.84
899.003	-23.55
899.173	80.89
899.343	21.5
899.513	-39.94
