Data from USB4F104151__9__12-34-59-625.txt Node

Date: Fri Mar 14 12:34:59 EDT 2025
User: louis
Spectrometer: USB4F10415
Trigger mode: 4
Integration Time (sec): 2.000000E-2
Scans to average: 1
Electric dark correction enabled: true
Nonlinearity correction enabled: false
Boxcar width: 0
XAxis mode: Wavelengths
Number of Pixels in Spectrum: 3648
>>>>>Begin Spectral Data<<<<<
178.204	-46.59
178.424	-46.59
178.644	-46.59
178.864	0.51
179.084	-34.3
179.304	33.28
179.524	2.56
179.744	-13.82
179.964	-7.68
180.184	-28.16
180.404	55.81
180.624	-38.4
180.844	-28.16
181.064	23.04
181.283	6.66
181.503	14.85
181.723	-19.97
181.943	23.04
182.163	88.57
182.383	-65.02
182.602	55.81
182.822	14.85
183.042	10.75
183.262	49.66
183.482	-22.02
183.701	6.66
183.921	74.24
184.141	61.95
184.361	49.66
184.58	-11.78
184.8	27.14
185.02	-28.16
185.239	84.48
185.459	31.23
185.679	74.24
185.898	2.56
186.118	102.91
186.338	-17.92
186.557	102.91
186.777	18.94
186.997	49.66
187.216	29.18
187.436	80.38
187.655	94.72
187.875	107.01
188.095	33.28
188.314	45.57
188.534	10.75
188.753	-34.3
188.973	64
189.192	86.53
189.412	104.96
189.631	57.86
189.851	49.66
190.07	121.34
190.29	68.09
190.509	10.75
190.729	70.14
190.948	29.18
191.168	117.25
191.387	14.85
191.607	98.81
191.826	37.38
192.045	25.09
192.265	-1.54
192.484	74.24
192.704	23.04
192.923	43.52
193.142	31.23
193.362	72.19
193.581	84.48
193.8	78.33
194.02	-38.4
194.239	-13.82
194.458	111.1
194.678	-15.87
194.897	14.85
195.116	0.51
195.335	-1.54
195.555	59.9
195.774	100.86
195.993	-65.02
196.212	64
196.432	57.86
196.651	41.47
196.87	45.57
197.089	78.33
197.308	4.61
197.528	-30.21
197.747	31.23
197.966	-24.06
198.185	96.77
198.404	123.39
198.623	16.9
198.842	74.24
199.062	104.96
199.281	98.81
199.5	41.47
199.719	8.7
199.938	41.47
200.157	18.94
200.376	64
200.595	49.66
200.814	76.29
201.033	20.99
201.252	14.85
201.471	80.38
201.69	76.29
201.909	70.14
202.128	68.09
202.347	64
202.566	29.18
202.785	20.99
203.004	12.8
203.223	55.81
203.442	4.61
203.661	33.28
203.879	43.52
204.098	16.9
204.317	18.94
204.536	76.29
204.755	37.38
204.974	94.72
205.193	33.28
205.411	76.29
205.63	66.05
205.849	90.62
206.068	2.56
206.287	76.29
206.505	0.51
206.724	6.66
206.943	76.29
207.162	10.75
207.381	23.04
207.599	111.1
207.818	61.95
208.037	64
208.255	-19.97
208.474	35.33
208.693	64
208.911	107.01
209.13	37.38
209.349	35.33
209.567	129.53
209.786	59.9
210.005	33.28
210.223	35.33
210.442	31.23
210.661	94.72
210.879	66.05
211.098	31.23
211.316	47.62
211.535	123.39
211.753	76.29
211.972	109.05
212.191	-13.82
212.409	29.18
212.628	-24.06
212.846	8.7
213.065	131.58
213.283	16.9
213.502	16.9
213.72	-30.21
213.938	47.62
214.157	14.85
214.375	-50.69
214.594	-13.82
214.812	4.61
215.031	41.47
215.249	31.23
215.467	35.33
215.686	14.85
215.904	76.29
216.122	0.51
216.341	57.86
216.559	74.24
216.778	35.33
216.996	72.19
217.214	35.33
217.432	125.44
217.651	8.7
217.869	18.94
218.087	92.67
218.306	-48.64
218.524	107.01
218.742	66.05
218.96	76.29
219.179	68.09
219.397	2.56
219.615	51.71
219.833	29.18
220.051	20.99
220.27	66.05
220.488	45.57
220.706	70.14
220.924	51.71
221.142	59.9
221.36	18.94
221.578	18.94
221.796	55.81
222.015	74.24
222.233	39.42
222.451	107.01
222.669	-46.59
222.887	74.24
223.105	14.85
223.323	25.09
223.541	23.04
223.759	104.96
223.977	55.81
224.195	43.52
224.413	80.38
224.631	78.33
224.849	-7.68
225.067	115.2
225.285	33.28
225.503	35.33
225.721	-75.26
225.939	70.14
226.157	37.38
226.375	160.25
226.592	145.92
226.81	-48.64
227.028	92.67
227.246	57.86
227.464	2.56
227.682	82.43
227.9	49.66
228.117	33.28
228.335	-34.3
228.553	-15.87
228.771	74.24
228.989	31.23
229.206	-13.82
229.424	129.53
229.642	20.99
229.86	104.96
230.077	43.52
230.295	57.86
230.513	29.18
230.731	8.7
230.948	125.44
231.166	72.19
231.384	86.53
231.601	33.28
231.819	29.18
232.037	80.38
232.254	-9.73
232.472	16.9
232.689	2.56
232.907	61.95
233.125	27.14
233.342	76.29
233.56	27.14
233.777	57.86
233.995	35.33
234.213	109.05
234.43	88.57
234.648	-15.87
234.865	2.56
235.083	16.9
235.3	-58.88
235.518	51.71
235.735	96.77
235.953	100.86
236.17	92.67
236.388	107.01
236.605	41.47
236.822	137.73
237.04	59.9
237.257	4.61
237.475	16.9
237.692	49.66
237.909	12.8
238.127	27.14
238.344	14.85
238.562	4.61
238.779	29.18
238.996	33.28
239.214	0.51
239.431	49.66
239.648	53.76
239.865	111.1
240.083	100.86
240.3	66.05
240.517	45.57
240.735	125.44
240.952	14.85
241.169	-7.68
241.386	51.71
241.603	33.28
241.821	49.66
242.038	70.14
242.255	117.25
242.472	18.94
242.689	139.77
242.907	82.43
243.124	131.58
243.341	25.09
243.558	0.51
243.775	80.38
243.992	94.72
244.209	41.47
244.426	107.01
244.643	107.01
244.86	0.51
245.078	55.81
245.295	8.7
245.512	-5.63
245.729	-24.06
245.946	131.58
246.163	-5.63
246.38	102.91
246.597	-46.59
246.814	39.42
247.031	29.18
247.248	45.57
247.464	70.14
247.681	49.66
247.898	20.99
248.115	37.38
248.332	74.24
248.549	96.77
248.766	33.28
248.983	49.66
249.2	31.23
249.417	43.52
249.633	39.42
249.85	49.66
250.067	-17.92
250.284	131.58
250.501	74.24
250.717	27.14
250.934	16.9
251.151	82.43
251.368	84.48
251.585	-19.97
251.801	14.85
252.018	18.94
252.235	33.28
252.451	68.09
252.668	47.62
252.885	88.57
253.102	41.47
253.318	-26.11
253.535	68.09
253.752	-7.68
253.968	55.81
254.185	-44.54
254.401	8.7
254.618	25.09
254.835	78.33
255.051	49.66
255.268	2.56
255.484	111.1
255.701	-15.87
255.917	61.95
256.134	47.62
256.351	47.62
256.567	-19.97
256.784	133.63
257	-30.21
257.217	57.86
257.433	59.9
257.65	76.29
257.866	117.25
258.082	125.44
258.299	37.38
258.515	53.76
258.732	-42.5
258.948	8.7
259.165	-9.73
259.381	61.95
259.597	41.47
259.814	35.33
260.03	53.76
260.246	55.81
260.463	49.66
260.679	16.9
260.895	39.42
261.112	35.33
261.328	29.18
261.544	70.14
261.761	102.91
261.977	39.42
262.193	-1.54
262.409	59.9
262.626	-5.63
262.842	29.18
263.058	35.33
263.274	35.33
263.49	43.52
263.707	98.81
263.923	107.01
264.139	16.9
264.355	35.33
264.571	0.51
264.787	20.99
265.004	61.95
265.22	25.09
265.436	8.7
265.652	76.29
265.868	49.66
266.084	-30.21
266.3	25.09
266.516	35.33
266.732	98.81
266.948	55.81
267.164	18.94
267.38	47.62
267.596	96.77
267.812	47.62
268.028	2.56
268.244	23.04
268.46	41.47
268.676	90.62
268.892	41.47
269.108	12.8
269.324	-54.78
269.54	6.66
269.756	27.14
269.972	12.8
270.188	96.77
270.403	12.8
270.619	55.81
270.835	61.95
271.051	45.57
271.267	31.23
271.483	90.62
271.698	29.18
271.914	-3.58
272.13	80.38
272.346	29.18
272.562	37.38
272.777	39.42
272.993	78.33
273.209	23.04
273.425	47.62
273.64	59.9
273.856	49.66
274.072	82.43
274.287	12.8
274.503	59.9
274.719	70.14
274.934	53.76
275.15	20.99
275.366	41.47
275.581	20.99
275.797	-3.58
276.012	23.04
276.228	119.29
276.444	39.42
276.659	20.99
276.875	35.33
277.09	80.38
277.306	39.42
277.521	51.71
277.737	-11.78
277.952	16.9
278.168	143.87
278.383	51.71
278.599	14.85
278.814	37.38
279.03	-50.69
279.245	115.2
279.461	23.04
279.676	12.8
279.892	-5.63
280.107	25.09
280.322	-22.02
280.538	51.71
280.753	20.99
280.969	90.62
281.184	88.57
281.399	113.15
281.615	113.15
281.83	6.66
282.045	-36.35
282.26	20.99
282.476	2.56
282.691	27.14
282.906	23.04
283.122	45.57
283.337	33.28
283.552	135.68
283.767	80.38
283.983	113.15
284.198	72.19
284.413	49.66
284.628	80.38
284.843	74.24
285.058	16.9
285.274	55.81
285.489	33.28
285.704	39.42
285.919	35.33
286.134	-36.35
286.349	-9.73
286.564	25.09
286.779	72.19
286.995	-3.58
287.21	61.95
287.425	78.33
287.64	-32.26
287.855	39.42
288.07	80.38
288.285	72.19
288.5	78.33
288.715	76.29
288.93	-19.97
289.145	107.01
289.36	98.81
289.575	57.86
289.79	57.86
290.004	16.9
290.219	86.53
290.434	12.8
290.649	98.81
290.864	47.62
291.079	6.66
291.294	61.95
291.509	98.81
291.724	88.57
291.938	43.52
292.153	84.48
292.368	10.75
292.583	100.86
292.798	98.81
293.012	39.42
293.227	-15.87
293.442	96.77
293.657	51.71
293.871	104.96
294.086	31.23
294.301	107.01
294.516	39.42
294.73	84.48
294.945	68.09
295.16	-13.82
295.374	80.38
295.589	25.09
295.804	61.95
296.018	68.09
296.233	2.56
296.447	33.28
296.662	4.61
296.877	37.38
297.091	35.33
297.306	33.28
297.52	68.09
297.735	47.62
297.949	72.19
298.164	49.66
298.378	55.81
298.593	31.23
298.807	45.57
299.022	35.33
299.236	70.14
299.451	4.61
299.665	37.38
299.88	45.57
300.094	47.62
300.309	12.8
300.523	51.71
300.737	78.33
300.952	-19.97
301.166	49.66
301.381	-34.3
301.595	10.75
301.809	29.18
302.024	74.24
302.238	61.95
302.452	96.77
302.667	10.75
302.881	55.81
303.095	43.52
303.309	51.71
303.524	49.66
303.738	64
303.952	53.76
304.166	64
304.381	-19.97
304.595	143.87
304.809	78.33
305.023	20.99
305.237	-44.54
305.452	25.09
305.666	49.66
305.88	29.18
306.094	55.81
306.308	14.85
306.522	35.33
306.736	90.62
306.95	150.01
307.164	23.04
307.379	4.61
307.593	78.33
307.807	57.86
308.021	64
308.235	64
308.449	98.81
308.663	20.99
308.877	102.91
309.091	35.33
309.305	74.24
309.519	29.18
309.733	-7.68
309.947	33.28
310.161	59.9
310.374	82.43
310.588	88.57
310.802	80.38
311.016	14.85
311.23	0.51
311.444	43.52
311.658	25.09
311.872	37.38
312.085	88.57
312.299	70.14
312.513	90.62
312.727	66.05
312.941	20.99
313.154	131.58
313.368	80.38
313.582	64
313.796	61.95
314.009	39.42
314.223	27.14
314.437	55.81
314.651	0.51
314.864	33.28
315.078	100.86
315.292	49.66
315.505	16.9
315.719	86.53
315.933	35.33
316.146	18.94
316.36	41.47
316.573	102.91
316.787	27.14
317.001	61.95
317.214	72.19
317.428	-28.16
317.641	16.9
317.855	-15.87
318.068	78.33
318.282	20.99
318.495	57.86
318.709	6.66
318.922	20.99
319.136	86.53
319.349	55.81
319.563	41.47
319.776	49.66
319.99	49.66
320.203	45.57
320.417	-3.58
320.63	84.48
320.843	16.9
321.057	43.52
321.27	84.48
321.483	49.66
321.697	94.72
321.91	-3.58
322.124	35.33
322.337	84.48
322.55	47.62
322.763	117.25
322.977	27.14
323.19	23.04
323.403	45.57
323.617	74.24
323.83	92.67
324.043	84.48
324.256	100.86
324.469	90.62
324.683	-15.87
324.896	20.99
325.109	-19.97
325.322	10.75
325.535	51.71
325.748	31.23
325.962	61.95
326.175	66.05
326.388	86.53
326.601	78.33
326.814	107.01
327.027	88.57
327.24	143.87
327.453	-3.58
327.666	104.96
327.879	43.52
328.092	70.14
328.305	45.57
328.518	-3.58
328.731	49.66
328.944	133.63
329.157	68.09
329.37	61.95
329.583	102.91
329.796	-3.58
330.009	86.53
330.222	18.94
330.435	29.18
330.648	82.43
330.861	35.33
331.073	-22.02
331.286	57.86
331.499	61.95
331.712	64
331.925	59.9
332.138	45.57
332.35	16.9
332.563	53.76
332.776	119.29
332.989	37.38
333.202	80.38
333.414	-19.97
333.627	49.66
333.84	82.43
334.053	84.48
334.265	51.71
334.478	76.29
334.691	68.09
334.903	25.09
335.116	-19.97
335.329	57.86
335.541	20.99
335.754	78.33
335.966	23.04
336.179	51.71
336.392	37.38
336.604	18.94
336.817	33.28
337.029	104.96
337.242	14.85
337.454	86.53
337.667	72.19
337.88	78.33
338.092	121.34
338.305	20.99
338.517	66.05
338.729	78.33
338.942	98.81
339.154	14.85
339.367	33.28
339.579	51.71
339.792	49.66
340.004	49.66
340.217	47.62
340.429	59.9
340.641	23.04
340.854	147.97
341.066	-3.58
341.278	154.11
341.491	25.09
341.703	57.86
341.915	35.33
342.128	74.24
342.34	121.34
342.552	35.33
342.764	29.18
342.977	45.57
343.189	76.29
343.401	49.66
343.613	41.47
343.826	51.71
344.038	6.66
344.25	61.95
344.462	-1.54
344.674	59.9
344.886	-44.54
345.099	70.14
345.311	-9.73
345.523	70.14
345.735	-22.02
345.947	-1.54
346.159	72.19
346.371	39.42
346.583	47.62
346.795	92.67
347.007	100.86
347.219	102.91
347.431	111.1
347.643	137.73
347.855	64
348.067	27.14
348.279	55.81
348.491	59.9
348.703	33.28
348.915	43.52
349.127	51.71
349.339	74.24
349.551	-19.97
349.763	119.29
349.975	41.47
350.187	59.9
350.399	20.99
350.61	8.7
350.822	66.05
351.034	47.62
351.246	39.42
351.458	41.47
351.669	33.28
351.881	18.94
352.093	53.76
352.305	66.05
352.517	33.28
352.728	61.95
352.94	12.8
353.152	53.76
353.363	98.81
353.575	59.9
353.787	84.48
353.999	4.61
354.21	127.49
354.422	86.53
354.633	92.67
354.845	18.94
355.057	135.68
355.268	68.09
355.48	51.71
355.692	53.76
355.903	31.23
356.115	12.8
356.326	-28.16
356.538	43.52
356.749	86.53
356.961	-5.63
357.172	64
357.384	53.76
357.595	94.72
357.807	51.71
358.018	70.14
358.23	51.71
358.441	80.38
358.653	113.15
358.864	55.81
359.075	-1.54
359.287	-1.54
359.498	92.67
359.709	68.09
359.921	74.24
360.132	135.68
360.344	78.33
360.555	92.67
360.766	74.24
360.977	45.57
361.189	53.76
361.4	-9.73
361.611	59.9
361.823	90.62
362.034	37.38
362.245	10.75
362.456	141.82
362.667	53.76
362.879	49.66
363.09	102.91
363.301	113.15
363.512	74.24
363.723	53.76
363.935	88.57
364.146	70.14
364.357	14.85
364.568	92.67
364.779	64
364.99	51.71
365.201	47.62
365.412	64
365.623	31.23
365.834	43.52
366.045	18.94
366.256	80.38
366.467	-7.68
366.678	59.9
366.889	4.61
367.1	135.68
367.311	27.14
367.522	92.67
367.733	74.24
367.944	14.85
368.155	51.71
368.366	-28.16
368.577	18.94
368.788	53.76
368.999	-3.58
369.209	51.71
369.42	57.86
369.631	43.52
369.842	125.44
370.053	25.09
370.264	51.71
370.474	57.86
370.685	49.66
370.896	74.24
371.107	119.29
371.317	35.33
371.528	55.81
371.739	86.53
371.95	43.52
372.16	37.38
372.371	45.57
372.582	43.52
372.792	20.99
373.003	96.77
373.214	88.57
373.424	74.24
373.635	39.42
373.846	129.53
374.056	59.9
374.267	20.99
374.477	35.33
374.688	74.24
374.898	80.38
375.109	117.25
375.319	47.62
375.53	82.43
375.74	27.14
375.951	102.91
376.161	41.47
376.372	100.86
376.582	23.04
376.793	96.77
377.003	-7.68
377.214	14.85
377.424	109.05
377.635	41.47
377.845	53.76
378.055	76.29
378.266	45.57
378.476	68.09
378.686	94.72
378.897	66.05
379.107	90.62
379.317	84.48
379.528	74.24
379.738	20.99
379.948	23.04
380.158	33.28
380.369	100.86
380.579	37.38
380.789	39.42
380.999	53.76
381.21	72.19
381.42	66.05
381.63	45.57
381.84	104.96
382.05	64
382.261	121.34
382.471	100.86
382.681	102.91
382.891	119.29
383.101	115.2
383.311	43.52
383.521	113.15
383.731	104.96
383.941	57.86
384.151	37.38
384.361	35.33
384.571	88.57
384.781	49.66
384.991	-22.02
385.201	125.44
385.411	55.81
385.621	115.2
385.831	68.09
386.041	-3.58
386.251	-15.87
386.461	29.18
386.671	53.76
386.881	51.71
387.091	96.77
387.301	12.8
387.511	-40.45
387.72	66.05
387.93	166.4
388.14	55.81
388.35	68.09
388.56	70.14
388.769	41.47
388.979	68.09
389.189	-52.74
389.399	55.81
389.609	45.57
389.818	35.33
390.028	37.38
390.238	57.86
390.447	78.33
390.657	86.53
390.867	53.76
391.076	57.86
391.286	39.42
391.496	111.1
391.705	-32.26
391.915	45.57
392.125	78.33
392.334	-13.82
392.544	141.82
392.753	49.66
392.963	119.29
393.172	49.66
393.382	-11.78
393.591	94.72
393.801	29.18
394.01	129.53
394.22	107.01
394.429	43.52
394.639	135.68
394.848	158.21
395.058	104.96
395.267	82.43
395.477	45.57
395.686	33.28
395.895	125.44
396.105	98.81
396.314	129.53
396.524	94.72
396.733	98.81
396.942	160.25
397.152	102.91
397.361	49.66
397.57	88.57
397.78	90.62
397.989	145.92
398.198	199.16
398.407	82.43
398.617	68.09
398.826	61.95
399.035	119.29
399.244	78.33
399.453	18.94
399.663	86.53
399.872	86.53
400.081	47.62
400.29	178.69
400.499	90.62
400.708	125.44
400.917	53.76
401.127	139.77
401.336	37.38
401.545	127.49
401.754	115.2
401.963	133.63
402.172	94.72
402.381	107.01
402.59	61.95
402.799	166.4
403.008	150.01
403.217	100.86
403.426	145.92
403.635	119.29
403.844	139.77
404.053	94.72
404.262	107.01
404.471	205.31
404.68	170.49
404.888	86.53
405.097	160.25
405.306	174.59
405.515	227.84
405.724	133.63
405.933	166.4
406.142	133.63
406.35	166.4
406.559	211.45
406.768	174.59
406.977	94.72
407.185	229.88
407.394	207.36
407.603	145.92
407.812	193.02
408.02	195.07
408.229	119.29
408.438	252.41
408.646	201.21
408.855	199.16
409.064	274.94
409.272	236.03
409.481	274.94
409.69	248.32
409.898	221.69
410.107	252.41
410.315	320
410.524	246.27
410.733	274.94
410.941	254.46
411.15	352.76
411.358	299.52
411.567	381.43
411.775	393.72
411.984	395.77
412.192	395.77
412.401	336.38
412.609	418.3
412.818	444.92
413.026	379.39
413.234	428.54
413.443	494.07
413.651	481.78
413.86	541.18
414.068	547.32
414.276	547.32
414.485	475.64
414.693	532.98
414.901	584.18
415.11	619
415.318	553.46
415.526	707.06
415.734	662.01
415.943	575.99
416.151	725.49
416.359	592.37
416.567	717.3
416.776	795.12
416.984	784.88
417.192	827.89
417.4	801.27
417.608	834.04
417.817	788.98
418.025	893.43
418.233	993.78
418.441	930.29
418.649	983.54
418.857	1042.93
419.065	1122.8
419.273	1051.12
419.481	1174
419.689	1098.22
419.897	1178.09
420.105	1182.19
420.313	1247.72
420.521	1247.72
420.729	1307.12
420.937	1415.66
421.145	1460.71
421.353	1448.43
421.561	1575.4
421.769	1604.07
421.977	1548.78
422.185	1559.02
422.393	1714.66
422.601	1745.38
422.809	1841.64
423.017	1855.97
423.224	1851.88
423.432	2052.58
423.64	1958.37
423.848	2169.31
424.056	2202.08
424.263	2376.16
424.471	2349.53
424.679	2279.9
424.887	2415.07
425.094	2535.9
425.302	2460.12
425.51	2566.62
425.718	2726.36
425.925	2681.3
426.133	2830.8
426.341	3004.88
426.548	3094.99
426.756	3099.09
426.964	3172.82
427.171	3299.79
427.379	3475.91
427.586	3463.63
427.794	3621.32
428.001	3776.97
428.209	3848.65
428.417	3828.17
428.624	4012.48
428.832	3989.96
429.039	3979.72
429.247	4166.08
429.454	4555.19
429.662	4716.98
429.869	4428.22
430.076	4776.38
430.284	4641.21
430.491	4800.95
430.699	5120.43
430.906	5167.54
431.114	5147.06
431.321	5329.33
431.528	5468.59
431.736	5839.27
431.943	6019.49
432.15	5886.37
432.358	6025.64
432.565	6291.87
432.772	6181.28
432.979	6597.02
433.187	6726.04
433.394	6674.84
433.601	7164.31
433.808	7104.92
434.016	7088.53
434.223	7324.05
434.43	7915.91
434.637	7823.75
434.844	8073.6
435.052	8407.42
435.259	8257.92
435.466	8307.07
435.673	8270.21
435.88	8892.79
436.087	9279.86
436.294	9437.55
436.501	9079.16
436.708	9425.26
436.915	9662.83
437.122	9957.74
437.329	10002.79
437.537	10367.33
437.743	10264.93
437.95	10346.85
438.157	11112.79
438.364	11254.1
438.571	11211.09
438.778	11106.65
438.985	12331.33
439.192	11974.99
439.399	12284.23
439.606	12130.63
439.813	12720.45
440.02	13330.74
440.227	13197.62
440.433	13119.8
440.64	13420.85
440.847	13545.78
441.054	13719.85
441.261	14680.35
441.467	14573.86
441.674	14928.16
441.881	15274.26
442.088	15216.92
442.294	15452.44
442.501	15644.95
442.708	15687.95
442.914	16521.48
443.121	17127.67
443.328	16658.69
443.534	17852.66
443.741	17387.77
443.948	17160.44
444.154	18399.46
444.361	18284.78
444.568	18518.25
444.774	18532.58
444.981	18866.4
445.187	19159.26
445.394	19822.8
445.6	19865.81
445.807	21579.96
446.013	20906.18
446.22	21143.74
446.426	22368.43
446.633	22233.26
446.839	22841.51
447.046	22171.82
447.252	23206.05
447.459	23378.08
447.665	23314.59
447.871	24569.99
448.078	25182.34
448.284	24164.5
448.491	24582.28
448.697	25755.77
448.903	26028.15
449.11	26155.12
449.316	25843.83
449.522	26325.1
449.728	26976.36
449.935	27183.2
450.141	27349.09
450.347	27953.24
450.553	26855.53
450.76	27093.09
450.966	27967.57
451.172	27480.16
451.378	28678.22
451.584	27893.85
451.791	28508.24
451.997	28467.28
452.203	29571.13
452.409	29315.14
452.615	28694.6
452.821	28086.36
453.027	27777.11
453.233	29034.56
453.44	27867.22
453.646	28414.03
453.852	28563.53
454.058	28891.21
454.264	28055.64
454.47	28403.79
454.676	28024.92
454.882	28719.18
455.088	26470.51
455.294	26886.25
455.5	27037.8
455.705	27301.98
455.911	26304.62
456.117	25710.71
456.323	25317.5
456.529	24101.01
456.735	25161.86
456.941	24742.02
457.147	24244.37
457.352	23429.27
457.558	23347.36
457.764	23404.7
457.97	23117.98
458.176	22388.91
458.381	22108.33
458.587	21117.12
458.793	21440.7
458.999	20187.34
459.204	21457.08
459.41	20822.21
459.616	19572.95
459.821	19681.49
460.027	19749.07
460.233	18993.37
460.438	18295.02
460.644	18305.26
460.85	17760.5
461.055	17387.77
461.261	17291.51
461.466	15876.37
461.672	15315.22
461.878	16541.96
462.083	15399.19
462.289	14891.29
462.494	14936.35
462.7	14424.36
462.905	13943.08
463.111	14723.36
463.316	14371.11
463.522	14145.83
463.727	14186.79
463.932	14065.96
464.138	14078.25
464.343	14100.78
464.549	13486.39
464.754	14098.73
464.959	13752.62
465.165	14094.63
465.37	13578.54
465.575	13029.69
465.781	13596.98
465.986	13381.94
466.191	12822.84
466.397	12763.45
466.602	12155.21
466.807	12708.16
467.012	12824.89
467.218	12671.29
467.423	12321.09
467.628	12392.77
467.833	13062.46
468.038	12577.09
468.244	12259.65
468.449	12689.73
468.654	12101.96
468.859	12253.51
469.064	11895.11
469.269	11651.41
469.474	11774.28
469.679	11958.6
469.885	11536.72
470.09	11753.8
470.295	11764.04
470.5	11350.35
470.705	11829.58
470.91	11188.57
471.115	11149.65
471.32	11446.61
471.525	11102.55
471.73	11094.36
471.935	10998.1
472.139	10678.62
472.344	10647.9
472.549	10658.14
472.754	10379.62
472.959	10299.75
473.164	10058.09
473.369	10074.47
473.574	10406.24
473.778	10293.6
473.983	9986.41
474.188	9871.72
474.393	9609.58
474.598	9625.97
474.802	9585.01
475.007	9425.26
475.212	9394.54
475.417	9290.1
475.621	9050.49
475.826	9167.22
476.031	9124.21
476.235	8976.76
476.44	9089.4
476.645	8634.75
476.849	8747.39
477.054	8855.93
477.259	8524.16
477.463	8675.71
477.668	8319.36
477.872	8366.46
478.077	8503.68
478.282	7993.73
478.486	8104.32
478.691	8094.08
478.895	7872.9
479.1	7807.37
479.304	7930.25
479.509	7582.09
479.713	7807.37
479.918	7588.24
480.122	7598.48
480.326	7696.78
480.531	7551.37
480.735	7444.88
480.94	7547.28
481.144	7659.92
481.348	7270.8
481.553	7539.08
481.757	7410.06
481.961	7559.56
482.166	7625.1
482.37	7336.34
482.574	7293.33
482.778	7360.91
482.983	7444.88
483.187	7352.72
483.391	7367.06
483.595	7311.76
483.8	7270.8
484.004	7369.1
484.208	7289.23
484.412	7229.84
484.616	7408.01
484.821	7342.48
485.025	7143.83
485.229	7344.53
485.433	7315.86
485.637	7201.17
485.841	7285.14
486.045	7113.11
486.249	7041.43
486.453	7217.55
486.657	7256.47
486.861	7244.18
487.065	7166.35
487.269	7285.14
487.473	7182.74
487.677	7264.66
487.881	7512.46
488.085	7127.44
488.289	7289.23
488.493	7160.21
488.697	7330.19
488.901	7328.14
489.105	7305.62
489.309	7467.41
489.512	7483.79
489.716	7481.74
489.92	7244.18
490.124	7248.27
490.328	7573.9
490.531	7528.85
490.735	7461.26
490.939	7219.6
491.143	7514.51
491.346	7207.31
491.55	7504.27
491.754	7555.47
491.958	7496.08
492.161	7672.2
492.365	7557.52
492.569	7608.72
492.772	7582.09
492.976	7782.79
493.18	7815.56
493.383	7848.33
493.587	7915.91
493.79	8001.93
493.994	7784.84
494.197	7932.29
494.401	7889.29
494.605	7950.73
494.808	8135.04
495.012	8067.46
495.215	8229.25
495.419	8251.78
495.622	8288.64
495.825	8434.05
496.029	8354.18
496.232	8595.84
496.436	8692.09
496.639	8604.03
496.843	8720.76
497.046	8862.07
497.249	9046.39
497.453	9277.81
497.656	9073.01
497.859	8995.19
498.063	9247.09
498.266	9507.18
498.469	9408.88
498.673	9644.4
498.876	9632.11
499.079	9775.47
499.282	9726.32
499.485	10199.4
499.689	9939.3
499.892	10152.29
500.095	10254.69
500.298	10332.51
500.501	10365.28
500.705	10488.16
500.908	10733.92
501.111	10772.83
501.314	11098.45
501.517	10928.47
501.72	11131.22
501.923	11135.32
502.126	11465.04
502.329	11569.49
502.532	11618.64
502.735	11542.86
502.938	11903.31
503.141	11850.06
503.344	12024.14
503.547	12040.52
503.75	12448.07
503.953	12710.21
504.156	12728.64
504.359	12898.62
504.562	12630.34
504.765	13216.05
504.968	13199.67
505.17	13328.69
505.373	13091.13
505.576	13594.93
505.779	13670.7
505.982	13832.49
506.185	14000.43
506.387	14143.78
506.59	14364.96
506.793	14510.37
506.996	14598.43
507.198	14856.48
507.401	14754.08
507.604	15128.86
507.807	15331.61
508.009	15325.46
508.212	15571.22
508.415	15763.73
508.617	15868.17
508.82	16328.97
509.022	16113.93
509.225	16681.22
509.428	16705.79
509.63	16703.75
509.833	16611.59
510.035	17467.64
510.238	16996.6
510.44	17223.93
510.643	17623.28
510.845	17895.66
511.048	17627.38
511.25	17918.19
511.453	18233.58
511.655	19103.96
511.858	18548.96
512.06	18940.13
512.262	19060.96
512.465	18983.13
512.667	19194.08
512.87	19515.61
513.072	19843.28
513.274	19792.08
513.477	20252.87
513.679	20461.77
513.881	20523.21
514.084	20820.16
514.286	20637.89
514.488	20693.19
514.69	21539
514.893	21536.95
515.095	21637.3
515.297	22061.23
515.499	22073.52
515.701	22245.55
515.904	22794.4
516.106	22784.16
516.308	23011.49
516.51	23214.24
516.712	23130.27
516.914	23584.92
517.116	23945.36
517.318	23865.49
517.52	24045.71
517.722	24404.11
517.925	24840.32
518.127	25112.7
518.329	25325.69
518.531	24928.39
518.733	25378.94
518.935	25876.6
519.136	25651.32
519.338	26357.87
519.54	26351.73
519.742	26538.09
519.944	26572.91
520.146	27179.11
520.348	27431.01
520.55	27248.74
520.752	27586.65
520.954	27889.75
521.155	28029.01
521.357	28670.03
521.559	28416.08
521.761	28864.58
521.963	28946.5
522.164	29194.31
522.366	29220.93
522.568	29577.28
522.77	29628.48
522.971	30093.36
523.173	30021.69
523.375	30097.46
523.576	30273.59
523.778	30238.77
523.98	30763.05
524.181	30838.83
524.383	30674.99
524.584	31340.58
524.786	31522.85
524.988	31758.36
525.189	31934.49
525.391	31954.97
525.592	31897.63
525.794	32077.85
525.995	32274.45
526.197	32307.22
526.398	32540.69
526.6	32804.88
526.801	32876.55
527.003	32968.71
527.204	33202.18
527.406	33120.26
527.607	33226.76
527.808	33497.09
528.01	33036.3
528.211	33540.1
528.412	34064.38
528.614	34088.95
528.815	33863.68
529.016	33935.35
529.218	33626.11
529.419	34271.22
529.62	34156.53
529.822	34009.08
530.023	34279.41
530.224	34363.38
530.425	34191.35
530.626	33890.3
530.828	34119.67
531.029	35084.26
531.23	34371.57
531.431	34351.09
531.632	34668.53
531.833	34844.65
532.035	34512.88
532.236	34602.99
532.437	35135.46
532.638	34381.81
532.839	34895.85
533.04	34912.24
533.241	34580.46
533.442	34961.39
533.643	34787.31
533.844	35071.98
534.045	35008.49
534.246	34299.89
534.447	35125.22
534.648	34635.76
534.849	35121.13
535.05	34553.84
535.251	35106.79
535.451	34455.54
535.652	35270.63
535.853	35004.39
536.054	35303.4
536.255	35033.07
536.456	34414.58
536.657	35053.55
536.857	34854.89
537.058	35014.63
537.259	35121.13
537.46	35194.85
537.66	34553.84
537.861	34885.61
538.062	34699.25
538.263	34885.61
538.463	35037.16
538.664	34869.23
538.865	34676.72
539.065	34936.81
539.266	34605.04
539.466	35028.97
539.667	34086.9
539.868	34977.77
540.068	34772.97
540.269	34840.56
540.469	34957.29
540.67	34629.62
540.87	34463.73
541.071	34713.58
541.271	34660.34
541.472	34473.97
541.672	34602.99
541.873	34482.16
542.073	34213.88
542.274	34582.51
542.474	34902
542.675	34490.35
542.875	34656.24
543.075	34500.59
543.276	34121.72
543.476	34750.45
543.676	34349.04
543.877	34457.59
544.077	34244.6
544.277	33908.73
544.478	34170.87
544.678	34566.13
544.878	34521.07
545.078	34824.17
545.279	34088.95
545.479	34342.9
545.679	34254.84
545.879	34621.42
546.079	34308.08
546.28	34201.59
546.48	34011.13
546.68	34410.48
546.88	34770.93
547.08	34539.5
547.28	34326.52
547.48	34062.33
547.68	34246.65
547.88	34070.52
548.081	34236.41
548.281	34361.33
548.481	34084.86
548.681	34420.72
548.881	34269.17
549.081	34136.06
549.28	34095.1
549.48	34258.93
549.68	34289.65
549.88	34809.84
550.08	34234.36
550.28	34783.21
550.48	34320.37
550.68	34390
550.88	33812.48
551.08	34566.13
551.279	34078.71
551.479	33894.39
551.679	34226.17
551.879	34031.61
552.079	34279.41
552.278	34035.7
552.478	34213.88
552.678	34447.35
552.878	34275.32
553.077	33955.83
553.277	33835
553.477	34170.87
553.676	34181.11
553.876	34080.76
554.076	34021.37
554.275	33945.59
554.475	33650.69
554.674	34328.56
554.874	33857.53
555.074	33660.93
555.273	33966.07
555.473	33894.39
555.672	33554.43
555.872	33916.92
556.071	34166.77
556.271	34222.07
556.47	34072.57
556.67	33523.71
556.869	33636.35
557.068	33642.49
557.268	33607.68
557.467	33972.22
557.667	33867.77
557.866	33439.75
558.065	33329.16
558.265	33570.82
558.464	33300.48
558.663	33538.05
558.863	33441.79
559.062	33802.24
559.261	33169.41
559.461	33548.29
559.66	33208.33
559.859	33390.59
560.058	33179.65
560.258	33044.49
560.457	32821.26
560.656	33294.34
560.855	32890.89
561.054	33273.86
561.253	32788.49
561.453	33138.69
561.652	33071.11
561.851	33118.21
562.05	32751.63
562.249	32303.12
562.448	32845.83
562.647	32831.5
562.846	32493.58
563.045	32833.55
563.244	32321.55
563.443	32682
563.642	31758.36
563.841	32583.69
564.04	31782.94
564.239	32251.92
564.438	32299.03
564.637	32225.3
564.836	32137.24
565.035	31633.44
565.234	32030.74
565.432	32149.53
565.631	31987.74
565.83	31918.1
566.029	31582.24
566.228	31455.26
566.427	31549.47
566.625	31604.77
566.824	31363.11
567.023	31629.34
567.222	30423.09
567.42	31698.97
567.619	31092.77
567.818	30957.61
568.016	31096.87
568.215	31475.74
568.414	30924.84
568.612	31025.19
568.811	30605.36
569.01	30763.05
569.208	30439.47
569.407	30674.99
569.605	30398.51
569.804	30273.59
570.002	30240.82
570.201	30289.97
570.4	29968.44
570.598	29829.18
570.797	29763.64
570.995	30056.5
571.193	29853.75
571.392	30156.85
571.59	29644.86
571.789	29513.79
571.987	29694.01
572.186	29098.05
572.384	29397.06
572.582	29167.68
572.781	29214.79
572.979	29311.04
573.177	29087.81
573.376	29243.46
573.574	28788.81
573.772	29274.18
573.971	28956.74
574.169	28459.09
574.367	28432.46
574.565	28553.29
574.763	28164.18
574.962	28491.85
575.16	27938.9
575.358	28153.94
575.556	27826.26
575.754	28289.1
575.952	27699.29
576.151	28121.17
576.349	27687
576.547	27476.06
576.745	27711.58
576.943	27523.16
577.141	27359.33
577.339	27541.6
577.537	27416.67
577.735	27299.94
577.933	26931.3
578.131	27115.62
578.329	26927.21
578.527	26847.33
578.725	26937.44
578.923	26839.14
579.121	26740.84
579.319	26703.98
579.516	26781.8
579.714	26450.03
579.912	26267.76
580.11	26222.7
580.308	26292.33
580.506	25970.8
580.704	25649.27
580.901	26140.79
581.099	26331.25
581.297	26048.63
581.495	25772.15
581.692	26105.97
581.89	25581.69
582.088	26108.02
582.285	25432.19
582.483	25636.98
582.681	25706.62
582.878	25415.8
583.076	24977.54
583.274	25649.27
583.471	24961.16
583.669	25262.21
583.866	24891.52
584.064	25335.93
584.262	24684.68
584.459	25010.31
584.657	24553.61
584.854	25008.26
585.052	24543.37
585.249	24699.02
585.447	24578.18
585.644	24213.65
585.841	24164.5
586.039	24338.57
586.236	24150.16
586.434	24103.06
586.631	23953.55
586.828	23961.75
587.026	23736.47
587.223	24000.66
587.42	23560.34
587.618	23875.73
587.815	23519.39
588.012	23808.15
588.21	23302.3
588.407	23531.67
588.604	23173.28
588.801	23318.68
588.999	23120.03
589.196	22960.29
589.393	23130.27
589.59	23171.23
589.787	23093.41
589.984	22913.19
590.182	22401.19
590.379	22919.33
590.576	22456.49
590.773	22751.4
590.97	22642.85
591.167	22632.61
591.364	22476.97
591.561	22497.45
591.758	22036.66
591.955	22349.99
592.152	22390.95
592.349	21862.58
592.546	22116.53
592.743	22186.16
592.94	21848.24
593.137	21928.11
593.334	21733.56
593.531	21608.63
593.727	21733.56
593.924	21751.99
594.121	21483.7
594.318	21823.67
594.515	21170.36
594.712	21438.65
594.908	21260.48
595.105	21418.17
595.302	21070.01
595.499	21237.95
595.696	20900.03
595.892	20881.6
596.089	20918.46
596.286	20762.82
596.482	20697.28
596.679	20662.47
596.876	21051.58
597.072	20588.74
597.269	20601.03
597.466	20377.8
597.662	20408.52
597.859	20285.64
598.055	20480.2
598.252	20281.55
598.448	20349.13
598.645	20146.38
598.841	19912.91
599.038	20349.13
599.234	19955.92
599.431	19914.96
599.627	19806.42
599.824	20068.56
600.02	19794.13
600.217	19661.01
600.413	19622.1
600.609	19431.64
600.806	19482.84
601.002	19441.88
601.198	19161.31
601.395	19179.74
601.591	19044.57
601.787	19083.48
601.984	19126.49
602.18	19329.24
602.376	18925.79
602.572	18913.5
602.769	18989.28
602.965	18993.37
603.161	18813.15
603.357	18796.77
603.553	18854.11
603.75	18809.06
603.946	18532.58
604.142	18530.53
604.338	18286.82
604.534	18151.66
604.73	18088.17
604.926	18219.24
605.122	18202.86
605.318	18340.07
605.514	18292.97
605.71	18047.21
605.906	18196.71
606.102	17946.86
606.298	18043.12
606.494	17795.31
606.69	18018.54
606.886	17875.18
607.082	17666.29
607.278	17729.78
607.474	17772.78
607.67	17373.43
607.866	17412.34
608.062	17748.21
608.257	17576.18
608.453	17572.08
608.649	17314.04
608.845	17199.35
609.041	17264.89
609.236	17326.33
609.432	17191.16
609.628	17201.4
609.824	17135.87
610.019	16955.65
610.215	16843.01
610.411	17309.94
610.606	17056
610.802	17008.89
610.998	16961.79
611.193	16800
611.389	17019.13
611.584	17070.33
611.78	16535.81
611.976	16724.22
612.171	16648.45
612.367	16425.22
612.562	16546.05
612.758	16240.9
612.953	16384.26
613.149	16681.22
613.344	16279.82
613.539	16701.7
613.735	16453.89
613.93	16492.8
614.126	16470.28
614.321	16609.54
614.517	16400.65
614.712	16189.7
614.907	16015.63
615.103	15880.46
615.298	15784.21
615.493	16130.31
615.688	15962.38
615.884	16089.35
616.079	15767.82
616.274	16015.63
616.47	15894.8
616.665	15862.03
616.86	15532.31
617.055	15808.78
617.25	15829.26
617.445	15802.64
617.641	15329.56
617.836	15712.53
618.031	15544.59
618.226	15577.36
618.421	15343.89
618.616	15612.18
618.811	14997.79
619.006	15227.16
619.201	15051.03
619.396	15212.82
619.591	14704.93
619.786	14905.63
619.981	14729.5
620.176	14881.05
620.371	14848.29
620.566	14489.89
620.761	14788.89
620.956	14866.72
621.151	14399.78
621.346	14448.93
621.541	14397.73
621.735	14440.74
621.93	14330.15
622.125	14233.89
622.32	14053.67
622.515	14186.79
622.709	13781.29
622.904	13893.93
623.099	14158.12
623.294	13857.07
623.488	13723.95
623.683	13674.8
623.878	13519.15
624.072	13556.02
624.267	13547.83
624.462	13537.59
624.656	13273.4
624.851	13340.98
625.046	13023.55
625.24	13037.88
625.435	12964.15
625.629	12841.28
625.824	12730.69
626.018	12646.72
626.213	12394.82
626.407	12646.72
626.602	12376.39
626.796	12405.06
626.991	12366.15
627.185	12265.8
627.38	12347.72
627.574	12015.94
627.768	12112.2
627.963	12204.36
628.157	11938.12
628.352	12030.28
628.546	11764.04
628.74	11618.64
628.935	11587.92
629.129	11880.78
629.323	11602.25
629.517	11272.53
629.712	11526.48
629.906	11358.55
630.1	11391.31
630.294	11235.67
630.489	11053.4
630.683	11422.03
630.877	11202.9
631.071	11061.59
631.265	11211.09
631.459	10920.28
631.653	10885.47
631.848	10742.11
632.042	10541.41
632.236	10774.88
632.43	10676.57
632.624	10709.34
632.818	10516.83
633.012	10529.12
633.206	10293.6
633.4	10283.36
633.594	10236.26
633.788	10326.37
633.982	10260.84
634.176	10027.37
634.369	10314.08
634.563	10101.09
634.757	9810.28
634.951	9982.31
635.145	9890.15
635.339	9910.63
635.533	9890.15
635.726	9691.5
635.92	9509.23
636.114	9521.52
636.308	9439.6
636.501	9625.97
636.695	9462.13
636.889	9288.05
637.083	9331.06
637.276	9138.55
637.47	9226.61
637.664	9220.47
637.857	9333.11
638.051	9152.88
638.244	8960.38
638.438	8921.46
638.632	8960.38
638.825	9058.68
639.019	8761.72
639.212	8626.56
639.406	8741.24
639.599	8606.08
639.793	8796.54
639.986	8505.73
640.18	8585.6
640.373	8438.14
640.567	8386.94
640.76	8548.73
640.954	8235.39
641.147	8178.05
641.34	8272.26
641.534	8276.35
641.727	8018.31
641.92	8133
642.114	8077.7
642.307	8089.99
642.5	8102.28
642.694	7858.57
642.887	7715.21
643.08	7971.21
643.273	7801.22
643.467	7756.17
643.66	7598.48
643.853	7506.32
644.046	7469.45
644.239	7446.93
644.432	7416.21
644.626	7299.47
644.819	7401.87
645.012	7324.05
645.205	7266.71
645.398	7213.46
645.591	7319.95
645.784	7133.59
645.977	6971.8
646.17	7018.9
646.363	7086.48
646.556	6939.03
646.749	7041.43
646.942	7035.28
647.135	6869.4
647.328	6828.44
647.521	6863.26
647.714	6594.97
647.907	6746.52
648.099	6640.03
648.292	6590.88
648.485	6564.25
648.678	6511
648.871	6662.55
649.064	6558.11
649.256	6568.35
649.449	6320.54
649.642	6338.98
649.835	6461.85
650.027	6355.36
650.22	6402.46
650.413	6113.7
650.605	6263.2
650.798	6203.81
650.991	6060.45
651.183	5945.77
651.376	6080.93
651.568	6209.95
651.761	6056.36
651.954	6091.17
652.146	6058.4
652.339	6089.12
652.531	5890.47
652.724	5818.79
652.916	5794.22
653.109	5749.16
653.301	5749.16
653.494	5613.99
653.686	5685.67
653.879	5611.95
654.071	5749.16
654.263	5657
654.456	5601.71
654.648	5616.04
654.84	5517.74
655.033	5321.13
655.225	5372.33
655.417	5452.2
655.61	5392.81
655.802	5398.96
655.994	5333.42
656.186	5204.4
656.379	5329.33
656.571	5140.91
656.763	5120.43
656.955	5208.5
657.148	5153.2
657.34	5097.91
657.532	4991.41
657.724	5163.44
657.916	5091.76
658.108	5013.94
658.3	4944.31
658.492	5075.38
658.684	4985.27
658.876	4872.63
659.068	4800.95
659.26	4745.66
659.452	4792.76
659.644	4784.57
659.836	4731.32
660.028	4893.11
660.22	4772.28
660.412	4716.98
660.604	4587.96
660.796	4598.2
660.988	4614.59
661.18	4602.3
661.372	4594.11
661.563	4716.98
661.755	4477.37
661.947	4526.52
662.139	4477.37
662.331	4540.86
662.522	4385.21
662.714	4391.36
662.906	4327.87
663.097	4311.49
663.289	4438.46
663.481	4334.01
663.673	4368.83
663.864	4209.09
664.056	4313.53
664.247	4309.44
664.439	4350.4
664.631	4266.43
664.822	4223.42
665.014	4149.7
665.205	4151.74
665.397	4174.27
665.588	4295.1
665.78	4149.7
665.971	3951.04
666.163	3981.76
666.354	3912.13
666.546	4041.15
666.737	4035.01
666.929	4018.63
667.12	4012.48
667.311	3918.28
667.503	3770.82
667.694	4098.5
667.885	3889.6
668.077	3944.9
668.268	3799.49
668.459	3799.49
668.651	3733.96
668.842	3899.84
669.033	3809.73
669.224	3867.08
669.416	3811.78
669.607	3688.9
669.798	3713.48
669.989	3641.8
670.18	3652.04
670.371	3752.39
670.563	3695.05
670.754	3836.36
670.945	3373.52
671.136	3697.1
671.327	3672.52
671.518	3590.6
671.709	3592.65
671.9	3717.58
672.091	3545.55
672.282	3531.21
672.473	3590.6
672.664	3486.15
672.855	3721.67
673.046	3584.46
673.237	3606.98
673.428	3606.98
673.619	3631.56
673.809	3512.78
674	3477.96
674.191	3506.63
674.382	3463.63
674.573	3416.52
674.764	3432.91
674.954	3422.67
675.145	3402.19
675.336	3422.67
675.527	3500.49
675.717	3418.57
675.908	3385.8
676.099	3469.77
676.289	3326.41
676.48	3330.51
676.671	3332.56
676.861	3426.76
677.052	3328.46
677.243	3297.74
677.433	3178.96
677.624	3463.63
677.814	3285.45
678.005	3486.15
678.195	3422.67
678.386	3361.23
678.576	3379.66
678.767	3148.24
678.957	3224.01
679.148	3299.79
679.338	3371.47
679.529	3340.75
679.719	3258.83
679.909	3252.69
680.1	3301.84
680.29	3357.13
680.481	3232.21
680.671	3350.99
680.861	3271.12
681.052	3271.12
681.242	3256.78
681.432	3350.99
681.622	3297.74
681.813	3219.92
682.003	3207.63
682.193	3172.82
682.383	3348.94
682.573	3258.83
682.764	3228.11
682.954	3281.36
683.144	3158.48
683.334	3207.63
683.524	3148.24
683.714	3283.41
683.904	3047.89
684.094	3312.08
684.284	3164.62
684.474	3221.97
684.664	3277.26
684.854	3199.44
685.044	3076.56
685.234	3172.82
685.424	3215.82
685.614	3158.48
685.804	3142.1
685.994	3154.38
686.184	3105.23
686.374	3168.72
686.564	3101.14
686.753	3011.03
686.943	3060.18
687.133	3082.7
687.323	3097.04
687.513	3056.08
687.702	3074.51
687.892	3054.03
688.082	3221.97
688.272	3144.14
688.461	3115.47
688.651	3017.17
688.841	3025.36
689.03	3029.46
689.22	2988.5
689.41	3000.79
689.599	2978.26
689.789	3023.31
689.979	2980.31
690.168	3006.93
690.358	2943.44
690.547	2968.02
690.737	2843.09
690.926	3000.79
691.116	2963.92
691.305	2957.78
691.495	2886.1
691.684	2886.1
691.874	2947.54
692.063	2933.2
692.252	2884.05
692.442	2832.85
692.631	2918.87
692.82	2849.24
693.01	2867.67
693.199	2791.89
693.388	2806.23
693.578	2841.04
693.767	2824.66
693.956	2830.8
694.146	2771.41
694.335	2836.95
694.524	2918.87
694.713	2709.97
694.902	2945.49
695.092	2752.98
695.281	2824.66
695.47	2781.65
695.659	2795.99
695.848	2724.31
696.037	2857.43
696.226	2683.35
696.415	2775.51
696.604	2830.8
696.793	2767.32
696.982	2718.17
697.171	2841.04
697.36	2818.52
697.549	2777.56
697.738	2742.74
697.927	2660.82
698.116	2732.5
698.305	2752.98
698.494	2810.33
698.683	2775.51
698.872	2773.46
699.061	2695.64
699.25	2697.69
699.438	2841.04
699.627	2732.5
699.816	2759.13
700.005	2701.78
700.193	2695.64
700.382	2666.97
700.571	2734.55
700.76	2617.82
700.948	2677.21
701.137	2660.82
701.326	2716.12
701.514	2681.3
701.703	2658.78
701.892	2642.39
702.08	2779.61
702.269	2734.55
702.457	2693.59
702.646	2755.03
702.834	2697.69
703.023	2656.73
703.212	2632.15
703.4	2726.36
703.589	2597.34
703.777	2615.77
703.965	2572.76
704.154	2640.34
704.342	2621.91
704.531	2671.06
704.719	2539.99
704.907	2677.21
705.096	2679.26
705.284	2576.86
705.472	2656.73
705.661	2527.71
705.849	2738.65
706.037	2546.14
706.226	2525.66
706.414	2580.95
706.602	2482.65
706.79	2486.75
706.979	2474.46
707.167	2509.27
707.355	2460.12
707.543	2617.82
707.731	2689.49
707.919	2564.57
708.107	2525.66
708.296	2548.19
708.484	2494.94
708.672	2544.09
708.86	2419.16
709.048	2417.12
709.236	2535.9
709.424	2476.51
709.612	2529.75
709.8	2482.65
709.988	2503.13
710.176	2595.29
710.364	2587.1
710.551	2427.35
710.739	2447.83
710.927	2355.68
711.115	2476.51
711.303	2501.08
711.491	2417.12
711.679	2398.68
711.866	2413.02
712.054	2468.31
712.242	2413.02
712.43	2574.81
712.617	2437.59
712.805	2386.4
712.993	2402.78
713.181	2355.68
713.368	2501.08
713.556	2314.72
713.744	2314.72
713.931	2441.69
714.119	2482.65
714.306	2386.4
714.494	2447.83
714.682	2423.26
714.869	2292.19
715.057	2355.68
715.244	2308.57
715.432	2404.83
715.619	2384.35
715.807	2355.68
715.994	2294.24
716.182	2361.82
716.369	2359.77
716.556	2329.05
716.744	2267.61
716.931	2361.82
717.119	2320.86
717.306	2277.85
717.493	2230.75
717.681	2347.48
717.868	2208.22
718.055	2240.99
718.242	2345.44
718.43	2359.77
718.617	2218.46
718.804	2257.37
718.991	2230.75
719.179	2187.74
719.366	2255.33
719.553	2304.48
719.74	2159.07
719.927	2243.04
720.114	2183.65
720.301	2234.85
720.488	2251.23
720.676	2247.13
720.863	2292.19
721.05	2208.22
721.237	2226.65
721.424	2130.4
721.611	2304.48
721.798	2138.59
721.985	2200.03
722.172	2193.89
722.358	2128.35
722.545	2208.22
722.732	2195.93
722.919	2087.39
723.106	2079.2
723.293	2114.02
723.48	2169.31
723.667	1997.28
723.853	2109.92
724.04	2134.5
724.227	2075.1
724.414	2050.53
724.6	2013.67
724.787	2116.06
724.974	2111.97
725.161	1966.56
725.347	2032.1
725.534	2019.81
725.72	2048.48
725.907	2054.62
726.094	2081.25
726.28	2066.91
726.467	2111.97
726.653	2085.34
726.84	2052.58
727.027	2204.13
727.213	2085.34
727.4	2028
727.586	2046.43
727.773	1968.61
727.959	1964.51
728.145	2048.48
728.332	1954.27
728.518	2009.57
728.705	1962.47
728.891	1909.22
729.077	1901.03
729.264	1987.04
729.45	1944.03
729.636	2083.3
729.823	1888.74
730.009	1995.23
730.195	1903.07
730.382	1948.13
730.568	1987.04
730.754	1927.65
730.94	1939.94
731.126	1882.6
731.313	1905.12
731.499	1913.31
731.685	1864.16
731.871	1917.41
732.057	1886.69
732.243	1925.6
732.429	1948.13
732.615	1937.89
732.801	1882.6
732.987	1880.55
733.173	1950.18
733.359	1767.91
733.545	1851.88
733.731	1937.89
733.917	1747.43
734.103	1845.73
734.289	1901.03
734.475	1722.85
734.661	1995.23
734.847	1739.24
735.033	1786.34
735.219	1821.16
735.404	1815.01
735.59	1735.14
735.776	1829.35
735.962	1882.6
736.148	1855.97
736.333	1810.92
736.519	1669.61
736.705	1692.13
736.89	1827.3
737.076	1849.83
737.262	1788.39
737.447	1763.81
737.633	1802.72
737.819	1774.05
738.004	1802.72
738.19	1690.09
738.375	1694.18
738.561	1866.21
738.747	1798.63
738.932	1784.29
739.118	1874.4
739.303	1790.44
739.489	1776.1
739.674	1841.64
739.859	1718.76
740.045	1677.8
740.23	1675.75
740.416	1640.93
740.601	1642.98
740.786	1622.5
740.972	1620.46
741.157	1683.94
741.342	1716.71
741.528	1626.6
741.713	1548.78
741.898	1587.69
742.084	1554.92
742.269	1530.34
742.454	1616.36
742.639	1679.85
742.824	1645.03
743.01	1542.63
743.195	1657.32
743.38	1513.96
743.565	1524.2
743.75	1659.37
743.935	1516.01
744.12	1620.46
744.305	1511.91
744.49	1513.96
744.675	1493.48
744.86	1432.04
745.045	1491.43
745.23	1452.52
745.415	1501.67
745.6	1477.1
745.785	1493.48
745.97	1479.15
746.155	1503.72
746.34	1458.67
746.525	1444.33
746.71	1450.47
746.895	1395.18
747.079	1458.67
747.264	1438.19
747.449	1495.53
747.634	1333.74
747.819	1307.12
748.003	1411.56
748.188	1339.88
748.373	1429.99
748.557	1368.56
748.742	1350.12
748.927	1245.68
749.111	1241.58
749.296	1366.51
749.481	1366.51
749.665	1294.83
749.85	1284.59
750.034	1190.38
750.219	1239.53
750.404	1276.4
750.588	1227.25
750.773	1126.89
750.957	1245.68
751.141	1255.92
751.326	1196.53
751.51	1161.71
751.695	1151.47
751.879	1165.81
752.064	1171.95
752.248	1149.42
752.432	1204.72
752.617	1280.49
752.801	1178.09
752.985	1081.84
753.17	1100.27
753.354	1163.76
753.538	1153.52
753.722	1063.41
753.907	1071.6
754.091	1061.36
754.275	1061.36
754.459	1040.88
754.643	1151.47
754.828	1047.02
755.012	1047.02
755.196	1100.27
755.38	1063.41
755.564	967.15
755.748	1044.98
755.932	1059.31
756.116	1096.18
756.3	1061.36
756.484	1038.83
756.668	934.39
756.852	874.99
757.036	1004.02
757.22	942.58
757.404	905.71
757.588	895.47
757.772	997.87
757.956	928.24
758.14	924.15
758.323	942.58
758.507	918
758.691	979.44
758.875	977.39
759.059	915.95
759.242	838.13
759.426	940.53
759.61	891.38
759.794	817.65
759.977	973.3
760.161	940.53
760.345	874.99
760.528	829.94
760.712	874.99
760.895	893.43
761.079	879.09
761.263	842.23
761.446	778.74
761.63	829.94
761.813	823.8
761.997	805.36
762.18	870.9
762.364	854.51
762.547	750.07
762.731	866.8
762.914	793.08
763.098	823.8
763.281	803.32
763.464	831.99
763.648	782.84
763.831	760.31
764.015	776.69
764.198	801.27
764.381	760.31
764.564	788.98
764.748	743.92
764.931	758.26
765.114	664.05
765.297	735.73
765.481	645.62
765.664	752.12
765.847	676.34
766.03	682.49
766.213	682.49
766.397	764.4
766.58	721.4
766.763	754.16
766.946	764.4
767.129	702.97
767.312	688.63
767.495	700.92
767.678	723.44
767.861	803.32
768.044	737.78
768.227	684.53
768.41	592.37
768.593	694.77
768.776	680.44
768.959	729.59
769.142	752.12
769.324	657.91
769.507	729.59
769.69	694.77
769.873	664.05
770.056	729.59
770.239	604.66
770.421	569.85
770.604	698.87
770.787	639.48
770.97	672.25
771.152	700.92
771.335	604.66
771.518	657.91
771.7	621.05
771.883	682.49
772.066	653.81
772.248	600.57
772.431	694.77
772.613	655.86
772.796	608.76
772.978	623.09
773.161	547.32
773.343	537.08
773.526	567.8
773.708	561.66
773.891	512.5
774.073	553.46
774.256	604.66
774.438	649.72
774.621	575.99
774.803	614.9
774.985	545.27
775.168	592.37
775.35	551.42
775.532	614.9
775.715	535.03
775.897	506.36
776.079	549.37
776.261	543.22
776.444	582.14
776.626	543.22
776.808	596.47
776.99	528.89
777.173	463.35
777.355	557.56
777.537	432.63
777.719	500.22
777.901	428.54
778.083	461.3
778.265	410.11
778.447	532.98
778.629	508.41
778.811	512.5
778.993	489.98
779.175	514.55
779.357	510.46
779.539	477.69
779.721	467.45
779.903	485.88
780.085	463.35
780.267	420.35
780.449	434.68
780.631	494.07
780.812	471.54
780.994	453.11
781.176	440.83
781.358	414.2
781.54	535.03
781.721	453.11
781.903	483.83
782.085	395.77
782.267	383.48
782.448	403.96
782.63	385.53
782.812	365.05
782.993	338.43
783.175	483.83
783.357	420.35
783.538	467.45
783.72	403.96
783.901	358.91
784.083	356.86
784.264	375.29
784.446	379.39
784.627	350.71
784.809	475.64
784.99	412.15
785.172	363
785.353	342.52
785.535	336.38
785.716	387.58
785.897	346.62
786.079	418.3
786.26	309.76
786.441	305.66
786.623	281.08
786.804	381.43
786.985	289.28
787.167	322.04
787.348	301.56
787.529	365.05
787.71	238.08
787.891	360.95
788.073	272.89
788.254	297.47
788.435	270.84
788.616	295.42
788.797	287.23
788.978	301.56
789.159	279.04
789.34	326.14
789.522	272.89
789.703	322.04
789.884	240.12
790.065	274.94
790.246	313.85
790.427	317.95
790.607	276.99
790.788	283.13
790.969	213.5
791.15	293.37
791.331	289.28
791.512	174.59
791.693	231.93
791.874	299.52
792.054	317.95
792.235	332.28
792.416	201.21
792.597	283.13
792.778	305.66
792.958	270.84
793.139	252.41
793.32	285.18
793.5	262.65
793.681	221.69
793.862	291.32
794.042	250.36
794.223	217.6
794.404	254.46
794.584	203.26
794.765	188.93
794.945	295.42
795.126	236.03
795.306	276.99
795.487	215.55
795.667	291.32
795.848	262.65
796.028	143.87
796.209	250.36
796.389	248.32
796.57	203.26
796.75	154.11
796.93	213.5
797.111	248.32
797.291	221.69
797.471	158.21
797.652	270.84
797.832	170.49
798.012	184.83
798.192	199.16
798.373	188.93
798.553	164.35
798.733	199.16
798.913	199.16
799.093	186.88
799.274	246.27
799.454	211.45
799.634	182.78
799.814	207.36
799.994	145.92
800.174	129.53
800.354	252.41
800.534	246.27
800.714	199.16
800.894	193.02
801.074	121.34
801.254	211.45
801.434	266.75
801.614	176.64
801.794	164.35
801.974	619
802.154	178.69
802.334	225.79
802.514	131.58
802.693	127.49
802.873	135.68
803.053	197.12
803.233	201.21
803.413	135.68
803.592	223.74
803.772	203.26
803.952	197.12
804.131	223.74
804.311	139.77
804.491	137.73
804.67	219.64
804.85	223.74
805.03	170.49
805.209	201.21
805.389	195.07
805.568	133.63
805.748	107.01
805.928	182.78
806.107	154.11
806.287	188.93
806.466	164.35
806.646	188.93
806.825	223.74
807.004	213.5
807.184	203.26
807.363	133.63
807.543	195.07
807.722	119.29
807.901	117.25
808.081	88.57
808.26	141.82
808.439	156.16
808.619	102.91
808.798	180.73
808.977	176.64
809.156	178.69
809.336	186.88
809.515	223.74
809.694	139.77
809.873	107.01
810.052	180.73
810.231	141.82
810.411	104.96
810.59	182.78
810.769	104.96
810.948	168.45
811.127	147.97
811.306	176.64
811.485	74.24
811.664	164.35
811.843	125.44
812.022	123.39
812.201	154.11
812.38	166.4
812.559	80.38
812.737	104.96
812.916	107.01
813.095	127.49
813.274	184.83
813.453	168.45
813.632	170.49
813.811	154.11
813.989	162.3
814.168	135.68
814.347	84.48
814.526	172.54
814.704	143.87
814.883	197.12
815.062	133.63
815.24	145.92
815.419	35.33
815.598	160.25
815.776	217.6
815.955	137.73
816.133	104.96
816.312	104.96
816.49	96.77
816.669	117.25
816.847	266.75
817.026	168.45
817.204	64
817.383	68.09
817.561	74.24
817.74	141.82
817.918	152.06
818.097	98.81
818.275	107.01
818.453	229.88
818.632	90.62
818.81	182.78
818.988	86.53
819.167	129.53
819.345	47.62
819.523	135.68
819.701	188.93
819.879	115.2
820.058	117.25
820.236	158.21
820.414	139.77
820.592	94.72
820.77	78.33
820.948	37.38
821.127	109.05
821.305	104.96
821.483	86.53
821.661	143.87
821.839	125.44
822.017	82.43
822.195	166.4
822.373	143.87
822.551	84.48
822.729	223.74
822.907	104.96
823.085	111.1
823.262	82.43
823.44	86.53
823.618	135.68
823.796	76.29
823.974	133.63
824.152	160.25
824.329	121.34
824.507	139.77
824.685	61.95
824.863	59.9
825.04	166.4
825.218	100.86
825.396	98.81
825.574	113.15
825.751	121.34
825.929	127.49
826.107	39.42
826.284	107.01
826.462	94.72
826.639	166.4
826.817	35.33
826.994	119.29
827.172	102.91
827.349	45.57
827.527	47.62
827.704	143.87
827.882	74.24
828.059	59.9
828.237	100.86
828.414	104.96
828.591	74.24
828.769	104.96
828.946	64
829.124	109.05
829.301	92.67
829.478	78.33
829.655	164.35
829.833	152.06
830.01	51.71
830.187	61.95
830.364	8.7
830.542	76.29
830.719	104.96
830.896	84.48
831.073	57.86
831.25	127.49
831.427	72.19
831.604	2.56
831.782	94.72
831.959	121.34
832.136	74.24
832.313	84.48
832.49	18.94
832.667	37.38
832.844	0.51
833.021	115.2
833.198	168.45
833.374	27.14
833.551	31.23
833.728	70.14
833.905	76.29
834.082	68.09
834.259	92.67
834.436	104.96
834.612	-15.87
834.789	135.68
834.966	39.42
835.143	102.91
835.319	51.71
835.496	160.25
835.673	92.67
835.85	0.51
836.026	49.66
836.203	104.96
836.38	51.71
836.556	100.86
836.733	80.38
836.909	84.48
837.086	-26.11
837.262	39.42
837.439	80.38
837.616	92.67
837.792	51.71
837.968	90.62
838.145	18.94
838.321	51.71
838.498	53.76
838.674	119.29
838.851	33.28
839.027	61.95
839.203	133.63
839.38	51.71
839.556	-9.73
839.732	113.15
839.909	39.42
840.085	111.1
840.261	53.76
840.437	53.76
840.614	121.34
840.79	-26.11
840.966	64
841.142	6.66
841.318	68.09
841.494	115.2
841.671	41.47
841.847	143.87
842.023	47.62
842.199	102.91
842.375	45.57
842.551	45.57
842.727	18.94
842.903	33.28
843.079	70.14
843.255	70.14
843.431	31.23
843.607	74.24
843.783	35.33
843.959	111.1
844.134	53.76
844.31	86.53
844.486	86.53
844.662	109.05
844.838	61.95
845.013	100.86
845.189	94.72
845.365	109.05
845.541	57.86
845.716	98.81
845.892	-1.54
846.068	37.38
846.244	37.38
846.419	117.25
846.595	49.66
846.77	12.8
846.946	8.7
847.122	47.62
847.297	0.51
847.473	64
847.648	-5.63
847.824	88.57
847.999	31.23
848.175	-30.21
848.35	90.62
848.526	117.25
848.701	86.53
848.876	25.09
849.052	53.76
849.227	74.24
849.403	37.38
849.578	74.24
849.753	57.86
849.929	94.72
850.104	35.33
850.279	35.33
850.454	31.23
850.63	14.85
850.805	66.05
850.98	57.86
851.155	10.75
851.33	61.95
851.505	8.7
851.681	53.76
851.856	27.14
852.031	78.33
852.206	88.57
852.381	14.85
852.556	-30.21
852.731	57.86
852.906	29.18
853.081	76.29
853.256	2.56
853.431	45.57
853.606	-5.63
853.781	18.94
853.956	-42.5
854.131	119.29
854.305	-11.78
854.48	68.09
854.655	8.7
854.83	39.42
855.005	2.56
855.18	31.23
855.354	45.57
855.529	41.47
855.704	35.33
855.879	14.85
856.053	72.19
856.228	20.99
856.403	0.51
856.577	135.68
856.752	47.62
856.926	39.42
857.101	143.87
857.276	18.94
857.45	29.18
857.625	35.33
857.799	12.8
857.974	66.05
858.148	-5.63
858.323	39.42
858.497	43.52
858.672	41.47
858.846	23.04
859.02	35.33
859.195	31.23
859.369	-48.64
859.543	23.04
859.718	39.42
859.892	10.75
860.066	43.52
860.241	107.01
860.415	49.66
860.589	92.67
860.763	59.9
860.938	76.29
861.112	14.85
861.286	-42.5
861.46	123.39
861.634	4.61
861.808	-3.58
861.982	45.57
862.157	39.42
862.331	78.33
862.505	14.85
862.679	14.85
862.853	-9.73
863.027	51.71
863.201	51.71
863.375	121.34
863.549	86.53
863.722	12.8
863.896	53.76
864.07	66.05
864.244	14.85
864.418	104.96
864.592	6.66
864.766	70.14
864.939	-46.59
865.113	55.81
865.287	10.75
865.461	12.8
865.634	49.66
865.808	-1.54
865.982	27.14
866.156	16.9
866.329	41.47
866.503	-11.78
866.676	0.51
866.85	27.14
867.024	84.48
867.197	90.62
867.371	10.75
867.544	154.11
867.718	-7.68
867.891	-9.73
868.065	-15.87
868.238	14.85
868.412	25.09
868.585	-32.26
868.759	49.66
868.932	-56.83
869.105	-7.68
869.279	-5.63
869.452	18.94
869.625	55.81
869.799	53.76
869.972	-17.92
870.145	-56.83
870.319	72.19
870.492	78.33
870.665	-1.54
870.838	35.33
871.011	-15.87
871.185	98.81
871.358	4.61
871.531	98.81
871.704	-40.45
871.877	90.62
872.05	-120.32
872.223	0.51
872.396	27.14
872.569	64
872.742	-7.68
872.915	47.62
873.088	37.38
873.261	18.94
873.434	33.28
873.607	59.9
873.78	70.14
873.953	16.9
874.126	29.18
874.299	-13.82
874.471	-11.78
874.644	-7.68
874.817	74.24
874.99	16.9
875.163	57.86
875.335	10.75
875.508	10.75
875.681	16.9
875.853	-22.02
876.026	53.76
876.199	76.29
876.371	43.52
876.544	70.14
876.717	39.42
876.889	61.95
877.062	78.33
877.234	0.51
877.407	2.56
877.579	109.05
877.752	76.29
877.924	57.86
878.097	-1.54
878.269	31.23
878.442	57.86
878.614	61.95
878.786	18.94
878.959	45.57
879.131	23.04
879.303	57.86
879.476	94.72
879.648	57.86
879.82	2.56
879.993	20.99
880.165	68.09
880.337	-62.98
880.509	45.57
880.681	-38.4
880.854	66.05
881.026	68.09
881.198	61.95
881.37	6.66
881.542	27.14
881.714	16.9
881.886	14.85
882.058	-5.63
882.23	33.28
882.402	41.47
882.574	82.43
882.746	18.94
882.918	25.09
883.09	18.94
883.262	-7.68
883.434	29.18
883.606	-9.73
883.778	-28.16
883.95	84.48
884.122	31.23
884.293	84.48
884.465	39.42
884.637	70.14
884.809	78.33
884.98	29.18
885.152	-1.54
885.324	4.61
885.496	-50.69
885.667	-7.68
885.839	-34.3
886.011	133.63
886.182	-7.68
886.354	66.05
886.525	-50.69
886.697	-28.16
886.869	27.14
887.04	47.62
887.212	10.75
887.383	78.33
887.555	-19.97
887.726	121.34
887.897	-13.82
888.069	8.7
888.24	70.14
888.412	-7.68
888.583	61.95
888.754	119.29
888.926	4.61
889.097	41.47
889.268	2.56
889.44	66.05
889.611	8.7
889.782	14.85
889.953	-89.6
890.125	102.91
890.296	-19.97
890.467	37.38
890.638	-9.73
890.809	-7.68
890.98	25.09
891.151	-1.54
891.323	-46.59
891.494	61.95
891.665	10.75
891.836	-56.83
892.007	27.14
892.178	66.05
892.349	-36.35
892.52	-48.64
892.691	41.47
892.862	82.43
893.032	74.24
893.203	-38.4
893.374	4.61
893.545	37.38
893.716	27.14
893.887	18.94
894.057	47.62
894.228	-3.58
894.399	23.04
894.57	104.96
894.74	-17.92
894.911	-58.88
895.082	33.28
895.253	20.99
895.423	-28.16
895.594	51.71
895.764	-13.82
895.935	27.14
896.106	10.75
896.276	6.66
896.447	4.61
896.617	64
896.788	51.71
896.958	-40.45
897.129	31.23
897.299	25.09
897.47	31.23
897.64	55.81
897.81	-36.35
897.981	-9.73
898.151	70.14
898.322	55.81
898.492	33.28
898.662	-13.82
898.832	-40.45
899.003	35.33
899.173	76.29
899.343	-75.26
899.513	23.04
