Data from USB4F104151__15__12-35-19-243.txt Node

Date: Fri Mar 14 12:35:19 EDT 2025
User: louis
Spectrometer: USB4F10415
Trigger mode: 4
Integration Time (sec): 2.000000E-2
Scans to average: 1
Electric dark correction enabled: true
Nonlinearity correction enabled: false
Boxcar width: 0
XAxis mode: Wavelengths
Number of Pixels in Spectrum: 3648
>>>>>Begin Spectral Data<<<<<
178.204	-129.88
178.424	-129.88
178.644	-129.88
178.864	-138.07
179.084	-45.91
179.304	-52.05
179.524	36.01
179.744	-54.1
179.964	56.49
180.184	29.87
180.404	-45.91
180.624	9.39
180.844	46.25
181.064	-80.72
181.283	-0.85
181.503	19.63
181.723	36.01
181.943	29.87
182.163	33.96
182.383	-33.62
182.602	50.35
182.822	-39.76
183.042	-33.62
183.262	-29.52
183.482	-23.38
183.701	-50
183.921	-23.38
184.141	3.24
184.361	-13.14
184.58	-15.19
184.8	46.25
185.02	46.25
185.239	-13.14
185.459	50.35
185.679	42.15
185.898	-21.33
186.118	38.06
186.338	3.24
186.557	-31.57
186.777	-0.85
186.997	3.24
187.216	-23.38
187.436	44.2
187.655	46.25
187.875	119.98
188.095	54.44
188.314	-21.33
188.534	-4.95
188.753	5.29
188.973	42.15
189.192	15.53
189.412	19.63
189.631	46.25
189.851	25.77
190.07	46.25
190.29	15.53
190.509	40.11
190.729	46.25
190.948	50.35
191.168	115.88
191.387	25.77
191.607	-43.86
191.826	19.63
192.045	3.24
192.265	52.39
192.484	79.02
192.704	38.06
192.923	-15.19
193.142	93.35
193.362	-9.05
193.581	33.96
193.8	1.19
194.02	-2.9
194.239	19.63
194.458	54.44
194.678	66.73
194.897	21.67
195.116	19.63
195.335	79.02
195.555	23.72
195.774	42.15
195.993	3.24
196.212	-0.85
196.432	-35.67
196.651	31.91
196.87	-9.05
197.089	87.21
197.308	-19.29
197.528	76.97
197.747	-7
197.966	27.82
198.185	31.91
198.404	56.49
198.623	81.07
198.842	-17.24
199.062	74.92
199.281	64.68
199.5	-2.9
199.719	31.91
199.938	74.92
200.157	33.96
200.376	54.44
200.595	-29.52
200.814	76.97
201.033	9.39
201.252	117.93
201.471	-11.09
201.69	33.96
201.909	25.77
202.128	62.63
202.347	56.49
202.566	3.24
202.785	-11.09
203.004	60.59
203.223	95.4
203.442	17.58
203.661	-35.67
203.879	-23.38
204.098	91.31
204.317	-41.81
204.536	-4.95
204.755	89.26
204.974	70.83
205.193	-39.76
205.411	42.15
205.63	-7
205.849	-23.38
206.068	33.96
206.287	-9.05
206.505	-23.38
206.724	-33.62
206.943	66.73
207.162	42.15
207.381	5.29
207.599	54.44
207.818	-62.29
208.037	5.29
208.255	27.82
208.474	1.19
208.693	7.34
208.911	7.34
209.13	11.43
209.349	38.06
209.567	79.02
209.786	58.54
210.005	-4.95
210.223	-47.96
210.442	-33.62
210.661	19.63
210.879	62.63
211.098	1.19
211.316	21.67
211.535	42.15
211.753	81.07
211.972	36.01
212.191	-23.38
212.409	15.53
212.628	56.49
212.846	56.49
213.065	72.87
213.283	50.35
213.502	3.24
213.72	-7
213.938	19.63
214.157	-11.09
214.375	117.93
214.594	13.48
214.812	31.91
215.031	9.39
215.249	36.01
215.467	-9.05
215.686	-33.62
215.904	36.01
216.122	66.73
216.341	27.82
216.559	19.63
216.778	70.83
216.996	21.67
217.214	99.5
217.432	-60.24
217.651	-4.95
217.869	5.29
218.087	27.82
218.306	-37.72
218.524	11.43
218.742	5.29
218.96	93.35
219.179	-11.09
219.397	-27.48
219.615	-0.85
219.833	17.58
220.051	31.91
220.27	11.43
220.488	50.35
220.706	-25.43
220.924	-43.86
221.142	74.92
221.36	-15.19
221.578	83.11
221.796	9.39
222.015	58.54
222.233	85.16
222.451	44.2
222.669	25.77
222.887	33.96
223.105	-9.05
223.323	119.98
223.541	13.48
223.759	17.58
223.977	62.63
224.195	42.15
224.413	13.48
224.631	36.01
224.849	-11.09
225.067	64.68
225.285	1.19
225.503	-37.72
225.721	-64.34
225.939	17.58
226.157	25.77
226.375	83.11
226.592	-37.72
226.81	-33.62
227.028	130.22
227.246	83.11
227.464	-23.38
227.682	31.91
227.9	25.77
228.117	60.59
228.335	-47.96
228.553	70.83
228.771	1.19
228.989	68.78
229.206	-11.09
229.424	-7
229.642	38.06
229.86	-9.05
230.077	-9.05
230.295	17.58
230.513	52.39
230.731	31.91
230.948	27.82
231.166	136.36
231.384	-2.9
231.601	-17.24
231.819	83.11
232.037	15.53
232.254	19.63
232.472	54.44
232.689	81.07
232.907	-11.09
233.125	-62.29
233.342	11.43
233.56	42.15
233.777	44.2
233.995	-43.86
234.213	70.83
234.43	85.16
234.648	17.58
234.865	40.11
235.083	25.77
235.3	-11.09
235.518	-31.57
235.735	70.83
235.953	-13.14
236.17	-21.33
236.388	48.3
236.605	5.29
236.822	50.35
237.04	68.78
237.257	89.26
237.475	-64.34
237.692	44.2
237.909	17.58
238.127	91.31
238.344	64.68
238.562	97.45
238.779	13.48
238.996	-0.85
239.214	29.87
239.431	25.77
239.648	11.43
239.865	52.39
240.083	-56.15
240.3	81.07
240.517	33.96
240.735	-13.14
240.952	91.31
241.169	44.2
241.386	-25.43
241.603	-19.29
241.821	-4.95
242.038	70.83
242.255	29.87
242.472	33.96
242.689	23.72
242.907	72.87
243.124	5.29
243.341	58.54
243.558	-17.24
243.775	42.15
243.992	-62.29
244.209	107.69
244.426	87.21
244.643	56.49
244.86	56.49
245.078	52.39
245.295	-27.48
245.512	62.63
245.729	-62.29
245.946	52.39
246.163	46.25
246.38	9.39
246.597	97.45
246.814	40.11
247.031	19.63
247.248	42.15
247.464	23.72
247.681	52.39
247.898	89.26
248.115	56.49
248.332	5.29
248.549	58.54
248.766	79.02
248.983	54.44
249.2	56.49
249.417	60.59
249.633	27.82
249.85	-7
250.067	70.83
250.284	76.97
250.501	33.96
250.717	31.91
250.934	-31.57
251.151	111.78
251.368	87.21
251.585	1.19
251.801	-11.09
252.018	7.34
252.235	40.11
252.451	-45.91
252.668	21.67
252.885	38.06
253.102	13.48
253.318	52.39
253.535	-27.48
253.752	-9.05
253.968	17.58
254.185	29.87
254.401	42.15
254.618	56.49
254.835	64.68
255.051	150.7
255.268	44.2
255.484	36.01
255.701	11.43
255.917	40.11
256.134	-29.52
256.351	38.06
256.567	-23.38
256.784	119.98
257	-11.09
257.217	89.26
257.433	60.59
257.65	46.25
257.866	31.91
258.082	-37.72
258.299	36.01
258.515	40.11
258.732	-17.24
258.948	27.82
259.165	64.68
259.381	9.39
259.597	-15.19
259.814	27.82
260.03	11.43
260.246	99.5
260.463	91.31
260.679	42.15
260.895	38.06
261.112	115.88
261.328	9.39
261.544	165.03
261.761	1.19
261.977	-15.19
262.193	42.15
262.409	-62.29
262.626	72.87
262.842	122.02
263.058	-35.67
263.274	3.24
263.49	36.01
263.707	27.82
263.923	-2.9
264.139	3.24
264.355	3.24
264.571	-7
264.787	-11.09
265.004	-15.19
265.22	56.49
265.436	-43.86
265.652	29.87
265.868	21.67
266.084	15.53
266.3	-15.19
266.516	1.19
266.732	21.67
266.948	31.91
267.164	23.72
267.38	44.2
267.596	-23.38
267.812	119.98
268.028	62.63
268.244	29.87
268.46	3.24
268.676	25.77
268.892	74.92
269.108	99.5
269.324	3.24
269.54	31.91
269.756	74.92
269.972	-7
270.188	74.92
270.403	3.24
270.619	-15.19
270.835	21.67
271.051	48.3
271.267	-11.09
271.483	58.54
271.698	58.54
271.914	25.77
272.13	21.67
272.346	-43.86
272.562	-15.19
272.777	46.25
272.993	70.83
273.209	46.25
273.425	50.35
273.64	-17.24
273.856	91.31
274.072	29.87
274.287	-15.19
274.503	33.96
274.719	60.59
274.934	17.58
275.15	-19.29
275.366	3.24
275.581	25.77
275.797	105.64
276.012	9.39
276.228	128.17
276.444	-13.14
276.659	5.29
276.875	60.59
277.09	42.15
277.306	44.2
277.521	70.83
277.737	-41.81
277.952	36.01
278.168	-33.62
278.383	-60.24
278.599	19.63
278.814	107.69
279.03	107.69
279.245	50.35
279.461	72.87
279.676	27.82
279.892	13.48
280.107	27.82
280.322	56.49
280.538	64.68
280.753	9.39
280.969	58.54
281.184	3.24
281.399	7.34
281.615	-31.57
281.83	60.59
282.045	-13.14
282.26	64.68
282.476	-50
282.691	97.45
282.906	-25.43
283.122	-21.33
283.337	11.43
283.552	46.25
283.767	-2.9
283.983	54.44
284.198	-39.76
284.413	54.44
284.628	-43.86
284.843	58.54
285.058	19.63
285.274	7.34
285.489	56.49
285.704	85.16
285.919	38.06
286.134	3.24
286.349	97.45
286.564	15.53
286.779	99.5
286.995	91.31
287.21	52.39
287.425	40.11
287.64	7.34
287.855	66.73
288.07	33.96
288.285	122.02
288.5	-9.05
288.715	3.24
288.93	17.58
289.145	103.59
289.36	46.25
289.575	66.73
289.79	99.5
290.004	-33.62
290.219	64.68
290.434	-11.09
290.649	-41.81
290.864	56.49
291.079	-9.05
291.294	9.39
291.509	23.72
291.724	-19.29
291.938	66.73
292.153	-7
292.368	38.06
292.583	19.63
292.798	66.73
293.012	33.96
293.227	15.53
293.442	-4.95
293.657	87.21
293.871	68.78
294.086	101.55
294.301	58.54
294.516	-19.29
294.73	48.3
294.945	38.06
295.16	70.83
295.374	1.19
295.589	105.64
295.804	-17.24
296.018	11.43
296.233	23.72
296.447	44.2
296.662	27.82
296.877	23.72
297.091	33.96
297.306	31.91
297.52	74.92
297.735	23.72
297.949	91.31
298.164	13.48
298.378	-4.95
298.593	-13.14
298.807	5.29
299.022	107.69
299.236	29.87
299.451	-29.52
299.665	64.68
299.88	101.55
300.094	-0.85
300.309	85.16
300.523	58.54
300.737	66.73
300.952	38.06
301.166	46.25
301.381	9.39
301.595	136.36
301.809	66.73
302.024	29.87
302.238	19.63
302.452	60.59
302.667	54.44
302.881	44.2
303.095	19.63
303.309	-2.9
303.524	54.44
303.738	-68.44
303.952	-37.72
304.166	-4.95
304.381	46.25
304.595	76.97
304.809	60.59
305.023	13.48
305.237	-15.19
305.452	36.01
305.666	-25.43
305.88	140.46
306.094	62.63
306.308	17.58
306.522	31.91
306.736	-33.62
306.95	15.53
307.164	17.58
307.379	-2.9
307.593	113.83
307.807	-25.43
308.021	-9.05
308.235	52.39
308.449	29.87
308.663	27.82
308.877	36.01
309.091	15.53
309.305	56.49
309.519	25.77
309.733	58.54
309.947	31.91
310.161	68.78
310.374	87.21
310.588	99.5
310.802	-0.85
311.016	-0.85
311.23	21.67
311.444	17.58
311.658	9.39
311.872	101.55
312.085	76.97
312.299	44.2
312.513	25.77
312.727	99.5
312.941	-45.91
313.154	62.63
313.368	76.97
313.582	109.74
313.796	54.44
314.009	48.3
314.223	97.45
314.437	-11.09
314.651	56.49
314.864	42.15
315.078	81.07
315.292	83.11
315.505	46.25
315.719	-0.85
315.933	44.2
316.146	-21.33
316.36	54.44
316.573	103.59
316.787	40.11
317.001	25.77
317.214	40.11
317.428	60.59
317.641	128.17
317.855	58.54
318.068	101.55
318.282	31.91
318.495	93.35
318.709	103.59
318.922	42.15
319.136	136.36
319.349	64.68
319.563	93.35
319.776	52.39
319.99	5.29
320.203	46.25
320.417	33.96
320.63	-27.48
320.843	21.67
321.057	46.25
321.27	-43.86
321.483	52.39
321.697	93.35
321.91	33.96
322.124	15.53
322.337	83.11
322.55	-23.38
322.763	52.39
322.977	46.25
323.19	33.96
323.403	9.39
323.617	5.29
323.83	36.01
324.043	1.19
324.256	60.59
324.469	36.01
324.683	95.4
324.896	40.11
325.109	83.11
325.322	9.39
325.535	109.74
325.748	13.48
325.962	13.48
326.175	25.77
326.388	64.68
326.601	33.96
326.814	42.15
327.027	46.25
327.24	31.91
327.453	-0.85
327.666	46.25
327.879	56.49
328.092	83.11
328.305	15.53
328.518	48.3
328.731	44.2
328.944	42.15
329.157	42.15
329.37	9.39
329.583	138.41
329.796	193.7
330.009	91.31
330.222	-23.38
330.435	-11.09
330.648	7.34
330.861	-4.95
331.073	33.96
331.286	15.53
331.499	107.69
331.712	52.39
331.925	56.49
332.138	36.01
332.35	81.07
332.563	83.11
332.776	87.21
332.989	9.39
333.202	46.25
333.414	27.82
333.627	48.3
333.84	48.3
334.053	7.34
334.265	72.87
334.478	74.92
334.691	36.01
334.903	105.64
335.116	50.35
335.329	54.44
335.541	36.01
335.754	74.92
335.966	52.39
336.179	13.48
336.392	74.92
336.604	-17.24
336.817	62.63
337.029	64.68
337.242	52.39
337.454	56.49
337.667	66.73
337.88	101.55
338.092	99.5
338.305	11.43
338.517	70.83
338.729	23.72
338.942	42.15
339.154	3.24
339.367	36.01
339.579	9.39
339.792	-0.85
340.004	83.11
340.217	-7
340.429	52.39
340.641	5.29
340.854	83.11
341.066	38.06
341.278	21.67
341.491	11.43
341.703	-17.24
341.915	48.3
342.128	117.93
342.34	72.87
342.552	25.77
342.764	85.16
342.977	64.68
343.189	11.43
343.401	31.91
343.613	-4.95
343.826	91.31
344.038	33.96
344.25	13.48
344.462	-11.09
344.674	13.48
344.886	87.21
345.099	89.26
345.311	144.55
345.523	17.58
345.735	36.01
345.947	62.63
346.159	13.48
346.371	-13.14
346.583	79.02
346.795	119.98
347.007	124.07
347.219	132.26
347.431	109.74
347.643	76.97
347.855	9.39
348.067	85.16
348.279	5.29
348.491	46.25
348.703	58.54
348.915	27.82
349.127	9.39
349.339	-13.14
349.551	-15.19
349.763	87.21
349.975	50.35
350.187	64.68
350.399	21.67
350.61	81.07
350.822	-13.14
351.034	7.34
351.246	19.63
351.458	9.39
351.669	7.34
351.881	9.39
352.093	97.45
352.305	33.96
352.517	79.02
352.728	33.96
352.94	19.63
353.152	64.68
353.363	50.35
353.575	68.78
353.787	97.45
353.999	40.11
354.21	115.88
354.422	111.78
354.633	23.72
354.845	91.31
355.057	44.2
355.268	36.01
355.48	83.11
355.692	64.68
355.903	-31.57
356.115	15.53
356.326	25.77
356.538	95.4
356.749	3.24
356.961	83.11
357.172	107.69
357.384	15.53
357.595	62.63
357.807	83.11
358.018	25.77
358.23	48.3
358.441	72.87
358.653	70.83
358.864	128.17
359.075	74.92
359.287	56.49
359.498	68.78
359.709	19.63
359.921	31.91
360.132	44.2
360.344	40.11
360.555	36.01
360.766	44.2
360.977	54.44
361.189	122.02
361.4	11.43
361.611	70.83
361.823	132.26
362.034	97.45
362.245	72.87
362.456	46.25
362.667	119.98
362.879	91.31
363.09	-31.57
363.301	56.49
363.512	17.58
363.723	52.39
363.935	119.98
364.146	105.64
364.357	70.83
364.568	70.83
364.779	66.73
364.99	76.97
365.201	62.63
365.412	15.53
365.623	46.25
365.834	-2.9
366.045	105.64
366.256	3.24
366.467	29.87
366.678	54.44
366.889	64.68
367.1	79.02
367.311	70.83
367.522	70.83
367.733	83.11
367.944	107.69
368.155	56.49
368.366	128.17
368.577	64.68
368.788	81.07
368.999	23.72
369.209	111.78
369.42	117.93
369.631	99.5
369.842	38.06
370.053	115.88
370.264	62.63
370.474	58.54
370.685	48.3
370.896	33.96
371.107	134.31
371.317	64.68
371.528	33.96
371.739	29.87
371.95	81.07
372.16	87.21
372.371	27.82
372.582	44.2
372.792	89.26
373.003	119.98
373.214	21.67
373.424	105.64
373.635	31.91
373.846	21.67
374.056	38.06
374.267	66.73
374.477	23.72
374.688	117.93
374.898	21.67
375.109	124.07
375.319	107.69
375.53	48.3
375.74	85.16
375.951	79.02
376.161	11.43
376.372	134.31
376.582	72.87
376.793	7.34
377.003	9.39
377.214	68.78
377.424	70.83
377.635	83.11
377.845	50.35
378.055	87.21
378.266	60.59
378.476	83.11
378.686	105.64
378.897	-9.05
379.107	91.31
379.317	62.63
379.528	83.11
379.738	109.74
379.948	52.39
380.158	156.84
380.369	11.43
380.579	124.07
380.789	54.44
380.999	31.91
381.21	48.3
381.42	68.78
381.63	48.3
381.84	33.96
382.05	109.74
382.261	66.73
382.471	87.21
382.681	48.3
382.891	-9.05
383.101	38.06
383.311	7.34
383.521	25.77
383.731	91.31
383.941	56.49
384.151	50.35
384.361	138.41
384.571	48.3
384.781	167.08
384.991	148.65
385.201	171.18
385.411	11.43
385.621	79.02
385.831	136.36
386.041	105.64
386.251	54.44
386.461	68.78
386.671	179.37
386.881	83.11
387.091	115.88
387.301	167.08
387.511	83.11
387.72	25.77
387.93	156.84
388.14	17.58
388.35	107.69
388.56	167.08
388.769	83.11
388.979	134.31
389.189	134.31
389.399	11.43
389.609	105.64
389.818	87.21
390.028	97.45
390.238	42.15
390.447	122.02
390.657	70.83
390.867	83.11
391.076	83.11
391.286	95.4
391.496	50.35
391.705	13.48
391.915	165.03
392.125	23.72
392.334	115.88
392.544	81.07
392.753	62.63
392.963	158.89
393.172	42.15
393.382	126.12
393.591	99.5
393.801	58.54
394.01	142.5
394.22	66.73
394.429	56.49
394.639	95.4
394.848	111.78
395.058	66.73
395.267	105.64
395.477	113.83
395.686	44.2
395.895	136.36
396.105	195.75
396.314	136.36
396.524	29.87
396.733	109.74
396.942	162.98
397.152	189.61
397.361	195.75
397.57	85.16
397.78	111.78
397.989	79.02
398.198	162.98
398.407	169.13
398.617	113.83
398.826	132.26
399.035	148.65
399.244	109.74
399.453	199.85
399.663	66.73
399.872	191.66
400.081	113.83
400.29	167.08
400.499	226.47
400.708	138.41
400.917	146.6
401.127	72.87
401.336	162.98
401.545	160.94
401.754	205.99
401.963	181.42
402.172	158.89
402.381	142.5
402.59	232.62
402.799	224.42
403.008	126.12
403.217	205.99
403.426	203.94
403.635	140.46
403.844	203.94
404.053	187.56
404.262	134.31
404.471	230.57
404.68	126.12
404.888	224.42
405.097	226.47
405.306	181.42
405.515	224.42
405.724	185.51
405.933	222.38
406.142	238.76
406.35	222.38
406.559	267.43
406.768	320.68
406.977	261.29
407.185	335.01
407.394	332.97
407.603	238.76
407.812	326.82
408.02	349.35
408.229	318.63
408.438	349.35
408.646	236.71
408.855	292.01
409.064	373.92
409.272	330.92
409.481	341.16
409.69	335.01
409.898	414.88
410.107	412.84
410.315	408.74
410.524	416.93
410.733	496.8
410.941	513.19
411.15	529.57
411.358	490.66
411.567	556.19
411.775	609.44
411.984	550.05
412.192	691.36
412.401	574.63
412.609	666.78
412.818	670.88
413.026	724.13
413.234	687.26
413.443	806.05
413.651	791.71
413.86	740.51
414.068	765.09
414.276	832.67
414.485	842.91
414.693	916.64
414.901	1047.71
415.11	1160.34
415.318	1019.04
415.526	986.27
415.734	1084.57
415.943	1137.82
416.151	1131.67
416.359	1229.98
416.567	1227.93
416.776	1305.75
416.984	1369.24
417.192	1479.83
417.4	1361.05
417.608	1404.05
417.817	1541.27
418.025	1602.71
418.233	1608.85
418.441	1586.32
418.649	1688.72
418.857	1817.74
419.065	1815.69
419.273	1891.47
419.481	1852.56
419.689	1977.48
419.897	2210.95
420.105	2262.15
420.313	2221.19
420.521	2182.28
420.729	2219.14
420.937	2337.93
421.145	2509.96
421.353	2645.12
421.561	2729.09
421.769	2849.92
421.977	2921.6
422.185	2845.82
422.393	3169.4
422.601	3298.42
422.809	3386.49
423.017	3146.87
423.224	3478.65
423.432	3472.5
423.64	3581.04
423.848	3896.43
424.056	3837.04
424.263	4138.09
424.471	3955.82
424.679	4054.12
424.887	4414.57
425.094	4344.94
425.302	4645.99
425.51	4682.85
425.718	4914.27
425.925	4938.85
426.133	5059.68
426.341	5133.4
426.548	5653.59
426.756	5807.19
426.964	5596.25
427.171	6167.63
427.379	6124.62
427.586	6384.71
427.794	6239.31
428.001	6806.59
428.209	7001.15
428.417	6874.18
428.624	7398.46
428.832	7453.75
429.039	7398.46
429.247	7314.49
429.454	8057.9
429.662	8588.33
429.869	8164.4
430.076	8668.2
430.284	8283.18
430.491	8561.7
430.699	9376.8
430.906	9481.24
431.114	9573.4
431.321	9778.2
431.528	9974.8
431.736	10460.17
431.943	10992.64
432.15	10834.95
432.358	10714.12
432.565	11516.92
432.772	11328.51
432.979	11871.22
433.187	12213.23
433.394	12305.39
433.601	13132.77
433.808	13112.29
434.016	13126.63
434.223	13474.78
434.43	14543.82
434.637	14310.35
434.844	15080.39
435.052	15211.46
435.259	15309.76
435.466	15350.72
435.673	15248.32
435.88	16284.59
436.087	17316.77
436.294	17245.09
436.501	16384.94
436.708	16890.79
436.915	17611.68
437.122	18379.67
437.329	18234.26
437.537	18891.66
437.743	19293.06
437.95	18869.13
438.157	19786.62
438.364	20435.83
438.571	20609.9
438.778	20759.41
438.985	22838.09
439.192	21848.93
439.399	22317.91
439.606	21891.93
439.813	23327.56
440.02	24654.64
440.227	24122.17
440.433	23810.88
440.64	24898.35
440.847	25021.23
441.054	25221.93
441.261	26909.46
441.467	26745.62
441.674	27437.83
441.881	27775.75
442.088	27974.4
442.294	27775.75
442.501	28685.04
442.708	28914.42
442.914	29911.78
443.121	31365.84
443.328	30847.7
443.534	32578.23
443.741	32092.86
443.948	31439.56
444.154	33565.35
444.361	33346.22
444.568	33735.34
444.774	33796.77
444.981	34407.07
445.187	35230.35
445.394	36467.33
445.6	35811.98
445.807	39297.62
446.013	37743.21
446.22	38638.17
446.426	40110.66
446.633	40174.15
446.839	41962.03
447.046	39909.96
447.252	42199.59
447.459	42224.17
447.665	42232.36
447.871	43717.14
448.078	46045.68
448.284	43422.23
448.491	44681.73
448.697	46264.81
448.903	47176.15
449.11	47456.73
449.316	46696.93
449.522	47761.87
449.728	48368.07
449.935	49136.06
450.141	48970.18
450.347	50012.59
450.553	48458.18
450.76	49158.59
450.966	50968.99
451.172	49899.95
451.378	51595.67
451.584	50657.7
451.791	51685.78
451.997	51548.57
452.203	51898.77
452.409	52625.8
452.615	52447.63
452.821	50059.69
453.027	49668.53
453.233	52275.6
453.44	50166.19
453.646	50895.27
453.852	51235.23
454.058	51712.41
454.264	50162.09
454.47	51231.13
454.676	50026.93
454.882	51632.53
455.088	47309.27
455.294	47966.67
455.5	48587.21
455.705	49068.48
455.911	47403.48
456.117	46389.73
456.323	45828.59
456.529	43639.31
456.735	45363.7
456.941	44139.02
457.147	43278.87
457.352	41730.61
457.558	41222.71
457.764	41859.63
457.97	40753.72
458.176	40086.09
458.381	39965.26
458.587	38214.24
458.793	37978.73
458.999	36244.1
459.204	38857.31
459.41	37718.64
459.616	35656.33
459.821	35164.82
460.027	34724.5
460.233	34200.22
460.438	32690.87
460.644	33325.74
460.85	31668.94
461.055	31204.05
461.261	31290.06
461.466	28838.64
461.672	27616.01
461.878	29766.37
462.083	27994.88
462.289	27175.69
462.494	26960.66
462.7	25701.15
462.905	24900.4
463.111	26137.37
463.316	26028.83
463.522	25539.36
463.727	25441.06
463.932	25434.92
464.138	25373.48
464.343	25312.04
464.549	24572.72
464.754	25467.69
464.959	25203.5
465.165	25031.47
465.37	23966.52
465.575	23493.44
465.781	24189.75
465.986	24136.51
466.191	23522.12
466.397	23100.23
466.602	21859.17
466.807	22504.28
467.012	22559.57
467.218	22770.51
467.423	22463.32
467.628	22530.9
467.833	23397.19
468.038	22342.49
468.244	21912.41
468.449	22723.41
468.654	22049.63
468.859	21777.25
469.064	21635.94
469.269	20908.91
469.474	21275.49
469.679	21314.41
469.885	20540.27
470.09	21506.91
470.295	21228.39
470.5	20441.97
470.705	20773.74
470.91	20142.97
471.115	19979.13
471.32	20331.38
471.525	20231.03
471.73	19794.81
471.935	19544.96
472.139	18688.91
472.344	19303.3
472.549	18682.77
472.754	18701.2
472.959	18455.44
473.164	17935.26
473.369	17613.73
473.574	18334.61
473.778	18269.08
473.983	18023.32
474.188	18248.6
474.393	17093.54
474.598	17386.4
474.802	17097.64
475.007	17126.31
475.212	17066.92
475.417	16151.48
475.621	16276.4
475.826	16470.96
476.031	16315.31
476.235	15897.53
476.44	15965.11
476.645	15619
476.849	15567.81
477.054	15440.83
477.259	15248.32
477.463	15293.38
477.668	14963.65
477.872	15137.73
478.077	14896.07
478.282	14554.06
478.486	14257.11
478.691	14197.71
478.895	14101.46
479.1	14126.04
479.304	14119.89
479.509	13657.05
479.713	14046.16
479.918	13771.74
480.122	13548.51
480.326	13718.49
480.531	13497.31
480.735	13478.88
480.94	13655
481.144	13781.98
481.348	13138.91
481.553	13360.09
481.757	13126.63
481.961	13384.67
482.166	13255.65
482.37	13296.61
482.574	13132.77
482.778	13032.42
482.983	13220.83
483.187	13315.04
483.391	13290.46
483.595	13265.89
483.8	12936.17
484.004	13036.52
484.208	13288.42
484.412	13196.26
484.616	13204.45
484.821	13294.56
485.025	12600.3
485.229	13294.56
485.433	13196.26
485.637	12954.6
485.841	12960.74
486.045	12989.41
486.249	13114.34
486.453	12704.74
486.657	13206.5
486.861	13120.48
487.065	13052.9
487.269	12907.49
487.473	12790.76
487.677	13087.71
487.881	13288.42
488.085	13112.29
488.289	13226.98
488.493	13100
488.697	13247.46
488.901	13198.31
489.105	13290.46
489.309	13317.09
489.512	13239.26
489.716	13095.91
489.92	13022.18
490.124	13202.4
490.328	13429.73
490.531	13394.91
490.735	13296.61
490.939	13491.16
491.143	13353.95
491.346	13329.38
491.55	13620.19
491.754	13630.43
491.958	13851.61
492.161	13726.68
492.365	13814.74
492.569	13757.4
492.772	13734.87
492.976	13835.22
493.18	13911
493.383	13962.2
493.587	14193.62
493.79	14439.37
493.994	14312.4
494.197	14109.65
494.401	14453.71
494.605	14539.72
494.808	14742.47
495.012	14765
495.215	14660.55
495.419	15023.05
495.622	14738.38
495.825	15178.69
496.029	15104.96
496.232	15520.7
496.436	15260.61
496.639	15784.89
496.843	15600.57
497.046	16124.85
497.249	16190.39
497.453	16364.46
497.656	16554.93
497.859	16614.32
498.063	16706.48
498.266	16982.95
498.469	16896.94
498.673	17116.07
498.876	17505.18
499.079	17552.29
499.282	17574.81
499.485	17857.43
499.689	17906.59
499.892	18023.32
500.095	18582.42
500.298	18549.65
500.501	18398.1
500.705	18979.72
500.908	19174.28
501.111	19628.93
501.314	19688.32
501.517	19755.9
501.72	20364.15
501.923	19997.56
502.126	20560.75
502.329	21015.4
502.532	20712.3
502.735	20826.99
502.938	21459.81
503.141	21832.54
503.344	21990.24
503.547	21875.55
503.75	22479.7
503.953	22543.19
504.156	22739.79
504.359	23024.46
504.562	23231.3
504.765	23493.44
504.968	23595.84
505.17	24077.12
505.373	23987
505.576	24658.74
505.779	24748.85
505.982	24666.93
506.185	25279.27
506.387	25654.05
506.59	26106.65
506.793	26370.84
506.996	26166.04
507.198	27159.31
507.401	26454.81
507.604	27030.29
507.807	27765.51
508.009	27605.77
508.212	27777.79
508.415	28427
508.617	28596.98
508.82	28574.45
509.022	28891.89
509.225	29496.04
509.428	29655.78
509.63	29655.78
509.833	29727.46
510.035	30495.45
510.238	30810.84
510.44	30759.64
510.643	31748.81
510.845	31800.01
511.048	31490.76
511.25	32178.88
511.453	32041.67
511.655	33766.06
511.858	33385.13
512.06	33028.79
512.262	33690.28
512.465	33647.27
512.667	34661.02
512.87	34931.35
513.072	35054.23
513.274	35347.09
513.477	36012.68
513.679	36356.74
513.881	36508.29
514.084	36575.87
514.286	36733.56
514.488	37200.5
514.69	37886.57
514.893	38218.34
515.095	38611.55
515.297	38828.63
515.499	38578.78
515.701	39801.42
515.904	39959.11
516.106	40135.24
516.308	40198.73
516.51	40751.68
516.712	40864.32
516.914	41132.6
517.116	41511.47
517.318	42480.16
517.52	42222.12
517.722	42213.93
517.925	42926.62
518.127	43442.71
518.329	43846.16
518.531	43848.21
518.733	44608
518.935	44997.12
519.136	44739.07
519.338	45699.57
519.54	45754.86
519.742	46004.72
519.944	46131.69
520.146	47116.76
520.348	47321.56
520.55	47274.46
520.752	47763.92
520.954	48671.17
521.155	48024.01
521.357	49275.32
521.559	49099.2
521.761	49793.46
521.963	49881.52
522.164	49965.49
522.366	50082.22
522.568	50678.18
522.77	50342.31
522.971	51497.37
523.173	51161.5
523.375	51743.13
523.576	51667.35
523.778	51886.48
523.98	52576.65
524.181	52537.74
524.383	52732.29
524.584	53631.35
524.786	53492.09
524.988	53414.27
525.189	53664.12
525.391	54352.24
525.592	54569.32
525.794	54546.79
525.995	55097.7
526.197	54917.48
526.398	55017.83
526.6	55691.61
526.801	55206.24
527.003	55748.95
527.204	55789.91
527.406	55779.67
527.607	56179.03
527.808	56541.52
528.01	55751
528.211	56238.42
528.412	57428.29
528.614	56834.38
528.815	56783.18
529.016	57719.1
529.218	56936.77
529.419	57508.16
529.62	57547.07
529.822	56871.24
530.023	57344.32
530.224	57737.53
530.425	57530.68
530.626	57268.54
530.828	57346.37
531.029	58218.8
531.23	57422.14
531.431	57936.18
531.632	57915.7
531.833	58235.19
532.035	57821.5
532.236	58489.13
532.437	58200.37
532.638	57989.43
532.839	58401.07
533.04	58331.44
533.241	57882.94
533.442	58888.49
533.643	58562.86
533.844	58087.73
534.045	58603.82
534.246	57815.35
534.447	58499.37
534.648	58341.68
534.849	58480.94
535.05	58106.16
535.251	58167.6
535.451	58327.34
535.652	58945.83
535.853	58439.98
536.054	58642.73
536.255	58597.68
536.456	57809.21
536.657	59248.93
536.857	58212.66
537.058	57966.9
537.259	58859.82
537.46	58624.3
537.66	57841.98
537.861	58405.17
538.062	58069.3
538.263	58503.47
538.463	58038.58
538.664	57944.37
538.865	58071.35
539.065	58501.42
539.266	57612.6
539.466	58411.31
539.667	57372.99
539.868	58779.95
540.068	57731.39
540.269	57815.35
540.469	58059.06
540.67	57835.83
540.87	58007.86
541.071	57549.12
541.271	58052.92
541.472	57983.29
541.672	57831.74
541.873	57581.88
542.073	57141.57
542.274	57772.35
542.474	57669.95
542.675	57268.54
542.875	58114.36
543.075	57536.83
543.276	57172.29
543.476	58118.45
543.676	56944.97
543.877	57186.63
544.077	57669.95
544.277	57768.25
544.478	57233.73
544.678	57583.93
544.878	57631.04
545.078	57342.27
545.279	57061.7
545.479	57250.11
545.679	57559.36
545.879	57383.23
546.079	57293.12
546.28	57112.9
546.48	57186.63
546.68	57432.38
546.88	57006.4
547.08	57452.86
547.28	57160
547.48	56473.93
547.68	57465.15
547.88	56287.57
548.081	57104.71
548.281	57016.64
548.481	56813.9
548.681	57258.3
548.881	57364.8
549.081	56990.02
549.28	56740.17
549.48	57477.44
549.68	56711.5
549.88	57020.74
550.08	56539.47
550.28	56738.12
550.48	56676.68
550.68	56918.34
550.88	56672.59
551.08	56830.28
551.279	56758.6
551.479	56473.93
551.679	56727.88
551.879	56744.26
552.079	56621.39
552.278	56435.02
552.478	56924.49
552.678	56719.69
552.878	56865.09
553.077	56934.73
553.277	56297.81
553.477	57039.17
553.676	56398.16
553.876	56648.01
554.076	56215.89
554.275	56617.29
554.475	55853.4
554.674	56312.14
554.874	56400.21
555.074	56002.9
555.273	56318.29
555.473	56521.04
555.672	56136.02
555.872	56330.58
556.071	55785.82
556.271	56269.14
556.47	55802.2
556.67	55140.71
556.869	55298.4
557.068	56240.46
557.268	55118.18
557.467	55875.93
557.667	55697.75
557.866	55449.95
558.065	55445.85
558.265	54907.24
558.464	55155.04
558.663	55730.52
558.863	55208.29
559.062	55826.77
559.261	55056.74
559.461	55581.02
559.66	54604.14
559.859	55044.45
560.058	54600.04
560.258	55284.06
560.457	54276.46
560.656	54784.36
560.855	54352.24
561.054	55148.9
561.253	54049.14
561.453	54561.13
561.652	54774.12
561.851	54700.39
562.05	54253.93
562.249	53983.6
562.448	54071.67
562.647	54212.98
562.846	54118.77
563.045	53868.92
563.244	52990.34
563.443	54129.01
563.642	53039.49
563.841	53645.69
564.04	53250.43
564.239	54018.42
564.438	53385.6
564.637	53369.21
564.836	53528.95
565.035	52296.08
565.234	52937.09
565.432	52828.55
565.631	52959.62
565.83	52750.73
566.029	52586.89
566.228	52816.26
566.427	52353.42
566.625	52167.05
566.824	51884.43
567.023	52371.85
567.222	51311
567.42	52513.16
567.619	52029.84
567.818	51614.1
568.016	51530.14
568.215	52040.08
568.414	51104.16
568.612	52009.36
568.811	51315.1
569.01	51523.99
569.208	50637.22
569.407	50762.15
569.605	50567.59
569.804	51024.29
570.002	50248.11
570.201	50561.45
570.4	50583.97
570.598	49920.43
570.797	50215.34
570.995	50420.14
571.193	49338.81
571.392	50133.42
571.59	49568.18
571.789	49625.53
571.987	49568.18
572.186	49121.73
572.384	49451.45
572.582	49340.86
572.781	49252.8
572.979	48992.7
573.177	48822.72
573.376	49060.29
573.574	48398.79
573.772	48828.87
573.971	48228.81
574.169	48304.59
574.367	48015.82
574.565	48325.07
574.763	48167.37
574.962	47454.68
575.16	47272.41
575.358	47770.07
575.556	46807.52
575.754	47825.36
575.952	46975.45
576.151	47526.36
576.349	46731.75
576.547	46811.62
576.745	46971.36
576.943	46651.87
577.141	46684.64
577.339	46283.24
577.537	46256.62
577.735	46100.97
577.933	46275.05
578.131	46168.55
578.329	45914.61
578.527	45443.57
578.725	45509.11
578.923	46184.94
579.121	45611.51
579.319	45281.78
579.516	45652.47
579.714	44984.83
579.912	45009.4
580.11	45097.47
580.308	44997.12
580.506	44794.37
580.704	44329.48
580.901	44857.85
581.099	44622.34
581.297	44337.67
581.495	44116.49
581.692	44075.53
581.89	43559.44
582.088	44005.9
582.285	43387.41
582.483	43696.66
582.681	43354.65
582.878	43399.7
583.076	43110.94
583.274	43403.8
583.471	42476.07
583.669	42936.86
583.866	42889.76
584.064	43127.32
584.262	42140.2
584.459	42660.38
584.657	42555.94
584.854	42691.1
585.052	42000.94
585.249	42099.24
585.447	42031.66
585.644	42015.27
585.841	41679.41
586.039	42033.71
586.236	41179.7
586.434	41083.45
586.631	40817.21
586.828	41673.26
587.026	41103.93
587.223	41251.38
587.42	40782.4
587.618	40966.71
587.815	40251.97
588.012	40505.92
588.21	40659.52
588.407	40579.65
588.604	40411.71
588.801	40245.83
588.999	40088.13
589.196	39500.37
589.393	39510.61
589.59	39766.6
589.787	39594.57
589.984	39359.06
590.182	39307.86
590.379	39187.03
590.576	39098.97
590.773	39078.49
590.97	38781.53
591.167	38845.02
591.364	38562.4
591.561	38787.67
591.758	38212.2
591.955	38122.08
592.152	38498.91
592.349	38296.16
592.546	38337.12
592.743	38140.52
592.94	37143.16
593.137	38081.13
593.334	37718.64
593.531	37169.78
593.727	37915.24
593.924	37716.59
594.121	36852.34
594.318	37470.83
594.515	36541.05
594.712	37147.25
594.908	36303.49
595.105	37235.31
595.302	36602.49
595.499	36231.81
595.696	36215.43
595.892	36149.89
596.089	36219.52
596.286	36412.03
596.482	36264.58
596.679	36024.96
596.876	35828.36
597.072	35549.84
597.269	35381.9
597.466	35304.08
597.662	35431.05
597.859	35228.31
598.055	35494.54
598.252	35259.02
598.448	35058.32
598.645	34716.31
598.841	34753.18
599.038	34851.48
599.234	34781.85
599.431	34255.52
599.627	34161.31
599.824	34409.12
600.02	34118.31
600.217	34312.86
600.413	34054.82
600.609	34187.94
600.806	33610.41
601.002	33968.8
601.198	33329.84
601.395	33227.44
601.591	33485.48
601.787	33596.07
601.984	33049.27
602.18	33295.02
602.376	32703.16
602.572	33055.41
602.769	32815.8
602.965	32713.4
603.161	32787.13
603.357	32508.6
603.553	32611
603.75	32256.7
603.946	32256.7
604.142	32090.82
604.338	31728.33
604.534	31820.49
604.73	31808.2
604.926	31664.84
605.122	31546.06
605.318	31578.82
605.514	31523.53
605.71	31603.4
605.906	31269.58
606.102	31447.75
606.298	31451.85
606.494	31122.13
606.69	31040.21
606.886	31142.61
607.082	30845.65
607.278	30948.05
607.474	30530.26
607.67	30673.62
607.866	30239.45
608.062	30546.65
608.257	30270.17
608.453	30837.46
608.649	30356.19
608.845	29924.07
609.041	30345.95
609.236	30153.44
609.432	30026.46
609.628	30016.22
609.824	29768.42
610.019	29653.73
610.215	29721.32
610.411	29713.13
610.606	29272.81
610.802	29520.62
610.998	29573.86
611.193	29481.7
611.389	29184.75
611.584	29555.43
611.78	29059.82
611.976	29184.75
612.171	29057.78
612.367	29264.62
612.562	28908.27
612.758	28689.14
612.953	28654.33
613.149	28973.81
613.344	28326.65
613.539	28799.73
613.735	28672.76
613.93	28541.69
614.126	28410.62
614.321	28396.28
614.517	28265.21
614.712	28148.48
614.907	28185.34
615.103	28082.94
615.298	28156.67
615.493	28474.1
615.688	27982.59
615.884	28314.36
616.079	27654.92
616.274	27966.21
616.47	27884.29
616.665	28125.95
616.86	27583.24
617.055	27519.75
617.25	27353.87
617.445	27630.34
617.641	27063.05
617.836	27341.58
618.031	27032.33
618.226	27564.81
618.421	26956.56
618.616	27216.65
618.811	26985.23
619.006	27271.95
619.201	26295.07
619.396	26669.84
619.591	26221.34
619.786	26544.92
619.981	25668.39
620.176	26366.74
620.371	25793.31
620.566	26012.45
620.761	25688.87
620.956	25824.03
621.151	25516.84
621.346	25420.58
621.541	25254.7
621.735	24908.59
621.93	24955.69
622.125	25209.64
622.32	24621.87
622.515	24845.1
622.709	24591.16
622.904	24623.92
623.099	24630.07
623.294	24607.54
623.488	23944
623.683	24083.26
623.878	23669.57
624.072	23884.61
624.267	23569.22
624.462	23360.33
624.656	23257.93
624.851	23128.91
625.046	23139.15
625.24	22858.57
625.435	22868.81
625.629	22836.05
625.824	22319.96
626.018	22377.3
626.213	21945.18
626.407	22287.19
626.602	21842.78
626.796	21922.65
626.991	22035.29
627.185	21619.55
627.38	21744.48
627.574	21631.84
627.768	21685.09
627.963	21427.04
628.157	20779.89
628.352	21054.31
628.546	20456.31
628.74	20743.02
628.935	20710.25
629.129	20898.67
629.323	20460.4
629.517	20284.28
629.712	20190.07
629.906	20106.1
630.1	19938.17
630.294	20157.3
630.489	19639.17
630.683	19889.02
630.877	19213.19
631.071	19620.74
631.265	19444.61
631.459	19301.25
631.653	19053.45
631.848	19172.23
632.042	18908.04
632.236	19088.26
632.43	18967.43
632.624	18860.94
632.818	18695.05
633.012	18342.8
633.206	18412.43
633.4	18686.86
633.594	18027.42
633.788	18365.33
633.982	18051.99
634.176	17920.92
634.369	17879.96
634.563	17832.86
634.757	17550.24
634.951	17726.36
635.145	17619.87
635.339	17531.81
635.533	17202.08
635.726	17367.97
635.92	16896.94
636.114	17150.88
636.308	16923.56
636.501	16794.54
636.695	16595.89
636.889	16800.68
637.083	16356.27
637.276	16380.85
637.47	16479.15
637.664	16044.98
637.857	16473.01
638.051	16061.37
638.244	15907.77
638.438	15860.66
638.632	15954.87
638.825	15752.12
639.019	15524.8
639.212	15449.02
639.406	15414.21
639.599	15444.93
639.793	15340.48
639.986	15012.81
640.18	15164.36
640.373	15104.96
640.567	14885.83
640.76	15047.62
640.954	14619.6
641.147	14644.17
641.34	14648.27
641.534	14664.65
641.727	14334.93
641.92	14384.08
642.114	14308.3
642.307	14443.47
642.5	14240.72
642.694	13929.43
642.887	13822.94
643.08	13865.94
643.273	13911
643.467	13896.66
643.66	13585.37
643.853	13437.92
644.046	13108.19
644.239	13390.81
644.432	13190.11
644.626	13069.28
644.819	12913.64
645.012	13163.49
645.205	13089.76
645.398	13005.8
645.591	12899.3
645.784	12725.22
645.977	12669.93
646.17	12522.48
646.363	12377.07
646.556	12184.56
646.749	12399.6
646.942	12487.66
647.135	12389.36
647.328	12256.24
647.521	12250.1
647.714	12190.7
647.907	12098.55
648.099	12010.48
648.292	11987.96
648.485	11887.61
648.678	11772.92
648.871	11633.66
649.064	11635.71
649.256	11717.62
649.449	11510.78
649.642	11330.56
649.835	11269.12
650.027	11320.32
650.22	11181.06
650.413	11078.66
650.605	11072.51
650.798	10961.92
650.991	10961.92
651.183	11140.1
651.376	11115.52
651.568	10822.66
651.761	10732.55
651.954	10859.52
652.146	10873.86
652.339	10454.03
652.531	10599.43
652.724	10320.91
652.916	10607.62
653.109	10525.71
653.301	10505.23
653.494	10425.36
653.686	10056.72
653.879	10173.46
654.071	10044.43
654.263	10054.67
654.456	9958.42
654.648	9974.8
654.84	9706.52
655.033	9616.41
655.225	9806.87
655.417	9602.07
655.61	9497.63
655.802	9694.23
655.994	9509.91
656.186	9382.94
656.379	9493.53
656.571	9495.58
656.763	9407.52
656.955	9292.83
657.148	9206.81
657.34	9190.43
657.532	8971.3
657.724	9073.7
657.916	9184.29
658.108	9008.16
658.3	8979.49
658.492	8922.15
658.684	8846.37
658.876	8786.98
659.068	8858.66
659.26	8668.2
659.452	8617
659.644	8612.9
659.836	8469.55
660.028	8672.29
660.22	8381.48
660.412	8563.75
660.604	8272.94
660.796	8281.13
660.988	8158.25
661.18	8404.01
661.372	8225.84
661.563	8217.65
661.755	8016.94
661.947	8035.38
662.139	7990.32
662.331	8117.29
662.522	7814.2
662.714	7810.1
662.906	7787.57
663.097	7879.73
663.289	7752.76
663.481	7689.27
663.673	7791.67
663.864	7584.82
664.056	7672.89
664.247	7562.3
664.439	7390.27
664.631	7445.56
664.822	7474.23
665.014	7480.38
665.205	7529.53
665.397	7242.81
665.588	7273.53
665.78	7328.83
665.971	7199.8
666.163	7263.29
666.354	7040.06
666.546	7230.52
666.737	6978.62
666.929	7068.73
667.12	6925.38
667.311	6945.86
667.503	7105.6
667.694	6925.38
667.885	6972.48
668.077	6786.12
668.268	6886.47
668.459	6689.86
668.651	6618.18
668.842	6726.72
669.033	6548.55
669.224	6632.52
669.416	6585.41
669.607	6577.22
669.798	6491.21
669.989	6616.13
670.18	6562.89
670.371	6399.05
670.563	6495.3
670.754	6605.89
670.945	6310.99
671.136	6462.54
671.327	6300.75
671.518	6231.12
671.709	6196.3
671.9	6523.98
672.091	6327.37
672.282	6243.4
672.473	6052.94
672.664	6208.59
672.855	6114.38
673.046	6069.33
673.237	6167.63
673.428	6057.04
673.619	6134.86
673.809	6071.37
674	5948.5
674.191	5960.78
674.382	5895.25
674.573	5983.31
674.764	5987.41
674.954	5915.73
675.145	5581.91
675.336	5782.61
675.527	5901.39
675.717	5856.34
675.908	5723.22
676.099	5925.97
676.289	5692.5
676.48	5751.89
676.671	5688.4
676.861	5792.85
677.052	5815.38
677.243	5583.96
677.433	5622.87
677.624	5710.93
677.814	5428.31
678.005	5682.26
678.195	5616.72
678.386	5661.78
678.576	5614.68
678.767	5434.46
678.957	5682.26
679.148	5487.7
679.338	5391.45
679.529	5526.61
679.719	5495.89
679.909	5579.86
680.1	5547.09
680.29	5411.93
680.481	5581.91
680.671	5448.79
680.861	5383.26
681.052	5590.1
681.242	5358.68
681.432	5340.25
681.622	5246.04
681.813	5418.07
682.003	5305.43
682.193	5334.11
682.383	5332.06
682.573	5268.57
682.764	5227.61
682.954	5438.55
683.144	5334.11
683.334	5225.56
683.524	5184.6
683.714	5106.78
683.904	5121.12
684.094	5321.82
684.284	5047.39
684.474	5252.19
684.664	5092.44
684.854	5276.76
685.044	5053.53
685.234	5194.84
685.424	5133.4
685.614	5145.69
685.804	5190.75
685.994	5051.49
686.184	4985.95
686.374	5088.35
686.564	5006.43
686.753	5053.53
686.943	5139.55
687.133	5078.11
687.323	4971.61
687.513	4904.03
687.702	4932.7
687.892	4838.5
688.082	4924.51
688.272	4832.35
688.461	4850.78
688.651	4803.68
688.841	4865.12
689.03	4885.6
689.22	4727.91
689.41	4699.23
689.599	4789.35
689.789	4693.09
689.979	4615.27
690.168	4779.11
690.358	4619.36
690.547	4666.47
690.737	4654.18
690.926	4736.1
691.116	4453.48
691.305	4623.46
691.495	4627.56
691.684	4512.87
691.874	4392.04
692.063	4361.32
692.252	4381.8
692.442	4344.94
692.631	4398.18
692.82	4365.42
693.01	4404.33
693.199	4574.31
693.388	4334.7
693.578	4510.82
693.767	4389.99
693.956	4293.74
694.146	4263.02
694.335	4254.83
694.524	4275.31
694.713	4392.04
694.902	4287.59
695.092	4365.42
695.281	4287.59
695.47	4371.56
695.659	4314.22
695.848	4191.34
696.037	4263.02
696.226	4254.83
696.415	4101.23
696.604	4150.38
696.793	4095.08
696.982	4215.91
697.171	4230.25
697.36	4158.57
697.549	4127.85
697.738	4127.85
697.927	4086.89
698.116	4146.28
698.305	4107.37
698.494	4076.65
698.683	4117.61
698.872	3970.16
699.061	4080.75
699.25	4138.09
699.438	3972.21
699.627	4099.18
699.816	4047.98
700.005	4111.47
700.193	4068.46
700.382	4134
700.571	3961.97
700.76	3961.97
700.948	3894.38
701.137	3996.78
701.326	3953.77
701.514	4052.08
701.703	3810.42
701.892	4007.02
702.08	4015.21
702.269	4023.41
702.457	3978.35
702.646	3978.35
702.834	3824.75
703.023	3943.53
703.212	3943.53
703.4	3880.05
703.589	3878
703.777	3832.94
703.965	3839.09
704.154	3851.38
704.342	3781.74
704.531	3710.07
704.719	3849.33
704.907	3808.37
705.096	3658.87
705.284	3873.9
705.472	3740.79
705.661	3851.38
705.849	3800.18
706.037	3738.74
706.226	3640.44
706.414	3730.55
706.602	3726.45
706.79	3740.79
706.979	3742.83
707.167	3722.35
707.355	3753.07
707.543	3703.92
707.731	3773.55
707.919	3720.31
708.107	3769.46
708.296	3646.58
708.484	3470.45
708.672	3550.32
708.86	3652.72
709.048	3519.6
709.236	3583.09
709.424	3693.68
709.612	3462.26
709.8	3660.91
709.988	3640.44
710.176	3466.36
710.364	3628.15
710.551	3527.8
710.739	3570.8
710.927	3427.45
711.115	3374.2
711.303	3390.58
711.491	3433.59
711.679	3503.22
711.866	3392.63
712.054	3323
712.242	3505.27
712.43	3335.29
712.617	3447.93
712.805	3380.34
712.993	3392.63
713.181	3380.34
713.368	3382.39
713.556	3372.15
713.744	3259.51
713.931	3415.16
714.119	3378.3
714.306	3374.2
714.494	3265.66
714.682	3284.09
714.869	3331.19
715.057	3269.75
715.244	3236.99
715.432	3236.99
715.619	3224.7
715.807	3202.17
715.994	3400.82
716.182	3247.23
716.369	3177.59
716.556	3304.57
716.744	3232.89
716.931	3124.35
717.119	3202.17
717.306	3112.06
717.493	3245.18
717.681	3091.58
717.868	3202.17
718.055	3163.26
718.242	3159.16
718.43	3159.16
718.617	3083.39
718.804	3097.72
718.991	3062.91
719.179	3132.54
719.366	3040.38
719.553	3134.59
719.74	3175.55
719.927	3056.76
720.114	3067
720.301	2980.99
720.488	2983.04
720.676	3032.19
720.863	2892.93
721.05	3073.15
721.237	3040.38
721.424	3005.56
721.611	3077.24
721.798	2837.63
721.985	2933.89
722.172	2872.45
722.358	2802.82
722.545	3026.04
722.732	2888.83
722.919	2929.79
723.106	2923.65
723.293	2870.4
723.48	2956.41
723.667	2817.15
723.853	2864.25
724.04	2915.45
724.227	2829.44
724.414	2919.55
724.6	2813.06
724.787	2811.01
724.974	2796.67
725.161	2808.96
725.347	2673.79
725.534	2851.97
725.72	2866.3
725.907	2876.54
726.094	2753.66
726.28	2755.71
726.467	2645.12
726.653	2796.67
726.84	2745.47
727.027	2716.8
727.213	2663.55
727.4	2679.94
727.586	2667.65
727.773	2761.86
727.959	2657.41
728.145	2598.02
728.332	2722.95
728.518	2591.88
728.705	2692.23
728.891	2643.07
729.077	2731.14
729.264	2575.49
729.45	2589.83
729.636	2612.35
729.823	2600.07
730.009	2530.44
730.195	2692.23
730.382	2489.48
730.568	2614.4
730.754	2692.23
730.94	2587.78
731.126	2557.06
731.313	2624.64
731.499	2473.09
731.685	2653.31
731.871	2565.25
732.057	2573.44
732.243	2591.88
732.429	2595.97
732.615	2536.58
732.801	2487.43
732.987	2479.24
733.173	2469
733.359	2407.56
733.545	2499.72
733.731	2462.85
733.917	2512
734.103	2542.72
734.289	2456.71
734.475	2555.01
734.661	2419.85
734.847	2436.23
735.033	2491.52
735.219	2264.2
735.404	2395.27
735.59	2446.47
735.776	2292.87
735.962	2387.08
736.148	2532.48
736.333	2378.89
736.519	2432.13
736.705	2387.08
736.89	2534.53
737.076	2432.13
737.262	2387.08
737.447	2460.81
737.633	2387.08
737.819	2339.97
738.004	2213
738.19	2339.97
738.375	2296.97
738.561	2411.65
738.747	2278.54
738.932	2276.49
739.118	2282.63
739.303	2309.26
739.489	2206.86
739.674	2229.38
739.859	2260.1
740.045	2307.21
740.23	2194.57
740.416	2210.95
740.601	2288.78
740.786	2280.58
740.972	2192.52
741.157	2215.05
741.342	2116.75
741.528	2163.85
741.713	2243.72
741.898	2102.41
742.084	2161.8
742.269	2096.27
742.454	2122.89
742.639	2114.7
742.824	2088.07
743.01	2208.9
743.195	2120.84
743.38	2120.84
743.565	2024.59
743.75	2090.12
743.935	1993.87
744.12	2083.98
744.305	1997.96
744.49	2061.45
744.675	2059.4
744.86	2073.74
745.045	2022.54
745.23	1938.57
745.415	1991.82
745.6	1916.05
745.785	1991.82
745.97	1842.32
746.155	1916.05
746.34	1862.8
746.525	1932.43
746.71	1967.24
746.895	1854.61
747.079	1838.22
747.264	1819.79
747.449	1711.25
747.634	1819.79
747.819	1920.14
748.003	1739.92
748.188	1809.55
748.373	1815.69
748.557	1778.83
748.742	1791.12
748.927	1707.15
749.111	1744.02
749.296	1698.96
749.481	1764.5
749.665	1688.72
749.85	1623.19
750.034	1670.29
750.219	1619.09
750.404	1713.3
750.588	1639.57
750.773	1586.32
750.957	1580.18
751.141	1590.42
751.326	1612.95
751.51	1508.5
751.695	1547.41
751.879	1531.03
752.064	1551.51
752.248	1561.75
752.432	1465.49
752.617	1520.79
752.801	1510.55
752.985	1488.02
753.17	1457.3
753.354	1432.72
753.538	1555.6
753.722	1346.71
753.907	1426.58
754.091	1414.29
754.275	1367.19
754.459	1426.58
754.643	1414.29
754.828	1365.14
755.012	1389.72
755.196	1371.29
755.38	1383.57
755.564	1410.2
755.748	1442.96
755.932	1350.81
756.116	1332.37
756.3	1356.95
756.484	1391.77
756.668	1338.52
756.852	1266.84
757.036	1258.65
757.22	1318.04
757.404	1275.03
757.588	1301.65
757.772	1141.91
757.956	1275.03
758.14	1295.51
758.323	1234.07
758.507	1234.07
758.691	1197.21
758.875	1186.97
759.059	1162.39
759.242	1164.44
759.426	1148.06
759.61	1242.26
759.794	1219.74
759.977	1121.43
760.161	1117.34
760.345	1100.95
760.528	1135.77
760.712	1168.54
760.895	1156.25
761.079	1055.9
761.263	1070.23
761.446	1213.59
761.63	1154.2
761.813	1086.62
761.997	1084.57
762.18	1029.27
762.364	1131.67
762.547	1057.95
762.731	1008.8
762.914	980.12
763.098	967.84
763.281	1049.75
763.464	1027.23
763.648	1025.18
763.831	1072.28
764.015	1002.65
764.198	1135.77
764.381	976.03
764.564	1029.27
764.748	1066.14
764.931	996.51
765.114	1012.89
765.297	978.08
765.481	937.12
765.664	959.64
765.847	941.21
766.03	896.16
766.213	928.92
766.397	941.21
766.58	826.53
766.763	918.68
766.946	947.36
767.129	871.58
767.312	1002.65
767.495	933.02
767.678	871.58
767.861	887.97
768.044	937.12
768.227	945.31
768.41	902.3
768.593	875.68
768.776	918.68
768.959	935.07
769.142	908.44
769.324	902.3
769.507	914.59
769.69	840.86
769.873	849.05
770.056	1000.6
770.239	926.88
770.421	914.59
770.604	847.01
770.787	883.87
770.97	834.72
771.152	801.95
771.335	885.92
771.518	763.04
771.7	859.29
771.883	824.48
772.066	779.42
772.248	758.94
772.431	867.49
772.613	810.14
772.796	687.26
772.978	754.85
773.161	894.11
773.343	717.98
773.526	781.47
773.708	767.13
773.891	810.14
774.073	736.42
774.256	709.79
774.438	758.94
774.621	740.51
774.803	779.42
774.985	672.93
775.168	722.08
775.35	660.64
775.532	769.18
775.715	662.69
775.897	744.61
776.079	763.04
776.261	750.75
776.444	681.12
776.626	677.02
776.808	668.83
776.99	611.49
777.173	670.88
777.355	679.07
777.537	695.46
777.719	595.11
777.901	623.78
778.083	660.64
778.265	615.59
778.447	634.02
778.629	562.34
778.811	572.58
778.993	539.81
779.175	631.97
779.357	668.83
779.539	603.3
779.721	599.2
779.903	595.11
780.085	545.95
780.267	654.5
780.449	539.81
780.631	634.02
780.812	603.3
780.994	552.1
781.176	492.71
781.358	586.91
781.54	556.19
781.721	521.38
781.903	523.43
782.085	500.9
782.267	543.91
782.448	611.49
782.63	636.06
782.812	466.08
782.993	443.56
783.175	537.76
783.357	459.94
783.538	578.72
783.72	427.17
783.901	517.28
784.083	545.95
784.264	504.99
784.446	445.6
784.627	474.28
784.809	414.88
784.99	464.04
785.172	504.99
785.353	427.17
785.535	461.99
785.716	447.65
785.897	447.65
786.079	412.84
786.26	435.36
786.441	418.98
786.623	404.64
786.804	406.69
786.985	445.6
787.167	345.25
787.348	466.08
787.529	439.46
787.71	380.07
787.891	398.5
788.073	365.73
788.254	320.68
788.435	423.08
788.616	443.56
788.797	400.55
788.978	359.59
789.159	328.87
789.34	398.5
789.522	388.26
789.703	402.6
789.884	373.92
790.065	337.06
790.246	320.68
790.427	408.74
790.607	390.31
790.788	427.17
790.969	371.88
791.15	378.02
791.331	332.97
791.512	361.64
791.693	382.12
791.874	304.29
792.054	384.16
792.235	359.59
792.416	349.35
792.597	337.06
792.778	378.02
792.958	294.05
793.139	318.63
793.32	296.1
793.5	289.96
793.681	359.59
793.862	328.87
794.042	249
794.223	255.14
794.404	289.96
794.584	316.58
794.765	335.01
794.945	269.48
795.126	240.81
795.306	294.05
795.487	230.57
795.667	287.91
795.848	296.1
796.028	324.77
796.209	269.48
796.389	281.77
796.57	310.44
796.75	271.53
796.93	306.34
797.111	326.82
797.291	343.21
797.471	191.66
797.652	294.05
797.832	300.2
798.012	240.81
798.192	306.34
798.373	277.67
798.553	175.27
798.733	310.44
798.913	249
799.093	306.34
799.274	208.04
799.454	232.62
799.634	285.86
799.814	238.76
799.994	281.77
800.174	294.05
800.354	292.01
800.534	218.28
800.714	326.82
800.894	253.09
801.074	251.05
801.254	259.24
801.434	296.1
801.614	236.71
801.794	249
801.974	836.77
802.154	246.95
802.334	287.91
802.514	193.7
802.693	255.14
802.873	236.71
803.053	238.76
803.233	208.04
803.413	156.84
803.592	201.9
803.772	220.33
803.952	210.09
804.131	158.89
804.311	210.09
804.491	228.52
804.67	197.8
804.85	152.74
805.03	195.75
805.209	312.49
805.389	257.19
805.568	249
805.748	122.02
805.928	263.33
806.107	179.37
806.287	136.36
806.466	195.75
806.646	165.03
806.825	234.66
807.004	251.05
807.184	171.18
807.363	191.66
807.543	205.99
807.722	124.07
807.901	228.52
808.081	203.94
808.26	167.08
808.439	146.6
808.619	138.41
808.798	187.56
808.977	160.94
809.156	72.87
809.336	158.89
809.515	173.22
809.694	126.12
809.873	203.94
810.052	87.21
810.231	240.81
810.411	183.46
810.59	187.56
810.769	150.7
810.948	189.61
811.127	115.88
811.306	224.42
811.485	165.03
811.664	208.04
811.843	179.37
812.022	132.26
812.201	138.41
812.38	138.41
812.559	101.55
812.737	136.36
812.916	156.84
813.095	150.7
813.274	132.26
813.453	234.66
813.632	177.32
813.811	146.6
813.989	103.59
814.168	179.37
814.347	146.6
814.526	156.84
814.704	193.7
814.883	210.09
815.062	79.02
815.24	228.52
815.419	97.45
815.598	144.55
815.776	117.93
815.955	132.26
816.133	105.64
816.312	134.31
816.49	150.7
816.669	134.31
816.847	140.46
817.026	175.27
817.204	124.07
817.383	134.31
817.561	136.36
817.74	175.27
817.918	72.87
818.097	134.31
818.275	66.73
818.453	113.83
818.632	173.22
818.81	134.31
818.988	101.55
819.167	140.46
819.345	128.17
819.523	50.35
819.701	103.59
819.879	126.12
820.058	122.02
820.236	76.97
820.414	52.39
820.592	81.07
820.77	97.45
820.948	195.75
821.127	85.16
821.305	146.6
821.483	122.02
821.661	179.37
821.839	124.07
822.017	130.22
822.195	81.07
822.373	144.55
822.551	136.36
822.729	117.93
822.907	54.44
823.085	152.74
823.262	72.87
823.44	126.12
823.618	83.11
823.796	19.63
823.974	56.49
824.152	132.26
824.329	64.68
824.507	101.55
824.685	101.55
824.863	79.02
825.04	58.54
825.218	126.12
825.396	81.07
825.574	148.65
825.751	93.35
825.929	119.98
826.107	111.78
826.284	70.83
826.462	38.06
826.639	76.97
826.817	48.3
826.994	56.49
827.172	50.35
827.349	130.22
827.527	97.45
827.704	74.92
827.882	111.78
828.059	181.42
828.237	83.11
828.414	105.64
828.591	21.67
828.769	42.15
828.946	148.65
829.124	103.59
829.301	124.07
829.478	119.98
829.655	111.78
829.833	50.35
830.01	29.87
830.187	74.92
830.364	85.16
830.542	81.07
830.719	124.07
830.896	150.7
831.073	48.3
831.25	19.63
831.427	93.35
831.604	162.98
831.782	74.92
831.959	56.49
832.136	115.88
832.313	13.48
832.49	38.06
832.667	58.54
832.844	81.07
833.021	70.83
833.198	103.59
833.374	167.08
833.551	87.21
833.728	83.11
833.905	128.17
834.082	-23.38
834.259	74.92
834.436	33.96
834.612	36.01
834.789	107.69
834.966	27.82
835.143	134.31
835.319	72.87
835.496	36.01
835.673	13.48
835.85	17.58
836.026	76.97
836.203	124.07
836.38	107.69
836.556	95.4
836.733	44.2
836.909	134.31
837.086	31.91
837.262	-41.81
837.439	9.39
837.616	58.54
837.792	56.49
837.968	31.91
838.145	66.73
838.321	7.34
838.498	19.63
838.674	89.26
838.851	33.96
839.027	113.83
839.203	9.39
839.38	124.07
839.556	87.21
839.732	142.5
839.909	83.11
840.085	50.35
840.261	38.06
840.437	44.2
840.614	44.2
840.79	50.35
840.966	58.54
841.142	150.7
841.318	-39.76
841.494	93.35
841.671	117.93
841.847	81.07
842.023	58.54
842.199	99.5
842.375	-9.05
842.551	-13.14
842.727	56.49
842.903	68.78
843.079	3.24
843.255	107.69
843.431	3.24
843.607	62.63
843.783	-0.85
843.959	31.91
844.134	46.25
844.31	62.63
844.486	17.58
844.662	-37.72
844.838	124.07
845.013	74.92
845.189	107.69
845.365	66.73
845.541	3.24
845.716	60.59
845.892	119.98
846.068	27.82
846.244	11.43
846.419	38.06
846.595	-66.39
846.77	23.72
846.946	44.2
847.122	46.25
847.297	17.58
847.473	17.58
847.648	-0.85
847.824	54.44
847.999	21.67
848.175	105.64
848.35	23.72
848.526	117.93
848.701	107.69
848.876	74.92
849.052	95.4
849.227	70.83
849.403	23.72
849.578	64.68
849.753	42.15
849.929	33.96
850.104	25.77
850.279	27.82
850.454	23.72
850.63	40.11
850.805	1.19
850.98	21.67
851.155	128.17
851.33	25.77
851.505	29.87
851.681	109.74
851.856	-4.95
852.031	93.35
852.206	56.49
852.381	3.24
852.556	76.97
852.731	23.72
852.906	-23.38
853.081	81.07
853.256	21.67
853.431	52.39
853.606	-17.24
853.781	81.07
853.956	-4.95
854.131	-47.96
854.305	-78.68
854.48	68.78
854.655	54.44
854.83	15.53
855.005	-37.72
855.18	64.68
855.354	52.39
855.529	-9.05
855.704	33.96
855.879	91.31
856.053	19.63
856.228	62.63
856.403	89.26
856.577	58.54
856.752	33.96
856.926	5.29
857.101	50.35
857.276	72.87
857.45	46.25
857.625	-11.09
857.799	-56.15
857.974	-37.72
858.148	-41.81
858.323	-7
858.497	-13.14
858.672	3.24
858.846	46.25
859.02	83.11
859.195	-21.33
859.369	31.91
859.543	64.68
859.718	91.31
859.892	17.58
860.066	-7
860.241	-43.86
860.415	54.44
860.589	-13.14
860.763	89.26
860.938	17.58
861.112	15.53
861.286	31.91
861.46	38.06
861.634	-23.38
861.808	40.11
861.982	15.53
862.157	-0.85
862.331	79.02
862.505	62.63
862.679	-29.52
862.853	-23.38
863.027	-13.14
863.201	56.49
863.375	11.43
863.549	-64.34
863.722	-52.05
863.896	56.49
864.07	-21.33
864.244	-21.33
864.418	48.3
864.592	79.02
864.766	31.91
864.939	-7
865.113	-39.76
865.287	-37.72
865.461	-56.15
865.634	33.96
865.808	-17.24
865.982	50.35
866.156	-19.29
866.329	-11.09
866.503	-19.29
866.676	29.87
866.85	-68.44
867.024	15.53
867.197	54.44
867.371	-15.19
867.544	56.49
867.718	-86.87
867.891	64.68
868.065	60.59
868.238	-29.52
868.412	11.43
868.585	-41.81
868.759	60.59
868.932	21.67
869.105	-29.52
869.279	-60.24
869.452	38.06
869.625	7.34
869.799	-0.85
869.972	7.34
870.145	-15.19
870.319	9.39
870.492	44.2
870.665	-4.95
870.838	21.67
871.011	-62.29
871.185	1.19
871.358	-19.29
871.531	5.29
871.704	-13.14
871.877	101.55
872.05	-9.05
872.223	31.91
872.396	15.53
872.569	60.59
872.742	-62.29
872.915	52.39
873.088	7.34
873.261	9.39
873.434	95.4
873.607	17.58
873.78	42.15
873.953	58.54
874.126	70.83
874.299	27.82
874.471	21.67
874.644	50.35
874.817	40.11
874.99	7.34
875.163	-23.38
875.335	-2.9
875.508	62.63
875.681	-11.09
875.853	5.29
876.026	56.49
876.199	7.34
876.371	-37.72
876.544	-47.96
876.717	-31.57
876.889	17.58
877.062	-23.38
877.234	-15.19
877.407	3.24
877.579	-39.76
877.752	-29.52
877.924	9.39
878.097	62.63
878.269	-7
878.442	9.39
878.614	-25.43
878.786	-27.48
878.959	25.77
879.131	9.39
879.303	-45.91
879.476	-2.9
879.648	89.26
879.82	11.43
879.993	-60.24
880.165	17.58
880.337	25.77
880.509	29.87
880.681	-33.62
880.854	-4.95
881.026	11.43
881.198	87.21
881.37	42.15
881.542	17.58
881.714	29.87
881.886	48.3
882.058	-54.1
882.23	38.06
882.402	13.48
882.574	40.11
882.746	33.96
882.918	3.24
883.09	60.59
883.262	60.59
883.434	33.96
883.606	27.82
883.778	15.53
883.95	74.92
884.122	33.96
884.293	44.2
884.465	19.63
884.637	52.39
884.809	-64.34
884.98	-58.2
885.152	42.15
885.324	54.44
885.496	27.82
885.667	9.39
885.839	-2.9
886.011	21.67
886.182	9.39
886.354	36.01
886.525	29.87
886.697	25.77
886.869	-25.43
887.04	-17.24
887.212	54.44
887.383	13.48
887.555	13.48
887.726	-41.81
887.897	93.35
888.069	-11.09
888.24	11.43
888.412	58.54
888.583	-19.29
888.754	31.91
888.926	72.87
889.097	44.2
889.268	-23.38
889.44	29.87
889.611	66.73
889.782	-72.53
889.953	-4.95
890.125	5.29
890.296	-29.52
890.467	-21.33
890.638	-0.85
890.809	-21.33
890.98	-25.43
891.151	42.15
891.323	-4.95
891.494	-9.05
891.665	-29.52
891.836	9.39
892.007	-25.43
892.178	81.07
892.349	27.82
892.52	-11.09
892.691	-54.1
892.862	7.34
893.032	21.67
893.203	9.39
893.374	56.49
893.545	70.83
893.716	19.63
893.887	-15.19
894.057	-35.67
894.228	-19.29
894.399	-54.1
894.57	-33.62
894.74	11.43
894.911	9.39
895.082	-9.05
895.253	-11.09
895.423	-9.05
895.594	5.29
895.764	-13.14
895.935	36.01
896.106	48.3
896.276	-4.95
896.447	-25.43
896.617	44.2
896.788	-23.38
896.958	-84.82
897.129	7.34
897.299	-17.24
897.47	105.64
897.64	38.06
897.81	52.39
897.981	-33.62
898.151	1.19
898.322	1.19
898.492	-39.76
898.662	-54.1
898.832	-23.38
899.003	40.11
899.173	48.3
899.343	-41.81
899.513	-25.43
