Data from USB4F104151__85__12-36-57-772.txt Node

Date: Fri Mar 14 12:36:57 EDT 2025
User: louis
Spectrometer: USB4F10415
Trigger mode: 4
Integration Time (sec): 2.000000E-2
Scans to average: 1
Electric dark correction enabled: true
Nonlinearity correction enabled: false
Boxcar width: 0
XAxis mode: Wavelengths
Number of Pixels in Spectrum: 3648
>>>>>Begin Spectral Data<<<<<
178.204	-31.57
178.424	-31.57
178.644	-31.57
178.864	-138.07
179.084	-97.11
179.304	11.43
179.524	33.96
179.744	-62.29
179.964	64.68
180.184	74.92
180.404	29.87
180.624	-43.86
180.844	-27.48
181.064	-13.14
181.283	-60.24
181.503	17.58
181.723	-25.43
181.943	-31.57
182.163	83.11
182.383	3.24
182.602	23.72
182.822	9.39
183.042	-50
183.262	-47.96
183.482	79.02
183.701	72.87
183.921	-25.43
184.141	23.72
184.361	-27.48
184.58	-11.09
184.8	-0.85
185.02	62.63
185.239	-2.9
185.459	48.3
185.679	62.63
185.898	21.67
186.118	70.83
186.338	15.53
186.557	72.87
186.777	13.48
186.997	42.15
187.216	-35.67
187.436	91.31
187.655	21.67
187.875	56.49
188.095	11.43
188.314	48.3
188.534	29.87
188.753	15.53
188.973	54.44
189.192	58.54
189.412	-41.81
189.631	-39.76
189.851	40.11
190.07	60.59
190.29	-15.19
190.509	97.45
190.729	23.72
190.948	97.45
191.168	89.26
191.387	-15.19
191.607	50.35
191.826	111.78
192.045	52.39
192.265	27.82
192.484	27.82
192.704	-2.9
192.923	-43.86
193.142	54.44
193.362	-17.24
193.581	111.78
193.8	40.11
194.02	-25.43
194.239	25.77
194.458	31.91
194.678	91.31
194.897	7.34
195.116	3.24
195.335	76.97
195.555	-41.81
195.774	-45.91
195.993	-31.57
196.212	-4.95
196.432	70.83
196.651	-0.85
196.87	48.3
197.089	29.87
197.308	87.21
197.528	21.67
197.747	33.96
197.966	31.91
198.185	58.54
198.404	15.53
198.623	52.39
198.842	58.54
199.062	21.67
199.281	19.63
199.5	-7
199.719	40.11
199.938	42.15
200.157	-21.33
200.376	19.63
200.595	27.82
200.814	-19.29
201.033	79.02
201.252	38.06
201.471	31.91
201.69	66.73
201.909	56.49
202.128	70.83
202.347	21.67
202.566	68.78
202.785	64.68
203.004	15.53
203.223	36.01
203.442	-105.3
203.661	46.25
203.879	11.43
204.098	101.55
204.317	-27.48
204.536	111.78
204.755	-4.95
204.974	-19.29
205.193	13.48
205.411	54.44
205.63	-23.38
205.849	25.77
206.068	52.39
206.287	83.11
206.505	52.39
206.724	36.01
206.943	-37.72
207.162	64.68
207.381	-17.24
207.599	-9.05
207.818	81.07
208.037	128.17
208.255	58.54
208.474	13.48
208.693	60.59
208.911	60.59
209.13	-35.67
209.349	5.29
209.567	48.3
209.786	44.2
210.005	27.82
210.223	-23.38
210.442	-58.2
210.661	-11.09
210.879	60.59
211.098	91.31
211.316	68.78
211.535	89.26
211.753	29.87
211.972	42.15
212.191	31.91
212.409	76.97
212.628	44.2
212.846	-111.44
213.065	-29.52
213.283	91.31
213.502	76.97
213.72	15.53
213.938	52.39
214.157	11.43
214.375	64.68
214.594	7.34
214.812	33.96
215.031	74.92
215.249	15.53
215.467	56.49
215.686	68.78
215.904	60.59
216.122	-2.9
216.341	42.15
216.559	40.11
216.778	60.59
216.996	15.53
217.214	3.24
217.432	-13.14
217.651	21.67
217.869	-39.76
218.087	48.3
218.306	19.63
218.524	81.07
218.742	31.91
218.96	44.2
219.179	83.11
219.397	46.25
219.615	138.41
219.833	40.11
220.051	38.06
220.27	83.11
220.488	-0.85
220.706	89.26
220.924	19.63
221.142	5.29
221.36	-4.95
221.578	40.11
221.796	-15.19
222.015	-15.19
222.233	-17.24
222.451	27.82
222.669	-80.72
222.887	140.46
223.105	1.19
223.323	-19.29
223.541	31.91
223.759	70.83
223.977	42.15
224.195	31.91
224.413	83.11
224.631	54.44
224.849	9.39
225.067	111.78
225.285	-4.95
225.503	7.34
225.721	17.58
225.939	48.3
226.157	52.39
226.375	89.26
226.592	-17.24
226.81	31.91
227.028	54.44
227.246	72.87
227.464	40.11
227.682	40.11
227.9	66.73
228.117	-37.72
228.335	-0.85
228.553	19.63
228.771	44.2
228.989	3.24
229.206	85.16
229.424	1.19
229.642	15.53
229.86	64.68
230.077	89.26
230.295	31.91
230.513	60.59
230.731	93.35
230.948	87.21
231.166	58.54
231.384	33.96
231.601	-19.29
231.819	7.34
232.037	-4.95
232.254	-21.33
232.472	13.48
232.689	29.87
232.907	97.45
233.125	38.06
233.342	52.39
233.56	36.01
233.777	-15.19
233.995	23.72
234.213	79.02
234.43	25.77
234.648	23.72
234.865	27.82
235.083	-13.14
235.3	62.63
235.518	68.78
235.735	60.59
235.953	87.21
236.17	-39.76
236.388	33.96
236.605	66.73
236.822	-2.9
237.04	50.35
237.257	5.29
237.475	23.72
237.692	25.77
237.909	60.59
238.127	38.06
238.344	-2.9
238.562	-7
238.779	72.87
238.996	-23.38
239.214	33.96
239.431	83.11
239.648	25.77
239.865	46.25
240.083	13.48
240.3	33.96
240.517	40.11
240.735	74.92
240.952	27.82
241.169	25.77
241.386	48.3
241.603	33.96
241.821	5.29
242.038	11.43
242.255	13.48
242.472	7.34
242.689	-9.05
242.907	56.49
243.124	21.67
243.341	3.24
243.558	70.83
243.775	31.91
243.992	-9.05
244.209	11.43
244.426	81.07
244.643	1.19
244.86	-80.72
245.078	60.59
245.295	33.96
245.512	50.35
245.729	3.24
245.946	-9.05
246.163	132.26
246.38	85.16
246.597	38.06
246.814	64.68
247.031	27.82
247.248	-15.19
247.464	25.77
247.681	97.45
247.898	44.2
248.115	7.34
248.332	29.87
248.549	81.07
248.766	81.07
248.983	25.77
249.2	48.3
249.417	52.39
249.633	72.87
249.85	23.72
250.067	115.88
250.284	-19.29
250.501	36.01
250.717	11.43
250.934	7.34
251.151	68.78
251.368	76.97
251.585	44.2
251.801	36.01
252.018	-0.85
252.235	1.19
252.451	21.67
252.668	48.3
252.885	25.77
253.102	27.82
253.318	29.87
253.535	19.63
253.752	38.06
253.968	66.73
254.185	-19.29
254.401	48.3
254.618	7.34
254.835	-62.29
255.051	89.26
255.268	19.63
255.484	124.07
255.701	-4.95
255.917	27.82
256.134	-2.9
256.351	11.43
256.567	-9.05
256.784	-19.29
257	3.24
257.217	25.77
257.433	87.21
257.65	58.54
257.866	40.11
258.082	48.3
258.299	52.39
258.515	-19.29
258.732	23.72
258.948	7.34
259.165	-7
259.381	76.97
259.597	66.73
259.814	76.97
260.03	56.49
260.246	3.24
260.463	-13.14
260.679	3.24
260.895	70.83
261.112	66.73
261.328	-21.33
261.544	7.34
261.761	50.35
261.977	1.19
262.193	87.21
262.409	-0.85
262.626	111.78
262.842	72.87
263.058	-7
263.274	-35.67
263.49	50.35
263.707	58.54
263.923	54.44
264.139	17.58
264.355	46.25
264.571	66.73
264.787	7.34
265.004	7.34
265.22	25.77
265.436	76.97
265.652	7.34
265.868	113.83
266.084	-66.39
266.3	38.06
266.516	48.3
266.732	-23.38
266.948	103.59
267.164	52.39
267.38	105.64
267.596	23.72
267.812	117.93
268.028	40.11
268.244	-15.19
268.46	-11.09
268.676	68.78
268.892	70.83
269.108	-37.72
269.324	42.15
269.54	15.53
269.756	-0.85
269.972	-27.48
270.188	50.35
270.403	128.17
270.619	-21.33
270.835	-43.86
271.051	64.68
271.267	60.59
271.483	7.34
271.698	83.11
271.914	62.63
272.13	11.43
272.346	62.63
272.562	-15.19
272.777	54.44
272.993	42.15
273.209	58.54
273.425	7.34
273.64	54.44
273.856	60.59
274.072	15.53
274.287	36.01
274.503	56.49
274.719	19.63
274.934	-7
275.15	132.26
275.366	76.97
275.581	85.16
275.797	-9.05
276.012	-60.24
276.228	64.68
276.444	60.59
276.659	36.01
276.875	-25.43
277.09	17.58
277.306	44.2
277.521	56.49
277.737	-7
277.952	29.87
278.168	27.82
278.383	19.63
278.599	-17.24
278.814	70.83
279.03	58.54
279.245	109.74
279.461	-23.38
279.676	-13.14
279.892	-9.05
280.107	29.87
280.322	62.63
280.538	9.39
280.753	46.25
280.969	52.39
281.184	1.19
281.399	17.58
281.615	103.59
281.83	46.25
282.045	3.24
282.26	48.3
282.476	62.63
282.691	5.29
282.906	-15.19
283.122	107.69
283.337	-15.19
283.552	124.07
283.767	70.83
283.983	91.31
284.198	19.63
284.413	81.07
284.628	56.49
284.843	50.35
285.058	-37.72
285.274	15.53
285.489	85.16
285.704	46.25
285.919	13.48
286.134	19.63
286.349	36.01
286.564	25.77
286.779	-7
286.995	74.92
287.21	1.19
287.425	79.02
287.64	115.88
287.855	70.83
288.07	13.48
288.285	66.73
288.5	27.82
288.715	48.3
288.93	44.2
289.145	54.44
289.36	107.69
289.575	31.91
289.79	48.3
290.004	-0.85
290.219	76.97
290.434	42.15
290.649	3.24
290.864	-15.19
291.079	46.25
291.294	27.82
291.509	-4.95
291.724	44.2
291.938	68.78
292.153	42.15
292.368	-4.95
292.583	62.63
292.798	-15.19
293.012	91.31
293.227	27.82
293.442	13.48
293.657	72.87
293.871	132.26
294.086	40.11
294.301	107.69
294.516	-0.85
294.73	31.91
294.945	-2.9
295.16	-41.81
295.374	17.58
295.589	62.63
295.804	27.82
296.018	44.2
296.233	66.73
296.447	42.15
296.662	5.29
296.877	76.97
297.091	27.82
297.306	23.72
297.52	60.59
297.735	64.68
297.949	36.01
298.164	105.64
298.378	56.49
298.593	46.25
298.807	105.64
299.022	54.44
299.236	7.34
299.451	72.87
299.665	13.48
299.88	-0.85
300.094	142.5
300.309	60.59
300.523	-21.33
300.737	52.39
300.952	-9.05
301.166	-43.86
301.381	-47.96
301.595	72.87
301.809	52.39
302.024	27.82
302.238	-0.85
302.452	9.39
302.667	19.63
302.881	72.87
303.095	27.82
303.309	38.06
303.524	38.06
303.738	29.87
303.952	38.06
304.166	21.67
304.381	38.06
304.595	25.77
304.809	66.73
305.023	27.82
305.237	-43.86
305.452	85.16
305.666	85.16
305.88	29.87
306.094	95.4
306.308	58.54
306.522	56.49
306.736	83.11
306.95	142.5
307.164	72.87
307.379	29.87
307.593	68.78
307.807	70.83
308.021	76.97
308.235	5.29
308.449	7.34
308.663	-35.67
308.877	68.78
309.091	7.34
309.305	70.83
309.519	109.74
309.733	79.02
309.947	-11.09
310.161	44.2
310.374	-11.09
310.588	76.97
310.802	-74.58
311.016	54.44
311.23	60.59
311.444	23.72
311.658	83.11
311.872	23.72
312.085	7.34
312.299	83.11
312.513	1.19
312.727	48.3
312.941	7.34
313.154	115.88
313.368	15.53
313.582	74.92
313.796	-0.85
314.009	33.96
314.223	36.01
314.437	89.26
314.651	113.83
314.864	44.2
315.078	5.29
315.292	5.29
315.505	15.53
315.719	89.26
315.933	50.35
316.146	56.49
316.36	1.19
316.573	11.43
316.787	33.96
317.001	46.25
317.214	60.59
317.428	-11.09
317.641	70.83
317.855	54.44
318.068	64.68
318.282	-21.33
318.495	9.39
318.709	52.39
318.922	91.31
319.136	38.06
319.349	19.63
319.563	42.15
319.776	70.83
319.99	-7
320.203	60.59
320.417	23.72
320.63	3.24
320.843	97.45
321.057	46.25
321.27	33.96
321.483	48.3
321.697	101.55
321.91	44.2
322.124	64.68
322.337	-4.95
322.55	52.39
322.763	19.63
322.977	58.54
323.19	64.68
323.403	101.55
323.617	103.59
323.83	13.48
324.043	68.78
324.256	-2.9
324.469	-84.82
324.683	27.82
324.896	91.31
325.109	76.97
325.322	-23.38
325.535	68.78
325.748	103.59
325.962	68.78
326.175	103.59
326.388	132.26
326.601	11.43
326.814	29.87
327.027	5.29
327.24	25.77
327.453	-15.19
327.666	44.2
327.879	7.34
328.092	124.07
328.305	48.3
328.518	52.39
328.731	111.78
328.944	36.01
329.157	27.82
329.37	36.01
329.583	40.11
329.796	91.31
330.009	36.01
330.222	9.39
330.435	85.16
330.648	21.67
330.861	101.55
331.073	52.39
331.286	29.87
331.499	46.25
331.712	3.24
331.925	29.87
332.138	60.59
332.35	42.15
332.563	27.82
332.776	15.53
332.989	119.98
333.202	9.39
333.414	-17.24
333.627	48.3
333.84	11.43
334.053	56.49
334.265	33.96
334.478	36.01
334.691	-27.48
334.903	33.96
335.116	23.72
335.329	44.2
335.541	87.21
335.754	52.39
335.966	74.92
336.179	38.06
336.392	38.06
336.604	1.19
336.817	23.72
337.029	79.02
337.242	68.78
337.454	27.82
337.667	50.35
337.88	56.49
338.092	-33.62
338.305	117.93
338.517	83.11
338.729	165.03
338.942	76.97
339.154	76.97
339.367	79.02
339.579	-23.38
339.792	89.26
340.004	72.87
340.217	87.21
340.429	72.87
340.641	29.87
340.854	54.44
341.066	46.25
341.278	33.96
341.491	76.97
341.703	17.58
341.915	56.49
342.128	33.96
342.34	-2.9
342.552	33.96
342.764	146.6
342.977	79.02
343.189	-11.09
343.401	91.31
343.613	-21.33
343.826	83.11
344.038	29.87
344.25	70.83
344.462	11.43
344.674	68.78
344.886	136.36
345.099	72.87
345.311	5.29
345.523	99.5
345.735	-4.95
345.947	46.25
346.159	68.78
346.371	83.11
346.583	103.59
346.795	33.96
347.007	66.73
347.219	74.92
347.431	-4.95
347.643	83.11
347.855	64.68
348.067	64.68
348.279	29.87
348.491	72.87
348.703	27.82
348.915	126.12
349.127	68.78
349.339	76.97
349.551	-2.9
349.763	36.01
349.975	-13.14
350.187	19.63
350.399	36.01
350.61	54.44
350.822	9.39
351.034	36.01
351.246	113.83
351.458	83.11
351.669	72.87
351.881	42.15
352.093	68.78
352.305	17.58
352.517	50.35
352.728	62.63
352.94	38.06
353.152	109.74
353.363	42.15
353.575	119.98
353.787	101.55
353.999	93.35
354.21	105.64
354.422	-31.57
354.633	17.58
354.845	31.91
355.057	60.59
355.268	64.68
355.48	101.55
355.692	81.07
355.903	74.92
356.115	117.93
356.326	21.67
356.538	81.07
356.749	81.07
356.961	36.01
357.172	66.73
357.384	62.63
357.595	83.11
357.807	68.78
358.018	72.87
358.23	31.91
358.441	7.34
358.653	56.49
358.864	46.25
359.075	50.35
359.287	42.15
359.498	-13.14
359.709	27.82
359.921	72.87
360.132	70.83
360.344	11.43
360.555	66.73
360.766	19.63
360.977	54.44
361.189	48.3
361.4	-39.76
361.611	115.88
361.823	33.96
362.034	-0.85
362.245	44.2
362.456	99.5
362.667	68.78
362.879	111.78
363.09	89.26
363.301	50.35
363.512	68.78
363.723	21.67
363.935	119.98
364.146	72.87
364.357	72.87
364.568	36.01
364.779	76.97
364.99	115.88
365.201	66.73
365.412	111.78
365.623	68.78
365.834	58.54
366.045	97.45
366.256	79.02
366.467	17.58
366.678	68.78
366.889	-13.14
367.1	17.58
367.311	60.59
367.522	9.39
367.733	40.11
367.944	46.25
368.155	15.53
368.366	76.97
368.577	79.02
368.788	105.64
368.999	46.25
369.209	81.07
369.42	23.72
369.631	128.17
369.842	42.15
370.053	21.67
370.264	70.83
370.474	-2.9
370.685	111.78
370.896	36.01
371.107	119.98
371.317	56.49
371.528	107.69
371.739	42.15
371.95	31.91
372.16	46.25
372.371	44.2
372.582	36.01
372.792	19.63
373.003	19.63
373.214	13.48
373.424	117.93
373.635	36.01
373.846	48.3
374.056	48.3
374.267	29.87
374.477	83.11
374.688	52.39
374.898	60.59
375.109	44.2
375.319	54.44
375.53	119.98
375.74	54.44
375.951	72.87
376.161	79.02
376.372	44.2
376.582	58.54
376.793	23.72
377.003	42.15
377.214	54.44
377.424	60.59
377.635	13.48
377.845	83.11
378.055	93.35
378.266	29.87
378.476	62.63
378.686	91.31
378.897	11.43
379.107	23.72
379.317	93.35
379.528	87.21
379.738	68.78
379.948	91.31
380.158	52.39
380.369	9.39
380.579	-2.9
380.789	-11.09
380.999	115.88
381.21	11.43
381.42	36.01
381.63	81.07
381.84	48.3
382.05	44.2
382.261	44.2
382.471	85.16
382.681	74.92
382.891	83.11
383.101	85.16
383.311	1.19
383.521	74.92
383.731	113.83
383.941	9.39
384.151	68.78
384.361	52.39
384.571	60.59
384.781	68.78
384.991	91.31
385.201	95.4
385.411	42.15
385.621	19.63
385.831	11.43
386.041	74.92
386.251	48.3
386.461	17.58
386.671	107.69
386.881	62.63
387.091	62.63
387.301	74.92
387.511	76.97
387.72	105.64
387.93	58.54
388.14	33.96
388.35	38.06
388.56	93.35
388.769	29.87
388.979	11.43
389.189	70.83
389.399	1.19
389.609	58.54
389.818	58.54
390.028	40.11
390.238	132.26
390.447	64.68
390.657	54.44
390.867	70.83
391.076	21.67
391.286	156.84
391.496	25.77
391.705	52.39
391.915	142.5
392.125	66.73
392.334	64.68
392.544	21.67
392.753	40.11
392.963	52.39
393.172	148.65
393.382	50.35
393.591	150.7
393.801	83.11
394.01	38.06
394.22	146.6
394.429	64.68
394.639	11.43
394.848	83.11
395.058	64.68
395.267	89.26
395.477	68.78
395.686	130.22
395.895	117.93
396.105	134.31
396.314	101.55
396.524	119.98
396.733	62.63
396.942	175.27
397.152	79.02
397.361	38.06
397.57	70.83
397.78	173.22
397.989	142.5
398.198	107.69
398.407	42.15
398.617	87.21
398.826	109.74
399.035	119.98
399.244	115.88
399.453	185.51
399.663	177.32
399.872	93.35
400.081	91.31
400.29	177.32
400.499	58.54
400.708	93.35
400.917	165.03
401.127	197.8
401.336	122.02
401.545	107.69
401.754	76.97
401.963	183.46
402.172	150.7
402.381	72.87
402.59	265.38
402.799	199.85
403.008	138.41
403.217	222.38
403.426	136.36
403.635	201.9
403.844	214.18
404.053	216.23
404.262	99.5
404.471	238.76
404.68	238.76
404.888	167.08
405.097	205.99
405.306	152.74
405.515	249
405.724	189.61
405.933	195.75
406.142	199.85
406.35	165.03
406.559	224.42
406.768	201.9
406.977	226.47
407.185	283.81
407.394	240.81
407.603	216.23
407.812	210.09
408.02	236.71
408.229	310.44
408.438	214.18
408.646	287.91
408.855	322.73
409.064	281.77
409.272	230.57
409.481	353.45
409.69	363.69
409.898	275.62
410.107	423.08
410.315	427.17
410.524	365.73
410.733	441.51
410.941	328.87
411.15	402.6
411.358	509.09
411.567	552.1
411.775	472.23
411.984	455.84
412.192	554.15
412.401	533.67
412.609	550.05
412.818	490.66
413.026	599.2
413.234	545.95
413.443	697.5
413.651	695.46
413.86	613.54
414.068	670.88
414.276	771.23
414.485	746.66
414.693	795.81
414.901	808.09
415.11	822.43
415.318	875.68
415.526	853.15
415.734	904.35
415.943	918.68
416.151	996.51
416.359	1008.8
416.567	1035.42
416.776	1012.89
416.984	1193.11
417.192	1109.15
417.4	1254.55
417.608	1227.93
417.817	1238.17
418.025	1385.62
418.233	1428.63
418.441	1326.23
418.649	1418.39
418.857	1440.92
419.065	1649.81
419.273	1467.54
419.481	1655.95
419.689	1768.59
419.897	1905.81
420.105	1842.32
420.313	1963.15
420.521	1862.8
420.729	1899.66
420.937	2034.83
421.145	1993.87
421.353	2225.29
421.561	2262.15
421.769	2210.95
421.977	2387.08
422.185	2438.28
422.393	2575.49
422.601	2665.6
422.809	2655.36
423.017	2792.58
423.224	2917.5
423.432	2964.61
423.64	2980.99
423.848	3245.18
424.056	3140.73
424.263	3497.08
424.471	3370.1
424.679	3431.54
424.887	3665.01
425.094	3777.65
425.302	3882.1
425.51	4004.97
425.718	4121.71
425.925	4097.13
426.133	4273.26
426.341	4463.72
426.548	4797.54
426.756	4662.37
426.964	4668.52
427.171	5184.6
427.379	5227.61
427.586	5174.36
427.794	5518.42
428.001	5700.69
428.209	5981.26
428.417	5858.39
428.624	6214.73
428.832	6294.6
429.039	6364.23
429.247	6157.39
429.454	6784.07
429.662	7128.13
429.869	6646.85
430.076	7451.7
430.284	7115.84
430.491	7488.57
430.699	7842.87
430.906	7844.91
431.114	7820.34
431.321	8119.34
431.528	8274.99
431.736	8850.47
431.943	9231.39
432.15	8922.15
432.358	9145.38
432.565	9741.33
432.772	9632.79
432.979	10107.92
433.187	10234.89
433.394	10306.57
433.601	11060.23
433.808	11017.22
434.016	11037.7
434.223	11525.11
434.43	12209.14
434.637	11801.59
434.844	12639.21
435.052	13022.18
435.259	12889.06
435.466	12868.58
435.673	12790.76
435.88	13650.91
436.087	14373.84
436.294	14455.76
436.501	14033.88
436.708	14439.37
436.915	14971.85
437.122	15682.49
437.329	15449.02
437.537	16024.5
437.743	16464.82
437.95	16044.98
438.157	17175.46
438.364	17400.74
438.571	17636.25
438.778	17595.29
438.985	19430.27
439.192	18742.16
439.399	19194.76
439.606	18639.76
439.813	19727.23
440.02	20822.89
440.227	20452.21
440.433	20341.62
440.64	21044.07
440.847	20927.34
441.054	21574.5
441.261	22817.61
441.467	22606.67
441.674	22756.18
441.881	23868.22
442.088	23950.14
442.294	23683.91
442.501	24251.19
442.708	24566.58
442.914	25738.02
443.121	26723.09
443.328	25721.63
443.534	27966.21
443.741	27312.91
443.948	26626.84
444.154	28664.57
444.361	28658.42
444.568	28742.39
444.774	28783.35
444.981	28953.33
445.187	29975.27
445.394	31279.82
445.6	30991.06
445.807	34011.81
446.013	32524.99
446.22	33194.67
446.426	34159.27
446.633	34384.54
446.839	35621.52
447.046	34294.43
447.252	36289.15
447.459	36139.65
447.665	36074.12
447.871	37685.87
448.078	39258.71
448.284	37577.33
448.491	38224.48
448.697	39858.76
448.903	40706.62
449.11	40583.74
449.316	39825.99
449.522	40772.16
449.728	41935.4
449.935	41986.6
450.141	42457.63
450.347	42828.32
450.553	41779.76
450.76	42142.25
450.966	43594.26
451.172	43039.26
451.378	44222.98
451.584	43158.04
451.791	44708.35
451.997	44089.87
452.203	44939.77
452.409	45056.51
452.615	44554.75
452.821	43319.83
453.027	42805.79
453.233	44642.82
453.44	43141.66
453.646	43741.71
453.852	44349.96
454.058	44540.42
454.264	43250.2
454.47	44161.54
454.676	43065.88
454.882	44552.71
455.088	40698.43
455.294	41706.03
455.5	41943.59
455.705	42353.19
455.911	40438.34
456.117	39565.9
456.323	39557.71
456.529	37227.12
456.735	39305.81
456.941	37978.73
457.147	37147.25
457.352	36405.89
457.558	35773.06
457.764	35584.65
457.97	35351.18
458.176	34222.75
458.381	34511.52
458.587	32869.05
458.793	33131.19
458.999	31351.5
459.204	33538.73
459.41	32551.61
459.616	30884.56
459.821	30124.77
460.027	30145.25
460.233	29377.26
460.438	28484.34
460.644	28515.06
460.85	27044.62
461.055	26651.41
461.261	26856.21
461.466	24853.3
461.672	24048.44
461.878	25611.04
462.083	23546.69
462.289	23464.77
462.494	23231.3
462.7	22055.77
462.905	21898.08
463.111	22485.84
463.316	22365.01
463.522	21873.5
463.727	22010.71
463.932	22002.52
464.138	21736.29
464.343	21728.1
464.549	20853.61
464.754	22184.79
464.959	21449.57
465.165	21474.15
465.37	20292.47
465.575	20056.95
465.781	20996.97
465.986	21017.45
466.191	20188.02
466.397	19731.33
466.602	18897.8
466.807	19471.23
467.012	19755.9
467.218	19452.8
467.423	19409.79
467.628	19364.74
467.833	20331.38
468.038	19250.05
468.244	18858.89
468.449	19524.48
468.654	19006.34
468.859	18736.01
469.064	18858.89
469.269	18193.3
469.474	17830.81
469.679	18557.84
469.885	17779.61
470.09	18084.76
470.295	18074.52
470.5	17509.28
470.705	17884.06
470.91	17322.91
471.115	17204.13
471.32	17501.09
471.525	17359.78
471.73	16851.88
471.935	16964.52
472.139	16399.28
472.344	16487.34
472.549	16409.52
472.754	16008.12
472.959	15938.49
473.164	15469.5
473.369	15383.49
473.574	15801.27
473.778	15918.01
473.983	15502.27
474.188	15614.91
474.393	14748.62
474.598	15049.67
474.802	14549.96
475.007	14771.15
475.212	14742.47
475.417	14019.54
475.621	14001.11
475.826	14285.78
476.031	13851.61
476.235	13790.17
476.44	13822.94
476.645	13698.01
476.849	13685.72
477.054	13317.09
477.259	13356
477.463	13235.17
477.668	13057
477.872	13126.63
478.077	12889.06
478.282	12618.73
478.486	12483.56
478.691	12452.84
478.895	12346.35
479.1	12338.16
479.304	12137.46
479.509	12028.92
479.713	12202.99
479.918	11979.76
480.122	11897.85
480.326	12102.64
480.531	11942.9
480.735	11607.03
480.94	11564.03
481.144	11891.7
481.348	11447.29
481.553	11619.32
481.757	11342.85
481.961	11375.61
482.166	11475.96
482.37	11652.09
482.574	11416.57
482.778	11336.7
482.983	11629.56
483.187	11465.72
483.391	11473.92
483.595	11406.33
483.8	11209.73
484.004	11518.97
484.208	11439.1
484.412	11293.69
484.616	11371.52
484.821	11439.1
485.025	11295.74
485.229	11633.66
485.433	11154.43
485.637	11373.57
485.841	11281.41
486.045	11293.69
486.249	11424.76
486.453	11285.5
486.657	11435
486.861	11346.94
487.065	11262.97
487.269	11387.9
487.473	11215.87
487.677	11480.06
487.881	11619.32
488.085	11508.73
488.289	11381.76
488.493	11297.79
488.697	11707.38
488.901	11449.34
489.105	11527.16
489.309	11508.73
489.512	11469.82
489.716	11631.61
489.92	11586.55
490.124	11734.01
490.328	11662.33
490.531	11506.68
490.735	11897.85
490.939	11760.63
491.143	11848.69
491.346	11676.66
491.55	11850.74
491.754	11846.65
491.958	11985.91
492.161	11901.94
492.365	12065.78
492.569	12184.56
492.772	11918.32
492.976	11877.37
493.18	12309.49
493.383	12342.25
493.587	12309.49
493.79	12452.84
493.994	12342.25
494.197	12510.19
494.401	12653.55
494.605	12823.53
494.808	12801
495.012	12887.01
495.215	13102.05
495.419	13171.68
495.622	12973.03
495.825	13399.01
496.029	13134.82
496.232	13482.97
496.436	13536.22
496.639	13773.78
496.843	13863.9
497.046	14068.69
497.249	14001.11
497.453	14228.43
497.656	14304.21
497.859	14545.87
498.063	14449.61
498.266	14894.02
498.469	14789.58
498.673	14969.8
498.876	15225.79
499.079	15580.09
499.282	15457.21
499.485	15786.94
499.689	15633.34
499.892	15936.44
500.095	16065.46
500.298	16305.07
500.501	16284.59
500.705	16890.79
500.908	16898.98
501.111	17009.58
501.314	16989.1
501.517	17683.36
501.72	17374.11
501.923	17617.82
502.126	18095
502.329	18090.9
502.532	18410.39
502.735	18406.29
502.938	18981.77
503.141	19008.39
503.344	19217.29
503.547	19274.63
503.75	19450.75
503.953	19968.89
504.156	19653.5
504.359	20089.72
504.562	20149.11
504.765	20894.57
504.968	21001.07
505.17	21179.24
505.373	20931.44
505.576	21711.71
505.779	21787.49
505.982	22149.98
506.185	22279
506.387	22371.16
506.59	22319.96
506.793	22893.39
506.996	22977.36
507.198	23722.82
507.401	23487.3
507.604	23632.71
507.807	24210.23
508.009	24105.79
508.212	24296.25
508.415	24861.49
508.617	24875.82
508.82	25336.62
509.022	25262.89
509.225	25914.14
509.428	25844.51
509.63	26012.45
509.833	26213.15
510.035	26995.47
510.238	26762
510.44	27333.39
510.643	27517.7
510.845	27695.88
511.048	27605.77
511.25	28207.87
511.453	28496.63
511.655	29209.32
511.858	29197.04
512.06	29385.45
512.262	29690.6
512.465	29500.14
512.667	30272.22
512.87	30601.94
513.072	30745.3
513.274	30913.23
513.477	31392.46
513.679	31625.93
513.881	31800.01
514.084	32146.11
514.286	32131.78
514.488	32449.21
514.69	33639.08
514.893	33473.2
515.095	33491.63
515.297	34091.68
515.499	33966.76
515.701	34540.19
515.904	34964.12
516.106	34562.72
516.308	34876.05
516.51	35558.03
516.712	36076.16
516.914	36428.41
517.116	36768.38
517.318	36637.31
517.52	37180.02
517.722	37132.92
517.925	37724.78
518.127	38230.63
518.329	38355.55
518.531	38472.29
518.733	38836.83
518.935	39238.23
519.136	39350.87
519.338	39754.32
519.54	39987.78
519.742	40243.78
519.944	40536.64
520.146	40841.79
520.348	41173.56
520.55	41624.11
520.752	41335.35
520.954	42234.41
521.155	41949.74
521.357	42652.19
521.559	42820.13
521.761	43661.84
521.963	43160.09
522.164	43960.84
522.366	44114.44
522.568	43987.47
522.77	44327.43
522.971	45421.05
523.173	45027.84
523.375	45238.78
523.576	45257.21
523.778	45187.58
523.98	46264.81
524.181	46268.9
524.383	46653.92
524.584	46840.29
524.786	46764.51
524.988	46686.69
525.189	47487.45
525.391	47237.59
525.592	47727.06
525.794	47636.95
525.995	48304.59
526.197	47989.2
526.398	48128.46
526.6	48830.91
526.801	48644.55
527.003	48488.9
527.204	48630.21
527.406	49330.62
527.607	49236.41
527.808	49740.21
528.01	48658.88
528.211	49699.25
528.412	50432.43
528.614	49879.47
528.815	50248.11
529.016	51089.82
529.218	50383.27
529.419	49981.87
529.62	50174.38
529.822	50221.48
530.023	50553.26
530.224	50684.33
530.425	50500.01
530.626	50299.31
530.828	50096.56
531.029	51466.65
531.23	50805.16
531.431	50604.45
531.632	51315.1
531.833	51597.72
532.035	51298.72
532.236	51022.24
532.437	51700.12
532.638	51253.66
532.839	51325.34
533.04	51734.93
533.241	50491.82
533.442	51956.11
533.643	51593.62
533.844	51435.93
534.045	51513.75
534.246	51315.1
534.447	51798.42
534.648	51661.21
534.849	52304.27
535.05	51474.84
535.251	51286.43
535.451	51415.45
535.652	51753.36
535.853	51343.77
536.054	51515.8
536.255	51868.05
536.456	51218.85
536.657	51937.68
536.857	51450.27
537.058	51104.16
537.259	52068.75
537.46	51876.24
537.66	51833.24
537.861	51526.04
538.062	51646.87
538.263	52148.62
538.463	51417.5
538.664	51218.85
538.865	51548.57
539.065	51884.43
539.266	51433.88
539.466	51620.25
539.667	50762.15
539.868	51909.01
540.068	51278.24
540.269	50950.56
540.469	51276.19
540.67	51014.05
540.87	51413.4
541.071	51495.32
541.271	51505.56
541.472	51075.49
541.672	51589.53
541.873	51497.37
542.073	50526.63
542.274	51620.25
542.474	51360.15
542.675	50907.55
542.875	51536.28
543.075	50796.96
543.276	50897.31
543.476	51452.31
543.676	51038.62
543.877	50997.66
544.077	51095.97
544.277	51040.67
544.478	50680.23
544.678	50817.44
544.878	50979.23
545.078	51050.91
545.279	50518.44
545.479	50807.2
545.679	51192.22
545.879	51186.08
546.079	50835.87
546.28	50489.77
546.48	50614.69
546.68	50971.04
546.88	50901.41
547.08	50901.41
547.28	51001.76
547.48	50192.81
547.68	51100.06
547.88	50254.25
548.081	50885.03
548.281	50962.85
548.481	50538.92
548.681	50958.75
548.881	50473.38
549.081	50598.31
549.28	50422.19
549.48	50882.98
549.68	50674.09
549.88	51446.17
550.08	50633.13
550.28	50700.71
550.48	50399.66
550.68	50856.35
550.88	50301.36
551.08	50168.24
551.279	50669.99
551.479	50319.79
551.679	50467.24
551.879	50303.4
552.079	51095.97
552.278	50311.59
552.478	50647.46
552.678	50610.6
552.878	50641.32
553.077	50102.7
553.277	50211.24
553.477	50782.63
553.676	50168.24
553.876	49797.55
554.076	49715.64
554.275	50401.71
554.475	49492.41
554.674	50471.34
554.874	50244.01
555.074	49689.01
555.273	50108.85
555.473	49990.06
555.672	49428.92
555.872	49981.87
556.071	50057.65
556.271	50266.54
556.47	49404.34
556.67	49263.03
556.869	49713.59
557.068	49629.62
557.268	49537.46
557.467	49648.05
557.667	49373.63
557.866	49721.78
558.065	49424.82
558.265	49230.27
558.464	48810.43
558.663	49975.73
558.863	48896.45
559.062	49650.1
559.261	48775.62
559.461	49152.44
559.66	48701.89
559.859	49127.87
560.058	48710.08
560.258	49236.41
560.457	48490.95
560.656	48806.34
560.855	48816.58
561.054	48822.72
561.253	48626.12
561.453	48515.53
561.652	48488.9
561.851	48314.83
562.05	47997.39
562.249	48226.76
562.448	48120.27
562.647	48261.58
562.846	47747.54
563.045	47964.62
563.244	47630.8
563.443	48361.93
563.642	47231.45
563.841	48009.68
564.04	47604.18
564.239	48142.8
564.438	47432.15
564.637	47630.8
564.836	47718.87
565.035	47235.55
565.234	47405.53
565.432	46967.26
565.631	47061.47
565.83	47253.98
566.029	46385.64
566.228	46612.96
566.427	46453.22
566.625	46494.18
566.824	45812.21
567.023	46797.28
567.222	45834.74
567.42	46582.24
567.619	46363.11
567.818	46479.85
568.016	46139.88
568.215	46375.4
568.414	45978.09
568.612	46197.23
568.811	45949.42
569.01	46057.96
569.208	45236.73
569.407	45720.05
569.605	45240.82
569.804	45722.1
570.002	45543.92
570.201	45711.86
570.4	44700.16
570.598	44898.81
570.797	44534.28
570.995	45304.31
571.193	44216.84
571.392	45156.86
571.59	44499.46
571.789	44689.92
571.987	44309
572.186	44216.84
572.384	43760.14
572.582	44210.7
572.781	44053
572.979	43508.24
573.177	43932.17
573.376	44118.54
573.574	43414.04
573.772	43672.08
573.971	43217.43
574.169	43051.55
574.367	42863.13
574.565	43319.83
574.763	42830.37
574.962	42975.77
575.16	42598.94
575.358	42672.67
575.556	42738.21
575.754	42791.45
575.952	42263.08
576.151	42349.09
576.349	41882.16
576.547	42230.31
576.745	41796.14
576.943	42175.02
577.141	41749.04
577.339	42035.75
577.537	41476.66
577.735	41677.36
577.933	41099.83
578.131	41787.95
578.329	41161.27
578.527	40997.43
578.725	41208.37
578.923	41077.3
579.121	40925.75
579.319	40991.29
579.516	41308.72
579.714	40567.36
579.912	40546.88
580.11	40364.61
580.308	40700.48
580.506	40309.32
580.704	39565.9
580.901	40090.18
581.099	40417.86
581.297	39924.3
581.495	39844.43
581.692	39963.21
581.89	39776.84
582.088	40143.43
582.285	39432.78
582.483	39584.33
582.681	39496.27
582.878	39453.26
583.076	38744.67
583.274	39174.74
583.471	38564.45
583.669	38810.2
583.866	38552.16
584.064	38693.47
584.262	38390.37
584.459	38738.52
584.657	38373.99
584.854	38535.77
585.052	37569.13
585.249	38156.9
585.447	37917.29
585.644	37825.13
585.841	37988.97
586.039	38040.17
586.236	37530.22
586.434	37370.48
586.631	37356.14
586.828	37358.19
587.026	37255.79
587.223	37055.09
587.42	36625.02
587.618	36831.86
587.815	36518.53
588.012	36754.04
588.21	36551.29
588.407	36797.05
588.604	36252.29
588.801	36153.99
588.999	35861.13
589.196	36217.47
589.393	36133.51
589.59	35883.66
589.787	35824.26
589.984	35488.4
590.182	35084.95
590.379	35377.81
590.576	35312.27
590.773	35115.67
590.97	35058.32
591.167	35373.71
591.364	35152.53
591.561	35052.18
591.758	34663.07
591.955	34861.72
592.152	34828.95
592.349	34396.83
592.546	34618.01
592.743	34341.53
592.94	33925.8
593.137	34493.08
593.334	34335.39
593.531	33688.23
593.727	34316.96
593.924	34040.48
594.121	33284.78
594.318	33632.94
594.515	32834.23
594.712	33794.73
594.908	33116.85
595.105	33510.06
595.302	33055.41
595.499	33309.36
595.696	32840.37
595.892	32522.94
596.089	33069.75
596.286	32873.14
596.482	32842.42
596.679	32574.14
596.876	32676.54
597.072	32295.61
597.269	32400.06
597.466	32178.88
597.662	32068.29
597.859	32049.86
598.055	31931.08
598.252	31937.22
598.448	31742.66
598.645	31486.67
598.841	31390.41
599.038	31357.64
599.234	31501
599.431	30823.12
599.627	31236.81
599.824	31212.24
600.02	31027.92
600.217	30771.93
600.413	31093.46
600.609	30554.84
600.806	30651.09
601.002	30397.15
601.198	30399.19
601.395	30474.97
601.591	30173.92
601.787	30388.95
601.984	30108.38
602.18	30298.84
602.376	29995.74
602.572	29756.13
602.769	29688.55
602.965	29295.34
603.161	29719.27
603.357	29377.26
603.553	29260.52
603.75	29510.38
603.946	28832.5
604.142	29106.93
604.338	28736.24
604.534	29326.06
604.73	28846.83
604.926	28539.64
605.122	28951.28
605.318	28795.64
605.514	28367.61
605.71	28443.38
605.906	28443.38
606.102	28257.02
606.298	28052.22
606.494	28240.64
606.69	28132.09
606.886	28472.06
607.082	27872
607.278	27898.62
607.474	27552.52
607.67	28214.01
607.866	27429.64
608.062	28228.35
608.257	27566.85
608.453	27398.92
608.649	27380.49
608.845	27099.92
609.041	26964.75
609.236	27294.47
609.432	27147.02
609.628	27048.72
609.824	27015.95
610.019	26829.59
610.215	27050.77
610.411	27061.01
610.606	26723.09
610.802	27122.44
610.998	26716.95
611.193	26929.94
611.389	26565.4
611.584	26489.62
611.78	26317.59
611.976	26354.46
612.171	26632.98
612.367	26104.6
612.562	25887.52
612.758	25862.94
612.953	25889.57
613.149	26444.57
613.344	26186.52
613.539	26284.83
613.735	25989.92
613.93	26110.75
614.126	25574.18
614.321	26149.66
614.517	25912.1
614.712	25811.74
614.907	25484.07
615.103	25731.87
615.298	25762.59
615.493	25645.86
615.688	25266.99
615.884	25647.91
616.079	25355.05
616.274	25398.06
616.47	25400.1
616.665	25180.97
616.86	24945.45
617.055	24914.73
617.25	25223.98
617.445	25135.92
617.641	24675.12
617.836	25301.8
618.031	24967.98
618.226	24845.1
618.421	24744.75
618.616	24787.76
618.811	24314.68
619.006	24634.16
619.201	24103.74
619.396	24435.51
619.591	23667.52
619.786	24238.9
619.981	24068.92
620.176	24015.68
620.371	23737.15
620.566	23845.69
620.761	23626.56
620.956	23696.19
621.151	23262.02
621.346	23233.35
621.541	22827.85
621.735	23513.92
621.93	22614.87
622.125	22866.77
622.32	22399.83
622.515	22944.59
622.709	22465.36
622.904	22424.4
623.099	22143.83
623.294	22403.92
623.488	22127.45
623.683	22096.73
623.878	21711.71
624.072	21773.15
624.267	21668.7
624.462	21570.4
624.656	21218.15
624.851	21238.63
625.046	21216.1
625.24	21042.03
625.435	20796.27
625.629	20996.97
625.824	20665.2
626.018	20560.75
626.213	20093.82
626.407	20679.54
626.602	20355.96
626.796	20083.58
626.991	19932.03
627.185	20015.99
627.38	19899.26
627.574	19755.9
627.768	19618.69
627.963	19377.03
628.157	19205
628.352	19430.27
628.546	19086.22
628.74	19450.75
628.935	19037.06
629.129	18926.47
629.323	18641.81
629.517	18592.65
629.712	18695.05
629.906	18899.85
630.1	18408.34
630.294	18273.17
630.489	18357.14
630.683	18293.65
630.877	18017.18
631.071	17961.88
631.265	18002.84
631.459	17525.66
631.653	17621.92
631.848	17458.08
632.042	17443.74
632.236	17689.5
632.43	17431.46
632.624	17292.19
632.818	17157.03
633.012	16985
633.206	16868.27
633.4	17038.25
633.594	16681.9
633.788	16714.67
633.982	16556.97
634.176	16808.87
634.369	16430
634.563	16477.1
634.757	16219.06
634.951	16241.59
635.145	16217.01
635.339	16014.26
635.533	15784.89
635.726	15920.06
635.92	15678.4
636.114	15690.68
636.308	15713.21
636.501	15672.25
636.695	15557.57
636.889	15264.71
637.083	15295.43
637.276	15285.19
637.47	15217.6
637.664	15070.15
637.857	15197.12
638.051	14857.16
638.244	14883.78
638.438	14945.22
638.632	14793.67
638.825	14611.4
639.019	14490.57
639.212	14642.12
639.406	14504.91
639.599	14343.12
639.793	14236.63
639.986	13978.58
640.18	14396.37
640.373	13956.05
640.567	13925.33
640.76	14070.74
640.954	13650.91
641.147	13874.13
641.34	13511.64
641.534	13583.32
641.727	13509.6
641.92	13458.4
642.114	13472.73
642.307	13300.7
642.5	13206.5
642.694	12919.78
642.887	12907.49
643.08	12927.97
643.273	12946.41
643.467	12919.78
643.66	12917.73
643.853	12876.77
644.046	12633.07
644.239	12532.72
644.432	12475.37
644.626	12205.04
644.819	12424.17
645.012	12387.31
645.205	12387.31
645.398	12112.88
645.591	12057.59
645.784	12127.22
645.977	11834.36
646.17	11922.42
646.363	11809.78
646.556	11738.1
646.749	11848.69
646.942	11504.64
647.135	11676.66
647.328	11537.4
647.521	11363.33
647.714	11299.84
647.907	11510.78
648.099	11418.62
648.292	11414.52
648.485	11027.46
648.678	10988.55
648.871	11002.88
649.064	11103.23
649.256	11103.23
649.449	10953.73
649.642	10650.63
649.835	10750.98
650.027	10456.08
650.22	10724.36
650.413	10673.16
650.605	10513.42
650.798	10664.97
650.991	10347.53
651.183	10345.48
651.376	10456.08
651.568	10431.5
651.761	10238.99
651.954	10279.95
652.146	10390.54
652.339	10159.12
652.531	10095.63
652.724	10032.15
652.916	9802.77
653.109	9917.46
653.301	9856.02
653.494	9733.14
653.686	9692.18
653.879	9847.83
654.071	9661.46
654.263	9552.92
654.456	9489.43
654.648	9780.25
654.84	9249.82
655.033	9341.98
655.225	9182.24
655.417	9206.81
655.61	9124.9
655.802	9317.4
655.994	9139.23
656.186	9176.09
656.379	8932.39
656.571	8844.32
656.763	8942.63
656.955	8797.22
657.148	8840.23
657.34	8873
657.532	8709.16
657.724	8725.54
657.916	8637.48
658.108	8717.35
658.3	8660.01
658.492	8719.4
658.684	8504.36
658.876	8500.26
659.068	8555.56
659.26	8250.41
659.452	8264.75
659.644	8242.22
659.836	8229.93
660.028	8174.64
660.22	8076.34
660.412	8137.77
660.604	7988.27
660.796	7914.55
660.988	8010.8
661.18	7773.24
661.372	7957.55
661.563	7777.33
661.755	7750.71
661.947	7670.84
662.139	7603.25
662.331	7715.89
662.522	7738.42
662.714	7570.49
662.906	7523.38
663.097	7570.49
663.289	7494.71
663.481	7513.14
663.673	7326.78
663.864	7164.99
664.056	7251
664.247	7242.81
664.439	6980.67
664.631	7281.72
664.822	7224.38
665.014	7089.21
665.205	7056.45
665.397	7083.07
665.588	7064.64
665.78	7035.97
665.971	7003.2
666.163	7124.03
666.354	6806.59
666.546	6835.27
666.737	6818.88
666.929	6939.71
667.12	6835.27
667.311	6616.13
667.503	6874.18
667.694	6628.42
667.885	6509.64
668.077	6696
668.268	6564.93
668.459	6644.81
668.651	6540.36
668.842	6638.66
669.033	6265.93
669.224	6468.68
669.416	6435.91
669.607	6337.61
669.798	6374.47
669.989	6517.83
670.18	6353.99
670.371	6224.97
670.563	6202.44
670.754	6325.32
670.945	6138.96
671.136	6149.2
671.327	6108.24
671.518	5962.83
671.709	6067.28
671.9	6214.73
672.091	6128.72
672.282	6046.8
672.473	5987.41
672.664	6073.42
672.855	5909.58
673.046	5805.14
673.237	5991.5
673.428	5796.95
673.619	5817.43
673.809	5698.64
674	5942.35
674.191	5520.47
674.382	5794.9
674.573	5790.8
674.764	5620.82
674.954	5788.75
675.145	5770.32
675.336	5698.64
675.527	5567.57
675.717	5706.84
675.908	5612.63
676.099	5792.85
676.289	5667.92
676.48	5512.28
676.671	5426.26
676.861	5600.34
677.052	5581.91
677.243	5420.12
677.433	5346.39
677.624	5428.31
677.814	5407.83
678.005	5452.89
678.195	5330.01
678.386	5327.96
678.576	5227.61
678.767	5418.07
678.957	5239.9
679.148	5256.28
679.338	5385.3
679.529	5237.85
679.719	5209.18
679.909	5338.2
680.1	5213.28
680.29	5364.82
680.481	5192.8
680.671	5307.48
680.861	5186.65
681.052	5069.92
681.242	5086.3
681.432	5237.85
681.622	4961.37
681.813	4967.52
682.003	4949.09
682.193	5035.1
682.383	5147.74
682.573	5096.54
682.764	5035.1
682.954	5004.38
683.144	5006.43
683.334	5086.3
683.524	5043.29
683.714	5026.91
683.904	4932.7
684.094	5028.96
684.284	4934.75
684.474	4912.22
684.664	4983.9
684.854	4756.58
685.044	4881.5
685.234	4742.24
685.424	4838.5
685.614	4775.01
685.804	4742.24
685.994	4623.46
686.184	4893.79
686.374	4840.54
686.564	4752.48
686.753	4752.48
686.943	4650.08
687.133	4629.6
687.323	4662.37
687.513	4625.51
687.702	4369.51
687.892	4605.03
688.082	4424.81
688.272	4564.07
688.461	4342.89
688.651	4553.83
688.841	4525.16
689.03	4437.09
689.22	4303.98
689.41	4361.32
689.599	4445.29
689.789	4451.43
689.979	4361.32
690.168	4338.79
690.358	4389.99
690.547	4277.35
690.737	4222.06
690.926	4189.29
691.116	4211.82
691.305	4299.88
691.495	4050.03
691.684	4105.32
691.874	4160.62
692.063	4125.8
692.252	4090.99
692.442	4230.25
692.631	4078.7
692.82	4002.93
693.01	4142.19
693.199	4154.48
693.388	4002.93
693.578	4019.31
693.767	4058.22
693.956	4037.74
694.146	3826.8
694.335	3947.63
694.524	3921.01
694.713	3918.96
694.902	4007.02
695.092	3830.9
695.281	3660.91
695.47	3845.23
695.659	3853.42
695.848	3839.09
696.037	3884.14
696.226	3892.34
696.415	3794.03
696.604	3800.18
696.793	3679.35
696.982	3802.22
697.171	3685.49
697.36	3751.03
697.549	3650.67
697.738	3746.93
697.927	3626.1
698.116	3859.57
698.305	3812.46
698.494	3689.59
698.683	3728.5
698.872	3763.31
699.061	3722.35
699.25	3601.52
699.438	3675.25
699.627	3703.92
699.816	3529.84
700.005	3595.38
700.193	3466.36
700.382	3640.44
700.571	3572.85
700.76	3712.11
700.948	3589.24
701.137	3476.6
701.326	3601.52
701.514	3484.79
701.703	3538.04
701.892	3509.37
702.08	3398.77
702.269	3568.76
702.457	3443.83
702.646	3570.8
702.834	3425.4
703.023	3454.07
703.212	3425.4
703.4	3468.41
703.589	3402.87
703.777	3419.25
703.965	3349.62
704.154	3337.34
704.342	3370.1
704.531	3372.15
704.719	3345.53
704.907	3257.46
705.096	3337.34
705.284	3312.76
705.472	3347.58
705.661	3286.14
705.849	3370.1
706.037	3400.82
706.226	3247.23
706.414	3396.73
706.602	3497.08
706.79	3267.7
706.979	3349.62
707.167	3269.75
707.355	3183.74
707.543	3294.33
707.731	3318.9
707.919	3292.28
708.107	3165.31
708.296	3187.83
708.484	3312.76
708.672	3386.49
708.86	3189.88
709.048	3261.56
709.236	3073.15
709.424	3185.79
709.612	3224.7
709.8	3159.16
709.988	3142.78
710.176	3173.5
710.364	3099.77
710.551	3142.78
710.739	3030.14
710.927	3206.27
711.115	3110.01
711.303	3048.57
711.491	3062.91
711.679	3060.86
711.866	3107.96
712.054	3232.89
712.242	3044.48
712.43	3189.88
712.617	3083.39
712.805	3064.96
712.993	3058.81
713.181	3034.24
713.368	2966.65
713.556	3081.34
713.744	2858.11
713.931	3161.21
714.119	3155.07
714.306	3013.76
714.494	3013.76
714.682	3056.76
714.869	2878.59
715.057	3044.48
715.244	2966.65
715.432	3026.04
715.619	2995.32
715.807	2917.5
715.994	3021.95
716.182	3005.56
716.369	2917.5
716.556	3077.24
716.744	2903.17
716.931	2878.59
717.119	2978.94
717.306	2854.02
717.493	2944.13
717.681	2866.3
717.868	2868.35
718.055	2835.58
718.242	2976.89
718.43	2872.45
718.617	2813.06
718.804	2845.82
718.991	2811.01
719.179	2817.15
719.366	2856.06
719.553	2958.46
719.74	2792.58
719.927	2808.96
720.114	2868.35
720.301	2833.54
720.488	2731.14
720.676	2780.29
720.863	2686.08
721.05	2831.49
721.237	2753.66
721.424	2878.59
721.611	2765.95
721.798	2706.56
721.985	2657.41
722.172	2651.27
722.358	2630.79
722.545	2612.35
722.732	2790.53
722.919	2702.47
723.106	2606.21
723.293	2688.13
723.48	2583.68
723.667	2585.73
723.853	2604.16
724.04	2681.99
724.227	2638.98
724.414	2653.31
724.6	2714.75
724.787	2542.72
724.974	2624.64
725.161	2583.68
725.347	2485.38
725.534	2677.89
725.72	2712.71
725.907	2612.35
726.094	2563.2
726.28	2684.03
726.467	2679.94
726.653	2581.64
726.84	2602.11
727.027	2677.89
727.213	2604.16
727.4	2575.49
727.586	2595.97
727.773	2421.89
727.959	2497.67
728.145	2526.34
728.332	2587.78
728.518	2481.28
728.705	2636.93
728.891	2534.53
729.077	2456.71
729.264	2432.13
729.45	2536.58
729.636	2485.38
729.823	2524.29
730.009	2473.09
730.195	2524.29
730.382	2544.77
730.568	2401.41
730.754	2579.59
730.94	2561.16
731.126	2452.61
731.313	2491.52
731.499	2387.08
731.685	2458.76
731.871	2411.65
732.057	2530.44
732.243	2505.86
732.429	2493.57
732.615	2452.61
732.801	2475.14
732.987	2456.71
733.173	2499.72
733.359	2522.24
733.545	2352.26
733.731	2327.69
733.917	2440.33
734.103	2489.48
734.289	2432.13
734.475	2395.27
734.661	2417.8
734.847	2317.45
735.033	2274.44
735.219	2299.02
735.404	2382.98
735.59	2399.37
735.776	2299.02
735.962	2387.08
736.148	2337.93
736.333	2417.8
736.519	2288.78
736.705	2350.21
736.89	2278.54
737.076	2393.22
737.262	2260.1
737.447	2350.21
737.633	2268.3
737.819	2219.14
738.004	2303.11
738.19	2303.11
738.375	2196.62
738.561	2262.15
738.747	2301.06
738.932	2235.53
739.118	2215.05
739.303	2233.48
739.489	2210.95
739.674	2092.17
739.859	2215.05
740.045	2239.62
740.23	2163.85
740.416	2094.22
740.601	2274.44
740.786	2040.97
740.972	2034.83
741.157	2227.34
741.342	2071.69
741.528	2106.51
741.713	2065.55
741.898	2049.16
742.084	2100.36
742.269	2053.26
742.454	2065.55
742.639	2055.31
742.824	1963.15
743.01	2120.84
743.195	2063.5
743.38	2032.78
743.565	2065.55
743.75	2063.5
743.935	1973.39
744.12	1981.58
744.305	1940.62
744.49	1957
744.675	1950.86
744.86	1930.38
745.045	1916.05
745.23	1952.91
745.415	1942.67
745.6	1891.47
745.785	1907.85
745.97	1938.57
746.155	1793.17
746.34	1920.14
746.525	1924.24
746.71	1940.62
746.895	1809.55
747.079	1846.41
747.264	1764.5
747.449	1805.46
747.634	1709.2
747.819	1717.39
748.003	1787.02
748.188	1803.41
748.373	1803.41
748.557	1768.59
748.742	1764.5
748.927	1721.49
749.111	1733.78
749.296	1660.05
749.481	1799.31
749.665	1748.11
749.85	1541.27
750.034	1694.86
750.219	1709.2
750.404	1608.85
750.588	1670.29
750.773	1625.23
750.957	1526.93
751.141	1608.85
751.326	1524.88
751.51	1563.79
751.695	1496.21
751.879	1453.2
752.064	1600.66
752.248	1598.61
752.432	1553.55
752.617	1578.13
752.801	1475.73
752.985	1553.55
753.17	1410.2
753.354	1504.4
753.538	1473.68
753.722	1473.68
753.907	1483.92
754.091	1354.9
754.275	1359
754.459	1416.34
754.643	1402.01
754.828	1391.77
755.012	1297.56
755.196	1363.09
755.38	1338.52
755.564	1291.41
755.748	1348.76
755.932	1322.13
756.116	1270.94
756.3	1213.59
756.484	1416.34
756.668	1264.79
756.852	1244.31
757.036	1330.33
757.22	1248.41
757.404	1264.79
757.588	1158.3
757.772	1217.69
757.956	1168.54
758.14	1236.12
758.323	1103
758.507	1184.92
758.691	1184.92
758.875	1133.72
759.059	1203.35
759.242	1096.86
759.426	1158.3
759.61	1121.43
759.794	1133.72
759.977	1055.9
760.161	1174.68
760.345	1109.15
760.528	1168.54
760.712	1148.06
760.895	1131.67
761.079	1129.63
761.263	996.51
761.446	1031.32
761.63	1121.43
761.813	1156.25
761.997	1059.99
762.18	1072.28
762.364	1117.34
762.547	935.07
762.731	1000.6
762.914	1051.8
763.098	992.41
763.281	1027.23
763.464	1016.99
763.648	1037.47
763.831	990.36
764.015	1057.95
764.198	1025.18
764.381	1066.14
764.564	937.12
764.748	1047.71
764.931	965.79
765.114	1031.32
765.297	957.6
765.481	969.88
765.664	1008.8
765.847	955.55
766.03	953.5
766.213	924.83
766.397	912.54
766.58	906.4
766.763	990.36
766.946	953.5
767.129	943.26
767.312	963.74
767.495	951.45
767.678	939.16
767.861	844.96
768.044	883.87
768.227	875.68
768.41	840.86
768.593	877.73
768.776	930.97
768.959	847.01
769.142	847.01
769.324	892.06
769.507	855.2
769.69	857.25
769.873	824.48
770.056	834.72
770.239	830.62
770.421	873.63
770.604	875.68
770.787	804
770.97	918.68
771.152	814.24
771.335	826.53
771.518	791.71
771.7	857.25
771.883	916.64
772.066	863.39
772.248	885.92
772.431	849.05
772.613	789.66
772.796	793.76
772.978	855.2
773.161	777.37
773.343	781.47
773.526	724.13
773.708	793.76
773.891	779.42
774.073	814.24
774.256	726.18
774.438	779.42
774.621	779.42
774.803	824.48
774.985	701.6
775.168	824.48
775.35	732.32
775.532	760.99
775.715	662.69
775.897	754.85
776.079	705.7
776.261	738.46
776.444	658.59
776.626	593.06
776.808	683.17
776.99	728.22
777.173	652.45
777.355	656.54
777.537	687.26
777.719	703.65
777.901	666.78
778.083	648.35
778.265	591.01
778.447	660.64
778.629	595.11
778.811	609.44
778.993	646.3
779.175	591.01
779.357	591.01
779.539	615.59
779.721	603.3
779.903	619.68
780.085	584.87
780.267	613.54
780.449	652.45
780.631	550.05
780.812	552.1
780.994	576.67
781.176	535.71
781.358	560.29
781.54	595.11
781.721	627.87
781.903	521.38
782.085	476.32
782.267	490.66
782.448	531.62
782.63	527.52
782.812	511.14
782.993	529.57
783.175	466.08
783.357	447.65
783.538	478.37
783.72	421.03
783.901	513.19
784.083	500.9
784.264	507.04
784.446	425.12
784.627	439.46
784.809	521.38
784.99	431.27
785.172	455.84
785.353	443.56
785.535	441.51
785.716	484.52
785.897	502.95
786.079	480.42
786.26	464.04
786.441	486.56
786.623	437.41
786.804	386.21
786.985	472.23
787.167	404.64
787.348	367.78
787.529	402.6
787.71	414.88
787.891	466.08
788.073	427.17
788.254	390.31
788.435	412.84
788.616	373.92
788.797	365.73
788.978	349.35
789.159	314.53
789.34	502.95
789.522	371.88
789.703	466.08
789.884	351.4
790.065	324.77
790.246	302.25
790.427	330.92
790.607	402.6
790.788	378.02
790.969	380.07
791.15	339.11
791.331	382.12
791.512	337.06
791.693	292.01
791.874	353.45
792.054	398.5
792.235	392.36
792.416	349.35
792.597	322.73
792.778	330.92
792.958	298.15
793.139	316.58
793.32	337.06
793.5	267.43
793.681	351.4
793.862	308.39
794.042	271.53
794.223	279.72
794.404	265.38
794.584	335.01
794.765	304.29
794.945	246.95
795.126	337.06
795.306	259.24
795.487	253.09
795.667	332.97
795.848	335.01
796.028	240.81
796.209	269.48
796.389	265.38
796.57	224.42
796.75	234.66
796.93	220.33
797.111	318.63
797.291	285.86
797.471	375.97
797.652	222.38
797.832	236.71
798.012	287.91
798.192	210.09
798.373	230.57
798.553	236.71
798.733	308.39
798.913	181.42
799.093	197.8
799.274	263.33
799.454	265.38
799.634	267.43
799.814	185.51
799.994	205.99
800.174	236.71
800.354	269.48
800.534	263.33
800.714	279.72
800.894	210.09
801.074	203.94
801.254	232.62
801.434	224.42
801.614	312.49
801.794	171.18
801.974	566.43
802.154	212.14
802.334	242.85
802.514	283.81
802.693	199.85
802.873	185.51
803.053	343.21
803.233	228.52
803.413	224.42
803.592	156.84
803.772	158.89
803.952	289.96
804.131	228.52
804.311	289.96
804.491	242.85
804.67	271.53
804.85	162.98
805.03	177.32
805.209	249
805.389	244.9
805.568	142.5
805.748	214.18
805.928	185.51
806.107	191.66
806.287	205.99
806.466	187.56
806.646	140.46
806.825	122.02
807.004	201.9
807.184	208.04
807.363	294.05
807.543	201.9
807.722	175.27
807.901	119.98
808.081	251.05
808.26	152.74
808.439	185.51
808.619	193.7
808.798	158.89
808.977	205.99
809.156	195.75
809.336	150.7
809.515	191.66
809.694	136.36
809.873	230.57
810.052	187.56
810.231	191.66
810.411	210.09
810.59	251.05
810.769	175.27
810.948	244.9
811.127	81.07
811.306	142.5
811.485	56.49
811.664	197.8
811.843	154.79
812.022	183.46
812.201	236.71
812.38	167.08
812.559	87.21
812.737	220.33
812.916	119.98
813.095	187.56
813.274	165.03
813.453	179.37
813.632	193.7
813.811	160.94
813.989	56.49
814.168	132.26
814.347	156.84
814.526	177.32
814.704	124.07
814.883	150.7
815.062	128.17
815.24	189.61
815.419	126.12
815.598	160.94
815.776	183.46
815.955	162.98
816.133	122.02
816.312	124.07
816.49	97.45
816.669	173.22
816.847	187.56
817.026	189.61
817.204	156.84
817.383	160.94
817.561	134.31
817.74	89.26
817.918	175.27
818.097	115.88
818.275	132.26
818.453	128.17
818.632	132.26
818.81	87.21
818.988	107.69
819.167	107.69
819.345	79.02
819.523	117.93
819.701	101.55
819.879	175.27
820.058	64.68
820.236	142.5
820.414	50.35
820.592	171.18
820.77	167.08
820.948	150.7
821.127	119.98
821.305	101.55
821.483	109.74
821.661	158.89
821.839	140.46
822.017	107.69
822.195	74.92
822.373	115.88
822.551	44.2
822.729	107.69
822.907	79.02
823.085	134.31
823.262	115.88
823.44	154.79
823.618	38.06
823.796	105.64
823.974	89.26
824.152	79.02
824.329	132.26
824.507	38.06
824.685	111.78
824.863	124.07
825.04	105.64
825.218	81.07
825.396	58.54
825.574	144.55
825.751	58.54
825.929	103.59
826.107	68.78
826.284	46.25
826.462	105.64
826.639	95.4
826.817	54.44
826.994	119.98
827.172	15.53
827.349	144.55
827.527	89.26
827.704	107.69
827.882	48.3
828.059	93.35
828.237	50.35
828.414	95.4
828.591	107.69
828.769	79.02
828.946	99.5
829.124	11.43
829.301	81.07
829.478	85.16
829.655	97.45
829.833	66.73
830.01	64.68
830.187	60.59
830.364	40.11
830.542	115.88
830.719	23.72
830.896	64.68
831.073	83.11
831.25	91.31
831.427	66.73
831.604	105.64
831.782	60.59
831.959	89.26
832.136	25.77
832.313	27.82
832.49	113.83
832.667	107.69
832.844	91.31
833.021	105.64
833.198	72.87
833.374	130.22
833.551	85.16
833.728	136.36
833.905	105.64
834.082	31.91
834.259	68.78
834.436	85.16
834.612	21.67
834.789	99.5
834.966	66.73
835.143	58.54
835.319	33.96
835.496	54.44
835.673	68.78
835.85	93.35
836.026	124.07
836.203	66.73
836.38	54.44
836.556	101.55
836.733	95.4
836.909	46.25
837.086	52.39
837.262	105.64
837.439	11.43
837.616	81.07
837.792	81.07
837.968	158.89
838.145	7.34
838.321	-41.81
838.498	68.78
838.674	68.78
838.851	42.15
839.027	7.34
839.203	13.48
839.38	89.26
839.556	31.91
839.732	74.92
839.909	62.63
840.085	115.88
840.261	17.58
840.437	-21.33
840.614	58.54
840.79	48.3
840.966	44.2
841.142	7.34
841.318	38.06
841.494	50.35
841.671	79.02
841.847	64.68
842.023	58.54
842.199	13.48
842.375	50.35
842.551	-21.33
842.727	3.24
842.903	68.78
843.079	74.92
843.255	93.35
843.431	15.53
843.607	44.2
843.783	25.77
843.959	58.54
844.134	38.06
844.31	25.77
844.486	46.25
844.662	48.3
844.838	-9.05
845.013	93.35
845.189	29.87
845.365	62.63
845.541	76.97
845.716	52.39
845.892	58.54
846.068	44.2
846.244	25.77
846.419	11.43
846.595	15.53
846.77	40.11
846.946	40.11
847.122	89.26
847.297	46.25
847.473	89.26
847.648	5.29
847.824	36.01
847.999	25.77
848.175	-29.52
848.35	72.87
848.526	83.11
848.701	29.87
848.876	42.15
849.052	56.49
849.227	-43.86
849.403	-7
849.578	17.58
849.753	15.53
849.929	152.74
850.104	21.67
850.279	76.97
850.454	3.24
850.63	79.02
850.805	7.34
850.98	89.26
851.155	-21.33
851.33	87.21
851.505	-11.09
851.681	21.67
851.856	36.01
852.031	81.07
852.206	33.96
852.381	5.29
852.556	54.44
852.731	19.63
852.906	5.29
853.081	58.54
853.256	17.58
853.431	40.11
853.606	31.91
853.781	107.69
853.956	7.34
854.131	21.67
854.305	76.97
854.48	130.22
854.655	44.2
854.83	1.19
855.005	-19.29
855.18	79.02
855.354	58.54
855.529	52.39
855.704	-15.19
855.879	5.29
856.053	40.11
856.228	23.72
856.403	-39.76
856.577	25.77
856.752	33.96
856.926	62.63
857.101	-33.62
857.276	58.54
857.45	-13.14
857.625	-9.05
857.799	-50
857.974	15.53
858.148	46.25
858.323	60.59
858.497	93.35
858.672	-23.38
858.846	44.2
859.02	50.35
859.195	-15.19
859.369	5.29
859.543	111.78
859.718	31.91
859.892	62.63
860.066	-13.14
860.241	56.49
860.415	91.31
860.589	68.78
860.763	70.83
860.938	25.77
861.112	7.34
861.286	27.82
861.46	42.15
861.634	79.02
861.808	68.78
861.982	64.68
862.157	-31.57
862.331	21.67
862.505	-9.05
862.679	23.72
862.853	27.82
863.027	-9.05
863.201	79.02
863.375	-7
863.549	119.98
863.722	27.82
863.896	50.35
864.07	3.24
864.244	25.77
864.418	48.3
864.592	38.06
864.766	-43.86
864.939	21.67
865.113	-27.48
865.287	11.43
865.461	-15.19
865.634	52.39
865.808	48.3
865.982	-0.85
866.156	3.24
866.329	-37.72
866.503	-33.62
866.676	95.4
866.85	7.34
867.024	-37.72
867.197	13.48
867.371	60.59
867.544	-11.09
867.718	-4.95
867.891	11.43
868.065	19.63
868.238	44.2
868.412	70.83
868.585	36.01
868.759	31.91
868.932	-11.09
869.105	-45.91
869.279	19.63
869.452	-23.38
869.625	-35.67
869.799	-82.77
869.972	13.48
870.145	5.29
870.319	27.82
870.492	103.59
870.665	64.68
870.838	64.68
871.011	-33.62
871.185	42.15
871.358	62.63
871.531	38.06
871.704	-39.76
871.877	-45.91
872.05	36.01
872.223	62.63
872.396	25.77
872.569	44.2
872.742	-2.9
872.915	93.35
873.088	40.11
873.261	-25.43
873.434	3.24
873.607	11.43
873.78	15.53
873.953	23.72
874.126	21.67
874.299	54.44
874.471	-29.52
874.644	-35.67
874.817	42.15
874.99	-23.38
875.163	58.54
875.335	99.5
875.508	19.63
875.681	52.39
875.853	76.97
876.026	-78.68
876.199	-2.9
876.371	-37.72
876.544	-86.87
876.717	48.3
876.889	11.43
877.062	-0.85
877.234	-9.05
877.407	17.58
877.579	-72.53
877.752	113.83
877.924	25.77
878.097	56.49
878.269	-45.91
878.442	-68.44
878.614	56.49
878.786	1.19
878.959	68.78
879.131	-13.14
879.303	23.72
879.476	21.67
879.648	-23.38
879.82	83.11
879.993	-21.33
880.165	21.67
880.337	-56.15
880.509	56.49
880.681	36.01
880.854	15.53
881.026	56.49
881.198	85.16
881.37	-0.85
881.542	-4.95
881.714	-56.15
881.886	19.63
882.058	87.21
882.23	5.29
882.402	-13.14
882.574	7.34
882.746	48.3
882.918	-45.91
883.09	64.68
883.262	-0.85
883.434	19.63
883.606	-13.14
883.778	-25.43
883.95	44.2
884.122	64.68
884.293	60.59
884.465	31.91
884.637	-31.57
884.809	13.48
884.98	38.06
885.152	3.24
885.324	119.98
885.496	-43.86
885.667	42.15
885.839	-15.19
886.011	91.31
886.182	46.25
886.354	-2.9
886.525	11.43
886.697	40.11
886.869	-11.09
887.04	50.35
887.212	15.53
887.383	113.83
887.555	11.43
887.726	72.87
887.897	-11.09
888.069	-62.29
888.24	-17.24
888.412	1.19
888.583	-37.72
888.754	-21.33
888.926	-11.09
889.097	-43.86
889.268	-0.85
889.44	27.82
889.611	23.72
889.782	-35.67
889.953	-7
890.125	89.26
890.296	-37.72
890.467	101.55
890.638	1.19
890.809	97.45
890.98	7.34
891.151	-23.38
891.323	31.91
891.494	-54.1
891.665	9.39
891.836	7.34
892.007	-39.76
892.178	-60.24
892.349	27.82
892.52	27.82
892.691	-17.24
892.862	-33.62
893.032	-2.9
893.203	-13.14
893.374	-15.19
893.545	62.63
893.716	-37.72
893.887	15.53
894.057	-4.95
894.228	58.54
894.399	-47.96
894.57	19.63
894.74	-70.48
894.911	11.43
895.082	-64.34
895.253	5.29
895.423	9.39
895.594	31.91
895.764	-31.57
895.935	-13.14
896.106	-29.52
896.276	-76.63
896.447	1.19
896.617	-31.57
896.788	58.54
896.958	42.15
897.129	5.29
897.299	-37.72
897.47	76.97
897.64	9.39
897.81	95.4
897.981	-33.62
898.151	-33.62
898.322	-45.91
898.492	79.02
898.662	-15.19
898.832	-4.95
899.003	-25.43
899.173	66.73
899.343	-41.81
899.513	15.53
