Data from USB4F104151__71__12-36-44-574.txt Node

Date: Fri Mar 14 12:36:44 EDT 2025
User: louis
Spectrometer: USB4F10415
Trigger mode: 4
Integration Time (sec): 2.000000E-2
Scans to average: 1
Electric dark correction enabled: true
Nonlinearity correction enabled: false
Boxcar width: 0
XAxis mode: Wavelengths
Number of Pixels in Spectrum: 3648
>>>>>Begin Spectral Data<<<<<
178.204	-78.68
178.424	-78.68
178.644	-78.68
178.864	-56.15
179.084	-90.96
179.304	-0.85
179.524	48.3
179.744	-19.29
179.964	17.58
180.184	-31.57
180.404	-21.33
180.624	-23.38
180.844	19.63
181.064	-31.57
181.283	13.48
181.503	13.48
181.723	15.53
181.943	1.19
182.163	58.54
182.383	-2.9
182.602	-0.85
182.822	54.44
183.042	60.59
183.262	5.29
183.482	50.35
183.701	25.77
183.921	31.91
184.141	3.24
184.361	89.26
184.58	25.77
184.8	-0.85
185.02	-2.9
185.239	52.39
185.459	-11.09
185.679	19.63
185.898	91.31
186.118	33.96
186.338	72.87
186.557	23.72
186.777	33.96
186.997	19.63
187.216	-4.95
187.436	60.59
187.655	19.63
187.875	15.53
188.095	11.43
188.314	-0.85
188.534	-2.9
188.753	11.43
188.973	66.73
189.192	-11.09
189.412	-47.96
189.631	99.5
189.851	15.53
190.07	64.68
190.29	-58.2
190.509	13.48
190.729	5.29
190.948	72.87
191.168	105.64
191.387	64.68
191.607	7.34
191.826	70.83
192.045	13.48
192.265	-9.05
192.484	-0.85
192.704	50.35
192.923	40.11
193.142	48.3
193.362	-2.9
193.581	58.54
193.8	52.39
194.02	-17.24
194.239	5.29
194.458	29.87
194.678	11.43
194.897	76.97
195.116	83.11
195.335	44.2
195.555	62.63
195.774	-37.72
195.993	17.58
196.212	1.19
196.432	83.11
196.651	44.2
196.87	50.35
197.089	103.59
197.308	-13.14
197.528	60.59
197.747	40.11
197.966	91.31
198.185	91.31
198.404	-21.33
198.623	44.2
198.842	62.63
199.062	54.44
199.281	23.72
199.5	89.26
199.719	107.69
199.938	-19.29
200.157	113.83
200.376	-41.81
200.595	91.31
200.814	62.63
201.033	42.15
201.252	11.43
201.471	132.26
201.69	58.54
201.909	-31.57
202.128	44.2
202.347	54.44
202.566	-4.95
202.785	115.88
203.004	29.87
203.223	31.91
203.442	56.49
203.661	-15.19
203.879	48.3
204.098	17.58
204.317	60.59
204.536	33.96
204.755	44.2
204.974	95.4
205.193	48.3
205.411	130.22
205.63	-37.72
205.849	-50
206.068	56.49
206.287	-37.72
206.505	40.11
206.724	85.16
206.943	9.39
207.162	68.78
207.381	124.07
207.599	62.63
207.818	-29.52
208.037	19.63
208.255	-54.1
208.474	21.67
208.693	27.82
208.911	33.96
209.13	19.63
209.349	58.54
209.567	42.15
209.786	9.39
210.005	79.02
210.223	103.59
210.442	-4.95
210.661	3.24
210.879	60.59
211.098	-9.05
211.316	46.25
211.535	66.73
211.753	29.87
211.972	-0.85
212.191	7.34
212.409	70.83
212.628	68.78
212.846	72.87
213.065	-4.95
213.283	87.21
213.502	27.82
213.72	31.91
213.938	29.87
214.157	48.3
214.375	27.82
214.594	-9.05
214.812	7.34
215.031	36.01
215.249	-39.76
215.467	50.35
215.686	68.78
215.904	72.87
216.122	46.25
216.341	66.73
216.559	31.91
216.778	87.21
216.996	105.64
217.214	-13.14
217.432	5.29
217.651	-15.19
217.869	19.63
218.087	81.07
218.306	13.48
218.524	54.44
218.742	60.59
218.96	33.96
219.179	113.83
219.397	40.11
219.615	79.02
219.833	134.31
220.051	62.63
220.27	25.77
220.488	54.44
220.706	9.39
220.924	36.01
221.142	3.24
221.36	5.29
221.578	85.16
221.796	1.19
222.015	64.68
222.233	40.11
222.451	33.96
222.669	29.87
222.887	7.34
223.105	-7
223.323	31.91
223.541	27.82
223.759	66.73
223.977	91.31
224.195	38.06
224.413	5.29
224.631	23.72
224.849	44.2
225.067	11.43
225.285	11.43
225.503	42.15
225.721	-7
225.939	33.96
226.157	54.44
226.375	85.16
226.592	5.29
226.81	48.3
227.028	-29.52
227.246	134.31
227.464	76.97
227.682	36.01
227.9	25.77
228.117	-37.72
228.335	23.72
228.553	-31.57
228.771	13.48
228.989	142.5
229.206	95.4
229.424	5.29
229.642	91.31
229.86	76.97
230.077	56.49
230.295	9.39
230.513	-35.67
230.731	25.77
230.948	36.01
231.166	93.35
231.384	42.15
231.601	42.15
231.819	70.83
232.037	44.2
232.254	11.43
232.472	109.74
232.689	85.16
232.907	31.91
233.125	29.87
233.342	23.72
233.56	17.58
233.777	64.68
233.995	-47.96
234.213	-2.9
234.43	95.4
234.648	-17.24
234.865	44.2
235.083	38.06
235.3	13.48
235.518	79.02
235.735	70.83
235.953	111.78
236.17	17.58
236.388	52.39
236.605	33.96
236.822	85.16
237.04	52.39
237.257	19.63
237.475	-66.39
237.692	109.74
237.909	23.72
238.127	115.88
238.344	74.92
238.562	17.58
238.779	-19.29
238.996	-21.33
239.214	42.15
239.431	33.96
239.648	-31.57
239.865	56.49
240.083	76.97
240.3	81.07
240.517	29.87
240.735	113.83
240.952	48.3
241.169	9.39
241.386	48.3
241.603	-4.95
241.821	1.19
242.038	95.4
242.255	93.35
242.472	-23.38
242.689	21.67
242.907	56.49
243.124	56.49
243.341	5.29
243.558	1.19
243.775	13.48
243.992	-2.9
244.209	-37.72
244.426	134.31
244.643	58.54
244.86	40.11
245.078	7.34
245.295	70.83
245.512	50.35
245.729	-58.2
245.946	62.63
246.163	70.83
246.38	97.45
246.597	33.96
246.814	74.92
247.031	50.35
247.248	31.91
247.464	76.97
247.681	54.44
247.898	1.19
248.115	11.43
248.332	13.48
248.549	52.39
248.766	29.87
248.983	101.55
249.2	111.78
249.417	23.72
249.633	-11.09
249.85	-19.29
250.067	46.25
250.284	23.72
250.501	72.87
250.717	113.83
250.934	46.25
251.151	36.01
251.368	66.73
251.585	81.07
251.801	-33.62
252.018	31.91
252.235	23.72
252.451	56.49
252.668	56.49
252.885	52.39
253.102	3.24
253.318	-0.85
253.535	-7
253.752	-9.05
253.968	19.63
254.185	19.63
254.401	17.58
254.618	97.45
254.835	38.06
255.051	81.07
255.268	31.91
255.484	103.59
255.701	-35.67
255.917	89.26
256.134	-21.33
256.351	38.06
256.567	5.29
256.784	56.49
257	25.77
257.217	142.5
257.433	13.48
257.65	54.44
257.866	83.11
258.082	31.91
258.299	5.29
258.515	60.59
258.732	52.39
258.948	81.07
259.165	33.96
259.381	50.35
259.597	50.35
259.814	130.22
260.03	46.25
260.246	83.11
260.463	-9.05
260.679	38.06
260.895	36.01
261.112	95.4
261.328	70.83
261.544	105.64
261.761	74.92
261.977	15.53
262.193	-7
262.409	36.01
262.626	40.11
262.842	7.34
263.058	1.19
263.274	81.07
263.49	19.63
263.707	85.16
263.923	56.49
264.139	64.68
264.355	97.45
264.571	89.26
264.787	27.82
265.004	33.96
265.22	25.77
265.436	144.55
265.652	54.44
265.868	85.16
266.084	29.87
266.3	29.87
266.516	15.53
266.732	-0.85
266.948	72.87
267.164	87.21
267.38	40.11
267.596	48.3
267.812	11.43
268.028	105.64
268.244	13.48
268.46	54.44
268.676	-9.05
268.892	70.83
269.108	74.92
269.324	11.43
269.54	21.67
269.756	85.16
269.972	-19.29
270.188	56.49
270.403	-0.85
270.619	-39.76
270.835	31.91
271.051	60.59
271.267	81.07
271.483	-15.19
271.698	85.16
271.914	93.35
272.13	66.73
272.346	46.25
272.562	-7
272.777	44.2
272.993	46.25
273.209	68.78
273.425	38.06
273.64	31.91
273.856	31.91
274.072	31.91
274.287	-64.34
274.503	15.53
274.719	66.73
274.934	122.02
275.15	56.49
275.366	60.59
275.581	21.67
275.797	50.35
276.012	9.39
276.228	122.02
276.444	19.63
276.659	76.97
276.875	38.06
277.09	11.43
277.306	7.34
277.521	33.96
277.737	13.48
277.952	64.68
278.168	91.31
278.383	99.5
278.599	7.34
278.814	99.5
279.03	60.59
279.245	99.5
279.461	1.19
279.676	-9.05
279.892	-29.52
280.107	-66.39
280.322	31.91
280.538	36.01
280.753	1.19
280.969	19.63
281.184	19.63
281.399	91.31
281.615	13.48
281.83	5.29
282.045	70.83
282.26	27.82
282.476	42.15
282.691	70.83
282.906	11.43
283.122	46.25
283.337	97.45
283.552	29.87
283.767	1.19
283.983	109.74
284.198	-23.38
284.413	46.25
284.628	19.63
284.843	91.31
285.058	13.48
285.274	7.34
285.489	-7
285.704	89.26
285.919	48.3
286.134	93.35
286.349	-31.57
286.564	3.24
286.779	68.78
286.995	27.82
287.21	17.58
287.425	29.87
287.64	29.87
287.855	7.34
288.07	-25.43
288.285	17.58
288.5	99.5
288.715	27.82
288.93	-33.62
289.145	31.91
289.36	36.01
289.575	72.87
289.79	93.35
290.004	74.92
290.219	54.44
290.434	66.73
290.649	-41.81
290.864	25.77
291.079	48.3
291.294	-0.85
291.509	58.54
291.724	9.39
291.938	42.15
292.153	58.54
292.368	99.5
292.583	29.87
292.798	48.3
293.012	68.78
293.227	60.59
293.442	62.63
293.657	46.25
293.871	72.87
294.086	21.67
294.301	85.16
294.516	50.35
294.73	1.19
294.945	72.87
295.16	50.35
295.374	40.11
295.589	130.22
295.804	56.49
296.018	95.4
296.233	5.29
296.447	105.64
296.662	48.3
296.877	31.91
297.091	97.45
297.306	66.73
297.52	31.91
297.735	107.69
297.949	31.91
298.164	115.88
298.378	91.31
298.593	29.87
298.807	13.48
299.022	97.45
299.236	44.2
299.451	-11.09
299.665	36.01
299.88	13.48
300.094	74.92
300.309	81.07
300.523	117.93
300.737	87.21
300.952	19.63
301.166	-11.09
301.381	-4.95
301.595	36.01
301.809	97.45
302.024	50.35
302.238	27.82
302.452	29.87
302.667	66.73
302.881	72.87
303.095	42.15
303.309	46.25
303.524	-21.33
303.738	48.3
303.952	79.02
304.166	87.21
304.381	17.58
304.595	31.91
304.809	7.34
305.023	66.73
305.237	60.59
305.452	66.73
305.666	62.63
305.88	122.02
306.094	46.25
306.308	66.73
306.522	76.97
306.736	19.63
306.95	54.44
307.164	64.68
307.379	3.24
307.593	72.87
307.807	56.49
308.021	95.4
308.235	81.07
308.449	31.91
308.663	31.91
308.877	134.31
309.091	76.97
309.305	56.49
309.519	9.39
309.733	66.73
309.947	-15.19
310.161	64.68
310.374	-17.24
310.588	62.63
310.802	50.35
311.016	-4.95
311.23	54.44
311.444	46.25
311.658	66.73
311.872	81.07
312.085	81.07
312.299	101.55
312.513	109.74
312.727	70.83
312.941	85.16
313.154	91.31
313.368	42.15
313.582	111.78
313.796	3.24
314.009	89.26
314.223	68.78
314.437	13.48
314.651	89.26
314.864	27.82
315.078	87.21
315.292	19.63
315.505	107.69
315.719	58.54
315.933	38.06
316.146	17.58
316.36	33.96
316.573	83.11
316.787	74.92
317.001	3.24
317.214	81.07
317.428	179.37
317.641	91.31
317.855	-2.9
318.068	74.92
318.282	107.69
318.495	33.96
318.709	76.97
318.922	-17.24
319.136	113.83
319.349	87.21
319.563	25.77
319.776	91.31
319.99	-39.76
320.203	62.63
320.417	52.39
320.63	74.92
320.843	3.24
321.057	89.26
321.27	48.3
321.483	42.15
321.697	124.07
321.91	40.11
322.124	160.94
322.337	25.77
322.55	62.63
322.763	1.19
322.977	103.59
323.19	113.83
323.403	117.93
323.617	87.21
323.83	66.73
324.043	54.44
324.256	46.25
324.469	-23.38
324.683	70.83
324.896	40.11
325.109	64.68
325.322	-23.38
325.535	103.59
325.748	117.93
325.962	99.5
326.175	101.55
326.388	38.06
326.601	29.87
326.814	76.97
327.027	48.3
327.24	93.35
327.453	-86.87
327.666	9.39
327.879	60.59
328.092	-9.05
328.305	76.97
328.518	72.87
328.731	36.01
328.944	85.16
329.157	83.11
329.37	79.02
329.583	25.77
329.796	62.63
330.009	19.63
330.222	46.25
330.435	83.11
330.648	40.11
330.861	23.72
331.073	70.83
331.286	56.49
331.499	107.69
331.712	66.73
331.925	76.97
332.138	17.58
332.35	58.54
332.563	79.02
332.776	25.77
332.989	87.21
333.202	-17.24
333.414	62.63
333.627	93.35
333.84	56.49
334.053	46.25
334.265	27.82
334.478	117.93
334.691	60.59
334.903	36.01
335.116	50.35
335.329	79.02
335.541	85.16
335.754	97.45
335.966	72.87
336.179	52.39
336.392	126.12
336.604	89.26
336.817	29.87
337.029	56.49
337.242	81.07
337.454	68.78
337.667	29.87
337.88	93.35
338.092	50.35
338.305	33.96
338.517	68.78
338.729	85.16
338.942	87.21
339.154	48.3
339.367	56.49
339.579	132.26
339.792	-21.33
340.004	76.97
340.217	68.78
340.429	89.26
340.641	97.45
340.854	42.15
341.066	72.87
341.278	150.7
341.491	115.88
341.703	66.73
341.915	64.68
342.128	83.11
342.34	81.07
342.552	36.01
342.764	27.82
342.977	83.11
343.189	89.26
343.401	46.25
343.613	-19.29
343.826	101.55
344.038	1.19
344.25	-15.19
344.462	72.87
344.674	23.72
344.886	64.68
345.099	132.26
345.311	107.69
345.523	70.83
345.735	52.39
345.947	115.88
346.159	33.96
346.371	87.21
346.583	97.45
346.795	36.01
347.007	-7
347.219	83.11
347.431	21.67
347.643	111.78
347.855	-2.9
348.067	66.73
348.279	134.31
348.491	42.15
348.703	31.91
348.915	44.2
349.127	54.44
349.339	27.82
349.551	76.97
349.763	68.78
349.975	42.15
350.187	60.59
350.399	126.12
350.61	93.35
350.822	83.11
351.034	68.78
351.246	87.21
351.458	85.16
351.669	99.5
351.881	48.3
352.093	76.97
352.305	-37.72
352.517	58.54
352.728	62.63
352.94	33.96
353.152	60.59
353.363	56.49
353.575	50.35
353.787	60.59
353.999	70.83
354.21	76.97
354.422	72.87
354.633	109.74
354.845	42.15
355.057	60.59
355.268	66.73
355.48	115.88
355.692	165.03
355.903	33.96
356.115	11.43
356.326	36.01
356.538	54.44
356.749	89.26
356.961	132.26
357.172	81.07
357.384	95.4
357.595	29.87
357.807	52.39
358.018	58.54
358.23	105.64
358.441	91.31
358.653	17.58
358.864	72.87
359.075	38.06
359.287	103.59
359.498	79.02
359.709	31.91
359.921	36.01
360.132	60.59
360.344	148.65
360.555	50.35
360.766	50.35
360.977	44.2
361.189	68.78
361.4	62.63
361.611	103.59
361.823	117.93
362.034	109.74
362.245	21.67
362.456	42.15
362.667	105.64
362.879	66.73
363.09	33.96
363.301	122.02
363.512	93.35
363.723	144.55
363.935	62.63
364.146	95.4
364.357	91.31
364.568	62.63
364.779	64.68
364.99	95.4
365.201	54.44
365.412	83.11
365.623	-33.62
365.834	64.68
366.045	60.59
366.256	89.26
366.467	89.26
366.678	74.92
366.889	17.58
367.1	107.69
367.311	99.5
367.522	72.87
367.733	81.07
367.944	46.25
368.155	21.67
368.366	56.49
368.577	124.07
368.788	138.41
368.999	56.49
369.209	109.74
369.42	85.16
369.631	115.88
369.842	42.15
370.053	109.74
370.264	68.78
370.474	17.58
370.685	5.29
370.896	50.35
371.107	126.12
371.317	23.72
371.528	87.21
371.739	107.69
371.95	146.6
372.16	115.88
372.371	50.35
372.582	66.73
372.792	46.25
373.003	62.63
373.214	19.63
373.424	140.46
373.635	25.77
373.846	46.25
374.056	42.15
374.267	81.07
374.477	42.15
374.688	29.87
374.898	13.48
375.109	33.96
375.319	85.16
375.53	103.59
375.74	46.25
375.951	25.77
376.161	60.59
376.372	76.97
376.582	87.21
376.793	103.59
377.003	9.39
377.214	122.02
377.424	130.22
377.635	72.87
377.845	56.49
378.055	99.5
378.266	36.01
378.476	5.29
378.686	46.25
378.897	117.93
379.107	50.35
379.317	103.59
379.528	42.15
379.738	54.44
379.948	87.21
380.158	19.63
380.369	50.35
380.579	79.02
380.789	169.13
380.999	64.68
381.21	99.5
381.42	76.97
381.63	31.91
381.84	72.87
382.05	23.72
382.261	132.26
382.471	128.17
382.681	33.96
382.891	128.17
383.101	74.92
383.311	83.11
383.521	74.92
383.731	23.72
383.941	40.11
384.151	103.59
384.361	56.49
384.571	5.29
384.781	66.73
384.991	36.01
385.201	105.64
385.411	115.88
385.621	136.36
385.831	146.6
386.041	79.02
386.251	99.5
386.461	169.13
386.671	72.87
386.881	70.83
387.091	93.35
387.301	33.96
387.511	140.46
387.72	113.83
387.93	93.35
388.14	83.11
388.35	42.15
388.56	46.25
388.769	52.39
388.979	40.11
389.189	95.4
389.399	42.15
389.609	146.6
389.818	195.75
390.028	38.06
390.238	148.65
390.447	11.43
390.657	15.53
390.867	76.97
391.076	76.97
391.286	134.31
391.496	126.12
391.705	42.15
391.915	140.46
392.125	132.26
392.334	99.5
392.544	150.7
392.753	109.74
392.963	15.53
393.172	79.02
393.382	97.45
393.591	132.26
393.801	66.73
394.01	83.11
394.22	56.49
394.429	105.64
394.639	183.46
394.848	70.83
395.058	25.77
395.267	56.49
395.477	162.98
395.686	136.36
395.895	93.35
396.105	81.07
396.314	154.79
396.524	111.78
396.733	60.59
396.942	109.74
397.152	158.89
397.361	156.84
397.57	152.74
397.78	40.11
397.989	181.42
398.198	179.37
398.407	130.22
398.617	165.03
398.826	152.74
399.035	81.07
399.244	68.78
399.453	158.89
399.663	138.41
399.872	142.5
400.081	91.31
400.29	148.65
400.499	144.55
400.708	189.61
400.917	138.41
401.127	152.74
401.336	193.7
401.545	173.22
401.754	167.08
401.963	220.33
402.172	85.16
402.381	177.32
402.59	89.26
402.799	171.18
403.008	210.09
403.217	156.84
403.426	195.75
403.635	154.79
403.844	181.42
404.053	205.99
404.262	144.55
404.471	255.14
404.68	130.22
404.888	199.85
405.097	171.18
405.306	195.75
405.515	255.14
405.724	265.38
405.933	275.62
406.142	236.71
406.35	298.15
406.559	253.09
406.768	255.14
406.977	355.49
407.185	294.05
407.394	300.2
407.603	308.39
407.812	324.77
408.02	339.11
408.229	369.83
408.438	298.15
408.646	324.77
408.855	322.73
409.064	367.78
409.272	330.92
409.481	410.79
409.69	371.88
409.898	449.7
410.107	343.21
410.315	435.36
410.524	474.28
410.733	492.71
410.941	414.88
411.15	464.04
411.358	562.34
411.567	631.97
411.775	470.18
411.984	570.53
412.192	541.86
412.401	654.5
412.609	713.89
412.818	584.87
413.026	629.92
413.234	740.51
413.443	701.6
413.651	748.7
413.86	736.42
414.068	787.61
414.276	834.72
414.485	830.62
414.693	869.53
414.901	992.41
415.11	904.35
415.318	1023.13
415.526	1041.56
415.734	1027.23
415.943	1035.42
416.151	1100.95
416.359	1039.51
416.567	1105.05
416.776	1244.31
416.984	1283.22
417.192	1391.77
417.4	1322.13
417.608	1295.51
417.817	1463.44
418.025	1414.29
418.233	1670.29
418.441	1508.5
418.649	1635.47
418.857	1727.63
419.065	1737.87
419.273	1713.3
419.481	1787.02
419.689	1836.17
419.897	2077.83
420.105	2118.79
420.313	2167.95
420.521	2079.88
420.729	2256.01
420.937	2417.8
421.145	2479.24
421.353	2591.88
421.561	2649.22
421.769	2700.42
421.977	2778.24
422.185	2743.42
422.393	2845.82
422.601	3099.77
422.809	3161.21
423.017	3183.74
423.224	3267.7
423.432	3433.59
423.64	3447.93
423.848	3677.3
424.056	3585.14
424.263	3892.34
424.471	3890.29
424.679	3964.01
424.887	4318.31
425.094	4271.21
425.302	4273.26
425.51	4498.53
425.718	4465.77
425.925	4703.33
426.133	4920.42
426.341	5117.02
426.548	5416.02
426.756	5293.15
426.964	5504.09
427.171	5672.02
427.379	5798.99
427.586	5958.74
427.794	6169.68
428.001	6444.1
428.209	6734.92
428.417	6612.04
428.624	7074.88
428.832	7150.65
429.039	7087.17
429.247	7169.09
429.454	7773.24
429.662	8322.09
429.869	7846.96
430.076	8199.21
430.284	8098.86
430.491	8514.6
430.699	8975.39
430.906	8928.29
431.114	9028.64
431.321	9378.84
431.528	9702.42
431.736	10142.74
431.943	10615.82
432.15	10443.79
432.358	10511.37
432.565	11031.55
432.772	10851.33
432.979	11461.63
433.187	11834.36
433.394	11811.83
433.601	12405.74
433.808	12905.45
434.016	12579.82
434.223	13251.55
434.43	14054.36
434.637	13710.3
434.844	14318.54
435.052	14887.88
435.259	14638.03
435.466	14797.77
435.673	14844.87
435.88	15786.94
436.087	16452.53
436.294	16536.49
436.501	16182.2
436.708	16497.58
436.915	17204.13
437.122	17724.32
437.329	17847.19
437.537	18488.21
437.743	18602.89
437.95	18373.52
438.157	19350.4
438.364	20071.29
438.571	19946.36
438.778	20177.78
438.985	22053.72
439.192	21171.05
439.399	21842.78
439.606	21326.69
439.813	22666.06
440.02	23919.42
440.227	23214.92
440.433	23184.2
440.64	24036.16
440.847	23933.76
441.054	24341.3
441.261	26077.98
441.467	25776.93
441.674	26721.04
441.881	27253.51
442.088	27323.15
442.294	27005.71
442.501	27489.03
442.708	28316.41
442.914	29367.02
443.121	30692.05
443.328	29823.72
443.534	31652.55
443.741	30939.86
443.948	30427.87
444.154	33168.05
444.361	32367.29
444.568	32764.6
444.774	32664.25
444.981	33424.04
445.187	34302.62
445.394	35844.74
445.6	35533.45
445.807	38480.48
446.013	36850.3
446.22	37493.36
446.426	39080.53
446.633	39156.31
446.839	40546.88
447.046	38718.04
447.252	41177.65
447.459	40829.5
447.665	40999.48
447.871	42787.36
448.078	44829.18
448.284	42916.38
448.491	43616.79
448.697	45179.39
448.903	45865.45
449.11	46432.74
449.316	45855.21
449.522	46547.43
449.728	47473.11
449.935	47962.57
450.141	47778.26
450.347	48806.34
450.553	47704.53
450.76	48206.28
450.966	49840.56
451.172	48912.83
451.378	50459.05
451.584	49138.11
451.791	50575.78
451.997	50448.81
452.203	51401.11
452.409	51243.42
452.615	51153.31
452.821	49181.12
453.027	48687.56
453.233	51206.56
453.44	49031.61
453.646	49635.77
453.852	50319.79
454.058	50997.66
454.264	49166.78
454.47	50457
454.676	49156.54
454.882	50950.56
455.088	46477.8
455.294	47319.51
455.5	47557.08
455.705	48513.48
455.911	46817.76
456.117	45613.55
456.323	45087.23
456.529	42879.52
456.735	44470.79
456.941	43710.99
457.147	42279.46
457.352	41585.2
457.558	40858.17
457.764	41126.46
457.97	40200.77
458.176	39510.61
458.381	39406.16
458.587	37448.3
458.793	37814.89
458.999	35728.01
459.204	38070.89
459.41	37030.52
459.616	34454.17
459.821	34984.6
460.027	34650.78
460.233	33774.25
460.438	32699.06
460.644	32979.64
460.85	30898.9
461.055	30909.14
461.261	30382.81
461.466	28330.75
461.672	27267.85
461.878	29547.24
462.083	27493.13
462.289	27077.39
462.494	26745.62
462.7	25219.88
462.905	24836.91
463.111	25725.73
463.316	25926.43
463.522	25262.89
463.727	25054
463.932	25275.18
464.138	25125.68
464.343	25152.3
464.549	24193.85
464.754	25058.09
464.959	25056.04
465.165	24533.81
465.37	23604.03
465.575	23182.15
465.781	23849.79
465.986	24189.75
466.191	22952.78
466.397	22817.61
466.602	21584.74
466.807	22455.12
467.012	22405.97
467.218	22512.47
467.423	22082.39
467.628	22154.07
467.833	23133
468.038	22074.2
468.244	21773.15
468.449	22621.01
468.654	21701.47
468.859	21859.17
469.064	21451.62
469.269	20839.28
469.474	21050.22
469.679	21125.99
469.885	20609.9
470.09	21013.35
470.295	20761.45
470.5	20405.11
470.705	20648.82
470.91	19909.5
471.115	19938.17
471.32	20145.02
471.525	19729.28
471.73	19581.82
471.935	19250.05
472.139	18639.76
472.344	18748.3
472.549	18844.56
472.754	18527.12
472.959	18273.17
473.164	17793.95
473.369	17738.65
473.574	18303.89
473.778	18031.51
473.983	18189.21
474.188	17769.37
474.393	16921.51
474.598	17402.79
474.802	16898.98
475.007	16737.2
475.212	16968.62
475.417	16202.68
475.621	16341.94
475.826	16149.43
476.031	15920.06
476.235	15643.58
476.44	15768.51
476.645	15772.6
476.849	15711.16
477.054	15512.51
477.259	15231.94
477.463	14982.09
477.668	14828.49
477.872	14937.03
478.077	14615.5
478.282	14320.59
478.486	14265.3
478.691	14367.7
478.895	14042.07
479.1	14066.64
479.304	14222.29
479.509	13810.65
479.713	13911
479.918	13437.92
480.122	13327.33
480.326	13388.77
480.531	13646.81
480.735	13202.4
480.94	13224.93
481.144	13663.19
481.348	13122.53
481.553	13083.62
481.757	12733.42
481.961	13138.91
482.166	13280.22
482.37	13411.29
482.574	13024.23
482.778	13020.13
482.983	13124.58
483.187	13009.89
483.391	12999.65
483.595	12780.52
483.8	12686.31
484.004	12987.36
484.208	13282.27
484.412	12850.15
484.616	13231.07
484.821	12743.66
485.025	12805.1
485.229	13136.87
485.433	12909.54
485.637	13153.25
485.841	12721.13
486.045	12917.73
486.249	12999.65
486.453	12839.91
486.657	13077.48
486.861	13003.75
487.065	12934.12
487.269	12757.99
487.473	12751.85
487.677	12844.01
487.881	12991.46
488.085	12770.28
488.289	12973.03
488.493	13089.76
488.697	12991.46
488.901	12911.59
489.105	12942.31
489.309	13028.32
489.512	13161.44
489.716	13233.12
489.92	13067.24
490.124	13190.11
490.328	13245.41
490.531	13108.19
490.735	13265.89
490.939	13439.97
491.143	13136.87
491.346	12989.41
491.55	13495.26
491.754	13388.77
491.958	13476.83
492.161	13382.62
492.365	13679.58
492.569	13620.19
492.772	13638.62
492.976	13956.05
493.18	13986.77
493.383	13980.63
493.587	14373.84
493.79	14250.96
493.994	13992.92
494.197	14095.32
494.401	14375.89
494.605	14375.89
494.808	14437.33
495.012	14379.98
495.215	14662.6
495.419	14726.09
495.622	14635.98
495.825	14961.61
496.029	14894.02
496.232	15258.56
496.436	15358.91
496.639	15424.45
496.843	15545.28
497.046	15854.52
497.249	15938.49
497.453	16202.68
497.656	16182.2
497.859	16092.09
498.063	16436.14
498.266	16921.51
498.469	16665.52
498.673	16636.84
498.876	17077.16
499.079	17314.72
499.282	17337.25
499.485	17632.16
499.689	17726.36
499.892	17925.02
500.095	17777.56
500.298	18383.76
500.501	18219.92
500.705	18779.02
500.908	19186.57
501.111	19346.31
501.314	19260.29
501.517	19745.66
501.72	19817.34
501.923	19776.38
502.126	20255.61
502.329	20595.57
502.532	20527.99
502.735	20958.06
502.938	21072.75
503.141	21152.62
503.344	21666.66
503.547	21599.07
503.75	21767.01
503.953	21842.78
504.156	22315.86
504.359	22752.08
504.562	22920.01
504.765	23339.85
504.968	23341.89
505.17	23708.48
505.373	23499.59
505.576	24212.28
505.779	24417.08
505.982	24480.57
506.185	24836.91
506.387	25148.2
506.59	25336.62
506.793	25539.36
506.996	25649.96
507.198	26524.44
507.401	26108.7
507.604	26592.02
507.807	26942.22
508.009	27435.78
508.212	27437.83
508.415	27912.96
508.617	27949.82
508.82	28021.5
509.022	28111.61
509.225	28465.91
509.428	29111.02
509.63	29354.73
509.833	29473.51
510.035	30010.08
510.238	29676.26
510.44	30282.46
510.643	30972.63
510.845	30993.11
511.048	30874.32
511.25	31462.09
511.453	31431.37
511.655	32445.12
511.858	32201.41
512.06	32465.6
512.262	32879.28
512.465	33153.71
512.667	33575.59
512.87	33966.76
513.072	33860.26
513.274	34466.46
513.477	34652.83
513.679	35031.7
513.881	35510.92
514.084	35707.53
514.286	35601.04
514.488	35990.15
514.69	37089.91
514.893	36938.36
515.095	36887.16
515.297	37976.68
515.499	37665.39
515.701	38117.99
515.904	38398.56
516.106	38902.36
516.308	39234.13
516.51	39483.98
516.712	39619.15
516.914	40043.08
517.116	40852.03
517.318	40708.67
517.52	40897.08
517.722	41208.37
517.925	41937.45
518.127	42209.83
518.329	42226.21
518.531	42379.81
518.733	42506.79
518.935	43307.54
519.136	43647.5
519.338	44130.83
519.54	44091.91
519.742	44675.58
519.944	44632.58
520.146	45150.71
520.348	45382.13
520.55	45517.3
520.752	46103.02
520.954	46678.5
521.155	46682.59
521.357	47245.79
521.559	47733.2
521.761	48103.88
521.963	47837.65
522.164	48124.36
522.366	48118.22
522.568	48996.8
522.77	48822.72
522.971	49359.29
523.173	49310.14
523.375	49873.33
523.576	49760.69
523.778	49924.53
523.98	50495.91
524.181	50622.89
524.383	50866.59
524.584	51304.86
524.786	51325.34
524.988	51083.68
525.189	51792.28
525.391	52439.43
525.592	52369.8
525.794	52421
525.995	52715.91
526.197	52609.42
526.398	52799.88
526.6	53627.26
526.801	53324.16
527.003	53571.96
527.204	53358.97
527.406	53954.93
527.607	54112.62
527.808	54767.97
528.01	53557.63
528.211	54116.72
528.412	55408.99
528.614	54468.97
528.815	55089.51
529.016	54958.44
529.218	54968.68
529.419	55327.07
529.62	55042.4
529.822	55134.56
530.023	55187.81
530.224	55208.29
530.425	55159.14
530.626	55302.49
530.828	55507.29
531.029	56203.6
531.23	55568.73
531.431	55429.47
531.632	55929.17
531.833	56514.89
532.035	55847.25
532.236	56041.81
532.437	56148.31
532.638	55904.6
532.839	56506.7
533.04	56518.99
533.241	55728.47
533.442	57114.95
533.643	56154.45
533.844	56342.86
534.045	56797.51
534.246	55642.46
534.447	56883.53
534.648	56070.48
534.849	56457.55
535.05	56373.58
535.251	56680.78
535.451	56502.6
535.652	56432.97
535.853	56490.32
536.054	56451.41
536.255	56985.93
536.456	56349.01
536.657	56977.73
536.857	56072.53
537.058	56303.95
537.259	56293.71
537.46	56543.56
537.66	56357.2
537.861	56361.29
538.062	56197.46
538.263	56453.45
538.463	56111.44
538.664	56156.5
538.865	56756.55
539.065	57069.89
539.266	55855.45
539.466	57071.94
539.667	56115.54
539.868	56893.77
540.068	56007
540.269	56142.16
540.469	56951.11
540.67	56228.18
540.87	56379.73
541.071	56113.49
541.271	56889.67
541.472	56215.89
541.672	56392.01
541.873	56170.83
542.073	55783.77
542.274	56320.34
542.474	56160.59
542.675	56148.31
542.875	56412.49
543.075	56129.87
543.276	55601.5
543.476	56428.88
543.676	55609.69
543.877	56185.17
544.077	55828.82
544.277	56029.52
544.478	55939.41
544.678	56342.86
544.878	55560.54
545.078	55873.88
545.279	55648.6
545.479	55656.79
545.679	55830.87
545.879	55714.14
546.079	55812.44
546.28	55601.5
546.48	55806.3
546.68	55966.04
546.88	56050
547.08	55662.94
547.28	55581.02
547.48	55302.49
547.68	55986.52
547.88	55470.43
548.081	55628.12
548.281	56172.88
548.481	55322.97
548.681	55877.97
548.881	55458.14
549.081	55189.86
549.28	55910.74
549.48	55998.8
549.68	55449.95
549.88	56121.68
550.08	55404.89
550.28	55564.63
550.48	55478.62
550.68	56000.85
550.88	55099.75
551.08	55443.8
551.279	55605.59
551.479	55056.74
551.679	55593.31
551.879	55320.93
552.079	55560.54
552.278	55503.2
552.478	55710.04
552.678	55181.66
552.878	55146.85
553.077	54886.76
553.277	54999.4
553.477	55953.75
553.676	54780.26
553.876	55435.61
554.076	54876.52
554.275	54983.01
554.475	54901.09
554.674	55183.71
554.874	55421.28
555.074	54483.31
555.273	54899.04
555.473	55196
555.672	54442.35
555.872	55023.97
556.071	54796.65
556.271	54819.17
556.47	54597.99
556.67	54360.43
556.869	54708.58
557.068	54872.42
557.268	53999.99
557.467	54532.46
557.667	54518.12
557.866	54438.25
558.065	54233.46
558.265	54077.81
558.464	53836.15
558.663	54495.6
558.863	53574.01
559.062	54245.74
559.261	54098.29
559.461	54208.88
559.66	53244.29
559.859	53823.86
560.058	53418.36
560.258	53344.64
560.457	52904.32
560.656	53582.2
560.855	53350.78
561.054	53741.94
561.253	52820.36
561.453	53164.42
561.652	53459.32
561.851	53627.26
562.05	53113.22
562.249	52992.39
562.448	53256.57
562.647	52468.11
562.846	52930.95
563.045	52693.38
563.244	52543.88
563.443	53248.38
563.642	52279.69
563.841	52427.15
564.04	52140.43
564.239	52593.03
564.438	51937.68
564.637	52373.9
564.836	52046.22
565.035	51491.22
565.234	52052.37
565.432	51892.63
565.631	51743.13
565.83	51878.29
566.029	51939.73
566.228	51501.46
566.427	51427.74
566.625	50954.66
566.824	50975.14
567.023	51714.45
567.222	50524.58
567.42	51108.25
567.619	50964.9
567.818	50944.42
568.016	50442.66
568.215	50977.18
568.414	50502.06
568.612	50862.5
568.811	50295.21
569.01	50272.68
569.208	49742.26
569.407	50344.36
569.605	49725.88
569.804	50106.8
570.002	49566.13
570.201	49947.06
570.4	49390.01
570.598	49228.22
570.797	49234.36
570.995	49396.15
571.193	48814.53
571.392	49394.1
571.59	48951.74
571.789	48748.99
571.987	48654.79
572.186	48746.95
572.384	48536.01
572.582	48828.87
572.781	49043.9
572.979	47643.09
573.177	48241.1
573.376	48531.91
573.574	47784.4
573.772	48089.55
573.971	47870.42
574.169	47778.26
574.367	47364.57
574.565	47655.38
574.763	47417.82
574.962	47290.84
575.16	46668.26
575.358	47122.91
575.556	46610.92
575.754	47542.74
575.952	46338.54
576.151	47084
576.349	46467.56
576.547	46174.7
576.745	46520.8
576.943	46770.66
577.141	46416.36
577.339	46371.3
577.537	46072.3
577.735	45861.36
577.933	45472.24
578.131	46174.7
578.329	45666.8
578.527	45351.41
578.725	45486.58
578.923	45300.22
579.121	45580.79
579.319	45017.6
579.516	45322.74
579.714	44732.93
579.912	44747.26
580.11	44468.74
580.308	44519.94
580.506	44696.06
580.704	43659.79
580.901	44233.22
581.099	45177.34
581.297	43913.74
581.495	44325.38
581.692	43919.88
581.89	43538.96
582.088	44358.15
582.285	43897.36
582.483	43422.23
582.681	43323.93
582.878	42959.39
583.076	42957.34
583.274	43350.55
583.471	42533.41
583.669	42727.97
583.866	42504.74
584.064	42867.23
584.262	42162.73
584.459	42811.93
584.657	42371.62
584.854	42299.94
585.052	41552.43
585.249	42009.13
585.447	42140.2
585.644	41945.64
585.841	41712.17
586.039	41970.22
586.236	41235
586.434	41216.57
586.631	41052.73
586.828	41069.11
587.026	40835.64
587.223	41259.57
587.42	40925.75
587.618	40651.33
587.815	40532.54
588.012	40712.77
588.21	40081.99
588.407	40751.68
588.604	40172.1
588.801	39893.58
588.999	40180.29
589.196	40114.76
589.393	39471.7
589.59	39314
589.787	39248.47
589.984	39103.06
590.182	38918.74
590.379	39864.91
590.576	38740.57
590.773	38933.08
590.97	38849.11
591.167	39242.32
591.364	38543.97
591.561	38539.87
591.758	38652.51
591.955	38169.19
592.152	38337.12
592.349	38103.65
592.546	38017.64
592.743	38042.21
592.94	37644.91
593.137	37913.19
593.334	38009.45
593.531	37300.85
593.727	37677.68
593.924	37538.41
594.121	37188.21
594.318	37360.24
594.515	36889.21
594.712	37374.58
594.908	36369.02
595.105	36909.69
595.302	36526.72
595.499	36416.13
595.696	36633.21
595.892	36117.12
596.089	36575.87
596.286	36053.64
596.482	36002.44
596.679	35938.95
596.876	35998.34
597.072	35885.7
597.269	35515.02
597.466	35295.89
597.662	35406.48
597.859	35379.85
598.055	35222.16
598.252	34874.01
598.448	35189.39
598.645	34792.09
598.841	34509.47
599.038	34495.13
599.234	34704.03
599.431	33852.07
599.627	34462.36
599.824	34515.61
600.02	34192.03
600.217	33905.32
600.413	34146.98
600.609	33747.62
600.806	33694.38
601.002	33882.79
601.198	33739.43
601.395	33579.69
601.591	33249.97
601.787	33473.2
601.984	33002.16
602.18	33544.87
602.376	33002.16
602.572	32991.92
602.769	33049.27
602.965	32389.82
603.161	32465.6
603.357	32322.24
603.553	32150.21
603.75	32406.2
603.946	32164.54
604.142	32332.48
604.338	31800.01
604.534	31943.36
604.73	31800.01
604.926	31726.28
605.122	31840.96
605.318	31677.13
605.514	31556.3
605.71	31337.16
605.906	31335.12
606.102	31326.92
606.298	31359.69
606.494	31187.66
606.69	31367.88
606.886	30984.91
607.082	30997.2
607.278	30642.9
607.474	30427.87
607.67	30952.15
607.866	30532.31
608.062	30423.77
608.257	30491.35
608.453	30458.59
608.649	30550.74
608.845	30307.04
609.041	29778.66
609.236	30153.44
609.432	29979.36
609.628	30307.04
609.824	30233.31
610.019	29809.38
610.215	29764.32
610.411	29717.22
610.606	29211.37
610.802	29584.1
610.998	29520.62
611.193	29844.2
611.389	29453.03
611.584	29252.33
611.78	29074.16
611.976	28949.23
612.171	29147.89
612.367	29231.85
612.562	28812.02
612.758	28713.72
612.953	28760.82
613.149	28707.57
613.344	28330.75
613.539	29477.61
613.735	28803.83
613.93	28533.5
614.126	28461.82
614.321	28947.18
614.517	28302.07
614.712	28437.24
614.907	28334.84
615.103	28508.92
615.298	28109.57
615.493	28269.31
615.688	28039.93
615.884	28828.4
616.079	27982.59
616.274	28250.88
616.47	28001.02
616.665	27902.72
616.86	28160.76
617.055	27915.01
617.25	27654.92
617.445	27974.4
617.641	27325.19
617.836	27503.37
618.031	27202.32
618.226	27634.44
618.421	27306.76
618.616	27360.01
618.811	26616.6
619.006	27185.93
619.201	26809.11
619.396	27177.74
619.591	26247.96
619.786	26888.98
619.981	26385.18
620.176	26606.36
620.371	26231.58
620.566	26454.81
620.761	25932.57
620.956	25914.14
621.151	25723.68
621.346	25850.66
621.541	25770.79
621.735	25690.91
621.93	25185.07
622.125	25418.53
622.32	24888.11
622.515	25080.62
622.709	24763.18
622.904	24881.97
623.099	24296.25
623.294	24699.7
623.488	24343.35
623.683	24195.9
623.878	23847.74
624.072	24179.51
624.267	24224.57
624.462	23847.74
624.656	23569.22
624.851	23866.17
625.046	23612.23
625.24	23333.7
625.435	23212.87
625.629	23173.96
625.824	22870.86
626.018	22637.39
626.213	22152.02
626.407	22879.05
626.602	22152.02
626.796	22373.21
626.991	22334.29
627.185	22408.02
627.38	22221.66
627.574	21943.13
627.768	21660.51
627.963	21642.08
628.157	21357.41
628.352	21484.39
628.546	21111.66
628.74	21195.62
628.935	20972.39
629.129	21064.55
629.323	20802.41
629.517	20865.9
629.712	20812.65
629.906	20319.09
630.1	20183.93
630.294	20188.02
630.489	20202.36
630.683	20441.97
630.877	19923.83
631.071	20030.33
631.265	19800.96
631.459	19700.61
631.653	19430.27
631.848	19653.5
632.042	19432.32
632.236	19424.13
632.43	19209.09
632.624	18883.47
632.818	18977.67
633.012	18908.04
633.206	18785.16
633.4	19041.16
633.594	18500.5
633.788	18574.22
633.982	18482.06
634.176	18328.47
634.369	18432.91
634.563	18269.08
634.757	17980.31
634.951	18021.27
635.145	18006.94
635.339	17728.41
635.533	17585.05
635.726	17621.92
635.92	17173.41
636.114	17488.8
636.308	17300.39
636.501	17265.57
636.695	17247.14
636.889	17185.7
637.083	17212.32
637.276	16808.87
637.47	16696.24
637.664	17021.86
637.857	16880.55
638.051	16470.96
638.244	16280.5
638.438	16513.97
638.632	16325.55
638.825	15973.3
639.019	16206.77
639.212	15997.88
639.406	16018.36
639.599	15961.02
639.793	15875
639.986	15655.87
640.18	15561.66
640.373	15629.24
640.567	15367.1
640.76	15578.04
640.954	15256.51
641.147	15242.18
641.34	15211.46
641.534	15225.79
641.727	15178.69
641.92	14977.99
642.114	14805.96
642.307	14875.59
642.5	14728.14
642.694	14633.93
642.887	14406.61
643.08	14554.06
643.273	14355.41
643.467	14402.51
643.66	14080.98
643.853	14072.79
644.046	13882.33
644.239	13763.54
644.432	13986.77
644.626	13902.81
644.819	13765.59
645.012	13855.7
645.205	13900.76
645.398	13308.9
645.591	13599.71
645.784	13499.36
645.977	13331.42
646.17	13374.43
646.363	13093.86
646.556	13022.18
646.749	13057
646.942	13052.9
647.135	12987.36
647.328	13032.42
647.521	12735.46
647.714	12577.77
647.907	12704.74
648.099	12831.72
648.292	12604.39
648.485	12714.98
648.678	12231.66
648.871	12440.56
649.064	12311.53
649.256	12465.13
649.449	12266.48
649.642	12141.55
649.835	11924.47
650.027	11914.23
650.22	11709.43
650.413	11922.42
650.605	11967.48
650.798	11660.28
650.991	11568.12
651.183	11584.51
651.376	11396.09
651.568	11537.4
651.761	11510.78
651.954	11377.66
652.146	11383.8
652.339	11258.88
652.531	10929.16
652.724	11174.91
652.916	10826.76
653.109	10959.88
653.301	10847.24
653.494	10953.73
653.686	10773.51
653.879	10793.99
654.071	10509.32
654.263	10546.19
654.456	10824.71
654.648	10673.16
654.84	10271.76
655.033	10396.68
655.225	10378.25
655.417	10359.82
655.61	10163.22
655.802	10470.41
655.994	10179.6
656.186	10093.58
656.379	10200.08
656.571	10052.63
656.763	9962.51
656.955	9862.16
657.148	9800.73
657.34	9911.32
657.532	9643.03
657.724	9683.99
657.916	9782.29
658.108	9507.87
658.3	9530.39
658.492	9630.74
658.684	9344.03
658.876	9346.08
659.068	9270.3
659.26	9253.92
659.452	9309.21
659.644	9247.77
659.836	9172
660.028	9225.25
660.22	8899.62
660.412	9059.36
660.604	9018.4
660.796	8959.01
660.988	8969.25
661.18	8905.76
661.372	8700.97
661.563	9061.41
661.755	8852.52
661.947	8815.65
662.139	8631.33
662.331	8584.23
662.522	8612.9
662.714	8479.79
662.906	8406.06
663.097	8442.92
663.289	8500.26
663.481	8412.2
663.673	8385.58
663.864	8244.27
664.056	8119.34
664.247	8127.53
664.439	8102.96
664.631	8238.12
664.822	8162.35
665.014	8014.9
665.205	7912.5
665.397	7918.64
665.588	7887.92
665.78	7810.1
665.971	7941.17
666.163	8018.99
666.354	7928.88
666.546	7752.76
666.737	7560.25
666.929	7550.01
667.12	7605.3
667.311	7550.01
667.503	7615.54
667.694	7580.73
667.885	7384.12
668.077	7283.77
668.268	7115.84
668.459	7339.07
668.651	7164.99
668.842	7265.34
669.033	7205.95
669.224	7234.62
669.416	7414.84
669.607	7117.89
669.798	6962.24
669.989	7048.26
670.18	6851.65
670.371	7021.63
670.563	6884.42
670.754	7003.2
670.945	6841.41
671.136	6943.81
671.327	6892.61
671.518	6777.92
671.709	6747.2
671.9	6906.95
672.091	6743.11
672.282	6745.16
672.473	6470.73
672.664	6620.23
672.855	6732.87
673.046	6636.61
673.237	6736.96
673.428	6612.04
673.619	6431.82
673.809	6267.98
674	6325.32
674.191	6579.27
674.382	6366.28
674.573	6411.34
674.764	6491.21
674.954	6417.48
675.145	6282.31
675.336	6280.27
675.527	6102.09
675.717	6380.62
675.908	6251.6
676.099	6134.86
676.289	6202.44
676.48	6011.98
676.671	6159.44
676.861	6003.79
677.052	6034.51
677.243	6079.57
677.433	5987.41
677.624	5979.22
677.814	5966.93
678.005	6034.51
678.195	5956.69
678.386	5842
678.576	5727.32
678.767	5917.78
678.957	5913.68
679.148	5895.25
679.338	5837.91
679.529	5858.39
679.719	5829.71
679.909	5882.96
680.1	5731.41
680.29	5751.89
680.481	5776.47
680.671	5680.21
680.861	5643.35
681.052	5727.32
681.242	5622.87
681.432	5854.29
681.622	5559.38
681.813	5659.73
682.003	5581.91
682.193	5491.8
682.383	5618.77
682.573	5514.33
682.764	5475.42
682.954	5684.31
683.144	5307.48
683.334	5420.12
683.524	5422.17
683.714	5360.73
683.904	5383.26
684.094	5366.87
684.284	5338.2
684.474	5377.11
684.664	5307.48
684.854	5270.62
685.044	5336.15
685.234	5229.66
685.424	5243.99
685.614	5338.2
685.804	5151.84
685.994	5143.64
686.184	5131.36
686.374	5164.12
686.564	5196.89
686.753	5166.17
686.943	4963.42
687.133	5149.79
687.323	4918.37
687.513	5102.68
687.702	4916.32
687.892	4920.42
688.082	4963.42
688.272	4926.56
688.461	5141.6
688.651	4887.65
688.841	4871.26
689.03	4803.68
689.22	4871.26
689.41	4801.63
689.599	4668.52
689.789	4689
689.979	4764.77
690.168	4746.34
690.358	4748.39
690.547	4705.38
690.737	4564.07
690.926	4594.79
691.116	4461.67
691.305	4641.89
691.495	4416.62
691.684	4594.79
691.874	4478.05
692.063	4574.31
692.252	4570.21
692.442	4385.9
692.631	4500.58
692.82	4389.99
693.01	4443.24
693.199	4445.29
693.388	4351.08
693.578	4351.08
693.767	4398.18
693.956	4400.23
694.146	4271.21
694.335	4283.5
694.524	4275.31
694.713	4238.44
694.902	4289.64
695.092	4387.94
695.281	4213.87
695.47	4074.6
695.659	4164.72
695.848	3947.63
696.037	4007.02
696.226	4177
696.415	4023.41
696.604	4031.6
696.793	3966.06
696.982	4131.95
697.171	4189.29
697.36	4117.61
697.549	4025.45
697.738	3984.49
697.927	4047.98
698.116	3988.59
698.305	3914.86
698.494	3892.34
698.683	3894.38
698.872	4060.27
699.061	3923.05
699.25	3851.38
699.438	3945.58
699.627	3902.58
699.816	3882.1
700.005	3904.62
700.193	3892.34
700.382	3900.53
700.571	3925.1
700.76	3845.23
700.948	3890.29
701.137	3828.85
701.326	3951.73
701.514	3773.55
701.703	3775.6
701.892	3886.19
702.08	3841.14
702.269	3769.46
702.457	3718.26
702.646	3755.12
702.834	3636.34
703.023	3853.42
703.212	3822.7
703.4	3734.64
703.589	3638.39
703.777	3718.26
703.965	3591.28
704.154	3736.69
704.342	3710.07
704.531	3593.33
704.719	3669.11
704.907	3699.83
705.096	3468.41
705.284	3624.05
705.472	3597.43
705.661	3548.28
705.849	3640.44
706.037	3499.13
706.226	3595.38
706.414	3619.96
706.602	3556.47
706.79	3562.61
706.979	3486.84
707.167	3562.61
707.355	3566.71
707.543	3527.8
707.731	3632.24
707.919	3488.89
708.107	3429.49
708.296	3505.27
708.484	3374.2
708.672	3564.66
708.86	3417.21
709.048	3474.55
709.236	3564.66
709.424	3519.6
709.612	3366.01
709.8	3376.25
709.988	3386.49
710.176	3454.07
710.364	3597.43
710.551	3355.77
710.739	3515.51
710.927	3314.81
711.115	3366.01
711.303	3273.85
711.491	3384.44
711.679	3265.66
711.866	3343.48
712.054	3341.43
712.242	3148.92
712.43	3429.49
712.617	3198.07
712.805	3183.74
712.993	3402.87
713.181	3179.64
713.368	3363.96
713.556	3316.86
713.744	3261.56
713.931	3306.62
714.119	3122.3
714.306	3249.27
714.494	3079.29
714.682	3249.27
714.869	3169.4
715.057	3241.08
715.244	3150.97
715.432	3284.09
715.619	3265.66
715.807	3173.5
715.994	3230.84
716.182	3224.7
716.369	3275.9
716.556	3097.72
716.744	3206.27
716.931	3124.35
717.119	3206.27
717.306	3034.24
717.493	3144.83
717.681	3140.73
717.868	3040.38
718.055	2946.17
718.242	3128.44
718.43	3157.11
718.617	3034.24
718.804	3105.92
718.991	3071.1
719.179	3153.02
719.366	3071.1
719.553	3062.91
719.74	2958.46
719.927	3056.76
720.114	2958.46
720.301	2917.5
720.488	2952.32
720.676	2942.08
720.863	2911.36
721.05	2972.8
721.237	2849.92
721.424	2964.61
721.611	2935.93
721.798	2876.54
721.985	2972.8
722.172	2940.03
722.358	2929.79
722.545	2942.08
722.732	2788.48
722.919	2909.31
723.106	2950.27
723.293	2876.54
723.48	2831.49
723.667	2847.87
723.853	2964.61
724.04	2948.22
724.227	2827.39
724.414	2757.76
724.6	2854.02
724.787	2888.83
724.974	2739.33
725.161	2888.83
725.347	2722.95
725.534	2780.29
725.72	2788.48
725.907	2749.57
726.094	2843.78
726.28	2854.02
726.467	2753.66
726.653	2921.6
726.84	2940.03
727.027	2788.48
727.213	2702.47
727.4	2765.95
727.586	2729.09
727.773	2671.75
727.959	2727.04
728.145	2653.31
728.332	2839.68
728.518	2649.22
728.705	2727.04
728.891	2636.93
729.077	2681.99
729.264	2628.74
729.45	2651.27
729.636	2677.89
729.823	2673.79
730.009	2624.64
730.195	2761.86
730.382	2573.44
730.568	2649.22
730.754	2573.44
730.94	2645.12
731.126	2825.34
731.313	2571.4
731.499	2552.96
731.685	2665.6
731.871	2718.85
732.057	2661.51
732.243	2587.78
732.429	2581.64
732.615	2526.34
732.801	2663.55
732.987	2536.58
733.173	2583.68
733.359	2569.35
733.545	2446.47
733.731	2573.44
733.917	2628.74
734.103	2671.75
734.289	2636.93
734.475	2469
734.661	2686.08
734.847	2612.35
735.033	2512
735.219	2512
735.404	2581.64
735.59	2581.64
735.776	2499.72
735.962	2552.96
736.148	2460.81
736.333	2548.87
736.519	2497.67
736.705	2579.59
736.89	2516.1
737.076	2546.82
737.262	2471.04
737.447	2518.15
737.633	2385.03
737.819	2395.27
738.004	2432.13
738.19	2471.04
738.375	2499.72
738.561	2460.81
738.747	2522.24
738.932	2399.37
739.118	2452.61
739.303	2368.65
739.489	2452.61
739.674	2352.26
739.859	2358.41
740.045	2344.07
740.23	2321.54
740.416	2311.3
740.601	2309.26
740.786	2309.26
740.972	2376.84
741.157	2282.63
741.342	2305.16
741.528	2346.12
741.713	2227.34
741.898	2321.54
742.084	2315.4
742.269	2317.45
742.454	2229.38
742.639	2198.67
742.824	2235.53
743.01	2178.19
743.195	2251.91
743.38	2202.76
743.565	2122.89
743.75	2198.67
743.935	2118.79
744.12	2243.72
744.305	2122.89
744.49	2034.83
744.675	2157.71
744.86	2077.83
745.045	2051.21
745.23	2018.44
745.415	2169.99
745.6	2034.83
745.785	2014.35
745.97	2147.47
746.155	2096.27
746.34	2092.17
746.525	2030.73
746.71	2081.93
746.895	1963.15
747.079	1995.92
747.264	1942.67
747.449	1928.33
747.634	1975.44
747.819	2002.06
748.003	1907.85
748.188	1940.62
748.373	1936.53
748.557	1875.09
748.742	1877.13
748.927	1772.69
749.111	1821.84
749.296	1860.75
749.481	1842.32
749.665	1741.97
749.85	1739.92
750.034	1782.93
750.219	1795.22
750.404	1801.36
750.588	1705.1
750.773	1721.49
750.957	1772.69
751.141	1713.3
751.326	1741.97
751.51	1725.58
751.695	1641.62
751.879	1629.33
752.064	1733.78
752.248	1571.99
752.432	1678.48
752.617	1707.15
752.801	1684.62
752.985	1606.8
753.17	1641.62
753.354	1639.57
753.538	1574.03
753.722	1524.88
753.907	1518.74
754.091	1426.58
754.275	1436.82
754.459	1471.64
754.643	1512.6
754.828	1424.53
755.012	1574.03
755.196	1457.3
755.38	1408.15
755.564	1488.02
755.748	1402.01
755.932	1387.67
756.116	1535.12
756.3	1440.92
756.484	1356.95
756.668	1404.05
756.852	1348.76
757.036	1295.51
757.22	1320.09
757.404	1352.85
757.588	1397.91
757.772	1365.14
757.956	1313.94
758.14	1359
758.323	1293.46
758.507	1309.85
758.691	1311.89
758.875	1283.22
759.059	1361.05
759.242	1160.34
759.426	1223.83
759.61	1356.95
759.794	1238.17
759.977	1254.55
760.161	1313.94
760.345	1283.22
760.528	1156.25
760.712	1266.84
760.895	1242.26
761.079	1156.25
761.263	1180.82
761.446	1172.63
761.63	1131.67
761.813	1223.83
761.997	1143.96
762.18	1160.34
762.364	1150.11
762.547	1090.71
762.731	1201.3
762.914	1199.26
763.098	1039.51
763.281	1103
763.464	1166.49
763.648	1078.43
763.831	1053.85
764.015	1105.05
764.198	1062.04
764.381	1096.86
764.564	1053.85
764.748	1053.85
764.931	1092.76
765.114	1096.86
765.297	1072.28
765.481	1094.81
765.664	1105.05
765.847	1051.8
766.03	1107.1
766.213	1029.27
766.397	1008.8
766.58	1039.51
766.763	1055.9
766.946	1021.08
767.129	1006.75
767.312	1021.08
767.495	996.51
767.678	961.69
767.861	949.4
768.044	1107.1
768.227	998.56
768.41	994.46
768.593	1023.13
768.776	947.36
768.959	1006.75
769.142	1047.71
769.324	943.26
769.507	961.69
769.69	1043.61
769.873	947.36
770.056	965.79
770.239	928.92
770.421	976.03
770.604	969.88
770.787	900.25
770.97	1019.04
771.152	875.68
771.335	957.6
771.518	875.68
771.7	894.11
771.883	887.97
772.066	894.11
772.248	832.67
772.431	847.01
772.613	773.28
772.796	937.12
772.978	900.25
773.161	847.01
773.343	834.72
773.526	758.94
773.708	887.97
773.891	695.46
774.073	857.25
774.256	826.53
774.438	871.58
774.621	804
774.803	840.86
774.985	740.51
775.168	801.95
775.35	756.9
775.532	754.85
775.715	689.31
775.897	769.18
776.079	799.9
776.261	799.9
776.444	769.18
776.626	804
776.808	720.03
776.99	742.56
777.173	724.13
777.355	748.7
777.537	687.26
777.719	728.22
777.901	679.07
778.083	697.5
778.265	658.59
778.447	636.06
778.629	623.78
778.811	679.07
778.993	656.54
779.175	656.54
779.357	640.16
779.539	658.59
779.721	627.87
779.903	627.87
780.085	611.49
780.267	627.87
780.449	636.06
780.631	666.78
780.812	591.01
780.994	615.59
781.176	586.91
781.358	586.91
781.54	550.05
781.721	554.15
781.903	599.2
782.085	556.19
782.267	564.39
782.448	586.91
782.63	527.52
782.812	605.35
782.993	478.37
783.175	525.47
783.357	609.44
783.538	609.44
783.72	509.09
783.901	519.33
784.083	447.65
784.264	582.82
784.446	459.94
784.627	515.23
784.809	443.56
784.99	535.71
785.172	521.38
785.353	556.19
785.535	519.33
785.716	449.7
785.897	486.56
786.079	539.81
786.26	519.33
786.441	472.23
786.623	492.71
786.804	486.56
786.985	539.81
787.167	552.1
787.348	410.79
787.529	513.19
787.71	502.95
787.891	498.85
788.073	416.93
788.254	435.36
788.435	423.08
788.616	523.43
788.797	441.51
788.978	396.45
789.159	375.97
789.34	433.32
789.522	394.4
789.703	400.55
789.884	396.45
790.065	414.88
790.246	378.02
790.427	461.99
790.607	394.4
790.788	388.26
790.969	400.55
791.15	386.21
791.331	353.45
791.512	349.35
791.693	246.95
791.874	369.83
792.054	357.54
792.235	515.23
792.416	402.6
792.597	339.11
792.778	380.07
792.958	464.04
793.139	361.64
793.32	408.74
793.5	363.69
793.681	328.87
793.862	425.12
794.042	394.4
794.223	304.29
794.404	402.6
794.584	287.91
794.765	359.59
794.945	363.69
795.126	273.57
795.306	298.15
795.487	316.58
795.667	318.63
795.848	365.73
796.028	343.21
796.209	296.1
796.389	308.39
796.57	328.87
796.75	353.45
796.93	306.34
797.111	214.18
797.291	349.35
797.471	339.11
797.652	300.2
797.832	304.29
798.012	294.05
798.192	294.05
798.373	332.97
798.553	259.24
798.733	308.39
798.913	314.53
799.093	289.96
799.274	322.73
799.454	251.05
799.634	296.1
799.814	300.2
799.994	314.53
800.174	292.01
800.354	228.52
800.534	351.4
800.714	318.63
800.894	226.47
801.074	306.34
801.254	328.87
801.434	335.01
801.614	355.49
801.794	310.44
801.974	687.26
802.154	230.57
802.334	357.54
802.514	232.62
802.693	324.77
802.873	263.33
803.053	277.67
803.233	287.91
803.413	285.86
803.592	242.85
803.772	181.42
803.952	158.89
804.131	214.18
804.311	267.43
804.491	269.48
804.67	205.99
804.85	187.56
805.03	195.75
805.209	275.62
805.389	197.8
805.568	189.61
805.748	249
805.928	175.27
806.107	289.96
806.287	238.76
806.466	249
806.646	230.57
806.825	181.42
807.004	218.28
807.184	304.29
807.363	232.62
807.543	279.72
807.722	244.9
807.901	214.18
808.081	165.03
808.26	199.85
808.439	181.42
808.619	203.94
808.798	285.86
808.977	199.85
809.156	242.85
809.336	179.37
809.515	281.77
809.694	179.37
809.873	199.85
810.052	271.53
810.231	261.29
810.411	177.32
810.59	210.09
810.769	234.66
810.948	181.42
811.127	160.94
811.306	150.7
811.485	173.22
811.664	167.08
811.843	173.22
812.022	199.85
812.201	228.52
812.38	230.57
812.559	187.56
812.737	203.94
812.916	83.11
813.095	156.84
813.274	95.4
813.453	148.65
813.632	187.56
813.811	195.75
813.989	181.42
814.168	183.46
814.347	134.31
814.526	165.03
814.704	197.8
814.883	146.6
815.062	128.17
815.24	167.08
815.419	107.69
815.598	162.98
815.776	199.85
815.955	212.14
816.133	72.87
816.312	175.27
816.49	79.02
816.669	195.75
816.847	117.93
817.026	173.22
817.204	197.8
817.383	162.98
817.561	132.26
817.74	142.5
817.918	165.03
818.097	91.31
818.275	167.08
818.453	148.65
818.632	85.16
818.81	101.55
818.988	134.31
819.167	205.99
819.345	138.41
819.523	203.94
819.701	189.61
819.879	138.41
820.058	165.03
820.236	103.59
820.414	103.59
820.592	124.07
820.77	66.73
820.948	99.5
821.127	130.22
821.305	142.5
821.483	167.08
821.661	134.31
821.839	122.02
822.017	134.31
822.195	126.12
822.373	179.37
822.551	99.5
822.729	191.66
822.907	76.97
823.085	156.84
823.262	148.65
823.44	60.59
823.618	76.97
823.796	87.21
823.974	142.5
824.152	142.5
824.329	115.88
824.507	101.55
824.685	93.35
824.863	169.13
825.04	93.35
825.218	154.79
825.396	126.12
825.574	199.85
825.751	95.4
825.929	126.12
826.107	72.87
826.284	42.15
826.462	162.98
826.639	15.53
826.817	142.5
826.994	140.46
827.172	101.55
827.349	136.36
827.527	162.98
827.704	140.46
827.882	87.21
828.059	169.13
828.237	126.12
828.414	134.31
828.591	52.39
828.769	134.31
828.946	60.59
829.124	101.55
829.301	119.98
829.478	66.73
829.655	52.39
829.833	140.46
830.01	111.78
830.187	124.07
830.364	132.26
830.542	142.5
830.719	175.27
830.896	68.78
831.073	128.17
831.25	122.02
831.427	136.36
831.604	128.17
831.782	54.44
831.959	76.97
832.136	142.5
832.313	91.31
832.49	66.73
832.667	146.6
832.844	60.59
833.021	134.31
833.198	109.74
833.374	160.94
833.551	31.91
833.728	107.69
833.905	76.97
834.082	93.35
834.259	66.73
834.436	119.98
834.612	115.88
834.789	144.55
834.966	91.31
835.143	154.79
835.319	115.88
835.496	95.4
835.673	93.35
835.85	113.83
836.026	89.26
836.203	95.4
836.38	89.26
836.556	91.31
836.733	107.69
836.909	107.69
837.086	103.59
837.262	54.44
837.439	31.91
837.616	72.87
837.792	97.45
837.968	169.13
838.145	60.59
838.321	83.11
838.498	93.35
838.674	130.22
838.851	97.45
839.027	62.63
839.203	124.07
839.38	38.06
839.556	91.31
839.732	54.44
839.909	1.19
840.085	52.39
840.261	68.78
840.437	11.43
840.614	107.69
840.79	93.35
840.966	152.74
841.142	58.54
841.318	109.74
841.494	83.11
841.671	46.25
841.847	58.54
842.023	54.44
842.199	-0.85
842.375	58.54
842.551	27.82
842.727	-7
842.903	50.35
843.079	52.39
843.255	74.92
843.431	68.78
843.607	48.3
843.783	54.44
843.959	42.15
844.134	31.91
844.31	103.59
844.486	50.35
844.662	25.77
844.838	46.25
845.013	52.39
845.189	11.43
845.365	19.63
845.541	124.07
845.716	44.2
845.892	64.68
846.068	40.11
846.244	54.44
846.419	-29.52
846.595	83.11
846.77	-17.24
846.946	60.59
847.122	64.68
847.297	68.78
847.473	27.82
847.648	74.92
847.824	13.48
847.999	93.35
848.175	85.16
848.35	83.11
848.526	66.73
848.701	119.98
848.876	85.16
849.052	62.63
849.227	87.21
849.403	48.3
849.578	64.68
849.753	42.15
849.929	48.3
850.104	-7
850.279	60.59
850.454	54.44
850.63	66.73
850.805	60.59
850.98	9.39
851.155	11.43
851.33	107.69
851.505	25.77
851.681	62.63
851.856	66.73
852.031	44.2
852.206	101.55
852.381	19.63
852.556	36.01
852.731	29.87
852.906	60.59
853.081	70.83
853.256	68.78
853.431	33.96
853.606	15.53
853.781	9.39
853.956	-27.48
854.131	95.4
854.305	54.44
854.48	109.74
854.655	56.49
854.83	64.68
855.005	60.59
855.18	19.63
855.354	7.34
855.529	25.77
855.704	-17.24
855.879	5.29
856.053	48.3
856.228	3.24
856.403	-52.05
856.577	15.53
856.752	74.92
856.926	60.59
857.101	19.63
857.276	11.43
857.45	29.87
857.625	64.68
857.799	42.15
857.974	31.91
858.148	27.82
858.323	-0.85
858.497	-4.95
858.672	50.35
858.846	29.87
859.02	5.29
859.195	-19.29
859.369	113.83
859.543	13.48
859.718	-4.95
859.892	83.11
860.066	9.39
860.241	-39.76
860.415	40.11
860.589	33.96
860.763	25.77
860.938	72.87
861.112	-13.14
861.286	27.82
861.46	130.22
861.634	27.82
861.808	79.02
861.982	1.19
862.157	-7
862.331	50.35
862.505	-7
862.679	29.87
862.853	56.49
863.027	74.92
863.201	138.41
863.375	9.39
863.549	1.19
863.722	-37.72
863.896	64.68
864.07	21.67
864.244	74.92
864.418	15.53
864.592	79.02
864.766	23.72
864.939	15.53
865.113	33.96
865.287	46.25
865.461	-13.14
865.634	-39.76
865.808	44.2
865.982	27.82
866.156	11.43
866.329	-19.29
866.503	27.82
866.676	64.68
866.85	85.16
867.024	13.48
867.197	19.63
867.371	76.97
867.544	-7
867.718	79.02
867.891	29.87
868.065	-41.81
868.238	11.43
868.412	124.07
868.585	-0.85
868.759	27.82
868.932	19.63
869.105	58.54
869.279	68.78
869.452	48.3
869.625	46.25
869.799	-25.43
869.972	-23.38
870.145	38.06
870.319	72.87
870.492	29.87
870.665	9.39
870.838	-13.14
871.011	-29.52
871.185	-33.62
871.358	5.29
871.531	66.73
871.704	33.96
871.877	17.58
872.05	64.68
872.223	46.25
872.396	48.3
872.569	5.29
872.742	1.19
872.915	9.39
873.088	11.43
873.261	64.68
873.434	23.72
873.607	-27.48
873.78	74.92
873.953	-29.52
874.126	-15.19
874.299	9.39
874.471	-29.52
874.644	25.77
874.817	89.26
874.99	33.96
875.163	27.82
875.335	138.41
875.508	-19.29
875.681	1.19
875.853	11.43
876.026	17.58
876.199	25.77
876.371	93.35
876.544	58.54
876.717	-2.9
876.889	23.72
877.062	62.63
877.234	46.25
877.407	19.63
877.579	5.29
877.752	48.3
877.924	79.02
878.097	64.68
878.269	66.73
878.442	-33.62
878.614	17.58
878.786	76.97
878.959	31.91
879.131	-64.34
879.303	-4.95
879.476	11.43
879.648	54.44
879.82	17.58
879.993	19.63
880.165	56.49
880.337	-0.85
880.509	72.87
880.681	-52.05
880.854	64.68
881.026	-33.62
881.198	89.26
881.37	83.11
881.542	9.39
881.714	50.35
881.886	-21.33
882.058	-52.05
882.23	11.43
882.402	-15.19
882.574	15.53
882.746	-9.05
882.918	17.58
883.09	17.58
883.262	33.96
883.434	7.34
883.606	-39.76
883.778	29.87
883.95	93.35
884.122	31.91
884.293	54.44
884.465	103.59
884.637	13.48
884.809	-41.81
884.98	87.21
885.152	7.34
885.324	48.3
885.496	33.96
885.667	27.82
885.839	74.92
886.011	83.11
886.182	15.53
886.354	68.78
886.525	15.53
886.697	-2.9
886.869	46.25
887.04	-74.58
887.212	48.3
887.383	36.01
887.555	-13.14
887.726	-21.33
887.897	-19.29
888.069	38.06
888.24	5.29
888.412	-2.9
888.583	46.25
888.754	-15.19
888.926	9.39
889.097	7.34
889.268	7.34
889.44	29.87
889.611	21.67
889.782	-19.29
889.953	-11.09
890.125	50.35
890.296	1.19
890.467	-2.9
890.638	68.78
890.809	-37.72
890.98	19.63
891.151	46.25
891.323	-15.19
891.494	23.72
891.665	5.29
891.836	7.34
892.007	38.06
892.178	31.91
892.349	52.39
892.52	-7
892.691	44.2
892.862	-21.33
893.032	-35.67
893.203	-35.67
893.374	33.96
893.545	1.19
893.716	-9.05
893.887	9.39
894.057	48.3
894.228	50.35
894.399	-54.1
894.57	66.73
894.74	11.43
894.911	58.54
895.082	9.39
895.253	31.91
895.423	70.83
895.594	60.59
895.764	-0.85
895.935	44.2
896.106	52.39
896.276	19.63
896.447	17.58
896.617	66.73
896.788	-25.43
896.958	19.63
897.129	74.92
897.299	-4.95
897.47	17.58
897.64	48.3
897.81	52.39
897.981	48.3
898.151	3.24
898.322	38.06
898.492	15.53
898.662	-19.29
898.832	5.29
899.003	-25.43
899.173	1.19
899.343	-50
899.513	40.11
