Data from USB4F104151__31__12-35-35-441.txt Node

Date: Fri Mar 14 12:35:35 EDT 2025
User: louis
Spectrometer: USB4F10415
Trigger mode: 4
Integration Time (sec): 2.000000E-2
Scans to average: 1
Electric dark correction enabled: true
Nonlinearity correction enabled: false
Boxcar width: 0
XAxis mode: Wavelengths
Number of Pixels in Spectrum: 3648
>>>>>Begin Spectral Data<<<<<
178.204	-73.21
178.424	-73.21
178.644	-73.21
178.864	-136.7
179.084	-83.45
179.304	-65.02
179.524	37.38
179.744	-40.45
179.964	23.04
180.184	12.8
180.404	27.14
180.624	-7.68
180.844	57.86
181.064	-50.69
181.283	-1.54
181.503	-24.06
181.723	31.23
181.943	-5.63
182.163	96.77
182.383	29.18
182.602	4.61
182.822	6.66
183.042	6.66
183.262	-42.5
183.482	12.8
183.701	37.38
183.921	-48.64
184.141	4.61
184.361	-17.92
184.58	80.38
184.8	12.8
185.02	-56.83
185.239	80.38
185.459	-17.92
185.679	6.66
185.898	0.51
186.118	98.81
186.338	16.9
186.557	61.95
186.777	-30.21
186.997	86.53
187.216	78.33
187.436	-38.4
187.655	74.24
187.875	14.85
188.095	-32.26
188.314	104.96
188.534	35.33
188.753	6.66
188.973	-24.06
189.192	2.56
189.412	10.75
189.631	39.42
189.851	12.8
190.07	37.38
190.29	31.23
190.509	45.57
190.729	-54.78
190.948	43.52
191.168	45.57
191.387	49.66
191.607	16.9
191.826	27.14
192.045	-101.89
192.265	16.9
192.484	8.7
192.704	23.04
192.923	-19.97
193.142	86.53
193.362	-11.78
193.581	-9.73
193.8	61.95
194.02	88.57
194.239	-44.54
194.458	18.94
194.678	49.66
194.897	31.23
195.116	-11.78
195.335	61.95
195.555	78.33
195.774	74.24
195.993	8.7
196.212	66.05
196.432	49.66
196.651	27.14
196.87	25.09
197.089	16.9
197.308	20.99
197.528	29.18
197.747	49.66
197.966	41.47
198.185	96.77
198.404	20.99
198.623	43.52
198.842	0.51
199.062	80.38
199.281	4.61
199.5	20.99
199.719	16.9
199.938	-3.58
200.157	90.62
200.376	20.99
200.595	64
200.814	-9.73
201.033	31.23
201.252	41.47
201.471	35.33
201.69	41.47
201.909	-9.73
202.128	66.05
202.347	-17.92
202.566	29.18
202.785	-28.16
203.004	8.7
203.223	64
203.442	-36.35
203.661	-48.64
203.879	18.94
204.098	115.2
204.317	39.42
204.536	23.04
204.755	64
204.974	23.04
205.193	23.04
205.411	35.33
205.63	4.61
205.849	78.33
206.068	55.81
206.287	25.09
206.505	20.99
206.724	-52.74
206.943	16.9
207.162	-5.63
207.381	-7.68
207.599	-26.11
207.818	37.38
208.037	96.77
208.255	6.66
208.474	33.28
208.693	64
208.911	29.18
209.13	-42.5
209.349	-11.78
209.567	82.43
209.786	45.57
210.005	-5.63
210.223	64
210.442	-124.41
210.661	25.09
210.879	-17.92
211.098	-3.58
211.316	41.47
211.535	23.04
211.753	76.29
211.972	70.14
212.191	-5.63
212.409	-48.64
212.628	61.95
212.846	8.7
213.065	12.8
213.283	94.72
213.502	41.47
213.72	55.81
213.938	-17.92
214.157	-30.21
214.375	37.38
214.594	10.75
214.812	-46.59
215.031	45.57
215.249	-30.21
215.467	-5.63
215.686	47.62
215.904	78.33
216.122	-13.82
216.341	-13.82
216.559	8.7
216.778	51.71
216.996	59.9
217.214	6.66
217.432	4.61
217.651	-7.68
217.869	14.85
218.087	-5.63
218.306	-71.17
218.524	37.38
218.742	51.71
218.96	8.7
219.179	18.94
219.397	-19.97
219.615	51.71
219.833	27.14
220.051	6.66
220.27	80.38
220.488	51.71
220.706	2.56
220.924	25.09
221.142	-19.97
221.36	43.52
221.578	-22.02
221.796	20.99
222.015	-1.54
222.233	20.99
222.451	20.99
222.669	-73.21
222.887	76.29
223.105	35.33
223.323	6.66
223.541	-11.78
223.759	35.33
223.977	20.99
224.195	64
224.413	100.86
224.631	10.75
224.849	59.9
225.067	16.9
225.285	29.18
225.503	20.99
225.721	-24.06
225.939	23.04
226.157	-5.63
226.375	107.01
226.592	61.95
226.81	14.85
227.028	59.9
227.246	68.09
227.464	-3.58
227.682	39.42
227.9	90.62
228.117	35.33
228.335	18.94
228.553	-7.68
228.771	41.47
228.989	45.57
229.206	45.57
229.424	39.42
229.642	49.66
229.86	-9.73
230.077	78.33
230.295	14.85
230.513	4.61
230.731	-5.63
230.948	57.86
231.166	53.76
231.384	12.8
231.601	0.51
231.819	37.38
232.037	66.05
232.254	0.51
232.472	49.66
232.689	-62.98
232.907	-13.82
233.125	51.71
233.342	33.28
233.56	-28.16
233.777	23.04
233.995	-50.69
234.213	55.81
234.43	-22.02
234.648	76.29
234.865	37.38
235.083	111.1
235.3	23.04
235.518	23.04
235.735	119.29
235.953	80.38
236.17	64
236.388	41.47
236.605	59.9
236.822	47.62
237.04	111.1
237.257	20.99
237.475	51.71
237.692	80.38
237.909	55.81
238.127	37.38
238.344	94.72
238.562	29.18
238.779	-7.68
238.996	29.18
239.214	76.29
239.431	82.43
239.648	-7.68
239.865	0.51
240.083	25.09
240.3	-11.78
240.517	-7.68
240.735	-9.73
240.952	-24.06
241.169	-9.73
241.386	-26.11
241.603	-3.58
241.821	-38.4
242.038	55.81
242.255	29.18
242.472	41.47
242.689	-7.68
242.907	16.9
243.124	55.81
243.341	-26.11
243.558	45.57
243.775	59.9
243.992	43.52
244.209	-9.73
244.426	96.77
244.643	74.24
244.86	20.99
245.078	-11.78
245.295	29.18
245.512	-11.78
245.729	-19.97
245.946	37.38
246.163	74.24
246.38	23.04
246.597	94.72
246.814	10.75
247.031	-11.78
247.248	-17.92
247.464	23.04
247.681	39.42
247.898	66.05
248.115	31.23
248.332	2.56
248.549	41.47
248.766	96.77
248.983	18.94
249.2	10.75
249.417	41.47
249.633	-9.73
249.85	-22.02
250.067	41.47
250.284	74.24
250.501	57.86
250.717	4.61
250.934	12.8
251.151	49.66
251.368	-62.98
251.585	53.76
251.801	10.75
252.018	16.9
252.235	-13.82
252.451	29.18
252.668	-48.64
252.885	-13.82
253.102	-5.63
253.318	43.52
253.535	-5.63
253.752	-22.02
253.968	-67.07
254.185	-9.73
254.401	14.85
254.618	-1.54
254.835	-17.92
255.051	61.95
255.268	-17.92
255.484	-17.92
255.701	2.56
255.917	8.7
256.134	31.23
256.351	-5.63
256.567	-58.88
256.784	-11.78
257	2.56
257.217	31.23
257.433	16.9
257.65	-7.68
257.866	37.38
258.082	-22.02
258.299	43.52
258.515	104.96
258.732	39.42
258.948	23.04
259.165	0.51
259.381	14.85
259.597	29.18
259.814	25.09
260.03	51.71
260.246	6.66
260.463	47.62
260.679	25.09
260.895	-13.82
261.112	64
261.328	43.52
261.544	119.29
261.761	39.42
261.977	23.04
262.193	-79.36
262.409	72.19
262.626	119.29
262.842	47.62
263.058	82.43
263.274	127.49
263.49	49.66
263.707	61.95
263.923	39.42
264.139	70.14
264.355	37.38
264.571	16.9
264.787	-9.73
265.004	23.04
265.22	33.28
265.436	33.28
265.652	29.18
265.868	84.48
266.084	25.09
266.3	10.75
266.516	-54.78
266.732	33.28
266.948	-9.73
267.164	55.81
267.38	-5.63
267.596	43.52
267.812	45.57
268.028	78.33
268.244	-17.92
268.46	-11.78
268.676	-1.54
268.892	76.29
269.108	-50.69
269.324	-3.58
269.54	57.86
269.756	72.19
269.972	-9.73
270.188	53.76
270.403	-22.02
270.619	-58.88
270.835	43.52
271.051	27.14
271.267	47.62
271.483	37.38
271.698	86.53
271.914	-5.63
272.13	47.62
272.346	45.57
272.562	27.14
272.777	29.18
272.993	18.94
273.209	43.52
273.425	25.09
273.64	33.28
273.856	10.75
274.072	43.52
274.287	6.66
274.503	-5.63
274.719	27.14
274.934	47.62
275.15	-32.26
275.366	-5.63
275.581	-5.63
275.797	14.85
276.012	0.51
276.228	92.67
276.444	29.18
276.659	53.76
276.875	66.05
277.09	82.43
277.306	31.23
277.521	53.76
277.737	-19.97
277.952	84.48
278.168	49.66
278.383	20.99
278.599	6.66
278.814	-3.58
279.03	-50.69
279.245	59.9
279.461	14.85
279.676	96.77
279.892	39.42
280.107	-36.35
280.322	-13.82
280.538	10.75
280.753	98.81
280.969	59.9
281.184	-5.63
281.399	-5.63
281.615	16.9
281.83	23.04
282.045	49.66
282.26	55.81
282.476	84.48
282.691	2.56
282.906	29.18
283.122	23.04
283.337	18.94
283.552	49.66
283.767	-30.21
283.983	78.33
284.198	-9.73
284.413	76.29
284.628	61.95
284.843	78.33
285.058	-19.97
285.274	2.56
285.489	43.52
285.704	23.04
285.919	53.76
286.134	61.95
286.349	59.9
286.564	-34.3
286.779	100.86
286.995	4.61
287.21	27.14
287.425	-28.16
287.64	-13.82
287.855	102.91
288.07	10.75
288.285	109.05
288.5	20.99
288.715	109.05
288.93	6.66
289.145	25.09
289.36	-26.11
289.575	43.52
289.79	107.01
290.004	47.62
290.219	31.23
290.434	47.62
290.649	20.99
290.864	-5.63
291.079	14.85
291.294	4.61
291.509	59.9
291.724	59.9
291.938	31.23
292.153	2.56
292.368	6.66
292.583	61.95
292.798	61.95
293.012	35.33
293.227	-7.68
293.442	35.33
293.657	6.66
293.871	4.61
294.086	45.57
294.301	64
294.516	14.85
294.73	66.05
294.945	6.66
295.16	33.28
295.374	51.71
295.589	14.85
295.804	10.75
296.018	-1.54
296.233	70.14
296.447	72.19
296.662	16.9
296.877	123.39
297.091	31.23
297.306	8.7
297.52	14.85
297.735	102.91
297.949	-9.73
298.164	-36.35
298.378	111.1
298.593	-28.16
298.807	61.95
299.022	70.14
299.236	74.24
299.451	55.81
299.665	2.56
299.88	23.04
300.094	18.94
300.309	14.85
300.523	43.52
300.737	102.91
300.952	35.33
301.166	66.05
301.381	43.52
301.595	2.56
301.809	35.33
302.024	-30.21
302.238	-34.3
302.452	-1.54
302.667	-30.21
302.881	23.04
303.095	94.72
303.309	49.66
303.524	-46.59
303.738	59.9
303.952	16.9
304.166	29.18
304.381	-13.82
304.595	119.29
304.809	-26.11
305.023	-19.97
305.237	16.9
305.452	37.38
305.666	59.9
305.88	76.29
306.094	64
306.308	61.95
306.522	-1.54
306.736	37.38
306.95	2.56
307.164	64
307.379	-30.21
307.593	27.14
307.807	-7.68
308.021	80.38
308.235	23.04
308.449	16.9
308.663	-28.16
308.877	47.62
309.091	51.71
309.305	125.44
309.519	55.81
309.733	12.8
309.947	47.62
310.161	43.52
310.374	84.48
310.588	72.19
310.802	-7.68
311.016	41.47
311.23	53.76
311.444	55.81
311.658	-30.21
311.872	25.09
312.085	27.14
312.299	39.42
312.513	90.62
312.727	125.44
312.941	57.86
313.154	53.76
313.368	-24.06
313.582	27.14
313.796	37.38
314.009	45.57
314.223	10.75
314.437	51.71
314.651	-5.63
314.864	-40.45
315.078	53.76
315.292	66.05
315.505	23.04
315.719	-38.4
315.933	82.43
316.146	-5.63
316.36	72.19
316.573	82.43
316.787	53.76
317.001	37.38
317.214	-42.5
317.428	61.95
317.641	72.19
317.855	61.95
318.068	37.38
318.282	4.61
318.495	104.96
318.709	90.62
318.922	25.09
319.136	29.18
319.349	57.86
319.563	-24.06
319.776	16.9
319.99	43.52
320.203	12.8
320.417	23.04
320.63	14.85
320.843	78.33
321.057	107.01
321.27	57.86
321.483	-19.97
321.697	96.77
321.91	-36.35
322.124	25.09
322.337	18.94
322.55	33.28
322.763	-40.45
322.977	31.23
323.19	55.81
323.403	66.05
323.617	76.29
323.83	115.2
324.043	51.71
324.256	18.94
324.469	-1.54
324.683	121.34
324.896	39.42
325.109	57.86
325.322	59.9
325.535	0.51
325.748	45.57
325.962	8.7
326.175	45.57
326.388	78.33
326.601	35.33
326.814	-44.54
327.027	23.04
327.24	6.66
327.453	55.81
327.666	70.14
327.879	72.19
328.092	115.2
328.305	47.62
328.518	66.05
328.731	33.28
328.944	-13.82
329.157	86.53
329.37	-28.16
329.583	59.9
329.796	66.05
330.009	16.9
330.222	33.28
330.435	115.2
330.648	55.81
330.861	18.94
331.073	102.91
331.286	39.42
331.499	84.48
331.712	66.05
331.925	4.61
332.138	76.29
332.35	51.71
332.563	66.05
332.776	45.57
332.989	23.04
333.202	43.52
333.414	0.51
333.627	-19.97
333.84	20.99
334.053	49.66
334.265	33.28
334.478	55.81
334.691	98.81
334.903	61.95
335.116	18.94
335.329	39.42
335.541	82.43
335.754	109.05
335.966	49.66
336.179	74.24
336.392	-9.73
336.604	84.48
336.817	41.47
337.029	53.76
337.242	137.73
337.454	80.38
337.667	68.09
337.88	66.05
338.092	64
338.305	33.28
338.517	25.09
338.729	37.38
338.942	51.71
339.154	23.04
339.367	49.66
339.579	66.05
339.792	84.48
340.004	127.49
340.217	84.48
340.429	12.8
340.641	47.62
340.854	-19.97
341.066	0.51
341.278	23.04
341.491	80.38
341.703	90.62
341.915	47.62
342.128	-44.54
342.34	37.38
342.552	10.75
342.764	-11.78
342.977	23.04
343.189	6.66
343.401	64
343.613	86.53
343.826	37.38
344.038	49.66
344.25	121.34
344.462	121.34
344.674	29.18
344.886	-19.97
345.099	16.9
345.311	90.62
345.523	-5.63
345.735	27.14
345.947	53.76
346.159	47.62
346.371	-28.16
346.583	33.28
346.795	94.72
347.007	102.91
347.219	82.43
347.431	14.85
347.643	98.81
347.855	12.8
348.067	70.14
348.279	25.09
348.491	45.57
348.703	39.42
348.915	78.33
349.127	-9.73
349.339	-1.54
349.551	-1.54
349.763	53.76
349.975	23.04
350.187	92.67
350.399	20.99
350.61	39.42
350.822	6.66
351.034	33.28
351.246	27.14
351.458	-11.78
351.669	31.23
351.881	20.99
352.093	39.42
352.305	64
352.517	84.48
352.728	-19.97
352.94	53.76
353.152	57.86
353.363	4.61
353.575	45.57
353.787	31.23
353.999	70.14
354.21	72.19
354.422	84.48
354.633	107.01
354.845	45.57
355.057	84.48
355.268	64
355.48	29.18
355.692	80.38
355.903	23.04
356.115	72.19
356.326	66.05
356.538	16.9
356.749	16.9
356.961	76.29
357.172	35.33
357.384	39.42
357.595	61.95
357.807	64
358.018	23.04
358.23	109.05
358.441	82.43
358.653	80.38
358.864	35.33
359.075	-22.02
359.287	76.29
359.498	61.95
359.709	4.61
359.921	104.96
360.132	16.9
360.344	70.14
360.555	61.95
360.766	41.47
360.977	33.28
361.189	10.75
361.4	35.33
361.611	86.53
361.823	27.14
362.034	102.91
362.245	-34.3
362.456	76.29
362.667	64
362.879	12.8
363.09	131.58
363.301	55.81
363.512	8.7
363.723	4.61
363.935	16.9
364.146	4.61
364.357	61.95
364.568	20.99
364.779	41.47
364.99	72.19
365.201	14.85
365.412	61.95
365.623	78.33
365.834	86.53
366.045	41.47
366.256	8.7
366.467	37.38
366.678	29.18
366.889	37.38
367.1	-19.97
367.311	47.62
367.522	-19.97
367.733	88.57
367.944	109.05
368.155	47.62
368.366	43.52
368.577	6.66
368.788	12.8
368.999	-48.64
369.209	47.62
369.42	70.14
369.631	92.67
369.842	123.39
370.053	43.52
370.264	90.62
370.474	29.18
370.685	18.94
370.896	39.42
371.107	66.05
371.317	-38.4
371.528	43.52
371.739	61.95
371.95	66.05
372.16	109.05
372.371	53.76
372.582	88.57
372.792	84.48
373.003	10.75
373.214	72.19
373.424	59.9
373.635	2.56
373.846	29.18
374.056	23.04
374.267	92.67
374.477	-9.73
374.688	43.52
374.898	74.24
375.109	80.38
375.319	111.1
375.53	53.76
375.74	33.28
375.951	51.71
376.161	64
376.372	98.81
376.582	64
376.793	31.23
377.003	33.28
377.214	20.99
377.424	74.24
377.635	66.05
377.845	53.76
378.055	100.86
378.266	61.95
378.476	8.7
378.686	35.33
378.897	66.05
379.107	16.9
379.317	64
379.528	59.9
379.738	35.33
379.948	55.81
380.158	121.34
380.369	109.05
380.579	100.86
380.789	84.48
380.999	64
381.21	39.42
381.42	53.76
381.63	109.05
381.84	31.23
382.05	29.18
382.261	88.57
382.471	109.05
382.681	59.9
382.891	55.81
383.101	90.62
383.311	80.38
383.521	-44.54
383.731	131.58
383.941	107.01
384.151	-1.54
384.361	47.62
384.571	82.43
384.781	72.19
384.991	125.44
385.201	119.29
385.411	82.43
385.621	80.38
385.831	16.9
386.041	29.18
386.251	88.57
386.461	70.14
386.671	57.86
386.881	72.19
387.091	61.95
387.301	121.34
387.511	0.51
387.72	16.9
387.93	-19.97
388.14	57.86
388.35	76.29
388.56	135.68
388.769	94.72
388.979	131.58
389.189	41.47
389.399	-13.82
389.609	78.33
389.818	123.39
390.028	10.75
390.238	23.04
390.447	152.06
390.657	88.57
390.867	125.44
391.076	78.33
391.286	33.28
391.496	100.86
391.705	107.01
391.915	-3.58
392.125	84.48
392.334	100.86
392.544	154.11
392.753	125.44
392.963	64
393.172	121.34
393.382	145.92
393.591	164.35
393.801	166.4
394.01	123.39
394.22	72.19
394.429	113.15
394.639	123.39
394.848	92.67
395.058	61.95
395.267	37.38
395.477	102.91
395.686	102.91
395.895	129.53
396.105	168.45
396.314	96.77
396.524	158.21
396.733	59.9
396.942	121.34
397.152	117.25
397.361	102.91
397.57	127.49
397.78	150.01
397.989	100.86
398.198	213.5
398.407	125.44
398.617	186.88
398.826	160.25
399.035	184.83
399.244	100.86
399.453	145.92
399.663	139.77
399.872	141.82
400.081	166.4
400.29	162.3
400.499	135.68
400.708	139.77
400.917	143.87
401.127	90.62
401.336	133.63
401.545	229.88
401.754	164.35
401.963	121.34
402.172	121.34
402.381	121.34
402.59	178.69
402.799	135.68
403.008	158.21
403.217	162.3
403.426	107.01
403.635	137.73
403.844	141.82
404.053	100.86
404.262	143.87
404.471	141.82
404.68	141.82
404.888	156.16
405.097	115.2
405.306	182.78
405.515	180.73
405.724	221.69
405.933	274.94
406.142	109.05
406.35	248.32
406.559	209.4
406.768	287.23
406.977	246.27
407.185	287.23
407.394	301.56
407.603	215.55
407.812	264.7
408.02	313.85
408.229	309.76
408.438	238.08
408.646	186.88
408.855	324.09
409.064	320
409.272	346.62
409.481	375.29
409.69	397.82
409.898	373.24
410.107	418.3
410.315	367.1
410.524	424.44
410.733	414.2
410.941	465.4
411.15	471.54
411.358	469.5
411.567	520.7
411.775	518.65
411.984	522.74
412.192	604.66
412.401	643.57
412.609	473.59
412.818	670.2
413.026	594.42
413.234	655.86
413.443	748.02
413.651	641.53
413.86	770.55
414.068	715.25
414.276	819.7
414.485	778.74
414.693	975.35
414.901	930.29
415.11	932.34
415.318	938.48
415.526	946.67
415.734	1006.06
415.943	1071.6
416.151	1067.5
416.359	1087.98
416.567	1174
416.776	1251.82
416.984	1264.11
417.192	1374.7
417.4	1323.5
417.608	1294.83
417.817	1372.65
418.025	1403.37
418.233	1526.25
418.441	1468.91
418.649	1593.83
418.857	1726.95
419.065	1714.66
419.273	1688.04
419.481	1780.2
419.689	1903.07
419.897	2023.91
420.105	2042.34
420.313	2169.31
420.521	2214.37
420.729	2122.21
420.937	2273.76
421.145	2329.05
421.353	2408.92
421.561	2398.68
421.769	2724.31
421.977	2671.06
422.185	2779.61
422.393	2865.62
422.601	2965.97
422.809	3068.37
423.017	3068.37
423.224	3195.34
423.432	3275.21
423.64	3285.45
423.848	3596.75
424.056	3445.2
424.263	3791.3
424.471	3791.3
424.679	3951.04
424.887	4084.16
425.094	4202.94
425.302	4299.2
425.51	4311.49
425.718	4553.15
425.925	4596.15
426.133	4782.52
426.341	4979.12
426.548	5175.73
426.756	5093.81
426.964	5419.44
427.171	5595.56
427.379	5700.01
427.586	5890.47
427.794	6085.03
428.001	6275.49
428.209	6465.95
428.417	6306.21
428.624	6857.11
428.832	7074.2
429.039	6959.51
429.247	6818.2
429.454	7575.95
429.662	8034.69
429.869	7498.13
430.076	7987.59
430.284	7729.55
430.491	8081.8
430.699	8638.84
430.906	8565.12
431.114	8708.48
431.321	8917.37
431.528	9091.45
431.736	9689.45
431.943	10330.47
432.15	9916.78
432.358	10097
432.565	10639.71
432.772	10453.34
432.979	11209.04
433.187	11391.31
433.394	11297.11
433.601	12042.57
433.808	12132.68
434.016	12079.43
434.223	12529.98
434.43	13510.96
434.637	13041.98
434.844	13740.33
435.052	14125.35
435.259	14162.22
435.466	14379.3
435.673	14057.77
435.88	14833.95
436.087	15563.03
436.294	15733.01
436.501	15497.49
436.708	15685.9
436.915	16427.27
437.122	16744.7
437.329	16947.45
437.537	17254.65
437.743	17613.04
437.95	17606.9
438.157	18331.88
438.364	19155.16
438.571	19142.88
438.778	19300.57
438.985	20811.97
439.192	19892.43
439.399	20746.44
439.606	20218.06
439.813	21207.23
440.02	22882.47
440.227	21924.02
440.433	22091.95
440.64	23148.7
440.847	22716.58
441.054	23394.46
441.261	24699.02
441.467	24625.29
441.674	25018.5
441.881	25763.96
442.088	25866.36
442.294	25567.35
442.501	26601.58
442.708	27072.61
442.914	27994.2
443.121	29239.36
443.328	28325.97
443.534	30335.03
443.741	29526.08
443.948	29061.19
444.154	31066.15
444.361	30793.77
444.568	31105.06
444.774	30814.25
444.981	31311.91
445.187	32278.55
445.394	33564.67
445.6	33237
445.807	36415.44
446.013	34983.91
446.22	35377.12
446.426	36952.01
446.633	37337.03
446.839	38346.68
447.046	36863.95
447.252	39309.22
447.459	39106.48
447.665	38666.16
447.871	40484.76
448.078	42110.85
448.284	40058.78
448.491	41611.14
448.697	42934.13
448.903	43810.66
449.11	44132.19
449.316	43179.89
449.522	43913.06
449.728	45033.3
449.935	45379.4
450.141	45455.18
450.347	46268.22
450.553	44896.08
450.76	45672.26
450.966	47030.07
451.172	46632.76
451.378	47589.16
451.584	46880.56
451.791	47695.66
451.997	47824.68
452.203	48590.62
452.409	48373.53
452.615	48299.81
452.821	46102.34
453.027	46069.57
453.233	47925.03
453.44	46706.49
453.646	47154.99
453.852	47204.14
454.058	48357.15
454.264	46643
454.47	47562.54
454.676	46253.89
454.882	48078.63
455.088	44017.5
455.294	44355.42
455.5	45285.2
455.705	45774.66
455.911	43829.09
456.117	43183.98
456.323	42473.34
456.529	40370.07
456.735	42006.4
456.941	41015.18
457.147	40249.24
457.352	38760.37
457.558	38975.41
457.764	38373.3
457.97	37875.65
458.176	37162.95
458.381	37353.41
458.587	35545.06
458.793	35432.42
458.999	33722.37
459.204	36229.08
459.41	34985.96
459.616	32770.06
459.821	32600.08
460.027	32575.5
460.233	31633.44
460.438	30449.71
460.644	30767.15
460.85	29509.69
461.055	28794.95
461.261	28837.96
461.466	26681.45
461.672	25741.43
461.878	27975.77
462.083	25788.53
462.289	25096.32
462.494	25370.75
462.7	24027.28
462.905	23496.86
463.111	24393.87
463.316	24453.26
463.522	23396.51
463.727	23597.21
463.932	23695.51
464.138	23507.1
464.343	23349.4
464.549	22589.61
464.754	23632.02
464.959	23416.99
465.165	23378.08
465.37	22343.85
465.575	21631.16
465.781	22419.63
465.986	22685.86
466.191	21915.83
466.397	21264.57
466.602	20486.34
466.807	21145.79
467.012	21074.11
467.218	21113.02
467.423	20955.33
467.628	20996.29
467.833	21508.28
468.038	21014.72
468.244	20375.75
468.449	21203.13
468.654	20125.9
468.859	20367.56
469.064	20164.81
469.269	19345.62
469.474	19730.64
469.679	20074.7
469.885	19124.44
470.09	19640.53
470.295	19634.39
470.5	19314.91
470.705	19075.29
470.91	18659.56
471.115	18553.06
471.32	18882.78
471.525	18733.28
471.73	18315.5
471.935	18090.22
472.139	17508.6
472.344	17838.32
472.549	17703.15
472.754	17465.59
472.959	17209.59
473.164	16623.87
473.369	16447.75
473.574	17283.32
473.778	17101.05
473.983	16886.01
474.188	16818.43
474.393	15984.91
474.598	16158.99
474.802	15661.33
475.007	16142.6
475.212	15673.62
475.417	15286.55
475.621	15032.6
475.826	15335.7
476.031	14977.31
476.235	14784.8
476.44	15071.51
476.645	14573.86
476.849	14967.07
477.054	14592.29
477.259	14416.16
477.463	14268.71
477.668	13766.96
477.872	14154.02
478.077	13736.24
478.282	13533.49
478.486	13621.55
478.691	13318.45
478.895	13379.89
479.1	13474.1
479.304	13304.12
479.509	12896.57
479.713	13068.6
479.918	12970.3
480.122	12650.81
480.326	12753.21
480.531	12693.82
480.735	12446.02
480.94	12794.17
481.144	12855.61
481.348	12271.94
481.553	12470.59
481.757	12083.53
481.961	12693.82
482.166	12667.2
482.37	12452.16
482.574	12271.94
482.778	12400.96
482.983	12392.77
483.187	12351.81
483.391	12366.15
483.595	12042.57
483.8	12099.91
484.004	12357.96
484.208	12529.98
484.412	12304.71
484.616	12206.41
484.821	12437.83
485.025	12142.92
485.229	12435.78
485.433	12210.5
485.637	11991.37
485.841	12153.16
486.045	12089.67
486.249	12257.6
486.453	12214.6
486.657	12228.93
486.861	12415.3
487.065	12022.09
487.269	12124.49
487.473	12128.58
487.677	12196.17
487.881	12355.91
488.085	12284.23
488.289	12278.08
488.493	12253.51
488.697	12419.39
488.901	12474.69
489.105	12505.41
489.309	12374.34
489.512	12366.15
489.716	12302.66
489.92	12458.31
490.124	12331.33
490.328	12577.09
490.531	12505.41
490.735	12661.05
490.939	12769.6
491.143	12767.55
491.346	12542.27
491.55	12890.43
491.754	12900.67
491.958	12859.71
492.161	12919.1
492.365	13066.55
492.569	12912.95
492.772	12824.89
492.976	13144.38
493.18	13240.63
493.383	13347.12
493.587	13363.51
493.79	13541.68
493.994	13193.53
494.197	13599.02
494.401	13707.57
494.605	13654.32
494.808	13936.94
495.012	13918.51
495.215	13889.84
495.419	14170.41
495.622	13920.56
495.825	14143.78
496.029	14098.73
496.232	14702.88
496.436	14745.89
496.639	15057.18
496.843	14799.13
497.046	15057.18
497.249	15237.4
497.453	15362.33
497.656	15388.95
497.859	15759.63
498.063	15714.58
498.266	15964.43
498.469	16007.44
498.673	16210.18
498.876	16398.6
499.079	16689.41
499.282	16529.67
499.485	16963.84
499.689	16890.11
499.892	17334.52
500.095	17344.76
500.298	17580.28
500.501	17553.65
500.705	18143.47
500.908	18419.94
501.111	18614.5
501.314	18682.08
501.517	18847.97
501.72	18946.27
501.923	19089.63
502.126	19398.87
502.329	19714.26
502.532	20011.21
502.735	20029.65
502.938	20555.97
503.141	20429
503.344	20682.95
503.547	20805.83
503.75	21512.38
503.953	21473.46
504.156	21477.56
504.359	22108.33
504.562	22165.68
504.765	22415.53
504.968	22847.65
505.17	22915.23
505.373	22886.56
505.576	23283.87
505.779	23546.01
505.982	23707.8
506.185	24350.86
506.387	24338.57
506.59	24629.38
506.793	25100.42
506.996	25139.33
507.198	25753.72
507.401	25395.32
507.604	25847.93
507.807	26632.3
508.009	26468.46
508.212	26796.14
508.415	27392.09
508.617	27277.41
508.82	27566.17
509.022	27621.47
509.225	28254.29
509.428	28397.65
509.63	28819.53
509.833	28733.51
510.035	29524.03
510.238	29333.57
510.44	30251.06
510.643	30130.23
510.845	30527.53
511.048	30498.86
511.25	30634.03
511.453	31006.76
511.655	32241.68
511.858	31555.61
512.06	32120.85
512.262	32358.42
512.465	32362.51
512.667	32962.57
512.87	33548.29
513.072	33638.4
513.274	34025.46
513.477	34299.89
513.679	34686.96
513.881	35465.19
514.084	35307.49
514.286	35635.17
514.488	35823.58
514.69	36456.4
514.893	36730.83
515.095	36956.11
515.297	37384.13
515.499	37279.69
515.701	38029.24
515.904	38391.73
516.106	38565.81
516.308	38629.3
516.51	39137.19
516.712	39423.91
516.914	40038.3
517.116	40671.12
517.318	40605.59
517.52	40546.2
517.722	40830.86
517.925	41672.58
518.127	42028.93
518.329	42379.13
518.531	42270.59
518.733	42575.73
518.935	43380.59
519.136	42823.54
519.338	43937.63
519.54	44054.37
519.742	44584.79
519.944	44842.84
520.146	45203.28
520.348	45219.66
520.55	45887.3
520.752	46018.37
520.954	46692.15
521.155	46257.98
521.357	47214.38
521.559	47169.33
521.761	48082.72
521.963	47591.21
522.164	48144.16
522.366	48156.45
522.568	48781.08
522.77	48858.9
522.971	49651.47
523.173	49239.82
523.375	49727.24
523.576	49745.67
523.778	50138.88
523.98	50312.96
524.181	50732.79
524.383	50720.51
524.584	51490.54
524.786	51105.52
524.988	51097.33
525.189	51298.03
525.391	51883.75
525.592	51885.8
525.794	52346.59
525.995	52690.65
526.197	52215.52
526.398	52475.62
526.6	53104.34
526.801	53489.36
527.003	53153.49
527.204	53530.32
527.406	53714.64
527.607	53239.51
527.808	54025.93
528.01	53259.99
528.211	53489.36
528.412	54488.77
528.614	54318.79
528.815	54369.99
529.016	54941.37
529.218	54148.81
529.419	54707.9
529.62	54445.76
529.822	54580.93
530.023	54693.57
530.224	54564.54
530.425	54863.55
530.626	54595.26
530.828	54410.95
531.029	55303.86
531.23	54691.52
531.431	54781.63
531.632	54746.81
531.833	55359.16
532.035	55152.31
532.236	55060.15
532.437	54972.09
532.638	54617.79
532.839	55209.65
533.04	55389.87
533.241	54746.81
533.442	56010.41
533.643	54959.8
533.844	55103.16
534.045	55408.31
534.246	54664.89
534.447	55412.4
534.648	55074.49
534.849	54763.2
535.05	54802.11
535.251	55152.31
535.451	54841.02
535.652	55049.91
535.853	54877.88
536.054	54834.88
536.255	54922.94
536.456	54499.01
536.657	55656.11
536.857	54488.77
537.058	54013.64
537.259	55144.12
537.46	54703.81
537.66	54781.63
537.861	54779.58
538.062	54347.46
538.263	54623.93
538.463	54673.09
538.664	54091.46
538.865	54857.4
539.065	54847.16
539.266	53980.87
539.466	54738.62
539.667	53563.09
539.868	54785.72
540.068	54210.24
540.269	54142.66
540.469	54470.34
540.67	54011.59
540.87	54214.34
541.071	53737.16
541.271	54492.86
541.472	53845.71
541.672	53667.53
541.873	53823.18
542.073	53622.48
542.274	54015.69
542.474	53583.57
542.675	53556.94
542.875	54206.15
543.075	53716.68
543.276	53249.75
543.476	54126.28
543.676	53337.81
543.877	53679.82
544.077	53690.06
544.277	53458.64
544.478	52778.71
544.678	53417.68
544.878	53526.22
545.078	53313.23
545.279	52958.94
545.479	53302.99
545.679	53520.08
545.879	52922.07
546.079	53266.13
546.28	53393.11
546.48	52846.3
546.68	53210.84
546.88	53210.84
547.08	53147.35
547.28	53079.77
547.48	52508.38
547.68	53061.33
547.88	52721.37
548.081	52813.53
548.281	52670.17
548.481	53090.01
548.681	52971.22
548.881	52715.23
549.081	53169.88
549.28	52709.08
549.48	53233.36
549.68	52571.87
549.88	53233.36
550.08	52444.9
550.28	53049.05
550.48	52383.46
550.68	52850.39
550.88	52745.95
551.08	52530.91
551.279	52760.28
551.479	52532.96
551.679	52578.01
551.879	52379.36
552.079	52909.78
552.278	52571.87
552.478	52684.51
552.678	52508.38
552.878	52745.95
553.077	51937
553.277	52207.33
553.477	52862.68
553.676	52326.11
553.876	52483.81
554.076	51975.91
554.275	52055.78
554.475	51658.48
554.674	52328.16
554.874	52514.53
555.074	52027.11
555.273	52477.66
555.473	52422.37
555.672	52039.4
555.872	51810.03
556.071	52025.06
556.271	52352.74
556.47	51699.44
556.67	51463.92
556.869	51775.21
557.068	52219.62
557.268	51615.47
557.467	51801.83
557.667	51664.62
557.866	51793.64
558.065	51738.35
558.265	51631.85
558.464	51488.49
558.663	52031.21
558.863	51162.87
559.062	51910.38
559.261	51525.36
559.461	51656.43
559.66	50968.31
559.859	51328.75
560.058	50495.23
560.258	51160.82
560.457	51025.65
560.656	50827
560.855	50597.63
561.054	50827
561.253	50941.69
561.453	50888.44
561.652	51418.86
561.851	51152.63
562.05	50648.83
562.249	50599.68
562.448	50996.98
562.647	50470.65
562.846	50405.12
563.045	50552.57
563.244	50175.75
563.443	50401.02
563.642	49655.56
563.841	49782.54
564.04	50003.72
564.239	50351.87
564.438	49598.22
564.637	49712.91
564.836	50013.96
565.035	49200.91
565.234	49596.17
565.432	49129.23
565.631	49141.52
565.83	49413.9
566.029	49172.24
566.228	49024.79
566.427	48828.18
566.625	48580.38
566.824	48254.75
567.023	48926.49
567.222	48045.86
567.42	48819.99
567.619	48224.03
567.818	48428.83
568.016	47947.56
568.215	48475.93
568.414	48133.92
568.612	48303.9
568.811	47546.15
569.01	47974.18
569.208	47304.49
569.407	47853.35
569.605	47167.28
569.804	47902.5
570.002	47126.32
570.201	47382.32
570.4	47226.67
570.598	46915.38
570.797	46597.94
570.995	46761.78
571.193	46186.3
571.392	47056.69
571.59	45903.68
571.789	46686.01
571.987	45926.21
572.186	45766.47
572.384	45973.31
572.582	46014.27
572.781	46122.82
572.979	45307.72
573.177	45725.51
573.376	45844.29
573.574	45227.85
573.772	45463.37
573.971	44760.92
574.169	44842.84
574.367	44861.27
574.565	45141.84
574.763	44715.86
574.962	44494.68
575.16	44160.86
575.358	44711.77
575.556	43829.09
575.754	44480.35
575.952	43917.15
576.151	44302.17
576.349	43732.84
576.547	43423.59
576.745	43786.08
576.943	43710.31
577.141	43554.66
577.339	43759.46
577.537	43233.13
577.735	43196.27
577.933	42667.89
578.131	42981.23
578.329	42641.27
578.527	42233.72
578.725	42624.89
578.923	42530.68
579.121	42166.14
579.319	42440.57
579.516	42098.56
579.714	42446.71
579.912	41983.87
580.11	41906.05
580.308	41625.48
580.506	41316.23
580.704	41127.82
580.901	41629.57
581.099	41754.5
581.297	41076.62
581.495	40918.93
581.692	41217.93
581.89	40658.84
582.088	41109.39
582.285	40693.65
582.483	41240.46
582.681	40722.32
582.878	40310.68
583.076	39991.2
583.274	40441.75
583.471	39716.77
583.669	39856.03
583.866	39661.47
584.064	40189.85
584.262	39450.53
584.459	39940
584.657	39755.68
584.854	39563.17
585.052	38940.59
585.249	39409.57
585.447	39258.02
585.644	38895.53
585.841	38952.88
586.039	39081.9
586.236	38254.52
586.434	38537.14
586.631	38160.31
586.828	38248.38
587.026	38547.38
587.223	38229.94
587.42	38066.11
587.618	37984.19
587.815	37713.86
588.012	37437.38
588.21	37763.01
588.407	37672.9
588.604	37281.74
588.801	37369.8
588.999	37298.12
589.196	36982.73
589.393	37089.23
589.59	37156.81
589.787	36884.43
589.984	36616.15
590.182	36253.65
590.379	36767.69
590.576	36319.19
590.773	36474.84
590.97	36169.69
591.167	36376.53
591.364	36102.11
591.561	36427.73
591.758	35665.89
591.955	35944.41
592.152	36085.72
592.349	35823.58
592.546	35702.75
592.743	35762.14
592.94	34781.17
593.137	35565.54
593.334	35688.42
593.531	34709.49
593.727	35260.39
593.924	35157.99
594.121	34877.42
594.318	35031.02
594.515	34279.41
594.712	34738.16
594.908	34439.15
595.105	34504.69
595.302	34131.96
595.499	34695.15
595.696	34258.93
595.892	33914.87
596.089	34121.72
596.286	34211.83
596.482	33820.67
596.679	33789.95
596.876	33779.71
597.072	33179.65
597.269	33492.99
597.466	33325.06
597.662	33222.66
597.859	33251.33
598.055	33198.09
598.252	32894.99
598.448	32890.89
598.645	32849.93
598.841	32466.96
599.038	32851.98
599.234	32671.76
599.431	32444.43
599.627	32188.44
599.824	32708.62
600.02	32782.35
600.217	32323.6
600.413	32081.94
600.609	32034.84
600.806	32403.47
601.002	31862.81
601.198	31840.28
601.395	31512.61
601.591	31627.29
601.787	31885.34
601.984	31471.65
602.18	31551.52
602.376	31272.99
602.572	30943.27
602.769	31369.25
602.965	30890.02
603.161	31287.33
603.357	31004.71
603.553	30849.07
603.75	30699.56
603.946	30543.92
604.142	30849.07
604.338	30384.18
604.534	30619.69
604.73	30412.85
604.926	30289.97
605.122	30365.74
605.318	29892.66
605.514	30191.67
605.71	29644.86
605.906	29882.42
606.102	29968.44
606.298	29675.58
606.494	29876.28
606.69	29990.97
606.886	29810.75
607.082	29091.91
607.278	29825.08
607.474	29222.98
607.67	29382.72
607.866	28870.73
608.062	29333.57
608.257	29194.31
608.453	29327.42
608.649	29118.53
608.845	28811.34
609.041	29063.24
609.236	29202.5
609.432	28743.75
609.628	28778.57
609.824	28823.62
610.019	28840.01
610.215	28608.59
610.411	28926.02
610.606	28358.74
610.802	28655.69
610.998	28706.89
611.193	28491.85
611.389	28432.46
611.584	28074.07
611.78	28041.3
611.976	28282.96
612.171	27996.24
612.367	28043.35
612.562	27703.39
612.758	27813.98
612.953	27734.1
613.149	27899.99
613.344	27496.54
613.539	27947.09
613.735	27691.1
613.93	27711.58
614.126	27467.87
614.321	27586.65
614.517	27459.68
614.712	27189.35
614.907	27549.79
615.103	27760.73
615.298	27134.05
615.493	27152.48
615.688	27000.93
615.884	27652.19
616.079	26986.6
616.274	27203.68
616.47	27080.8
616.665	26902.63
616.86	26855.53
617.055	26603.63
617.25	26687.59
617.445	26912.87
617.641	26280.05
617.836	26505.32
618.031	26153.07
618.226	26753.13
618.421	26212.46
618.616	26552.43
618.811	25731.19
619.006	26617.96
619.201	25827.45
619.396	26007.67
619.591	25514.11
619.786	25903.22
619.981	25366.65
620.176	25720.95
620.371	25153.66
620.566	25436.28
620.761	25301.12
620.956	25333.89
621.151	24805.51
621.346	24817.8
621.541	24787.08
621.735	24944.77
621.93	24303.76
622.125	24547.47
622.32	23937.17
622.515	24258.7
622.709	24164.5
622.904	23935.12
623.099	23679.13
623.294	23875.73
623.488	23507.1
623.683	23597.21
623.878	23132.32
624.072	23249.05
624.267	23120.03
624.462	23021.73
624.656	22485.16
624.851	22855.84
625.046	22816.93
625.24	22694.05
625.435	22503.59
625.629	22454.44
625.824	22053.04
626.018	22087.85
626.213	21766.32
626.407	22055.09
626.602	21463.22
626.796	21301.43
626.991	21645.49
627.185	21426.36
627.38	21100.73
627.574	20945.09
627.768	20728
627.963	20850.88
628.157	20625.61
628.352	20844.74
628.546	20422.86
628.74	20646.08
628.935	20242.64
629.129	20451.53
629.323	19796.18
629.517	20222.16
629.712	19749.07
629.906	19902.67
630.1	19620.05
630.294	19454.17
630.489	19534.04
630.683	19650.77
630.877	19269.85
631.071	19116.25
631.265	19222.75
631.459	18954.46
631.653	18847.97
631.848	18938.08
632.042	18628.84
632.236	18815.2
632.43	18585.83
632.624	18493.67
632.818	18321.64
633.012	18311.4
633.206	18505.96
633.4	18059.5
633.594	17879.28
633.788	17910
633.982	17690.87
634.176	17770.74
634.369	17703.15
634.563	17617.14
634.757	17320.18
634.951	17637.62
635.145	17330.42
635.339	17428.73
635.533	17146.11
635.726	17189.11
635.92	16697.6
636.114	16969.98
636.308	16728.32
636.501	16898.3
636.695	16642.31
636.889	16494.85
637.083	16513.28
637.276	16236.81
637.47	16277.77
637.664	16023.82
637.857	16165.13
638.051	16075.02
638.244	15857.93
638.438	15685.9
638.632	15747.34
638.825	15753.49
639.019	15403.28
639.212	15360.28
639.406	15266.07
639.599	15161.62
639.793	15112.47
639.986	15048.99
640.18	15153.43
640.373	15083.8
640.567	14780.7
640.76	14836
640.954	14752.03
641.147	14387.49
641.34	14352.68
641.534	14270.76
641.727	14307.62
641.92	14215.46
642.114	14078.25
642.307	14135.59
642.5	13789.49
642.694	13748.53
642.887	13859.12
643.08	13893.93
643.273	13629.74
643.467	13719.85
643.66	13322.55
643.853	13402.42
644.046	13361.46
644.239	13152.57
644.432	13013.31
644.626	13068.6
644.819	12884.28
645.012	13125.94
645.205	12880.19
645.398	12915
645.591	12894.52
645.784	12804.41
645.977	12212.55
646.17	12331.33
646.363	12347.72
646.556	12028.23
646.749	12319.04
646.942	12190.02
647.135	12075.34
647.328	11921.74
647.521	12091.72
647.714	11776.33
647.907	11776.33
648.099	11678.03
648.292	11592.02
648.485	11561.3
648.678	11434.32
648.871	11589.97
649.064	11479.38
649.256	11458.9
649.449	11356.5
649.642	11245.91
649.835	11194.71
650.027	11178.33
650.22	11096.41
650.413	11075.93
650.605	10731.87
650.798	10842.46
650.991	10656.09
651.183	10723.68
651.376	10713.44
651.568	10727.77
651.761	10602.85
651.954	10381.67
652.146	10504.54
652.339	10348.9
652.531	10504.54
652.724	10275.17
652.916	10244.45
653.109	10309.99
653.301	10228.07
653.494	10076.52
653.686	9886.06
653.879	9886.06
654.071	9982.31
654.263	9791.85
654.456	9714.03
654.648	9705.84
654.84	9714.03
655.033	9587.05
655.225	9558.38
655.417	9531.76
655.61	9486.7
655.802	9562.48
655.994	9376.11
656.186	9605.49
656.379	9017.72
656.571	9247.09
656.763	9294.19
656.955	9066.87
657.148	8970.62
657.34	8925.56
657.532	9113.97
657.724	8882.55
657.916	8976.76
658.108	8886.65
658.3	8974.71
658.492	8741.24
658.684	8638.84
658.876	8771.96
659.068	8747.39
659.26	8491.39
659.452	8614.27
659.644	8530.3
659.836	8247.68
660.028	8350.08
660.22	8249.73
660.412	8188.29
660.604	8235.39
660.796	8284.55
660.988	8120.71
661.18	7973.25
661.372	7995.78
661.563	7942.53
661.755	8108.42
661.947	7907.72
662.139	7909.77
662.331	7694.73
662.522	7532.94
662.714	7704.97
662.906	7532.94
663.097	7713.16
663.289	7625.1
663.481	7575.95
663.673	7481.74
663.864	7614.86
664.056	7393.68
664.247	7485.84
664.439	7205.27
664.631	7348.62
664.822	7156.11
665.014	7246.23
665.205	7135.64
665.397	7033.24
665.588	6996.37
665.78	7049.62
665.971	6963.61
666.163	6947.22
666.354	7041.43
666.546	6855.06
666.737	6947.22
666.929	6767
667.12	6871.45
667.311	6762.9
667.503	6711.71
667.694	6615.45
667.885	6629.79
668.077	6619.55
668.268	6470.05
668.459	6570.4
668.651	6631.83
668.842	6513.05
669.033	6470.05
669.224	6549.92
669.416	6488.48
669.607	6361.5
669.798	6461.85
669.989	6343.07
670.18	6390.17
670.371	6130.08
670.563	6304.16
670.754	6332.83
670.945	6146.47
671.136	6355.36
671.327	6248.86
671.518	6255.01
671.709	6279.58
671.9	6173.09
672.091	5927.33
672.282	6021.54
672.473	5984.68
672.664	6058.4
672.855	6050.21
673.046	5798.31
673.237	6089.12
673.428	5898.66
673.619	5788.07
673.809	5779.88
674	5888.42
674.191	5779.88
674.382	5704.1
674.573	5581.23
674.764	5693.87
674.954	5949.86
675.145	5659.05
675.336	5679.53
675.527	5720.49
675.717	5765.54
675.908	5550.51
676.099	5530.03
676.289	5562.8
676.48	5521.84
676.671	5439.92
676.861	5421.49
677.052	5478.83
677.243	5441.96
677.433	5519.79
677.624	5478.83
677.814	5317.04
678.005	5444.01
678.195	5388.72
678.386	5335.47
678.576	5321.13
678.767	5407.15
678.957	5419.44
679.148	5218.74
679.338	5218.74
679.529	5228.98
679.719	5114.29
679.909	5312.94
680.1	5226.93
680.29	5263.79
680.481	5296.56
680.671	5106.1
680.861	5130.67
681.052	5321.13
681.242	5292.46
681.432	5054.9
681.622	5030.32
681.813	5067.19
682.003	5079.47
682.193	4991.41
682.383	5145.01
682.573	5108.15
682.764	5155.25
682.954	5085.62
683.144	5165.49
683.334	5071.28
683.524	5042.61
683.714	5085.62
683.904	4956.6
684.094	5007.8
684.284	5081.52
684.474	5003.7
684.664	4841.91
684.854	4897.21
685.044	4891.06
685.234	4839.86
685.424	4934.07
685.614	4948.4
685.804	4913.59
685.994	4815.29
686.184	4909.49
686.374	4794.81
686.564	4788.66
686.753	4735.42
686.943	4692.41
687.133	4673.98
687.323	4733.37
687.513	4716.98
687.702	4698.55
687.892	4741.56
688.082	4590.01
688.272	4719.03
688.461	4800.95
688.651	4737.46
688.841	4549.05
689.03	4573.63
689.22	4610.49
689.41	4563.39
689.599	4651.45
689.789	4602.3
689.979	4499.9
690.168	4557.24
690.358	4420.03
690.547	4581.82
690.737	4518.33
690.926	4532.67
691.116	4413.88
691.305	4327.87
691.495	4452.8
691.684	4483.52
691.874	4417.98
692.063	4346.3
692.252	4256.19
692.442	4446.65
692.631	4313.53
692.82	4460.99
693.01	4229.57
693.199	4288.96
693.388	4319.68
693.578	4336.06
693.767	4374.97
693.956	4059.59
694.146	4252.1
694.335	4184.51
694.524	4118.98
694.713	4264.38
694.902	4159.94
695.092	4229.57
695.281	4215.23
695.47	4221.38
695.659	4153.79
695.848	4123.07
696.037	4043.2
696.226	4184.51
696.415	4129.22
696.604	4125.12
696.793	3994.05
696.982	4071.87
697.171	3961.28
697.36	4147.65
697.549	4143.55
697.738	4012.48
697.927	4090.31
698.116	4149.7
698.305	3957.19
698.494	4086.21
698.683	3961.28
698.872	4006.34
699.061	4116.93
699.25	3893.7
699.438	4127.17
699.627	3973.57
699.816	3938.76
700.005	4004.29
700.193	3920.32
700.382	3944.9
700.571	3920.32
700.76	4006.34
700.948	3959.24
701.137	3996.1
701.326	3889.6
701.514	3873.22
701.703	3748.29
701.892	3969.48
702.08	3850.69
702.269	3783.11
702.457	3826.12
702.646	3852.74
702.834	3717.58
703.023	3879.36
703.212	3994.05
703.4	3779.01
703.589	3811.78
703.777	3727.82
703.965	3807.69
704.154	3709.38
704.342	3793.35
704.531	3776.97
704.719	3668.42
704.907	3793.35
705.096	3742.15
705.284	3693
705.472	3721.67
705.661	3733.96
705.849	3748.29
706.037	3693
706.226	3770.82
706.414	3633.61
706.602	3514.83
706.79	3654.09
706.979	3543.5
707.167	3658.18
707.355	3512.78
707.543	3541.45
707.731	3703.24
707.919	3525.07
708.107	3484.11
708.296	3457.48
708.484	3494.35
708.672	3461.58
708.86	3377.61
709.048	3480.01
709.236	3592.65
709.424	3428.81
709.612	3408.33
709.8	3453.39
709.988	3383.76
710.176	3385.8
710.364	3459.53
710.551	3301.84
710.739	3246.54
710.927	3389.9
711.115	3242.45
711.303	3115.47
711.491	3426.76
711.679	3273.17
711.866	3344.84
712.054	3363.28
712.242	3291.6
712.43	3420.62
712.617	3207.63
712.805	3205.58
712.993	3195.34
713.181	3203.54
713.368	3144.14
713.556	3156.43
713.744	3045.84
713.931	3109.33
714.119	3043.79
714.306	3213.77
714.494	3056.08
714.682	3160.53
714.869	3021.27
715.057	3148.24
715.244	3027.41
715.432	3121.62
715.619	2996.69
715.807	3033.55
715.994	3076.56
716.182	3011.03
716.369	3011.03
716.556	2986.45
716.744	3029.46
716.931	2943.44
717.119	2963.92
717.306	2965.97
717.493	2974.16
717.681	2931.16
717.868	2863.57
718.055	2830.8
718.242	2918.87
718.43	2898.39
718.617	2843.09
718.804	2742.74
718.991	2898.39
719.179	2904.53
719.366	2865.62
719.553	2914.77
719.74	2738.65
719.927	2798.04
720.114	2841.04
720.301	2740.69
720.488	2730.45
720.676	2982.35
720.863	2800.09
721.05	2738.65
721.237	2669.02
721.424	2787.8
721.611	2757.08
721.798	2728.41
721.985	2691.54
722.172	2826.71
722.358	2583
722.545	2752.98
722.732	2621.91
722.919	2662.87
723.106	2630.1
723.293	2478.55
723.48	2652.63
723.667	2560.47
723.853	2513.37
724.04	2576.86
724.227	2660.82
724.414	2464.22
724.6	2542.04
724.787	2535.9
724.974	2550.23
725.161	2521.56
725.347	2527.71
725.534	2560.47
725.72	2494.94
725.907	2531.8
726.094	2462.17
726.28	2406.88
726.467	2341.34
726.653	2470.36
726.84	2398.68
727.027	2523.61
727.213	2419.16
727.4	2359.77
727.586	2320.86
727.773	2355.68
727.959	2456.03
728.145	2312.67
728.332	2367.96
728.518	2351.58
728.705	2427.35
728.891	2410.97
729.077	2284
729.264	2288.09
729.45	2304.48
729.636	2286.05
729.823	2367.96
730.009	2365.92
730.195	2275.81
730.382	2275.81
730.568	2288.09
730.754	2304.48
730.94	2284
731.126	2224.61
731.313	2310.62
731.499	2169.31
731.685	2148.83
731.871	2222.56
732.057	2273.76
732.243	2197.98
732.429	2189.79
732.615	2357.72
732.801	2183.65
732.987	2140.64
733.173	2157.02
733.359	2101.73
733.545	2130.4
733.731	2122.21
733.917	2062.82
734.103	2062.82
734.289	2087.39
734.475	2025.95
734.661	2099.68
734.847	2161.12
735.033	2054.62
735.219	2095.58
735.404	1995.23
735.59	2028
735.776	2132.45
735.962	1997.28
736.148	2089.44
736.333	2040.29
736.519	2122.21
736.705	2028
736.89	2009.57
737.076	2013.67
737.262	1970.66
737.447	1968.61
737.633	1984.99
737.819	1888.74
738.004	1956.32
738.19	1952.23
738.375	1886.69
738.561	2083.3
738.747	1978.85
738.932	2036.19
739.118	1915.36
739.303	1884.64
739.489	1823.2
739.674	1921.51
739.859	1898.98
740.045	1853.92
740.23	1896.93
740.416	1776.1
740.601	1831.4
740.786	1866.21
740.972	1931.75
741.157	1862.12
741.342	1864.16
741.528	1798.63
741.713	1823.2
741.898	1774.05
742.084	1761.77
742.269	1706.47
742.454	1765.86
742.639	1774.05
742.824	1843.68
743.01	1886.69
743.195	1702.37
743.38	1608.17
743.565	1794.53
743.75	1657.32
743.935	1681.89
744.12	1763.81
744.305	1636.84
744.49	1716.71
744.675	1706.47
744.86	1622.5
745.045	1688.04
745.23	1567.21
745.415	1612.26
745.6	1683.94
745.785	1659.37
745.97	1556.97
746.155	1638.89
746.34	1579.5
746.525	1575.4
746.71	1571.3
746.895	1442.28
747.079	1499.63
747.264	1554.92
747.449	1534.44
747.634	1604.07
747.819	1587.69
748.003	1399.27
748.188	1503.72
748.373	1438.19
748.557	1532.39
748.742	1489.39
748.927	1434.09
749.111	1495.53
749.296	1421.8
749.481	1436.14
749.665	1456.62
749.85	1278.44
750.034	1380.84
750.219	1341.93
750.404	1206.77
750.588	1335.79
750.773	1341.93
750.957	1307.12
751.141	1268.2
751.326	1339.88
751.51	1292.78
751.695	1253.87
751.879	1253.87
752.064	1251.82
752.248	1395.18
752.432	1341.93
752.617	1188.33
752.801	1284.59
752.985	1274.35
753.17	1200.62
753.354	1118.7
753.538	1225.2
753.722	1126.89
753.907	1202.67
754.091	1184.24
754.275	1100.27
754.459	1126.89
754.643	1151.47
754.828	1196.53
755.012	1139.18
755.196	1108.46
755.38	1147.37
755.564	1128.94
755.748	1053.17
755.932	1178.09
756.116	1112.56
756.3	1075.7
756.484	1102.32
756.668	1008.11
756.852	1133.04
757.036	1057.26
757.22	999.92
757.404	999.92
757.588	967.15
757.772	952.82
757.956	1059.31
758.14	1092.08
758.323	1006.06
758.507	946.67
758.691	944.63
758.875	1030.64
759.059	958.96
759.242	987.63
759.426	965.11
759.61	991.73
759.794	1022.45
759.977	979.44
760.161	1012.21
760.345	977.39
760.528	969.2
760.712	1004.02
760.895	913.91
761.079	942.58
761.263	913.91
761.446	829.94
761.63	856.56
761.813	997.87
761.997	866.8
762.18	965.11
762.364	907.76
762.547	834.04
762.731	881.14
762.914	872.95
763.098	924.15
763.281	864.75
763.464	954.87
763.648	745.97
763.831	834.04
764.015	760.31
764.198	850.42
764.381	915.95
764.564	864.75
764.748	860.66
764.931	809.46
765.114	819.7
765.297	696.82
765.481	842.23
765.664	803.32
765.847	774.64
766.03	840.18
766.213	748.02
766.397	780.79
766.58	817.65
766.763	815.6
766.946	862.71
767.129	762.36
767.312	885.23
767.495	678.39
767.678	844.28
767.861	774.64
768.044	739.83
768.227	696.82
768.41	719.35
768.593	686.58
768.776	776.69
768.959	840.18
769.142	780.79
769.324	711.16
769.507	754.16
769.69	782.84
769.873	756.21
770.056	782.84
770.239	592.37
770.421	780.79
770.604	698.87
770.787	678.39
770.97	674.29
771.152	694.77
771.335	748.02
771.518	659.96
771.7	725.49
771.883	682.49
772.066	610.81
772.248	662.01
772.431	688.63
772.613	760.31
772.796	659.96
772.978	664.05
773.161	735.73
773.343	619
773.526	678.39
773.708	623.09
773.891	612.85
774.073	666.1
774.256	610.81
774.438	729.59
774.621	551.42
774.803	659.96
774.985	612.85
775.168	616.95
775.35	645.62
775.532	575.99
775.715	612.85
775.897	561.66
776.079	602.61
776.261	612.85
776.444	535.03
776.626	643.57
776.808	567.8
776.99	584.18
777.173	553.46
777.355	565.75
777.537	571.9
777.719	461.3
777.901	563.7
778.083	608.76
778.265	553.46
778.447	514.55
778.629	543.22
778.811	557.56
778.993	549.37
779.175	520.7
779.357	508.41
779.539	561.66
779.721	526.84
779.903	420.35
780.085	502.26
780.267	539.13
780.449	489.98
780.631	551.42
780.812	502.26
780.994	496.12
781.176	469.5
781.358	446.97
781.54	510.46
781.721	461.3
781.903	459.26
782.085	506.36
782.267	469.5
782.448	399.87
782.63	414.2
782.812	420.35
782.993	453.11
783.175	332.28
783.357	379.39
783.538	434.68
783.72	467.45
783.901	360.95
784.083	477.69
784.264	440.83
784.446	395.77
784.627	410.11
784.809	403.96
784.99	483.83
785.172	451.07
785.353	315.9
785.535	322.04
785.716	436.73
785.897	342.52
786.079	332.28
786.26	424.44
786.441	385.53
786.623	266.75
786.804	346.62
786.985	367.1
787.167	344.57
787.348	350.71
787.529	367.1
787.71	461.3
787.891	358.91
788.073	401.91
788.254	313.85
788.435	334.33
788.616	301.56
788.797	285.18
788.978	289.28
789.159	320
789.34	303.61
789.522	291.32
789.703	420.35
789.884	268.8
790.065	315.9
790.246	283.13
790.427	344.57
790.607	295.42
790.788	248.32
790.969	258.56
791.15	301.56
791.331	311.8
791.512	264.7
791.693	242.17
791.874	322.04
792.054	365.05
792.235	346.62
792.416	276.99
792.597	297.47
792.778	344.57
792.958	301.56
793.139	233.98
793.32	276.99
793.5	236.03
793.681	311.8
793.862	295.42
794.042	295.42
794.223	340.47
794.404	326.14
794.584	199.16
794.765	215.55
794.945	303.61
795.126	383.48
795.306	303.61
795.487	309.76
795.667	139.77
795.848	264.7
796.028	252.41
796.209	139.77
796.389	244.22
796.57	287.23
796.75	244.22
796.93	205.31
797.111	268.8
797.291	233.98
797.471	311.8
797.652	285.18
797.832	180.73
798.012	199.16
798.192	186.88
798.373	180.73
798.553	297.47
798.733	246.27
798.913	256.51
799.093	150.01
799.274	209.4
799.454	164.35
799.634	236.03
799.814	283.13
799.994	322.04
800.174	229.88
800.354	178.69
800.534	107.01
800.714	299.52
800.894	211.45
801.074	168.45
801.254	193.02
801.434	225.79
801.614	119.29
801.794	201.21
801.974	629.24
802.154	182.78
802.334	170.49
802.514	135.68
802.693	176.64
802.873	195.07
803.053	147.97
803.233	180.73
803.413	119.29
803.592	131.58
803.772	145.92
803.952	188.93
804.131	174.59
804.311	170.49
804.491	168.45
804.67	156.16
804.85	164.35
805.03	207.36
805.209	260.6
805.389	182.78
805.568	158.21
805.748	188.93
805.928	150.01
806.107	195.07
806.287	182.78
806.466	115.2
806.646	131.58
806.825	127.49
807.004	137.73
807.184	180.73
807.363	223.74
807.543	164.35
807.722	76.29
807.901	170.49
808.081	207.36
808.26	121.34
808.439	217.6
808.619	184.83
808.798	143.87
808.977	211.45
809.156	195.07
809.336	154.11
809.515	133.63
809.694	135.68
809.873	147.97
810.052	139.77
810.231	174.59
810.411	178.69
810.59	94.72
810.769	72.19
810.948	131.58
811.127	84.48
811.306	195.07
811.485	74.24
811.664	168.45
811.843	137.73
812.022	158.21
812.201	147.97
812.38	168.45
812.559	139.77
812.737	86.53
812.916	80.38
813.095	100.86
813.274	72.19
813.453	135.68
813.632	129.53
813.811	111.1
813.989	139.77
814.168	158.21
814.347	119.29
814.526	88.57
814.704	178.69
814.883	147.97
815.062	2.56
815.24	115.2
815.419	45.57
815.598	133.63
815.776	39.42
815.955	59.9
816.133	72.19
816.312	160.25
816.49	197.12
816.669	104.96
816.847	111.1
817.026	76.29
817.204	109.05
817.383	82.43
817.561	33.28
817.74	109.05
817.918	129.53
818.097	72.19
818.275	96.77
818.453	145.92
818.632	109.05
818.81	57.86
818.988	41.47
819.167	109.05
819.345	43.52
819.523	131.58
819.701	55.81
819.879	133.63
820.058	86.53
820.236	88.57
820.414	86.53
820.592	37.38
820.77	133.63
820.948	115.2
821.127	127.49
821.305	152.06
821.483	18.94
821.661	23.04
821.839	107.01
822.017	61.95
822.195	88.57
822.373	158.21
822.551	70.14
822.729	164.35
822.907	98.81
823.085	123.39
823.262	16.9
823.44	86.53
823.618	82.43
823.796	25.09
823.974	80.38
824.152	170.49
824.329	127.49
824.507	80.38
824.685	29.18
824.863	145.92
825.04	59.9
825.218	113.15
825.396	49.66
825.574	72.19
825.751	109.05
825.929	111.1
826.107	23.04
826.284	111.1
826.462	119.29
826.639	43.52
826.817	51.71
826.994	109.05
827.172	35.33
827.349	88.57
827.527	76.29
827.704	76.29
827.882	68.09
828.059	33.28
828.237	10.75
828.414	70.14
828.591	88.57
828.769	39.42
828.946	-1.54
829.124	49.66
829.301	39.42
829.478	84.48
829.655	66.05
829.833	84.48
830.01	43.52
830.187	129.53
830.364	53.76
830.542	90.62
830.719	117.25
830.896	10.75
831.073	37.38
831.25	84.48
831.427	8.7
831.604	131.58
831.782	20.99
831.959	39.42
832.136	10.75
832.313	53.76
832.49	16.9
832.667	70.14
832.844	-32.26
833.021	39.42
833.198	82.43
833.374	70.14
833.551	35.33
833.728	49.66
833.905	78.33
834.082	55.81
834.259	51.71
834.436	61.95
834.612	51.71
834.789	59.9
834.966	162.3
835.143	41.47
835.319	39.42
835.496	0.51
835.673	86.53
835.85	117.25
836.026	20.99
836.203	86.53
836.38	47.62
836.556	29.18
836.733	80.38
836.909	76.29
837.086	33.28
837.262	78.33
837.439	111.1
837.616	18.94
837.792	72.19
837.968	107.01
838.145	41.47
838.321	41.47
838.498	117.25
838.674	72.19
838.851	16.9
839.027	76.29
839.203	12.8
839.38	41.47
839.556	31.23
839.732	78.33
839.909	39.42
840.085	104.96
840.261	27.14
840.437	20.99
840.614	37.38
840.79	123.39
840.966	-5.63
841.142	37.38
841.318	-19.97
841.494	27.14
841.671	35.33
841.847	53.76
842.023	35.33
842.199	-22.02
842.375	98.81
842.551	-67.07
842.727	-30.21
842.903	115.2
843.079	23.04
843.255	80.38
843.431	74.24
843.607	-1.54
843.783	41.47
843.959	-24.06
844.134	49.66
844.31	35.33
844.486	-15.87
844.662	12.8
844.838	29.18
845.013	115.2
845.189	35.33
845.365	12.8
845.541	61.95
845.716	-30.21
845.892	41.47
846.068	94.72
846.244	109.05
846.419	23.04
846.595	10.75
846.77	14.85
846.946	47.62
847.122	90.62
847.297	-13.82
847.473	61.95
847.648	-54.78
847.824	45.57
847.999	84.48
848.175	20.99
848.35	74.24
848.526	12.8
848.701	82.43
848.876	51.71
849.052	-60.93
849.227	23.04
849.403	88.57
849.578	25.09
849.753	49.66
849.929	2.56
850.104	43.52
850.279	76.29
850.454	51.71
850.63	80.38
850.805	-30.21
850.98	104.96
851.155	64
851.33	4.61
851.505	6.66
851.681	2.56
851.856	-89.6
852.031	88.57
852.206	94.72
852.381	45.57
852.556	43.52
852.731	78.33
852.906	45.57
853.081	39.42
853.256	55.81
853.431	59.9
853.606	-5.63
853.781	0.51
853.956	-93.69
854.131	94.72
854.305	33.28
854.48	35.33
854.655	-85.5
854.83	6.66
855.005	-11.78
855.18	-32.26
855.354	-44.54
855.529	-67.07
855.704	-1.54
855.879	61.95
856.053	20.99
856.228	35.33
856.403	29.18
856.577	25.09
856.752	-38.4
856.926	8.7
857.101	39.42
857.276	20.99
857.45	10.75
857.625	25.09
857.799	10.75
857.974	-32.26
858.148	16.9
858.323	-67.07
858.497	-77.31
858.672	23.04
858.846	20.99
859.02	76.29
859.195	-19.97
859.369	-1.54
859.543	43.52
859.718	20.99
859.892	0.51
860.066	27.14
860.241	57.86
860.415	39.42
860.589	-1.54
860.763	37.38
860.938	64
861.112	102.91
861.286	10.75
861.46	-62.98
861.634	-73.21
861.808	47.62
861.982	-26.11
862.157	-17.92
862.331	29.18
862.505	6.66
862.679	8.7
862.853	-1.54
863.027	-54.78
863.201	82.43
863.375	-54.78
863.549	25.09
863.722	-83.45
863.896	86.53
864.07	-5.63
864.244	51.71
864.418	84.48
864.592	27.14
864.766	27.14
864.939	0.51
865.113	-1.54
865.287	20.99
865.461	-7.68
865.634	70.14
865.808	66.05
865.982	-5.63
866.156	-77.31
866.329	12.8
866.503	12.8
866.676	18.94
866.85	-9.73
867.024	47.62
867.197	76.29
867.371	-13.82
867.544	-5.63
867.718	8.7
867.891	31.23
868.065	41.47
868.238	57.86
868.412	86.53
868.585	-13.82
868.759	72.19
868.932	-26.11
869.105	-46.59
869.279	8.7
869.452	23.04
869.625	-36.35
869.799	0.51
869.972	-9.73
870.145	37.38
870.319	18.94
870.492	-17.92
870.665	33.28
870.838	-7.68
871.011	-83.45
871.185	-9.73
871.358	6.66
871.531	25.09
871.704	23.04
871.877	10.75
872.05	0.51
872.223	14.85
872.396	74.24
872.569	-15.87
872.742	-58.88
872.915	-56.83
873.088	-19.97
873.261	59.9
873.434	-30.21
873.607	2.56
873.78	33.28
873.953	41.47
874.126	20.99
874.299	8.7
874.471	-65.02
874.644	-5.63
874.817	-87.55
874.99	66.05
875.163	-87.55
875.335	78.33
875.508	-7.68
875.681	68.09
875.853	37.38
876.026	31.23
876.199	16.9
876.371	2.56
876.544	8.7
876.717	29.18
876.889	-48.64
877.062	-42.5
877.234	-89.6
877.407	-1.54
877.579	-28.16
877.752	-48.64
877.924	29.18
878.097	10.75
878.269	8.7
878.442	-36.35
878.614	39.42
878.786	23.04
878.959	18.94
879.131	-9.73
879.303	-1.54
879.476	6.66
879.648	57.86
879.82	-40.45
879.993	-17.92
880.165	10.75
880.337	29.18
880.509	51.71
880.681	-7.68
880.854	18.94
881.026	31.23
881.198	61.95
881.37	-87.55
881.542	-48.64
881.714	-9.73
881.886	27.14
882.058	49.66
882.23	92.67
882.402	-24.06
882.574	-3.58
882.746	33.28
882.918	35.33
883.09	35.33
883.262	-28.16
883.434	47.62
883.606	2.56
883.778	43.52
883.95	45.57
884.122	12.8
884.293	66.05
884.465	-3.58
884.637	61.95
884.809	10.75
884.98	-1.54
885.152	-42.5
885.324	0.51
885.496	10.75
885.667	68.09
885.839	-44.54
886.011	2.56
886.182	-93.69
886.354	4.61
886.525	-24.06
886.697	10.75
886.869	31.23
887.04	-36.35
887.212	57.86
887.383	66.05
887.555	23.04
887.726	-114.17
887.897	-15.87
888.069	-1.54
888.24	-36.35
888.412	-40.45
888.583	-5.63
888.754	31.23
888.926	-48.64
889.097	-58.88
889.268	-69.12
889.44	4.61
889.611	6.66
889.782	35.33
889.953	-15.87
890.125	-67.07
890.296	-7.68
890.467	12.8
890.638	-28.16
890.809	-30.21
890.98	-46.59
891.151	78.33
891.323	70.14
891.494	-42.5
891.665	-3.58
891.836	-32.26
892.007	-40.45
892.178	29.18
892.349	-9.73
892.52	-52.74
892.691	23.04
892.862	-52.74
893.032	23.04
893.203	39.42
893.374	-7.68
893.545	16.9
893.716	-13.82
893.887	14.85
894.057	-54.78
894.228	16.9
894.399	-13.82
894.57	55.81
894.74	8.7
894.911	-1.54
895.082	-17.92
895.253	29.18
895.423	-9.73
895.594	37.38
895.764	68.09
895.935	94.72
896.106	4.61
896.276	-28.16
896.447	35.33
896.617	-54.78
896.788	-7.68
896.958	-36.35
897.129	37.38
897.299	-9.73
897.47	23.04
897.64	41.47
897.81	66.05
897.981	0.51
898.151	31.23
898.322	-19.97
898.492	-36.35
898.662	29.18
898.832	82.43
899.003	70.14
899.173	-1.54
899.343	29.18
899.513	-13.82
