Data from USB4F104151__21__12-35-25-442.txt Node

Date: Fri Mar 14 12:35:25 EDT 2025
User: louis
Spectrometer: USB4F10415
Trigger mode: 4
Integration Time (sec): 2.000000E-2
Scans to average: 1
Electric dark correction enabled: true
Nonlinearity correction enabled: false
Boxcar width: 0
XAxis mode: Wavelengths
Number of Pixels in Spectrum: 3648
>>>>>Begin Spectral Data<<<<<
178.204	-103.42
178.424	-103.42
178.644	-103.42
178.864	-89.09
179.084	-115.71
179.304	-84.99
179.524	7.17
179.744	39.94
179.964	60.42
180.184	-7.17
180.404	17.41
180.624	17.41
180.844	-3.07
181.064	-7.17
181.283	-89.09
181.503	-5.12
181.723	54.27
181.943	1.02
182.163	-9.22
182.383	107.52
182.602	33.79
182.822	31.74
183.042	-37.89
183.262	46.08
183.482	7.17
183.701	72.7
183.921	11.26
184.141	21.5
184.361	117.76
184.58	39.94
184.8	29.7
185.02	48.13
185.239	44.03
185.459	9.22
185.679	97.28
185.898	82.94
186.118	25.6
186.338	39.94
186.557	70.65
186.777	41.98
186.997	17.41
187.216	58.37
187.436	62.46
187.655	3.07
187.875	82.94
188.095	-7.17
188.314	37.89
188.534	27.65
188.753	17.41
188.973	91.13
189.192	39.94
189.412	35.84
189.631	33.79
189.851	19.46
190.07	89.09
190.29	35.84
190.509	-44.03
190.729	46.08
190.948	64.51
191.168	123.9
191.387	46.08
191.607	66.56
191.826	56.32
192.045	31.74
192.265	31.74
192.484	29.7
192.704	48.13
192.923	-58.37
193.142	1.02
193.362	23.55
193.581	23.55
193.8	41.98
194.02	29.7
194.239	35.84
194.458	-9.22
194.678	-15.36
194.897	7.17
195.116	39.94
195.335	60.42
195.555	19.46
195.774	31.74
195.993	25.6
196.212	44.03
196.432	1.02
196.651	37.89
196.87	39.94
197.089	70.65
197.308	87.04
197.528	-37.89
197.747	-15.36
197.966	9.22
198.185	99.33
198.404	-17.41
198.623	68.61
198.842	3.07
199.062	19.46
199.281	39.94
199.5	-33.79
199.719	84.99
199.938	17.41
200.157	158.72
200.376	35.84
200.595	82.94
200.814	31.74
201.033	23.55
201.252	70.65
201.471	19.46
201.69	11.26
201.909	84.99
202.128	87.04
202.347	84.99
202.566	37.89
202.785	13.31
203.004	72.7
203.223	91.13
203.442	84.99
203.661	19.46
203.879	15.36
204.098	56.32
204.317	9.22
204.536	21.5
204.755	9.22
204.974	46.08
205.193	46.08
205.411	50.18
205.63	-3.07
205.849	84.99
206.068	-7.17
206.287	66.56
206.505	29.7
206.724	70.65
206.943	29.7
207.162	25.6
207.381	29.7
207.599	25.6
207.818	33.79
208.037	84.99
208.255	-15.36
208.474	23.55
208.693	-33.79
208.911	29.7
209.13	48.13
209.349	93.18
209.567	44.03
209.786	80.89
210.005	48.13
210.223	48.13
210.442	21.5
210.661	31.74
210.879	125.95
211.098	33.79
211.316	5.12
211.535	25.6
211.753	50.18
211.972	68.61
212.191	19.46
212.409	64.51
212.628	29.7
212.846	37.89
213.065	19.46
213.283	105.47
213.502	52.22
213.72	89.09
213.938	62.46
214.157	58.37
214.375	17.41
214.594	39.94
214.812	76.8
215.031	62.46
215.249	99.33
215.467	125.95
215.686	35.84
215.904	39.94
216.122	54.27
216.341	15.36
216.559	31.74
216.778	113.66
216.996	19.46
217.214	37.89
217.432	-72.7
217.651	107.52
217.869	70.65
218.087	9.22
218.306	33.79
218.524	93.18
218.742	9.22
218.96	70.65
219.179	54.27
219.397	91.13
219.615	11.26
219.833	91.13
220.051	9.22
220.27	54.27
220.488	41.98
220.706	-33.79
220.924	39.94
221.142	60.42
221.36	17.41
221.578	21.5
221.796	87.04
222.015	46.08
222.233	44.03
222.451	-7.17
222.669	23.55
222.887	54.27
223.105	-23.55
223.323	68.61
223.541	50.18
223.759	19.46
223.977	7.17
224.195	62.46
224.413	93.18
224.631	52.22
224.849	5.12
225.067	78.85
225.285	9.22
225.503	13.31
225.721	-13.31
225.939	19.46
226.157	-7.17
226.375	105.47
226.592	-19.46
226.81	19.46
227.028	66.56
227.246	87.04
227.464	-9.22
227.682	13.31
227.9	70.65
228.117	52.22
228.335	84.99
228.553	35.84
228.771	60.42
228.989	29.7
229.206	50.18
229.424	50.18
229.642	66.56
229.86	-23.55
230.077	7.17
230.295	74.75
230.513	46.08
230.731	-29.7
230.948	64.51
231.166	31.74
231.384	5.12
231.601	33.79
231.819	91.13
232.037	46.08
232.254	-29.7
232.472	87.04
232.689	39.94
232.907	97.28
233.125	60.42
233.342	-39.94
233.56	41.98
233.777	29.7
233.995	52.22
234.213	64.51
234.43	11.26
234.648	31.74
234.865	19.46
235.083	105.47
235.3	58.37
235.518	68.61
235.735	-15.36
235.953	82.94
236.17	21.5
236.388	82.94
236.605	21.5
236.822	78.85
237.04	44.03
237.257	-29.7
237.475	58.37
237.692	39.94
237.909	37.89
238.127	58.37
238.344	44.03
238.562	17.41
238.779	62.46
238.996	58.37
239.214	78.85
239.431	109.57
239.648	60.42
239.865	50.18
240.083	41.98
240.3	66.56
240.517	39.94
240.735	17.41
240.952	-23.55
241.169	58.37
241.386	5.12
241.603	105.47
241.821	64.51
242.038	76.8
242.255	41.98
242.472	-25.6
242.689	25.6
242.907	68.61
243.124	84.99
243.341	134.14
243.558	33.79
243.775	70.65
243.992	25.6
244.209	41.98
244.426	87.04
244.643	62.46
244.86	3.07
245.078	-7.17
245.295	33.79
245.512	95.23
245.729	-21.5
245.946	-3.07
246.163	46.08
246.38	78.85
246.597	89.09
246.814	15.36
247.031	39.94
247.248	13.31
247.464	13.31
247.681	-17.41
247.898	68.61
248.115	31.74
248.332	21.5
248.549	64.51
248.766	66.56
248.983	27.65
249.2	107.52
249.417	58.37
249.633	70.65
249.85	11.26
250.067	23.55
250.284	93.18
250.501	5.12
250.717	-3.07
250.934	76.8
251.151	31.74
251.368	41.98
251.585	142.33
251.801	3.07
252.018	58.37
252.235	41.98
252.451	25.6
252.668	-33.79
252.885	74.75
253.102	21.5
253.318	91.13
253.535	-29.7
253.752	54.27
253.968	-39.94
254.185	33.79
254.401	-39.94
254.618	54.27
254.835	-13.31
255.051	5.12
255.268	70.65
255.484	56.32
255.701	50.18
255.917	80.89
256.134	64.51
256.351	23.55
256.567	9.22
256.784	39.94
257	11.26
257.217	33.79
257.433	23.55
257.65	7.17
257.866	58.37
258.082	31.74
258.299	27.65
258.515	41.98
258.732	21.5
258.948	109.57
259.165	21.5
259.381	11.26
259.597	39.94
259.814	23.55
260.03	1.02
260.246	3.07
260.463	-15.36
260.679	46.08
260.895	25.6
261.112	58.37
261.328	72.7
261.544	27.65
261.761	117.76
261.977	48.13
262.193	107.52
262.409	91.13
262.626	21.5
262.842	13.31
263.058	111.61
263.274	48.13
263.49	56.32
263.707	84.99
263.923	17.41
264.139	33.79
264.355	31.74
264.571	66.56
264.787	76.8
265.004	-21.5
265.22	-1.02
265.436	11.26
265.652	50.18
265.868	41.98
266.084	-3.07
266.3	44.03
266.516	33.79
266.732	80.89
266.948	39.94
267.164	37.89
267.38	48.13
267.596	56.32
267.812	46.08
268.028	58.37
268.244	52.22
268.46	33.79
268.676	-64.51
268.892	105.47
269.108	64.51
269.324	89.09
269.54	62.46
269.756	25.6
269.972	-27.65
270.188	7.17
270.403	58.37
270.619	48.13
270.835	39.94
271.051	109.57
271.267	60.42
271.483	58.37
271.698	-25.6
271.914	52.22
272.13	58.37
272.346	-9.22
272.562	31.74
272.777	37.89
272.993	37.89
273.209	39.94
273.425	5.12
273.64	52.22
273.856	46.08
274.072	41.98
274.287	37.89
274.503	64.51
274.719	27.65
274.934	37.89
275.15	-17.41
275.366	11.26
275.581	50.18
275.797	52.22
276.012	52.22
276.228	87.04
276.444	44.03
276.659	48.13
276.875	48.13
277.09	60.42
277.306	3.07
277.521	99.33
277.737	80.89
277.952	134.14
278.168	-11.26
278.383	78.85
278.599	35.84
278.814	15.36
279.03	7.17
279.245	72.7
279.461	-19.46
279.676	95.23
279.892	39.94
280.107	3.07
280.322	-11.26
280.538	142.33
280.753	27.65
280.969	27.65
281.184	37.89
281.399	89.09
281.615	5.12
281.83	19.46
282.045	17.41
282.26	39.94
282.476	11.26
282.691	64.51
282.906	35.84
283.122	-11.26
283.337	35.84
283.552	1.02
283.767	-39.94
283.983	68.61
284.198	-56.32
284.413	78.85
284.628	-21.5
284.843	48.13
285.058	93.18
285.274	9.22
285.489	31.74
285.704	97.28
285.919	-23.55
286.134	117.76
286.349	-46.08
286.564	84.99
286.779	29.7
286.995	35.84
287.21	99.33
287.425	89.09
287.64	-15.36
287.855	44.03
288.07	39.94
288.285	62.46
288.5	44.03
288.715	-25.6
288.93	62.46
289.145	-5.12
289.36	39.94
289.575	48.13
289.79	1.02
290.004	80.89
290.219	37.89
290.434	52.22
290.649	101.37
290.864	123.9
291.079	44.03
291.294	1.02
291.509	82.94
291.724	29.7
291.938	74.75
292.153	70.65
292.368	-7.17
292.583	33.79
292.798	64.51
293.012	-15.36
293.227	74.75
293.442	9.22
293.657	60.42
293.871	128
294.086	15.36
294.301	17.41
294.516	60.42
294.73	52.22
294.945	37.89
295.16	5.12
295.374	148.48
295.589	-9.22
295.804	41.98
296.018	3.07
296.233	31.74
296.447	107.52
296.662	52.22
296.877	97.28
297.091	13.31
297.306	74.75
297.52	27.65
297.735	121.85
297.949	70.65
298.164	72.7
298.378	39.94
298.593	-7.17
298.807	80.89
299.022	17.41
299.236	13.31
299.451	48.13
299.665	5.12
299.88	95.23
300.094	46.08
300.309	13.31
300.523	74.75
300.737	27.65
300.952	82.94
301.166	37.89
301.381	76.8
301.595	78.85
301.809	39.94
302.024	62.46
302.238	-1.02
302.452	56.32
302.667	9.22
302.881	109.57
303.095	9.22
303.309	89.09
303.524	54.27
303.738	-3.07
303.952	74.75
304.166	123.9
304.381	-23.55
304.595	52.22
304.809	48.13
305.023	78.85
305.237	41.98
305.452	35.84
305.666	103.42
305.88	-9.22
306.094	84.99
306.308	74.75
306.522	89.09
306.736	66.56
306.95	93.18
307.164	132.09
307.379	3.07
307.593	37.89
307.807	95.23
308.021	76.8
308.235	11.26
308.449	44.03
308.663	29.7
308.877	41.98
309.091	128
309.305	82.94
309.519	39.94
309.733	62.46
309.947	-9.22
310.161	-7.17
310.374	113.66
310.588	130.05
310.802	25.6
311.016	58.37
311.23	29.7
311.444	-7.17
311.658	68.61
311.872	39.94
312.085	56.32
312.299	64.51
312.513	5.12
312.727	41.98
312.941	58.37
313.154	87.04
313.368	48.13
313.582	48.13
313.796	39.94
314.009	-17.41
314.223	62.46
314.437	162.81
314.651	89.09
314.864	11.26
315.078	113.66
315.292	15.36
315.505	-5.12
315.719	123.9
315.933	72.7
316.146	1.02
316.36	1.02
316.573	80.89
316.787	37.89
317.001	-29.7
317.214	56.32
317.428	52.22
317.641	101.37
317.855	44.03
318.068	-25.6
318.282	-46.08
318.495	132.09
318.709	138.24
318.922	48.13
319.136	64.51
319.349	50.18
319.563	-17.41
319.776	44.03
319.99	13.31
320.203	78.85
320.417	17.41
320.63	25.6
320.843	125.95
321.057	-31.74
321.27	62.46
321.483	-15.36
321.697	44.03
321.91	44.03
322.124	56.32
322.337	226.3
322.55	27.65
322.763	54.27
322.977	35.84
323.19	13.31
323.403	46.08
323.617	19.46
323.83	27.65
324.043	21.5
324.256	78.85
324.469	21.5
324.683	109.57
324.896	31.74
325.109	37.89
325.322	78.85
325.535	123.9
325.748	39.94
325.962	56.32
326.175	113.66
326.388	72.7
326.601	46.08
326.814	128
327.027	5.12
327.24	27.65
327.453	37.89
327.666	46.08
327.879	74.75
328.092	37.89
328.305	64.51
328.518	41.98
328.731	97.28
328.944	52.22
329.157	117.76
329.37	-7.17
329.583	11.26
329.796	44.03
330.009	41.98
330.222	1.02
330.435	46.08
330.648	39.94
330.861	27.65
331.073	11.26
331.286	19.46
331.499	48.13
331.712	-7.17
331.925	52.22
332.138	52.22
332.35	27.65
332.563	76.8
332.776	89.09
332.989	60.42
333.202	7.17
333.414	105.47
333.627	29.7
333.84	48.13
334.053	64.51
334.265	68.61
334.478	17.41
334.691	66.56
334.903	37.89
335.116	31.74
335.329	37.89
335.541	58.37
335.754	50.18
335.966	31.74
336.179	39.94
336.392	-23.55
336.604	136.19
336.817	52.22
337.029	64.51
337.242	128
337.454	82.94
337.667	64.51
337.88	156.67
338.092	13.31
338.305	101.37
338.517	5.12
338.729	164.86
338.942	89.09
339.154	113.66
339.367	66.56
339.579	37.89
339.792	1.02
340.004	46.08
340.217	68.61
340.429	-9.22
340.641	64.51
340.854	105.47
341.066	35.84
341.278	152.57
341.491	72.7
341.703	70.65
341.915	39.94
342.128	82.94
342.34	84.99
342.552	29.7
342.764	5.12
342.977	107.52
343.189	95.23
343.401	-27.65
343.613	-1.02
343.826	101.37
344.038	9.22
344.25	64.51
344.462	95.23
344.674	58.37
344.886	58.37
345.099	99.33
345.311	58.37
345.523	70.65
345.735	62.46
345.947	60.42
346.159	39.94
346.371	105.47
346.583	-130.05
346.795	103.42
347.007	60.42
347.219	62.46
347.431	-23.55
347.643	50.18
347.855	25.6
348.067	66.56
348.279	25.6
348.491	80.89
348.703	1.02
348.915	156.67
349.127	128
349.339	-3.07
349.551	15.36
349.763	33.79
349.975	19.46
350.187	101.37
350.399	54.27
350.61	82.94
350.822	56.32
351.034	25.6
351.246	17.41
351.458	29.7
351.669	80.89
351.881	66.56
352.093	52.22
352.305	134.14
352.517	117.76
352.728	82.94
352.94	5.12
353.152	109.57
353.363	33.79
353.575	97.28
353.787	44.03
353.999	64.51
354.21	166.91
354.422	64.51
354.633	-1.02
354.845	50.18
355.057	166.91
355.268	60.42
355.48	68.61
355.692	33.79
355.903	62.46
356.115	132.09
356.326	35.84
356.538	113.66
356.749	97.28
356.961	111.61
357.172	-29.7
357.384	54.27
357.595	72.7
357.807	95.23
358.018	1.02
358.23	64.51
358.441	60.42
358.653	78.85
358.864	17.41
359.075	89.09
359.287	70.65
359.498	119.81
359.709	23.55
359.921	91.13
360.132	19.46
360.344	48.13
360.555	3.07
360.766	39.94
360.977	31.74
361.189	117.76
361.4	117.76
361.611	128
361.823	35.84
362.034	15.36
362.245	-17.41
362.456	84.99
362.667	64.51
362.879	54.27
363.09	52.22
363.301	91.13
363.512	128
363.723	128
363.935	50.18
364.146	68.61
364.357	41.98
364.568	54.27
364.779	44.03
364.99	101.37
365.201	68.61
365.412	78.85
365.623	33.79
365.834	130.05
366.045	21.5
366.256	113.66
366.467	132.09
366.678	1.02
366.889	21.5
367.1	21.5
367.311	52.22
367.522	95.23
367.733	33.79
367.944	-13.31
368.155	91.13
368.366	109.57
368.577	74.75
368.788	33.79
368.999	-9.22
369.209	97.28
369.42	60.42
369.631	46.08
369.842	76.8
370.053	99.33
370.264	111.61
370.474	84.99
370.685	9.22
370.896	11.26
371.107	91.13
371.317	58.37
371.528	58.37
371.739	76.8
371.95	125.95
372.16	39.94
372.371	113.66
372.582	80.89
372.792	56.32
373.003	107.52
373.214	60.42
373.424	103.42
373.635	58.37
373.846	128
374.056	25.6
374.267	35.84
374.477	87.04
374.688	52.22
374.898	80.89
375.109	84.99
375.319	39.94
375.53	23.55
375.74	107.52
375.951	70.65
376.161	97.28
376.372	121.85
376.582	15.36
376.793	109.57
377.003	-23.55
377.214	46.08
377.424	125.95
377.635	74.75
377.845	84.99
378.055	91.13
378.266	33.79
378.476	29.7
378.686	74.75
378.897	58.37
379.107	68.61
379.317	74.75
379.528	58.37
379.738	113.66
379.948	48.13
380.158	99.33
380.369	121.85
380.579	87.04
380.789	23.55
380.999	111.61
381.21	115.71
381.42	132.09
381.63	72.7
381.84	87.04
382.05	44.03
382.261	25.6
382.471	41.98
382.681	70.65
382.891	78.85
383.101	72.7
383.311	171.01
383.521	82.94
383.731	60.42
383.941	82.94
384.151	46.08
384.361	130.05
384.571	41.98
384.781	-15.36
384.991	76.8
385.201	66.56
385.411	76.8
385.621	87.04
385.831	89.09
386.041	103.42
386.251	105.47
386.461	148.48
386.671	-13.31
386.881	31.74
387.091	23.55
387.301	41.98
387.511	37.89
387.72	103.42
387.93	25.6
388.14	72.7
388.35	23.55
388.56	66.56
388.769	99.33
388.979	48.13
389.189	13.31
389.399	93.18
389.609	11.26
389.818	84.99
390.028	138.24
390.238	111.61
390.447	-5.12
390.657	95.23
390.867	70.65
391.076	19.46
391.286	46.08
391.496	68.61
391.705	103.42
391.915	99.33
392.125	128
392.334	74.75
392.544	78.85
392.753	115.71
392.963	60.42
393.172	111.61
393.382	29.7
393.591	70.65
393.801	19.46
394.01	193.53
394.22	111.61
394.429	56.32
394.639	84.99
394.848	164.86
395.058	66.56
395.267	132.09
395.477	95.23
395.686	89.09
395.895	91.13
396.105	99.33
396.314	115.71
396.524	87.04
396.733	154.62
396.942	144.38
397.152	99.33
397.361	148.48
397.57	101.37
397.78	132.09
397.989	107.52
398.198	160.77
398.407	154.62
398.617	181.25
398.826	41.98
399.035	101.37
399.244	119.81
399.453	173.05
399.663	117.76
399.872	130.05
400.081	150.53
400.29	158.72
400.499	146.43
400.708	191.49
400.917	95.23
401.127	93.18
401.336	101.37
401.545	156.67
401.754	113.66
401.963	228.35
402.172	140.29
402.381	158.72
402.59	121.85
402.799	152.57
403.008	140.29
403.217	177.15
403.426	91.13
403.635	105.47
403.844	175.1
404.053	195.58
404.262	242.68
404.471	130.05
404.68	142.33
404.888	105.47
405.097	164.86
405.306	232.44
405.515	152.57
405.724	195.58
405.933	154.62
406.142	252.92
406.35	164.86
406.559	254.97
406.768	265.21
406.977	250.88
407.185	197.63
407.394	205.82
407.603	232.44
407.812	273.4
408.02	355.32
408.229	211.96
408.438	261.12
408.646	326.65
408.855	304.12
409.064	302.08
409.272	392.19
409.481	283.64
409.69	320.51
409.898	347.13
410.107	353.27
410.315	320.51
410.524	437.24
410.733	457.72
410.941	443.39
411.15	492.54
411.358	433.15
411.567	506.87
411.775	441.34
411.984	371.71
412.192	578.55
412.401	531.45
412.609	605.17
412.818	613.37
413.026	611.32
413.234	685.05
413.443	635.89
413.651	578.55
413.86	715.77
414.068	683
414.276	748.53
414.485	717.81
414.693	728.05
414.901	728.05
415.11	883.7
415.318	754.68
415.526	861.17
415.734	924.66
415.943	924.66
416.151	998.38
416.359	984.05
416.567	1012.72
416.776	1041.39
416.984	1065.97
417.192	1111.02
417.4	1108.98
417.608	1068.02
417.817	1174.51
418.025	1285.1
418.233	1387.5
418.441	1289.2
418.649	1510.38
418.857	1418.22
419.065	1498.09
419.273	1506.28
419.481	1643.49
419.689	1610.73
419.897	1739.75
420.105	1817.57
420.313	1786.85
420.521	1887.2
420.729	1901.54
420.937	2106.34
421.145	1989.6
421.353	2143.2
421.561	2225.12
421.769	2261.98
421.977	2380.76
422.185	2239.45
422.393	2477.02
422.601	2659.29
422.809	2630.62
423.017	2755.54
423.224	2835.41
423.432	2886.61
423.64	2948.05
423.848	3115.98
424.056	3224.53
424.263	3380.17
424.471	3312.59
424.679	3398.6
424.887	3695.56
425.094	3529.67
425.302	3761.09
425.51	3773.38
425.718	3969.99
425.925	3957.7
426.133	4088.77
426.341	4289.47
426.548	4486.08
426.756	4449.21
426.964	4682.68
427.171	4920.24
427.379	4969.4
427.586	5079.99
427.794	5082.03
428.001	5557.16
428.209	5858.21
428.417	5612.46
428.624	6228.9
428.832	6052.77
429.039	6089.64
429.247	6040.48
429.454	6620.06
429.662	6900.63
429.869	6669.21
430.076	6904.73
430.284	6925.21
430.491	7117.72
430.699	7435.15
430.906	7560.08
431.114	7414.67
431.321	7949.19
431.528	8153.99
431.736	8516.48
431.943	8915.83
432.15	8627.07
432.358	8706.94
432.565	9399.15
432.772	9306.99
432.979	9683.82
433.187	9835.37
433.394	10089.32
433.601	10539.87
433.808	10445.66
434.016	10548.06
434.223	10998.62
434.43	11664.21
434.637	11422.55
434.844	12292.93
435.052	12393.28
435.259	12471.11
435.466	12434.24
435.673	12225.35
435.88	12995.39
436.087	13720.37
436.294	13916.97
436.501	13331.25
436.708	13714.22
436.915	14185.26
437.122	14713.63
437.329	14725.92
437.537	15043.35
437.743	15676.18
437.95	15420.18
438.157	16132.87
438.364	16587.52
438.571	16526.08
438.778	16636.67
438.985	18297.58
439.192	17783.54
439.399	17955.57
439.606	17904.37
439.813	18690.79
440.02	19821.27
440.227	19432.15
440.433	19452.63
440.64	19964.62
440.847	19911.38
441.054	20191.95
441.261	21639.86
441.467	21471.93
441.674	21910.19
441.881	22635.17
442.088	22373.03
442.294	22358.7
442.501	23089.82
442.708	23407.26
442.914	24109.71
443.121	24992.39
443.328	24382.09
443.534	26294.89
443.741	25592.44
443.948	25051.78
444.154	27155.04
444.361	26681.96
444.568	27312.74
444.774	27013.73
444.981	27535.96
445.187	28025.43
445.394	29401.66
445.6	28920.39
445.807	31810.07
446.013	30343.73
446.22	31023.65
446.426	32246.29
446.633	32301.59
446.839	33411.59
447.046	32092.69
447.252	33874.43
447.459	34097.66
447.665	33804.8
447.871	35377.64
448.078	36886.99
448.284	35484.13
448.491	36356.57
448.697	37829.05
448.903	38355.38
449.11	37849.53
449.316	37560.77
449.522	38322.62
449.728	39434.66
449.935	39322.02
450.141	39551.4
450.347	40178.07
450.553	39088.56
450.76	39907.74
450.966	40884.62
451.172	40700.31
451.378	41644.42
451.584	41066.89
451.791	41992.58
451.997	41662.85
452.203	42267
452.409	42199.42
452.615	42254.72
452.821	40587.67
453.027	40231.32
453.233	41832.83
453.44	40536.47
453.646	41070.99
453.852	41482.63
454.058	42180.99
454.264	40513.94
454.47	41812.35
454.676	40343.96
454.882	42031.49
455.088	38560.18
455.294	38683.06
455.5	39506.34
455.705	39854.5
455.911	38302.14
456.117	37820.86
456.323	37226.95
456.529	35318.25
456.735	36604.37
456.941	36164.06
457.147	35164.65
457.352	33964.54
457.558	33802.75
457.764	33942.01
457.97	33645.05
458.176	33024.52
458.381	32616.97
458.587	30923.3
458.793	30937.64
458.999	29372.99
459.204	31255.08
459.41	30693.93
459.616	28435.02
459.821	28510.8
460.027	28346.96
460.233	27699.8
460.438	26608.23
460.644	26561.13
460.85	25639.54
461.055	25090.69
461.261	25084.55
461.466	23308.96
461.672	22737.57
461.878	24281.74
462.083	22354.6
462.289	22180.53
462.494	21920.43
462.7	21201.6
462.905	20454.09
463.111	20892.35
463.316	21318.33
463.522	20693.7
463.727	20740.8
463.932	20749
464.138	20493
464.343	20591.3
464.549	20073.17
464.754	20497.1
464.959	20351.69
465.165	20540.1
465.37	19387.1
465.575	18576.1
465.781	19704.53
465.986	19720.92
466.191	19233.5
466.397	18655.97
466.602	17765.1
466.807	18416.36
467.012	18150.12
467.218	18275.05
467.423	18090.73
467.628	18371.3
467.833	19043.04
468.038	18094.83
468.244	17470.2
468.449	18541.29
468.654	17826.54
468.859	17885.94
469.064	17674.99
469.269	16894.72
469.474	17212.15
469.679	17337.08
469.885	17197.82
470.09	17208.06
470.295	17056.51
470.5	16630.53
470.705	16571.14
470.91	16286.47
471.115	16198.41
471.32	16141.07
471.525	16257.8
471.73	15901.45
471.935	15700.75
472.139	15553.3
472.344	15563.54
472.549	15420.18
472.754	15250.2
472.959	14928.67
473.164	14609.19
473.369	14664.48
473.574	14934.81
473.778	14809.89
473.983	14664.48
474.188	14545.7
474.393	14162.73
474.598	13923.12
474.802	13671.22
475.007	13921.07
475.212	13746.99
475.417	13220.66
475.621	13540.15
475.826	13318.96
476.031	12991.29
476.235	12944.19
476.44	13007.67
476.645	12870.46
476.849	12790.59
477.054	12733.25
477.259	12385.09
477.463	12315.46
477.668	12147.53
477.872	12211.01
478.077	11955.02
478.282	11819.85
478.486	11756.36
478.691	11723.6
478.895	11791.18
479.1	11420.5
479.304	11535.18
479.509	11248.47
479.713	11340.63
479.918	11217.75
480.122	10959.7
480.326	11271
480.531	11256.66
480.735	10986.33
480.94	10920.79
481.144	11311.96
481.348	10648.41
481.553	10853.21
481.757	10677.09
481.961	10916.7
482.166	11215.7
482.37	10875.74
482.574	10650.46
482.778	10623.84
482.983	10931.03
483.187	10726.24
483.391	10730.33
483.595	10539.87
483.8	10304.35
484.004	10492.77
484.208	10726.24
484.412	10621.79
484.616	10550.11
484.821	10726.24
485.025	10394.47
485.229	10763.1
485.433	10484.58
485.637	10799.96
485.841	10558.3
486.045	10533.73
486.249	10597.21
486.453	10611.55
486.657	10570.59
486.861	10771.29
487.065	10439.52
487.269	10492.77
487.473	10560.35
487.677	10861.4
487.881	10498.91
488.085	10589.02
488.289	10683.23
488.493	10722.14
488.697	10824.54
488.901	10535.78
489.105	10750.81
489.309	10871.64
489.512	10783.58
489.716	10842.97
489.92	10720.09
490.124	10795.87
490.328	10974.04
490.531	10845.02
490.735	11010.9
490.939	11141.97
491.143	10869.59
491.346	10994.52
491.55	10959.7
491.754	11191.13
491.958	11117.4
492.161	11012.95
492.365	11221.84
492.569	11150.17
492.772	11342.67
492.976	11197.27
493.18	11408.21
493.383	11635.53
493.587	11524.94
493.79	11690.83
493.994	11412.31
494.197	11807.56
494.401	11811.66
494.605	11842.38
494.808	11844.43
495.012	12182.34
495.215	12125
495.419	12294.98
495.622	12131.14
495.825	12221.25
496.029	12213.06
496.232	12665.66
496.436	12489.54
496.639	12852.03
496.843	12725.05
497.046	13079.35
497.249	13144.89
497.453	13105.98
497.656	13202.23
497.859	13470.51
498.063	13591.34
498.266	13853.48
498.469	13806.38
498.673	13980.46
498.876	14033.71
499.079	14449.44
499.282	14641.95
499.485	14742.3
499.689	14603.04
499.892	14873.37
500.095	15059.74
500.298	15201.05
500.501	15086.36
500.705	15520.53
500.908	15858.45
501.111	15844.11
501.314	15821.58
501.517	16145.16
501.72	16235.27
501.923	16114.44
502.126	16749.31
502.329	16980.73
502.532	17156.86
502.735	17101.56
502.938	17318.65
503.141	17650.42
503.344	17986.29
503.547	18055.92
503.75	18264.81
503.953	18580.2
504.156	18516.71
504.359	18760.42
504.562	18961.12
504.765	19550.93
504.968	19585.75
505.17	19618.52
505.373	19768.02
505.576	20093.65
505.779	20415.18
505.982	20536.01
506.185	20755.14
506.387	20978.37
506.59	20935.36
506.793	21555.9
506.996	21271.23
507.198	22227.63
507.401	21748.4
507.604	22112.94
507.807	22925.99
508.009	22631.08
508.212	23085.73
508.415	23349.92
508.617	23427.74
508.82	23687.83
509.022	23663.25
509.225	24273.55
509.428	24224.4
509.63	24464.01
509.833	24674.95
510.035	25232
510.238	25277.05
510.44	25838.2
510.643	25930.36
510.845	26102.39
511.048	26344.05
511.25	26303.09
511.453	26632.81
511.655	27744.86
511.858	27239.01
512.06	27621.98
512.262	28170.83
512.465	27794.01
512.667	28525.13
512.87	28715.59
513.072	28660.3
513.274	29317.7
513.477	29663.8
513.679	29657.66
513.881	30132.79
514.084	30370.35
514.286	30298.67
514.488	31154.72
514.69	31816.22
514.893	31523.36
515.095	31658.52
515.297	32100.89
515.499	32426.51
515.701	32399.89
515.904	33194.5
516.106	33208.84
516.308	33673.73
516.51	34015.74
516.712	33907.19
516.914	34644.46
517.116	34763.25
517.318	35201.51
517.52	35367.4
517.722	35441.12
517.925	36125.14
518.127	36540.88
518.329	36495.83
518.531	36489.68
518.733	37016.01
518.935	37624.26
519.136	37495.24
519.338	37988.8
519.54	38232.5
519.742	38844.85
519.944	39053.74
520.146	39465.38
520.348	39758.24
520.55	39522.72
520.752	40034.72
520.954	40538.52
521.155	40331.67
521.357	40649.11
521.559	41095.56
521.761	41519.49
521.963	41365.9
522.164	41828.74
522.366	42355.07
522.568	42600.82
522.77	42619.25
522.971	43250.03
523.173	43059.57
523.375	43841.89
523.576	43413.87
523.778	43506.02
523.98	44278.11
524.181	44376.41
524.383	44509.53
524.584	45027.66
524.786	44982.61
524.988	44663.13
525.189	45484.36
525.391	45719.88
525.592	46158.14
525.794	46250.3
525.995	46045.51
526.197	46147.9
526.398	46311.74
526.6	46510.39
526.801	47204.66
527.003	46981.43
527.204	47024.43
527.406	47511.85
527.607	47196.46
527.808	47927.59
528.01	47280.43
528.211	47651.11
528.412	48615.71
528.614	48169.25
528.815	47903.01
529.016	48945.43
529.218	48140.58
529.419	48851.22
529.62	48171.3
529.822	48292.13
530.023	48402.72
530.224	48574.75
530.425	49058.07
530.626	48294.18
530.828	48404.77
531.029	49461.52
531.23	48630.04
531.431	49053.97
531.632	49246.48
531.833	49101.07
532.035	49109.27
532.236	49060.12
532.437	49369.36
532.638	49264.91
532.839	49862.92
533.04	49504.52
533.241	49539.34
533.442	49805.58
533.643	49338.64
533.844	49170.71
534.045	49455.37
534.246	49238.29
534.447	49565.96
534.648	48974.1
534.849	49803.53
535.05	49074.45
535.251	49473.81
535.451	49438.99
535.652	49467.66
535.853	49367.31
536.054	49465.61
536.255	49209.62
536.456	48812.31
536.657	50153.73
536.857	48980.24
537.058	49332.5
537.259	49506.57
537.46	49438.99
537.66	49099.03
537.861	49146.13
538.062	48892.18
538.263	49492.24
538.463	48906.52
538.664	49416.46
538.865	49174.8
539.065	49506.57
539.266	48832.79
539.466	49430.8
539.667	48552.22
539.868	49006.87
540.068	48859.41
540.269	49090.83
540.469	49404.17
540.67	48824.6
540.87	48515.36
541.071	48634.14
541.271	49070.36
541.472	48779.54
541.672	48636.19
541.873	48582.94
542.073	48199.97
542.274	49074.45
542.474	48605.47
542.675	48564.51
542.875	48771.35
543.075	48109.86
543.276	48271.65
543.476	48564.51
543.676	48154.91
543.877	48967.96
544.077	48314.65
544.277	48142.63
544.478	48451.87
544.678	48742.68
544.878	48673.05
545.078	48398.62
545.279	47907.11
545.479	48517.4
545.679	48226.59
545.879	48161.06
546.079	48075.04
546.28	48259.36
546.48	47937.83
546.68	48496.92
546.88	48290.08
547.08	47982.88
547.28	48072.99
547.48	48046.37
547.68	48335.13
547.88	47335.73
548.081	48066.85
548.281	47956.26
548.481	48261.41
548.681	48263.46
548.881	48298.27
549.081	47997.22
549.28	47726.89
549.48	48566.55
549.68	47718.7
549.88	48429.34
550.08	47808.81
550.28	47712.55
550.48	47919.4
550.68	48322.85
550.88	47618.35
551.08	47692.07
551.279	48296.22
551.479	47462.7
551.679	48210.21
551.879	47534.38
552.079	47833.38
552.278	47700.26
552.478	47872.29
552.678	47675.69
552.878	48089.38
553.077	47536.43
553.277	47571.24
553.477	48097.57
553.676	47843.62
553.876	47026.48
554.076	47419.69
554.275	47659.3
554.475	47139.12
554.674	47647.02
554.874	47745.32
555.074	47216.94
555.273	47636.78
555.473	47552.81
555.672	47120.69
555.872	47081.78
556.071	47401.26
556.271	47388.97
556.47	47178.03
556.67	46942.52
556.869	47100.21
557.068	46999.86
557.268	46784.82
557.467	46784.82
557.667	47010.1
557.866	47069.49
558.065	46522.68
558.265	46772.53
558.464	46250.3
558.663	46764.34
558.863	46272.83
559.062	46995.76
559.261	46205.25
559.461	46764.34
559.66	45883.72
559.859	46453.05
560.058	45922.63
560.258	46051.65
560.457	45683.01
560.656	46412.09
560.855	46252.35
561.054	46063.94
561.253	45672.78
561.453	45900.1
561.652	46111.04
561.851	46137.66
562.05	45277.52
562.249	45359.44
562.448	46027.07
562.647	45277.52
562.846	45291.85
563.045	45547.85
563.244	45248.85
563.443	45683.01
563.642	44863.83
563.841	45121.87
564.04	44648.79
564.239	45330.76
564.438	44740.95
564.637	44777.81
564.836	44880.21
565.035	43938.15
565.234	44613.98
565.432	44134.75
565.631	44429.66
565.83	44333.4
566.029	44118.37
566.228	43868.51
566.427	44425.56
566.625	43784.55
566.824	43127.15
567.023	44101.98
567.222	43405.67
567.42	43622.76
567.619	43299.18
567.818	43000.18
568.016	43176.3
568.215	43639.14
568.414	43336.04
568.612	43583.85
568.811	42899.83
569.01	42627.45
569.208	42123.65
569.407	43254.12
569.605	42094.97
569.804	42635.64
570.002	41806.21
570.201	42404.22
570.4	41669
570.598	41970.05
570.797	41943.42
570.995	42023.29
571.193	41564.55
571.392	41738.63
571.59	41195.92
571.789	41310.6
571.987	40976.78
572.186	41322.89
572.384	41111.95
572.582	41183.63
572.781	41068.94
572.979	40931.73
573.177	40640.92
573.376	41038.22
573.574	40544.66
573.772	40710.55
573.971	40339.86
574.169	40180.12
574.367	40137.12
574.565	40358.3
574.763	39866.78
574.962	39643.56
575.16	39608.74
575.358	39629.22
575.556	39166.38
575.754	39932.32
575.952	39072.17
576.151	39252.39
576.349	38818.22
576.547	38885.81
576.745	38943.15
576.943	38887.85
577.141	38449.59
577.339	38939.05
577.537	38586.8
577.735	38756.78
577.933	38189.5
578.131	38558.13
578.329	37996.99
578.527	37929.41
578.725	38064.57
578.923	38029.76
579.121	37634.5
579.319	37753.28
579.516	37833.15
579.714	37448.13
579.912	37185.99
580.11	37384.65
580.308	36936.14
580.506	36934.09
580.704	36477.4
580.901	37071.31
581.099	37130.7
581.297	36344.28
581.495	36463.06
581.692	36444.63
581.89	35885.53
582.088	36375
582.285	35934.68
582.483	36215.26
582.681	35975.64
582.878	35611.1
583.076	35236.33
583.274	36198.87
583.471	35351.01
583.669	35623.39
583.866	35209.7
584.064	35611.1
584.262	34896.36
584.459	35396.07
584.657	34767.34
584.854	35213.8
585.052	34402.8
585.249	34669.04
585.447	34632.18
585.644	34271.73
585.841	34552.3
586.039	34548.21
586.236	33876.48
586.434	34034.17
586.631	33677.82
586.828	34091.51
587.026	33948.15
587.223	33776.12
587.42	33565.18
587.618	33966.59
587.815	32920.07
588.012	33362.43
588.21	33376.77
588.407	33434.11
588.604	32815.63
588.801	32481.81
588.999	33411.59
589.196	32625.17
589.393	32805.39
589.59	32786.96
589.787	32506.38
589.984	32500.24
590.182	32428.56
590.379	32330.26
590.576	32086.55
590.773	31971.86
590.97	31871.51
591.167	31889.95
591.364	31521.31
591.561	31898.14
591.758	31846.94
591.955	31517.22
592.152	31617.57
592.349	31255.08
592.546	31070.76
592.743	31302.18
592.94	30915.11
593.137	31091.24
593.334	31011.37
593.531	30718.51
593.727	31146.53
593.924	30919.21
594.121	30374.45
594.318	30478.89
594.515	29712.95
594.712	30667.31
594.908	30286.39
595.105	30425.65
595.302	30114.36
595.499	30249.52
595.696	29907.51
595.892	29823.54
596.089	29639.23
596.286	29708.86
596.482	29264.45
596.679	29561.4
596.876	29559.36
597.072	29108.8
597.269	29164.1
597.466	29207.11
597.662	29129.28
597.859	29196.87
598.055	29086.28
598.252	28942.92
598.448	28639.82
598.645	28750.41
598.841	28598.86
599.038	28572.24
599.234	28609.1
599.431	28314.19
599.627	28146.26
599.824	28226.13
600.02	27920.98
600.217	28449.36
600.413	27597.4
600.609	27994.71
600.806	27753.05
601.002	27857.49
601.198	27673.18
601.395	27738.71
601.591	27322.98
601.787	27484.76
601.984	27441.76
602.18	27497.05
602.376	27173.47
602.572	26804.84
602.769	27116.13
602.965	26794.6
603.161	26827.37
603.357	26946.15
603.553	26419.82
603.75	26567.27
603.946	26430.06
604.142	26774.12
604.338	26184.3
604.534	26528.36
604.73	26266.22
604.926	26178.16
605.122	26372.72
605.318	25885.3
605.514	25883.25
605.71	25602.68
605.906	25700.98
606.102	25614.97
606.298	25721.46
606.494	25508.47
606.69	25641.59
606.886	25440.89
607.082	25356.93
607.278	25514.62
607.474	24750.73
607.67	25612.92
607.866	24994.43
608.062	25430.65
608.257	25000.58
608.453	24808.07
608.649	25068.16
608.845	24543.88
609.041	24871.56
609.236	24568.46
609.432	24543.88
609.628	24951.43
609.824	24486.54
610.019	24291.98
610.215	24488.59
610.411	24294.03
610.606	24353.42
610.802	24357.52
610.998	24091.28
611.193	24451.72
611.389	23874.2
611.584	23691.93
611.78	24074.9
611.976	24023.7
612.171	23952.02
612.367	24046.23
612.562	23616.15
612.758	23534.23
612.953	23587.48
613.149	23796.37
613.344	23669.4
613.539	23724.69
613.735	23388.83
613.93	23554.71
614.126	23063.2
614.321	23700.12
614.517	23206.56
614.712	23190.17
614.907	23190.17
615.103	23311
615.298	23071.39
615.493	23278.24
615.688	22848.16
615.884	23413.4
616.079	22657.7
616.274	22854.31
616.47	22792.87
616.665	22713
616.86	22454.95
617.055	22452.91
617.25	22647.46
617.445	22616.74
617.641	22237.87
617.836	22434.47
618.031	22188.72
618.226	22467.24
618.421	22094.51
618.616	22289.07
618.811	21732.02
619.006	22211.25
619.201	21750.45
619.396	21889.71
619.591	21224.12
619.786	21496.5
619.981	21361.34
620.176	21527.22
620.371	21287.61
620.566	21508.79
620.761	20943.55
620.956	21381.82
621.151	20787.91
621.346	20964.03
621.541	20521.67
621.735	20822.72
621.93	20503.24
622.125	20654.79
622.32	19981.01
622.515	20406.98
622.709	20001.49
622.904	19882.7
623.099	19946.19
623.294	20044.49
623.488	19536.6
623.683	19643.09
623.878	19213.02
624.072	19426.01
624.267	19290.84
624.462	19276.51
624.656	18797.28
624.851	19266.27
625.046	18805.47
625.24	18903.78
625.435	18529
625.629	18936.54
625.824	18373.35
626.018	18766.56
626.213	18035.44
626.407	18373.35
626.602	17842.93
626.796	18035.44
626.991	18115.31
627.185	17726.19
627.38	17830.64
627.574	17728.24
627.768	17285.88
627.963	17369.85
628.157	17148.67
628.352	17283.83
628.546	17134.33
628.74	17427.19
628.935	16870.14
629.129	17036.03
629.323	16825.09
629.517	16560.9
629.712	16741.12
629.906	16730.88
630.1	16382.73
630.294	16540.42
630.489	16184.07
630.683	16280.33
630.877	16106.25
631.071	15979.28
631.265	16018.19
631.459	16087.82
631.653	15813.39
631.848	15667.98
632.042	15565.59
632.236	15708.94
632.43	15428.37
632.624	15543.06
632.818	15182.62
633.012	15348.5
633.206	15029.02
633.4	15176.47
633.594	14994.2
633.788	14928.67
633.982	14940.96
634.176	14791.45
634.369	14861.09
634.563	14588.71
634.757	14525.22
634.951	14672.67
635.145	14527.27
635.339	14474.02
635.533	14291.75
635.726	14285.61
635.92	13912.88
636.114	13943.6
636.308	13910.83
636.501	14000.94
636.695	13712.17
636.889	13558.58
637.083	13534
637.276	13609.78
637.47	13318.96
637.664	13321.01
637.857	13060.92
638.051	13278.01
638.244	13206.33
638.438	13110.07
638.632	12772.16
638.825	12884.8
639.019	12587.84
639.212	12815.16
639.406	12862.27
639.599	12458.82
639.793	12639.04
639.986	12213.06
640.18	12421.95
640.373	12278.6
640.567	12321.6
640.76	11983.69
640.954	11901.77
641.147	12051.27
641.34	11930.44
641.534	11961.16
641.727	11764.56
641.92	11803.47
642.114	11766.6
642.307	11750.22
642.5	11625.29
642.694	11498.32
642.887	11383.63
643.08	11590.48
643.273	11322.2
643.467	11252.56
643.66	10992.47
643.853	11023.19
644.046	10779.48
644.239	10910.55
644.432	10931.03
644.626	10914.65
644.819	10918.75
645.012	10847.07
645.205	10541.92
645.398	10666.85
645.591	10351.46
645.784	10500.96
645.977	10361.7
646.17	10292.07
646.363	10099.56
646.556	10103.65
646.749	10408.8
646.942	10148.71
647.135	10115.94
647.328	9941.86
647.521	9849.71
647.714	9708.4
647.907	9876.33
648.099	9718.64
648.292	9958.25
648.485	9614.19
648.678	9747.31
648.871	9487.22
649.064	9294.71
649.256	9728.88
649.449	9341.81
649.642	9415.54
649.835	9134.96
650.027	9345.91
650.22	9087.86
650.413	9116.53
650.605	9094.01
650.798	9110.39
650.991	8827.77
651.183	9003.89
651.376	8760.19
651.568	8616.83
651.761	8674.17
651.954	8889.21
652.146	8795
652.339	8784.76
652.531	8739.71
652.724	8487.81
652.916	8493.95
653.109	8481.66
653.301	8487.81
653.494	8426.37
653.686	8113.03
653.879	8256.39
654.071	8199.04
654.263	8027.01
654.456	8229.76
654.648	8104.84
654.84	7756.68
655.033	7996.29
655.225	7869.32
655.417	7889.8
655.61	7811.98
655.802	7840.65
655.994	7881.61
656.186	7889.8
656.379	7789.45
656.571	7635.85
656.763	7463.82
656.955	7547.79
657.148	7644.04
657.34	7465.87
657.532	7496.59
657.724	7588.75
657.916	7388.05
658.108	7431.05
658.3	7261.07
658.492	7283.6
658.684	7115.67
658.876	7236.5
659.068	7052.18
659.26	7238.55
659.452	7201.68
659.644	6904.73
659.836	7087
660.028	6996.89
660.22	6933.4
660.412	6892.44
660.604	6759.32
660.796	6888.34
660.988	6628.25
661.18	6677.4
661.372	6736.79
661.563	6818.71
661.755	6636.44
661.947	6527.9
662.139	6753.18
662.331	6540.19
662.522	6388.64
662.714	6484.89
662.906	6366.11
663.097	6472.61
663.289	6273.95
663.481	6273.95
663.673	6171.55
663.864	6276
664.056	6149.03
664.247	6099.87
664.439	6083.49
664.631	6165.41
664.822	6192.03
665.014	6020
665.205	5960.61
665.397	5895.08
665.588	5954.47
665.78	5983.14
665.971	5981.09
666.163	5866.41
666.354	5780.39
666.546	5893.03
666.737	5776.3
666.929	5790.63
667.12	5647.27
667.311	5684.14
667.503	5696.43
667.694	5651.37
667.885	5667.75
668.077	5573.55
668.268	5708.71
668.459	5563.31
668.651	5409.71
668.842	5604.27
669.033	5491.63
669.224	5329.84
669.416	5493.68
669.607	5407.66
669.798	5417.9
669.989	5641.13
670.18	5297.07
670.371	5297.07
670.563	5262.26
670.754	5364.65
670.945	5209.01
671.136	5243.82
671.327	5116.85
671.518	5188.53
671.709	5204.91
671.9	5030.84
672.091	5329.84
672.282	5145.52
672.473	5155.76
672.664	5045.17
672.855	5206.96
673.046	5098.42
673.237	5069.75
673.428	5045.17
673.619	5006.26
673.809	5215.15
674	5098.42
674.191	5065.65
674.382	4905.91
674.573	5059.51
674.764	5014.45
674.954	4840.37
675.145	4819.89
675.336	4922.29
675.527	4996.02
675.717	4828.09
675.908	4748.22
676.099	4891.57
676.289	4836.28
676.48	4754.36
676.671	4660.15
676.861	4785.08
677.052	4819.89
677.243	4690.87
677.433	4742.07
677.624	4907.96
677.814	4760.5
678.005	4701.11
678.195	4789.17
678.386	4803.51
678.576	4658.1
678.767	4754.36
678.957	4641.72
679.148	4686.78
679.338	4699.06
679.529	4672.44
679.719	4613.05
679.909	4617.15
680.1	4688.82
680.29	4549.56
680.481	4594.62
680.671	4635.58
680.861	4502.46
681.052	4414.4
681.242	4594.62
681.432	4680.63
681.622	4617.15
681.813	4510.65
682.003	4524.99
682.193	4502.46
682.383	4533.18
682.573	4590.52
682.764	4502.46
682.954	4312
683.144	4531.13
683.334	4467.64
683.524	4469.69
683.714	4486.08
683.904	4416.44
684.094	4332.48
684.284	4391.87
684.474	4434.88
684.664	4543.42
684.854	4389.82
685.044	4379.58
685.234	4434.88
685.424	4594.62
685.614	4416.44
685.804	4416.44
685.994	4457.4
686.184	4268.99
686.374	4443.07
686.564	4250.56
686.753	4330.43
686.943	4158.4
687.133	4180.93
687.323	4146.11
687.513	4312
687.702	4203.46
687.892	4232.13
688.082	4166.59
688.272	4207.55
688.461	4273.09
688.651	4191.17
688.841	4148.16
689.03	4178.88
689.22	4021.19
689.41	4129.73
689.599	4225.98
689.789	4195.26
689.979	4131.78
690.168	4139.97
690.358	4053.95
690.547	3972.04
690.737	4037.57
690.926	4076.48
691.116	3890.12
691.305	4080.58
691.495	4010.95
691.684	3785.67
691.874	3953.6
692.063	4041.67
692.252	3896.26
692.442	3978.18
692.631	4017.09
692.82	3865.54
693.01	3947.46
693.199	3849.16
693.388	3775.43
693.578	3857.35
693.767	3873.73
693.956	3896.26
694.146	3816.39
694.335	3769.29
694.524	3843.01
694.713	3861.45
694.902	3935.17
695.092	3793.86
695.281	3752.9
695.47	3865.54
695.659	3826.63
695.848	3765.19
696.037	3822.53
696.226	3802.05
696.415	3689.42
696.604	3793.86
696.793	3732.42
696.982	3757
697.171	3615.69
697.36	3771.33
697.549	3544.01
697.738	3797.96
697.927	3670.98
698.116	3650.5
698.305	3593.16
698.494	3554.25
698.683	3541.96
698.872	3675.08
699.061	3578.83
699.25	3636.17
699.438	3709.9
699.627	3650.5
699.816	3621.83
700.005	3619.78
700.193	3601.35
700.382	3693.51
700.571	3648.46
700.76	3576.78
700.948	3627.98
701.137	3617.74
701.326	3560.39
701.514	3546.06
701.703	3576.78
701.892	3507.15
702.08	3687.37
702.269	3488.71
702.457	3570.63
702.646	3607.5
702.834	3548.11
703.023	3544.01
703.212	3607.5
703.4	3404.75
703.589	3541.96
703.777	3462.09
703.965	3458
704.154	3351.5
704.342	3447.76
704.531	3496.91
704.719	3283.92
704.907	3478.47
705.096	3478.47
705.284	3374.03
705.472	3550.15
705.661	3359.69
705.849	3486.67
706.037	3306.45
706.226	3451.85
706.414	3226.57
706.602	3292.11
706.79	3349.45
706.979	3273.68
707.167	3337.17
707.355	3378.12
707.543	3390.41
707.731	3406.8
707.919	3308.49
708.107	3249.1
708.296	3208.14
708.484	3345.36
708.672	3277.77
708.86	3322.83
709.048	3277.77
709.236	3294.16
709.424	3185.62
709.612	3177.42
709.8	3212.24
709.988	3281.87
710.176	3206.1
710.364	3240.91
710.551	3183.57
710.739	3115.98
710.927	3220.43
711.115	3199.95
711.303	3208.14
711.491	3070.93
711.679	3230.67
711.866	3068.88
712.054	3152.85
712.242	3081.17
712.43	3138.51
712.617	3097.55
712.805	2966.48
712.993	3093.46
713.181	3027.92
713.368	3077.07
713.556	3056.59
713.744	3019.73
713.931	3054.55
714.119	3099.6
714.306	3093.46
714.494	2984.91
714.682	3034.07
714.869	3021.78
715.057	3032.02
715.244	2974.67
715.432	3017.68
715.619	2870.23
715.807	2905.04
715.994	2970.58
716.182	2943.96
716.369	2790.36
716.556	3070.93
716.744	2782.17
716.931	2857.94
717.119	2917.33
717.306	2999.25
717.493	2900.95
717.681	3003.35
717.868	2841.56
718.055	2909.14
718.242	2782.17
718.43	2798.55
718.617	2773.97
718.804	2784.21
718.991	2796.5
719.179	2808.79
719.366	2788.31
719.553	2798.55
719.74	2681.82
719.927	2687.96
720.114	2857.94
720.301	2737.11
720.488	2685.91
720.676	2692.05
720.863	2745.3
721.05	2790.36
721.237	2819.03
721.424	2769.88
721.611	2718.68
721.798	2710.49
721.985	2722.77
722.172	2690.01
722.358	2577.37
722.545	2859.99
722.732	2624.47
722.919	2700.25
723.106	2599.9
723.293	2583.51
723.48	2683.86
723.667	2716.63
723.853	2585.56
724.04	2628.57
724.227	2591.7
724.414	2552.79
724.6	2511.83
724.787	2587.61
724.974	2628.57
725.161	2565.08
725.347	2567.13
725.534	2540.51
725.72	2532.31
725.907	2556.89
726.094	2614.23
726.28	2565.08
726.467	2415.58
726.653	2548.7
726.84	2503.64
727.027	2485.21
727.213	2438.11
727.4	2458.59
727.586	2575.32
727.773	2524.12
727.959	2550.75
728.145	2427.87
728.332	2479.07
728.518	2345.95
728.705	2544.6
728.891	2470.87
729.077	2419.68
729.264	2405.34
729.45	2352.09
729.636	2501.59
729.823	2380.76
730.009	2472.92
730.195	2395.1
730.382	2440.15
730.568	2440.15
730.754	2321.37
730.94	2331.61
731.126	2321.37
731.313	2423.77
731.499	2290.65
731.685	2415.58
731.871	2403.29
732.057	2393.05
732.243	2423.77
732.429	2434.01
732.615	2403.29
732.801	2251.74
732.987	2307.04
733.173	2294.75
733.359	2274.27
733.545	2266.08
733.731	2139.1
733.917	2218.97
734.103	2261.98
734.289	2128.86
734.475	2178.01
734.661	2292.7
734.847	2227.17
735.033	2294.75
735.219	2202.59
735.404	2190.3
735.59	2257.89
735.776	2186.21
735.962	2218.97
736.148	2255.84
736.333	2278.37
736.519	2180.06
736.705	2255.84
736.89	2210.78
737.076	2167.77
737.262	2036.7
737.447	2182.11
737.633	2167.77
737.819	2196.45
738.004	2188.25
738.19	2079.71
738.375	2137.06
738.561	2175.97
738.747	2155.49
738.932	2018.27
739.118	2110.43
739.303	2012.13
739.489	2192.35
739.674	2012.13
739.859	1983.46
740.045	1991.65
740.23	2012.13
740.416	2034.66
740.601	1983.46
740.786	2085.86
740.972	2055.14
741.157	1973.22
741.342	1965.03
741.528	1973.22
741.713	1991.65
741.898	2032.61
742.084	1907.68
742.269	1950.69
742.454	1940.45
742.639	1960.93
742.824	1924.07
743.01	1930.21
743.195	1948.64
743.38	1911.78
743.565	1868.77
743.75	1917.92
743.935	1934.31
744.12	1858.53
744.305	1864.68
744.49	1862.63
744.675	1852.39
744.86	1745.89
745.045	1827.81
745.23	1766.37
745.415	1745.89
745.6	1831.91
745.785	1721.32
745.97	1754.09
746.155	1672.17
746.34	1786.85
746.525	1782.76
746.71	1756.13
746.895	1612.78
747.079	1627.11
747.264	1696.74
747.449	1551.34
747.634	1704.93
747.819	1627.11
748.003	1666.02
748.188	1594.34
748.373	1580.01
748.557	1620.97
748.742	1645.54
748.927	1684.45
749.111	1555.43
749.296	1666.02
749.481	1551.34
749.665	1567.72
749.85	1467.37
750.034	1606.63
750.219	1440.75
750.404	1502.19
750.588	1455.08
750.773	1461.23
750.957	1473.51
751.141	1512.42
751.326	1493.99
751.51	1364.97
751.695	1465.32
751.879	1438.7
752.064	1455.08
752.248	1457.13
752.432	1442.79
752.617	1418.22
752.801	1418.22
752.985	1407.98
753.17	1387.5
753.354	1336.3
753.538	1233.9
753.722	1297.39
753.907	1281
754.091	1274.86
754.275	1334.25
754.459	1305.58
754.643	1410.03
754.828	1293.29
755.012	1246.19
755.196	1287.15
755.38	1164.27
755.564	1194.99
755.748	1303.53
755.932	1154.03
756.116	1287.15
756.3	1260.52
756.484	1111.02
756.668	1166.32
756.852	1092.59
757.036	1127.41
757.22	1111.02
757.404	1129.45
757.588	1072.11
757.772	1168.37
757.956	1168.37
758.14	1113.07
758.323	1082.35
758.507	1121.26
758.691	1117.17
758.875	1186.8
759.059	1174.51
759.242	1129.45
759.426	1043.44
759.61	1068.02
759.794	1055.73
759.977	1061.87
760.161	1057.78
760.345	1092.59
760.528	994.29
760.712	990.19
760.895	1008.62
761.079	967.67
761.263	1059.82
761.446	961.52
761.63	1045.49
761.813	984.05
761.997	879.6
762.18	977.91
762.364	990.19
762.547	938.99
762.731	949.23
762.914	1065.97
763.098	947.19
763.281	898.03
763.464	877.55
763.648	920.56
763.831	998.38
764.015	1012.72
764.198	908.27
764.381	822.26
764.564	938.99
764.748	959.47
764.931	934.9
765.114	863.22
765.297	879.6
765.481	879.6
765.664	869.36
765.847	832.5
766.03	879.6
766.213	805.88
766.397	908.27
766.58	873.46
766.763	859.12
766.946	850.93
767.129	803.83
767.312	785.4
767.495	898.03
767.678	838.64
767.861	834.55
768.044	769.01
768.227	789.49
768.41	844.79
768.593	887.79
768.776	820.21
768.959	764.92
769.142	789.49
769.324	769.01
769.507	748.53
769.69	799.73
769.873	793.59
770.056	867.31
770.239	834.55
770.421	807.92
770.604	728.05
770.787	766.96
770.97	787.44
771.152	783.35
771.335	736.24
771.518	756.72
771.7	850.93
771.883	721.91
772.066	760.82
772.248	736.24
772.431	732.15
772.613	760.82
772.796	674.81
772.978	809.97
773.161	660.47
773.343	756.72
773.526	685.05
773.708	711.67
773.891	762.87
774.073	660.47
774.256	717.81
774.438	703.48
774.621	709.62
774.803	678.9
774.985	678.9
775.168	658.42
775.35	586.74
775.532	668.66
775.715	639.99
775.897	676.85
776.079	596.98
776.261	730.1
776.444	732.15
776.626	596.98
776.808	605.17
776.99	613.37
777.173	678.9
777.355	660.47
777.537	646.13
777.719	603.13
777.901	582.65
778.083	674.81
778.265	551.93
778.447	556.02
778.629	564.22
778.811	519.16
778.993	568.31
779.175	410.62
779.357	627.7
779.539	586.74
779.721	558.07
779.903	510.97
780.085	566.26
780.267	551.93
780.449	592.89
780.631	519.16
780.812	521.21
780.994	527.35
781.176	422.91
781.358	465.91
781.54	541.69
781.721	572.41
781.903	441.34
782.085	506.87
782.267	525.3
782.448	437.24
782.63	519.16
782.812	433.15
782.993	451.58
783.175	482.3
783.357	412.67
783.538	527.35
783.72	433.15
783.901	427
784.083	443.39
784.264	373.75
784.446	357.37
784.627	400.38
784.809	418.81
784.99	459.77
785.172	476.15
785.353	357.37
785.535	388.09
785.716	369.66
785.897	394.23
786.079	474.1
786.26	424.95
786.441	379.9
786.623	443.39
786.804	402.43
786.985	363.51
787.167	427
787.348	433.15
787.529	398.33
787.71	461.82
787.891	386.04
788.073	363.51
788.254	312.32
788.435	293.88
788.616	351.23
788.797	199.68
788.978	322.56
789.159	412.67
789.34	414.71
789.522	324.6
789.703	373.75
789.884	424.95
790.065	214.01
790.246	375.8
790.427	316.41
790.607	443.39
790.788	334.84
790.969	289.79
791.15	277.5
791.331	332.79
791.512	322.56
791.693	285.69
791.874	316.41
792.054	349.18
792.235	347.13
792.416	244.73
792.597	347.13
792.778	271.36
792.958	314.36
793.139	248.83
793.32	267.26
793.5	295.93
793.681	332.79
793.862	375.8
794.042	300.03
794.223	314.36
794.404	265.21
794.584	228.35
794.765	246.78
794.945	289.79
795.126	293.88
795.306	320.51
795.487	263.16
795.667	291.84
795.848	250.88
796.028	289.79
796.209	300.03
796.389	234.49
796.57	240.64
796.75	259.07
796.93	285.69
797.111	302.08
797.291	273.4
797.471	328.7
797.652	244.73
797.832	289.79
798.012	316.41
798.192	238.59
798.373	275.45
798.553	185.34
798.733	185.34
798.913	183.29
799.093	242.68
799.274	207.87
799.454	222.2
799.634	283.64
799.814	285.69
799.994	275.45
800.174	259.07
800.354	199.68
800.534	232.44
800.714	277.5
800.894	224.25
801.074	134.14
801.254	277.5
801.434	207.87
801.614	240.64
801.794	242.68
801.974	709.62
802.154	158.72
802.334	254.97
802.514	261.12
802.693	183.29
802.873	238.59
803.053	267.26
803.233	236.54
803.413	140.29
803.592	207.87
803.772	232.44
803.952	154.62
804.131	76.8
804.311	205.82
804.491	214.01
804.67	132.09
804.85	205.82
805.03	177.15
805.209	168.96
805.389	193.53
805.568	185.34
805.748	197.63
805.928	306.17
806.107	224.25
806.287	179.2
806.466	187.39
806.646	185.34
806.825	228.35
807.004	214.01
807.184	152.57
807.363	162.81
807.543	158.72
807.722	232.44
807.901	248.83
808.081	128
808.26	130.05
808.439	109.57
808.619	214.01
808.798	195.58
808.977	183.29
809.156	218.11
809.336	224.25
809.515	125.95
809.694	160.77
809.873	183.29
810.052	164.86
810.231	207.87
810.411	103.42
810.59	166.91
810.769	248.83
810.948	117.76
811.127	152.57
811.306	154.62
811.485	187.39
811.664	216.06
811.843	162.81
812.022	207.87
812.201	80.89
812.38	240.64
812.559	128
812.737	158.72
812.916	107.52
813.095	39.94
813.274	156.67
813.453	89.09
813.632	148.48
813.811	138.24
813.989	70.65
814.168	152.57
814.347	97.28
814.526	181.25
814.704	191.49
814.883	171.01
815.062	78.85
815.24	142.33
815.419	113.66
815.598	191.49
815.776	58.37
815.955	113.66
816.133	109.57
816.312	109.57
816.49	166.91
816.669	138.24
816.847	171.01
817.026	105.47
817.204	197.63
817.383	156.67
817.561	140.29
817.74	171.01
817.918	175.1
818.097	115.71
818.275	84.99
818.453	58.37
818.632	91.13
818.81	195.58
818.988	95.23
819.167	136.19
819.345	168.96
819.523	148.48
819.701	146.43
819.879	152.57
820.058	140.29
820.236	58.37
820.414	160.77
820.592	140.29
820.77	103.42
820.948	130.05
821.127	35.84
821.305	146.43
821.483	128
821.661	123.9
821.839	115.71
822.017	107.52
822.195	87.04
822.373	152.57
822.551	101.37
822.729	152.57
822.907	162.81
823.085	123.9
823.262	156.67
823.44	62.46
823.618	76.8
823.796	146.43
823.974	46.08
824.152	76.8
824.329	121.85
824.507	87.04
824.685	84.99
824.863	148.48
825.04	78.85
825.218	111.61
825.396	119.81
825.574	193.53
825.751	80.89
825.929	211.96
826.107	78.85
826.284	162.81
826.462	103.42
826.639	19.46
826.817	105.47
826.994	109.57
827.172	64.51
827.349	189.44
827.527	117.76
827.704	66.56
827.882	66.56
828.059	52.22
828.237	15.36
828.414	187.39
828.591	-21.5
828.769	105.47
828.946	123.9
829.124	76.8
829.301	130.05
829.478	109.57
829.655	103.42
829.833	209.92
830.01	54.27
830.187	23.55
830.364	48.13
830.542	119.81
830.719	64.51
830.896	70.65
831.073	103.42
831.25	113.66
831.427	25.6
831.604	82.94
831.782	82.94
831.959	91.13
832.136	123.9
832.313	97.28
832.49	111.61
832.667	99.33
832.844	54.27
833.021	123.9
833.198	27.65
833.374	101.37
833.551	105.47
833.728	115.71
833.905	62.46
834.082	89.09
834.259	76.8
834.436	119.81
834.612	21.5
834.789	109.57
834.966	80.89
835.143	54.27
835.319	134.14
835.496	74.75
835.673	91.13
835.85	62.46
836.026	33.79
836.203	111.61
836.38	52.22
836.556	37.89
836.733	107.52
836.909	72.7
837.086	56.32
837.262	66.56
837.439	66.56
837.616	52.22
837.792	7.17
837.968	84.99
838.145	23.55
838.321	7.17
838.498	82.94
838.674	76.8
838.851	68.61
839.027	46.08
839.203	60.42
839.38	54.27
839.556	76.8
839.732	54.27
839.909	130.05
840.085	103.42
840.261	76.8
840.437	109.57
840.614	21.5
840.79	56.32
840.966	17.41
841.142	66.56
841.318	3.07
841.494	123.9
841.671	60.42
841.847	54.27
842.023	89.09
842.199	21.5
842.375	31.74
842.551	33.79
842.727	54.27
842.903	82.94
843.079	101.37
843.255	41.98
843.431	46.08
843.607	99.33
843.783	-5.12
843.959	64.51
844.134	64.51
844.31	39.94
844.486	23.55
844.662	54.27
844.838	62.46
845.013	41.98
845.189	70.65
845.365	121.85
845.541	27.65
845.716	41.98
845.892	107.52
846.068	9.22
846.244	52.22
846.419	78.85
846.595	-5.12
846.77	95.23
846.946	89.09
847.122	60.42
847.297	15.36
847.473	72.7
847.648	58.37
847.824	44.03
847.999	87.04
848.175	82.94
848.35	13.31
848.526	101.37
848.701	60.42
848.876	7.17
849.052	39.94
849.227	87.04
849.403	11.26
849.578	27.65
849.753	60.42
849.929	52.22
850.104	27.65
850.279	19.46
850.454	25.6
850.63	33.79
850.805	50.18
850.98	64.51
851.155	46.08
851.33	54.27
851.505	66.56
851.681	84.99
851.856	-5.12
852.031	52.22
852.206	-13.31
852.381	33.79
852.556	27.65
852.731	68.61
852.906	58.37
853.081	72.7
853.256	39.94
853.431	15.36
853.606	37.89
853.781	27.65
853.956	21.5
854.131	91.13
854.305	39.94
854.48	76.8
854.655	39.94
854.83	19.46
855.005	68.61
855.18	50.18
855.354	-3.07
855.529	60.42
855.704	95.23
855.879	101.37
856.053	-7.17
856.228	107.52
856.403	72.7
856.577	9.22
856.752	17.41
856.926	31.74
857.101	39.94
857.276	15.36
857.45	-50.18
857.625	54.27
857.799	33.79
857.974	13.31
858.148	15.36
858.323	46.08
858.497	48.13
858.672	99.33
858.846	-1.02
859.02	21.5
859.195	27.65
859.369	1.02
859.543	56.32
859.718	-3.07
859.892	19.46
860.066	48.13
860.241	27.65
860.415	29.7
860.589	29.7
860.763	33.79
860.938	-9.22
861.112	56.32
861.286	74.75
861.46	15.36
861.634	-25.6
861.808	50.18
861.982	1.02
862.157	15.36
862.331	-17.41
862.505	11.26
862.679	3.07
862.853	70.65
863.027	48.13
863.201	48.13
863.375	-5.12
863.549	31.74
863.722	-17.41
863.896	56.32
864.07	76.8
864.244	119.81
864.418	-13.31
864.592	39.94
864.766	-9.22
864.939	23.55
865.113	93.18
865.287	84.99
865.461	-1.02
865.634	54.27
865.808	58.37
865.982	35.84
866.156	1.02
866.329	-7.17
866.503	-3.07
866.676	1.02
866.85	128
867.024	84.99
867.197	93.18
867.371	33.79
867.544	5.12
867.718	1.02
867.891	27.65
868.065	-21.5
868.238	-27.65
868.412	-9.22
868.585	31.74
868.759	68.61
868.932	101.37
869.105	54.27
869.279	5.12
869.452	39.94
869.625	27.65
869.799	-9.22
869.972	-33.79
870.145	1.02
870.319	84.99
870.492	-50.18
870.665	-5.12
870.838	15.36
871.011	-29.7
871.185	37.89
871.358	23.55
871.531	13.31
871.704	-17.41
871.877	97.28
872.05	-9.22
872.223	11.26
872.396	52.22
872.569	44.03
872.742	-25.6
872.915	5.12
873.088	23.55
873.261	50.18
873.434	37.89
873.607	13.31
873.78	-37.89
873.953	41.98
874.126	39.94
874.299	60.42
874.471	-33.79
874.644	19.46
874.817	44.03
874.99	84.99
875.163	13.31
875.335	72.7
875.508	54.27
875.681	44.03
875.853	-41.98
876.026	56.32
876.199	-50.18
876.371	46.08
876.544	-19.46
876.717	33.79
876.889	60.42
877.062	25.6
877.234	27.65
877.407	-11.26
877.579	-19.46
877.752	29.7
877.924	-3.07
878.097	-15.36
878.269	58.37
878.442	74.75
878.614	11.26
878.786	50.18
878.959	11.26
879.131	46.08
879.303	-9.22
879.476	48.13
879.648	84.99
879.82	91.13
879.993	25.6
880.165	-48.13
880.337	52.22
880.509	21.5
880.681	-19.46
880.854	-1.02
881.026	5.12
881.198	58.37
881.37	52.22
881.542	25.6
881.714	41.98
881.886	74.75
882.058	-25.6
882.23	-11.26
882.402	13.31
882.574	5.12
882.746	103.42
882.918	62.46
883.09	-19.46
883.262	27.65
883.434	-44.03
883.606	17.41
883.778	33.79
883.95	76.8
884.122	-15.36
884.293	35.84
884.465	-15.36
884.637	17.41
884.809	93.18
884.98	-35.84
885.152	91.13
885.324	39.94
885.496	15.36
885.667	11.26
885.839	15.36
886.011	33.79
886.182	25.6
886.354	70.65
886.525	70.65
886.697	7.17
886.869	-58.37
887.04	35.84
887.212	15.36
887.383	54.27
887.555	31.74
887.726	48.13
887.897	60.42
888.069	-15.36
888.24	37.89
888.412	93.18
888.583	52.22
888.754	19.46
888.926	23.55
889.097	-60.42
889.268	29.7
889.44	64.51
889.611	13.31
889.782	54.27
889.953	-5.12
890.125	48.13
890.296	56.32
890.467	-50.18
890.638	27.65
890.809	37.89
890.98	-41.98
891.151	1.02
891.323	-5.12
891.494	1.02
891.665	-9.22
891.836	134.14
892.007	21.5
892.178	15.36
892.349	56.32
892.52	9.22
892.691	27.65
892.862	84.99
893.032	-46.08
893.203	121.85
893.374	17.41
893.545	70.65
893.716	-3.07
893.887	13.31
894.057	17.41
894.228	27.65
894.399	-39.94
894.57	-15.36
894.74	-3.07
894.911	-39.94
895.082	29.7
895.253	-19.46
895.423	-19.46
895.594	21.5
895.764	27.65
895.935	-54.27
896.106	70.65
896.276	-23.55
896.447	-1.02
896.617	3.07
896.788	-17.41
896.958	82.94
897.129	-39.94
897.299	-37.89
897.47	70.65
897.64	27.65
897.81	3.07
897.981	11.26
898.151	-33.79
898.322	-46.08
898.492	105.47
898.662	15.36
898.832	-5.12
899.003	41.98
899.173	-17.41
899.343	31.74
899.513	-27.65
