Data from USB4F104151__82__12-36-55-552.txt Node

Date: Fri Mar 14 12:36:55 EDT 2025
User: louis
Spectrometer: USB4F10415
Trigger mode: 4
Integration Time (sec): 2.000000E-2
Scans to average: 1
Electric dark correction enabled: true
Nonlinearity correction enabled: false
Boxcar width: 0
XAxis mode: Wavelengths
Number of Pixels in Spectrum: 3648
>>>>>Begin Spectral Data<<<<<
178.204	-107.52
178.424	-107.52
178.644	-107.52
178.864	-115.71
179.084	-60.42
179.304	-60.42
179.524	-17.41
179.744	29.7
179.964	7.17
180.184	15.36
180.404	-9.22
180.624	29.7
180.844	50.18
181.064	-70.65
181.283	-72.7
181.503	44.03
181.723	54.27
181.943	-27.65
182.163	91.13
182.383	-21.5
182.602	48.13
182.822	-9.22
183.042	7.17
183.262	41.98
183.482	91.13
183.701	-1.02
183.921	25.6
184.141	44.03
184.361	-50.18
184.58	76.8
184.8	15.36
185.02	7.17
185.239	1.02
185.459	-29.7
185.679	31.74
185.898	-11.26
186.118	-1.02
186.338	82.94
186.557	23.55
186.777	-23.55
186.997	19.46
187.216	-58.37
187.436	39.94
187.655	-31.74
187.875	17.41
188.095	-11.26
188.314	13.31
188.534	13.31
188.753	62.46
188.973	13.31
189.192	84.99
189.412	25.6
189.631	-3.07
189.851	-23.55
190.07	-15.36
190.29	-33.79
190.509	-31.74
190.729	25.6
190.948	74.75
191.168	95.23
191.387	19.46
191.607	9.22
191.826	56.32
192.045	-29.7
192.265	33.79
192.484	68.61
192.704	78.85
192.923	-13.31
193.142	99.33
193.362	60.42
193.581	70.65
193.8	62.46
194.02	39.94
194.239	27.65
194.458	54.27
194.678	41.98
194.897	58.37
195.116	-5.12
195.335	58.37
195.555	54.27
195.774	-70.65
195.993	-21.5
196.212	41.98
196.432	3.07
196.651	31.74
196.87	11.26
197.089	44.03
197.308	46.08
197.528	9.22
197.747	21.5
197.966	19.46
198.185	9.22
198.404	84.99
198.623	-29.7
198.842	23.55
199.062	33.79
199.281	66.56
199.5	54.27
199.719	35.84
199.938	60.42
200.157	27.65
200.376	111.61
200.595	74.75
200.814	56.32
201.033	-50.18
201.252	117.76
201.471	-11.26
201.69	29.7
201.909	-48.13
202.128	84.99
202.347	21.5
202.566	50.18
202.785	33.79
203.004	3.07
203.223	35.84
203.442	-29.7
203.661	89.09
203.879	39.94
204.098	58.37
204.317	39.94
204.536	29.7
204.755	-29.7
204.974	50.18
205.193	66.56
205.411	130.05
205.63	21.5
205.849	-13.31
206.068	60.42
206.287	23.55
206.505	84.99
206.724	68.61
206.943	19.46
207.162	140.29
207.381	7.17
207.599	64.51
207.818	46.08
208.037	37.89
208.255	-37.89
208.474	-11.26
208.693	46.08
208.911	5.12
209.13	-3.07
209.349	19.46
209.567	-1.02
209.786	60.42
210.005	74.75
210.223	27.65
210.442	74.75
210.661	23.55
210.879	39.94
211.098	21.5
211.316	-5.12
211.535	-9.22
211.753	29.7
211.972	37.89
212.191	62.46
212.409	87.04
212.628	95.23
212.846	3.07
213.065	11.26
213.283	125.95
213.502	-9.22
213.72	76.8
213.938	7.17
214.157	21.5
214.375	84.99
214.594	21.5
214.812	48.13
215.031	21.5
215.249	9.22
215.467	93.18
215.686	113.66
215.904	46.08
216.122	-60.42
216.341	27.65
216.559	-62.46
216.778	60.42
216.996	-27.65
217.214	25.6
217.432	-17.41
217.651	99.33
217.869	21.5
218.087	5.12
218.306	56.32
218.524	-21.5
218.742	56.32
218.96	29.7
219.179	-5.12
219.397	29.7
219.615	130.05
219.833	-37.89
220.051	15.36
220.27	68.61
220.488	-17.41
220.706	87.04
220.924	9.22
221.142	27.65
221.36	74.75
221.578	136.19
221.796	-15.36
222.015	60.42
222.233	5.12
222.451	82.94
222.669	39.94
222.887	5.12
223.105	76.8
223.323	21.5
223.541	17.41
223.759	35.84
223.977	44.03
224.195	130.05
224.413	-3.07
224.631	15.36
224.849	-11.26
225.067	103.42
225.285	-7.17
225.503	82.94
225.721	-5.12
225.939	66.56
226.157	-9.22
226.375	125.95
226.592	19.46
226.81	82.94
227.028	33.79
227.246	-3.07
227.464	91.13
227.682	-3.07
227.9	54.27
228.117	25.6
228.335	111.61
228.553	9.22
228.771	56.32
228.989	97.28
229.206	33.79
229.424	46.08
229.642	-29.7
229.86	13.31
230.077	15.36
230.295	27.65
230.513	58.37
230.731	-39.94
230.948	3.07
231.166	82.94
231.384	19.46
231.601	27.65
231.819	39.94
232.037	23.55
232.254	33.79
232.472	29.7
232.689	103.42
232.907	33.79
233.125	44.03
233.342	-19.46
233.56	1.02
233.777	31.74
233.995	37.89
234.213	56.32
234.43	7.17
234.648	-3.07
234.865	33.79
235.083	99.33
235.3	25.6
235.518	39.94
235.735	60.42
235.953	91.13
236.17	82.94
236.388	29.7
236.605	52.22
236.822	58.37
237.04	23.55
237.257	-25.6
237.475	7.17
237.692	66.56
237.909	1.02
238.127	7.17
238.344	52.22
238.562	33.79
238.779	17.41
238.996	33.79
239.214	-62.46
239.431	7.17
239.648	-15.36
239.865	87.04
240.083	72.7
240.3	7.17
240.517	54.27
240.735	41.98
240.952	-11.26
241.169	25.6
241.386	93.18
241.603	80.89
241.821	3.07
242.038	76.8
242.255	-29.7
242.472	-11.26
242.689	25.6
242.907	134.14
243.124	76.8
243.341	1.02
243.558	-37.89
243.775	-7.17
243.992	19.46
244.209	54.27
244.426	78.85
244.643	80.89
244.86	-27.65
245.078	66.56
245.295	111.61
245.512	15.36
245.729	-37.89
245.946	41.98
246.163	27.65
246.38	13.31
246.597	29.7
246.814	13.31
247.031	9.22
247.248	113.66
247.464	58.37
247.681	-29.7
247.898	91.13
248.115	115.71
248.332	-13.31
248.549	46.08
248.766	74.75
248.983	3.07
249.2	48.13
249.417	-15.36
249.633	-41.98
249.85	119.81
250.067	23.55
250.284	3.07
250.501	-15.36
250.717	31.74
250.934	48.13
251.151	107.52
251.368	25.6
251.585	58.37
251.801	19.46
252.018	62.46
252.235	-37.89
252.451	-52.22
252.668	13.31
252.885	7.17
253.102	56.32
253.318	84.99
253.535	11.26
253.752	72.7
253.968	-27.65
254.185	11.26
254.401	21.5
254.618	-19.46
254.835	-3.07
255.051	56.32
255.268	62.46
255.484	82.94
255.701	78.85
255.917	76.8
256.134	-21.5
256.351	21.5
256.567	44.03
256.784	62.46
257	5.12
257.217	-13.31
257.433	52.22
257.65	23.55
257.866	-11.26
258.082	21.5
258.299	-3.07
258.515	21.5
258.732	17.41
258.948	7.17
259.165	58.37
259.381	9.22
259.597	-15.36
259.814	9.22
260.03	89.09
260.246	62.46
260.463	31.74
260.679	54.27
260.895	39.94
261.112	7.17
261.328	11.26
261.544	74.75
261.761	50.18
261.977	39.94
262.193	37.89
262.409	46.08
262.626	70.65
262.842	27.65
263.058	50.18
263.274	80.89
263.49	35.84
263.707	31.74
263.923	-15.36
264.139	-9.22
264.355	-50.18
264.571	50.18
264.787	35.84
265.004	89.09
265.22	29.7
265.436	9.22
265.652	1.02
265.868	117.76
266.084	78.85
266.3	74.75
266.516	91.13
266.732	-5.12
266.948	25.6
267.164	64.51
267.38	21.5
267.596	27.65
267.812	99.33
268.028	35.84
268.244	23.55
268.46	46.08
268.676	33.79
268.892	-39.94
269.108	-29.7
269.324	62.46
269.54	54.27
269.756	54.27
269.972	-17.41
270.188	76.8
270.403	3.07
270.619	44.03
270.835	9.22
271.051	41.98
271.267	91.13
271.483	-33.79
271.698	89.09
271.914	17.41
272.13	-23.55
272.346	5.12
272.562	48.13
272.777	-1.02
272.993	27.65
273.209	13.31
273.425	44.03
273.64	62.46
273.856	41.98
274.072	-7.17
274.287	78.85
274.503	91.13
274.719	-1.02
274.934	23.55
275.15	58.37
275.366	37.89
275.581	7.17
275.797	99.33
276.012	68.61
276.228	-3.07
276.444	23.55
276.659	44.03
276.875	56.32
277.09	80.89
277.306	15.36
277.521	29.7
277.737	21.5
277.952	15.36
278.168	56.32
278.383	7.17
278.599	41.98
278.814	15.36
279.03	9.22
279.245	25.6
279.461	31.74
279.676	19.46
279.892	-52.22
280.107	-11.26
280.322	3.07
280.538	7.17
280.753	58.37
280.969	37.89
281.184	46.08
281.399	19.46
281.615	62.46
281.83	60.42
282.045	21.5
282.26	29.7
282.476	1.02
282.691	35.84
282.906	-62.46
283.122	103.42
283.337	-48.13
283.552	54.27
283.767	-9.22
283.983	41.98
284.198	31.74
284.413	23.55
284.628	-17.41
284.843	7.17
285.058	101.37
285.274	19.46
285.489	76.8
285.704	74.75
285.919	-1.02
286.134	15.36
286.349	1.02
286.564	54.27
286.779	58.37
286.995	48.13
287.21	-15.36
287.425	82.94
287.64	70.65
287.855	82.94
288.07	46.08
288.285	123.9
288.5	23.55
288.715	29.7
288.93	11.26
289.145	17.41
289.36	11.26
289.575	9.22
289.79	-64.51
290.004	54.27
290.219	115.71
290.434	44.03
290.649	27.65
290.864	9.22
291.079	-27.65
291.294	27.65
291.509	25.6
291.724	52.22
291.938	-11.26
292.153	7.17
292.368	-62.46
292.583	39.94
292.798	3.07
293.012	-9.22
293.227	136.19
293.442	-9.22
293.657	111.61
293.871	23.55
294.086	11.26
294.301	97.28
294.516	62.46
294.73	17.41
294.945	1.02
295.16	-3.07
295.374	23.55
295.589	93.18
295.804	33.79
296.018	23.55
296.233	56.32
296.447	74.75
296.662	-17.41
296.877	11.26
297.091	7.17
297.306	60.42
297.52	44.03
297.735	-1.02
297.949	29.7
298.164	87.04
298.378	5.12
298.593	11.26
298.807	-60.42
299.022	33.79
299.236	11.26
299.451	1.02
299.665	27.65
299.88	25.6
300.094	9.22
300.309	29.7
300.523	9.22
300.737	48.13
300.952	37.89
301.166	39.94
301.381	58.37
301.595	62.46
301.809	23.55
302.024	134.14
302.238	50.18
302.452	58.37
302.667	7.17
302.881	23.55
303.095	-19.46
303.309	-5.12
303.524	7.17
303.738	25.6
303.952	17.41
304.166	68.61
304.381	23.55
304.595	54.27
304.809	39.94
305.023	91.13
305.237	-31.74
305.452	-11.26
305.666	62.46
305.88	140.29
306.094	54.27
306.308	111.61
306.522	-19.46
306.736	76.8
306.95	-29.7
307.164	48.13
307.379	50.18
307.593	105.47
307.807	37.89
308.021	-3.07
308.235	29.7
308.449	84.99
308.663	72.7
308.877	103.42
309.091	103.42
309.305	17.41
309.519	27.65
309.733	93.18
309.947	13.31
310.161	48.13
310.374	-7.17
310.588	54.27
310.802	-11.26
311.016	70.65
311.23	27.65
311.444	78.85
311.658	58.37
311.872	27.65
312.085	64.51
312.299	44.03
312.513	72.7
312.727	27.65
312.941	87.04
313.154	39.94
313.368	72.7
313.582	5.12
313.796	15.36
314.009	66.56
314.223	70.65
314.437	117.76
314.651	44.03
314.864	31.74
315.078	138.24
315.292	33.79
315.505	64.51
315.719	19.46
315.933	23.55
316.146	-11.26
316.36	15.36
316.573	78.85
316.787	9.22
317.001	113.66
317.214	41.98
317.428	17.41
317.641	-7.17
317.855	9.22
318.068	70.65
318.282	-15.36
318.495	64.51
318.709	80.89
318.922	-17.41
319.136	121.85
319.349	19.46
319.563	46.08
319.776	1.02
319.99	29.7
320.203	27.65
320.417	93.18
320.63	15.36
320.843	74.75
321.057	66.56
321.27	54.27
321.483	48.13
321.697	74.75
321.91	125.95
322.124	48.13
322.337	-15.36
322.55	37.89
322.763	39.94
322.977	13.31
323.19	-74.75
323.403	52.22
323.617	19.46
323.83	5.12
324.043	29.7
324.256	105.47
324.469	-1.02
324.683	164.86
324.896	-29.7
325.109	46.08
325.322	-17.41
325.535	76.8
325.748	39.94
325.962	89.09
326.175	17.41
326.388	80.89
326.601	56.32
326.814	39.94
327.027	17.41
327.24	11.26
327.453	-41.98
327.666	41.98
327.879	33.79
328.092	80.89
328.305	89.09
328.518	-35.84
328.731	1.02
328.944	76.8
329.157	50.18
329.37	52.22
329.583	91.13
329.796	19.46
330.009	-66.56
330.222	52.22
330.435	25.6
330.648	93.18
330.861	-64.51
331.073	78.85
331.286	87.04
331.499	70.65
331.712	21.5
331.925	82.94
332.138	27.65
332.35	103.42
332.563	87.04
332.776	72.7
332.989	19.46
333.202	54.27
333.414	21.5
333.627	31.74
333.84	76.8
334.053	46.08
334.265	33.79
334.478	15.36
334.691	19.46
334.903	11.26
335.116	91.13
335.329	39.94
335.541	9.22
335.754	7.17
335.966	46.08
336.179	31.74
336.392	9.22
336.604	74.75
336.817	11.26
337.029	140.29
337.242	9.22
337.454	-23.55
337.667	50.18
337.88	39.94
338.092	13.31
338.305	54.27
338.517	46.08
338.729	84.99
338.942	87.04
339.154	19.46
339.367	103.42
339.579	66.56
339.792	-54.27
340.004	101.37
340.217	23.55
340.429	31.74
340.641	31.74
340.854	66.56
341.066	7.17
341.278	84.99
341.491	72.7
341.703	121.85
341.915	-54.27
342.128	113.66
342.34	35.84
342.552	62.46
342.764	60.42
342.977	50.18
343.189	95.23
343.401	15.36
343.613	91.13
343.826	56.32
344.038	56.32
344.25	66.56
344.462	89.09
344.674	111.61
344.886	-7.17
345.099	84.99
345.311	41.98
345.523	27.65
345.735	66.56
345.947	19.46
346.159	17.41
346.371	72.7
346.583	23.55
346.795	93.18
347.007	-7.17
347.219	66.56
347.431	48.13
347.643	89.09
347.855	-66.56
348.067	91.13
348.279	23.55
348.491	66.56
348.703	41.98
348.915	46.08
349.127	23.55
349.339	15.36
349.551	-9.22
349.763	15.36
349.975	72.7
350.187	82.94
350.399	44.03
350.61	109.57
350.822	95.23
351.034	21.5
351.246	74.75
351.458	25.6
351.669	58.37
351.881	72.7
352.093	91.13
352.305	17.41
352.517	78.85
352.728	15.36
352.94	111.61
353.152	44.03
353.363	41.98
353.575	89.09
353.787	39.94
353.999	97.28
354.21	58.37
354.422	7.17
354.633	-48.13
354.845	17.41
355.057	13.31
355.268	19.46
355.48	68.61
355.692	-13.31
355.903	48.13
356.115	89.09
356.326	15.36
356.538	70.65
356.749	80.89
356.961	39.94
357.172	62.46
357.384	-3.07
357.595	-9.22
357.807	142.33
358.018	21.5
358.23	80.89
358.441	105.47
358.653	60.42
358.864	54.27
359.075	46.08
359.287	-1.02
359.498	72.7
359.709	11.26
359.921	87.04
360.132	74.75
360.344	62.46
360.555	15.36
360.766	76.8
360.977	-44.03
361.189	113.66
361.4	33.79
361.611	19.46
361.823	54.27
362.034	27.65
362.245	29.7
362.456	93.18
362.667	68.61
362.879	82.94
363.09	72.7
363.301	37.89
363.512	31.74
363.723	89.09
363.935	76.8
364.146	37.89
364.357	74.75
364.568	25.6
364.779	62.46
364.99	70.65
365.201	41.98
365.412	50.18
365.623	33.79
365.834	54.27
366.045	35.84
366.256	130.05
366.467	37.89
366.678	50.18
366.889	91.13
367.1	46.08
367.311	76.8
367.522	-39.94
367.733	35.84
367.944	50.18
368.155	80.89
368.366	99.33
368.577	39.94
368.788	107.52
368.999	82.94
369.209	58.37
369.42	25.6
369.631	87.04
369.842	60.42
370.053	95.23
370.264	48.13
370.474	76.8
370.685	9.22
370.896	97.28
371.107	44.03
371.317	1.02
371.528	35.84
371.739	78.85
371.95	142.33
372.16	9.22
372.371	27.65
372.582	91.13
372.792	68.61
373.003	70.65
373.214	50.18
373.424	166.91
373.635	103.42
373.846	101.37
374.056	91.13
374.267	23.55
374.477	105.47
374.688	37.89
374.898	17.41
375.109	52.22
375.319	29.7
375.53	115.71
375.74	115.71
375.951	35.84
376.161	93.18
376.372	125.95
376.582	56.32
376.793	31.74
377.003	107.52
377.214	84.99
377.424	9.22
377.635	41.98
377.845	48.13
378.055	91.13
378.266	68.61
378.476	84.99
378.686	56.32
378.897	62.46
379.107	78.85
379.317	95.23
379.528	41.98
379.738	80.89
379.948	17.41
380.158	50.18
380.369	56.32
380.579	35.84
380.789	72.7
380.999	93.18
381.21	60.42
381.42	136.19
381.63	56.32
381.84	-13.31
382.05	74.75
382.261	70.65
382.471	109.57
382.681	74.75
382.891	78.85
383.101	115.71
383.311	41.98
383.521	60.42
383.731	17.41
383.941	76.8
384.151	103.42
384.361	41.98
384.571	66.56
384.781	33.79
384.991	78.85
385.201	31.74
385.411	72.7
385.621	117.76
385.831	105.47
386.041	58.37
386.251	-7.17
386.461	68.61
386.671	-13.31
386.881	46.08
387.091	74.75
387.301	109.57
387.511	-7.17
387.72	78.85
387.93	136.19
388.14	29.7
388.35	46.08
388.56	89.09
388.769	7.17
388.979	27.65
389.189	97.28
389.399	101.37
389.609	160.77
389.818	76.8
390.028	58.37
390.238	152.57
390.447	21.5
390.657	156.67
390.867	56.32
391.076	3.07
391.286	80.89
391.496	70.65
391.705	27.65
391.915	107.52
392.125	17.41
392.334	54.27
392.544	52.22
392.753	33.79
392.963	-1.02
393.172	87.04
393.382	35.84
393.591	76.8
393.801	87.04
394.01	117.76
394.22	107.52
394.429	76.8
394.639	66.56
394.848	56.32
395.058	76.8
395.267	158.72
395.477	144.38
395.686	121.85
395.895	177.15
396.105	171.01
396.314	171.01
396.524	105.47
396.733	93.18
396.942	117.76
397.152	125.95
397.361	115.71
397.57	146.43
397.78	80.89
397.989	87.04
398.198	168.96
398.407	125.95
398.617	154.62
398.826	144.38
399.035	164.86
399.244	152.57
399.453	13.31
399.663	154.62
399.872	84.99
400.081	134.14
400.29	99.33
400.499	80.89
400.708	197.63
400.917	132.09
401.127	60.42
401.336	150.53
401.545	197.63
401.754	177.15
401.963	191.49
402.172	142.33
402.381	117.76
402.59	82.94
402.799	183.29
403.008	70.65
403.217	175.1
403.426	205.82
403.635	173.05
403.844	173.05
404.053	171.01
404.262	269.31
404.471	246.78
404.68	211.96
404.888	175.1
405.097	166.91
405.306	191.49
405.515	220.16
405.724	218.11
405.933	248.83
406.142	222.2
406.35	205.82
406.559	316.41
406.768	236.54
406.977	304.12
407.185	273.4
407.394	318.46
407.603	263.16
407.812	312.32
408.02	252.92
408.229	218.11
408.438	216.06
408.646	379.9
408.855	381.95
409.064	410.62
409.272	398.33
409.481	451.58
409.69	353.27
409.898	396.28
410.107	420.86
410.315	457.72
410.524	422.91
410.733	486.39
410.941	527.35
411.15	402.43
411.358	455.67
411.567	568.31
411.775	490.49
411.984	611.32
412.192	617.46
412.401	580.6
412.609	627.7
412.818	691.19
413.026	685.05
413.234	703.48
413.443	678.9
413.651	760.82
413.86	787.44
414.068	762.87
414.276	793.59
414.485	928.75
414.693	957.43
414.901	957.43
415.11	977.91
415.318	1012.72
415.526	971.76
415.734	1037.3
415.943	1059.82
416.151	1041.39
416.359	1035.25
416.567	1178.61
416.776	1164.27
416.984	1307.63
417.192	1348.59
417.4	1311.72
417.608	1358.83
417.817	1430.51
418.025	1487.85
418.233	1526.76
418.441	1508.33
418.649	1575.91
418.857	1848.29
419.065	1819.62
419.273	1844.2
419.481	1856.48
419.689	1950.69
419.897	2124.77
420.105	2034.66
420.313	2165.73
420.521	2200.54
420.729	2251.74
420.937	2276.32
421.145	2489.31
421.353	2544.6
421.561	2773.97
421.769	2778.07
421.977	2782.17
422.185	2745.3
422.393	2855.89
422.601	3158.99
422.809	3249.1
423.017	3290.06
423.224	3222.48
423.432	3556.3
423.64	3386.32
423.848	3632.07
424.056	3541.96
424.263	3933.12
424.471	3845.06
424.679	3988.42
424.887	4342.72
425.094	4363.2
425.302	4436.92
425.51	4604.86
425.718	4772.79
425.925	4570.04
426.133	4873.14
426.341	5057.46
426.548	5381.04
426.756	5397.42
426.964	5450.67
427.171	5776.3
427.379	6034.34
427.586	6067.11
427.794	6243.23
428.001	6450.08
428.209	6906.77
428.417	6779.8
428.624	7207.83
428.832	7254.93
429.039	7089.04
429.247	7248.79
429.454	7728.01
429.662	8196.99
429.869	7791.5
430.076	8285.06
430.284	8119.17
430.491	8665.98
430.699	8764.28
430.906	9116.53
431.114	9018.23
431.321	9536.37
431.528	9634.67
431.736	10236.77
431.943	10537.82
432.15	10541.92
432.358	10464.1
432.565	11035.48
432.772	11076.44
432.979	11770.7
433.187	11782.99
433.394	11871.05
433.601	12536.64
433.808	12692.29
434.016	12798.78
434.223	13191.99
434.43	13953.84
434.637	13478.71
434.844	14478.12
435.052	14666.53
435.259	14662.43
435.466	14756.64
435.673	14746.4
435.88	15524.63
436.087	16427.78
436.294	16583.43
436.501	15989.52
436.708	16583.43
436.915	17054.46
437.122	17842.93
437.329	17779.44
437.537	18174.7
437.743	18590.44
437.95	18537.19
438.157	19323.61
438.364	19950.29
438.571	19985.1
438.778	19948.24
438.985	21809.84
439.192	20996.8
439.399	21830.32
439.606	21476.02
439.813	22805.16
440.02	23653.02
440.227	23446.17
440.433	23270.04
440.64	24171.15
440.847	24122
441.054	24359.56
441.261	25959.03
441.467	25813.62
441.674	26595.95
441.881	27177.57
442.088	27380.32
442.294	26813.03
442.501	27748.95
442.708	28424.78
442.914	29475.39
443.121	30419.5
443.328	29833.78
443.534	31863.32
443.741	31078.95
443.948	30509.61
444.154	32936.46
444.361	32864.78
444.568	32944.65
444.774	32905.74
444.981	33739.26
445.187	34251.25
445.394	35510.75
445.6	35156.46
445.807	38365.62
446.013	36860.37
446.22	37556.67
446.426	38805.94
446.633	39170.47
446.839	40532.37
447.046	38846.9
447.252	40894.86
447.459	41093.52
447.665	41122.19
447.871	42695.03
448.078	44415.32
448.284	42723.7
448.491	43542.89
448.697	45080.91
448.903	45908.29
449.11	46192.96
449.316	45707.59
449.522	46180.67
449.728	47745.32
449.935	47741.22
450.141	47976.74
450.347	48898.33
450.553	47497.52
450.76	47821.09
450.966	49457.42
451.172	49166.61
451.378	49934.6
451.584	49373.45
451.791	51153.14
451.997	50170.11
452.203	50837.75
452.409	51192.05
452.615	50706.68
452.821	48984.34
453.027	48554.27
453.233	51079.41
453.44	49211.67
453.646	49750.28
453.852	50241.79
454.058	50700.54
454.264	48824.6
454.47	50354.43
454.676	48820.5
454.882	50118.92
455.088	46821.69
455.294	47040.82
455.5	47651.11
455.705	48273.7
455.911	46537.02
456.117	45502.79
456.323	44646.74
456.529	42764.66
456.735	44405.08
456.941	43262.32
457.147	42803.57
457.352	40993.17
457.558	41052.56
457.764	41062.8
457.97	40249.75
458.176	39244.2
458.381	39383.46
458.587	37589.44
458.793	37423.56
458.999	35381.73
459.204	38101.43
459.41	36993.48
459.616	34738.67
459.821	34726.38
460.027	34441.71
460.233	33901.05
460.438	31896.09
460.644	32449.04
460.85	30898.73
461.055	30536.24
461.261	30546.48
461.466	28349.01
461.672	27023.97
461.878	29291.07
462.083	27378.27
462.289	26673.77
462.494	26571.37
462.7	25160.32
462.905	24840.84
463.111	25221.76
463.316	25551.48
463.522	25082.5
463.727	25227.9
463.932	25076.35
464.138	25070.21
464.343	25031.3
464.549	23929.49
464.754	24738.44
464.959	24705.67
465.165	24849.03
465.37	23593.62
465.575	23186.08
465.781	23820.95
465.986	24214.16
466.191	23222.94
466.397	22811.3
466.602	21547.7
466.807	22522.54
467.012	22418.09
467.218	22442.67
467.423	22164.14
467.628	22221.48
467.833	23444.12
468.038	22508.2
468.244	21869.23
468.449	22547.11
468.654	21828.27
468.859	21639.86
469.064	21799.6
469.269	20671.17
469.474	20722.37
469.679	21586.61
469.885	20912.83
470.09	21023.42
470.295	20982.46
470.5	20153.04
470.705	20527.81
470.91	20044.49
471.115	19671.76
471.32	20097.74
471.525	20232.91
471.73	19421.91
471.935	19376.86
472.139	18864.86
472.344	19061.47
472.549	18787.04
472.754	18694.88
472.959	18428.65
473.164	17935.09
473.369	17681.14
473.574	18293.48
473.778	17963.76
473.983	18062.06
474.188	17877.74
474.393	17347.32
474.598	17388.28
474.802	17011.45
475.007	16974.59
475.212	16859.9
475.417	16227.08
475.621	16214.79
475.826	16306.95
476.031	16114.44
476.235	15639.31
476.44	15958.8
476.645	15647.51
476.849	15735.57
477.054	15461.14
477.259	15129.37
477.463	15391.51
477.668	14824.22
477.872	15123.23
478.077	14740.26
478.282	14621.47
478.486	14371.62
478.691	14277.41
478.895	14519.07
479.1	14156.58
479.304	14215.98
479.509	13916.97
479.713	14191.4
479.918	13679.41
480.122	13605.68
480.326	13714.22
480.531	14029.61
480.735	13427.51
480.94	13349.68
481.144	13845.29
481.348	13302.58
481.553	13515.57
481.757	13103.93
481.961	13370.16
482.166	13409.08
482.37	13521.71
482.574	13239.09
482.778	13087.54
482.983	13126.46
483.187	13253.43
483.391	13214.52
483.595	13108.02
483.8	13001.53
484.004	13030.2
484.208	13263.67
484.412	12872.51
484.616	13001.53
484.821	13087.54
485.025	12829.5
485.229	13165.37
485.433	12727.1
485.637	13169.46
485.841	13009.72
486.045	12923.71
486.249	13050.68
486.453	12868.41
486.657	13034.3
486.861	13198.13
487.065	12774.21
487.269	13456.18
487.473	12649.28
487.677	13112.12
487.881	13103.93
488.085	12899.13
488.289	13030.2
488.493	12872.51
488.697	13292.34
488.901	13212.47
489.105	13085.5
489.309	13499.19
489.512	13179.7
489.716	13402.93
489.92	13155.13
490.124	13087.54
490.328	13611.82
490.531	13366.07
490.735	13548.34
490.939	13409.08
491.143	13583.15
491.346	13425.46
491.55	13701.93
491.754	13681.46
491.958	13746.99
492.161	13742.89
492.365	13820.72
492.569	13779.76
492.772	13988.65
492.976	13957.93
493.18	14031.66
493.383	14156.58
493.587	14037.8
493.79	14369.57
493.994	14232.36
494.197	14461.73
494.401	14367.52
494.605	14521.12
494.808	14580.51
495.012	14695.2
495.215	14920.48
495.419	15106.84
495.622	15059.74
495.825	15106.84
496.029	15248.15
496.232	15610.64
496.436	15356.69
496.639	15700.75
496.843	15901.45
497.046	16114.44
497.249	16202.5
497.453	16290.57
497.656	16452.36
497.859	16532.23
498.063	16687.87
498.266	17220.35
498.469	16812.8
498.673	17392.37
498.876	17505.01
499.079	17773.3
499.282	17697.52
499.485	18123.5
499.689	18070.25
499.892	18158.31
500.095	18404.07
500.298	18825.95
500.501	18506.47
500.705	19071.71
500.908	19466.97
501.111	19479.25
501.314	19639
501.517	19829.46
501.72	20148.94
501.923	20044.49
502.126	20746.95
502.329	20656.84
502.532	20914.88
502.735	21150.4
502.938	21521.08
503.141	21691.06
503.344	22127.28
503.547	21775.03
503.75	22069.94
503.953	22678.18
504.156	22801.06
504.359	23038.62
504.562	23270.04
504.765	23779.99
504.968	23710.36
505.17	24025.75
505.373	23937.68
505.576	24437.39
505.779	24525.45
505.982	24853.12
506.185	25346.69
506.387	25469.56
506.59	25748.09
506.793	26188.4
506.996	25885.3
507.198	26901.09
507.401	26473.07
507.604	27109.99
507.807	27527.77
508.009	27839.06
508.212	27861.59
508.415	28201.55
508.617	28435.02
508.82	28676.68
509.022	28797.51
509.225	29190.72
509.428	29495.87
509.63	29631.04
509.833	30196.28
510.035	30800.43
510.238	29919.8
510.44	30896.68
510.643	31216.16
510.845	31341.09
511.048	31277.6
511.25	31668.76
511.453	32328.21
511.655	32897.55
511.858	32887.31
512.06	33143.3
512.262	33505.79
512.465	33552.9
512.667	33812.99
512.87	34458.1
513.072	34275.83
513.274	34961.9
513.477	35021.29
513.679	35690.98
513.881	35803.61
514.084	36383.19
514.286	36184.54
514.488	36473.3
514.69	37419.46
514.893	37419.46
515.095	37413.32
515.297	37867.97
515.499	38080.95
515.701	38715.83
515.904	38672.82
516.106	39326.12
516.308	39973.28
516.51	39948.7
516.712	39764.39
516.914	40706.45
517.116	41589.13
517.318	41437.58
517.52	41357.7
517.722	41664.9
517.925	42500.47
518.127	42324.35
518.329	42451.32
518.531	42815.86
518.733	43417.96
518.935	44235.1
519.136	43743.59
519.338	44388.7
519.54	44601.69
519.742	45496.65
519.944	45199.69
520.146	45769.03
520.348	46195.01
520.55	46426.43
520.752	46287.17
520.954	47042.87
521.155	47112.5
521.357	47552.81
521.559	48083.23
521.761	48826.65
521.963	48331.04
522.164	48285.98
522.366	48699.67
522.568	49226
522.77	49045.78
522.971	50100.48
523.173	50071.81
523.375	50622.72
523.576	50475.26
523.778	50655.48
523.98	51390.7
524.181	51370.22
524.383	51153.14
524.584	51896.55
524.786	51878.12
524.988	51431.66
525.189	52461.79
525.391	52613.34
525.592	52928.73
525.794	53102.81
525.995	53047.51
526.197	53510.35
526.398	53405.91
526.6	53752.01
526.801	53866.7
527.003	54010.06
527.204	54309.06
527.406	54671.55
527.607	54476.99
527.808	55087.29
528.01	54415.55
528.211	54491.33
528.412	55773.36
528.614	54954.17
528.815	55089.34
529.016	55916.71
529.218	55365.81
529.419	55589.04
529.62	55349.43
529.822	55621.81
530.023	55640.24
530.224	55943.34
530.425	56055.98
530.626	55599.28
530.828	55935.15
531.029	56979.61
531.23	55888.04
531.431	56393.89
531.632	56518.82
531.833	56713.37
532.035	56457.38
532.236	56680.61
532.437	57084.06
532.638	56354.98
532.839	56404.13
533.04	57249.94
533.241	56105.13
533.442	57041.05
533.643	57000.09
533.844	56817.82
534.045	56801.44
534.246	56416.42
534.447	56844.44
534.648	56707.23
534.849	56567.97
535.05	56547.49
535.251	56903.84
535.451	56451.23
535.652	57077.91
535.853	56883.36
536.054	56877.21
536.255	57094.3
536.456	56422.56
536.657	57720.98
536.857	56813.73
537.058	56565.92
537.259	57307.29
537.46	57174.17
537.66	56819.87
537.861	56985.75
538.062	56930.46
538.263	56787.1
538.463	57077.91
538.664	56586.4
538.865	56807.58
539.065	57231.51
539.266	56461.47
539.466	57282.71
539.667	56307.88
539.868	57315.48
540.068	56690.85
540.269	56535.2
540.469	56987.8
540.67	57002.14
540.87	56887.45
541.071	56471.71
541.271	57028.76
541.472	56750.24
541.672	56529.06
541.873	56309.92
542.073	56275.11
542.274	56791.2
542.474	56324.26
542.675	56287.4
542.875	57346.2
543.075	56680.61
543.276	55980.2
543.476	56713.37
543.676	56615.07
543.877	56258.73
544.077	56185
544.277	56086.7
544.478	56158.38
544.678	56477.86
544.878	56924.32
545.078	56092.84
545.279	56301.73
545.479	56031.4
545.679	56496.29
545.879	55857.32
546.079	55924.91
546.28	56158.38
546.48	55503.03
546.68	55998.63
546.88	56070.31
547.08	56436.9
547.28	55949.48
547.48	55664.81
547.68	55888.04
547.88	55652.53
548.081	56197.29
548.281	56545.44
548.481	55861.42
548.681	56201.38
548.881	55931.05
549.081	56180.9
549.28	56004.78
549.48	56252.58
549.68	56393.89
549.88	56328.36
550.08	55705.77
550.28	55699.63
550.48	55650.48
550.68	56516.77
550.88	55912.62
551.08	55601.33
551.279	56152.23
551.479	55355.57
551.679	55767.21
551.879	55517.36
552.079	56137.9
552.278	55453.87
552.478	55468.21
552.678	55615.66
552.878	55826.6
553.077	55781.55
553.277	55232.69
553.477	55890.09
553.676	55783.6
553.876	55259.32
554.076	55251.12
554.275	55378.1
554.475	54771.9
554.674	55632.05
554.874	55234.74
555.074	55306.42
555.273	55423.15
555.473	55410.87
555.672	55199.93
555.872	54921.4
556.071	55015.61
556.271	55716.01
556.47	55075
556.67	54804.67
556.869	55283.89
557.068	54737.08
557.268	54638.78
557.467	54466.75
557.667	54786.24
557.866	54915.26
558.065	54427.84
558.265	54905.02
558.464	54683.84
558.663	54919.35
558.863	54284.48
559.062	55199.93
559.261	53702.86
559.461	54864.06
559.66	53876.94
559.859	54409.41
560.058	54061.26
560.258	54417.6
560.457	53719.24
560.656	54034.63
560.855	54145.22
561.054	54247.62
561.253	53692.62
561.453	53780.68
561.652	54141.13
561.851	53960.9
562.05	53760.2
562.249	53444.82
562.448	54198.47
562.647	53565.65
562.846	53678.28
563.045	53844.17
563.244	52773.08
563.443	53817.55
563.642	52574.43
563.841	53323.99
564.04	52691.16
564.239	53440.72
564.438	53031.13
564.637	52615.39
564.836	52662.49
565.035	52312.29
565.234	52629.72
565.432	52594.91
565.631	52162.79
565.83	52361.44
566.029	52398.3
566.228	52099.3
566.427	51585.26
566.625	51843.3
566.824	51249.39
567.023	51972.33
567.222	50886.9
567.42	51998.95
567.619	51732.71
567.818	51517.68
568.016	51200.24
568.215	51785.96
568.414	51226.87
568.612	51509.49
568.811	51542.25
569.01	50813.18
569.208	50428.16
569.407	50905.34
569.605	50258.18
569.804	50997.49
570.002	50383.1
570.201	50573.56
570.4	50131.2
570.598	50688.25
570.797	50661.63
570.995	50643.2
571.193	49746.18
571.392	50254.08
571.59	49594.64
571.789	49613.07
571.987	49418.51
572.186	49281.3
572.384	49395.98
572.582	49467.66
572.781	49371.41
572.979	48843.03
573.177	49375.5
573.376	49486.09
573.574	48806.17
573.772	48816.41
573.971	48746.78
574.169	48767.26
574.367	47907.11
574.565	48468.25
574.763	48017.7
574.962	48285.98
575.16	47481.13
575.358	48101.67
575.556	47509.8
575.754	48208.16
575.952	47515.95
576.151	47497.52
576.349	47036.72
576.547	47073.59
576.745	47167.79
576.943	47104.31
577.141	47167.79
577.339	47067.44
577.537	46485.82
577.735	46586.17
577.933	46408
578.131	46571.83
578.329	46612.79
578.527	46487.87
578.725	46108.99
578.923	46448.96
579.121	45887.81
579.319	46158.14
579.516	46051.65
579.714	46092.61
579.912	45713.73
580.11	45320.52
580.308	45603.14
580.506	45236.56
580.704	44929.36
580.901	44884.31
581.099	45510.99
581.297	44867.92
581.495	44355.93
581.692	44740.95
581.89	44036.45
582.088	44962.13
582.285	44403.03
582.483	44407.13
582.681	44245.34
582.878	44366.17
583.076	44130.65
583.274	43737.44
583.471	43624.81
583.669	43673.96
583.866	43405.67
584.064	43542.89
584.262	43624.81
584.459	43444.59
584.657	42846.58
584.854	43520.36
585.052	42658.17
585.249	42881.39
585.447	43280.75
585.644	42482.04
585.841	42449.27
586.039	42983.79
586.236	42461.56
586.434	42656.12
586.631	42105.21
586.828	42164.6
587.026	41945.47
587.223	42109.31
587.42	42058.11
587.618	41693.57
587.815	41390.47
588.012	41052.56
588.21	41200.01
588.407	41814.4
588.604	41197.96
588.801	40999.31
588.999	41320.84
589.196	40825.23
589.393	40997.26
589.59	40585.62
589.787	40495.51
589.984	40356.25
590.182	40067.48
590.379	40231.32
590.576	39889.31
590.773	40348.06
590.97	39621.03
591.167	40272.28
591.364	39391.65
591.561	39598.5
591.758	39272.87
591.955	39405.99
592.152	39537.06
592.349	38717.87
592.546	39158.19
592.743	38988.21
592.94	38472.12
593.137	38896.05
593.334	38969.77
593.531	38214.07
593.727	38525.36
593.924	38578.61
594.121	37827.01
594.318	38298.04
594.515	37734.85
594.712	38212.02
594.908	37650.88
595.105	38007.23
595.302	37257.67
595.499	37679.55
595.696	37253.58
595.892	37069.26
596.089	36792.78
596.286	37335.49
596.482	36598.23
596.679	36733.39
596.876	36895.18
597.072	36504.02
597.269	36338.13
597.466	36196.82
597.662	36196.82
597.859	36327.89
598.055	36264.41
598.252	35643.87
598.448	36098.52
598.645	35641.82
598.841	35426.79
599.038	35369.44
599.234	35772.89
599.431	35254.76
599.627	35287.53
599.824	35441.12
600.02	35123.69
600.217	35099.11
600.413	34763.25
600.609	34587.12
600.806	34537.97
601.002	34697.71
601.198	34421.23
601.395	34335.22
601.591	34386.42
601.787	33933.82
601.984	33784.32
602.18	34138.62
602.376	33866.24
602.572	33536.51
602.769	33415.68
602.965	33159.69
603.161	33331.72
603.357	32993.8
603.553	33034.76
603.75	32979.46
603.946	32981.51
604.142	33501.7
604.338	32338.45
604.534	32746
604.73	32770.57
604.926	32612.88
605.122	32793.1
605.318	32342.55
605.514	32414.23
605.71	32199.19
605.906	32002.58
606.102	32211.48
606.298	31904.28
606.494	31887.9
606.69	31820.31
606.886	31851.03
607.082	31523.36
607.278	31912.47
607.474	31457.82
607.67	31703.58
607.866	31072.81
608.062	31633.95
608.257	31345.19
608.453	31179.3
608.649	31152.68
608.845	30761.51
609.041	31093.29
609.236	30845.48
609.432	30722.6
609.628	30585.39
609.824	31025.7
610.019	30571.05
610.215	30605.87
610.411	30726.7
610.606	30136.88
610.802	30085.68
610.998	30390.83
611.193	30431.79
611.389	30106.16
611.584	30161.46
611.78	29815.35
611.976	30054.97
612.171	29667.9
612.367	29938.23
612.562	29884.98
612.758	29456.96
612.953	29381.18
613.149	30030.39
613.344	29143.62
613.539	29663.8
613.735	29334.08
613.93	29704.76
614.126	28901.96
614.321	29622.84
614.517	29250.11
614.712	29170.24
614.907	28916.29
615.103	29133.38
615.298	29059.65
615.493	28953.16
615.688	28654.15
615.884	29135.43
616.079	28684.87
616.274	28926.53
616.47	28574.28
616.665	28910.15
616.86	28400.21
617.055	28645.96
617.25	28394.06
617.445	28572.24
617.641	28191.31
617.836	28332.62
618.031	27734.62
618.226	28226.13
618.421	27765.34
618.616	27931.22
618.811	27239.01
619.006	27945.56
619.201	27282.02
619.396	27417.18
619.591	27073.12
619.786	27452
619.981	27101.79
620.176	27388.51
620.371	26632.81
620.566	26995.3
620.761	26368.62
620.956	26684.01
621.151	26231.41
621.346	26690.15
621.541	26100.34
621.735	26362.48
621.93	25746.04
622.125	25979.51
622.32	25743.99
622.515	25686.65
622.709	25377.4
622.904	25698.94
623.099	25305.73
623.294	25379.45
623.488	25080.45
623.683	25066.11
623.878	24568.46
624.072	24775.3
624.267	24689.29
624.462	24132.24
624.656	23978.64
624.851	24212.11
625.046	23771.8
625.24	24015.51
625.435	23587.48
625.629	23638.68
625.824	23470.75
626.018	23351.96
626.213	22872.74
626.407	23200.41
626.602	22649.51
626.796	23028.38
626.991	22641.32
627.185	22536.87
627.38	22403.75
627.574	22041.26
627.768	22239.92
627.963	21951.15
628.157	21840.56
628.352	22006.45
628.546	21439.16
628.74	21686.97
628.935	21320.38
629.129	21496.5
629.323	21144.25
629.517	21459.64
629.712	20923.07
629.906	21207.74
630.1	20724.42
630.294	20880.07
630.489	20372.17
630.683	20808.39
630.877	20255.43
631.071	20099.79
631.265	20372.17
631.459	19817.17
631.653	19774.16
631.848	19872.46
632.042	19849.94
632.236	19794.64
632.43	19610.32
632.624	19495.64
632.818	19305.18
633.012	19274.46
633.206	19208.92
633.4	19315.42
633.594	18744.03
633.788	18930.4
633.982	18633.44
634.176	18717.41
634.369	18692.83
634.563	18420.45
634.757	18416.36
634.951	18211.56
635.145	18182.89
635.339	18186.99
635.533	17953.52
635.726	17986.29
635.92	17605.36
636.114	17808.11
636.308	17552.12
636.501	17431.29
636.695	17486.58
636.889	17756.91
637.083	17404.66
637.276	17361.66
637.47	17265.4
637.664	17097.47
637.857	16988.92
638.051	16898.81
638.244	16851.71
638.438	16931.58
638.632	16562.95
638.825	16370.44
639.019	16589.57
639.212	16470.79
639.406	16171.79
639.599	16298.76
639.793	15932.17
639.986	15815.44
640.18	15813.39
640.373	15952.65
640.567	15786.77
640.76	15581.97
640.954	15672.08
641.147	15530.77
641.34	15366.93
641.534	15459.09
641.727	15340.31
641.92	15096.6
642.114	14715.68
642.307	15170.33
642.5	14816.03
642.694	14859.04
642.887	14504.74
643.08	14902.04
643.273	14674.72
643.467	14514.98
643.66	14603.04
643.853	14187.3
644.046	14332.71
644.239	14299.94
644.432	13808.43
644.626	13964.07
644.819	14160.68
645.012	13927.21
645.205	14074.67
645.398	13775.66
645.591	13650.74
645.784	13798.19
645.977	13644.59
646.17	13402.93
646.363	13452.08
646.556	13355.83
646.749	13255.48
646.942	13294.39
647.135	12876.6
647.328	13001.53
647.521	12942.14
647.714	12747.58
647.907	12905.28
648.099	12751.68
648.292	12729.15
648.485	12643.14
648.678	12630.85
648.871	12337.99
649.064	12309.32
649.256	12381
649.449	12290.88
649.642	12157.77
649.835	12137.29
650.027	12178.25
650.22	12186.44
650.413	12008.26
650.605	12104.52
650.798	11912.01
650.991	11852.62
651.183	11635.53
651.376	11656.01
651.568	11658.06
651.761	11666.25
651.954	11551.57
652.146	11397.97
652.339	11412.31
652.531	11486.03
652.724	11221.84
652.916	11115.35
653.109	11115.35
653.301	11105.11
653.494	11189.08
653.686	10892.12
653.879	10863.45
654.071	10847.07
654.263	10650.46
654.456	10654.56
654.648	10699.61
654.84	10296.16
655.033	10533.73
655.225	10591.07
655.417	10498.91
655.61	10316.64
655.802	10408.8
655.994	10369.89
656.186	10273.64
656.379	10044.26
656.571	10232.68
656.763	10013.54
656.955	9892.71
657.148	9999.21
657.34	9950.06
657.532	9941.86
657.724	9792.36
657.916	9743.21
658.108	9587.57
658.3	9636.72
658.492	9667.44
658.684	9450.35
658.876	9552.75
659.068	9433.97
659.26	9350
659.452	9472.88
659.644	9251.7
659.836	9225.08
660.028	9122.68
660.22	9116.53
660.412	9212.79
660.604	9096.05
660.796	9094.01
660.988	8854.39
661.18	8616.83
661.372	8930.17
661.563	8944.5
661.755	8651.64
661.947	8772.47
662.139	8522.62
662.331	8586.11
662.522	8493.95
662.714	8532.86
662.906	8582.01
663.097	8459.13
663.289	8340.35
663.481	8258.43
663.673	8334.21
663.864	8201.09
664.056	8227.71
664.247	8135.56
664.439	8037.25
664.631	8196.99
664.822	8141.7
665.014	8092.55
665.205	7764.87
665.397	7967.62
665.588	8014.73
665.78	7857.03
665.971	7807.88
666.163	7979.91
666.354	7924.62
666.546	7615.37
666.737	7797.64
666.929	7670.67
667.12	7668.62
667.311	7564.17
667.503	7426.96
667.694	7521.17
667.885	7445.39
668.077	7551.88
668.268	7406.48
668.459	7373.71
668.651	7142.29
668.842	7201.68
669.033	7179.15
669.224	7037.84
669.416	7254.93
669.607	7152.53
669.798	7250.83
669.989	7113.62
670.18	7009.17
670.371	6937.49
670.563	6957.97
670.754	7203.73
670.945	6962.07
671.136	6824.86
671.327	6814.62
671.518	6783.9
671.709	6611.87
671.9	6757.27
672.091	6810.52
672.282	6650.78
672.473	6726.55
672.664	6816.66
672.855	6685.59
673.046	6585.24
673.237	6579.1
673.428	6667.16
673.619	6704.03
673.809	6415.26
674	6443.93
674.191	6466.46
674.382	6357.92
674.573	6265.76
674.764	6347.68
674.954	6431.65
675.145	6263.71
675.336	6237.09
675.527	6261.66
675.717	6263.71
675.908	6212.51
676.099	6073.25
676.289	6300.58
676.48	6013.86
676.671	6038.44
676.861	6138.79
677.052	6032.29
677.243	6071.2
677.433	6042.53
677.624	6091.68
677.814	6030.24
678.005	5927.85
678.195	6087.59
678.386	5925.8
678.576	5944.23
678.767	5895.08
678.957	5798.82
679.148	5749.67
679.338	5841.83
679.529	5735.34
679.719	5718.95
679.909	6020
680.1	5770.15
680.29	5792.68
680.481	5645.23
680.671	5403.57
680.861	5524.4
681.052	5565.36
681.242	5512.11
681.432	5735.34
681.622	5555.12
681.813	5510.06
682.003	5393.33
682.193	5514.16
682.383	5594.03
682.573	5438.38
682.764	5450.67
682.954	5536.68
683.144	5381.04
683.334	5446.57
683.524	5557.16
683.714	5594.03
683.904	5401.52
684.094	5333.93
684.284	5299.12
684.474	5245.87
684.664	5360.56
684.854	5342.13
685.044	5319.6
685.234	5229.49
685.424	5282.74
685.614	5149.62
685.804	5098.42
685.994	5157.81
686.184	5219.25
686.374	5112.75
686.564	5090.23
686.753	5012.4
686.943	4766.65
687.133	4996.02
687.323	5082.03
687.513	5039.03
687.702	4926.39
687.892	4901.81
688.082	4873.14
688.272	4940.72
688.461	4815.8
688.651	4762.55
688.841	4860.85
689.03	4713.4
689.22	4723.64
689.41	4832.18
689.599	4832.18
689.789	4654.01
689.979	4783.03
690.168	4619.19
690.358	4598.71
690.547	4668.34
690.737	4512.7
690.926	4451.26
691.116	4576.19
691.305	4524.99
691.495	4524.99
691.684	4463.55
691.874	4428.73
692.063	4361.15
692.252	4459.45
692.442	4494.27
692.631	4508.6
692.82	4346.81
693.01	4305.85
693.199	4322.24
693.388	4135.87
693.578	4348.86
693.767	4264.89
693.956	4275.13
694.146	4117.44
694.335	4293.57
694.524	4271.04
694.713	4205.5
694.902	4275.13
695.092	4146.11
695.281	4047.81
695.47	4039.62
695.659	4037.57
695.848	4160.45
696.037	4238.27
696.226	4215.74
696.415	4119.49
696.604	4211.65
696.793	3922.88
696.982	4019.14
697.171	4119.49
697.36	3988.42
697.549	4006.85
697.738	4033.47
697.927	4066.24
698.116	3957.7
698.305	3826.63
698.494	3857.35
698.683	3840.97
698.872	3871.68
699.061	3869.64
699.25	3883.97
699.438	3800.01
699.627	3726.28
699.816	3853.25
700.005	3795.91
700.193	3752.9
700.382	3810.25
700.571	3926.98
700.76	3957.7
700.948	3840.97
701.137	3806.15
701.326	3849.16
701.514	3877.83
701.703	3849.16
701.892	3797.96
702.08	3730.38
702.269	3632.07
702.457	3732.42
702.646	3718.09
702.834	3703.75
703.023	3742.66
703.212	3722.18
703.4	3673.03
703.589	3718.09
703.777	3683.27
703.965	3619.78
704.154	3625.93
704.342	3466.19
704.531	3505.1
704.719	3726.28
704.907	3591.11
705.096	3566.54
705.284	3505.1
705.472	3615.69
705.661	3562.44
705.849	3488.71
706.037	3466.19
706.226	3556.3
706.414	3576.78
706.602	3523.53
706.79	3435.47
706.979	3480.52
707.167	3367.88
707.355	3351.5
707.543	3414.99
707.731	3525.58
707.919	3507.15
708.107	3515.34
708.296	3439.56
708.484	3511.24
708.672	3451.85
708.86	3312.59
709.048	3484.62
709.236	3498.95
709.424	3412.94
709.612	3378.12
709.8	3398.6
709.988	3292.11
710.176	3341.26
710.364	3472.33
710.551	3259.34
710.739	3202
710.927	3333.07
711.115	3316.69
711.303	3269.58
711.491	3306.45
711.679	3324.88
711.866	3224.53
712.054	3269.58
712.242	3261.39
712.43	3267.53
712.617	3308.49
712.805	3206.1
712.993	3154.9
713.181	3115.98
713.368	3163.09
713.556	3214.29
713.744	3171.28
713.931	3242.96
714.119	3150.8
714.306	3204.05
714.494	3226.57
714.682	3167.18
714.869	3154.9
715.057	3050.45
715.244	3124.18
715.432	3120.08
715.619	3134.42
715.807	3148.75
715.994	3029.97
716.182	3021.78
716.369	3062.74
716.556	3132.37
716.744	2997.2
716.931	3060.69
717.119	3163.09
717.306	3083.22
717.493	2937.81
717.681	3034.07
717.868	2935.76
718.055	2855.89
718.242	3085.26
718.43	2909.14
718.617	3029.97
718.804	3021.78
718.991	2917.33
719.179	2866.13
719.366	2845.65
719.553	2962.39
719.74	2831.32
719.927	2810.84
720.114	2843.6
720.301	2972.63
720.488	2919.38
720.676	2806.74
720.863	2849.75
721.05	2970.58
721.237	2919.38
721.424	2706.39
721.611	2950.1
721.798	2913.24
721.985	2862.04
722.172	2773.97
722.358	2735.06
722.545	2769.88
722.732	2853.84
722.919	2704.34
723.106	2728.92
723.293	2808.79
723.48	2821.08
723.667	2698.2
723.853	2780.12
724.04	2739.16
724.227	2741.21
724.414	2829.27
724.6	2558.94
724.787	2745.3
724.974	2757.59
725.161	2698.2
725.347	2671.58
725.534	2685.91
725.72	2798.55
725.907	2771.93
726.094	2733.01
726.28	2649.05
726.467	2577.37
726.653	2687.96
726.84	2544.6
727.027	2655.19
727.213	2563.03
727.4	2563.03
727.586	2585.56
727.773	2595.8
727.959	2571.22
728.145	2624.47
728.332	2597.85
728.518	2472.92
728.705	2665.43
728.891	2608.09
729.077	2569.18
729.264	2532.31
729.45	2616.28
729.636	2491.35
729.823	2532.31
730.009	2474.97
730.195	2466.78
730.382	2614.23
730.568	2632.66
730.754	2481.11
730.94	2620.38
731.126	2573.27
731.313	2622.42
731.499	2423.77
731.685	2558.94
731.871	2520.03
732.057	2452.44
732.243	2556.89
732.429	2532.31
732.615	2444.25
732.801	2507.74
732.987	2425.82
733.173	2452.44
733.359	2436.06
733.545	2399.2
733.731	2466.78
733.917	2477.02
734.103	2526.17
734.289	2452.44
734.475	2456.54
734.661	2526.17
734.847	2501.59
735.033	2434.01
735.219	2431.96
735.404	2366.43
735.59	2403.29
735.776	2448.35
735.962	2409.44
736.148	2397.15
736.333	2364.38
736.519	2270.17
736.705	2364.38
736.89	2257.89
737.076	2317.28
737.262	2370.52
737.447	2272.22
737.633	2257.89
737.819	2304.99
738.004	2382.81
738.19	2259.93
738.375	2208.73
738.561	2266.08
738.747	2253.79
738.932	2251.74
739.118	2368.48
739.303	2376.67
739.489	2235.36
739.674	2270.17
739.859	2245.6
740.045	2165.73
740.23	2120.67
740.416	2270.17
740.601	2227.17
740.786	2184.16
740.972	2114.53
741.157	2081.76
741.342	2255.84
741.528	2171.87
741.713	2169.82
741.898	2112.48
742.084	2182.11
742.269	2161.63
742.454	2104.29
742.639	1993.7
742.824	2038.75
743.01	2104.29
743.195	2165.73
743.38	1971.17
743.565	1995.75
743.75	2139.1
743.935	1983.46
744.12	1969.12
744.305	1952.74
744.49	1987.55
744.675	1948.64
744.86	1913.83
745.045	1993.7
745.23	1932.26
745.415	1928.16
745.6	1903.59
745.785	1950.69
745.97	1981.41
746.155	1895.4
746.34	1897.44
746.525	1741.8
746.71	1799.14
746.895	1850.34
747.079	1782.76
747.264	1909.73
747.449	1954.79
747.634	1735.65
747.819	1719.27
748.003	1793
748.188	1803.24
748.373	1895.4
748.557	1700.84
748.742	1713.13
748.927	1715.17
749.111	1747.94
749.296	1663.97
749.481	1776.61
749.665	1668.07
749.85	1627.11
750.034	1768.42
750.219	1692.65
750.404	1541.1
750.588	1696.74
750.773	1588.2
750.957	1610.73
751.141	1520.62
751.326	1516.52
751.51	1504.23
751.695	1530.86
751.879	1582.06
752.064	1614.82
752.248	1686.5
752.432	1520.62
752.617	1555.43
752.801	1477.61
752.985	1512.42
753.17	1500.14
753.354	1401.83
753.538	1498.09
753.722	1405.93
753.907	1453.03
754.091	1489.9
754.275	1446.89
754.459	1446.89
754.643	1367.02
754.828	1381.35
755.012	1348.59
755.196	1360.88
755.38	1405.93
755.564	1344.49
755.748	1364.97
755.932	1422.31
756.116	1332.2
756.3	1178.61
756.484	1317.87
756.668	1303.53
756.852	1295.34
757.036	1238
757.22	1240.05
757.404	1258.48
757.588	1289.2
757.772	1225.71
757.956	1231.85
758.14	1178.61
758.323	1184.75
758.507	1172.46
758.691	1147.89
758.875	1184.75
759.059	1254.38
759.242	1102.83
759.426	1199.09
759.61	1192.94
759.794	1092.59
759.977	1127.41
760.161	1158.13
760.345	1145.84
760.528	1113.07
760.712	1141.74
760.895	1059.82
761.079	1078.26
761.263	1092.59
761.446	1016.82
761.63	1061.87
761.813	1053.68
761.997	1090.54
762.18	1078.26
762.364	1231.85
762.547	1010.67
762.731	1027.06
762.914	1117.17
763.098	1041.39
763.281	1033.2
763.464	1100.78
763.648	990.19
763.831	1020.91
764.015	996.34
764.198	1041.39
764.381	1027.06
764.564	932.85
764.748	1059.82
764.931	1031.15
765.114	893.94
765.297	1022.96
765.481	1016.82
765.664	959.47
765.847	930.8
766.03	947.19
766.213	936.95
766.397	971.76
766.58	979.95
766.763	941.04
766.946	912.37
767.129	865.27
767.312	969.71
767.495	963.57
767.678	951.28
767.861	936.95
768.044	992.24
768.227	906.23
768.41	924.66
768.593	996.34
768.776	885.75
768.959	924.66
769.142	1004.53
769.324	799.73
769.507	852.98
769.69	881.65
769.873	908.27
770.056	902.13
770.239	859.12
770.421	984.05
770.604	967.67
770.787	836.6
770.97	930.8
771.152	869.36
771.335	832.5
771.518	812.02
771.7	912.37
771.883	863.22
772.066	914.42
772.248	812.02
772.431	867.31
772.613	816.12
772.796	863.22
772.978	844.79
773.161	830.45
773.343	869.36
773.526	861.17
773.708	779.25
773.891	726
774.073	672.76
774.256	760.82
774.438	773.11
774.621	691.19
774.803	779.25
774.985	689.14
775.168	693.24
775.35	648.18
775.532	740.34
775.715	697.33
775.897	742.39
776.079	734.2
776.261	711.67
776.444	762.87
776.626	609.27
776.808	687.09
776.99	726
777.173	678.9
777.355	685.05
777.537	723.96
777.719	742.39
777.901	762.87
778.083	678.9
778.265	637.94
778.447	676.85
778.629	631.8
778.811	662.52
778.993	678.9
779.175	580.6
779.357	617.46
779.539	607.22
779.721	596.98
779.903	631.8
780.085	627.7
780.267	652.28
780.449	594.93
780.631	617.46
780.812	605.17
780.994	654.33
781.176	531.45
781.358	590.84
781.54	609.27
781.721	541.69
781.903	580.6
782.085	572.41
782.267	529.4
782.448	523.26
782.63	461.82
782.812	558.07
782.993	545.78
783.175	637.94
783.357	562.17
783.538	476.15
783.72	461.82
783.901	539.64
784.083	455.67
784.264	476.15
784.446	472.06
784.627	433.15
784.809	420.86
784.99	494.58
785.172	502.78
785.353	447.48
785.535	529.4
785.716	408.57
785.897	451.58
786.079	486.39
786.26	486.39
786.441	490.49
786.623	451.58
786.804	433.15
786.985	451.58
787.167	443.39
787.348	402.43
787.529	412.67
787.71	498.68
787.891	457.72
788.073	443.39
788.254	386.04
788.435	429.05
788.616	392.19
788.797	406.52
788.978	377.85
789.159	424.95
789.34	363.51
789.522	355.32
789.703	437.24
789.884	388.09
790.065	338.94
790.246	418.81
790.427	355.32
790.607	424.95
790.788	416.76
790.969	302.08
791.15	406.52
791.331	363.51
791.512	402.43
791.693	328.7
791.874	367.61
792.054	349.18
792.235	474.1
792.416	312.32
792.597	316.41
792.778	390.14
792.958	345.08
793.139	336.89
793.32	328.7
793.5	328.7
793.681	359.42
793.862	318.46
794.042	295.93
794.223	277.5
794.404	238.59
794.584	402.43
794.765	310.27
794.945	265.21
795.126	320.51
795.306	343.03
795.487	263.16
795.667	332.79
795.848	361.47
796.028	248.83
796.209	304.12
796.389	336.89
796.57	291.84
796.75	265.21
796.93	291.84
797.111	283.64
797.291	214.01
797.471	295.93
797.652	279.55
797.832	271.36
798.012	259.07
798.192	275.45
798.373	230.4
798.553	306.17
798.733	345.08
798.913	259.07
799.093	285.69
799.274	291.84
799.454	181.25
799.634	244.73
799.814	222.2
799.994	254.97
800.174	267.26
800.354	244.73
800.534	285.69
800.714	175.1
800.894	218.11
801.074	162.81
801.254	304.12
801.434	283.64
801.614	181.25
801.794	187.39
801.974	637.94
802.154	209.92
802.334	248.83
802.514	205.82
802.693	250.88
802.873	162.81
803.053	234.49
803.233	224.25
803.413	199.68
803.592	214.01
803.772	209.92
803.952	248.83
804.131	207.87
804.311	232.44
804.491	281.6
804.67	240.64
804.85	195.58
805.03	232.44
805.209	230.4
805.389	187.39
805.568	201.72
805.748	218.11
805.928	220.16
806.107	220.16
806.287	205.82
806.466	209.92
806.646	148.48
806.825	244.73
807.004	199.68
807.184	152.57
807.363	150.53
807.543	187.39
807.722	236.54
807.901	193.53
808.081	220.16
808.26	164.86
808.439	203.77
808.619	214.01
808.798	232.44
808.977	236.54
809.156	201.72
809.336	105.47
809.515	207.87
809.694	111.61
809.873	254.97
810.052	140.29
810.231	123.9
810.411	158.72
810.59	140.29
810.769	201.72
810.948	191.49
811.127	168.96
811.306	125.95
811.485	136.19
811.664	240.64
811.843	195.58
812.022	164.86
812.201	111.61
812.38	164.86
812.559	185.34
812.737	201.72
812.916	160.77
813.095	146.43
813.274	220.16
813.453	166.91
813.632	187.39
813.811	195.58
813.989	177.15
814.168	152.57
814.347	35.84
814.526	152.57
814.704	195.58
814.883	148.48
815.062	160.77
815.24	185.34
815.419	76.8
815.598	132.09
815.776	54.27
815.955	130.05
816.133	74.75
816.312	179.2
816.49	138.24
816.669	125.95
816.847	142.33
817.026	240.64
817.204	140.29
817.383	203.77
817.561	93.18
817.74	152.57
817.918	181.25
818.097	144.38
818.275	121.85
818.453	158.72
818.632	117.76
818.81	130.05
818.988	111.61
819.167	107.52
819.345	78.85
819.523	95.23
819.701	152.57
819.879	125.95
820.058	111.61
820.236	76.8
820.414	138.24
820.592	109.57
820.77	93.18
820.948	134.14
821.127	74.75
821.305	91.13
821.483	89.09
821.661	91.13
821.839	101.37
822.017	52.22
822.195	113.66
822.373	142.33
822.551	128
822.729	148.48
822.907	103.42
823.085	95.23
823.262	95.23
823.44	191.49
823.618	138.24
823.796	84.99
823.974	70.65
824.152	-15.36
824.329	111.61
824.507	99.33
824.685	91.13
824.863	15.36
825.04	148.48
825.218	113.66
825.396	70.65
825.574	68.61
825.751	95.23
825.929	117.76
826.107	72.7
826.284	52.22
826.462	113.66
826.639	117.76
826.817	128
826.994	128
827.172	68.61
827.349	99.33
827.527	115.71
827.704	72.7
827.882	113.66
828.059	132.09
828.237	89.09
828.414	93.18
828.591	99.33
828.769	130.05
828.946	125.95
829.124	109.57
829.301	64.51
829.478	125.95
829.655	128
829.833	80.89
830.01	64.51
830.187	82.94
830.364	52.22
830.542	123.9
830.719	91.13
830.896	-15.36
831.073	117.76
831.25	25.6
831.427	109.57
831.604	107.52
831.782	91.13
831.959	76.8
832.136	68.61
832.313	89.09
832.49	95.23
832.667	44.03
832.844	15.36
833.021	144.38
833.198	23.55
833.374	39.94
833.551	82.94
833.728	25.6
833.905	101.37
834.082	68.61
834.259	64.51
834.436	97.28
834.612	58.37
834.789	62.46
834.966	62.46
835.143	156.67
835.319	9.22
835.496	68.61
835.673	58.37
835.85	171.01
836.026	41.98
836.203	56.32
836.38	119.81
836.556	39.94
836.733	27.65
836.909	72.7
837.086	39.94
837.262	17.41
837.439	13.31
837.616	-11.26
837.792	99.33
837.968	80.89
838.145	7.17
838.321	91.13
838.498	105.47
838.674	183.29
838.851	121.85
839.027	44.03
839.203	72.7
839.38	97.28
839.556	27.65
839.732	54.27
839.909	105.47
840.085	27.65
840.261	111.61
840.437	60.42
840.614	-5.12
840.79	66.56
840.966	21.5
841.142	60.42
841.318	13.31
841.494	35.84
841.671	37.89
841.847	41.98
842.023	-7.17
842.199	78.85
842.375	44.03
842.551	9.22
842.727	52.22
842.903	72.7
843.079	-33.79
843.255	33.79
843.431	21.5
843.607	107.52
843.783	68.61
843.959	113.66
844.134	80.89
844.31	54.27
844.486	-41.98
844.662	44.03
844.838	74.75
845.013	93.18
845.189	111.61
845.365	74.75
845.541	95.23
845.716	29.7
845.892	7.17
846.068	50.18
846.244	44.03
846.419	76.8
846.595	21.5
846.77	-31.74
846.946	27.65
847.122	76.8
847.297	68.61
847.473	52.22
847.648	-21.5
847.824	52.22
847.999	-21.5
848.175	-23.55
848.35	31.74
848.526	123.9
848.701	82.94
848.876	84.99
849.052	29.7
849.227	44.03
849.403	44.03
849.578	39.94
849.753	80.89
849.929	19.46
850.104	54.27
850.279	5.12
850.454	56.32
850.63	39.94
850.805	44.03
850.98	1.02
851.155	27.65
851.33	64.51
851.505	41.98
851.681	46.08
851.856	56.32
852.031	62.46
852.206	-13.31
852.381	29.7
852.556	23.55
852.731	35.84
852.906	58.37
853.081	74.75
853.256	29.7
853.431	31.74
853.606	-23.55
853.781	89.09
853.956	-21.5
854.131	15.36
854.305	54.27
854.48	11.26
854.655	39.94
854.83	70.65
855.005	82.94
855.18	52.22
855.354	48.13
855.529	87.04
855.704	-13.31
855.879	123.9
856.053	37.89
856.228	74.75
856.403	-58.37
856.577	11.26
856.752	-15.36
856.926	27.65
857.101	-11.26
857.276	31.74
857.45	33.79
857.625	27.65
857.799	41.98
857.974	9.22
858.148	33.79
858.323	-9.22
858.497	35.84
858.672	-37.89
858.846	52.22
859.02	1.02
859.195	-15.36
859.369	11.26
859.543	-5.12
859.718	91.13
859.892	-1.02
860.066	58.37
860.241	9.22
860.415	23.55
860.589	89.09
860.763	-7.17
860.938	13.31
861.112	58.37
861.286	37.89
861.46	95.23
861.634	56.32
861.808	46.08
861.982	-1.02
862.157	-33.79
862.331	48.13
862.505	37.89
862.679	13.31
862.853	25.6
863.027	35.84
863.201	87.04
863.375	-3.07
863.549	-31.74
863.722	44.03
863.896	23.55
864.07	27.65
864.244	7.17
864.418	19.46
864.592	-15.36
864.766	11.26
864.939	17.41
865.113	15.36
865.287	44.03
865.461	-1.02
865.634	37.89
865.808	17.41
865.982	21.5
866.156	-15.36
866.329	37.89
866.503	-50.18
866.676	72.7
866.85	7.17
867.024	-13.31
867.197	50.18
867.371	5.12
867.544	1.02
867.718	-44.03
867.891	-3.07
868.065	-23.55
868.238	-5.12
868.412	-23.55
868.585	35.84
868.759	35.84
868.932	82.94
869.105	7.17
869.279	-1.02
869.452	-27.65
869.625	46.08
869.799	-66.56
869.972	46.08
870.145	9.22
870.319	50.18
870.492	54.27
870.665	19.46
870.838	64.51
871.011	9.22
871.185	-9.22
871.358	76.8
871.531	-29.7
871.704	-7.17
871.877	-11.26
872.05	48.13
872.223	74.75
872.396	-66.56
872.569	48.13
872.742	37.89
872.915	48.13
873.088	66.56
873.261	-27.65
873.434	-23.55
873.607	13.31
873.78	11.26
873.953	15.36
874.126	50.18
874.299	17.41
874.471	-19.46
874.644	-23.55
874.817	7.17
874.99	37.89
875.163	-15.36
875.335	54.27
875.508	54.27
875.681	54.27
875.853	-23.55
876.026	68.61
876.199	41.98
876.371	48.13
876.544	-37.89
876.717	-21.5
876.889	68.61
877.062	35.84
877.234	41.98
877.407	-39.94
877.579	-15.36
877.752	-15.36
877.924	78.85
878.097	3.07
878.269	11.26
878.442	99.33
878.614	7.17
878.786	-19.46
878.959	23.55
879.131	7.17
879.303	-29.7
879.476	23.55
879.648	44.03
879.82	35.84
879.993	-25.6
880.165	-25.6
880.337	-5.12
880.509	46.08
880.681	-9.22
880.854	37.89
881.026	23.55
881.198	44.03
881.37	39.94
881.542	70.65
881.714	-27.65
881.886	-46.08
882.058	-7.17
882.23	46.08
882.402	27.65
882.574	56.32
882.746	50.18
882.918	-1.02
883.09	-19.46
883.262	101.37
883.434	7.17
883.606	11.26
883.778	60.42
883.95	29.7
884.122	58.37
884.293	-46.08
884.465	-46.08
884.637	19.46
884.809	-33.79
884.98	-17.41
885.152	-17.41
885.324	17.41
885.496	-56.32
885.667	23.55
885.839	-17.41
886.011	66.56
886.182	25.6
886.354	68.61
886.525	60.42
886.697	9.22
886.869	-7.17
887.04	17.41
887.212	-23.55
887.383	-5.12
887.555	-41.98
887.726	-72.7
887.897	-7.17
888.069	9.22
888.24	21.5
888.412	25.6
888.583	-33.79
888.754	-35.84
888.926	-27.65
889.097	-50.18
889.268	-9.22
889.44	-72.7
889.611	-13.31
889.782	62.46
889.953	-17.41
890.125	27.65
890.296	-29.7
890.467	39.94
890.638	56.32
890.809	76.8
890.98	-9.22
891.151	-5.12
891.323	1.02
891.494	103.42
891.665	9.22
891.836	37.89
892.007	35.84
892.178	7.17
892.349	-7.17
892.52	46.08
892.691	48.13
892.862	-29.7
893.032	9.22
893.203	-37.89
893.374	41.98
893.545	25.6
893.716	-29.7
893.887	58.37
894.057	54.27
894.228	-9.22
894.399	-48.13
894.57	64.51
894.74	27.65
894.911	-3.07
895.082	62.46
895.253	-13.31
895.423	-23.55
895.594	74.75
895.764	25.6
895.935	1.02
896.106	-35.84
896.276	64.51
896.447	46.08
896.617	-50.18
896.788	3.07
896.958	17.41
897.129	9.22
897.299	-23.55
897.47	5.12
897.64	25.6
897.81	-27.65
897.981	33.79
898.151	-58.37
898.322	27.65
898.492	58.37
898.662	23.55
898.832	27.65
899.003	-7.17
899.173	19.46
899.343	39.94
899.513	-25.6
