Data from USB4F104151__27__12-35-29-921.txt Node

Date: Fri Mar 14 12:35:29 EDT 2025
User: louis
Spectrometer: USB4F10415
Trigger mode: 4
Integration Time (sec): 2.000000E-2
Scans to average: 1
Electric dark correction enabled: true
Nonlinearity correction enabled: false
Boxcar width: 0
XAxis mode: Wavelengths
Number of Pixels in Spectrum: 3648
>>>>>Begin Spectral Data<<<<<
178.204	-138.24
178.424	-138.24
178.644	-138.24
178.864	-84.99
179.084	-37.89
179.304	33.79
179.524	27.65
179.744	7.17
179.964	93.18
180.184	-7.17
180.404	-7.17
180.624	-35.84
180.844	-29.7
181.064	-21.5
181.283	5.12
181.503	-1.02
181.723	-64.51
181.943	9.22
182.163	35.84
182.383	-37.89
182.602	54.27
182.822	54.27
183.042	31.74
183.262	19.46
183.482	-41.98
183.701	-39.94
183.921	39.94
184.141	37.89
184.361	15.36
184.58	23.55
184.8	60.42
185.02	-17.41
185.239	74.75
185.459	-15.36
185.679	64.51
185.898	-23.55
186.118	60.42
186.338	-13.31
186.557	62.46
186.777	84.99
186.997	9.22
187.216	5.12
187.436	68.61
187.655	54.27
187.875	78.85
188.095	46.08
188.314	68.61
188.534	70.65
188.753	27.65
188.973	-9.22
189.192	37.89
189.412	-7.17
189.631	31.74
189.851	-9.22
190.07	-5.12
190.29	35.84
190.509	27.65
190.729	52.22
190.948	23.55
191.168	121.85
191.387	48.13
191.607	41.98
191.826	54.27
192.045	25.6
192.265	93.18
192.484	-7.17
192.704	7.17
192.923	-13.31
193.142	70.65
193.362	9.22
193.581	80.89
193.8	41.98
194.02	54.27
194.239	48.13
194.458	46.08
194.678	56.32
194.897	9.22
195.116	-11.26
195.335	68.61
195.555	60.42
195.774	25.6
195.993	-7.17
196.212	-9.22
196.432	41.98
196.651	-54.27
196.87	7.17
197.089	74.75
197.308	68.61
197.528	13.31
197.747	37.89
197.966	-21.5
198.185	128
198.404	27.65
198.623	66.56
198.842	66.56
199.062	-9.22
199.281	113.66
199.5	33.79
199.719	31.74
199.938	29.7
200.157	9.22
200.376	50.18
200.595	19.46
200.814	72.7
201.033	-5.12
201.252	78.85
201.471	82.94
201.69	15.36
201.909	97.28
202.128	27.65
202.347	19.46
202.566	-33.79
202.785	31.74
203.004	29.7
203.223	56.32
203.442	89.09
203.661	15.36
203.879	95.23
204.098	39.94
204.317	87.04
204.536	111.61
204.755	33.79
204.974	25.6
205.193	105.47
205.411	117.76
205.63	-3.07
205.849	48.13
206.068	27.65
206.287	-11.26
206.505	68.61
206.724	41.98
206.943	29.7
207.162	27.65
207.381	25.6
207.599	62.46
207.818	48.13
208.037	31.74
208.255	27.65
208.474	91.13
208.693	89.09
208.911	17.41
209.13	35.84
209.349	138.24
209.567	-35.84
209.786	95.23
210.005	35.84
210.223	39.94
210.442	50.18
210.661	-7.17
210.879	66.56
211.098	-7.17
211.316	89.09
211.535	87.04
211.753	68.61
211.972	84.99
212.191	3.07
212.409	50.18
212.628	17.41
212.846	-44.03
213.065	-7.17
213.283	58.37
213.502	-76.8
213.72	25.6
213.938	31.74
214.157	68.61
214.375	5.12
214.594	56.32
214.812	56.32
215.031	-11.26
215.249	5.12
215.467	23.55
215.686	41.98
215.904	-1.02
216.122	13.31
216.341	-54.27
216.559	64.51
216.778	87.04
216.996	48.13
217.214	52.22
217.432	17.41
217.651	-41.98
217.869	76.8
218.087	7.17
218.306	105.47
218.524	52.22
218.742	41.98
218.96	11.26
219.179	107.52
219.397	56.32
219.615	97.28
219.833	91.13
220.051	-29.7
220.27	23.55
220.488	68.61
220.706	7.17
220.924	11.26
221.142	19.46
221.36	27.65
221.578	27.65
221.796	27.65
222.015	84.99
222.233	-3.07
222.451	99.33
222.669	1.02
222.887	-17.41
223.105	-5.12
223.323	33.79
223.541	29.7
223.759	76.8
223.977	13.31
224.195	54.27
224.413	74.75
224.631	15.36
224.849	-7.17
225.067	89.09
225.285	60.42
225.503	1.02
225.721	25.6
225.939	48.13
226.157	11.26
226.375	121.85
226.592	25.6
226.81	27.65
227.028	25.6
227.246	162.81
227.464	78.85
227.682	80.89
227.9	121.85
228.117	70.65
228.335	19.46
228.553	70.65
228.771	29.7
228.989	31.74
229.206	78.85
229.424	41.98
229.642	-31.74
229.86	23.55
230.077	87.04
230.295	64.51
230.513	64.51
230.731	19.46
230.948	84.99
231.166	109.57
231.384	5.12
231.601	35.84
231.819	-9.22
232.037	80.89
232.254	33.79
232.472	70.65
232.689	-5.12
232.907	80.89
233.125	-1.02
233.342	-1.02
233.56	50.18
233.777	66.56
233.995	5.12
234.213	58.37
234.43	66.56
234.648	-9.22
234.865	46.08
235.083	44.03
235.3	-46.08
235.518	44.03
235.735	60.42
235.953	78.85
236.17	84.99
236.388	25.6
236.605	62.46
236.822	62.46
237.04	-3.07
237.257	41.98
237.475	-1.02
237.692	68.61
237.909	13.31
238.127	66.56
238.344	13.31
238.562	72.7
238.779	-1.02
238.996	-7.17
239.214	-15.36
239.431	9.22
239.648	82.94
239.865	19.46
240.083	80.89
240.3	-50.18
240.517	5.12
240.735	64.51
240.952	58.37
241.169	41.98
241.386	70.65
241.603	15.36
241.821	41.98
242.038	46.08
242.255	82.94
242.472	93.18
242.689	-46.08
242.907	109.57
243.124	-1.02
243.341	41.98
243.558	3.07
243.775	7.17
243.992	-35.84
244.209	41.98
244.426	-21.5
244.643	-37.89
244.86	64.51
245.078	70.65
245.295	50.18
245.512	-7.17
245.729	25.6
245.946	64.51
246.163	23.55
246.38	48.13
246.597	44.03
246.814	5.12
247.031	1.02
247.248	64.51
247.464	64.51
247.681	84.99
247.898	37.89
248.115	23.55
248.332	17.41
248.549	68.61
248.766	64.51
248.983	60.42
249.2	1.02
249.417	89.09
249.633	50.18
249.85	9.22
250.067	7.17
250.284	56.32
250.501	21.5
250.717	23.55
250.934	66.56
251.151	33.79
251.368	46.08
251.585	74.75
251.801	-3.07
252.018	35.84
252.235	35.84
252.451	25.6
252.668	54.27
252.885	115.71
253.102	41.98
253.318	121.85
253.535	1.02
253.752	17.41
253.968	1.02
254.185	50.18
254.401	33.79
254.618	-11.26
254.835	-29.7
255.051	89.09
255.268	60.42
255.484	29.7
255.701	31.74
255.917	117.76
256.134	29.7
256.351	17.41
256.567	33.79
256.784	44.03
257	54.27
257.217	93.18
257.433	-11.26
257.65	3.07
257.866	76.8
258.082	-25.6
258.299	13.31
258.515	68.61
258.732	130.05
258.948	41.98
259.165	-23.55
259.381	31.74
259.597	-25.6
259.814	37.89
260.03	66.56
260.246	5.12
260.463	58.37
260.679	89.09
260.895	39.94
261.112	25.6
261.328	-7.17
261.544	84.99
261.761	140.29
261.977	107.52
262.193	37.89
262.409	46.08
262.626	56.32
262.842	39.94
263.058	27.65
263.274	76.8
263.49	93.18
263.707	44.03
263.923	39.94
264.139	62.46
264.355	70.65
264.571	23.55
264.787	99.33
265.004	70.65
265.22	48.13
265.436	-23.55
265.652	11.26
265.868	-1.02
266.084	95.23
266.3	23.55
266.516	-9.22
266.732	-35.84
266.948	31.74
267.164	-11.26
267.38	60.42
267.596	-15.36
267.812	58.37
268.028	72.7
268.244	37.89
268.46	25.6
268.676	76.8
268.892	3.07
269.108	-21.5
269.324	107.52
269.54	50.18
269.756	25.6
269.972	41.98
270.188	23.55
270.403	-3.07
270.619	-3.07
270.835	17.41
271.051	29.7
271.267	58.37
271.483	-3.07
271.698	125.95
271.914	52.22
272.13	48.13
272.346	35.84
272.562	87.04
272.777	17.41
272.993	-3.07
273.209	97.28
273.425	84.99
273.64	31.74
273.856	25.6
274.072	37.89
274.287	17.41
274.503	138.24
274.719	50.18
274.934	72.7
275.15	41.98
275.366	13.31
275.581	-19.46
275.797	50.18
276.012	13.31
276.228	29.7
276.444	41.98
276.659	56.32
276.875	29.7
277.09	62.46
277.306	33.79
277.521	74.75
277.737	62.46
277.952	-21.5
278.168	-3.07
278.383	93.18
278.599	46.08
278.814	70.65
279.03	11.26
279.245	44.03
279.461	-27.65
279.676	93.18
279.892	25.6
280.107	33.79
280.322	-9.22
280.538	48.13
280.753	-5.12
280.969	109.57
281.184	46.08
281.399	23.55
281.615	1.02
281.83	93.18
282.045	25.6
282.26	25.6
282.476	44.03
282.691	68.61
282.906	87.04
283.122	50.18
283.337	25.6
283.552	48.13
283.767	119.81
283.983	82.94
284.198	60.42
284.413	37.89
284.628	37.89
284.843	56.32
285.058	21.5
285.274	-5.12
285.489	74.75
285.704	50.18
285.919	99.33
286.134	39.94
286.349	21.5
286.564	60.42
286.779	54.27
286.995	52.22
287.21	70.65
287.425	80.89
287.64	-27.65
287.855	60.42
288.07	13.31
288.285	107.52
288.5	29.7
288.715	72.7
288.93	-21.5
289.145	56.32
289.36	19.46
289.575	39.94
289.79	-5.12
290.004	5.12
290.219	48.13
290.434	37.89
290.649	-1.02
290.864	33.79
291.079	7.17
291.294	115.71
291.509	48.13
291.724	99.33
291.938	-25.6
292.153	13.31
292.368	25.6
292.583	3.07
292.798	9.22
293.012	17.41
293.227	1.02
293.442	80.89
293.657	82.94
293.871	80.89
294.086	64.51
294.301	25.6
294.516	62.46
294.73	46.08
294.945	46.08
295.16	52.22
295.374	54.27
295.589	111.61
295.804	3.07
296.018	91.13
296.233	41.98
296.447	134.14
296.662	-15.36
296.877	19.46
297.091	54.27
297.306	74.75
297.52	23.55
297.735	60.42
297.949	54.27
298.164	97.28
298.378	93.18
298.593	31.74
298.807	-56.32
299.022	-19.46
299.236	33.79
299.451	3.07
299.665	17.41
299.88	-1.02
300.094	66.56
300.309	113.66
300.523	21.5
300.737	19.46
300.952	37.89
301.166	27.65
301.381	-29.7
301.595	17.41
301.809	54.27
302.024	-25.6
302.238	23.55
302.452	37.89
302.667	91.13
302.881	121.85
303.095	54.27
303.309	60.42
303.524	72.7
303.738	-7.17
303.952	50.18
304.166	99.33
304.381	-19.46
304.595	68.61
304.809	13.31
305.023	46.08
305.237	39.94
305.452	-7.17
305.666	80.89
305.88	70.65
306.094	15.36
306.308	50.18
306.522	66.56
306.736	80.89
306.95	76.8
307.164	1.02
307.379	21.5
307.593	80.89
307.807	76.8
308.021	66.56
308.235	1.02
308.449	-9.22
308.663	-41.98
308.877	91.13
309.091	68.61
309.305	78.85
309.519	87.04
309.733	84.99
309.947	-46.08
310.161	91.13
310.374	-41.98
310.588	52.22
310.802	3.07
311.016	68.61
311.23	9.22
311.444	29.7
311.658	54.27
311.872	66.56
312.085	70.65
312.299	27.65
312.513	70.65
312.727	89.09
312.941	31.74
313.154	17.41
313.368	21.5
313.582	123.9
313.796	41.98
314.009	50.18
314.223	3.07
314.437	-7.17
314.651	89.09
314.864	17.41
315.078	76.8
315.292	41.98
315.505	27.65
315.719	111.61
315.933	60.42
316.146	23.55
316.36	-15.36
316.573	95.23
316.787	15.36
317.001	84.99
317.214	9.22
317.428	68.61
317.641	44.03
317.855	60.42
318.068	68.61
318.282	37.89
318.495	46.08
318.709	15.36
318.922	31.74
319.136	140.29
319.349	64.51
319.563	80.89
319.776	60.42
319.99	33.79
320.203	-1.02
320.417	7.17
320.63	27.65
320.843	37.89
321.057	121.85
321.27	41.98
321.483	62.46
321.697	113.66
321.91	44.03
322.124	5.12
322.337	97.28
322.55	19.46
322.763	58.37
322.977	25.6
323.19	15.36
323.403	39.94
323.617	-9.22
323.83	56.32
324.043	31.74
324.256	-1.02
324.469	19.46
324.683	80.89
324.896	13.31
325.109	33.79
325.322	-35.84
325.535	48.13
325.748	54.27
325.962	1.02
326.175	5.12
326.388	52.22
326.601	97.28
326.814	31.74
327.027	37.89
327.24	103.42
327.453	23.55
327.666	166.91
327.879	68.61
328.092	54.27
328.305	-29.7
328.518	89.09
328.731	13.31
328.944	-31.74
329.157	80.89
329.37	25.6
329.583	66.56
329.796	111.61
330.009	27.65
330.222	41.98
330.435	80.89
330.648	62.46
330.861	23.55
331.073	56.32
331.286	-3.07
331.499	54.27
331.712	35.84
331.925	60.42
332.138	41.98
332.35	99.33
332.563	80.89
332.776	58.37
332.989	41.98
333.202	52.22
333.414	41.98
333.627	58.37
333.84	56.32
334.053	44.03
334.265	-68.61
334.478	60.42
334.691	15.36
334.903	68.61
335.116	25.6
335.329	68.61
335.541	29.7
335.754	68.61
335.966	-25.6
336.179	64.51
336.392	17.41
336.604	84.99
336.817	27.65
337.029	82.94
337.242	-25.6
337.454	68.61
337.667	52.22
337.88	74.75
338.092	33.79
338.305	87.04
338.517	-7.17
338.729	60.42
338.942	103.42
339.154	25.6
339.367	7.17
339.579	7.17
339.792	-11.26
340.004	46.08
340.217	62.46
340.429	103.42
340.641	-31.74
340.854	37.89
341.066	31.74
341.278	93.18
341.491	74.75
341.703	13.31
341.915	-23.55
342.128	103.42
342.34	-15.36
342.552	25.6
342.764	15.36
342.977	74.75
343.189	52.22
343.401	136.19
343.613	23.55
343.826	76.8
344.038	-5.12
344.25	19.46
344.462	60.42
344.674	70.65
344.886	60.42
345.099	-3.07
345.311	121.85
345.523	103.42
345.735	19.46
345.947	72.7
346.159	35.84
346.371	21.5
346.583	68.61
346.795	48.13
347.007	31.74
347.219	35.84
347.431	3.07
347.643	74.75
347.855	-29.7
348.067	-46.08
348.279	33.79
348.491	-1.02
348.703	54.27
348.915	60.42
349.127	125.95
349.339	84.99
349.551	-1.02
349.763	97.28
349.975	39.94
350.187	82.94
350.399	68.61
350.61	17.41
350.822	54.27
351.034	17.41
351.246	46.08
351.458	84.99
351.669	76.8
351.881	41.98
352.093	15.36
352.305	105.47
352.517	66.56
352.728	107.52
352.94	-19.46
353.152	101.37
353.363	19.46
353.575	46.08
353.787	54.27
353.999	66.56
354.21	62.46
354.422	50.18
354.633	-37.89
354.845	58.37
355.057	23.55
355.268	21.5
355.48	66.56
355.692	5.12
355.903	97.28
356.115	115.71
356.326	23.55
356.538	70.65
356.749	74.75
356.961	54.27
357.172	19.46
357.384	-13.31
357.595	84.99
357.807	130.05
358.018	41.98
358.23	33.79
358.441	74.75
358.653	95.23
358.864	-3.07
359.075	78.85
359.287	-7.17
359.498	76.8
359.709	-3.07
359.921	82.94
360.132	46.08
360.344	84.99
360.555	62.46
360.766	7.17
360.977	97.28
361.189	142.33
361.4	78.85
361.611	76.8
361.823	113.66
362.034	111.61
362.245	58.37
362.456	23.55
362.667	60.42
362.879	109.57
363.09	41.98
363.301	80.89
363.512	64.51
363.723	41.98
363.935	44.03
364.146	31.74
364.357	60.42
364.568	37.89
364.779	29.7
364.99	128
365.201	76.8
365.412	25.6
365.623	58.37
365.834	37.89
366.045	62.46
366.256	74.75
366.467	48.13
366.678	13.31
366.889	60.42
367.1	70.65
367.311	23.55
367.522	25.6
367.733	48.13
367.944	41.98
368.155	117.76
368.366	97.28
368.577	72.7
368.788	123.9
368.999	64.51
369.209	48.13
369.42	62.46
369.631	95.23
369.842	87.04
370.053	50.18
370.264	173.05
370.474	39.94
370.685	23.55
370.896	37.89
371.107	74.75
371.317	60.42
371.528	35.84
371.739	107.52
371.95	50.18
372.16	101.37
372.371	15.36
372.582	140.29
372.792	48.13
373.003	101.37
373.214	21.5
373.424	78.85
373.635	46.08
373.846	27.65
374.056	-1.02
374.267	1.02
374.477	46.08
374.688	31.74
374.898	62.46
375.109	15.36
375.319	89.09
375.53	89.09
375.74	15.36
375.951	74.75
376.161	72.7
376.372	15.36
376.582	113.66
376.793	39.94
377.003	68.61
377.214	89.09
377.424	101.37
377.635	58.37
377.845	23.55
378.055	25.6
378.266	25.6
378.476	44.03
378.686	17.41
378.897	37.89
379.107	58.37
379.317	111.61
379.528	50.18
379.738	31.74
379.948	31.74
380.158	87.04
380.369	31.74
380.579	99.33
380.789	52.22
380.999	33.79
381.21	109.57
381.42	158.72
381.63	52.22
381.84	84.99
382.05	87.04
382.261	74.75
382.471	46.08
382.681	76.8
382.891	44.03
383.101	72.7
383.311	37.89
383.521	115.71
383.731	87.04
383.941	99.33
384.151	37.89
384.361	-3.07
384.571	107.52
384.781	123.9
384.991	54.27
385.201	123.9
385.411	60.42
385.621	111.61
385.831	52.22
386.041	80.89
386.251	76.8
386.461	56.32
386.671	128
386.881	162.81
387.091	123.9
387.301	56.32
387.511	119.81
387.72	111.61
387.93	-1.02
388.14	156.67
388.35	97.28
388.56	35.84
388.769	54.27
388.979	19.46
389.189	13.31
389.399	7.17
389.609	87.04
389.818	134.14
390.028	125.95
390.238	109.57
390.447	39.94
390.657	93.18
390.867	48.13
391.076	128
391.286	82.94
391.496	31.74
391.705	50.18
391.915	123.9
392.125	44.03
392.334	39.94
392.544	144.38
392.753	76.8
392.963	15.36
393.172	91.13
393.382	50.18
393.591	97.28
393.801	66.56
394.01	89.09
394.22	107.52
394.429	107.52
394.639	109.57
394.848	70.65
395.058	54.27
395.267	64.51
395.477	136.19
395.686	52.22
395.895	72.7
396.105	119.81
396.314	27.65
396.524	132.09
396.733	121.85
396.942	183.29
397.152	130.05
397.361	193.53
397.57	78.85
397.78	166.91
397.989	148.48
398.198	162.81
398.407	132.09
398.617	76.8
398.826	111.61
399.035	109.57
399.244	181.25
399.453	140.29
399.663	132.09
399.872	150.53
400.081	89.09
400.29	130.05
400.499	107.52
400.708	195.58
400.917	87.04
401.127	113.66
401.336	105.47
401.545	187.39
401.754	156.67
401.963	99.33
402.172	191.49
402.381	89.09
402.59	140.29
402.799	191.49
403.008	166.91
403.217	91.13
403.426	158.72
403.635	144.38
403.844	179.2
404.053	105.47
404.262	181.25
404.471	136.19
404.68	209.92
404.888	146.43
405.097	252.92
405.306	136.19
405.515	205.82
405.724	181.25
405.933	171.01
406.142	181.25
406.35	218.11
406.559	197.63
406.768	130.05
406.977	240.64
407.185	314.36
407.394	179.2
407.603	189.44
407.812	263.16
408.02	257.02
408.229	308.22
408.438	279.55
408.646	242.68
408.855	191.49
409.064	340.99
409.272	283.64
409.481	293.88
409.69	349.18
409.898	336.89
410.107	277.5
410.315	392.19
410.524	271.36
410.733	381.95
410.941	431.1
411.15	400.38
411.358	443.39
411.567	486.39
411.775	455.67
411.984	486.39
412.192	508.92
412.401	447.48
412.609	570.36
412.818	539.64
413.026	639.99
413.234	498.68
413.443	594.93
413.651	588.79
413.86	644.09
414.068	693.24
414.276	764.92
414.485	674.81
414.693	699.38
414.901	801.78
415.11	762.87
415.318	781.3
415.526	771.06
415.734	805.88
415.943	871.41
416.151	963.57
416.359	850.93
416.567	918.51
416.776	1006.58
416.984	1061.87
417.192	973.81
417.4	1065.97
417.608	1121.26
417.817	1111.02
418.025	1131.5
418.233	1285.1
418.441	1238
418.649	1315.82
418.857	1446.89
419.065	1293.29
419.273	1387.5
419.481	1461.23
419.689	1569.77
419.897	1584.1
420.105	1645.54
420.313	1563.62
420.521	1737.7
420.729	1706.98
420.937	1700.84
421.145	2030.56
421.353	1946.59
421.561	2098.14
421.769	2077.66
421.977	2237.41
422.185	2155.49
422.393	2233.31
422.601	2444.25
422.809	2411.48
423.017	2431.96
423.224	2563.03
423.432	2657.24
423.64	2704.34
423.848	2870.23
424.056	2806.74
424.263	3138.51
424.471	3003.35
424.679	3097.55
424.887	3261.39
425.094	3470.28
425.302	3386.32
425.51	3578.83
425.718	3718.09
425.925	3701.7
426.133	3826.63
426.341	4010.95
426.548	4285.37
426.756	4176.83
426.964	4293.57
427.171	4504.51
427.379	4658.1
427.586	4682.68
427.794	4826.04
428.001	4991.92
428.209	5352.37
428.417	5088.18
428.624	5491.63
428.832	5639.08
429.039	5473.2
429.247	5493.68
429.454	6120.35
429.662	6618.01
429.869	5893.03
430.076	6425.5
430.284	6323.1
430.491	6681.5
430.699	6806.42
430.906	6792.09
431.114	7007.13
431.321	7285.65
431.528	7463.82
431.736	7820.17
431.943	8225.67
432.15	8041.35
432.358	8252.29
432.565	8653.69
432.772	8192.9
432.979	9018.23
433.187	9087.86
433.394	9083.77
433.601	9595.76
433.808	9677.68
434.016	9745.26
434.223	9911.14
434.43	10763.1
434.637	10378.08
434.844	11234.13
435.052	11324.24
435.259	11111.25
435.466	11252.56
435.673	11137.88
435.88	11869
436.087	12737.34
436.294	12813.12
436.501	12034.89
436.708	12682.05
436.915	13237.05
437.122	13658.93
437.329	13220.66
437.537	14019.37
437.743	14125.86
437.95	14340.9
438.157	14701.34
438.364	15350.55
438.571	15334.17
438.778	15526.68
438.985	16675.59
439.192	16102.15
439.399	16546.56
439.606	16274.18
439.813	16947.97
440.02	18131.69
440.227	17765.1
440.433	17718
440.64	18217.71
440.847	18127.6
441.054	18547.43
441.261	19862.22
441.467	19739.35
441.674	19894.99
441.881	20878.02
442.088	20400.84
442.294	20755.14
442.501	20892.35
442.708	21441.21
442.914	22549.16
443.121	23257.76
443.328	22385.32
443.534	24109.71
443.741	23618.2
443.948	23354.01
444.154	24664.71
444.361	24859.27
444.568	24687.24
444.774	25119.36
444.981	25338.49
445.187	25922.16
445.394	27277.92
445.6	27026.02
445.807	29209.15
446.013	28228.18
446.22	28605
446.426	29788.73
446.633	29626.94
446.839	31121.96
447.046	29239.87
447.252	31132.2
447.459	31607.33
447.665	31072.81
447.871	32539.15
448.078	34173.43
448.284	32250.39
448.491	32981.51
448.697	34460.15
448.903	34927.08
449.11	34978.28
449.316	34390.52
449.522	35197.41
449.728	36182.49
449.935	36592.08
450.141	36485.59
450.347	37126.6
450.553	35762.65
450.76	36616.66
450.966	37960.12
451.172	37165.51
451.378	38373.81
451.584	37863.87
451.791	38244.79
451.997	38062.52
452.203	38754.74
452.409	38826.42
452.615	38625.71
452.821	37523.91
453.027	37009.87
453.233	39023.02
453.44	37638.59
453.646	37775.81
453.852	37988.8
454.058	38611.38
454.264	37134.79
454.47	38308.28
454.676	37093.83
454.882	38558.13
455.088	35375.59
455.294	35828.19
455.5	36262.36
455.705	36399.57
455.911	35301.86
456.117	34935.27
456.323	34232.82
456.529	32213.52
456.735	33802.75
456.941	32758.28
457.147	31973.91
457.352	31074.85
457.558	31023.65
457.764	30951.98
457.97	30630.44
458.176	29504.06
458.381	29786.68
458.587	28207.7
458.793	27933.27
458.999	26804.84
459.204	28688.97
459.41	27748.95
459.616	26094.19
459.821	26229.36
460.027	25971.32
460.233	25528.95
460.438	24328.84
460.644	24590.98
460.85	23378.59
461.055	23433.88
461.261	23048.86
461.466	21068.48
461.672	20615.88
461.878	22065.84
462.083	20538.05
462.289	20271.82
462.494	20040.4
462.7	19440.34
462.905	18328.3
463.111	18936.54
463.316	19452.63
463.522	18852.58
463.727	19053.28
463.932	18803.43
464.138	18514.66
464.343	18797.28
464.549	18148.08
464.754	19102.43
464.959	18637.54
465.165	18686.69
465.37	17607.41
465.575	17224.44
465.781	18033.39
465.986	18023.15
466.191	17232.63
466.397	17083.13
466.602	16364.29
466.807	16794.37
467.012	17036.03
467.218	16788.22
467.423	16433.93
467.628	16474.88
467.833	17468.15
468.038	16718.59
468.244	16253.7
468.449	17130.23
468.654	16368.39
468.859	16327.43
469.064	16020.24
469.269	15371.03
469.474	15561.49
469.679	15948.56
469.885	15350.55
470.09	15815.44
470.295	15850.25
470.5	15102.75
470.705	15346.45
470.91	15133.47
471.115	14897.95
471.32	15217.43
471.525	14701.34
471.73	14818.08
471.935	14279.46
472.139	14078.76
472.344	14189.35
472.549	14185.26
472.754	14068.52
472.959	13488.95
473.164	13304.63
473.369	13382.45
473.574	13787.95
473.778	13564.72
473.983	13355.83
474.188	13165.37
474.393	12741.44
474.598	12999.48
474.802	12763.97
475.007	12559.17
475.212	12671.81
475.417	12120.9
475.621	12016.46
475.826	12110.66
476.031	11989.83
476.235	11662.16
476.44	12065.61
476.645	11799.37
476.849	11889.48
477.054	11570
477.259	11596.62
477.463	11387.73
477.668	11060.06
477.872	11115.35
478.077	11086.68
478.282	10902.36
478.486	10793.82
478.691	10832.73
478.895	10799.96
479.1	10568.54
479.304	10724.19
479.509	10314.59
479.713	10462.05
479.918	10226.53
480.122	10013.54
480.326	10161
480.531	10257.25
480.735	9982.82
480.94	9997.16
481.144	10449.76
481.348	9851.75
481.553	9720.68
481.757	9782.12
481.961	9743.21
482.166	9993.06
482.37	9931.62
482.574	9788.27
482.778	9829.23
482.983	10077.03
483.187	9821.03
483.391	10062.69
483.595	9855.85
483.8	9821.03
484.004	9900.9
484.208	9980.78
484.412	9784.17
484.616	10103.65
484.821	9808.75
485.025	9485.17
485.229	9968.49
485.433	9599.85
485.637	9816.94
485.841	9724.78
486.045	9671.53
486.249	9929.58
486.453	9646.96
486.657	9769.83
486.861	9823.08
487.065	9608.05
487.269	9818.99
487.473	9741.16
487.677	9900.9
487.881	9999.21
488.085	9780.07
488.289	9831.27
488.493	9855.85
488.697	9972.58
488.901	9841.51
489.105	9790.31
489.309	9687.92
489.512	10019.69
489.716	10013.54
489.92	9857.9
490.124	9921.38
490.328	10273.64
490.531	10054.5
490.735	10308.45
490.939	10068.84
491.143	10138.47
491.346	10120.04
491.55	10136.42
491.754	10240.87
491.958	10345.31
492.161	10183.52
492.365	10562.4
492.569	10249.06
492.772	10208.1
492.976	10292.07
493.18	10550.11
493.383	10621.79
493.587	10812.25
493.79	10828.63
493.994	10484.58
494.197	10871.64
494.401	10861.4
494.605	10998.62
494.808	11113.3
495.012	11187.03
495.215	11010.9
495.419	11148.12
495.622	11334.48
495.825	11526.99
496.029	11361.11
496.232	11844.43
496.436	11635.53
496.639	11848.52
496.843	11838.28
497.046	12198.73
497.249	12186.44
497.453	12376.9
497.656	12540.74
497.859	12483.39
498.063	12540.74
498.266	12897.08
498.469	12911.42
498.673	12958.52
498.876	13230.9
499.079	13421.36
499.282	13396.79
499.485	13613.87
499.689	13611.82
499.892	13681.46
500.095	13970.22
500.298	14484.26
500.501	14117.67
500.705	14402.34
500.908	14621.47
501.111	14889.76
501.314	14912.28
501.517	15139.61
501.72	15430.42
501.923	15436.56
502.126	15819.53
502.329	15913.74
502.532	15844.11
502.735	16038.67
502.938	16196.36
503.141	16435.97
503.344	16743.17
503.547	16810.75
503.75	17218.3
503.953	17277.69
504.156	17687.28
504.359	17771.25
504.562	17554.16
504.765	17978.09
504.968	18424.55
505.17	18529
505.373	18275.05
505.576	18854.62
505.779	19124.96
505.982	19366.62
506.185	19616.47
506.387	19735.25
506.59	19546.84
506.793	20218.57
506.996	20052.69
507.198	20796.1
507.401	20427.46
507.604	20939.46
507.807	21484.22
508.009	21424.83
508.212	21668.53
508.415	22117.04
508.617	21926.58
508.82	22186.67
509.022	22258.35
509.225	22993.57
509.428	23073.44
509.63	23159.45
509.833	23446.17
510.035	23872.15
510.238	24035.99
510.44	24177.3
510.643	24545.93
510.845	24889.99
511.048	24670.86
511.25	25238.14
511.453	24976
511.655	26086
511.858	25787
512.06	26184.3
512.262	26407.53
512.465	26581.61
512.667	26851.94
512.87	27183.71
513.072	27036.26
513.274	27929.17
513.477	28060.24
513.679	28213.84
513.881	28375.63
514.084	28854.86
514.286	29313.6
514.488	29342.27
514.69	30237.23
514.893	29645.37
515.095	30245.43
515.297	30734.89
515.499	30880.3
515.701	31089.19
515.904	31349.28
516.106	31314.47
516.308	31810.07
516.51	32168.47
516.712	32399.89
516.914	32737.8
517.116	33096.2
517.318	33739.26
517.52	33692.16
517.722	33880.57
517.925	34544.11
518.127	34388.47
518.329	34744.81
518.531	34734.57
518.733	35461.6
518.935	35377.64
519.136	35594.72
519.338	36094.43
519.54	36510.16
519.742	36800.97
519.944	37001.68
520.146	37745.09
520.348	37718.46
520.55	37745.09
520.752	38054.33
520.954	39082.41
521.155	38652.34
521.357	39186.86
521.559	39500.2
521.761	39850.4
521.963	39844.26
522.164	40030.62
522.366	40198.55
522.568	40464.79
522.77	40843.66
522.971	41499.01
523.173	41228.68
523.375	41288.07
523.576	41542.02
523.778	41621.89
523.98	42070.4
524.181	42367.35
524.383	42359.16
524.584	43329.9
524.786	43174.25
524.988	42946.93
525.189	43852.13
525.391	43903.33
525.592	44188
525.794	44116.32
525.995	44243.29
526.197	43813.22
526.398	44347.74
526.6	44845.4
526.801	44869.97
527.003	45328.72
527.204	44751.19
527.406	45168.97
527.607	45482.31
527.808	46078.27
528.01	45185.36
528.211	45322.57
528.412	46408
528.614	46088.51
528.815	45834.56
529.016	46672.18
529.218	46451
529.419	45865.28
529.62	46446.91
529.822	46588.22
530.023	46520.63
530.224	46426.43
530.425	46788.92
530.626	46442.81
530.828	46356.8
531.029	47561
531.23	46668.09
531.431	46575.93
531.632	46899.51
531.833	46778.68
532.035	46856.5
532.236	46989.62
532.437	46819.64
532.638	46725.43
532.839	47378.73
533.04	47298.86
533.241	46631.22
533.442	47208.75
533.643	47186.22
533.844	46870.84
534.045	47212.85
534.246	46451
534.447	46930.23
534.648	47030.58
534.849	47266.09
535.05	46575.93
535.251	47079.73
535.451	46500.15
535.652	47196.46
535.853	46827.83
536.054	47044.91
536.255	46778.68
536.456	46473.53
536.657	47167.79
536.857	46803.25
537.058	46655.8
537.259	47270.19
537.46	46782.77
537.66	46868.79
537.861	47034.67
538.062	46199.1
538.263	46672.18
538.463	46612.79
538.664	46360.89
538.865	46356.8
539.065	46608.7
539.266	46149.95
539.466	46555.45
539.667	45859.14
539.868	47106.35
540.068	46481.72
540.269	46465.34
540.469	46631.22
540.67	46201.15
540.87	46430.52
541.071	46205.25
541.271	46428.48
541.472	46440.76
541.672	45566.28
541.873	46266.69
542.073	45717.83
542.274	46283.07
542.474	45801.8
542.675	45601.1
542.875	46139.71
543.075	46207.29
543.276	45388.11
543.476	46385.47
543.676	45732.17
543.877	45824.32
544.077	46025.03
544.277	45809.99
544.478	45543.75
544.678	45783.37
544.878	45613.38
545.078	45644.1
545.279	45971.78
545.479	45590.86
545.679	45807.94
545.879	45678.92
546.079	45500.75
546.28	45553.99
546.48	45373.77
546.68	45861.19
546.88	45486.41
547.08	45736.26
547.28	45687.11
547.48	45244.75
547.68	45467.98
547.88	45146.45
548.081	45527.37
548.281	45125.97
548.481	45711.69
548.681	45805.89
548.881	45433.16
549.081	45498.7
549.28	45042
549.48	45742.41
549.68	45300.04
549.88	45564.23
550.08	44976.47
550.28	45437.26
550.48	44845.4
550.68	45723.97
550.88	45203.79
551.08	45369.68
551.279	45517.13
551.479	45072.72
551.679	45529.42
551.879	44788.05
552.079	45543.75
552.278	44992.85
552.478	45203.79
552.678	44833.11
552.878	45300.04
553.077	45287.76
553.277	44814.68
553.477	45420.87
553.676	44857.68
553.876	45154.64
554.076	44783.96
554.275	44644.69
554.475	44712.28
554.674	44843.35
554.874	44908.88
555.074	44405.08
555.273	45023.57
555.473	45336.91
555.672	44562.78
555.872	44458.33
556.071	44398.94
556.271	45140.3
556.47	44487
556.67	44011.87
556.869	44505.43
557.068	44274.01
557.268	43888.99
557.467	44067.17
557.667	44409.18
557.866	44325.21
558.065	44368.22
558.265	44341.6
558.464	43917.67
558.663	44423.51
558.863	43542.89
559.062	44274.01
559.261	43520.36
559.461	43897.19
559.66	43399.53
559.859	43608.42
560.058	43557.22
560.258	43829.6
560.457	43268.46
560.656	43579.75
560.855	43587.94
561.054	43731.3
561.253	43350.38
561.453	43258.22
561.652	43284.84
561.851	43311.47
562.05	43333.99
562.249	42723.7
562.448	43174.25
562.647	42965.36
562.846	42531.19
563.045	43037.04
563.244	42416.5
563.443	42819.95
563.642	42465.66
563.841	42885.49
564.04	42166.65
564.239	42649.97
564.438	41910.66
564.637	42260.86
564.836	42496.38
565.035	42006.91
565.234	42082.69
565.432	41949.57
565.631	41521.54
565.83	41802.11
566.029	41990.53
566.228	41689.48
566.427	41605.51
566.625	41433.48
566.824	40681.88
567.023	41302.41
567.222	40606.1
567.42	41388.42
567.619	41107.85
567.818	41015.69
568.016	40569.24
568.215	41337.23
568.414	40233.37
568.612	40882.58
568.811	40188.31
569.01	40632.72
569.208	39831.97
569.407	40225.18
569.605	39410.09
569.804	40253.85
570.002	39881.12
570.201	39844.26
570.4	39664.03
570.598	39371.18
570.797	39199.15
570.995	39311.78
571.193	38900.14
571.392	39272.87
571.59	39049.64
571.789	38844.85
571.987	38918.57
572.186	39104.94
572.384	38750.64
572.582	38713.78
572.781	38398.39
572.979	37935.55
573.177	38392.25
573.376	38132.15
573.574	37847.49
573.772	37939.65
573.971	37771.71
574.169	37528
574.367	37347.78
574.565	37726.66
574.763	37288.39
574.962	37249.48
575.16	37142.99
575.358	37288.39
575.556	36596.18
575.754	37280.2
575.952	36456.92
576.151	36731.34
576.349	36557.27
576.547	36573.65
576.745	36297.17
576.943	36166.1
577.141	35992.03
577.339	36420.05
577.537	35807.71
577.735	36137.43
577.933	35772.89
578.131	36184.54
578.329	35357.16
578.527	35265
578.725	35568.1
578.923	35076.58
579.121	35129.83
579.319	34830.83
579.516	35369.44
579.714	35072.49
579.912	34955.75
580.11	34814.44
580.308	34437.62
580.506	34519.54
580.704	34204.15
580.901	34707.95
581.099	34447.86
581.297	34187.77
581.495	33921.53
581.692	34214.39
581.89	33786.36
582.088	33870.33
582.285	33208.84
582.483	33933.82
582.681	33411.59
582.878	33176.07
583.076	32952.84
583.274	33233.41
583.471	32938.51
583.669	32948.75
583.866	32639.5
584.064	33118.73
584.262	32311.83
584.459	32811.53
584.657	32705.04
584.854	32731.66
585.052	31918.62
585.249	32221.72
585.447	32184.85
585.644	32129.56
585.841	32064.02
586.039	32164.37
586.236	31853.08
586.434	31676.96
586.631	31339.04
586.828	31482.4
587.026	31834.65
587.223	31869.47
587.42	31400.48
587.618	31463.97
587.815	31076.9
588.012	31046.18
588.21	30827.05
588.407	31281.7
588.604	30898.73
588.801	30810.67
588.999	30761.51
589.196	30781.99
589.393	30394.93
589.59	30405.17
589.787	30401.07
589.984	30308.91
590.182	29872.7
590.379	30106.16
590.576	29919.8
590.773	29788.73
590.97	29534.78
591.167	29889.08
591.364	29532.73
591.561	29633.08
591.758	29239.87
591.955	29510.21
592.152	29569.6
592.349	29538.88
592.546	29327.94
592.743	29624.89
592.94	28815.94
593.137	29231.68
593.334	29104.71
593.531	28310.1
593.727	28750.41
593.924	28471.89
594.121	28242.51
594.318	28547.66
594.515	28432.97
594.712	28445.26
594.908	28181.07
595.105	28277.33
595.302	27994.71
595.499	28052.05
595.696	28125.78
595.892	27755.1
596.089	27806.3
596.286	27779.67
596.482	27607.64
596.679	27724.38
596.876	27456.09
597.072	27236.96
597.269	27581.02
597.466	27013.73
597.662	27411.04
597.859	27327.07
598.055	27429.47
598.252	27216.48
598.448	27083.36
598.645	27124.32
598.841	26780.26
599.038	26995.3
599.234	26942.05
599.431	26509.93
599.627	26325.61
599.824	26114.67
600.02	26481.26
600.217	26616.43
600.413	26397.29
600.609	25944.69
600.806	26104.43
601.002	26131.06
601.198	25969.27
601.395	26143.35
601.591	25776.76
601.787	25887.35
601.984	25436.8
602.18	25655.93
602.376	25766.52
602.572	25731.7
602.769	25492.09
602.965	24920.71
603.161	25887.35
603.357	25381.5
603.553	25070.21
603.75	24986.24
603.946	25041.54
604.142	25133.7
604.338	24638.09
604.534	25295.49
604.73	24699.53
604.926	24447.63
605.122	24507.02
605.318	24500.87
605.514	24656.52
605.71	24408.72
605.906	24267.41
606.102	24199.82
606.298	24453.77
606.494	24296.08
606.69	24085.14
606.886	24251.02
607.082	23929.49
607.278	23909.01
607.474	23669.4
607.67	24132.24
607.866	23573.14
608.062	23868.05
608.257	23788.18
608.453	23603.86
608.649	23476.89
608.845	23462.55
609.041	23374.49
609.236	23513.75
609.432	23337.63
609.628	23354.01
609.824	23177.89
610.019	23292.57
610.215	23378.59
610.411	23440.03
610.606	23284.38
610.802	23102.11
610.998	22782.63
611.193	22968.99
611.389	23089.82
611.584	22925.99
611.78	22459.05
611.976	22645.41
612.171	22624.93
612.367	22737.57
612.562	22526.63
612.758	22289.07
612.953	22454.95
613.149	22983.33
613.344	22364.84
613.539	22629.03
613.735	22211.25
613.93	22309.55
614.126	22203.05
614.321	22293.16
614.517	22018.74
614.712	22215.34
614.907	22055.6
615.103	22127.28
615.298	21899.95
615.493	22102.7
615.688	21543.61
615.884	22067.89
616.079	21486.26
616.274	21760.69
616.47	21906.1
616.665	21725.88
616.86	21666.49
617.055	21598.9
617.25	21639.86
617.445	21568.18
617.641	21293.76
617.836	21662.39
618.031	21160.64
618.226	21203.64
618.421	21125.82
618.616	21578.42
618.811	20789.95
619.006	21488.31
619.201	20609.73
619.396	20855.49
619.591	20421.32
619.786	20765.38
619.981	20411.08
620.176	20718.28
620.371	20331.21
620.566	20388.55
620.761	20357.83
620.956	20112.08
621.151	20069.07
621.346	20107.98
621.541	19772.11
621.735	19927.76
621.93	19491.54
622.125	19653.33
622.32	19464.92
622.515	19223.26
622.709	19315.42
622.904	19329.75
623.099	19327.71
623.294	19253.98
623.488	18772.71
623.683	19055.33
623.878	18752.23
624.072	18649.83
624.267	18610.92
624.462	18510.57
624.656	18344.68
624.851	18229.99
625.046	18250.47
625.24	18119.4
625.435	17926.89
625.629	17804.02
625.824	17744.63
626.018	17648.37
626.213	17451.77
626.407	17636.08
626.602	17556.21
626.796	17443.57
626.991	17240.82
627.185	17210.11
627.38	16915.2
627.574	17015.55
627.768	16907.01
627.963	16804.61
628.157	16544.52
628.352	16853.76
628.546	16218.89
628.74	16677.63
628.935	16341.77
629.129	16456.45
629.323	15876.88
629.517	16179.98
629.712	16151.31
629.906	16061.19
630.1	15803.15
630.294	15899.41
630.489	15469.33
630.683	15776.53
630.877	15534.87
631.071	15581.97
631.265	15618.83
631.459	15526.68
631.653	15317.78
631.848	15131.42
632.042	15002.4
632.236	15147.8
632.43	14818.08
632.624	15002.4
632.818	14983.96
633.012	14596.9
633.206	14809.89
633.4	14879.52
633.594	14539.55
633.788	14492.45
633.982	14316.33
634.176	14449.44
634.369	14037.8
634.563	14205.74
634.757	13978.41
634.951	13984.55
635.145	13841.2
635.339	13794.09
635.533	13744.94
635.726	13712.17
635.92	13564.72
636.114	13615.92
636.308	13570.86
636.501	13343.54
636.695	13265.72
636.889	13134.65
637.083	13112.12
637.276	13038.39
637.47	13044.54
637.664	12817.21
637.857	12884.8
638.051	12686.14
638.244	12905.28
638.438	12665.66
638.632	12577.6
638.825	12555.07
639.019	12501.83
639.212	12155.72
639.406	12364.61
639.599	12204.87
639.793	12217.16
639.986	11909.96
640.18	12073.8
640.373	12000.07
640.567	11701.07
640.76	11797.32
640.954	11776.84
641.147	11602.77
641.34	11613.01
641.534	11520.85
641.727	11338.58
641.92	11395.92
642.114	11563.86
642.307	11178.84
642.5	11154.26
642.694	11090.77
642.887	11031.38
643.08	11031.38
643.273	11287.38
643.467	10728.28
643.66	10920.79
643.853	10787.68
644.046	10668.89
644.239	10646.37
644.432	10634.08
644.626	10519.39
644.819	10406.75
645.012	10451.81
645.205	10302.31
645.398	10251.11
645.591	10031.97
645.784	10249.06
645.977	10058.6
646.17	9945.96
646.363	9966.44
646.556	9804.65
646.749	9880.43
646.942	9638.76
647.135	9665.39
647.328	9485.17
647.521	9454.45
647.714	9390.96
647.907	9532.27
648.099	9464.69
648.292	9468.78
648.485	9460.59
648.678	9409.39
648.871	9126.77
649.064	9044.85
649.256	9411.44
649.449	9130.87
649.642	9020.28
649.835	8997.75
650.027	8784.76
650.22	8928.12
650.413	8979.32
650.605	8721.27
650.798	8805.24
650.991	8520.57
651.183	8940.41
651.376	8551.29
651.568	8563.58
651.761	8725.37
651.954	8549.25
652.146	8524.67
652.339	8379.26
652.531	8346.5
652.724	8459.13
652.916	8217.47
653.109	8254.34
653.301	8213.38
653.494	8256.39
653.686	7943.05
653.879	8229.76
654.071	7945.09
654.263	7955.33
654.456	7895.94
654.648	7869.32
654.84	7642
655.033	7715.72
655.225	7699.34
655.417	7605.13
655.61	7824.26
655.802	7555.98
655.994	7558.03
656.186	7459.73
656.379	7424.91
656.571	7388.05
656.763	7400.34
656.955	7224.21
657.148	7494.54
657.34	7263.12
657.532	7125.91
657.724	7234.45
657.916	7084.95
658.108	7109.52
658.3	7080.85
658.492	6962.07
658.684	6996.89
658.876	6898.58
659.068	6904.73
659.26	6917.01
659.452	7007.13
659.644	6744.99
659.836	6697.88
660.028	6812.57
660.22	6519.71
660.412	6681.5
660.604	6552.48
660.796	6495.13
660.988	6613.92
661.18	6628.25
661.372	6454.17
661.563	6566.81
661.755	6278.05
661.947	6400.93
662.139	6349.73
662.331	6433.69
662.522	6249.38
662.714	6321.06
662.906	6132.64
663.097	6134.69
663.289	5997.48
663.481	6206.37
663.673	6067.11
663.864	6022.05
664.056	6058.92
664.247	5897.13
664.439	5950.37
664.631	6038.44
664.822	5958.57
665.014	5804.97
665.205	5880.74
665.397	5774.25
665.588	5784.49
665.78	5741.48
665.971	5817.26
666.163	5700.52
666.354	5729.19
666.546	5630.89
666.737	5569.45
666.929	5667.75
667.12	5563.31
667.311	5497.77
667.503	5546.92
667.694	5411.76
667.885	5567.4
668.077	5487.53
668.268	5409.71
668.459	5475.24
668.651	5360.56
668.842	5272.5
669.033	5307.31
669.224	5278.64
669.416	5346.22
669.607	5188.53
669.798	5153.71
669.989	5063.6
670.18	5284.78
670.371	5112.75
670.563	5147.57
670.754	5252.02
670.945	5069.75
671.136	5077.94
671.327	5053.36
671.518	5000.12
671.709	4987.83
671.9	4991.92
672.091	5004.21
672.282	5014.45
672.473	4930.48
672.664	4934.58
672.855	5077.94
673.046	4930.48
673.237	4961.2
673.428	4877.24
673.619	4975.54
673.809	4793.27
674	4819.89
674.191	4903.86
674.382	4756.41
674.573	4887.48
674.764	4766.65
674.954	4901.81
675.145	4737.98
675.336	4727.74
675.527	4635.58
675.717	4778.94
675.908	4670.39
676.099	4826.04
676.289	4707.26
676.48	4627.39
676.671	4750.26
676.861	4697.02
677.052	4717.5
677.243	4514.75
677.433	4727.74
677.624	4668.34
677.814	4576.19
678.005	4606.91
678.195	4682.68
678.386	4496.32
678.576	4391.87
678.767	4578.23
678.957	4688.82
679.148	4608.95
679.338	4508.6
679.529	4678.58
679.719	4598.71
679.909	4611
680.1	4443.07
680.29	4426.68
680.481	4443.07
680.671	4420.54
680.861	4527.03
681.052	4543.42
681.242	4471.74
681.432	4555.71
681.622	4516.8
681.813	4451.26
682.003	4559.8
682.193	4424.64
682.383	4430.78
682.573	4522.94
682.764	4424.64
682.954	4625.34
683.144	4502.46
683.334	4381.63
683.524	4428.73
683.714	4346.81
683.904	4357.05
684.094	4449.21
684.284	4436.92
684.474	4299.71
684.664	4367.29
684.854	4426.68
685.044	4414.4
685.234	4291.52
685.424	4387.77
685.614	4316.09
685.804	4381.63
685.994	4346.81
686.184	4221.89
686.374	4334.53
686.564	4252.61
686.753	4297.66
686.943	4203.46
687.133	4273.09
687.323	4318.14
687.513	4221.89
687.702	4303.81
687.892	4219.84
688.082	4260.8
688.272	4125.63
688.461	4109.25
688.651	4207.55
688.841	4187.07
689.03	3998.66
689.22	4160.45
689.41	4101.06
689.599	3986.37
689.789	4094.91
689.979	3900.36
690.168	4041.67
690.358	4092.87
690.547	3926.98
690.737	4121.54
690.926	3996.61
691.116	3986.37
691.305	3957.7
691.495	4049.86
691.684	4019.14
691.874	3855.3
692.063	3988.42
692.252	3900.36
692.442	3879.88
692.631	3935.17
692.82	3974.08
693.01	3773.38
693.199	3892.16
693.388	3791.81
693.578	3814.34
693.767	3916.74
693.956	3978.18
694.146	3726.28
694.335	3742.66
694.524	3789.77
694.713	3861.45
694.902	3822.53
695.092	3824.58
695.281	3847.11
695.47	3738.57
695.659	3744.71
695.848	3740.61
696.037	3767.24
696.226	3748.81
696.415	3783.62
696.604	3898.31
696.793	3787.72
696.982	3746.76
697.171	3732.42
697.36	3896.26
697.549	3646.41
697.738	3795.91
697.927	3630.02
698.116	3730.38
698.305	3693.51
698.494	3771.33
698.683	3853.25
698.872	3779.53
699.061	3630.02
699.25	3625.93
699.438	3646.41
699.627	3681.22
699.816	3662.79
700.005	3781.57
700.193	3662.79
700.382	3670.98
700.571	3644.36
700.76	3544.01
700.948	3593.16
701.137	3548.11
701.326	3570.63
701.514	3584.97
701.703	3728.33
701.892	3597.26
702.08	3632.07
702.269	3609.54
702.457	3554.25
702.646	3482.57
702.834	3668.94
703.023	3443.66
703.212	3552.2
703.4	3640.26
703.589	3474.38
703.777	3458
703.965	3476.43
704.154	3513.29
704.342	3494.86
704.531	3417.04
704.719	3316.69
704.907	3443.66
705.096	3445.71
705.284	3400.65
705.472	3466.19
705.661	3376.08
705.849	3435.47
706.037	3431.37
706.226	3410.89
706.414	3384.27
706.602	3349.45
706.79	3380.17
706.979	3310.54
707.167	3302.35
707.355	3230.67
707.543	3324.88
707.731	3449.8
707.919	3335.12
708.107	3341.26
708.296	3285.97
708.484	3306.45
708.672	3484.62
708.86	3419.08
709.048	3359.69
709.236	3283.92
709.424	3216.33
709.612	3042.26
709.8	3304.4
709.988	3156.94
710.176	3150.8
710.364	3142.61
710.551	3122.13
710.739	3154.9
710.927	3374.03
711.115	3089.36
711.303	3187.66
711.491	3146.7
711.679	3138.51
711.866	3118.03
712.054	3105.74
712.242	3136.46
712.43	3072.98
712.617	3187.66
712.805	3101.65
712.993	3015.63
713.181	2976.72
713.368	2900.95
713.556	3103.7
713.744	2939.86
713.931	3085.26
714.119	3064.79
714.306	3048.4
714.494	2905.04
714.682	3048.4
714.869	2984.91
715.057	3060.69
715.244	2962.39
715.432	2919.38
715.619	2921.43
715.807	2794.45
715.994	2886.61
716.182	2907.09
716.369	3046.35
716.556	2913.24
716.744	2888.66
716.931	2966.48
717.119	2864.08
717.306	2831.32
717.493	2788.31
717.681	2814.93
717.868	2880.47
718.055	2853.84
718.242	2782.17
718.43	2878.42
718.617	2931.67
718.804	2806.74
718.991	2796.5
719.179	2782.17
719.366	2753.49
719.553	2778.07
719.74	2616.28
719.927	2872.28
720.114	2716.63
720.301	2696.15
720.488	2679.77
720.676	2577.37
720.863	2644.95
721.05	2749.4
721.237	2651.1
721.424	2655.19
721.611	2608.09
721.798	2704.34
721.985	2585.56
722.172	2649.05
722.358	2595.8
722.545	2661.34
722.732	2659.29
722.919	2628.57
723.106	2483.16
723.293	2685.91
723.48	2460.63
723.667	2626.52
723.853	2532.31
724.04	2597.85
724.227	2468.83
724.414	2554.84
724.6	2474.97
724.787	2538.46
724.974	2548.7
725.161	2489.31
725.347	2522.07
725.534	2429.91
725.72	2458.59
725.907	2581.46
726.094	2548.7
726.28	2452.44
726.467	2483.16
726.653	2391
726.84	2296.8
727.027	2456.54
727.213	2360.28
727.4	2532.31
727.586	2413.53
727.773	2339.8
727.959	2395.1
728.145	2407.39
728.332	2298.84
728.518	2360.28
728.705	2386.91
728.891	2450.39
729.077	2378.72
729.264	2284.51
729.45	2317.28
729.636	2401.24
729.823	2286.56
730.009	2431.96
730.195	2302.94
730.382	2434.01
730.568	2268.13
730.754	2354.14
730.94	2337.76
731.126	2311.13
731.313	2280.41
731.499	2225.12
731.685	2294.75
731.871	2280.41
732.057	2237.41
732.243	2294.75
732.429	2304.99
732.615	2239.45
732.801	2096.1
732.987	2053.09
733.173	2284.51
733.359	2184.16
733.545	2302.94
733.731	2081.76
733.917	2178.01
734.103	2130.91
734.289	2175.97
734.475	2130.91
734.661	2139.1
734.847	2104.29
735.033	2243.55
735.219	2241.5
735.404	2128.86
735.59	2284.51
735.776	2237.41
735.962	2122.72
736.148	2028.51
736.333	2155.49
736.519	2161.63
736.705	2061.28
736.89	2075.62
737.076	2092
737.262	2071.52
737.447	2024.42
737.633	2167.77
737.819	2028.51
738.004	2147.3
738.19	1952.74
738.375	2040.8
738.561	2094.05
738.747	2024.42
738.932	1930.21
739.118	2016.23
739.303	2012.13
739.489	2057.18
739.674	1907.68
739.859	1991.65
740.045	1948.64
740.23	1954.79
740.416	1958.88
740.601	2046.94
740.786	1934.31
740.972	2005.99
741.157	1960.93
741.342	1836
741.528	1950.69
741.713	1919.97
741.898	1930.21
742.084	1950.69
742.269	1868.77
742.454	1946.59
742.639	1913.83
742.824	1790.95
743.01	1786.85
743.195	1874.92
743.38	1852.39
743.565	1698.79
743.75	1831.91
743.935	1854.44
744.12	1860.58
744.305	1811.43
744.49	1696.74
744.675	1831.91
744.86	1743.85
745.045	1836
745.23	1866.72
745.415	1793
745.6	1776.61
745.785	1696.74
745.97	1741.8
746.155	1788.9
746.34	1639.4
746.525	1715.17
746.71	1678.31
746.895	1627.11
747.079	1532.9
747.264	1633.26
747.449	1627.11
747.634	1631.21
747.819	1575.91
748.003	1545.19
748.188	1641.45
748.373	1569.77
748.557	1614.82
748.742	1580.01
748.927	1627.11
749.111	1580.01
749.296	1573.86
749.481	1520.62
749.665	1463.27
749.85	1430.51
750.034	1516.52
750.219	1450.99
750.404	1450.99
750.588	1491.95
750.773	1410.03
750.957	1471.47
751.141	1387.5
751.326	1434.6
751.51	1364.97
751.695	1283.05
751.879	1461.23
752.064	1450.99
752.248	1364.97
752.432	1272.81
752.617	1336.3
752.801	1246.19
752.985	1293.29
753.17	1426.41
753.354	1348.59
753.538	1303.53
753.722	1248.24
753.907	1299.44
754.091	1231.85
754.275	1250.28
754.459	1227.76
754.643	1248.24
754.828	1197.04
755.012	1262.57
755.196	1135.6
755.38	1227.76
755.564	1184.75
755.748	1168.37
755.932	1137.65
756.116	1100.78
756.3	1289.2
756.484	1207.28
756.668	1123.31
756.852	1104.88
757.036	1127.41
757.22	1084.4
757.404	1070.06
757.588	1096.69
757.772	1182.7
757.956	1111.02
758.14	1104.88
758.323	1074.16
758.507	1025.01
758.691	1014.77
758.875	1035.25
759.059	1012.72
759.242	1061.87
759.426	1018.86
759.61	1008.62
759.794	1010.67
759.977	1039.34
760.161	979.95
760.345	1014.77
760.528	1022.96
760.712	1037.3
760.895	998.38
761.079	1025.01
761.263	1004.53
761.446	1008.62
761.63	951.28
761.813	975.86
761.997	840.69
762.18	955.38
762.364	984.05
762.547	955.38
762.731	1010.67
762.914	932.85
763.098	830.45
763.281	941.04
763.464	871.41
763.648	879.6
763.831	883.7
764.015	949.23
764.198	908.27
764.381	996.34
764.564	883.7
764.748	824.31
764.931	943.09
765.114	881.65
765.297	848.88
765.481	801.78
765.664	959.47
765.847	852.98
766.03	881.65
766.213	816.12
766.397	844.79
766.58	838.64
766.763	809.97
766.946	873.46
767.129	900.08
767.312	711.67
767.495	836.6
767.678	797.68
767.861	744.44
768.044	906.23
768.227	863.22
768.41	773.11
768.593	877.55
768.776	801.78
768.959	783.35
769.142	906.23
769.324	783.35
769.507	771.06
769.69	760.82
769.873	766.96
770.056	836.6
770.239	803.83
770.421	812.02
770.604	683
770.787	693.24
770.97	832.5
771.152	699.38
771.335	797.68
771.518	754.68
771.7	721.91
771.883	816.12
772.066	750.58
772.248	785.4
772.431	746.48
772.613	750.58
772.796	594.93
772.978	754.68
773.161	650.23
773.343	683
773.526	676.85
773.708	693.24
773.891	648.18
774.073	642.04
774.256	642.04
774.438	668.66
774.621	631.8
774.803	656.37
774.985	674.81
775.168	656.37
775.35	656.37
775.532	707.57
775.715	652.28
775.897	633.85
776.079	617.46
776.261	578.55
776.444	654.33
776.626	609.27
776.808	687.09
776.99	508.92
777.173	580.6
777.355	617.46
777.537	594.93
777.719	560.12
777.901	639.99
778.083	519.16
778.265	533.5
778.447	629.75
778.629	553.98
778.811	508.92
778.993	596.98
779.175	650.23
779.357	560.12
779.539	568.31
779.721	484.34
779.903	556.02
780.085	472.06
780.267	500.73
780.449	531.45
780.631	513.02
780.812	510.97
780.994	580.6
781.176	535.54
781.358	449.53
781.54	480.25
781.721	523.26
781.903	517.11
782.085	500.73
782.267	437.24
782.448	435.19
782.63	459.77
782.812	496.63
782.993	543.74
783.175	547.83
783.357	431.1
783.538	515.06
783.72	410.62
783.901	386.04
784.083	381.95
784.264	347.13
784.446	433.15
784.627	383.99
784.809	402.43
784.99	375.8
785.172	402.43
785.353	447.48
785.535	377.85
785.716	412.67
785.897	400.38
786.079	392.19
786.26	437.24
786.441	375.8
786.623	437.24
786.804	367.61
786.985	359.42
787.167	396.28
787.348	406.52
787.529	320.51
787.71	449.53
787.891	371.71
788.073	351.23
788.254	316.41
788.435	336.89
788.616	324.6
788.797	238.59
788.978	316.41
789.159	306.17
789.34	373.75
789.522	361.47
789.703	316.41
789.884	392.19
790.065	324.6
790.246	414.71
790.427	371.71
790.607	332.79
790.788	336.89
790.969	267.26
791.15	318.46
791.331	316.41
791.512	349.18
791.693	293.88
791.874	386.04
792.054	394.23
792.235	293.88
792.416	300.03
792.597	398.33
792.778	316.41
792.958	332.79
793.139	273.4
793.32	257.02
793.5	293.88
793.681	310.27
793.862	338.94
794.042	281.6
794.223	330.75
794.404	293.88
794.584	267.26
794.765	271.36
794.945	275.45
795.126	283.64
795.306	293.88
795.487	302.08
795.667	230.4
795.848	287.74
796.028	209.92
796.209	259.07
796.389	265.21
796.57	248.83
796.75	236.54
796.93	265.21
797.111	236.54
797.291	293.88
797.471	218.11
797.652	216.06
797.832	302.08
798.012	263.16
798.192	248.83
798.373	226.3
798.553	211.96
798.733	261.12
798.913	236.54
799.093	144.38
799.274	191.49
799.454	265.21
799.634	324.6
799.814	183.29
799.994	193.53
800.174	162.81
800.354	277.5
800.534	220.16
800.714	265.21
800.894	263.16
801.074	101.37
801.254	220.16
801.434	236.54
801.614	187.39
801.794	209.92
801.974	609.27
802.154	195.58
802.334	265.21
802.514	259.07
802.693	236.54
802.873	185.34
803.053	261.12
803.233	250.88
803.413	201.72
803.592	160.77
803.772	187.39
803.952	193.53
804.131	220.16
804.311	224.25
804.491	211.96
804.67	166.91
804.85	238.59
805.03	154.62
805.209	173.05
805.389	130.05
805.568	191.49
805.748	183.29
805.928	203.77
806.107	195.58
806.287	205.82
806.466	160.77
806.646	273.4
806.825	158.72
807.004	214.01
807.184	224.25
807.363	195.58
807.543	179.2
807.722	240.64
807.901	166.91
808.081	228.35
808.26	140.29
808.439	130.05
808.619	140.29
808.798	162.81
808.977	146.43
809.156	162.81
809.336	226.3
809.515	148.48
809.694	252.92
809.873	101.37
810.052	189.44
810.231	214.01
810.411	226.3
810.59	160.77
810.769	136.19
810.948	162.81
811.127	214.01
811.306	197.63
811.485	128
811.664	160.77
811.843	119.81
812.022	142.33
812.201	123.9
812.38	138.24
812.559	254.97
812.737	160.77
812.916	60.42
813.095	142.33
813.274	144.38
813.453	146.43
813.632	240.64
813.811	150.53
813.989	97.28
814.168	146.43
814.347	109.57
814.526	156.67
814.704	117.76
814.883	146.43
815.062	160.77
815.24	91.13
815.419	132.09
815.598	162.81
815.776	128
815.955	117.76
816.133	109.57
816.312	146.43
816.49	181.25
816.669	121.85
816.847	138.24
817.026	128
817.204	138.24
817.383	154.62
817.561	29.7
817.74	193.53
817.918	158.72
818.097	72.7
818.275	44.03
818.453	72.7
818.632	111.61
818.81	125.95
818.988	97.28
819.167	128
819.345	97.28
819.523	125.95
819.701	117.76
819.879	132.09
820.058	142.33
820.236	138.24
820.414	115.71
820.592	54.27
820.77	146.43
820.948	105.47
821.127	95.23
821.305	156.67
821.483	54.27
821.661	148.48
821.839	56.32
822.017	62.46
822.195	101.37
822.373	146.43
822.551	105.47
822.729	87.04
822.907	101.37
823.085	9.22
823.262	134.14
823.44	50.18
823.618	93.18
823.796	66.56
823.974	52.22
824.152	60.42
824.329	80.89
824.507	70.65
824.685	132.09
824.863	62.46
825.04	64.51
825.218	72.7
825.396	89.09
825.574	107.52
825.751	70.65
825.929	119.81
826.107	54.27
826.284	46.08
826.462	80.89
826.639	54.27
826.817	-21.5
826.994	91.13
827.172	95.23
827.349	148.48
827.527	138.24
827.704	101.37
827.882	76.8
828.059	158.72
828.237	80.89
828.414	115.71
828.591	15.36
828.769	87.04
828.946	111.61
829.124	82.94
829.301	148.48
829.478	17.41
829.655	3.07
829.833	56.32
830.01	44.03
830.187	95.23
830.364	70.65
830.542	144.38
830.719	117.76
830.896	146.43
831.073	91.13
831.25	91.13
831.427	105.47
831.604	78.85
831.782	76.8
831.959	87.04
832.136	97.28
832.313	152.57
832.49	91.13
832.667	91.13
832.844	64.51
833.021	164.86
833.198	84.99
833.374	66.56
833.551	56.32
833.728	41.98
833.905	113.66
834.082	89.09
834.259	72.7
834.436	105.47
834.612	41.98
834.789	46.08
834.966	136.19
835.143	-41.98
835.319	93.18
835.496	89.09
835.673	91.13
835.85	99.33
836.026	31.74
836.203	84.99
836.38	107.52
836.556	160.77
836.733	35.84
836.909	62.46
837.086	54.27
837.262	64.51
837.439	50.18
837.616	76.8
837.792	62.46
837.968	123.9
838.145	-21.5
838.321	80.89
838.498	70.65
838.674	87.04
838.851	58.37
839.027	107.52
839.203	35.84
839.38	82.94
839.556	-1.02
839.732	35.84
839.909	48.13
840.085	60.42
840.261	70.65
840.437	150.53
840.614	80.89
840.79	84.99
840.966	46.08
841.142	13.31
841.318	50.18
841.494	31.74
841.671	91.13
841.847	78.85
842.023	105.47
842.199	70.65
842.375	70.65
842.551	19.46
842.727	72.7
842.903	58.37
843.079	23.55
843.255	123.9
843.431	17.41
843.607	64.51
843.783	115.71
843.959	54.27
844.134	72.7
844.31	35.84
844.486	103.42
844.662	111.61
844.838	13.31
845.013	95.23
845.189	91.13
845.365	11.26
845.541	17.41
845.716	54.27
845.892	33.79
846.068	72.7
846.244	29.7
846.419	29.7
846.595	19.46
846.77	-1.02
846.946	48.13
847.122	87.04
847.297	80.89
847.473	44.03
847.648	46.08
847.824	78.85
847.999	27.65
848.175	105.47
848.35	93.18
848.526	89.09
848.701	52.22
848.876	68.61
849.052	15.36
849.227	48.13
849.403	66.56
849.578	41.98
849.753	68.61
849.929	54.27
850.104	33.79
850.279	82.94
850.454	-11.26
850.63	19.46
850.805	29.7
850.98	41.98
851.155	19.46
851.33	-5.12
851.505	13.31
851.681	56.32
851.856	41.98
852.031	95.23
852.206	72.7
852.381	-23.55
852.556	70.65
852.731	101.37
852.906	105.47
853.081	46.08
853.256	-13.31
853.431	-15.36
853.606	80.89
853.781	82.94
853.956	-37.89
854.131	17.41
854.305	72.7
854.48	35.84
854.655	-7.17
854.83	35.84
855.005	19.46
855.18	84.99
855.354	-58.37
855.529	130.05
855.704	99.33
855.879	25.6
856.053	-5.12
856.228	13.31
856.403	56.32
856.577	54.27
856.752	-9.22
856.926	74.75
857.101	11.26
857.276	68.61
857.45	1.02
857.625	23.55
857.799	-41.98
857.974	17.41
858.148	-13.31
858.323	35.84
858.497	-1.02
858.672	13.31
858.846	29.7
859.02	95.23
859.195	54.27
859.369	48.13
859.543	44.03
859.718	119.81
859.892	29.7
860.066	13.31
860.241	5.12
860.415	19.46
860.589	-50.18
860.763	62.46
860.938	15.36
861.112	33.79
861.286	-3.07
861.46	9.22
861.634	37.89
861.808	7.17
861.982	48.13
862.157	21.5
862.331	-19.46
862.505	-1.02
862.679	-44.03
862.853	17.41
863.027	27.65
863.201	60.42
863.375	-39.94
863.549	5.12
863.722	13.31
863.896	37.89
864.07	48.13
864.244	-35.84
864.418	41.98
864.592	-21.5
864.766	-15.36
864.939	29.7
865.113	41.98
865.287	84.99
865.461	37.89
865.634	27.65
865.808	9.22
865.982	-25.6
866.156	1.02
866.329	9.22
866.503	-1.02
866.676	54.27
866.85	7.17
867.024	-1.02
867.197	70.65
867.371	44.03
867.544	68.61
867.718	19.46
867.891	29.7
868.065	3.07
868.238	54.27
868.412	68.61
868.585	70.65
868.759	19.46
868.932	-15.36
869.105	-17.41
869.279	66.56
869.452	41.98
869.625	41.98
869.799	-11.26
869.972	62.46
870.145	-15.36
870.319	54.27
870.492	19.46
870.665	29.7
870.838	41.98
871.011	-66.56
871.185	19.46
871.358	1.02
871.531	58.37
871.704	-31.74
871.877	64.51
872.05	-52.22
872.223	23.55
872.396	74.75
872.569	23.55
872.742	-35.84
872.915	29.7
873.088	3.07
873.261	48.13
873.434	46.08
873.607	27.65
873.78	23.55
873.953	-29.7
874.126	-23.55
874.299	52.22
874.471	1.02
874.644	25.6
874.817	-23.55
874.99	111.61
875.163	56.32
875.335	-21.5
875.508	31.74
875.681	97.28
875.853	-3.07
876.026	-7.17
876.199	17.41
876.371	52.22
876.544	25.6
876.717	41.98
876.889	25.6
877.062	91.13
877.234	-9.22
877.407	-82.94
877.579	95.23
877.752	52.22
877.924	37.89
878.097	35.84
878.269	31.74
878.442	58.37
878.614	-48.13
878.786	-3.07
878.959	62.46
879.131	25.6
879.303	-3.07
879.476	41.98
879.648	17.41
879.82	103.42
879.993	7.17
880.165	3.07
880.337	17.41
880.509	13.31
880.681	29.7
880.854	48.13
881.026	35.84
881.198	44.03
881.37	15.36
881.542	23.55
881.714	27.65
881.886	17.41
882.058	-7.17
882.23	5.12
882.402	82.94
882.574	-35.84
882.746	-33.79
882.918	52.22
883.09	-35.84
883.262	15.36
883.434	-31.74
883.606	-33.79
883.778	46.08
883.95	-21.5
884.122	41.98
884.293	-9.22
884.465	29.7
884.637	58.37
884.809	-15.36
884.98	-5.12
885.152	41.98
885.324	39.94
885.496	-9.22
885.667	27.65
885.839	3.07
886.011	103.42
886.182	-7.17
886.354	60.42
886.525	48.13
886.697	76.8
886.869	-50.18
887.04	19.46
887.212	19.46
887.383	41.98
887.555	41.98
887.726	17.41
887.897	37.89
888.069	-74.75
888.24	68.61
888.412	128
888.583	46.08
888.754	72.7
888.926	52.22
889.097	60.42
889.268	-44.03
889.44	58.37
889.611	46.08
889.782	41.98
889.953	-35.84
890.125	72.7
890.296	44.03
890.467	52.22
890.638	-3.07
890.809	9.22
890.98	60.42
891.151	11.26
891.323	35.84
891.494	19.46
891.665	11.26
891.836	66.56
892.007	41.98
892.178	-27.65
892.349	11.26
892.52	21.5
892.691	39.94
892.862	46.08
893.032	-21.5
893.203	66.56
893.374	41.98
893.545	93.18
893.716	56.32
893.887	54.27
894.057	41.98
894.228	-44.03
894.399	-11.26
894.57	56.32
894.74	31.74
894.911	29.7
895.082	-52.22
895.253	-62.46
895.423	-13.31
895.594	37.89
895.764	41.98
895.935	-31.74
896.106	27.65
896.276	15.36
896.447	21.5
896.617	-7.17
896.788	64.51
896.958	33.79
897.129	107.52
897.299	23.55
897.47	82.94
897.64	33.79
897.81	-21.5
897.981	25.6
898.151	29.7
898.322	25.6
898.492	21.5
898.662	56.32
898.832	-46.08
899.003	-1.02
899.173	56.32
899.343	52.22
899.513	-13.31
