Data from USB4F104151__57__12-36-25-536.txt Node

Date: Fri Mar 14 12:36:25 EDT 2025
User: louis
Spectrometer: USB4F10415
Trigger mode: 4
Integration Time (sec): 2.000000E-2
Scans to average: 1
Electric dark correction enabled: true
Nonlinearity correction enabled: false
Boxcar width: 0
XAxis mode: Wavelengths
Number of Pixels in Spectrum: 3648
>>>>>Begin Spectral Data<<<<<
178.204	-107.86
178.424	-107.86
178.644	-107.86
178.864	-50.52
179.084	-66.9
179.304	15.02
179.524	-58.71
179.744	-21.85
179.964	19.11
180.184	23.21
180.404	25.26
180.624	62.12
180.844	10.92
181.064	-77.14
181.283	0.68
181.503	-44.37
181.723	45.74
181.943	-27.99
182.163	51.88
182.383	-7.51
182.602	70.31
182.822	70.31
183.042	37.55
183.262	51.88
183.482	55.98
183.701	-19.8
183.921	0.68
184.141	43.69
184.361	68.27
184.58	0.68
184.8	92.84
185.02	19.11
185.239	-23.89
185.459	45.74
185.679	39.59
185.898	-23.89
186.118	31.4
186.338	-3.41
186.557	84.65
186.777	8.87
186.997	21.16
187.216	-36.18
187.436	115.37
187.655	33.45
187.875	-7.51
188.095	31.4
188.314	74.41
188.534	15.02
188.753	49.83
188.973	45.74
189.192	-7.51
189.412	98.99
189.631	21.16
189.851	74.41
190.07	115.37
190.29	-25.94
190.509	60.07
190.729	86.7
190.948	29.35
191.168	150.18
191.387	6.83
191.607	39.59
191.826	-19.8
192.045	-32.08
192.265	-25.94
192.484	103.08
192.704	94.89
192.923	2.73
193.142	70.31
193.362	68.27
193.581	64.17
193.8	107.18
194.02	80.55
194.239	90.79
194.458	-27.99
194.678	-27.99
194.897	27.31
195.116	-32.08
195.335	-3.41
195.555	10.92
195.774	70.31
195.993	31.4
196.212	62.12
196.432	15.02
196.651	39.59
196.87	58.03
197.089	78.51
197.308	64.17
197.528	33.45
197.747	-36.18
197.966	29.35
198.185	-1.37
198.404	60.07
198.623	70.31
198.842	60.07
199.062	119.46
199.281	35.5
199.5	-7.51
199.719	8.87
199.938	86.7
200.157	49.83
200.376	21.16
200.595	64.17
200.814	62.12
201.033	8.87
201.252	70.31
201.471	23.21
201.69	68.27
201.909	88.75
202.128	64.17
202.347	-17.75
202.566	-36.18
202.785	-5.46
203.004	0.68
203.223	49.83
203.442	64.17
203.661	31.4
203.879	8.87
204.098	-36.18
204.317	-21.85
204.536	31.4
204.755	-46.42
204.974	119.46
205.193	68.27
205.411	98.99
205.63	21.16
205.849	-30.04
206.068	37.55
206.287	58.03
206.505	41.64
206.724	27.31
206.943	17.07
207.162	25.26
207.381	23.21
207.599	47.79
207.818	10.92
208.037	12.97
208.255	-13.65
208.474	43.69
208.693	-36.18
208.911	43.69
209.13	31.4
209.349	60.07
209.567	68.27
209.786	37.55
210.005	80.55
210.223	80.55
210.442	45.74
210.661	-15.7
210.879	-15.7
211.098	29.35
211.316	17.07
211.535	37.55
211.753	51.88
211.972	62.12
212.191	-5.46
212.409	101.03
212.628	84.65
212.846	62.12
213.065	12.97
213.283	101.03
213.502	43.69
213.72	31.4
213.938	-7.51
214.157	82.6
214.375	68.27
214.594	21.16
214.812	66.22
215.031	-7.51
215.249	64.17
215.467	84.65
215.686	45.74
215.904	45.74
216.122	72.36
216.341	35.5
216.559	53.93
216.778	27.31
216.996	2.73
217.214	55.98
217.432	60.07
217.651	115.37
217.869	45.74
218.087	33.45
218.306	-11.61
218.524	29.35
218.742	-1.37
218.96	55.98
219.179	25.26
219.397	64.17
219.615	117.42
219.833	45.74
220.051	72.36
220.27	60.07
220.488	29.35
220.706	74.41
220.924	19.11
221.142	-56.66
221.36	23.21
221.578	103.08
221.796	107.18
222.015	39.59
222.233	-17.75
222.451	86.7
222.669	35.5
222.887	6.83
223.105	21.16
223.323	-15.7
223.541	-21.85
223.759	41.64
223.977	25.26
224.195	70.31
224.413	51.88
224.631	66.22
224.849	74.41
225.067	60.07
225.285	76.46
225.503	23.21
225.721	0.68
225.939	39.59
226.157	-17.75
226.375	53.93
226.592	47.79
226.81	-46.42
227.028	41.64
227.246	119.46
227.464	92.84
227.682	60.07
227.9	107.18
228.117	15.02
228.335	15.02
228.553	17.07
228.771	84.65
228.989	-7.51
229.206	45.74
229.424	21.16
229.642	76.46
229.86	-17.75
230.077	27.31
230.295	90.79
230.513	27.31
230.731	37.55
230.948	-1.37
231.166	74.41
231.384	-40.28
231.601	58.03
231.819	113.32
232.037	-58.71
232.254	41.64
232.472	66.22
232.689	15.02
232.907	55.98
233.125	21.16
233.342	119.46
233.56	41.64
233.777	51.88
233.995	31.4
234.213	105.13
234.43	53.93
234.648	21.16
234.865	-34.13
235.083	86.7
235.3	43.69
235.518	119.46
235.735	76.46
235.953	96.94
236.17	94.89
236.388	66.22
236.605	62.12
236.822	15.02
237.04	150.18
237.257	33.45
237.475	-15.7
237.692	86.7
237.909	-38.23
238.127	23.21
238.344	-44.37
238.562	70.31
238.779	55.98
238.996	58.03
239.214	-21.85
239.431	119.46
239.648	29.35
239.865	41.64
240.083	12.97
240.3	27.31
240.517	0.68
240.735	41.64
240.952	53.93
241.169	33.45
241.386	111.27
241.603	31.4
241.821	-7.51
242.038	51.88
242.255	47.79
242.472	6.83
242.689	33.45
242.907	35.5
243.124	68.27
243.341	111.27
243.558	-5.46
243.775	33.45
243.992	10.92
244.209	84.65
244.426	10.92
244.643	43.69
244.86	23.21
245.078	37.55
245.295	90.79
245.512	10.92
245.729	41.64
245.946	41.64
246.163	90.79
246.38	60.07
246.597	-1.37
246.814	154.28
247.031	29.35
247.248	111.27
247.464	23.21
247.681	131.75
247.898	45.74
248.115	29.35
248.332	-30.04
248.549	58.03
248.766	62.12
248.983	45.74
249.2	35.5
249.417	43.69
249.633	55.98
249.85	66.22
250.067	39.59
250.284	86.7
250.501	105.13
250.717	15.02
250.934	25.26
251.151	33.45
251.368	45.74
251.585	82.6
251.801	72.36
252.018	47.79
252.235	119.46
252.451	90.79
252.668	49.83
252.885	80.55
253.102	58.03
253.318	23.21
253.535	17.07
253.752	78.51
253.968	-23.89
254.185	60.07
254.401	107.18
254.618	84.65
254.835	-1.37
255.051	27.31
255.268	17.07
255.484	29.35
255.701	10.92
255.917	58.03
256.134	12.97
256.351	41.64
256.567	27.31
256.784	133.8
257	-9.56
257.217	41.64
257.433	111.27
257.65	101.03
257.866	66.22
258.082	21.16
258.299	80.55
258.515	64.17
258.732	51.88
258.948	53.93
259.165	76.46
259.381	78.51
259.597	35.5
259.814	49.83
260.03	78.51
260.246	76.46
260.463	55.98
260.679	94.89
260.895	45.74
261.112	101.03
261.328	-7.51
261.544	6.83
261.761	80.55
261.977	101.03
262.193	6.83
262.409	43.69
262.626	31.4
262.842	74.41
263.058	-17.75
263.274	41.64
263.49	21.16
263.707	90.79
263.923	19.11
264.139	70.31
264.355	41.64
264.571	72.36
264.787	47.79
265.004	105.13
265.22	15.02
265.436	86.7
265.652	68.27
265.868	51.88
266.084	80.55
266.3	29.35
266.516	2.73
266.732	86.7
266.948	51.88
267.164	64.17
267.38	90.79
267.596	62.12
267.812	92.84
268.028	66.22
268.244	94.89
268.46	-11.61
268.676	66.22
268.892	45.74
269.108	-5.46
269.324	-15.7
269.54	12.97
269.756	51.88
269.972	39.59
270.188	29.35
270.403	-27.99
270.619	70.31
270.835	70.31
271.051	17.07
271.267	98.99
271.483	58.03
271.698	64.17
271.914	-7.51
272.13	82.6
272.346	43.69
272.562	-19.8
272.777	133.8
272.993	53.93
273.209	76.46
273.425	78.51
273.64	39.59
273.856	29.35
274.072	29.35
274.287	-5.46
274.503	-42.32
274.719	58.03
274.934	-23.89
275.15	117.42
275.366	29.35
275.581	72.36
275.797	37.55
276.012	39.59
276.228	49.83
276.444	51.88
276.659	15.02
276.875	-7.51
277.09	64.17
277.306	53.93
277.521	17.07
277.737	12.97
277.952	74.41
278.168	33.45
278.383	94.89
278.599	35.5
278.814	123.56
279.03	-36.18
279.245	78.51
279.461	76.46
279.676	35.5
279.892	49.83
280.107	-17.75
280.322	27.31
280.538	82.6
280.753	17.07
280.969	47.79
281.184	10.92
281.399	10.92
281.615	35.5
281.83	60.07
282.045	49.83
282.26	88.75
282.476	60.07
282.691	39.59
282.906	53.93
283.122	123.56
283.337	-40.28
283.552	123.56
283.767	25.26
283.983	68.27
284.198	29.35
284.413	45.74
284.628	88.75
284.843	39.59
285.058	-11.61
285.274	60.07
285.489	51.88
285.704	-17.75
285.919	101.03
286.134	10.92
286.349	2.73
286.564	86.7
286.779	90.79
286.995	123.56
287.21	-5.46
287.425	117.42
287.64	78.51
287.855	33.45
288.07	19.11
288.285	78.51
288.5	41.64
288.715	6.83
288.93	17.07
289.145	47.79
289.36	47.79
289.575	53.93
289.79	103.08
290.004	53.93
290.219	10.92
290.434	8.87
290.649	60.07
290.864	105.13
291.079	43.69
291.294	146.09
291.509	19.11
291.724	35.5
291.938	21.16
292.153	76.46
292.368	35.5
292.583	78.51
292.798	74.41
293.012	82.6
293.227	64.17
293.442	10.92
293.657	49.83
293.871	119.46
294.086	33.45
294.301	94.89
294.516	21.16
294.73	35.5
294.945	-3.41
295.16	19.11
295.374	33.45
295.589	88.75
295.804	96.94
296.018	19.11
296.233	58.03
296.447	8.87
296.662	-23.89
296.877	76.46
297.091	78.51
297.306	-1.37
297.52	94.89
297.735	58.03
297.949	82.6
298.164	88.75
298.378	64.17
298.593	-40.28
298.807	41.64
299.022	152.23
299.236	78.51
299.451	-5.46
299.665	29.35
299.88	6.83
300.094	41.64
300.309	62.12
300.523	80.55
300.737	185
300.952	41.64
301.166	68.27
301.381	21.16
301.595	-21.85
301.809	19.11
302.024	-9.56
302.238	-17.75
302.452	66.22
302.667	58.03
302.881	90.79
303.095	131.75
303.309	60.07
303.524	-13.65
303.738	125.61
303.952	86.7
304.166	98.99
304.381	-7.51
304.595	27.31
304.809	-9.56
305.023	10.92
305.237	80.55
305.452	84.65
305.666	51.88
305.88	29.35
306.094	68.27
306.308	137.9
306.522	19.11
306.736	41.64
306.95	-5.46
307.164	45.74
307.379	78.51
307.593	47.79
307.807	92.84
308.021	80.55
308.235	39.59
308.449	6.83
308.663	37.55
308.877	84.65
309.091	84.65
309.305	66.22
309.519	35.5
309.733	33.45
309.947	119.46
310.161	29.35
310.374	119.46
310.588	78.51
310.802	-5.46
311.016	90.79
311.23	35.5
311.444	23.21
311.658	70.31
311.872	55.98
312.085	19.11
312.299	174.76
312.513	94.89
312.727	2.73
312.941	29.35
313.154	68.27
313.368	35.5
313.582	62.12
313.796	90.79
314.009	31.4
314.223	68.27
314.437	64.17
314.651	51.88
314.864	43.69
315.078	-9.56
315.292	64.17
315.505	39.59
315.719	21.16
315.933	41.64
316.146	12.97
316.36	51.88
316.573	78.51
316.787	82.6
317.001	88.75
317.214	51.88
317.428	66.22
317.641	58.03
317.855	43.69
318.068	45.74
318.282	31.4
318.495	43.69
318.709	62.12
318.922	135.85
319.136	66.22
319.349	51.88
319.563	35.5
319.776	76.46
319.99	0.68
320.203	55.98
320.417	68.27
320.63	64.17
320.843	68.27
321.057	0.68
321.27	82.6
321.483	25.26
321.697	98.99
321.91	119.46
322.124	141.99
322.337	96.94
322.55	43.69
322.763	53.93
322.977	96.94
323.19	39.59
323.403	47.79
323.617	-56.66
323.83	60.07
324.043	-40.28
324.256	111.27
324.469	-27.99
324.683	82.6
324.896	33.45
325.109	23.21
325.322	15.02
325.535	105.13
325.748	12.97
325.962	33.45
326.175	47.79
326.388	86.7
326.601	80.55
326.814	90.79
327.027	107.18
327.24	12.97
327.453	15.02
327.666	0.68
327.879	33.45
328.092	27.31
328.305	49.83
328.518	139.94
328.731	-3.41
328.944	19.11
329.157	105.13
329.37	4.78
329.583	60.07
329.796	109.22
330.009	21.16
330.222	197.29
330.435	66.22
330.648	60.07
330.861	82.6
331.073	62.12
331.286	-25.94
331.499	70.31
331.712	121.51
331.925	-3.41
332.138	74.41
332.35	92.84
332.563	-3.41
332.776	70.31
332.989	23.21
333.202	2.73
333.414	148.14
333.627	19.11
333.84	43.69
334.053	55.98
334.265	74.41
334.478	82.6
334.691	45.74
334.903	21.16
335.116	41.64
335.329	84.65
335.541	78.51
335.754	115.37
335.966	76.46
336.179	29.35
336.392	19.11
336.604	35.5
336.817	117.42
337.029	101.03
337.242	39.59
337.454	33.45
337.667	113.32
337.88	62.12
338.092	41.64
338.305	64.17
338.517	-9.56
338.729	88.75
338.942	101.03
339.154	-13.65
339.367	-15.7
339.579	107.18
339.792	43.69
340.004	109.22
340.217	64.17
340.429	123.56
340.641	21.16
340.854	4.78
341.066	21.16
341.278	68.27
341.491	127.66
341.703	51.88
341.915	-23.89
342.128	113.32
342.34	33.45
342.552	39.59
342.764	47.79
342.977	19.11
343.189	47.79
343.401	10.92
343.613	17.07
343.826	8.87
344.038	51.88
344.25	47.79
344.462	25.26
344.674	27.31
344.886	-9.56
345.099	98.99
345.311	19.11
345.523	94.89
345.735	70.31
345.947	62.12
346.159	82.6
346.371	103.08
346.583	2.73
346.795	119.46
347.007	105.13
347.219	74.41
347.431	55.98
347.643	107.18
347.855	33.45
348.067	70.31
348.279	58.03
348.491	31.4
348.703	76.46
348.915	-1.37
349.127	10.92
349.339	-19.8
349.551	68.27
349.763	37.55
349.975	47.79
350.187	121.51
350.399	127.66
350.61	37.55
350.822	33.45
351.034	68.27
351.246	15.02
351.458	133.8
351.669	55.98
351.881	72.36
352.093	27.31
352.305	53.93
352.517	19.11
352.728	96.94
352.94	47.79
353.152	-46.42
353.363	33.45
353.575	66.22
353.787	115.37
353.999	76.46
354.21	86.7
354.422	62.12
354.633	27.31
354.845	84.65
355.057	19.11
355.268	72.36
355.48	-7.51
355.692	78.51
355.903	25.26
356.115	86.7
356.326	2.73
356.538	139.94
356.749	55.98
356.961	78.51
357.172	60.07
357.384	33.45
357.595	107.18
357.807	47.79
358.018	41.64
358.23	21.16
358.441	162.47
358.653	84.65
358.864	82.6
359.075	27.31
359.287	23.21
359.498	51.88
359.709	25.26
359.921	98.99
360.132	39.59
360.344	111.27
360.555	76.46
360.766	98.99
360.977	76.46
361.189	90.79
361.4	33.45
361.611	35.5
361.823	62.12
362.034	68.27
362.245	-3.41
362.456	64.17
362.667	84.65
362.879	25.26
363.09	60.07
363.301	107.18
363.512	125.61
363.723	70.31
363.935	70.31
364.146	70.31
364.357	25.26
364.568	86.7
364.779	-9.56
364.99	68.27
365.201	39.59
365.412	53.93
365.623	90.79
365.834	68.27
366.045	51.88
366.256	49.83
366.467	43.69
366.678	90.79
366.889	135.85
367.1	96.94
367.311	117.42
367.522	41.64
367.733	82.6
367.944	37.55
368.155	35.5
368.366	25.26
368.577	105.13
368.788	94.89
368.999	90.79
369.209	109.22
369.42	144.04
369.631	84.65
369.842	92.84
370.053	88.75
370.264	4.78
370.474	33.45
370.685	55.98
370.896	98.99
371.107	43.69
371.317	82.6
371.528	72.36
371.739	35.5
371.95	117.42
372.16	45.74
372.371	47.79
372.582	82.6
372.792	51.88
373.003	62.12
373.214	21.16
373.424	43.69
373.635	76.46
373.846	55.98
374.056	107.18
374.267	176.81
374.477	62.12
374.688	82.6
374.898	98.99
375.109	35.5
375.319	47.79
375.53	90.79
375.74	121.51
375.951	8.87
376.161	115.37
376.372	80.55
376.582	47.79
376.793	68.27
377.003	51.88
377.214	84.65
377.424	144.04
377.635	131.75
377.845	103.08
378.055	94.89
378.266	98.99
378.476	72.36
378.686	129.7
378.897	92.84
379.107	129.7
379.317	64.17
379.528	19.11
379.738	152.23
379.948	41.64
380.158	12.97
380.369	94.89
380.579	10.92
380.789	31.4
380.999	47.79
381.21	96.94
381.42	82.6
381.63	90.79
381.84	58.03
382.05	113.32
382.261	74.41
382.471	82.6
382.681	64.17
382.891	133.8
383.101	53.93
383.311	78.51
383.521	78.51
383.731	21.16
383.941	152.23
384.151	90.79
384.361	70.31
384.571	103.08
384.781	74.41
384.991	168.62
385.201	144.04
385.411	74.41
385.621	82.6
385.831	-13.65
386.041	64.17
386.251	141.99
386.461	55.98
386.671	105.13
386.881	123.56
387.091	27.31
387.301	39.59
387.511	125.61
387.72	98.99
387.93	172.71
388.14	76.46
388.35	158.38
388.56	158.38
388.769	148.14
388.979	123.56
389.189	41.64
389.399	101.03
389.609	64.17
389.818	117.42
390.028	146.09
390.238	84.65
390.447	21.16
390.657	84.65
390.867	60.07
391.076	68.27
391.286	58.03
391.496	49.83
391.705	92.84
391.915	47.79
392.125	117.42
392.334	150.18
392.544	113.32
392.753	98.99
392.963	105.13
393.172	86.7
393.382	86.7
393.591	133.8
393.801	86.7
394.01	103.08
394.22	115.37
394.429	119.46
394.639	139.94
394.848	49.83
395.058	133.8
395.267	141.99
395.477	137.9
395.686	105.13
395.895	162.47
396.105	176.81
396.314	168.62
396.524	137.9
396.733	133.8
396.942	158.38
397.152	154.28
397.361	133.8
397.57	178.86
397.78	180.9
397.989	94.89
398.198	197.29
398.407	162.47
398.617	150.18
398.826	154.28
399.035	238.25
399.244	80.55
399.453	125.61
399.663	115.37
399.872	148.14
400.081	146.09
400.29	150.18
400.499	238.25
400.708	199.34
400.917	139.94
401.127	139.94
401.336	170.66
401.545	236.2
401.754	189.1
401.963	228.01
402.172	217.77
402.381	189.1
402.59	193.19
402.799	176.81
403.008	123.56
403.217	195.24
403.426	170.66
403.635	137.9
403.844	195.24
404.053	187.05
404.262	234.15
404.471	203.43
404.68	248.49
404.888	230.06
405.097	221.86
405.306	219.82
405.515	193.19
405.724	324.26
405.933	217.77
406.142	252.58
406.35	277.16
406.559	279.21
406.768	258.73
406.977	344.74
407.185	314.02
407.394	320.17
407.603	318.12
407.812	340.65
408.02	332.45
408.229	340.65
408.438	309.93
408.646	397.99
408.855	371.36
409.064	330.41
409.272	400.04
409.481	432.8
409.69	449.19
409.898	428.71
410.107	420.52
410.315	430.76
410.524	490.15
410.733	461.48
410.941	484
411.15	547.49
411.358	500.39
411.567	598.69
411.775	570.02
411.984	629.41
412.192	643.74
412.401	711.33
412.609	670.37
412.818	701.09
413.026	699.04
413.234	723.62
413.443	783.01
413.651	830.11
413.86	819.87
414.068	887.45
414.276	934.56
414.485	926.36
414.693	979.61
414.901	934.56
415.11	1114.78
415.318	971.42
415.526	1022.62
415.734	1182.36
415.943	1069.72
416.151	1182.36
416.359	1329.81
416.567	1190.55
416.776	1227.42
416.984	1448.6
417.192	1358.49
417.4	1409.69
417.608	1438.36
417.817	1536.66
418.025	1569.43
418.233	1757.84
418.441	1587.86
418.649	1755.79
418.857	1866.38
419.065	1911.44
419.273	1895.05
419.481	1991.31
419.689	2144.91
419.897	2118.28
420.105	2243.21
420.313	2370.18
420.521	2198.15
420.729	2368.13
420.937	2441.86
421.145	2577.03
421.353	2720.39
421.561	2839.17
421.769	2984.57
421.977	2904.7
422.185	3076.73
422.393	3097.21
422.601	3306.1
422.809	3383.93
423.017	3539.57
423.224	3476.09
423.432	3629.68
423.64	3717.75
423.848	4053.61
424.056	3850.86
424.263	4078.19
424.471	4203.11
424.679	4293.23
424.887	4608.61
425.094	4696.67
425.302	4711.01
425.51	4909.66
425.718	5020.25
425.925	5149.28
426.133	5218.91
426.341	5526.1
426.548	5845.59
426.756	5814.87
426.964	5804.63
427.171	6308.43
427.379	6365.77
427.586	6451.78
427.794	6568.52
428.001	7010.88
428.209	7148.09
428.417	7250.49
428.624	7688.76
428.832	7641.65
429.039	7795.25
429.247	7692.85
429.454	8555.05
429.662	9085.47
429.869	8509.99
430.076	8944.16
430.284	8802.85
430.491	9124.38
430.699	9804.31
430.906	9486.87
431.114	9769.49
431.321	9937.43
431.528	10109.46
431.736	10865.16
431.943	11530.75
432.15	11098.63
432.358	11315.71
432.565	11819.51
432.772	11860.47
432.979	12487.15
433.187	12698.09
433.394	12777.96
433.601	13398.49
433.808	13636.06
434.016	13502.94
434.223	13996.5
434.43	15129.03
434.637	14682.57
434.844	15520.19
435.052	16071.09
435.259	15839.67
435.466	15743.42
435.673	15681.98
435.88	16972.2
436.087	17523.1
436.294	17605.02
436.501	17201.57
436.708	17445.28
436.915	18256.28
437.122	19188.1
437.329	19102.09
437.537	19771.77
437.743	20154.74
437.95	19988.86
438.157	20861.29
438.364	21293.41
438.571	21371.24
438.778	21711.2
438.985	23910.72
439.192	22542.67
439.399	23478.6
439.606	22954.32
439.813	24287.54
440.02	25710.88
440.227	25184.55
440.433	25141.55
440.64	25829.66
440.847	25813.28
441.054	26220.83
441.261	28000.51
441.467	27529.48
441.674	28391.67
441.881	29579.5
442.088	29012.21
442.294	28664.05
442.501	29743.33
442.708	30400.73
442.914	31670.47
443.121	32915.64
443.328	31860.93
443.534	34500.76
443.741	33523.88
443.948	32764.09
444.154	35448.97
444.361	35629.19
444.568	35205.27
444.774	35299.47
444.981	35977.35
445.187	37097.59
445.394	38350.95
445.6	37847.15
445.807	41125.94
446.013	39931.98
446.22	40220.74
446.426	42436.64
446.633	42393.64
446.839	43554.83
447.046	42223.65
447.252	44474.37
447.459	44249.1
447.665	44279.82
447.871	46360.55
448.078	48211.92
448.284	45860.85
448.491	46796.77
448.697	48578.5
448.903	49569.72
449.11	49733.56
449.316	48990.14
449.522	50141.1
449.728	51191.71
449.935	51419.03
450.141	51830.68
450.347	52514.7
450.553	51199.9
450.76	51642.26
450.966	53362.56
451.172	52912
451.378	54316.91
451.584	53354.36
451.791	54046.58
451.997	54155.12
452.203	55279.46
452.409	55238.5
452.615	54753.13
452.821	53024.64
453.027	52371.34
453.233	54683.5
453.44	52815.75
453.646	53626.74
453.852	54026.1
454.058	54611.82
454.264	52420.49
454.47	54181.74
454.676	53014.4
454.882	54919.01
455.088	49987.5
455.294	50503.59
455.5	51707.8
455.705	52064.14
455.911	50358.19
456.117	49113.02
456.323	48766.91
456.529	45836.27
456.735	47984.59
456.941	46874.59
457.147	46196.71
457.352	44736.51
457.558	44242.95
457.764	44201.99
457.97	43794.45
458.176	42676.26
458.381	42436.64
458.587	40769.6
458.793	40609.85
458.999	38527.07
459.204	41162.81
459.41	40284.23
459.616	37339.25
459.821	37199.99
460.027	37455.98
460.233	36341.89
460.438	34777.24
460.644	35225.75
460.85	33718.44
461.055	33235.12
461.261	32911.54
461.466	30619.86
461.672	29841.64
461.878	31701.19
462.083	29634.79
462.289	29114.61
462.494	28834.03
462.7	27619.59
462.905	26816.79
463.111	27715.84
463.316	28207.36
463.522	27291.91
463.727	27375.88
463.932	27519.24
464.138	27279.63
464.343	27013.39
464.549	26069.28
464.754	27511.05
464.959	26837.27
465.165	26884.37
465.37	25626.92
465.575	24781.1
465.781	26079.52
465.986	26261.79
466.191	25141.55
466.397	24922.41
466.602	23265.61
466.807	24580.4
467.012	24160.57
467.218	24187.19
467.423	23992.64
467.628	23845.18
467.833	25545
468.038	24381.75
468.244	23679.3
468.449	24549.68
468.654	23656.77
468.859	23695.68
469.064	23445.83
469.269	22348.12
469.474	23202.12
469.679	23171.4
469.885	22378.84
470.09	22937.93
470.295	22362.45
470.5	22075.74
470.705	22503.76
470.91	21465.44
471.115	21561.7
471.32	21844.32
471.525	21735.78
471.73	21508.45
471.935	20973.93
472.139	20582.77
472.344	20486.51
472.549	20820.33
472.754	20486.51
472.959	20066.68
473.164	19540.35
473.369	19208.58
473.574	19620.22
473.778	19876.22
473.983	19478.91
474.188	19622.27
474.393	18604.43
474.598	18868.62
474.802	18430.35
475.007	18323.86
475.212	18280.85
475.417	17895.83
475.621	17670.56
475.826	17725.85
476.031	17363.36
476.235	17197.48
476.44	17336.74
476.645	17156.52
476.849	17365.41
477.054	16791.98
477.259	16746.92
477.463	16615.85
477.668	16202.16
477.872	16269.75
478.077	16169.4
478.282	15587.77
478.486	15526.33
478.691	15434.18
478.895	15589.82
479.1	15501.76
479.304	15425.98
479.509	15139.27
479.713	15294.91
479.918	14940.61
480.122	14678.47
480.326	14907.85
480.531	14807.5
480.735	14686.67
480.94	14514.64
481.144	15036.87
481.348	14164.43
481.553	14408.14
481.757	14268.88
481.961	14483.92
482.166	14438.86
482.37	14442.96
482.574	14047.7
482.778	14191.06
482.983	14440.91
483.187	14152.15
483.391	14238.16
483.595	13986.26
483.8	14006.74
484.004	14135.76
484.208	14197.2
484.412	14172.63
484.616	14148.05
484.821	14385.62
485.025	13998.55
485.229	14387.66
485.433	14221.78
485.637	14092.76
485.841	14080.47
486.045	13969.88
486.249	14236.11
486.453	14072.28
486.657	14143.95
486.861	14250.45
487.065	13580.76
487.269	14057.94
487.473	13963.73
487.677	14088.66
487.881	14322.13
488.085	14117.33
488.289	14266.83
488.493	14055.89
488.697	14342.61
488.901	14309.84
489.105	14199.25
489.309	14172.63
489.512	14066.13
489.716	14451.15
489.92	14201.3
490.124	14064.08
490.328	14655.95
490.531	14475.73
490.735	14590.41
490.939	14418.38
491.143	14610.89
491.346	14657.99
491.55	14576.08
491.754	14485.97
491.958	14799.3
492.161	14791.11
492.365	14940.61
492.569	14870.98
492.772	14795.21
492.976	15157.7
493.18	15024.58
493.383	15272.39
493.587	15346.11
493.79	15542.72
493.994	15149.51
494.197	15618.49
494.401	15729.08
494.605	15886.78
494.808	15886.78
495.012	15698.36
495.215	16021.94
495.419	16087.48
495.622	15987.13
495.825	16464.3
496.029	16452.02
496.232	16429.49
496.436	16443.82
496.639	17133.99
496.843	16806.31
497.046	17320.35
497.249	17482.14
497.453	17392.03
497.656	17572.25
497.859	17770.91
498.063	17877.4
498.266	18477.46
498.469	18172.31
498.673	18366.87
498.876	18424.21
499.079	18895.24
499.282	18905.48
499.485	19257.73
499.689	19409.28
499.892	19411.33
500.095	19853.69
500.298	20232.57
500.501	20105.59
500.705	20547.95
500.908	20703.6
501.111	20996.46
501.314	21098.86
501.517	21305.7
501.72	21561.7
501.923	21633.38
502.126	21916
502.329	22255.96
502.532	22448.47
502.735	22245.72
502.938	23046.47
503.141	23054.67
503.344	23552.32
503.547	23325
503.75	23529.8
503.953	23986.49
504.156	24500.53
504.359	24496.44
504.562	24727.86
504.765	25303.34
504.968	25465.13
505.17	25704.74
505.373	26007.84
505.576	26261.79
505.779	26626.32
505.982	26458.39
506.185	27070.73
506.387	27017.49
506.59	27263.24
506.793	28289.28
506.996	27758.85
507.198	28659.96
507.401	28469.5
507.604	28881.14
507.807	29382.89
508.009	29475.05
508.212	29780.2
508.415	29894.88
508.617	30478.55
508.82	30429.4
509.022	30476.51
509.225	31086.8
509.428	31717.57
509.63	31946.95
509.833	32039.11
510.035	32336.06
510.238	32338.11
510.44	32968.88
510.643	33269.93
510.845	33906.85
511.048	33411.24
511.25	34302.11
511.453	34087.07
511.655	35745.93
511.858	35156.11
512.06	35563.66
512.262	35524.75
512.465	35721.35
512.667	36370.56
512.87	36784.25
513.072	36573.31
513.274	37585.01
513.477	37918.82
513.679	37916.78
513.881	37972.07
514.084	38928.47
514.286	38791.26
514.488	38752.35
514.69	40036.42
514.893	40042.57
515.095	39997.51
515.297	40945.72
515.499	40976.44
515.701	41019.45
515.904	41748.53
516.106	41658.42
516.308	42006.57
516.51	42450.98
516.712	42905.63
516.914	42967.07
517.116	43741.2
517.318	43925.52
517.52	43843.6
517.722	44386.31
517.925	44990.46
518.127	45213.69
518.329	45461.49
518.531	45424.63
518.733	46442.47
518.935	46786.53
519.136	46718.95
519.338	46927.84
519.54	47286.23
519.742	47732.69
519.944	47968.21
520.146	48779.2
520.348	48637.89
520.55	49262.52
520.752	49401.78
520.954	50186.16
521.155	49293.24
521.357	50687.91
521.559	50798.5
521.761	51761.04
521.963	51173.28
522.164	51167.13
522.366	51273.63
522.568	52146.06
522.77	52453.26
522.971	53364.6
523.173	52631.43
523.375	53194.62
523.576	53276.54
523.778	53350.27
523.98	54005.62
524.181	54249.33
524.383	54259.57
524.584	54568.81
524.786	54929.25
524.988	54873.96
525.189	55275.36
525.391	55439.2
525.592	56217.42
525.794	56272.72
525.995	56008.53
526.197	56143.7
526.398	56203.09
526.6	56733.51
526.801	57122.63
527.003	56923.97
527.204	56811.34
527.406	57624.38
527.607	57769.79
527.808	57919.29
528.01	57167.68
528.211	57898.81
528.412	58644.27
528.614	58113.84
528.815	58545.97
529.016	58818.35
529.218	58298.16
529.419	58758.95
529.62	58879.78
529.822	58834.73
530.023	58687.28
530.224	58832.68
530.425	58890.02
530.626	58703.66
530.828	58775.34
531.029	60233.49
531.23	59125.54
531.431	59301.67
531.632	59305.76
531.833	59748.12
532.035	59782.94
532.236	59584.29
532.437	59584.29
532.638	59461.41
532.839	59936.54
533.04	60057.37
533.241	59367.2
533.442	60301.07
533.643	59989.78
533.844	60536.59
534.045	59676.44
534.246	59631.39
534.447	60096.28
534.648	60149.52
534.849	60026.65
535.05	60004.12
535.251	60233.49
535.451	59629.34
535.652	60280.59
535.853	59645.72
536.054	60366.61
536.255	60241.68
536.456	59354.91
536.657	60686.09
536.857	60079.89
537.058	59485.98
537.259	60325.65
537.46	59979.54
537.66	59873.05
537.861	60000.02
538.062	60317.46
538.263	60102.42
538.463	59948.82
538.664	59948.82
538.865	59748.12
539.065	60557.07
539.266	59922.2
539.466	60241.68
539.667	59313.95
539.868	60268.31
540.068	60137.24
540.269	59604.77
540.469	60260.12
540.67	59733.79
540.87	59938.58
541.071	59506.46
541.271	59889.43
541.472	59698.97
541.672	59234.08
541.873	59330.34
542.073	59240.23
542.274	59860.76
542.474	59819.8
542.675	59275.04
542.875	60002.07
543.075	59635.48
543.276	59121.44
543.476	59827.99
543.676	59494.17
543.877	59887.38
544.077	59791.13
544.277	59649.82
544.478	59588.38
544.678	59891.48
544.878	59426.59
545.078	59414.3
545.279	59324.19
545.479	59234.08
545.679	59137.83
545.879	59481.89
546.079	59117.35
546.28	59496.22
546.48	58976.04
546.68	59332.39
546.88	59383.58
547.08	59402.02
547.28	58953.51
547.48	58740.52
547.68	58904.36
547.88	58814.25
548.081	59756.31
548.281	59283.23
548.481	58984.23
548.681	59768.6
548.881	59053.86
549.081	58861.35
549.28	59166.5
549.48	59105.06
549.68	58490.67
549.88	60034.84
550.08	58916.65
550.28	59367.2
550.48	59121.44
550.68	59506.46
550.88	58638.12
551.08	59025.19
551.279	59270.95
551.479	58642.22
551.679	59072.29
551.879	58910.5
552.079	59510.56
552.278	58462
552.478	58900.26
552.678	58842.92
552.878	59082.53
553.077	58820.39
553.277	58470.19
553.477	59146.02
553.676	58586.92
553.876	58873.64
554.076	58666.8
554.275	58568.49
554.475	58484.53
554.674	58812.2
554.874	58568.49
555.074	58470.19
555.273	58425.14
555.473	58758.95
555.672	58203.95
555.872	58134.32
556.071	58529.58
556.271	58418.99
556.47	58079.03
556.67	58017.59
556.869	58064.69
557.068	58568.49
557.268	57614.14
557.467	58052.4
557.667	58087.22
557.866	58021.69
558.065	57753.4
558.265	57497.41
558.464	57687.87
558.663	58316.59
558.863	57016.13
559.062	58160.95
559.261	57288.51
559.461	58140.47
559.66	56989.51
559.859	57411.39
560.058	56979.27
560.258	57669.43
560.457	56747.85
560.656	57249.6
560.855	56946.5
561.054	57415.49
561.253	57319.23
561.453	57163.59
561.652	57368.38
561.851	57067.33
562.05	56538.96
562.249	56139.6
562.448	57421.63
562.647	56641.35
562.846	56512.33
563.045	56799.05
563.244	56362.83
563.443	56909.64
563.642	56012.63
563.841	56416.08
564.04	56037.2
564.239	56491.85
564.438	55517.02
564.637	56014.68
564.836	56072.02
565.035	55740.25
565.234	55623.51
565.432	55631.71
565.631	55576.41
565.83	55476.06
566.029	55418.72
566.228	55502.68
566.427	55410.53
566.625	54327.15
566.824	54599.53
567.023	55191.39
567.222	54110.07
567.42	55275.36
567.619	54863.72
567.818	54630.25
568.016	54423.4
568.215	54824.81
568.414	54460.27
568.612	55007.08
568.811	54050.67
569.01	54538.09
569.208	53542.78
569.407	54476.65
569.605	53686.14
569.804	54083.44
570.002	53598.07
570.201	53770.1
570.4	53540.73
570.598	53319.55
570.797	53217.15
570.995	53565.31
571.193	52973.44
571.392	53456.76
571.59	52703.11
571.789	53086.08
571.987	52742.02
572.186	53198.72
572.384	52613
572.582	52674.44
572.781	52516.75
572.979	52037.52
573.177	52365.2
573.376	52250.51
573.574	51756.95
573.772	52445.07
573.971	51560.34
574.169	51838.87
574.367	51427.23
574.565	51632.02
574.763	51373.98
574.962	51480.47
575.16	51042.21
575.358	51214.24
575.556	50472.87
575.754	51261.34
575.952	50548.65
576.151	50851.75
576.349	50124.72
576.547	50208.68
576.745	50405.29
576.943	50839.46
577.141	50126.77
577.339	50288.56
577.537	49913.78
577.735	50530.22
577.933	49655.73
578.131	49964.98
578.329	49274.81
578.527	49471.42
578.725	49500.09
578.923	50010.03
579.121	49287.1
579.319	48801.73
579.516	49287.1
579.714	48924.61
579.912	48854.98
580.11	48955.33
580.308	48748.48
580.506	48494.53
580.704	47886.29
580.901	48457.67
581.099	48861.12
581.297	48512.97
581.495	47974.35
581.692	48064.46
581.89	47718.35
582.088	48308.17
582.285	47577.04
582.483	47931.34
582.681	47843.28
582.878	46976.99
583.076	46624.74
583.274	47558.61
583.471	46608.36
583.669	46993.37
583.866	46393.32
584.064	47056.86
584.262	46229.48
584.459	46667.75
584.657	46106.6
584.854	46809.06
585.052	45961.2
585.249	46043.12
585.447	45899.76
585.644	45479.92
585.841	45621.23
586.039	46182.38
586.236	45113.34
586.434	45529.08
586.631	44677.12
586.828	45488.12
587.026	44933.12
587.223	44832.77
587.42	44773.38
587.618	44761.09
587.815	44496.9
588.012	44304.39
588.21	44181.51
588.407	44417.03
588.604	43972.62
588.801	43966.48
588.999	44023.82
589.196	43780.11
589.393	43542.55
589.59	43393.04
589.787	43296.79
589.984	43577.36
590.182	42825.76
590.379	43444.24
590.576	43130.9
590.773	43048.99
590.97	42940.44
591.167	42948.64
591.364	42160.17
591.561	42571.81
591.758	41762.86
591.955	41873.45
592.152	42383.4
592.349	41699.37
592.546	41906.22
592.743	41629.74
592.94	41345.08
593.137	41459.76
593.334	41613.36
593.531	40714.3
593.727	41379.89
593.924	41467.95
594.121	40812.6
594.318	41375.8
594.515	40448.07
594.712	40896.57
594.908	40441.92
595.105	40626.24
595.302	40083.53
595.499	40527.94
595.696	40028.23
595.892	39841.87
596.089	39843.91
596.286	39972.94
596.482	39807.05
596.679	39632.97
596.876	39272.53
597.072	39178.32
597.269	39284.82
597.466	38983.77
597.662	38621.28
597.859	39028.82
598.055	38899.8
598.252	38387.81
598.448	38856.79
598.645	38297.7
598.841	38293.6
599.038	38295.65
599.234	38496.35
599.431	37605.48
599.627	38238.31
599.824	37797.99
600.02	37726.32
600.217	37601.39
600.413	37519.47
600.609	37197.94
600.806	37271.67
601.002	37396.59
601.198	37365.87
601.395	36917.37
601.591	36843.64
601.787	36548.73
601.984	36552.83
602.18	37011.57
602.376	36302.98
602.572	36100.23
602.769	36315.26
602.965	35672.2
603.161	36118.66
603.357	36077.7
603.553	36032.64
603.75	35825.8
603.946	35496.08
604.142	35795.08
604.338	35313.81
604.534	35604.62
604.73	35053.72
604.926	34963.61
605.122	35291.28
605.318	35137.68
605.514	34728.09
605.71	34637.98
605.906	34627.74
606.102	34535.58
606.298	34431.13
606.494	34404.51
606.69	34322.59
606.886	33980.58
607.082	33726.63
607.278	34205.86
607.474	33749.16
607.67	34283.68
607.866	33851.56
608.062	33874.09
608.257	33722.54
608.453	33767.59
608.649	33353.9
608.845	33413.29
609.041	33280.17
609.236	33695.91
609.432	33327.28
609.628	33271.98
609.824	32952.5
610.019	33159.34
610.215	32772.28
610.411	32944.31
610.606	32714.94
610.802	32989.36
610.998	32710.84
611.193	32780.47
611.389	32551.1
611.584	32567.48
611.78	32342.21
611.976	32794.81
612.171	32489.66
612.367	32530.62
612.562	32196.8
612.758	31912.13
612.953	31865.03
613.149	32202.94
613.344	32229.57
613.539	32135.36
613.735	31750.34
613.93	31805.64
614.126	31873.22
614.321	31873.22
614.517	31633.61
614.712	31629.51
614.907	31611.08
615.103	31662.28
615.298	31412.43
615.493	31588.55
615.688	31021.27
615.884	31748.29
616.079	31389.9
616.274	31506.63
616.47	31279.31
616.665	31117.52
616.86	31025.36
617.055	30935.25
617.25	31088.85
617.445	30736.6
617.641	30447.83
617.836	30539.99
618.031	30400.73
618.226	30658.77
618.421	30511.32
618.616	30476.51
618.811	30030.05
619.006	30552.28
619.201	29782.24
619.396	30150.88
619.591	29266.16
619.786	29802.72
619.981	29116.65
620.176	29810.92
620.371	28989.68
620.566	29325.55
620.761	29200.62
620.956	29227.24
621.151	29094.13
621.346	28637.43
621.541	28487.93
621.735	28877.04
621.93	28156.16
622.125	28295.42
622.32	27764.99
622.515	27961.6
622.709	27492.62
622.904	27660.55
623.099	27494.66
623.294	27349.26
623.488	26927.38
623.683	26982.67
623.878	26812.69
624.072	26972.43
624.267	26556.69
624.462	26611.99
624.656	26202.39
624.851	26165.53
625.046	25979.17
625.24	26079.52
625.435	25919.78
625.629	25762.08
625.824	25704.74
626.018	25731.36
626.213	25157.93
626.407	25260.33
626.602	24607.03
626.796	24881.46
626.991	24734
627.185	24705.33
627.38	24584.5
627.574	24643.89
627.768	24179
627.963	24299.83
628.157	23615.81
628.352	24111.42
628.546	23642.43
628.74	23906.62
628.935	23492.93
629.129	23511.36
629.323	23036.24
629.517	23171.4
629.712	22876.49
629.906	23009.61
630.1	22600.02
630.294	22878.54
630.489	22196.57
630.683	22497.62
630.877	22311.25
631.071	22032.73
631.265	22710.61
631.459	22135.13
631.653	21629.28
631.848	21690.72
632.042	21621.09
632.236	21823.84
632.43	21469.54
632.624	21244.26
632.818	21281.13
633.012	20859.24
633.206	20627.82
633.4	21201.26
633.594	20799.85
633.788	20662.64
633.982	20734.32
634.176	20396.4
634.369	20119.93
634.563	20085.11
634.757	20093.3
634.951	20324.72
635.145	19941.75
635.339	20132.22
635.533	19769.72
635.726	19698.05
635.92	19231.11
636.114	19323.27
636.308	19220.87
636.501	19513.73
636.695	19214.73
636.889	18981.26
637.083	19206.53
637.276	18997.64
637.47	18856.33
637.664	18846.09
637.857	18809.23
638.051	18680.21
638.244	18342.29
638.438	18422.16
638.632	18217.36
638.825	18391.44
639.019	17781.15
639.212	17971.61
639.406	17918.36
639.599	17865.11
639.793	17590.69
639.986	17619.36
640.18	17549.73
640.373	17410.46
640.567	17449.38
640.76	17361.31
640.954	17183.14
641.147	16849.32
641.34	16812.46
641.534	17019.3
641.727	16855.47
641.92	16732.59
642.114	16452.02
642.307	16601.52
642.5	16624.04
642.694	16132.53
642.887	16140.72
643.08	16322.99
643.273	16239.03
643.467	15892.92
643.66	15774.14
643.853	15698.36
644.046	15780.28
644.239	15704.51
644.432	15380.93
644.626	15575.48
644.819	15331.78
645.012	15344.06
645.205	15368.64
645.398	15126.98
645.591	14823.88
645.784	14913.99
645.977	14877.13
646.17	15053.25
646.363	14735.82
646.556	14395.85
646.749	14537.16
646.942	14428.62
647.135	14614.99
647.328	14539.21
647.521	14621.13
647.714	14107.09
647.907	14209.49
648.099	14246.35
648.292	14146
648.485	13855.19
648.678	13943.25
648.871	13947.35
649.064	13523.42
649.256	13631.96
649.449	13666.78
649.642	13398.49
649.835	13445.6
650.027	13410.78
650.22	13285.86
650.413	13394.4
650.605	13265.38
650.798	13091.3
650.991	12896.74
651.183	13158.88
651.376	12900.84
651.568	12960.23
651.761	12759.53
651.954	12718.57
652.146	12796.39
652.339	12706.28
652.531	12689.9
652.724	12362.22
652.916	12192.24
653.109	12358.13
653.301	12319.21
653.494	12364.27
653.686	12050.93
653.879	12286.45
654.071	12186.1
654.263	12128.75
654.456	11788.79
654.648	11821.56
654.84	11637.24
655.033	11518.46
655.225	11643.38
655.417	11723.26
655.61	11540.99
655.802	11620.86
655.994	11373.05
656.186	11459.07
656.379	11266.56
656.571	11528.7
656.763	11170.3
656.955	11170.3
657.148	10996.23
657.34	10904.07
657.532	10773
657.724	10854.92
657.916	10897.92
658.108	10799.62
658.3	10793.48
658.492	10680.84
658.684	10633.74
658.876	10488.33
659.068	10330.64
659.26	10590.73
659.452	10533.39
659.644	10238.48
659.836	10347.02
660.028	10310.16
660.22	10136.08
660.412	10199.57
660.604	10097.17
660.796	9888.28
660.988	10074.64
661.18	9976.34
661.372	9706.01
661.563	9906.71
661.755	9693.72
661.947	9787.93
662.139	9558.55
662.331	9673.24
662.522	9509.4
662.714	9613.85
662.906	9488.92
663.097	9374.24
663.289	9343.52
663.481	9253.41
663.673	9347.61
663.864	9087.52
664.056	8931.87
664.247	9189.92
664.439	8882.72
664.631	8981.03
664.822	9112.1
665.014	9064.99
665.205	8876.58
665.397	8729.13
665.588	9021.98
665.78	8747.56
665.971	8794.66
666.163	8710.69
666.354	8555.05
666.546	8454.7
666.737	8458.79
666.929	8335.92
667.12	8561.19
667.311	8526.38
667.503	8186.41
667.694	8344.11
667.885	8237.61
668.077	8331.82
668.268	8110.64
668.459	8108.59
668.651	8084.02
668.842	8055.34
669.033	7942.71
669.224	7817.78
669.416	7950.9
669.607	7965.23
669.798	7580.22
669.989	7940.66
670.18	7774.77
670.371	7752.24
670.563	7617.08
670.754	7574.07
670.945	7684.66
671.136	7580.22
671.327	7713.33
671.518	7563.83
671.709	7612.98
671.9	7479.86
672.091	7461.43
672.282	7518.78
672.473	7238.2
672.664	7381.56
672.855	7209.53
673.046	7219.77
673.237	7379.51
673.428	7088.7
673.619	7363.13
673.809	7123.52
674	7195.2
674.191	7150.14
674.382	7150.14
674.573	7131.71
674.764	6947.39
674.954	7068.22
675.145	6871.62
675.336	6814.27
675.527	7014.98
675.717	6910.53
675.908	6847.04
676.099	6814.27
676.289	6890.05
676.48	6892.1
676.671	6775.36
676.861	6842.95
677.052	6621.77
677.243	6722.12
677.433	6648.39
677.624	6814.27
677.814	6666.82
678.005	6521.42
678.195	6548.04
678.386	6566.47
678.576	6470.22
678.767	6545.99
678.957	6304.33
679.148	6597.19
679.338	6378.06
679.529	6412.87
679.719	6306.38
679.909	6246.99
680.1	6337.1
680.29	6505.03
680.481	6285.9
680.671	6296.14
680.861	6195.79
681.052	6285.9
681.242	6308.43
681.432	6206.03
681.622	6052.43
681.813	6246.99
682.003	6091.34
682.193	5937.74
682.383	6056.53
682.573	6085.2
682.764	6089.29
682.954	6140.49
683.144	5931.6
683.334	5935.7
683.524	5958.22
683.714	5890.64
683.904	5737.04
684.094	5894.74
684.284	5780.05
684.474	5995.09
684.664	5784.15
684.854	5718.61
685.044	5716.56
685.234	5716.56
685.424	5657.17
685.614	5601.88
685.804	5683.8
685.994	5583.45
686.184	5544.53
686.374	5642.84
686.564	5507.67
686.753	5554.77
686.943	5519.96
687.133	5384.79
687.323	5481.05
687.513	5433.94
687.702	5479
687.892	5327.45
688.082	5405.27
688.272	5454.42
688.461	5309.02
688.651	5300.83
688.841	5157.47
689.03	5368.41
689.22	5079.65
689.41	5141.08
689.599	5186.14
689.789	5237.34
689.979	5210.72
690.168	5253.72
690.358	5005.92
690.547	4942.43
690.737	4825.7
690.926	5030.49
691.116	4909.66
691.305	4934.24
691.495	4934.24
691.684	4846.18
691.874	4848.22
692.063	4950.62
692.252	4723.3
692.442	4903.52
692.631	4754.02
692.82	4760.16
693.01	4702.82
693.199	4721.25
693.388	4735.59
693.578	4670.05
693.767	4733.54
693.956	4627.04
694.146	4627.04
694.335	4588.13
694.524	4502.12
694.713	4659.81
694.902	4569.7
695.092	4575.84
695.281	4364.9
695.47	4569.7
695.659	4487.78
695.848	4442.73
696.037	4389.48
696.226	4311.66
696.415	4325.99
696.604	4502.12
696.793	4405.86
696.982	4196.97
697.171	4352.62
697.36	4450.92
697.549	4377.19
697.738	4313.7
697.927	4325.99
698.116	4250.22
698.305	4203.11
698.494	4180.59
698.683	4346.47
698.872	4207.21
699.061	4235.88
699.25	4059.76
699.438	4211.31
699.627	4133.48
699.816	4223.59
700.005	4053.61
700.193	4139.63
700.382	4117.1
700.571	4074.09
700.76	4018.8
700.948	4080.24
701.137	4100.72
701.326	3938.93
701.514	3879.54
701.703	4051.56
701.892	3965.55
702.08	4162.16
702.269	3902.06
702.457	3924.59
702.646	3865.2
702.834	4047.47
703.023	3967.6
703.212	4037.23
703.4	3822.19
703.589	3953.26
703.777	3846.77
703.965	3820.14
704.154	3863.15
704.342	3785.33
704.531	3953.26
704.719	3758.71
704.907	3854.96
705.096	3816.05
705.284	3760.75
705.472	3650.16
705.661	3639.92
705.849	3717.75
706.037	3770.99
706.226	3701.36
706.414	3783.28
706.602	3715.7
706.79	3699.31
706.979	3713.65
707.167	3697.27
707.355	3723.89
707.543	3818.1
707.731	3672.69
707.919	3531.38
708.107	3502.71
708.296	3701.36
708.484	3654.26
708.672	3678.83
708.86	3672.69
709.048	3568.24
709.236	3625.59
709.424	3592.82
709.612	3680.88
709.8	3426.93
709.988	3662.45
710.176	3506.81
710.364	3580.53
710.551	3426.93
710.739	3506.81
710.927	3404.41
711.115	3506.81
711.303	3410.55
711.491	3447.41
711.679	3369.59
711.866	3601.01
712.054	3369.59
712.242	3392.12
712.43	3459.7
712.617	3308.15
712.805	3426.93
712.993	3287.67
713.181	3295.86
713.368	3312.25
713.556	3324.54
713.744	3351.16
713.931	3414.65
714.119	3373.69
714.306	3474.04
714.494	3400.31
714.682	3205.75
714.869	3187.32
715.057	3318.39
715.244	3215.99
715.432	3328.63
715.619	3441.27
715.807	3259
715.994	3242.62
716.182	3164.79
716.369	3242.62
716.556	3279.48
716.744	3142.27
716.931	3295.86
717.119	3222.14
717.306	3166.84
717.493	3287.67
717.681	3228.28
717.868	3172.99
718.055	3236.47
718.242	3220.09
718.43	3205.75
718.617	3181.18
718.804	3113.6
718.991	3031.68
719.179	3164.79
719.366	3027.58
719.553	3037.82
719.74	3205.75
719.927	3011.2
720.114	3082.88
720.301	3107.45
720.488	3070.59
720.676	2984.57
720.863	3082.88
721.05	3099.26
721.237	3017.34
721.424	3089.02
721.611	3072.64
721.798	3015.29
721.985	2982.53
722.172	2978.43
722.358	2990.72
722.545	3138.17
722.732	3080.83
722.919	2937.47
723.106	2839.17
723.293	3064.44
723.48	2863.74
723.667	2904.7
723.853	2878.08
724.04	2960
724.227	2994.81
724.414	2957.95
724.6	2884.22
724.787	2937.47
724.974	2943.61
725.161	3000.96
725.347	2841.22
725.534	2884.22
725.72	2706.05
725.907	2880.13
726.094	2943.61
726.28	2910.85
726.467	2839.17
726.653	2988.67
726.84	2816.64
727.027	2900.61
727.213	2792.06
727.4	2876.03
727.586	2896.51
727.773	2812.54
727.959	2816.64
728.145	2865.79
728.332	2876.03
728.518	2744.96
728.705	2790.02
728.891	2796.16
729.077	2773.63
729.264	2792.06
729.45	2738.82
729.636	2714.24
729.823	2828.93
730.009	2812.54
730.195	2675.33
730.382	2769.54
730.568	2720.39
730.754	2638.47
730.94	2720.39
731.126	2837.12
731.313	2794.11
731.499	2656.9
731.685	2663.04
731.871	2546.31
732.057	2650.75
732.243	2695.81
732.429	2685.57
732.615	2593.41
732.801	2747.01
732.987	2564.74
733.173	2650.75
733.359	2648.71
733.545	2628.23
733.731	2710.15
733.917	2675.33
734.103	2574.98
734.289	2679.43
734.475	2538.12
734.661	2671.23
734.847	2648.71
735.033	2669.19
735.219	2519.68
735.404	2527.88
735.59	2716.29
735.776	2480.77
735.962	2534.02
736.148	2509.44
736.333	2646.66
736.519	2574.98
736.705	2624.13
736.89	2534.02
737.076	2560.64
737.262	2476.68
737.447	2615.94
737.633	2507.4
737.819	2452.1
738.004	2466.44
738.19	2366.09
738.375	2456.2
738.561	2591.36
738.747	2435.72
738.932	2505.35
739.118	2359.94
739.303	2286.22
739.489	2534.02
739.674	2329.22
739.859	2388.61
740.045	2462.34
740.23	2224.78
740.416	2427.53
740.601	2458.25
740.786	2318.98
740.972	2386.57
741.157	2380.42
741.342	2255.5
741.528	2376.33
741.713	2374.28
741.898	2241.16
742.084	2314.89
742.269	2304.65
742.454	2300.55
742.639	2306.7
742.824	2206.34
743.01	2128.52
743.195	2224.78
743.38	2275.98
743.565	2179.72
743.75	2142.86
743.935	2159.24
744.12	2235.02
744.305	2108.04
744.49	2060.94
744.675	2116.23
744.86	2132.62
745.045	2194.06
745.23	2050.7
745.415	2050.7
745.6	2087.56
745.785	2081.42
745.97	2138.76
746.155	2026.12
746.34	2067.08
746.525	2015.88
746.71	2128.52
746.895	2044.56
747.079	1956.49
747.264	1936.01
747.449	2065.04
747.634	1968.78
747.819	1968.78
748.003	1907.34
748.188	1923.73
748.373	1958.54
748.557	1979.02
748.742	1905.29
748.927	1893.01
749.111	1899.15
749.296	1960.59
749.481	1776.27
749.665	1821.33
749.85	1870.48
750.034	1815.18
750.219	1862.29
750.404	1870.48
750.588	1827.47
750.773	1766.03
750.957	1766.03
751.141	1782.42
751.326	1737.36
751.51	1749.65
751.695	1702.54
751.879	1657.49
752.064	1725.07
752.248	1751.7
752.432	1628.82
752.617	1688.21
752.801	1725.07
752.985	1602.19
753.17	1718.93
753.354	1608.34
753.538	1516.18
753.722	1614.48
753.907	1559.19
754.091	1567.38
754.275	1600.15
754.459	1591.95
754.643	1436.31
754.828	1538.71
755.012	1532.56
755.196	1487.51
755.38	1376.92
755.564	1495.7
755.748	1501.84
755.932	1487.51
756.116	1516.18
756.3	1401.49
756.484	1469.08
756.668	1456.79
756.852	1327.77
757.036	1305.24
757.22	1381.01
757.404	1278.62
757.588	1331.86
757.772	1333.91
757.956	1348.25
758.14	1428.12
758.323	1362.58
758.507	1297.05
758.691	1344.15
758.875	1241.75
759.059	1303.19
759.242	1249.94
759.426	1274.52
759.61	1321.62
759.794	1288.85
759.977	1297.05
760.161	1268.38
760.345	1233.56
760.528	1288.85
760.712	1168.02
760.895	1288.85
761.079	1249.94
761.263	1186.46
761.446	1282.71
761.63	1190.55
761.813	1102.49
761.997	1198.74
762.18	1135.26
762.364	1159.83
762.547	1200.79
762.731	1161.88
762.914	1155.74
763.098	1198.74
763.281	1079.96
763.464	1114.78
763.648	1168.02
763.831	1141.4
764.015	1075.87
764.198	1106.59
764.381	1118.87
764.564	1030.81
764.748	1118.87
764.931	1069.72
765.114	1086.11
765.297	1135.26
765.481	1012.38
765.664	1061.53
765.847	1090.2
766.03	1098.39
766.213	1102.49
766.397	1024.67
766.58	1041.05
766.763	1116.83
766.946	993.95
767.129	1039
767.312	1012.38
767.495	996
767.678	983.71
767.861	1006.24
768.044	1086.11
768.227	1012.38
768.41	998.04
768.593	967.32
768.776	1018.52
768.959	967.32
769.142	942.75
769.324	950.94
769.507	1030.81
769.69	1010.33
769.873	969.37
770.056	1010.33
770.239	901.79
770.421	979.61
770.604	895.64
770.787	969.37
770.97	955.04
771.152	862.88
771.335	860.83
771.518	973.47
771.7	989.85
771.883	946.84
772.066	965.28
772.248	852.64
772.431	934.56
772.613	838.3
772.796	901.79
772.978	883.36
773.161	856.73
773.343	844.45
773.526	768.67
773.708	848.54
773.891	797.34
774.073	727.71
774.256	864.93
774.438	895.64
774.621	768.67
774.803	842.4
774.985	819.87
775.168	850.59
775.35	854.69
775.532	832.16
775.715	817.82
775.897	705.18
776.079	764.57
776.261	748.19
776.444	770.72
776.626	711.33
776.808	776.86
776.99	817.82
777.173	807.58
777.355	750.24
777.537	789.15
777.719	789.15
777.901	774.81
778.083	686.75
778.265	664.22
778.447	690.85
778.629	709.28
778.811	740
778.993	662.18
779.175	731.81
779.357	709.28
779.539	676.51
779.721	709.28
779.903	688.8
780.085	653.98
780.267	694.94
780.449	674.46
780.631	602.79
780.812	672.42
780.994	641.7
781.176	602.79
781.358	637.6
781.54	664.22
781.721	703.14
781.903	555.68
782.085	682.66
782.267	696.99
782.448	557.73
782.63	549.54
782.812	670.37
782.993	580.26
783.175	459.43
783.357	549.54
783.538	615.07
783.72	586.4
783.901	604.83
784.083	563.87
784.264	559.78
784.446	545.44
784.627	537.25
784.809	502.43
784.99	498.34
785.172	598.69
785.353	553.63
785.535	574.11
785.716	533.15
785.897	494.24
786.079	531.11
786.26	576.16
786.441	527.01
786.623	479.91
786.804	486.05
786.985	475.81
787.167	461.48
787.348	475.81
787.529	451.24
787.71	506.53
787.891	426.66
788.073	428.71
788.254	428.71
788.435	426.66
788.616	453.28
788.797	502.43
788.978	391.84
789.159	412.32
789.34	426.66
789.522	500.39
789.703	475.81
789.884	383.65
790.065	451.24
790.246	449.19
790.427	410.28
790.607	445.09
790.788	383.65
790.969	465.57
791.15	443.04
791.331	432.8
791.512	488.1
791.693	377.51
791.874	402.08
792.054	412.32
792.235	375.46
792.416	258.73
792.597	354.98
792.778	422.56
792.958	330.41
793.139	365.22
793.32	352.93
793.5	373.41
793.681	352.93
793.862	342.69
794.042	377.51
794.223	334.5
794.404	307.88
794.584	377.51
794.765	402.08
794.945	330.41
795.126	363.17
795.306	397.99
795.487	385.7
795.667	299.69
795.848	268.97
796.028	342.69
796.209	324.26
796.389	348.84
796.57	369.32
796.75	295.59
796.93	316.07
797.111	305.83
797.291	307.88
797.471	322.21
797.652	346.79
797.832	262.82
798.012	221.86
798.192	199.34
798.373	322.21
798.553	303.78
798.733	332.45
798.913	303.78
799.093	316.07
799.274	334.5
799.454	287.4
799.634	402.08
799.814	348.84
799.994	309.93
800.174	299.69
800.354	297.64
800.534	279.21
800.714	260.77
800.894	285.35
801.074	277.16
801.254	176.81
801.434	324.26
801.614	369.32
801.794	260.77
801.974	615.07
802.154	291.49
802.334	303.78
802.514	301.73
802.693	228.01
802.873	277.16
803.053	264.87
803.233	305.83
803.413	283.3
803.592	268.97
803.772	268.97
803.952	260.77
804.131	211.62
804.311	248.49
804.491	246.44
804.67	285.35
804.85	225.96
805.03	209.58
805.209	266.92
805.389	230.06
805.568	260.77
805.748	258.73
805.928	203.43
806.107	187.05
806.287	291.49
806.466	195.24
806.646	238.25
806.825	180.9
807.004	213.67
807.184	301.73
807.363	256.68
807.543	219.82
807.722	162.47
807.901	172.71
808.081	248.49
808.26	182.95
808.439	205.48
808.619	166.57
808.798	166.57
808.977	252.58
809.156	314.02
809.336	209.58
809.515	252.58
809.694	201.38
809.873	209.58
810.052	285.35
810.231	234.15
810.411	107.18
810.59	221.86
810.769	156.33
810.948	217.77
811.127	203.43
811.306	215.72
811.485	160.42
811.664	234.15
811.843	160.42
812.022	111.27
812.201	205.48
812.38	223.91
812.559	221.86
812.737	236.2
812.916	123.56
813.095	178.86
813.274	129.7
813.453	150.18
813.632	154.28
813.811	148.14
813.989	172.71
814.168	129.7
814.347	135.85
814.526	211.62
814.704	166.57
814.883	164.52
815.062	203.43
815.24	193.19
815.419	152.23
815.598	209.58
815.776	144.04
815.955	111.27
816.133	60.07
816.312	168.62
816.49	111.27
816.669	221.86
816.847	137.9
817.026	174.76
817.204	178.86
817.383	174.76
817.561	178.86
817.74	125.61
817.918	111.27
818.097	176.81
818.275	172.71
818.453	197.29
818.632	115.37
818.81	98.99
818.988	180.9
819.167	160.42
819.345	180.9
819.523	94.89
819.701	258.73
819.879	154.28
820.058	162.47
820.236	139.94
820.414	172.71
820.592	121.51
820.77	98.99
820.948	139.94
821.127	19.11
821.305	172.71
821.483	158.38
821.661	150.18
821.839	137.9
822.017	115.37
822.195	-25.94
822.373	103.08
822.551	103.08
822.729	168.62
822.907	98.99
823.085	119.46
823.262	113.32
823.44	111.27
823.618	127.66
823.796	109.22
823.974	139.94
824.152	164.52
824.329	94.89
824.507	55.98
824.685	152.23
824.863	123.56
825.04	96.94
825.218	150.18
825.396	62.12
825.574	154.28
825.751	105.13
825.929	139.94
826.107	121.51
826.284	158.38
826.462	141.99
826.639	55.98
826.817	96.94
826.994	101.03
827.172	39.59
827.349	133.8
827.527	111.27
827.704	35.5
827.882	62.12
828.059	146.09
828.237	129.7
828.414	180.9
828.591	88.75
828.769	107.18
828.946	45.74
829.124	33.45
829.301	111.27
829.478	58.03
829.655	156.33
829.833	115.37
830.01	29.35
830.187	146.09
830.364	133.8
830.542	72.36
830.719	146.09
830.896	35.5
831.073	133.8
831.25	160.42
831.427	105.13
831.604	74.41
831.782	158.38
831.959	82.6
832.136	76.46
832.313	31.4
832.49	125.61
832.667	35.5
832.844	23.21
833.021	86.7
833.198	55.98
833.374	15.02
833.551	84.65
833.728	103.08
833.905	123.56
834.082	119.46
834.259	27.31
834.436	119.46
834.612	88.75
834.789	107.18
834.966	78.51
835.143	60.07
835.319	70.31
835.496	53.93
835.673	60.07
835.85	72.36
836.026	19.11
836.203	107.18
836.38	58.03
836.556	27.31
836.733	66.22
836.909	131.75
837.086	6.83
837.262	131.75
837.439	25.26
837.616	103.08
837.792	84.65
837.968	111.27
838.145	70.31
838.321	82.6
838.498	37.55
838.674	88.75
838.851	66.22
839.027	64.17
839.203	88.75
839.38	53.93
839.556	103.08
839.732	164.52
839.909	29.35
840.085	70.31
840.261	92.84
840.437	80.55
840.614	68.27
840.79	103.08
840.966	51.88
841.142	51.88
841.318	43.69
841.494	82.6
841.671	49.83
841.847	51.88
842.023	76.46
842.199	55.98
842.375	137.9
842.551	-3.41
842.727	115.37
842.903	123.56
843.079	19.11
843.255	41.64
843.431	105.13
843.607	90.79
843.783	109.22
843.959	64.17
844.134	64.17
844.31	70.31
844.486	15.02
844.662	76.46
844.838	33.45
845.013	62.12
845.189	74.41
845.365	109.22
845.541	35.5
845.716	37.55
845.892	53.93
846.068	33.45
846.244	72.36
846.419	92.84
846.595	105.13
846.77	27.31
846.946	60.07
847.122	39.59
847.297	4.78
847.473	92.84
847.648	58.03
847.824	53.93
847.999	90.79
848.175	150.18
848.35	84.65
848.526	72.36
848.701	103.08
848.876	74.41
849.052	29.35
849.227	39.59
849.403	66.22
849.578	39.59
849.753	107.18
849.929	137.9
850.104	-40.28
850.279	43.69
850.454	80.55
850.63	27.31
850.805	31.4
850.98	10.92
851.155	109.22
851.33	94.89
851.505	12.97
851.681	35.5
851.856	15.02
852.031	58.03
852.206	47.79
852.381	49.83
852.556	39.59
852.731	4.78
852.906	31.4
853.081	70.31
853.256	109.22
853.431	39.59
853.606	-46.42
853.781	51.88
853.956	-56.66
854.131	41.64
854.305	33.45
854.48	92.84
854.655	25.26
854.83	6.83
855.005	76.46
855.18	-3.41
855.354	17.07
855.529	68.27
855.704	125.61
855.879	21.16
856.053	66.22
856.228	10.92
856.403	6.83
856.577	68.27
856.752	27.31
856.926	60.07
857.101	33.45
857.276	31.4
857.45	-50.52
857.625	33.45
857.799	113.32
857.974	51.88
858.148	4.78
858.323	6.83
858.497	129.7
858.672	62.12
858.846	53.93
859.02	98.99
859.195	58.03
859.369	82.6
859.543	6.83
859.718	-5.46
859.892	8.87
860.066	19.11
860.241	-38.23
860.415	19.11
860.589	70.31
860.763	49.83
860.938	76.46
861.112	-1.37
861.286	66.22
861.46	88.75
861.634	-7.51
861.808	35.5
861.982	25.26
862.157	21.16
862.331	51.88
862.505	12.97
862.679	-32.08
862.853	35.5
863.027	8.87
863.201	39.59
863.375	-56.66
863.549	2.73
863.722	25.26
863.896	15.02
864.07	-58.71
864.244	43.69
864.418	19.11
864.592	68.27
864.766	0.68
864.939	135.85
865.113	76.46
865.287	2.73
865.461	-3.41
865.634	27.31
865.808	62.12
865.982	23.21
866.156	-32.08
866.329	17.07
866.503	23.21
866.676	84.65
866.85	-1.37
867.024	25.26
867.197	72.36
867.371	64.17
867.544	101.03
867.718	86.7
867.891	-7.51
868.065	41.64
868.238	-21.85
868.412	23.21
868.585	25.26
868.759	-36.18
868.932	47.79
869.105	66.22
869.279	-42.32
869.452	-3.41
869.625	62.12
869.799	15.02
869.972	17.07
870.145	43.69
870.319	12.97
870.492	60.07
870.665	2.73
870.838	21.16
871.011	66.22
871.185	23.21
871.358	25.26
871.531	8.87
871.704	-42.32
871.877	4.78
872.05	-11.61
872.223	51.88
872.396	55.98
872.569	76.46
872.742	4.78
872.915	70.31
873.088	25.26
873.261	35.5
873.434	41.64
873.607	-38.23
873.78	-19.8
873.953	29.35
874.126	98.99
874.299	17.07
874.471	-48.47
874.644	-36.18
874.817	10.92
874.99	90.79
875.163	45.74
875.335	121.51
875.508	37.55
875.681	-1.37
875.853	-3.41
876.026	0.68
876.199	33.45
876.371	121.51
876.544	-32.08
876.717	80.55
876.889	29.35
877.062	31.4
877.234	-40.28
877.407	66.22
877.579	78.51
877.752	37.55
877.924	19.11
878.097	80.55
878.269	21.16
878.442	-32.08
878.614	12.97
878.786	107.18
878.959	31.4
879.131	-66.9
879.303	-11.61
879.476	39.59
879.648	49.83
879.82	105.13
879.993	55.98
880.165	90.79
880.337	8.87
880.509	-50.52
880.681	-42.32
880.854	-5.46
881.026	-5.46
881.198	-7.51
881.37	37.55
881.542	10.92
881.714	39.59
881.886	41.64
882.058	-30.04
882.23	-15.7
882.402	21.16
882.574	-13.65
882.746	-9.56
882.918	92.84
883.09	37.55
883.262	-32.08
883.434	4.78
883.606	0.68
883.778	8.87
883.95	137.9
884.122	-40.28
884.293	60.07
884.465	-27.99
884.637	-1.37
884.809	-17.75
884.98	60.07
885.152	88.75
885.324	-7.51
885.496	12.97
885.667	39.59
885.839	-19.8
886.011	-21.85
886.182	-3.41
886.354	43.69
886.525	2.73
886.697	82.6
886.869	-38.23
887.04	6.83
887.212	47.79
887.383	6.83
887.555	19.11
887.726	-9.56
887.897	2.73
888.069	-27.99
888.24	27.31
888.412	-32.08
888.583	10.92
888.754	121.51
888.926	41.64
889.097	-3.41
889.268	0.68
889.44	-34.13
889.611	58.03
889.782	35.5
889.953	17.07
890.125	53.93
890.296	-79.19
890.467	94.89
890.638	-19.8
890.809	2.73
890.98	-32.08
891.151	47.79
891.323	-30.04
891.494	41.64
891.665	37.55
891.836	-5.46
892.007	-34.13
892.178	94.89
892.349	19.11
892.52	17.07
892.691	76.46
892.862	25.26
893.032	43.69
893.203	-36.18
893.374	86.7
893.545	31.4
893.716	33.45
893.887	-27.99
894.057	6.83
894.228	-9.56
894.399	74.41
894.57	-21.85
894.74	21.16
894.911	-27.99
895.082	-44.37
895.253	-15.7
895.423	-17.75
895.594	86.7
895.764	4.78
895.935	35.5
896.106	43.69
896.276	6.83
896.447	-17.75
896.617	15.02
896.788	2.73
896.958	35.5
897.129	35.5
897.299	51.88
897.47	125.61
897.64	74.41
897.81	-66.9
897.981	23.21
898.151	-1.37
898.322	19.11
898.492	-5.46
898.662	43.69
898.832	47.79
899.003	66.22
899.173	70.31
899.343	6.83
899.513	8.87
