Data from USB4F104151__23__12-35-26-242.txt Node

Date: Fri Mar 14 12:35:26 EDT 2025
User: louis
Spectrometer: USB4F10415
Trigger mode: 4
Integration Time (sec): 2.000000E-2
Scans to average: 1
Electric dark correction enabled: true
Nonlinearity correction enabled: false
Boxcar width: 0
XAxis mode: Wavelengths
Number of Pixels in Spectrum: 3648
>>>>>Begin Spectral Data<<<<<
178.204	-61.44
178.424	-61.44
178.644	-61.44
178.864	-65.53
179.084	-124.93
179.304	-26.62
179.524	-26.62
179.744	-12.29
179.964	47.1
180.184	-59.39
180.404	-2.05
180.624	20.48
180.844	20.48
181.064	0
181.283	26.62
181.503	6.14
181.723	6.14
181.943	-22.53
182.163	36.86
182.383	-4.1
182.602	26.62
182.822	10.24
183.042	22.53
183.262	-36.86
183.482	20.48
183.701	28.67
183.921	6.14
184.141	65.54
184.361	-4.1
184.58	110.59
184.8	12.29
185.02	69.63
185.239	71.68
185.459	2.05
185.679	69.63
185.898	-30.72
186.118	57.34
186.338	-40.96
186.557	40.96
186.777	32.77
186.997	-36.86
187.216	-14.34
187.436	118.78
187.655	38.91
187.875	65.54
188.095	-2.05
188.314	38.91
188.534	55.3
188.753	108.54
188.973	20.48
189.192	-8.19
189.412	-20.48
189.631	24.58
189.851	16.38
190.07	4.1
190.29	61.44
190.509	57.34
190.729	-47.1
190.948	34.82
191.168	79.87
191.387	92.16
191.607	-43.01
191.826	-8.19
192.045	-14.34
192.265	45.06
192.484	24.58
192.704	92.16
192.923	51.2
193.142	108.54
193.362	-6.14
193.581	18.43
193.8	26.62
194.02	88.06
194.239	26.62
194.458	79.87
194.678	6.14
194.897	-2.05
195.116	61.44
195.335	139.26
195.555	94.21
195.774	34.82
195.993	32.77
196.212	40.96
196.432	-8.19
196.651	45.06
196.87	131.07
197.089	34.82
197.308	22.53
197.528	49.15
197.747	0
197.966	-14.34
198.185	36.86
198.404	38.91
198.623	129.02
198.842	22.53
199.062	59.39
199.281	36.86
199.5	-2.05
199.719	-55.3
199.938	49.15
200.157	38.91
200.376	12.29
200.595	22.53
200.814	88.06
201.033	102.4
201.252	55.3
201.471	12.29
201.69	-6.14
201.909	-4.1
202.128	-10.24
202.347	-30.72
202.566	-47.1
202.785	53.25
203.004	86.01
203.223	73.73
203.442	83.97
203.661	34.82
203.879	-10.24
204.098	-26.62
204.317	67.58
204.536	40.96
204.755	-14.34
204.974	32.77
205.193	65.54
205.411	16.38
205.63	49.15
205.849	-8.19
206.068	14.34
206.287	24.58
206.505	10.24
206.724	-53.25
206.943	18.43
207.162	51.2
207.381	30.72
207.599	-20.48
207.818	67.58
208.037	22.53
208.255	-4.1
208.474	47.1
208.693	20.48
208.911	2.05
209.13	-8.19
209.349	-2.05
209.567	18.43
209.786	59.39
210.005	51.2
210.223	38.91
210.442	53.25
210.661	49.15
210.879	83.97
211.098	73.73
211.316	-53.25
211.535	28.67
211.753	-71.68
211.972	86.01
212.191	77.82
212.409	12.29
212.628	0
212.846	-4.1
213.065	26.62
213.283	116.73
213.502	38.91
213.72	77.82
213.938	22.53
214.157	79.87
214.375	-49.15
214.594	-14.34
214.812	71.68
215.031	14.34
215.249	14.34
215.467	14.34
215.686	53.25
215.904	28.67
216.122	59.39
216.341	26.62
216.559	20.48
216.778	43.01
216.996	20.48
217.214	75.77
217.432	-14.34
217.651	38.91
217.869	22.53
218.087	75.77
218.306	36.86
218.524	-6.14
218.742	26.62
218.96	-10.24
219.179	-14.34
219.397	-4.1
219.615	22.53
219.833	-12.29
220.051	-12.29
220.27	36.86
220.488	30.72
220.706	-18.43
220.924	18.43
221.142	8.19
221.36	-14.34
221.578	45.06
221.796	49.15
222.015	26.62
222.233	61.44
222.451	53.25
222.669	18.43
222.887	-6.14
223.105	-6.14
223.323	14.34
223.541	88.06
223.759	32.77
223.977	18.43
224.195	55.3
224.413	96.25
224.631	0
224.849	71.68
225.067	24.58
225.285	67.58
225.503	0
225.721	14.34
225.939	73.73
226.157	65.54
226.375	90.11
226.592	-67.58
226.81	104.45
227.028	-34.82
227.246	67.58
227.464	32.77
227.682	63.49
227.9	53.25
228.117	30.72
228.335	-10.24
228.553	14.34
228.771	8.19
228.989	49.15
229.206	28.67
229.424	-18.43
229.642	8.19
229.86	-38.91
230.077	22.53
230.295	55.3
230.513	30.72
230.731	47.1
230.948	-6.14
231.166	59.39
231.384	71.68
231.601	20.48
231.819	57.34
232.037	-79.87
232.254	18.43
232.472	-8.19
232.689	71.68
232.907	49.15
233.125	20.48
233.342	14.34
233.56	-4.1
233.777	40.96
233.995	6.14
234.213	53.25
234.43	-12.29
234.648	65.54
234.865	18.43
235.083	77.82
235.3	-16.38
235.518	30.72
235.735	43.01
235.953	81.92
236.17	-12.29
236.388	34.82
236.605	16.38
236.822	98.3
237.04	36.86
237.257	8.19
237.475	-28.67
237.692	57.34
237.909	16.38
238.127	40.96
238.344	79.87
238.562	16.38
238.779	-67.58
238.996	-10.24
239.214	38.91
239.431	36.86
239.648	57.34
239.865	14.34
240.083	51.2
240.3	14.34
240.517	32.77
240.735	-20.48
240.952	-30.72
241.169	59.39
241.386	2.05
241.603	26.62
241.821	-63.49
242.038	20.48
242.255	30.72
242.472	75.77
242.689	36.86
242.907	100.35
243.124	94.21
243.341	28.67
243.558	-16.38
243.775	-26.62
243.992	-2.05
244.209	63.49
244.426	36.86
244.643	67.58
244.86	88.06
245.078	-2.05
245.295	20.48
245.512	22.53
245.729	55.3
245.946	-10.24
246.163	32.77
246.38	20.48
246.597	14.34
246.814	57.34
247.031	22.53
247.248	22.53
247.464	30.72
247.681	12.29
247.898	38.91
248.115	-14.34
248.332	-4.1
248.549	71.68
248.766	49.15
248.983	18.43
249.2	18.43
249.417	51.2
249.633	14.34
249.85	24.58
250.067	20.48
250.284	57.34
250.501	22.53
250.717	73.73
250.934	34.82
251.151	36.86
251.368	20.48
251.585	36.86
251.801	34.82
252.018	-6.14
252.235	61.44
252.451	57.34
252.668	26.62
252.885	-81.92
253.102	-4.1
253.318	30.72
253.535	28.67
253.752	-4.1
253.968	-49.15
254.185	67.58
254.401	-24.58
254.618	28.67
254.835	24.58
255.051	-6.14
255.268	49.15
255.484	32.77
255.701	43.01
255.917	-6.14
256.134	86.01
256.351	-4.1
256.567	88.06
256.784	61.44
257	-30.72
257.217	145.41
257.433	51.2
257.65	32.77
257.866	18.43
258.082	-22.53
258.299	47.1
258.515	28.67
258.732	-16.38
258.948	67.58
259.165	26.62
259.381	10.24
259.597	8.19
259.814	10.24
260.03	12.29
260.246	-45.06
260.463	63.49
260.679	86.01
260.895	34.82
261.112	40.96
261.328	28.67
261.544	40.96
261.761	2.05
261.977	36.86
262.193	2.05
262.409	12.29
262.626	6.14
262.842	67.58
263.058	10.24
263.274	2.05
263.49	47.1
263.707	88.06
263.923	16.38
264.139	30.72
264.355	83.97
264.571	73.73
264.787	18.43
265.004	-2.05
265.22	73.73
265.436	36.86
265.652	-10.24
265.868	69.63
266.084	2.05
266.3	69.63
266.516	-18.43
266.732	81.92
266.948	-38.91
267.164	12.29
267.38	79.87
267.596	53.25
267.812	88.06
268.028	32.77
268.244	28.67
268.46	-8.19
268.676	43.01
268.892	114.69
269.108	-6.14
269.324	53.25
269.54	-43.01
269.756	59.39
269.972	10.24
270.188	-34.82
270.403	24.58
270.619	22.53
270.835	-8.19
271.051	8.19
271.267	-18.43
271.483	24.58
271.698	24.58
271.914	57.34
272.13	18.43
272.346	-40.96
272.562	28.67
272.777	-14.34
272.993	55.3
273.209	61.44
273.425	-73.73
273.64	98.3
273.856	-18.43
274.072	55.3
274.287	-22.53
274.503	59.39
274.719	43.01
274.934	-36.86
275.15	28.67
275.366	61.44
275.581	-28.67
275.797	71.68
276.012	20.48
276.228	40.96
276.444	18.43
276.659	83.97
276.875	22.53
277.09	69.63
277.306	59.39
277.521	69.63
277.737	94.21
277.952	47.1
278.168	16.38
278.383	12.29
278.599	-14.34
278.814	43.01
279.03	-28.67
279.245	36.86
279.461	59.39
279.676	73.73
279.892	43.01
280.107	75.77
280.322	65.54
280.538	65.54
280.753	67.58
280.969	22.53
281.184	12.29
281.399	8.19
281.615	4.1
281.83	77.82
282.045	6.14
282.26	-45.06
282.476	-10.24
282.691	43.01
282.906	32.77
283.122	65.54
283.337	53.25
283.552	40.96
283.767	49.15
283.983	36.86
284.198	55.3
284.413	55.3
284.628	30.72
284.843	88.06
285.058	-28.67
285.274	45.06
285.489	57.34
285.704	92.16
285.919	18.43
286.134	22.53
286.349	-43.01
286.564	55.3
286.779	104.45
286.995	12.29
287.21	49.15
287.425	-2.05
287.64	30.72
287.855	79.87
288.07	67.58
288.285	34.82
288.5	-18.43
288.715	-8.19
288.93	-16.38
289.145	-8.19
289.36	102.4
289.575	51.2
289.79	12.29
290.004	102.4
290.219	47.1
290.434	4.1
290.649	77.82
290.864	-16.38
291.079	77.82
291.294	-32.77
291.509	26.62
291.724	2.05
291.938	8.19
292.153	22.53
292.368	79.87
292.583	22.53
292.798	36.86
293.012	-6.14
293.227	8.19
293.442	49.15
293.657	51.2
293.871	71.68
294.086	69.63
294.301	92.16
294.516	0
294.73	67.58
294.945	20.48
295.16	110.59
295.374	14.34
295.589	-8.19
295.804	22.53
296.018	43.01
296.233	6.14
296.447	126.97
296.662	2.05
296.877	4.1
297.091	-26.62
297.306	36.86
297.52	-12.29
297.735	104.45
297.949	32.77
298.164	-4.1
298.378	92.16
298.593	-55.3
298.807	40.96
299.022	-10.24
299.236	57.34
299.451	86.01
299.665	92.16
299.88	30.72
300.094	-8.19
300.309	20.48
300.523	30.72
300.737	34.82
300.952	32.77
301.166	63.49
301.381	32.77
301.595	69.63
301.809	10.24
302.024	10.24
302.238	40.96
302.452	20.48
302.667	28.67
302.881	40.96
303.095	14.34
303.309	55.3
303.524	-14.34
303.738	20.48
303.952	26.62
304.166	65.54
304.381	-16.38
304.595	122.88
304.809	83.97
305.023	36.86
305.237	55.3
305.452	32.77
305.666	-47.1
305.88	79.87
306.094	43.01
306.308	36.86
306.522	4.1
306.736	-22.53
306.95	4.1
307.164	28.67
307.379	-20.48
307.593	88.06
307.807	63.49
308.021	34.82
308.235	86.01
308.449	20.48
308.663	-14.34
308.877	114.69
309.091	-4.1
309.305	2.05
309.519	6.14
309.733	96.25
309.947	-38.91
310.161	79.87
310.374	10.24
310.588	98.3
310.802	18.43
311.016	6.14
311.23	-14.34
311.444	61.44
311.658	-47.1
311.872	92.16
312.085	-69.63
312.299	63.49
312.513	36.86
312.727	69.63
312.941	4.1
313.154	86.01
313.368	67.58
313.582	4.1
313.796	73.73
314.009	28.67
314.223	36.86
314.437	49.15
314.651	100.35
314.864	18.43
315.078	14.34
315.292	61.44
315.505	34.82
315.719	73.73
315.933	45.06
316.146	36.86
316.36	51.2
316.573	47.1
316.787	22.53
317.001	69.63
317.214	-24.58
317.428	77.82
317.641	36.86
317.855	86.01
318.068	110.59
318.282	10.24
318.495	71.68
318.709	67.58
318.922	28.67
319.136	-4.1
319.349	98.3
319.563	20.48
319.776	133.12
319.99	-2.05
320.203	65.54
320.417	12.29
320.63	79.87
320.843	133.12
321.057	73.73
321.27	-12.29
321.483	24.58
321.697	45.06
321.91	79.87
322.124	45.06
322.337	49.15
322.55	34.82
322.763	40.96
322.977	53.25
323.19	30.72
323.403	67.58
323.617	47.1
323.83	79.87
324.043	8.19
324.256	67.58
324.469	-8.19
324.683	26.62
324.896	-2.05
325.109	92.16
325.322	8.19
325.535	20.48
325.748	14.34
325.962	6.14
326.175	32.77
326.388	22.53
326.601	22.53
326.814	38.91
327.027	51.2
327.24	55.3
327.453	-36.86
327.666	30.72
327.879	51.2
328.092	-16.38
328.305	57.34
328.518	10.24
328.731	36.86
328.944	-10.24
329.157	4.1
329.37	34.82
329.583	112.64
329.796	114.69
330.009	32.77
330.222	106.49
330.435	34.82
330.648	77.82
330.861	4.1
331.073	47.1
331.286	-34.82
331.499	-16.38
331.712	24.58
331.925	16.38
332.138	18.43
332.35	47.1
332.563	94.21
332.776	57.34
332.989	77.82
333.202	28.67
333.414	-24.58
333.627	61.44
333.84	-2.05
334.053	77.82
334.265	67.58
334.478	92.16
334.691	133.12
334.903	8.19
335.116	36.86
335.329	16.38
335.541	65.54
335.754	40.96
335.966	55.3
336.179	69.63
336.392	-8.19
336.604	-34.82
336.817	59.39
337.029	-57.34
337.242	47.1
337.454	92.16
337.667	65.54
337.88	43.01
338.092	-14.34
338.305	10.24
338.517	-6.14
338.729	47.1
338.942	18.43
339.154	51.2
339.367	-6.14
339.579	45.06
339.792	92.16
340.004	45.06
340.217	6.14
340.429	28.67
340.641	-2.05
340.854	45.06
341.066	77.82
341.278	24.58
341.491	98.3
341.703	40.96
341.915	-24.58
342.128	18.43
342.34	55.3
342.552	32.77
342.764	40.96
342.977	104.45
343.189	53.25
343.401	61.44
343.613	-34.82
343.826	-14.34
344.038	22.53
344.25	55.3
344.462	96.25
344.674	24.58
344.886	69.63
345.099	116.73
345.311	-4.1
345.523	126.97
345.735	55.3
345.947	49.15
346.159	57.34
346.371	57.34
346.583	88.06
346.795	108.54
347.007	55.3
347.219	26.62
347.431	67.58
347.643	-2.05
347.855	-18.43
348.067	63.49
348.279	14.34
348.491	-4.1
348.703	61.44
348.915	-16.38
349.127	69.63
349.339	22.53
349.551	69.63
349.763	69.63
349.975	88.06
350.187	61.44
350.399	63.49
350.61	43.01
350.822	36.86
351.034	49.15
351.246	26.62
351.458	69.63
351.669	-28.67
351.881	-10.24
352.093	55.3
352.305	51.2
352.517	-34.82
352.728	43.01
352.94	32.77
353.152	110.59
353.363	118.78
353.575	63.49
353.787	53.25
353.999	38.91
354.21	63.49
354.422	-45.06
354.633	30.72
354.845	4.1
355.057	83.97
355.268	-43.01
355.48	90.11
355.692	57.34
355.903	51.2
356.115	94.21
356.326	40.96
356.538	100.35
356.749	53.25
356.961	51.2
357.172	12.29
357.384	47.1
357.595	124.93
357.807	71.68
358.018	16.38
358.23	57.34
358.441	124.93
358.653	112.64
358.864	59.39
359.075	65.54
359.287	26.62
359.498	59.39
359.709	73.73
359.921	112.64
360.132	131.07
360.344	45.06
360.555	-20.48
360.766	49.15
360.977	63.49
361.189	141.31
361.4	77.82
361.611	47.1
361.823	53.25
362.034	18.43
362.245	92.16
362.456	77.82
362.667	16.38
362.879	96.25
363.09	22.53
363.301	28.67
363.512	49.15
363.723	88.06
363.935	61.44
364.146	86.01
364.357	28.67
364.568	20.48
364.779	4.1
364.99	38.91
365.201	67.58
365.412	18.43
365.623	-18.43
365.834	53.25
366.045	59.39
366.256	88.06
366.467	61.44
366.678	57.34
366.889	-34.82
367.1	-14.34
367.311	4.1
367.522	43.01
367.733	22.53
367.944	18.43
368.155	57.34
368.366	8.19
368.577	38.91
368.788	51.2
368.999	28.67
369.209	106.49
369.42	75.77
369.631	98.3
369.842	49.15
370.053	69.63
370.264	51.2
370.474	10.24
370.685	61.44
370.896	67.58
371.107	116.73
371.317	79.87
371.528	36.86
371.739	77.82
371.95	61.44
372.16	71.68
372.371	36.86
372.582	-63.49
372.792	45.06
373.003	88.06
373.214	61.44
373.424	-28.67
373.635	28.67
373.846	104.45
374.056	40.96
374.267	65.54
374.477	73.73
374.688	83.97
374.898	77.82
375.109	43.01
375.319	0
375.53	77.82
375.74	22.53
375.951	88.06
376.161	73.73
376.372	75.77
376.582	24.58
376.793	79.87
377.003	83.97
377.214	34.82
377.424	28.67
377.635	108.54
377.845	45.06
378.055	92.16
378.266	45.06
378.476	114.69
378.686	75.77
378.897	53.25
379.107	32.77
379.317	22.53
379.528	18.43
379.738	22.53
379.948	16.38
380.158	92.16
380.369	32.77
380.579	14.34
380.789	40.96
380.999	-4.1
381.21	83.97
381.42	81.92
381.63	79.87
381.84	65.54
382.05	32.77
382.261	137.21
382.471	38.91
382.681	-36.86
382.891	122.88
383.101	59.39
383.311	34.82
383.521	51.2
383.731	110.59
383.941	34.82
384.151	61.44
384.361	69.63
384.571	-4.1
384.781	30.72
384.991	-57.34
385.201	75.77
385.411	45.06
385.621	51.2
385.831	18.43
386.041	55.3
386.251	77.82
386.461	77.82
386.671	40.96
386.881	77.82
387.091	10.24
387.301	124.93
387.511	57.34
387.72	126.97
387.93	63.49
388.14	28.67
388.35	147.45
388.56	112.64
388.769	20.48
388.979	83.97
389.189	38.91
389.399	131.07
389.609	104.45
389.818	81.92
390.028	112.64
390.238	98.3
390.447	4.1
390.657	8.19
390.867	102.4
391.076	92.16
391.286	124.93
391.496	90.11
391.705	51.2
391.915	92.16
392.125	57.34
392.334	69.63
392.544	137.21
392.753	155.65
392.963	96.25
393.172	86.01
393.382	45.06
393.591	53.25
393.801	30.72
394.01	167.93
394.22	63.49
394.429	120.83
394.639	63.49
394.848	51.2
395.058	10.24
395.267	94.21
395.477	131.07
395.686	120.83
395.895	90.11
396.105	141.31
396.314	165.89
396.524	96.25
396.733	81.92
396.942	110.59
397.152	92.16
397.361	98.3
397.57	67.58
397.78	16.38
397.989	145.41
398.198	157.69
398.407	79.87
398.617	51.2
398.826	100.35
399.035	53.25
399.244	135.17
399.453	86.01
399.663	71.68
399.872	75.77
400.081	163.84
400.29	118.78
400.499	38.91
400.708	116.73
400.917	135.17
401.127	112.64
401.336	133.12
401.545	219.13
401.754	124.93
401.963	151.55
402.172	141.31
402.381	94.21
402.59	65.54
402.799	141.31
403.008	192.51
403.217	169.98
403.426	165.89
403.635	108.54
403.844	210.94
404.053	118.78
404.262	131.07
404.471	145.41
404.68	124.93
404.888	120.83
405.097	196.61
405.306	217.08
405.515	180.22
405.724	124.93
405.933	182.27
406.142	237.56
406.35	260.09
406.559	133.12
406.768	192.51
406.977	227.32
407.185	241.66
407.394	294.91
407.603	190.46
407.812	231.42
408.02	264.19
408.229	282.62
408.438	325.63
408.646	352.25
408.855	286.72
409.064	313.34
409.272	286.72
409.481	303.1
409.69	313.34
409.898	342.01
410.107	378.87
410.315	380.92
410.524	280.57
410.733	368.63
410.941	376.83
411.15	413.69
411.358	428.03
411.567	495.61
411.775	440.31
411.984	479.22
412.192	471.03
412.401	493.56
412.609	565.24
412.818	634.87
413.026	593.91
413.234	645.11
413.443	526.33
413.651	651.25
413.86	598.01
414.068	667.64
414.276	704.5
414.485	751.6
414.693	720.89
414.901	735.22
415.11	741.36
415.318	786.42
415.526	862.19
415.734	995.31
415.943	913.39
416.151	997.36
416.359	1021.94
416.567	1026.03
416.776	1073.14
416.984	1103.86
417.192	1073.14
417.4	1097.71
417.608	1210.35
417.817	1196.01
418.025	1329.13
418.233	1333.23
418.441	1462.25
418.649	1325.04
418.857	1515.5
419.065	1488.87
419.273	1460.2
419.481	1484.78
419.689	1634.28
419.897	1746.92
420.105	1886.18
420.313	1763.3
420.521	1916.9
420.729	1869.8
420.937	1957.86
421.145	2041.82
421.353	2148.32
421.561	2179.04
421.769	2281.44
421.977	2332.64
422.185	2338.78
422.393	2506.71
422.601	2660.31
422.809	2650.07
423.017	2562.01
423.224	2809.81
423.432	2926.55
423.64	2897.88
423.848	3198.93
424.056	3114.96
424.263	3395.53
424.471	3370.96
424.679	3381.2
424.887	3616.71
425.094	3610.57
425.302	3688.39
425.51	3811.27
425.718	3915.72
425.925	4075.46
426.133	4020.16
426.341	4292.54
426.548	4534.2
426.756	4601.79
426.964	4804.53
427.171	4927.41
427.379	5021.62
427.586	5072.82
427.794	5240.75
428.001	5535.66
428.209	5773.22
428.417	5386.16
428.624	6111.14
428.832	6031.27
429.039	6123.43
429.247	6197.15
429.454	6541.21
429.662	7055.25
429.869	6610.84
430.076	7038.87
430.284	6750.1
430.491	7112.6
430.699	7573.39
430.906	7540.62
431.114	7569.29
431.321	7997.32
431.528	7974.79
431.736	8466.3
431.943	9045.88
432.15	8537.98
432.358	8810.36
432.565	9207.67
432.772	9414.51
432.979	9770.86
433.187	10010.47
433.394	9949.03
433.601	10575.71
433.808	10618.72
434.016	10602.33
434.223	10766.17
434.43	11698
434.637	11296.6
434.844	12279.62
435.052	12369.73
435.259	12437.31
435.466	12343.11
435.673	12312.39
435.88	13020.99
436.087	13575.98
436.294	13948.72
436.501	13307.7
436.708	13657.9
436.915	14057.26
437.122	14636.83
437.329	14622.5
437.537	15171.35
437.743	15433.49
437.95	15517.46
438.157	16133.9
438.364	16561.92
438.571	16647.94
438.778	16748.29
438.985	18378.47
439.192	17547
439.399	18351.85
439.606	17776.37
439.813	18632.42
440.02	20004.56
440.227	19441.37
440.433	19416.79
440.64	19900.11
440.847	19961.55
441.054	20403.91
441.261	21612.21
441.467	21401.27
441.674	21780.15
441.881	22621.86
442.088	22578.86
442.294	22261.42
442.501	22849.19
442.708	23658.13
442.914	23889.56
443.121	25192.06
443.328	24645.26
443.534	26293.87
443.741	25595.51
443.948	25427.58
444.154	27364.96
444.361	27045.48
444.568	26961.51
444.774	27180.64
444.981	27313.76
445.187	28542.54
445.394	29756.99
445.6	29011.53
445.807	32151.06
446.013	30832.17
446.22	31270.43
446.426	32169.49
446.633	32581.13
446.839	33568.26
447.046	32288.28
447.252	34002.43
447.459	34033.14
447.665	33641.98
447.871	35450.34
448.078	36922.83
448.284	35384.8
448.491	36113.88
448.697	37709.25
448.903	38323.64
449.11	38340.02
449.316	37397.96
449.522	38307.26
449.728	39660.96
449.935	39394.73
450.141	39685.54
450.347	40547.73
450.553	39316.9
450.76	40480.15
450.966	41160.08
451.172	40799.63
451.378	41819.52
451.584	40883.6
451.791	41870.72
451.997	41450.89
452.203	42550.65
452.409	42675.57
452.615	42075.52
452.821	40660.37
453.027	40392.09
453.233	42405.24
453.44	40734.1
453.646	41375.11
453.852	41770.37
454.058	42366.33
454.264	40895.89
454.47	41405.83
454.676	40744.34
454.882	41934.21
455.088	38798.77
455.294	39046.57
455.5	39779.74
455.705	40144.28
455.911	38510
456.117	37764.54
456.323	37162.44
456.529	35495.39
456.735	36767.18
456.941	35831.26
457.147	34934.25
457.352	34067.96
457.558	33684.99
457.764	33781.24
457.97	33213.96
458.176	32747.02
458.381	32814.6
458.587	31090.21
458.793	30725.68
458.999	29236.8
459.204	31493.66
459.41	30891.56
459.616	28581.45
459.821	28520.01
460.027	28434
460.233	27823.7
460.438	26594.92
460.644	27194.98
460.85	25579.13
461.055	25054.85
461.261	25327.23
461.466	23031.46
461.672	22634.15
461.878	24151.7
462.083	22640.29
462.289	22079.15
462.494	22017.71
462.7	21132.99
462.905	20321.99
463.111	21077.69
463.316	21219
463.522	20965.06
463.727	20580.04
463.932	20512.45
464.138	20666.05
464.343	20606.66
464.549	19775.19
464.754	20633.29
464.959	20481.74
465.165	20231.88
465.37	19390.17
465.575	18726.63
465.781	19597.01
465.986	19816.15
466.191	19099.36
466.397	18493.16
466.602	17813.23
466.807	18466.53
467.012	18444.01
467.218	18206.44
467.423	18226.92
467.628	18235.11
467.833	18765.54
468.038	18271.98
468.244	17772.27
468.449	18362.09
468.654	17991.41
468.859	17723.12
469.064	17657.59
469.269	16891.65
469.474	17215.23
469.679	17565.43
469.885	17037.05
470.09	17291
470.295	17166.07
470.5	16553.73
470.705	16830.21
470.91	16449.28
471.115	16181
471.32	16434.95
471.525	16234.25
471.73	16064.27
471.935	16041.74
472.139	15748.88
472.344	15374.1
472.549	15329.05
472.754	15279.89
472.959	14769.95
473.164	14817.05
473.369	14534.43
473.574	15255.32
473.778	15009.56
473.983	14835.49
474.188	14843.68
474.393	14122.79
474.598	14225.19
474.802	13989.67
475.007	13899.56
475.212	14110.5
475.417	13324.08
475.621	13168.44
475.826	13299.51
476.031	13107
476.235	13012.79
476.44	13172.53
476.645	12795.71
476.849	12650.3
477.054	12394.31
477.259	12195.65
477.463	12377.92
477.668	12388.16
477.872	12199.75
478.077	12117.83
478.282	11874.12
478.486	11773.77
478.691	11726.67
478.895	11624.27
479.1	11425.62
479.304	11644.75
479.509	11216.72
479.713	11390.8
479.918	11104.09
480.122	11159.38
480.326	11452.24
480.531	11204.44
480.735	11038.55
480.94	10884.95
481.144	11050.84
481.348	10700.64
481.553	10966.87
481.757	10563.42
481.961	10872.67
482.166	10848.09
482.37	10782.56
482.574	10698.59
482.778	10714.97
482.983	10735.45
483.187	10786.65
483.391	10704.73
483.595	10540.9
483.8	10401.63
484.004	10602.33
484.208	10741.6
484.412	10594.14
484.616	10626.91
484.821	10727.26
485.025	10614.62
485.229	10653.53
485.433	10573.66
485.637	10792.8
485.841	10602.33
486.045	10573.66
486.249	10626.91
486.453	10538.85
486.657	10631.01
486.861	10821.47
487.065	10456.93
487.269	10487.65
487.473	10561.37
487.677	10721.12
487.881	10757.98
488.085	10631.01
488.289	10684.25
488.493	10579.81
488.697	10893.15
488.901	10598.24
489.105	10532.7
489.309	10659.68
489.512	10934.11
489.716	11011.93
489.92	10782.56
490.124	10717.02
490.328	10952.54
490.531	10772.32
490.735	10970.97
490.939	11112.28
491.143	10798.94
491.346	10983.26
491.55	11220.82
491.754	11229.01
491.958	11265.88
492.161	11284.31
492.365	11296.6
492.569	11210.58
492.772	11370.32
492.976	11267.92
493.18	11640.65
493.383	11642.7
493.587	11654.99
493.79	11536.21
493.994	11548.5
494.197	11724.62
494.401	11810.64
494.605	11822.92
494.808	11992.91
495.012	12027.72
495.215	11939.66
495.419	12099.4
495.622	12216.13
495.825	12314.44
496.029	12517.18
496.232	12570.43
496.436	12603.2
496.639	12795.71
496.843	13012.79
497.046	13102.9
497.249	13295.41
497.453	13147.96
497.656	13414.2
497.859	13391.67
498.063	13604.66
498.266	13893.42
498.469	13764.4
498.673	14008.11
498.876	13965.1
499.079	14272.29
499.282	14184.23
499.485	14556.96
499.689	14685.98
499.892	14878.49
500.095	14909.21
500.298	15208.22
500.501	15032.09
500.705	15644.43
500.908	15892.24
501.111	15994.64
501.314	16226.06
501.517	16072.46
501.72	16375.56
501.923	16328.45
502.126	16998.14
502.329	17002.24
502.532	17272.57
502.735	17219.32
502.938	17512.18
503.141	17805.04
503.344	17714.93
503.547	17805.04
503.75	18245.35
503.953	18384.62
504.156	18607.84
504.359	18964.19
504.562	19003.1
504.765	19386.07
504.968	19427.03
505.17	19803.86
505.373	19783.38
505.576	20127.44
505.779	20496.07
505.982	20430.54
506.185	20856.51
506.387	21032.64
506.59	20942.53
506.793	21323.45
506.996	21403.32
507.198	22122.16
507.401	21909.17
507.604	22130.35
507.807	22449.83
508.009	22937.25
508.212	22769.32
508.415	23361.18
508.617	23590.55
508.82	23717.53
509.022	23682.71
509.225	24446.6
509.428	24323.72
509.63	24768.13
509.833	24856.2
510.035	25374.33
510.238	25126.53
510.44	25863.8
510.643	25788.02
510.845	26099.31
511.048	26048.11
511.25	26689.13
511.453	26732.14
511.655	28208.72
511.858	27321.95
512.06	27629.15
512.262	27885.14
512.465	28081.75
512.667	28374.61
512.87	28819.02
513.072	28939.85
513.274	29322.82
513.477	29797.95
513.679	29830.71
513.881	30191.16
514.084	30635.56
514.286	30570.03
514.488	31004.2
514.69	31594.01
514.893	31565.34
515.095	31907.35
515.297	32153.11
515.499	32607.76
515.701	32726.54
515.904	33056.26
516.106	33578.5
516.308	33644.03
516.51	34024.95
516.712	34027
516.914	34534.9
517.116	35001.83
517.318	35124.71
517.52	35354.08
517.722	35567.07
517.925	36064.73
518.127	36302.29
518.329	36672.98
518.531	36373.97
518.733	37449.16
518.935	37350.85
519.136	37739.97
519.338	38186.43
519.54	38036.92
519.742	38643.12
519.944	38686.13
520.146	39044.52
520.348	39407.01
520.55	40086.94
520.752	39943.58
520.954	40572.31
521.155	40287.64
521.357	41031.05
521.559	41170.32
521.761	41260.43
521.963	41465.22
522.164	42065.28
522.366	41909.63
522.568	42644.85
522.77	42659.19
522.971	43443.56
523.173	43335.02
523.375	43625.83
523.576	43531.62
523.778	43756.9
523.98	44350.81
524.181	44731.73
524.383	44686.68
524.584	45100.37
524.786	45067.6
524.988	45004.11
525.189	45628.74
525.391	46062.91
525.592	46218.56
525.794	46370.11
525.995	46148.93
526.197	46013.76
526.398	46376.25
526.6	46634.3
526.801	46820.66
527.003	46959.92
527.204	46871.86
527.406	47127.86
527.607	47527.21
527.808	48207.14
528.01	47185.2
528.211	47848.74
528.412	48104.74
528.614	48364.83
528.815	48055.59
529.016	49114.39
529.218	48385.31
529.419	48923.93
529.62	48602.39
529.822	48348.45
530.023	48608.54
530.224	48696.6
530.425	48997.65
530.626	48686.36
530.828	48514.33
531.029	49263.89
531.23	49009.94
531.431	49106.19
531.632	48610.59
531.833	49134.87
532.035	48909.59
532.236	49509.64
532.437	49179.92
532.638	48831.77
532.839	49622.28
533.04	49599.76
533.241	48842.01
533.442	50085.12
533.643	49413.39
533.844	49485.07
534.045	49237.26
534.246	48643.35
534.447	49573.13
534.648	49349.9
534.849	49376.53
535.05	49222.93
535.251	49024.28
535.451	49603.85
535.652	49966.34
535.853	49141.01
536.054	49382.67
536.255	49515.79
536.456	48991.51
536.657	49962.25
536.857	49636.62
537.058	48813.34
537.259	49827.08
537.46	49388.81
537.66	49356.05
537.861	49288.46
538.062	49397.01
538.263	49515.79
538.463	48913.69
538.664	49192.21
538.865	49272.08
539.065	49802.5
539.266	49122.58
539.466	49421.58
539.667	48727.32
539.868	49710.35
540.068	48825.62
540.269	48905.49
540.469	48979.22
540.67	48700.7
540.87	48962.84
541.071	49159.44
541.271	49106.19
541.472	48487.71
541.672	48866.58
541.873	48545.05
542.073	48532.76
542.274	48708.89
542.474	48571.67
542.675	48471.32
542.875	49007.89
543.075	49196.31
543.276	48076.07
543.476	48796.95
543.676	48571.67
543.877	49145.11
544.077	48309.53
544.277	48575.77
544.478	48391.45
544.678	48659.74
544.878	48954.64
545.078	48534.81
545.279	48405.79
545.479	48311.58
545.679	48629.02
545.879	48104.74
546.079	48387.36
546.28	48350.49
546.48	48184.61
546.68	48516.38
546.88	48338.21
547.08	48315.68
547.28	48147.75
547.48	47901.99
547.68	48561.43
547.88	47762.73
548.081	48563.48
548.281	48020.77
548.481	47625.51
548.681	48489.76
548.881	48043.3
549.081	48190.75
549.28	48110.88
549.48	48674.07
549.68	48264.48
549.88	48712.98
550.08	47871.27
550.28	47871.27
550.48	47756.58
550.68	48487.71
550.88	47750.44
551.08	47758.63
551.279	47856.93
551.479	47361.33
551.679	47441.2
551.879	47516.97
552.079	47697.19
552.278	47402.28
552.478	47664.42
552.678	47709.48
552.878	47871.27
553.077	47918.37
553.277	47025.46
553.477	48123.17
553.676	47652.14
553.876	47633.71
554.076	47205.68
554.275	47406.38
554.475	47084.85
554.674	47670.57
554.874	47740.2
555.074	46982.45
555.273	47469.87
555.473	47777.06
555.672	46959.92
555.872	47566.12
556.071	47521.07
556.271	47144.24
556.47	47021.36
556.67	46804.28
556.869	46980.4
557.068	47131.95
557.268	46865.72
557.467	46988.6
557.667	46703.93
557.866	46943.54
558.065	47023.41
558.265	46851.38
558.464	46679.35
558.663	46976.31
558.863	46177.6
559.062	46943.54
559.261	46128.45
559.461	47076.66
559.66	46054.72
559.859	46411.07
560.058	45956.42
560.258	46363.96
560.457	45841.73
560.656	46212.41
560.855	46118.21
561.054	45845.83
561.253	45671.75
561.453	45835.59
561.652	45980.99
561.851	45712.71
562.05	45995.33
562.249	45632.84
562.448	45997.38
562.647	45315.4
562.846	45909.32
563.045	45403.47
563.244	45145.42
563.443	45714.76
563.642	44985.68
563.841	45043.02
564.04	45208.91
564.239	45759.81
564.438	44498.26
564.637	44805.46
564.836	44674.39
565.035	44178.78
565.234	44404.06
565.432	44682.58
565.631	44326.24
565.83	44535.13
566.029	44342.62
566.228	44010.85
566.427	43896.16
566.625	44084.58
566.824	43726.18
567.023	44303.71
567.222	43527.53
567.42	43928.93
567.619	43185.52
567.818	43257.2
568.016	43300.2
568.215	43533.67
568.414	43228.52
568.612	43386.22
568.811	42866.03
569.01	42870.13
569.208	42493.3
569.407	43062.64
569.605	42487.16
569.804	42814.83
570.002	42175.87
570.201	42614.13
570.4	42009.98
570.598	41889.15
570.797	41285
570.995	41887.1
571.193	41581.96
571.392	42167.68
571.59	41268.62
571.789	41309.58
571.987	41571.72
572.186	41065.87
572.384	41155.98
572.582	41315.72
572.781	41387.4
572.979	40672.66
573.177	41074.06
573.376	40918.42
573.574	40283.55
573.772	40660.37
573.971	40132
574.169	40218.01
574.367	39935.39
574.565	40371.61
574.763	39972.25
574.962	40447.38
575.16	39663.01
575.358	39816.61
575.556	39214.51
575.754	39800.22
575.952	39331.24
576.151	39613.86
576.349	38915.5
576.547	38880.69
576.745	38880.69
576.943	38876.59
577.141	38622.64
577.339	38393.27
577.537	38315.45
577.735	38462.9
577.933	37950.91
578.131	38161.85
578.329	38286.78
578.527	37785.02
578.725	38086.07
578.923	38092.22
579.121	37836.22
579.319	37492.16
579.516	37938.62
579.714	37518.79
579.912	37240.26
580.11	37221.83
580.308	37193.16
580.506	36728.27
580.704	36711.89
580.901	36951.5
581.099	37049.8
581.297	36236.76
581.495	36642.26
581.692	36566.48
581.89	36224.47
582.088	36652.5
582.285	36052.44
582.483	36132.31
582.681	35849.69
582.878	35913.18
583.076	35782.11
583.274	36144.6
583.471	35225.06
583.669	35489.25
583.866	35034.6
584.064	35565.03
584.262	35286.5
584.459	35091.94
584.657	34694.64
584.854	35263.97
585.052	34297.33
585.249	34788.85
585.447	34749.93
585.644	34143.74
585.841	34633.2
586.039	34903.53
586.236	34059.77
586.434	34115.06
586.631	33908.22
586.828	34135.54
587.026	34108.92
587.223	33723.9
587.42	33748.48
587.618	33205.77
587.815	33533.44
588.012	33623.55
588.21	33119.75
588.407	33441.28
588.604	33031.69
588.801	32953.87
588.999	32435.73
589.196	32646.67
589.393	33007.11
589.59	32642.57
589.787	32820.75
589.984	32452.11
590.182	32349.71
590.379	32615.95
590.576	32253.46
590.773	32249.36
590.97	31872.54
591.167	32349.71
591.364	31800.86
591.561	31772.19
591.758	31817.24
591.955	31657.5
592.152	31393.31
592.349	31254.05
592.546	31415.84
592.743	31860.25
592.94	30768.68
593.137	30950.95
593.334	31104.55
593.531	30584.37
593.727	30957.1
593.924	30594.61
594.121	30498.35
594.318	30492.21
594.515	30465.58
594.712	30580.27
594.908	30346.8
595.105	30295.6
595.302	30232.11
595.499	30076.47
595.696	29877.82
595.892	29695.55
596.089	29945.4
596.286	30109.24
596.482	29404.74
596.679	29607.48
596.876	29822.52
597.072	29328.96
597.269	29312.58
597.466	29208.13
597.662	29138.5
597.859	29234.75
598.055	29228.61
598.252	29105.73
598.448	29032
598.645	28487.25
598.841	28411.47
599.038	28847.69
599.234	28483.15
599.431	28298.83
599.627	28364.37
599.824	28157.52
600.02	28091.99
600.217	27952.73
600.413	27934.29
600.609	27934.29
600.806	27602.52
601.002	27690.59
601.198	27663.96
601.395	27747.93
601.591	27147.87
601.787	27653.72
601.984	27410.01
602.18	27717.21
602.376	27156.07
602.572	26795.62
602.769	26885.73
602.965	26472.04
603.161	26984.04
603.357	26611.31
603.553	26775.14
603.75	26447.47
603.946	26527.34
604.142	26285.68
604.338	26125.94
604.534	26560.11
604.73	26021.49
604.926	26226.29
605.122	26226.29
605.318	25880.18
605.514	26084.98
605.71	25763.45
605.906	25738.87
606.102	25880.18
606.298	25605.75
606.494	25474.68
606.69	25710.2
606.886	25728.63
607.082	25116.29
607.278	25611.9
607.474	24805
607.67	25339.52
607.866	24737.41
608.062	25233.02
608.257	25097.86
608.453	24927.88
608.649	24794.76
608.845	24958.6
609.041	24563.34
609.236	24831.62
609.432	24690.31
609.628	24596.1
609.824	24372.88
610.019	24307.34
610.215	24465.03
610.411	24606.34
610.606	24346.25
610.802	24397.45
610.998	24432.27
611.193	24016.53
611.389	23916.18
611.584	23914.13
611.78	24008.34
611.976	23948.95
612.171	23705.24
612.367	24075.92
612.562	23918.23
612.758	23387.8
612.953	23490.2
613.149	23641.75
613.344	23461.53
613.539	23803.54
613.735	23285.4
613.93	23488.15
614.126	23408.28
614.321	23426.71
614.517	23471.77
614.712	23217.82
614.907	23326.36
615.103	23199.39
615.298	22920.87
615.493	23436.95
615.688	22759.08
615.884	23348.89
616.079	22961.83
616.274	23047.84
616.47	22793.89
616.665	22632.1
616.86	22511.27
617.055	22421.16
617.25	22625.96
617.445	22607.53
617.641	22417.07
617.836	22466.22
618.031	22101.68
618.226	22161.07
618.421	21999.28
618.616	22193.84
618.811	21821.11
619.006	22044.34
619.201	21876.4
619.396	21644.98
619.591	21677.75
619.786	21802.68
619.981	21370.55
620.176	21728.95
620.371	21178.04
620.566	21229.24
620.761	21092.03
620.956	21274.3
621.151	20397.77
621.346	20833.99
621.541	20471.5
621.735	20741.83
621.93	20328.14
622.125	20623.05
622.32	20008.65
622.515	20379.34
622.709	20215.5
622.904	20152.01
623.099	19988.17
623.294	19918.54
623.488	19592.92
623.683	19838.67
623.878	19230.43
624.072	19347.16
624.267	19521.24
624.462	19404.5
624.656	19115.74
624.851	19115.74
625.046	19152.6
625.24	18712.29
625.435	18640.61
625.629	18679.52
625.824	18560.74
626.018	18495.21
626.213	17985.26
626.407	18198.25
626.602	18085.61
626.796	18419.43
626.991	18114.28
627.185	17866.48
627.38	17653.49
627.574	17495.8
627.768	17454.84
627.963	17571.57
628.157	17524.47
628.352	17409.78
628.546	16883.45
628.74	16989.95
628.935	17282.81
629.129	16963.33
629.323	16563.97
629.517	16654.08
629.712	16463.62
629.906	16664.32
630.1	16353.03
630.294	16512.77
630.489	16264.97
630.683	16318.22
630.877	16260.87
631.071	15877.9
631.265	16131.85
631.459	15785.74
631.653	15787.79
631.848	15691.54
632.042	15529.75
632.236	15580.95
632.43	15621.91
632.624	15374.1
632.818	15300.37
633.012	15144.73
633.206	15114.01
633.4	15073.05
633.594	14825.25
633.788	15116.06
633.982	15257.37
634.176	14655.26
634.369	14454.56
634.563	14389.03
634.757	14464.8
634.951	14466.85
635.145	14628.64
635.339	14446.37
635.533	14116.65
635.726	14366.5
635.92	13889.32
636.114	14124.84
636.308	14073.64
636.501	13786.93
636.695	13850.41
636.889	13799.21
637.083	13541.17
637.276	13424.44
637.47	13221.69
637.664	13299.51
637.857	13311.8
638.051	13143.86
638.244	12941.11
638.438	13309.75
638.632	13156.15
638.825	12869.44
639.019	12820.28
639.212	12746.56
639.406	12724.03
639.599	12457.79
639.793	12619.58
639.986	12332.87
640.18	12459.84
640.373	12410.69
640.567	12072.78
640.76	12316.48
640.954	12015.43
641.147	11943.75
641.34	11935.56
641.534	11833.16
641.727	11861.83
641.92	11784.01
642.114	11775.82
642.307	11884.36
642.5	11663.18
642.694	11401.04
642.887	11511.63
643.08	11437.91
643.273	11427.67
643.467	11116.37
643.66	11229.01
643.853	11298.64
644.046	11028.31
644.239	10975.06
644.432	10784.6
644.626	10848.09
644.819	10680.16
645.012	10889.05
645.205	10798.94
645.398	10862.43
645.591	10442.59
645.784	10477.41
645.977	10309.47
646.17	10440.54
646.363	10489.7
646.556	10202.98
646.749	10309.47
646.942	10223.46
647.135	9987.94
647.328	10016.62
647.521	9842.54
647.714	9817.96
647.907	9811.82
648.099	9764.72
648.292	9748.33
648.485	9723.76
648.678	9500.53
648.871	9609.07
649.064	9566.06
649.256	9461.62
649.449	9496.43
649.642	9232.24
649.835	9310.07
650.027	9248.63
650.22	9203.57
650.413	9023.35
650.605	9217.91
650.798	8976.25
650.991	9002.87
651.183	8931.19
651.376	8957.82
651.568	8853.37
651.761	8769.4
651.954	8660.86
652.146	8564.61
652.339	8537.98
652.531	8603.52
652.724	8548.22
652.916	8386.43
653.109	8583.04
653.301	8482.69
653.494	8490.88
653.686	8443.78
653.879	8460.16
654.071	8114.05
654.263	8169.35
654.456	8214.4
654.648	8349.57
654.84	7903.11
655.033	8148.87
655.225	7968.65
655.417	7845.77
655.61	7962.5
655.802	7982.98
655.994	7782.28
656.186	7776.14
656.379	7772.04
656.571	7761.8
656.763	7487.37
656.955	7528.33
657.148	7735.18
657.34	7557
657.532	7546.76
657.724	7421.84
657.916	7452.56
658.108	7438.22
658.3	7288.72
658.492	7251.86
658.684	7032.72
658.876	7028.63
659.068	7157.65
659.26	7053.2
659.452	7022.48
659.644	7139.22
659.836	7006.1
660.028	7036.82
660.22	6786.97
660.412	6946.71
660.604	6836.12
660.796	6860.7
660.988	6838.17
661.18	6627.23
661.372	6614.94
661.563	6741.91
661.755	6674.33
661.947	6682.52
662.139	6469.53
662.331	6530.97
662.522	6426.53
662.714	6549.4
662.906	6455.2
663.097	6352.8
663.289	6391.71
663.481	6119.33
663.673	6541.21
663.864	6238.11
664.056	6313.89
664.247	6238.11
664.439	6152.1
664.631	6211.49
664.822	6160.29
665.014	6207.39
665.205	6025.12
665.397	6076.32
665.588	5935.01
665.78	5988.26
665.971	5765.03
666.163	5924.77
666.354	5859.24
666.546	5875.62
666.737	5664.68
666.929	5851.05
667.12	5758.89
667.311	5681.07
667.503	5566.38
667.694	5699.5
667.885	5593
668.077	5662.63
668.268	5636.01
668.459	5478.32
668.651	5461.93
668.842	5615.53
669.033	5351.34
669.224	5523.37
669.416	5539.76
669.607	5427.12
669.798	5283.76
669.989	5550
670.18	5248.94
670.371	5423.02
670.563	5273.52
670.754	5408.69
670.945	5263.28
671.136	5320.62
671.327	5304.24
671.518	5205.94
671.709	5234.61
671.9	5357.49
672.091	5191.6
672.282	5207.98
672.473	5189.55
672.664	5136.31
672.855	5087.15
673.046	5070.77
673.237	5019.57
673.428	4951.99
673.619	4976.56
673.809	5103.54
674	5009.33
674.191	4970.42
674.382	4904.89
674.573	4861.88
674.764	4906.93
674.954	4896.69
675.145	4822.97
675.336	4951.99
675.527	4880.31
675.717	4851.64
675.908	4833.21
676.099	4743.1
676.289	4804.53
676.48	4837.3
676.671	4734.9
676.861	4861.88
677.052	4788.15
677.243	4607.93
677.433	4728.76
677.624	4689.85
677.814	4745.14
678.005	4775.86
678.195	4712.38
678.386	4798.39
678.576	4599.74
678.767	4636.6
678.957	4644.79
679.148	4671.42
679.338	4704.18
679.529	4542.39
679.719	4532.15
679.909	4757.43
680.1	4593.59
680.29	4491.2
680.481	4530.11
680.671	4644.79
680.861	4650.94
681.052	4503.48
681.242	4681.66
681.432	4673.46
681.622	4483
681.813	4523.96
682.003	4513.72
682.193	4425.66
682.383	4562.87
682.573	4497.34
682.764	4466.62
682.954	4433.85
683.144	4513.72
683.334	4401.08
683.524	4425.66
683.714	4515.77
683.904	4462.52
684.094	4435.9
684.284	4536.25
684.474	4366.27
684.664	4337.6
684.854	4372.41
685.044	4370.37
685.234	4429.76
685.424	4409.28
685.614	4360.13
685.804	4411.32
685.994	4315.07
686.184	4450.24
686.374	4290.49
686.564	4396.99
686.753	4339.65
686.943	4315.07
687.133	4302.78
687.323	4325.31
687.513	4227.01
687.702	4241.34
687.892	4116.42
688.082	4294.59
688.272	4214.72
688.461	4241.34
688.651	4317.12
688.841	4036.55
689.03	4132.8
689.22	4050.88
689.41	4181.95
689.599	4063.17
689.789	4175.81
689.979	4001.73
690.168	4085.7
690.358	3977.16
690.547	4040.64
690.737	4093.89
690.926	4007.87
691.116	3989.44
691.305	4085.7
691.495	4122.56
691.684	4014.02
691.874	3977.16
692.063	3934.15
692.252	3966.92
692.442	3868.61
692.631	3897.28
692.82	3805.13
693.01	3862.47
693.199	3923.91
693.388	3796.93
693.578	3903.43
693.767	3805.13
693.956	3753.93
694.146	3837.89
694.335	3745.73
694.524	3760.07
694.713	3778.5
694.902	3782.6
695.092	3760.07
695.281	3729.35
695.47	3817.41
695.659	3747.78
695.848	3721.16
696.037	3860.42
696.226	3758.02
696.415	3684.3
696.604	3667.91
696.793	3696.58
696.982	3737.54
697.171	3497.93
697.36	3721.16
697.549	3774.41
697.738	3669.96
697.927	3635.14
698.116	3657.67
698.305	3635.14
698.494	3758.02
698.683	3596.23
698.872	3612.62
699.061	3577.8
699.25	3567.56
699.438	3663.82
699.627	3692.49
699.816	3700.68
700.005	3635.14
700.193	3581.9
700.382	3651.53
700.571	3626.95
700.76	3514.31
700.948	3557.32
701.137	3559.37
701.326	3512.27
701.514	3557.32
701.703	3485.64
701.892	3487.69
702.08	3614.66
702.269	3516.36
702.457	3463.12
702.646	3473.36
702.834	3422.16
703.023	3536.84
703.212	3534.79
703.4	3485.64
703.589	3438.54
703.777	3469.26
703.965	3297.23
704.154	3495.88
704.342	3463.12
704.531	3315.66
704.719	3444.68
704.907	3542.99
705.096	3295.18
705.284	3463.12
705.472	3409.87
705.661	3317.71
705.849	3336.14
706.037	3426.25
706.226	3221.45
706.414	3409.87
706.602	3227.6
706.79	3448.78
706.979	3160.02
707.167	3358.67
707.355	3362.76
707.543	3342.29
707.731	3305.42
707.919	3246.03
708.107	3229.65
708.296	3190.74
708.484	3223.5
708.672	3260.37
708.86	3272.65
709.048	3121.1
709.236	3151.82
709.424	3286.99
709.612	3211.22
709.8	3153.87
709.988	3125.2
710.176	3151.82
710.364	3248.08
710.551	3178.45
710.739	3112.91
710.927	3069.91
711.115	3160.02
711.303	3137.49
711.491	3330
711.679	3241.93
711.866	3145.68
712.054	3151.82
712.242	3008.47
712.43	3170.26
712.617	3170.26
712.805	3102.67
712.993	3102.67
713.181	2969.55
713.368	3102.67
713.556	3207.12
713.744	3033.04
713.931	3033.04
714.119	3022.8
714.306	3061.71
714.494	2981.84
714.682	3020.75
714.869	2947.03
715.057	3047.38
715.244	2881.49
715.432	3086.29
715.619	2969.55
715.807	2947.03
715.994	2873.3
716.182	2959.31
716.369	2947.03
716.556	2998.23
716.744	2883.54
716.931	2893.78
717.119	2889.68
717.306	2828.24
717.493	2836.44
717.681	2781.14
717.868	2875.35
718.055	2904.02
718.242	2879.44
718.43	2944.98
718.617	2803.67
718.804	2830.29
718.991	2750.42
719.179	2834.39
719.366	2734.04
719.553	2871.25
719.74	2775
719.927	2748.37
720.114	2697.17
720.301	2762.71
720.488	2695.13
720.676	2764.76
720.863	2861.01
721.05	2664.41
721.237	2693.08
721.424	2592.73
721.611	2736.09
721.798	2717.65
721.985	2549.72
722.172	2605.02
722.358	2623.45
722.545	2684.89
722.732	2684.89
722.919	2693.08
723.106	2508.76
723.293	2613.21
723.48	2525.15
723.667	2650.07
723.853	2541.53
724.04	2562.01
724.227	2641.88
724.414	2508.76
724.6	2527.19
724.787	2516.95
724.974	2592.73
725.161	2484.19
725.347	2490.33
725.534	2498.52
725.72	2541.53
725.907	2562.01
726.094	2533.34
726.28	2496.47
726.467	2488.28
726.653	2502.62
726.84	2508.76
727.027	2486.23
727.213	2428.89
727.4	2416.6
727.586	2426.84
727.773	2504.67
727.959	2406.36
728.145	2492.38
728.332	2467.8
728.518	2367.45
728.705	2508.76
728.891	2451.42
729.077	2383.84
729.264	2312.16
729.45	2291.68
729.636	2406.36
729.823	2263.01
730.009	2375.64
730.195	2340.83
730.382	2351.07
730.568	2392.03
730.754	2377.69
730.94	2359.26
731.126	2402.27
731.313	2297.82
731.499	2326.49
731.685	2363.36
731.871	2322.4
732.057	2318.3
732.243	2273.25
732.429	2336.73
732.615	2342.88
732.801	2291.68
732.987	2250.72
733.173	2301.92
733.359	2246.62
733.545	2242.53
733.731	2236.38
733.917	2129.89
734.103	2326.49
734.289	2142.18
734.475	2056.16
734.661	2289.63
734.847	2283.49
735.033	2260.96
735.219	2142.18
735.404	2111.46
735.59	2095.07
735.776	2220
735.962	2123.74
736.148	2283.49
736.333	2033.63
736.519	2199.52
736.705	2129.89
736.89	2017.25
737.076	2197.47
737.262	2176.99
737.447	2115.55
737.633	2101.22
737.819	2123.74
738.004	2019.3
738.19	2144.22
738.375	2002.91
738.561	2002.91
738.747	2050.02
738.932	2060.26
739.118	2133.98
739.303	2041.82
739.489	2127.84
739.674	2019.3
739.859	2078.69
740.045	2015.2
740.23	2127.84
740.416	1935.33
740.601	2035.68
740.786	2017.25
740.972	1914.85
741.157	1869.8
741.342	1908.71
741.528	1935.33
741.713	1980.39
741.898	2058.21
742.084	1945.57
742.269	1900.52
742.454	1894.37
742.639	1953.76
742.824	1861.6
743.01	1789.92
743.195	1849.32
743.38	1941.47
743.565	1851.36
743.75	1857.51
743.935	1863.65
744.12	1857.51
744.305	1910.75
744.49	1902.56
744.675	1724.39
744.86	1773.54
745.045	1734.63
745.23	1798.12
745.415	1759.21
745.6	1658.85
745.785	1806.31
745.97	1806.31
746.155	1722.34
746.34	1746.92
746.525	1769.45
746.71	1705.96
746.895	1603.56
747.079	1660.9
747.264	1697.77
747.449	1630.18
747.634	1724.39
747.819	1742.82
748.003	1638.38
748.188	1697.77
748.373	1677.29
748.557	1636.33
748.742	1581.03
748.927	1576.94
749.111	1499.11
749.296	1546.22
749.481	1509.35
749.665	1533.93
749.85	1556.46
750.034	1550.31
750.219	1570.79
750.404	1499.11
750.588	1435.63
750.773	1347.56
750.957	1513.45
751.141	1456.11
751.326	1488.87
751.51	1402.86
751.695	1415.15
751.879	1380.33
752.064	1366
752.248	1417.19
752.432	1417.19
752.617	1484.78
752.801	1341.42
752.985	1396.71
753.17	1359.85
753.354	1351.66
753.538	1296.36
753.722	1173.49
753.907	1306.6
754.091	1282.03
754.275	1269.74
754.459	1296.36
754.643	1216.49
754.828	1210.35
755.012	1183.73
755.196	1302.51
755.38	1132.53
755.564	1200.11
755.748	1253.36
755.932	1294.32
756.116	1273.84
756.3	1161.2
756.484	1134.57
756.668	1150.96
756.852	1099.76
757.036	1198.06
757.22	1093.62
757.404	1130.48
757.588	1157.1
757.772	1163.25
757.956	1165.29
758.14	1155.05
758.323	970.74
758.507	1116.14
758.691	1089.52
758.875	1105.9
759.059	1081.33
759.242	1050.61
759.426	1101.81
759.61	993.26
759.794	1017.84
759.977	1083.38
760.161	1064.94
760.345	991.22
760.528	987.12
760.712	1046.51
760.895	1007.6
761.079	995.31
761.263	1007.6
761.446	970.74
761.63	1019.89
761.813	1023.98
761.997	1017.84
762.18	966.64
762.364	1005.55
762.547	882.67
762.731	993.26
762.914	935.92
763.098	942.07
763.281	935.92
763.464	878.58
763.648	913.39
763.831	944.11
764.015	888.82
764.198	868.34
764.381	899.06
764.564	874.48
764.748	927.73
764.931	937.97
765.114	886.77
765.297	892.91
765.481	819.19
765.664	851.96
765.847	837.62
766.03	911.35
766.213	782.32
766.397	835.57
766.58	860.15
766.763	880.63
766.946	878.58
767.129	780.28
767.312	817.14
767.495	909.3
767.678	860.15
767.861	849.91
768.044	743.41
768.227	827.38
768.41	821.24
768.593	864.24
768.776	874.48
768.959	815.09
769.142	835.57
769.324	800.76
769.507	829.43
769.69	813.04
769.873	733.17
770.056	800.76
770.239	765.94
770.421	860.15
770.604	800.76
770.787	702.45
770.97	677.88
771.152	784.37
771.335	837.62
771.518	722.93
771.7	796.66
771.883	692.21
772.066	784.37
772.248	772.08
772.431	737.27
772.613	671.73
772.796	702.45
772.978	745.46
773.161	720.89
773.343	665.59
773.526	684.02
773.708	663.54
773.891	618.49
774.073	702.45
774.256	624.63
774.438	651.25
774.621	684.02
774.803	739.32
774.985	643.06
775.168	667.64
775.35	679.93
775.532	583.67
775.715	677.88
775.897	663.54
776.079	612.34
776.261	636.92
776.444	608.25
776.626	626.68
776.808	626.68
776.99	651.25
777.173	561.14
777.355	579.58
777.537	665.59
777.719	604.15
777.901	555
778.083	602.1
778.265	651.25
778.447	579.58
778.629	485.37
778.811	567.29
778.993	552.95
779.175	575.48
779.357	536.57
779.539	479.22
779.721	587.77
779.903	600.05
780.085	493.56
780.267	614.39
780.449	462.84
780.631	571.38
780.812	487.42
780.994	604.15
781.176	571.38
781.358	432.12
781.54	561.14
781.721	471.03
781.903	497.66
782.085	473.08
782.267	468.98
782.448	518.14
782.63	462.84
782.812	487.42
782.993	425.98
783.175	505.85
783.357	350.2
783.538	419.83
783.72	376.83
783.901	477.18
784.083	397.31
784.264	389.11
784.446	368.63
784.627	425.98
784.809	511.99
784.99	393.21
785.172	372.73
785.353	468.98
785.535	462.84
785.716	366.59
785.897	405.5
786.079	366.59
786.26	456.7
786.441	395.26
786.623	315.39
786.804	450.55
786.985	501.75
787.167	401.4
787.348	274.43
787.529	348.15
787.71	468.98
787.891	366.59
788.073	313.34
788.254	337.91
788.435	364.54
788.616	342.01
788.797	382.97
788.978	303.1
789.159	296.96
789.34	374.78
789.522	372.73
789.703	335.87
789.884	282.62
790.065	315.39
790.246	292.86
790.427	296.96
790.607	450.55
790.788	286.72
790.969	317.44
791.15	354.3
791.331	294.91
791.512	346.11
791.693	354.3
791.874	372.73
792.054	319.48
792.235	256
792.416	280.57
792.597	315.39
792.778	337.91
792.958	317.44
793.139	319.48
793.32	307.2
793.5	221.18
793.681	272.38
793.862	313.34
794.042	296.96
794.223	264.19
794.404	153.6
794.584	167.93
794.765	282.62
794.945	319.48
795.126	323.58
795.306	249.85
795.487	272.38
795.667	280.57
795.848	217.08
796.028	262.14
796.209	266.24
796.389	356.35
796.57	278.52
796.75	208.89
796.93	260.09
797.111	268.28
797.291	321.53
797.471	305.15
797.652	145.41
797.832	282.62
798.012	260.09
798.192	223.23
798.373	184.32
798.553	210.94
798.733	256
798.913	221.18
799.093	309.24
799.274	266.24
799.454	147.45
799.634	184.32
799.814	243.71
799.994	219.13
800.174	260.09
800.354	251.9
800.534	212.99
800.714	212.99
800.894	167.93
801.074	237.56
801.254	200.7
801.434	276.48
801.614	200.7
801.794	231.42
801.974	661.49
802.154	139.26
802.334	268.28
802.514	186.37
802.693	184.32
802.873	212.99
803.053	184.32
803.233	194.56
803.413	176.13
803.592	147.45
803.772	100.35
803.952	169.98
804.131	210.94
804.311	249.85
804.491	243.71
804.67	212.99
804.85	239.61
805.03	153.6
805.209	206.84
805.389	122.88
805.568	186.37
805.748	129.02
805.928	208.89
806.107	223.23
806.287	167.93
806.466	163.84
806.646	83.97
806.825	176.13
807.004	151.55
807.184	126.97
807.363	204.8
807.543	124.93
807.722	118.78
807.901	165.89
808.081	169.98
808.26	221.18
808.439	53.25
808.619	182.27
808.798	174.08
808.977	215.04
809.156	188.41
809.336	174.08
809.515	155.65
809.694	141.31
809.873	157.69
810.052	145.41
810.231	163.84
810.411	104.45
810.59	174.08
810.769	63.49
810.948	200.7
811.127	79.87
811.306	202.75
811.485	147.45
811.664	143.36
811.843	157.69
812.022	116.73
812.201	178.17
812.38	92.16
812.559	184.32
812.737	126.97
812.916	96.25
813.095	98.3
813.274	233.47
813.453	202.75
813.632	118.78
813.811	186.37
813.989	104.45
814.168	145.41
814.347	98.3
814.526	96.25
814.704	131.07
814.883	176.13
815.062	124.93
815.24	96.25
815.419	102.4
815.598	155.65
815.776	55.3
815.955	126.97
816.133	135.17
816.312	112.64
816.49	112.64
816.669	106.49
816.847	81.92
817.026	122.88
817.204	63.49
817.383	79.87
817.561	79.87
817.74	167.93
817.918	96.25
818.097	110.59
818.275	98.3
818.453	98.3
818.632	71.68
818.81	139.26
818.988	114.69
819.167	83.97
819.345	98.3
819.523	79.87
819.701	172.03
819.879	86.01
820.058	106.49
820.236	122.88
820.414	176.13
820.592	65.54
820.77	167.93
820.948	126.97
821.127	147.45
821.305	104.45
821.483	43.01
821.661	135.17
821.839	45.06
822.017	83.97
822.195	106.49
822.373	114.69
822.551	47.1
822.729	131.07
822.907	47.1
823.085	118.78
823.262	92.16
823.44	45.06
823.618	83.97
823.796	108.54
823.974	139.26
824.152	6.14
824.329	88.06
824.507	153.6
824.685	100.35
824.863	73.73
825.04	53.25
825.218	94.21
825.396	0
825.574	45.06
825.751	47.1
825.929	131.07
826.107	67.58
826.284	120.83
826.462	59.39
826.639	94.21
826.817	116.73
826.994	145.41
827.172	30.72
827.349	30.72
827.527	100.35
827.704	124.93
827.882	55.3
828.059	77.82
828.237	61.44
828.414	102.4
828.591	-20.48
828.769	126.97
828.946	81.92
829.124	161.79
829.301	81.92
829.478	79.87
829.655	38.91
829.833	45.06
830.01	34.82
830.187	137.21
830.364	63.49
830.542	69.63
830.719	116.73
830.896	75.77
831.073	106.49
831.25	28.67
831.427	-47.1
831.604	51.2
831.782	90.11
831.959	98.3
832.136	65.54
832.313	20.48
832.49	73.73
832.667	28.67
832.844	122.88
833.021	88.06
833.198	26.62
833.374	73.73
833.551	14.34
833.728	65.54
833.905	55.3
834.082	65.54
834.259	57.34
834.436	120.83
834.612	32.77
834.789	75.77
834.966	59.39
835.143	98.3
835.319	10.24
835.496	129.02
835.673	104.45
835.85	153.6
836.026	36.86
836.203	20.48
836.38	43.01
836.556	83.97
836.733	83.97
836.909	83.97
837.086	18.43
837.262	38.91
837.439	57.34
837.616	86.01
837.792	10.24
837.968	69.63
838.145	65.54
838.321	14.34
838.498	24.58
838.674	149.5
838.851	63.49
839.027	108.54
839.203	40.96
839.38	38.91
839.556	53.25
839.732	86.01
839.909	88.06
840.085	43.01
840.261	-6.14
840.437	86.01
840.614	83.97
840.79	61.44
840.966	34.82
841.142	137.21
841.318	20.48
841.494	59.39
841.671	96.25
841.847	47.1
842.023	-14.34
842.199	32.77
842.375	73.73
842.551	53.25
842.727	-24.58
842.903	57.34
843.079	65.54
843.255	108.54
843.431	12.29
843.607	149.5
843.783	16.38
843.959	47.1
844.134	36.86
844.31	-16.38
844.486	12.29
844.662	4.1
844.838	-2.05
845.013	110.59
845.189	34.82
845.365	75.77
845.541	75.77
845.716	24.58
845.892	40.96
846.068	-24.58
846.244	22.53
846.419	69.63
846.595	90.11
846.77	20.48
846.946	4.1
847.122	98.3
847.297	73.73
847.473	96.25
847.648	24.58
847.824	96.25
847.999	51.2
848.175	-38.91
848.35	77.82
848.526	57.34
848.701	90.11
848.876	75.77
849.052	24.58
849.227	98.3
849.403	16.38
849.578	34.82
849.753	59.39
849.929	116.73
850.104	-14.34
850.279	36.86
850.454	69.63
850.63	47.1
850.805	81.92
850.98	47.1
851.155	32.77
851.33	57.34
851.505	55.3
851.681	26.62
851.856	0
852.031	55.3
852.206	45.06
852.381	67.58
852.556	47.1
852.731	45.06
852.906	-8.19
853.081	43.01
853.256	-22.53
853.431	47.1
853.606	6.14
853.781	12.29
853.956	-34.82
854.131	86.01
854.305	14.34
854.48	4.1
854.655	-61.44
854.83	59.39
855.005	92.16
855.18	-2.05
855.354	30.72
855.529	69.63
855.704	10.24
855.879	77.82
856.053	2.05
856.228	69.63
856.403	28.67
856.577	79.87
856.752	18.43
856.926	24.58
857.101	-26.62
857.276	49.15
857.45	-2.05
857.625	40.96
857.799	-30.72
857.974	14.34
858.148	4.1
858.323	-8.19
858.497	30.72
858.672	6.14
858.846	-22.53
859.02	61.44
859.195	10.24
859.369	73.73
859.543	124.93
859.718	-45.06
859.892	49.15
860.066	-75.77
860.241	-12.29
860.415	86.01
860.589	30.72
860.763	53.25
860.938	16.38
861.112	98.3
861.286	45.06
861.46	8.19
861.634	100.35
861.808	30.72
861.982	-43.01
862.157	22.53
862.331	12.29
862.505	-20.48
862.679	12.29
862.853	36.86
863.027	30.72
863.201	73.73
863.375	-2.05
863.549	45.06
863.722	4.1
863.896	59.39
864.07	8.19
864.244	-24.58
864.418	12.29
864.592	-30.72
864.766	8.19
864.939	6.14
865.113	4.1
865.287	36.86
865.461	-71.68
865.634	79.87
865.808	81.92
865.982	26.62
866.156	-16.38
866.329	55.3
866.503	47.1
866.676	12.29
866.85	22.53
867.024	45.06
867.197	-34.82
867.371	40.96
867.544	71.68
867.718	53.25
867.891	30.72
868.065	-2.05
868.238	98.3
868.412	-18.43
868.585	-14.34
868.759	32.77
868.932	6.14
869.105	-59.39
869.279	-79.87
869.452	88.06
869.625	16.38
869.799	30.72
869.972	-22.53
870.145	-12.29
870.319	-14.34
870.492	14.34
870.665	-6.14
870.838	-24.58
871.011	28.67
871.185	-30.72
871.358	-4.1
871.531	69.63
871.704	2.05
871.877	32.77
872.05	59.39
872.223	8.19
872.396	98.3
872.569	63.49
872.742	18.43
872.915	32.77
873.088	-12.29
873.261	16.38
873.434	-16.38
873.607	20.48
873.78	-6.14
873.953	-28.67
874.126	-79.87
874.299	-20.48
874.471	43.01
874.644	-4.1
874.817	-10.24
874.99	67.58
875.163	-4.1
875.335	16.38
875.508	10.24
875.681	-6.14
875.853	-20.48
876.026	0
876.199	53.25
876.371	-40.96
876.544	6.14
876.717	-32.77
876.889	30.72
877.062	0
877.234	-6.14
877.407	71.68
877.579	0
877.752	14.34
877.924	32.77
878.097	4.1
878.269	65.54
878.442	55.3
878.614	45.06
878.786	71.68
878.959	34.82
879.131	8.19
879.303	14.34
879.476	36.86
879.648	6.14
879.82	59.39
879.993	40.96
880.165	-8.19
880.337	-30.72
880.509	49.15
880.681	-20.48
880.854	8.19
881.026	4.1
881.198	108.54
881.37	-63.49
881.542	69.63
881.714	20.48
881.886	24.58
882.058	43.01
882.23	38.91
882.402	-45.06
882.574	57.34
882.746	51.2
882.918	16.38
883.09	104.45
883.262	16.38
883.434	61.44
883.606	45.06
883.778	8.19
883.95	45.06
884.122	-53.25
884.293	98.3
884.465	90.11
884.637	-38.91
884.809	0
884.98	69.63
885.152	-28.67
885.324	40.96
885.496	12.29
885.667	-34.82
885.839	20.48
886.011	45.06
886.182	-47.1
886.354	2.05
886.525	-2.05
886.697	36.86
886.869	-49.15
887.04	-28.67
887.212	20.48
887.383	69.63
887.555	32.77
887.726	-55.3
887.897	-28.67
888.069	77.82
888.24	0
888.412	63.49
888.583	32.77
888.754	-20.48
888.926	43.01
889.097	4.1
889.268	22.53
889.44	83.97
889.611	-43.01
889.782	30.72
889.953	-18.43
890.125	6.14
890.296	6.14
890.467	30.72
890.638	-32.77
890.809	40.96
890.98	10.24
891.151	43.01
891.323	73.73
891.494	-43.01
891.665	36.86
891.836	-36.86
892.007	-8.19
892.178	47.1
892.349	-10.24
892.52	-4.1
892.691	22.53
892.862	-20.48
893.032	22.53
893.203	26.62
893.374	-26.62
893.545	12.29
893.716	-2.05
893.887	77.82
894.057	22.53
894.228	4.1
894.399	-8.19
894.57	6.14
894.74	-8.19
894.911	-18.43
895.082	-4.1
895.253	-45.06
895.423	-18.43
895.594	49.15
895.764	47.1
895.935	57.34
896.106	8.19
896.276	12.29
896.447	-36.86
896.617	-16.38
896.788	-10.24
896.958	4.1
897.129	-47.1
897.299	20.48
897.47	28.67
897.64	18.43
897.81	-36.86
897.981	-8.19
898.151	-59.39
898.322	2.05
898.492	24.58
898.662	-6.14
898.832	67.58
899.003	6.14
899.173	81.92
899.343	45.06
899.513	-10.24
