Data from USB4F104151__3__12-34-47-306.txt Node

Date: Fri Mar 14 12:34:47 EDT 2025
User: louis
Spectrometer: USB4F10415
Trigger mode: 4
Integration Time (sec): 2.000000E-2
Scans to average: 1
Electric dark correction enabled: true
Nonlinearity correction enabled: false
Boxcar width: 0
XAxis mode: Wavelengths
Number of Pixels in Spectrum: 3648
>>>>>Begin Spectral Data<<<<<
178.204	-79.02
178.424	-79.02
178.644	-79.02
178.864	-27.82
179.084	-54.44
179.304	-29.87
179.524	-11.43
179.744	25.43
179.964	2.9
180.184	0.85
180.404	0.85
180.624	-3.24
180.844	15.19
181.064	-58.54
181.283	37.72
181.503	-9.39
181.723	29.52
181.943	-44.2
182.163	60.24
182.383	109.4
182.602	107.35
182.822	41.81
183.042	39.76
183.262	68.44
183.482	84.82
183.701	7
183.921	-60.59
184.141	9.05
184.361	17.24
184.58	123.73
184.8	62.29
185.02	-23.72
185.239	15.19
185.459	68.44
185.679	-9.39
185.898	2.9
186.118	88.92
186.338	82.77
186.557	68.44
186.777	-13.48
186.997	-5.29
187.216	19.29
187.436	52.05
187.655	37.72
187.875	84.82
188.095	72.53
188.314	27.48
188.534	27.48
188.753	-27.82
188.973	15.19
189.192	47.96
189.412	-54.44
189.631	29.52
189.851	54.1
190.07	31.57
190.29	148.31
190.509	-9.39
190.729	21.33
190.948	43.86
191.168	76.63
191.387	109.4
191.607	9.05
191.826	58.2
192.045	21.33
192.265	35.67
192.484	35.67
192.704	-11.43
192.923	17.24
193.142	80.72
193.362	31.57
193.581	78.68
193.8	138.07
194.02	80.72
194.239	66.39
194.458	136.02
194.678	50
194.897	43.86
195.116	41.81
195.335	-1.19
195.555	-13.48
195.774	93.01
195.993	39.76
196.212	37.72
196.432	15.19
196.651	105.3
196.87	0.85
197.089	113.49
197.308	-62.63
197.528	7
197.747	80.72
197.966	-13.48
198.185	29.52
198.404	-25.77
198.623	72.53
198.842	52.05
199.062	105.3
199.281	31.57
199.5	-13.48
199.719	-19.63
199.938	37.72
200.157	68.44
200.376	2.9
200.595	99.16
200.814	9.05
201.033	-29.87
201.252	25.43
201.471	21.33
201.69	62.29
201.909	133.97
202.128	15.19
202.347	-7.34
202.566	93.01
202.785	-60.59
203.004	21.33
203.223	66.39
203.442	19.29
203.661	62.29
203.879	72.53
204.098	31.57
204.317	17.24
204.536	125.78
204.755	4.95
204.974	43.86
205.193	54.1
205.411	45.91
205.63	17.24
205.849	64.34
206.068	-7.34
206.287	-11.43
206.505	74.58
206.724	56.15
206.943	39.76
207.162	41.81
207.381	43.86
207.599	152.4
207.818	7
208.037	56.15
208.255	70.48
208.474	27.48
208.693	37.72
208.911	-13.48
209.13	4.95
209.349	43.86
209.567	39.76
209.786	95.06
210.005	33.62
210.223	41.81
210.442	4.95
210.661	50
210.879	7
211.098	-1.19
211.316	7
211.535	50
211.753	-9.39
211.972	99.16
212.191	62.29
212.409	45.91
212.628	58.2
212.846	15.19
213.065	58.2
213.283	19.29
213.502	9.05
213.72	90.96
213.938	86.87
214.157	35.67
214.375	33.62
214.594	68.44
214.812	68.44
215.031	29.52
215.249	72.53
215.467	27.48
215.686	41.81
215.904	123.73
216.122	-56.49
216.341	80.72
216.559	88.92
216.778	39.76
216.996	103.25
217.214	93.01
217.432	23.38
217.651	-54.44
217.869	21.33
218.087	101.2
218.306	35.67
218.524	37.72
218.742	9.05
218.96	84.82
219.179	58.2
219.397	35.67
219.615	113.49
219.833	45.91
220.051	7
220.27	41.81
220.488	39.76
220.706	76.63
220.924	35.67
221.142	11.09
221.36	95.06
221.578	11.09
221.796	41.81
222.015	19.29
222.233	-21.67
222.451	144.21
222.669	58.2
222.887	2.9
223.105	33.62
223.323	39.76
223.541	107.35
223.759	50
223.977	37.72
224.195	13.14
224.413	82.77
224.631	86.87
224.849	19.29
225.067	54.1
225.285	50
225.503	107.35
225.721	27.48
225.939	66.39
226.157	41.81
226.375	37.72
226.592	-1.19
226.81	-15.53
227.028	17.24
227.246	103.25
227.464	37.72
227.682	19.29
227.9	41.81
228.117	99.16
228.335	13.14
228.553	119.64
228.771	0.85
228.989	17.24
229.206	-7.34
229.424	25.43
229.642	23.38
229.86	109.4
230.077	76.63
230.295	-54.44
230.513	127.83
230.731	109.4
230.948	29.52
231.166	84.82
231.384	41.81
231.601	52.05
231.819	64.34
232.037	-56.49
232.254	-52.39
232.472	115.54
232.689	-5.29
232.907	33.62
233.125	13.14
233.342	37.72
233.56	-13.48
233.777	56.15
233.995	-1.19
234.213	117.59
234.43	64.34
234.648	-17.58
234.865	13.14
235.083	37.72
235.3	-3.24
235.518	52.05
235.735	29.52
235.953	2.9
236.17	0.85
236.388	-9.39
236.605	-9.39
236.822	74.58
237.04	58.2
237.257	68.44
237.475	60.24
237.692	123.73
237.909	76.63
238.127	52.05
238.344	17.24
238.562	4.95
238.779	17.24
238.996	-68.78
239.214	82.77
239.431	39.76
239.648	7
239.865	60.24
240.083	58.2
240.3	58.2
240.517	-11.43
240.735	-83.11
240.952	117.59
241.169	50
241.386	82.77
241.603	-11.43
241.821	9.05
242.038	41.81
242.255	11.09
242.472	27.48
242.689	52.05
242.907	121.68
243.124	0.85
243.341	9.05
243.558	43.86
243.775	19.29
243.992	-9.39
244.209	47.96
244.426	121.68
244.643	76.63
244.86	9.05
245.078	37.72
245.295	33.62
245.512	101.2
245.729	45.91
245.946	4.95
246.163	41.81
246.38	21.33
246.597	-40.11
246.814	64.34
247.031	27.48
247.248	39.76
247.464	39.76
247.681	23.38
247.898	-13.48
248.115	29.52
248.332	9.05
248.549	56.15
248.766	103.25
248.983	101.2
249.2	17.24
249.417	84.82
249.633	4.95
249.85	103.25
250.067	23.38
250.284	68.44
250.501	33.62
250.717	105.3
250.934	31.57
251.151	111.44
251.368	0.85
251.585	72.53
251.801	52.05
252.018	27.48
252.235	68.44
252.451	-3.24
252.668	39.76
252.885	37.72
253.102	43.86
253.318	95.06
253.535	50
253.752	23.38
253.968	2.9
254.185	-7.34
254.401	29.52
254.618	64.34
254.835	-23.72
255.051	101.2
255.268	62.29
255.484	76.63
255.701	62.29
255.917	-1.19
256.134	103.25
256.351	68.44
256.567	31.57
256.784	90.96
257	27.48
257.217	47.96
257.433	-40.11
257.65	15.19
257.866	50
258.082	68.44
258.299	80.72
258.515	-70.83
258.732	41.81
258.948	-23.72
259.165	43.86
259.381	35.67
259.597	80.72
259.814	21.33
260.03	95.06
260.246	103.25
260.463	43.86
260.679	27.48
260.895	35.67
261.112	37.72
261.328	23.38
261.544	-23.72
261.761	164.69
261.977	29.52
262.193	-23.72
262.409	66.39
262.626	56.15
262.842	72.53
263.058	9.05
263.274	82.77
263.49	82.77
263.707	66.39
263.923	56.15
264.139	37.72
264.355	52.05
264.571	68.44
264.787	58.2
265.004	68.44
265.22	-5.29
265.436	-25.77
265.652	54.1
265.868	66.39
266.084	64.34
266.3	11.09
266.516	-40.11
266.732	70.48
266.948	45.91
267.164	60.24
267.38	-17.58
267.596	72.53
267.812	31.57
268.028	31.57
268.244	54.1
268.46	25.43
268.676	52.05
268.892	13.14
269.108	39.76
269.324	82.77
269.54	43.86
269.756	54.1
269.972	-1.19
270.188	72.53
270.403	13.14
270.619	99.16
270.835	50
271.051	4.95
271.267	13.14
271.483	82.77
271.698	9.05
271.914	68.44
272.13	9.05
272.346	29.52
272.562	64.34
272.777	52.05
272.993	88.92
273.209	17.24
273.425	152.4
273.64	-33.96
273.856	68.44
274.072	11.09
274.287	33.62
274.503	86.87
274.719	115.54
274.934	78.68
275.15	52.05
275.366	78.68
275.581	39.76
275.797	39.76
276.012	105.3
276.228	68.44
276.444	80.72
276.659	21.33
276.875	29.52
277.09	19.29
277.306	62.29
277.521	60.24
277.737	-33.96
277.952	84.82
278.168	74.58
278.383	2.9
278.599	-58.54
278.814	35.67
279.03	29.52
279.245	133.97
279.461	80.72
279.676	21.33
279.892	7
280.107	33.62
280.322	117.59
280.538	-19.63
280.753	4.95
280.969	76.63
281.184	-17.58
281.399	74.58
281.615	54.1
281.83	117.59
282.045	60.24
282.26	27.48
282.476	35.67
282.691	25.43
282.906	25.43
283.122	50
283.337	23.38
283.552	66.39
283.767	-17.58
283.983	41.81
284.198	-40.11
284.413	111.44
284.628	23.38
284.843	58.2
285.058	-23.72
285.274	0.85
285.489	41.81
285.704	78.68
285.919	13.14
286.134	72.53
286.349	62.29
286.564	19.29
286.779	23.38
286.995	35.67
287.21	29.52
287.425	-3.24
287.64	23.38
287.855	-3.24
288.07	11.09
288.285	127.83
288.5	11.09
288.715	90.96
288.93	119.64
289.145	23.38
289.36	47.96
289.575	23.38
289.79	142.16
290.004	103.25
290.219	127.83
290.434	39.76
290.649	-11.43
290.864	35.67
291.079	86.87
291.294	72.53
291.509	58.2
291.724	4.95
291.938	103.25
292.153	45.91
292.368	58.2
292.583	-5.29
292.798	74.58
293.012	60.24
293.227	27.48
293.442	31.57
293.657	27.48
293.871	156.5
294.086	80.72
294.301	70.48
294.516	41.81
294.73	-33.96
294.945	13.14
295.16	-3.24
295.374	47.96
295.589	84.82
295.804	-5.29
296.018	27.48
296.233	70.48
296.447	119.64
296.662	47.96
296.877	76.63
297.091	84.82
297.306	41.81
297.52	39.76
297.735	4.95
297.949	25.43
298.164	60.24
298.378	-1.19
298.593	64.34
298.807	-11.43
299.022	86.87
299.236	64.34
299.451	-33.96
299.665	-27.82
299.88	-31.91
300.094	47.96
300.309	62.29
300.523	56.15
300.737	11.09
300.952	111.44
301.166	35.67
301.381	27.48
301.595	127.83
301.809	66.39
302.024	23.38
302.238	39.76
302.452	45.91
302.667	39.76
302.881	107.35
303.095	13.14
303.309	31.57
303.524	66.39
303.738	80.72
303.952	-3.24
304.166	72.53
304.381	-33.96
304.595	138.07
304.809	25.43
305.023	68.44
305.237	60.24
305.452	74.58
305.666	74.58
305.88	86.87
306.094	52.05
306.308	95.06
306.522	125.78
306.736	31.57
306.95	33.62
307.164	39.76
307.379	105.3
307.593	11.09
307.807	7
308.021	90.96
308.235	66.39
308.449	7
308.663	41.81
308.877	62.29
309.091	2.9
309.305	76.63
309.519	21.33
309.733	4.95
309.947	23.38
310.161	62.29
310.374	31.57
310.588	41.81
310.802	54.1
311.016	68.44
311.23	31.57
311.444	-19.63
311.658	54.1
311.872	39.76
312.085	74.58
312.299	76.63
312.513	56.15
312.727	45.91
312.941	-19.63
313.154	60.24
313.368	37.72
313.582	21.33
313.796	86.87
314.009	19.29
314.223	60.24
314.437	97.11
314.651	70.48
314.864	-15.53
315.078	45.91
315.292	66.39
315.505	-31.91
315.719	101.2
315.933	54.1
316.146	41.81
316.36	86.87
316.573	31.57
316.787	74.58
317.001	76.63
317.214	15.19
317.428	-31.91
317.641	35.67
317.855	27.48
318.068	23.38
318.282	13.14
318.495	109.4
318.709	70.48
318.922	13.14
319.136	111.44
319.349	154.45
319.563	58.2
319.776	66.39
319.99	47.96
320.203	35.67
320.417	64.34
320.63	56.15
320.843	13.14
321.057	29.52
321.27	56.15
321.483	45.91
321.697	119.64
321.91	101.2
322.124	90.96
322.337	31.57
322.55	-9.39
322.763	23.38
322.977	52.05
323.19	17.24
323.403	86.87
323.617	113.49
323.83	68.44
324.043	60.24
324.256	70.48
324.469	25.43
324.683	21.33
324.896	31.57
325.109	80.72
325.322	47.96
325.535	103.25
325.748	107.35
325.962	72.53
326.175	-3.24
326.388	-5.29
326.601	52.05
326.814	-7.34
327.027	13.14
327.24	80.72
327.453	52.05
327.666	97.11
327.879	113.49
328.092	117.59
328.305	-1.19
328.518	17.24
328.731	60.24
328.944	19.29
329.157	19.29
329.37	80.72
329.583	45.91
329.796	95.06
330.009	97.11
330.222	72.53
330.435	78.68
330.648	129.88
330.861	105.3
331.073	47.96
331.286	-5.29
331.499	101.2
331.712	9.05
331.925	52.05
332.138	35.67
332.35	21.33
332.563	43.86
332.776	54.1
332.989	27.48
333.202	-27.82
333.414	107.35
333.627	27.48
333.84	78.68
334.053	41.81
334.265	7
334.478	56.15
334.691	62.29
334.903	78.68
335.116	54.1
335.329	76.63
335.541	101.2
335.754	103.25
335.966	80.72
336.179	62.29
336.392	64.34
336.604	47.96
336.817	21.33
337.029	60.24
337.242	64.34
337.454	107.35
337.667	93.01
337.88	58.2
338.092	47.96
338.305	78.68
338.517	70.48
338.729	111.44
338.942	25.43
339.154	72.53
339.367	62.29
339.579	74.58
339.792	45.91
340.004	82.77
340.217	45.91
340.429	117.59
340.641	23.38
340.854	37.72
341.066	115.54
341.278	50
341.491	37.72
341.703	37.72
341.915	17.24
342.128	127.83
342.34	23.38
342.552	72.53
342.764	2.9
342.977	23.38
343.189	70.48
343.401	58.2
343.613	-27.82
343.826	80.72
344.038	43.86
344.25	56.15
344.462	-29.87
344.674	43.86
344.886	23.38
345.099	13.14
345.311	64.34
345.523	-5.29
345.735	2.9
345.947	17.24
346.159	-5.29
346.371	25.43
346.583	125.78
346.795	54.1
347.007	31.57
347.219	17.24
347.431	115.54
347.643	-9.39
347.855	58.2
348.067	29.52
348.279	37.72
348.491	95.06
348.703	64.34
348.915	31.57
349.127	31.57
349.339	33.62
349.551	33.62
349.763	70.48
349.975	62.29
350.187	84.82
350.399	119.64
350.61	82.77
350.822	37.72
351.034	99.16
351.246	11.09
351.458	33.62
351.669	82.77
351.881	60.24
352.093	50
352.305	23.38
352.517	54.1
352.728	97.11
352.94	86.87
353.152	56.15
353.363	23.38
353.575	68.44
353.787	-15.53
353.999	47.96
354.21	99.16
354.422	43.86
354.633	62.29
354.845	-7.34
355.057	119.64
355.268	101.2
355.48	101.2
355.692	97.11
355.903	9.05
356.115	82.77
356.326	50
356.538	88.92
356.749	37.72
356.961	117.59
357.172	39.76
357.384	56.15
357.595	90.96
357.807	-3.24
358.018	58.2
358.23	37.72
358.441	31.57
358.653	9.05
358.864	64.34
359.075	33.62
359.287	123.73
359.498	90.96
359.709	82.77
359.921	72.53
360.132	27.48
360.344	90.96
360.555	2.9
360.766	117.59
360.977	25.43
361.189	131.92
361.4	-9.39
361.611	107.35
361.823	76.63
362.034	84.82
362.245	27.48
362.456	84.82
362.667	80.72
362.879	-1.19
363.09	105.3
363.301	56.15
363.512	31.57
363.723	54.1
363.935	19.29
364.146	56.15
364.357	43.86
364.568	107.35
364.779	-66.73
364.99	66.39
365.201	125.78
365.412	109.4
365.623	76.63
365.834	-27.82
366.045	-17.58
366.256	47.96
366.467	60.24
366.678	-1.19
366.889	35.67
367.1	4.95
367.311	58.2
367.522	21.33
367.733	23.38
367.944	111.44
368.155	11.09
368.366	86.87
368.577	68.44
368.788	95.06
368.999	39.76
369.209	76.63
369.42	19.29
369.631	111.44
369.842	97.11
370.053	99.16
370.264	142.16
370.474	-17.58
370.685	125.78
370.896	107.35
371.107	17.24
371.317	82.77
371.528	144.21
371.739	45.91
371.95	50
372.16	80.72
372.371	64.34
372.582	7
372.792	90.96
373.003	62.29
373.214	29.52
373.424	56.15
373.635	21.33
373.846	115.54
374.056	105.3
374.267	70.48
374.477	62.29
374.688	99.16
374.898	31.57
375.109	88.92
375.319	142.16
375.53	66.39
375.74	70.48
375.951	39.76
376.161	68.44
376.372	82.77
376.582	50
376.793	121.68
377.003	31.57
377.214	17.24
377.424	56.15
377.635	86.87
377.845	45.91
378.055	95.06
378.266	-5.29
378.476	86.87
378.686	74.58
378.897	113.49
379.107	152.4
379.317	11.09
379.528	15.19
379.738	74.58
379.948	45.91
380.158	76.63
380.369	70.48
380.579	123.73
380.789	-11.43
380.999	111.44
381.21	64.34
381.42	123.73
381.63	29.52
381.84	80.72
382.05	138.07
382.261	70.48
382.471	66.39
382.681	31.57
382.891	111.44
383.101	127.83
383.311	25.43
383.521	45.91
383.731	39.76
383.941	80.72
384.151	17.24
384.361	68.44
384.571	29.52
384.781	103.25
384.991	62.29
385.201	121.68
385.411	23.38
385.621	52.05
385.831	103.25
386.041	78.68
386.251	95.06
386.461	103.25
386.671	82.77
386.881	64.34
387.091	43.86
387.301	50
387.511	80.72
387.72	56.15
387.93	97.11
388.14	78.68
388.35	95.06
388.56	148.31
388.769	70.48
388.979	115.54
389.189	111.44
389.399	95.06
389.609	27.48
389.818	23.38
390.028	103.25
390.238	95.06
390.447	50
390.657	123.73
390.867	35.67
391.076	93.01
391.286	15.19
391.496	43.86
391.705	70.48
391.915	129.88
392.125	41.81
392.334	138.07
392.544	45.91
392.753	25.43
392.963	86.87
393.172	115.54
393.382	33.62
393.591	115.54
393.801	-3.24
394.01	193.36
394.22	107.35
394.429	150.36
394.639	41.81
394.848	35.67
395.058	84.82
395.267	195.41
395.477	80.72
395.686	109.4
395.895	72.53
396.105	107.35
396.314	84.82
396.524	2.9
396.733	58.2
396.942	170.83
397.152	84.82
397.361	82.77
397.57	68.44
397.78	84.82
397.989	88.92
398.198	105.3
398.407	129.88
398.617	129.88
398.826	121.68
399.035	60.24
399.244	88.92
399.453	136.02
399.663	88.92
399.872	43.86
400.081	80.72
400.29	160.59
400.499	72.53
400.708	168.79
400.917	93.01
401.127	88.92
401.336	99.16
401.545	150.36
401.754	117.59
401.963	136.02
402.172	101.2
402.381	72.53
402.59	146.26
402.799	123.73
403.008	117.59
403.217	93.01
403.426	107.35
403.635	72.53
403.844	123.73
404.053	185.17
404.262	113.49
404.471	195.41
404.68	129.88
404.888	131.92
405.097	174.93
405.306	146.26
405.515	217.94
405.724	164.69
405.933	164.69
406.142	250.71
406.35	150.36
406.559	97.11
406.768	222.03
406.977	199.51
407.185	195.41
407.394	299.86
407.603	234.32
407.812	185.17
408.02	185.17
408.229	277.33
408.438	248.66
408.646	226.13
408.855	234.32
409.064	254.8
409.272	205.65
409.481	293.71
409.69	230.23
409.898	330.58
410.107	277.33
410.315	281.43
410.524	277.33
410.733	306
410.941	322.38
411.15	303.95
411.358	316.24
411.567	379.73
411.775	342.86
411.984	412.5
412.192	400.21
412.401	377.68
412.609	445.26
412.818	471.89
413.026	533.33
413.234	537.42
413.443	406.35
413.651	539.47
413.86	389.97
414.068	535.37
414.276	668.49
414.485	570.19
414.693	564.04
414.901	701.26
415.11	707.4
415.318	584.52
415.526	629.58
415.734	645.96
415.943	658.25
416.151	762.7
416.359	639.82
416.567	846.66
416.776	869.19
416.984	871.24
417.192	852.81
417.4	926.54
417.608	928.58
417.817	1012.55
418.025	1078.08
418.233	1030.98
418.441	1014.6
418.649	1139.52
418.857	1217.35
419.065	1291.07
419.273	1215.3
419.481	1274.69
419.689	1430.34
419.897	1432.38
420.105	1422.14
420.313	1393.47
420.521	1471.29
420.729	1583.93
420.937	1542.97
421.145	1641.28
421.353	1688.38
421.561	1844.03
421.769	1874.74
421.977	1919.8
422.185	1913.66
422.393	2024.25
422.601	2202.42
422.809	2122.55
423.017	2020.15
423.224	2274.1
423.432	2220.85
423.64	2286.39
423.848	2411.31
424.056	2454.32
424.263	2728.75
424.471	2550.57
424.679	2671.4
424.887	2812.71
425.094	2943.78
425.302	2822.95
425.51	3115.81
425.718	3154.73
425.925	3138.34
426.133	3326.75
426.341	3490.59
426.548	3595.04
426.756	3531.55
426.964	3816.22
427.171	3871.51
427.379	4053.78
427.586	4059.93
427.794	4180.76
428.001	4154.13
428.209	4383.51
428.417	4467.47
428.624	4700.94
428.832	4741.9
429.039	4758.28
429.247	4688.65
429.454	5176.07
429.662	5655.3
429.869	5098.25
430.076	5749.5
430.284	5292.8
430.491	5520.13
430.699	5950.2
430.906	5870.33
431.114	5825.28
431.321	6353.65
431.528	6300.41
431.736	6707.95
431.943	7023.34
432.15	6920.94
432.358	6982.38
432.565	7246.57
432.772	7258.85
432.979	7535.33
433.187	7719.65
433.394	7723.74
433.601	8356.57
433.808	8450.77
434.016	8448.72
434.223	8680.14
434.43	9413.32
434.637	8891.09
434.844	9579.2
435.052	9790.14
435.259	9546.44
435.466	9718.47
435.673	9609.92
435.88	10175.16
436.087	10826.42
436.294	10943.15
436.501	10574.52
436.708	10853.04
436.915	11315.88
437.122	11623.08
437.329	11514.53
437.537	11887.26
437.743	12255.9
437.95	12253.85
438.157	12765.84
438.364	13320.84
438.571	13265.55
438.778	13204.11
438.985	14404.22
439.192	13937.28
439.399	14500.47
439.606	14131.84
439.813	14725.75
440.02	15583.85
440.227	15592.04
440.433	15159.92
440.64	15893.09
440.847	15751.78
441.054	16384.6
441.261	17234.51
441.467	16833.11
441.674	17500.75
441.881	17963.59
442.088	17986.11
442.294	17644.1
442.501	18303.55
442.708	18616.89
442.914	19153.46
443.121	20126.24
443.328	19460.65
443.534	21092.88
443.741	20582.94
443.948	20146.72
444.154	21760.52
444.361	21635.6
444.568	21754.38
444.774	21694.99
444.981	21998.09
445.187	22671.87
445.394	23357.94
445.6	23202.29
445.807	25405.91
446.013	24336.87
446.22	24906.2
446.426	25780.68
446.633	25987.53
446.839	27093.43
447.046	25897.42
447.252	27267.51
447.459	27460.02
447.665	27169.21
447.871	28500.39
448.078	29440.4
448.284	28199.34
448.491	29313.43
448.697	30210.44
448.903	30869.89
449.11	30912.89
449.316	30359.94
449.522	30781.82
449.728	31963.5
449.935	31865.2
450.141	31752.56
450.347	32446.82
450.553	31394.17
450.76	32223.59
450.966	33247.58
451.172	32637.28
451.378	33433.94
451.584	33106.27
451.791	33579.35
451.997	33534.29
452.203	34197.84
452.409	34574.66
452.615	33884.5
452.821	32665.95
453.027	32741.73
453.233	34289.99
453.44	32887.14
453.646	33421.66
453.852	33313.11
454.058	34060.62
454.264	33124.7
454.47	33689.94
454.676	33063.26
454.882	33888.59
455.088	31222.14
455.294	31418.74
455.5	32102.76
455.705	32639.33
455.911	31127.93
456.117	30704
456.323	29979.02
456.529	28250.53
456.735	29673.87
456.941	28903.84
457.147	28565.92
457.352	27713.97
457.558	27077.05
457.764	27441.59
457.97	26610.11
458.176	25999.82
458.381	26339.78
458.587	25074.13
458.793	24990.17
458.999	23507.44
459.204	25475.54
459.41	24465.89
459.616	23028.21
459.821	23054.84
460.027	23054.84
460.233	22643.2
460.438	21535.24
460.644	21588.49
460.85	20650.52
461.055	20548.12
461.261	20242.98
461.466	18686.52
461.672	18336.32
461.878	19624.49
462.083	18270.78
462.289	17539.66
462.494	17685.06
462.7	16820.82
462.905	16443.99
463.111	16988.75
463.316	17185.36
463.522	16915.03
463.727	16593.5
463.932	16349.79
464.138	16673.37
464.343	16503.39
464.549	16224.86
464.754	16605.78
464.959	16489.05
465.165	16372.32
465.37	15747.69
465.575	15180.4
465.781	15958.63
465.986	16204.38
466.191	15372.91
466.397	15159.92
466.602	14484.09
466.807	15153.77
467.012	14895.73
467.218	14779
467.423	14518.9
467.628	14662.26
467.833	15534.7
468.038	14801.52
468.244	14193.28
468.449	14893.68
468.654	14277.24
468.859	14459.51
469.064	14123.65
469.269	13494.92
469.474	13730.44
469.679	14129.79
469.885	13503.11
470.09	14027.39
470.295	13732.48
470.5	13345.42
470.705	13306.51
470.91	13240.97
471.115	13013.65
471.32	13230.73
471.525	13159.05
471.73	12774.03
471.935	12886.67
472.139	12290.71
472.344	12610.2
472.549	12317.34
472.754	12065.44
472.959	12065.44
473.164	12055.2
473.369	11584.16
473.574	11999.9
473.778	11991.71
473.983	11739.81
474.188	11598.5
474.393	11338.41
474.598	11326.12
474.802	11193
475.007	11360.94
475.212	11242.15
475.417	10842.8
475.621	10810.03
475.826	10758.83
476.031	10592.95
476.235	10326.71
476.44	10648.24
476.645	10181.31
476.849	10347.19
477.054	10209.98
477.259	10054.33
477.463	10121.91
477.668	9685.7
477.872	9994.94
478.077	9603.78
478.282	9444.04
478.486	9351.88
478.691	9368.26
478.895	9470.66
479.1	9403.08
479.304	9304.78
479.509	9032.4
479.713	9198.28
479.918	8991.44
480.122	8772.3
480.326	8895.18
480.531	8880.85
480.735	8927.95
480.94	8630.99
481.144	9052.88
481.348	8725.2
481.553	8702.67
481.757	8485.59
481.961	8792.78
482.166	8663.76
482.37	8745.68
482.574	8397.53
482.778	8485.59
482.983	8620.75
483.187	8544.98
483.391	8587.99
483.595	8637.14
483.8	8452.82
484.004	8450.77
484.208	8547.03
484.412	8647.38
484.616	8514.26
484.821	8696.53
485.025	8452.82
485.229	8669.91
485.433	8360.66
485.637	8694.48
485.841	8377.05
486.045	8399.57
486.249	8428.24
486.453	8454.87
486.657	8288.98
486.861	8557.27
487.065	8219.35
487.269	8463.06
487.473	8465.11
487.677	8671.95
487.881	8536.79
488.085	8282.84
488.289	8540.88
488.493	8458.96
488.697	8686.29
488.901	8657.62
489.105	8391.38
489.309	8395.48
489.512	8624.85
489.716	8489.68
489.92	8473.3
490.124	8504.02
490.328	8747.73
490.531	8700.62
490.735	8704.72
490.939	8794.83
491.143	8630.99
491.346	8729.3
491.55	8819.41
491.754	8706.77
491.958	8932.05
492.161	8884.94
492.365	8870.61
492.569	8930
492.772	8694.48
492.976	8970.96
493.18	8962.76
493.383	8975.05
493.587	9149.13
493.79	9079.5
493.994	9294.54
494.197	9296.58
494.401	9355.97
494.605	9298.63
494.808	9452.23
495.012	9738.94
495.215	9489.09
495.419	9716.42
495.622	9560.77
495.825	9630.4
496.029	9937.6
496.232	9988.8
496.436	9945.79
496.639	10162.87
496.843	10128.06
497.046	10377.91
497.249	10465.97
497.453	10392.25
497.656	10586.8
497.859	10529.46
498.063	10728.11
498.266	10816.18
498.469	10816.18
498.673	10896.05
498.876	11215.53
499.079	11317.93
499.282	11276.97
499.485	11489.96
499.689	11584.16
499.892	11784.87
500.095	11866.78
500.298	12135.07
500.501	12120.73
500.705	12499.61
500.908	12343.96
501.111	12417.69
501.314	12591.77
501.517	12876.43
501.72	13034.13
501.923	13001.36
502.126	13005.45
502.329	13429.38
502.532	13400.71
502.735	13415.05
502.938	13832.83
503.141	13793.92
503.344	14078.59
503.547	14058.11
503.75	14099.07
503.953	14654.07
504.156	14817.91
504.359	14801.52
504.562	14996.08
504.765	15182.45
504.968	15524.46
505.17	15774.31
505.373	15549.03
505.576	15831.65
505.779	15927.91
505.982	16028.26
506.185	16376.41
506.387	16355.93
506.59	16685.65
506.793	16882.26
506.996	16587.35
507.198	17420.88
507.401	17285.71
507.604	17422.92
507.807	17842.76
508.009	17887.81
508.212	18135.62
508.415	18606.65
508.617	18518.59
508.82	18645.56
509.022	18444.86
509.225	19026.48
509.428	19614.25
509.63	19663.4
509.833	19503.66
510.035	19870.25
510.238	20056.61
510.44	20058.66
510.643	20425.25
510.845	20644.38
511.048	20775.45
511.25	20945.43
511.453	21185.04
511.655	21641.74
511.858	21426.7
512.06	21684.75
512.262	22006.28
512.465	22096.39
512.667	22317.57
512.87	22766.07
513.072	22780.41
513.274	23298.55
513.477	23398.9
513.679	23407.09
513.881	23906.79
514.084	24117.73
514.286	24209.89
514.488	24324.58
514.69	24807.9
514.893	24928.73
515.095	25201.11
515.297	25655.76
515.499	25698.77
515.701	25858.51
515.904	26024.39
516.106	26423.75
516.308	26913.21
516.51	27255.22
516.712	27142.58
516.914	27369.91
517.116	27494.83
517.318	27752.88
517.52	27883.95
517.722	27996.59
517.925	28383.65
518.127	28791.2
518.329	29114.78
518.531	28881.31
518.733	29274.52
518.935	29716.88
519.136	29800.85
519.338	30353.8
519.54	30212.49
519.742	30955.9
519.944	31003
520.146	31502.71
520.348	31695.22
520.55	31601.01
520.752	31867.25
520.954	32375.14
521.155	32393.58
521.357	32917.86
521.559	32979.29
521.761	33767.76
521.963	33483.09
522.164	33814.87
522.366	33659.22
522.568	34109.77
522.77	34214.22
522.971	35037.5
523.173	34699.59
523.375	34924.86
523.576	35133.76
523.778	35227.96
523.98	35633.46
524.181	35846.45
524.383	35539.26
524.584	36165.93
524.786	36213.04
524.988	36454.7
525.189	36778.28
525.391	36798.76
525.592	37521.69
525.794	37200.16
525.995	37427.48
526.197	37701.91
526.398	37370.14
526.6	37783.83
526.801	38088.98
527.003	38361.36
527.204	38111.5
527.406	38684.94
527.607	38557.96
527.808	39170.3
528.01	38549.77
528.211	38836.48
528.412	39532.79
528.614	39080.19
528.815	39278.85
529.016	39635.19
529.218	39424.25
529.419	39348.48
529.62	39876.85
529.822	39422.2
530.023	39868.66
530.224	39883
530.425	39534.84
530.626	39336.19
530.828	39733.5
531.029	40472.81
531.23	39770.36
531.431	39571.71
531.632	40339.69
531.833	40095.99
532.035	40433.9
532.236	40388.85
532.437	40622.31
532.638	40394.99
532.839	40261.87
533.04	40708.33
533.241	40374.51
533.442	41099.49
533.643	40767.72
533.844	40605.93
534.045	40980.71
534.246	40198.38
534.447	40759.53
534.648	40464.62
534.849	40536.3
535.05	40458.48
535.251	40831.21
535.451	40732.9
535.652	40734.95
535.853	40378.61
536.054	40827.11
536.255	40765.67
536.456	40356.08
536.657	41101.54
536.857	40560.87
537.058	40831.21
537.259	40855.78
537.46	40921.32
537.66	40849.64
537.861	41031.91
538.062	40663.27
538.263	40560.87
538.463	40607.98
538.664	40581.35
538.865	41089.25
539.065	41158.88
539.266	40503.53
539.466	40610.03
539.667	40241.39
539.868	41154.79
540.068	40669.42
540.269	40681.7
540.469	40892.65
540.67	40573.16
540.87	40876.26
541.071	40780.01
541.271	41042.15
541.472	40589.55
541.672	40143.09
541.873	40397.04
542.073	40124.66
542.274	40956.13
542.474	40667.37
542.675	40519.92
542.875	40474.86
543.075	40329.45
543.276	40020.21
543.476	40753.38
543.676	40423.66
543.877	40648.94
544.077	40532.2
544.277	40597.74
544.478	40413.42
544.678	40757.48
544.878	40515.82
545.078	40564.97
545.279	40581.35
545.479	40171.76
545.679	40423.66
545.879	40429.8
546.079	40530.15
546.28	40208.62
546.48	40067.31
546.68	40782.06
546.88	40429.8
547.08	40390.89
547.28	40308.97
547.48	40374.51
547.68	40552.68
547.88	40091.89
548.081	40450.28
548.281	39913.72
548.481	40233.2
548.681	40487.15
548.881	40282.35
549.081	40259.82
549.28	40222.96
549.48	40274.16
549.68	40296.69
549.88	40904.93
550.08	40003.83
550.28	40327.41
550.48	40048.88
550.68	40214.77
550.88	40028.4
551.08	40126.71
551.279	40188.14
551.479	39594.23
551.679	40022.26
551.879	40182
552.079	40335.6
552.278	39975.16
552.478	40044.79
552.678	40489.2
552.878	40376.56
553.077	39989.49
553.277	39534.84
553.477	40249.58
553.676	39647.48
553.876	40159.47
554.076	39684.34
554.275	39866.61
554.475	39287.04
554.674	39635.19
554.874	39926
555.074	39700.73
555.273	39940.34
555.473	40294.64
555.672	39895.28
555.872	40118.51
556.071	39799.03
556.271	39737.59
556.47	39538.94
556.67	39561.47
556.869	39696.63
557.068	39852.28
557.268	39323.9
557.467	39641.34
557.667	39799.03
557.866	39328
558.065	39129.34
558.265	39268.61
558.464	39022.85
558.663	39667.96
558.863	38996.23
559.062	39241.98
559.261	38711.56
559.461	39383.29
559.66	38752.52
559.859	38809.86
560.058	38899.97
560.258	39319.81
560.457	38666.5
560.656	38787.33
560.855	38766.85
561.054	38824.2
561.253	38381.84
561.453	38969.6
561.652	38799.62
561.851	38754.57
562.05	38654.22
562.249	37826.84
562.448	38447.37
562.647	38234.38
562.846	38193.42
563.045	38025.49
563.244	37699.86
563.443	38383.88
563.642	37742.87
563.841	37861.65
564.04	37546.26
564.239	38201.61
564.438	37720.34
564.637	37579.03
564.836	37619.99
565.035	37359.9
565.234	37753.11
565.432	37226.78
565.631	37148.96
565.83	37402.91
566.029	37079.33
566.228	37081.38
566.427	36864.29
566.625	36974.88
566.824	36917.54
567.023	36763.94
567.222	36184.37
567.42	36720.93
567.619	36376.87
567.818	36493.61
568.016	35948.85
568.215	36553
568.414	36090.16
568.612	36194.61
568.811	35694.9
569.01	36174.13
569.208	35440.95
569.407	35782.96
569.605	35121.47
569.804	36032.82
570.002	35371.32
570.201	35674.42
570.4	35293.5
570.598	35111.23
570.797	35268.92
570.995	35129.66
571.193	34959.68
571.392	35074.37
571.59	34890.05
571.789	34871.62
571.987	35150.14
572.186	34595.14
572.384	34326.86
572.582	34791.75
572.781	35100.99
572.979	33884.5
573.177	34498.89
573.376	34120.01
573.574	33745.23
573.772	34134.35
573.971	33929.55
574.169	33950.03
574.367	33247.58
574.565	33728.85
574.763	33450.33
574.962	33311.07
575.16	32837.98
575.358	33329.5
575.556	32887.14
575.754	33186.14
575.952	32643.43
576.151	32887.14
576.349	32336.23
576.547	32328.04
576.745	32500.07
576.943	32668
577.141	32311.66
577.339	32721.25
577.537	32452.97
577.735	32221.55
577.933	31912.3
578.131	32014.7
578.329	31590.77
578.527	31820.14
578.725	31959.41
578.923	31828.34
579.121	31603.06
579.319	31570.29
579.516	31402.36
579.714	31123.83
579.912	31113.59
580.11	31072.64
580.308	30972.28
580.506	30898.56
580.704	30239.11
580.901	30613.89
581.099	30634.37
581.297	30460.29
581.495	30521.73
581.692	30232.97
581.89	30249.35
582.088	30364.04
582.285	30108.04
582.483	30482.82
582.681	30323.08
582.878	29913.48
583.076	29368.73
583.274	29974.92
583.471	29553.04
583.669	29837.71
583.866	29589.91
584.064	29591.95
584.262	29307.29
584.459	29284.76
584.657	28901.79
584.854	29344.15
585.052	28883.36
585.249	29237.66
585.447	29200.79
585.644	28742.05
585.841	28764.57
586.039	28608.93
586.236	28494.24
586.434	28316.07
586.631	28141.99
586.828	28180.9
587.026	28293.54
587.223	28070.31
587.42	28260.77
587.618	28131.75
587.815	27462.07
588.012	27687.34
588.21	27681.2
588.407	27623.86
588.604	27619.76
588.801	27408.82
588.999	27480.5
589.196	27443.63
589.393	27539.89
589.59	27308.47
589.787	27048.38
589.984	26773.95
590.182	26786.24
590.379	26913.21
590.576	26708.41
590.773	26692.03
590.97	26419.65
591.167	26732.99
591.364	26087.88
591.561	26735.04
591.758	26094.02
591.955	26067.4
592.152	26411.46
592.349	25766.35
592.546	25942.47
592.743	25973.19
592.94	25678.29
593.137	25780.68
593.334	25698.77
593.531	25287.12
593.727	25661.9
593.924	25790.92
594.121	25313.75
594.318	25481.68
594.515	25020.89
594.712	25614.8
594.908	25115.09
595.105	24869.34
595.302	24926.68
595.499	24695.26
595.696	24826.33
595.892	24519.14
596.089	24842.71
596.286	24568.29
596.482	24570.33
596.679	24541.66
596.876	24611.29
597.072	24336.87
597.269	24504.8
597.466	24072.68
597.662	23984.62
597.859	23861.74
598.055	24015.33
598.252	23775.72
598.448	23810.54
598.645	23806.44
598.841	23536.11
599.038	23407.09
599.234	23546.35
599.431	23034.36
599.627	23302.64
599.824	23308.79
600.02	23155.19
600.217	23540.21
600.413	22972.92
600.609	22796.79
600.806	22727.16
601.002	22764.03
601.198	22778.36
601.395	22637.05
601.591	22555.13
601.787	22354.43
601.984	22456.83
602.18	22819.32
602.376	22282.75
602.572	22202.88
602.769	22272.51
602.965	21924.36
603.161	22037
603.357	21959.17
603.553	21996.04
603.75	21838.34
603.946	21940.74
604.142	21922.31
604.338	21352.98
604.534	21852.68
604.73	21129.75
604.926	21131.79
605.122	21547.53
605.318	21135.89
605.514	21252.63
605.71	21010.96
605.906	21156.37
606.102	20994.58
606.298	21023.25
606.494	20816.41
606.69	20630.04
606.886	20912.66
607.082	20400.67
607.278	20984.34
607.474	20449.82
607.67	21039.64
607.866	20271.65
608.062	20613.66
608.257	20312.61
608.453	20394.53
608.649	20541.98
608.845	20501.02
609.041	20240.93
609.236	20339.23
609.432	20146.72
609.628	20109.86
609.824	20062.76
610.019	20015.65
610.215	19900.97
610.411	19909.16
610.606	19984.93
610.802	19995.17
610.998	20025.89
611.193	19575.34
611.389	19763.75
611.584	19493.42
611.78	19329.58
611.976	19319.34
612.171	19376.69
612.367	19515.95
612.562	19409.45
612.758	19104.31
612.953	19231.28
613.149	19696.17
613.344	19053.11
613.539	19368.49
613.735	19083.83
613.93	19186.22
614.126	19075.63
614.321	18895.41
614.517	18680.38
614.712	18629.18
614.907	18975.28
615.103	18838.07
615.298	18663.99
615.493	18917.94
615.688	18803.25
615.884	18659.9
616.079	18215.49
616.274	18553.4
616.47	18547.26
616.665	18637.37
616.86	18182.72
617.055	18321.98
617.25	18195.01
617.445	18375.23
617.641	17836.61
617.836	18313.79
618.031	17859.14
618.226	18225.73
618.421	18102.85
618.616	17984.07
618.811	17631.82
619.006	17973.83
619.201	17494.6
619.396	17697.35
619.591	17404.49
619.786	17728.07
619.981	17248.85
620.176	17412.68
620.371	17160.78
620.566	17265.23
620.761	17025.62
620.956	17379.92
621.151	16775.77
621.346	16882.26
621.541	16560.73
621.735	16685.65
621.93	16601.69
622.125	16659.03
622.32	16415.32
622.515	16478.81
622.709	16112.22
622.904	16251.49
623.099	16151.13
623.294	16235.1
623.488	15981.15
623.683	15936.1
623.878	15503.98
624.072	15876.71
624.267	15532.65
624.462	15495.78
624.656	15297.13
624.851	15417.96
625.046	15235.69
625.24	15307.37
625.435	15092.34
625.629	15049.33
625.824	14774.9
626.018	14994.03
626.213	14680.69
626.407	14641.78
626.602	14506.62
626.796	14672.5
626.991	14461.56
627.185	14279.29
627.38	14348.92
627.574	14238.33
627.768	14094.97
627.963	14019.2
628.157	13920.9
628.352	13912.71
628.546	13865.6
628.74	13814.4
628.935	13632.13
629.129	13509.26
629.323	13558.41
629.517	13427.34
629.712	13357.71
629.906	13607.56
630.1	13300.36
630.294	13243.02
630.489	13015.69
630.683	13197.96
630.877	12706.45
631.071	12819.09
631.265	13005.45
631.459	12710.55
631.653	12579.48
631.848	12874.38
632.042	12487.32
632.236	12427.93
632.43	12171.93
632.624	12317.34
632.818	12477.08
633.012	12018.33
633.206	12182.17
633.4	11895.46
633.594	12120.73
633.788	11897.5
633.982	12182.17
634.176	11795.11
634.369	12028.57
634.563	11711.14
634.757	11553.45
634.951	11627.17
635.145	11453.09
635.339	11526.82
635.533	11391.66
635.726	11588.26
635.92	11350.7
636.114	11268.78
636.308	11291.31
636.501	11104.94
636.695	11057.84
636.889	10869.42
637.083	10824.37
637.276	11096.75
637.47	10916.53
637.664	10678.96
637.857	10918.57
638.051	10695.35
638.244	10582.71
638.438	10603.19
638.632	10476.21
638.825	10341.05
639.019	10347.19
639.212	10402.49
639.406	10263.22
639.599	10220.22
639.793	9896.64
639.986	9689.79
640.18	10193.59
640.373	10046.14
640.567	9857.73
640.76	9792.19
640.954	9704.13
641.147	9659.07
641.34	9491.14
641.534	9634.5
641.727	9761.47
641.92	9360.07
642.114	9272.01
642.307	9261.77
642.5	9194.19
642.694	9257.67
642.887	9059.02
643.08	9071.31
643.273	8940.24
643.467	8952.52
643.66	9020.11
643.853	8809.17
644.046	8999.63
644.239	8999.63
644.432	8633.04
644.626	8606.42
644.819	8608.47
645.012	8686.29
645.205	8602.32
645.398	8700.62
645.591	8477.4
645.784	8323.8
645.977	8336.09
646.17	8166.1
646.363	8307.41
646.556	8053.47
646.749	8205.02
646.942	8094.43
647.135	7983.84
647.328	8028.89
647.521	8125.15
647.714	8018.65
647.907	7844.57
648.099	7715.55
648.292	7967.45
648.485	7934.68
648.678	7754.46
648.871	7621.35
649.064	7586.53
649.256	7543.52
649.449	7592.67
649.642	7529.19
649.835	7342.82
650.027	7246.57
650.22	7520.99
650.413	7256.81
650.605	7385.83
650.798	7199.46
650.991	7146.22
651.183	7146.22
651.376	7035.63
651.568	7244.52
651.761	6968.04
651.954	6992.62
652.146	7017.19
652.339	6894.32
652.531	6927.08
652.724	6912.75
652.916	6701.81
653.109	6701.81
653.301	6865.64
653.494	6632.18
653.686	6531.83
653.879	6773.49
654.071	6562.55
654.263	6535.92
654.456	6767.34
654.648	6503.15
654.84	6433.52
655.033	6505.2
655.225	6445.81
655.417	6343.41
655.61	6472.43
655.802	6257.4
655.994	6296.31
656.186	6177.53
656.379	6085.37
656.571	6105.85
656.763	6091.51
656.955	6036.22
657.148	6097.66
657.34	6062.84
657.532	6122.23
657.724	6013.69
657.916	6003.45
658.108	5911.29
658.3	5985.02
658.492	5911.29
658.684	5753.6
658.876	5759.74
659.068	5665.53
659.26	5548.8
659.452	5825.28
659.644	5899
659.836	5810.94
660.028	5743.36
660.22	5731.07
660.412	5491.46
660.604	5640.96
660.796	5544.7
660.988	5487.36
661.18	5364.48
661.372	5294.85
661.563	5602.05
661.755	5452.55
661.947	5366.53
662.139	5294.85
662.331	5427.97
662.522	5253.89
662.714	5159.69
662.906	5165.83
663.097	5206.79
663.289	5118.73
663.481	4975.37
663.673	5167.88
663.864	4895.5
664.056	4956.94
664.247	5026.57
664.439	4958.99
664.631	5040.9
664.822	4942.6
665.014	4789
665.205	4932.36
665.397	4764.43
665.588	4829.96
665.78	4674.32
665.971	4811.53
666.163	4735.76
666.354	4797.2
666.546	4664.08
666.737	4555.54
666.929	4602.64
667.12	4702.99
667.311	4528.91
667.503	4420.37
667.694	4596.5
667.885	4502.29
668.077	4584.21
668.268	4557.58
668.459	4596.5
668.651	4463.38
668.842	4449.04
669.033	4483.86
669.224	4365.07
669.416	4502.29
669.607	4234
669.798	4305.68
669.989	4336.4
670.18	4393.75
670.371	4375.31
670.563	4272.92
670.754	4381.46
670.945	4131.61
671.136	4141.85
671.327	4320.02
671.518	4094.74
671.709	4129.56
671.9	4205.33
672.091	4098.84
672.282	4049.69
672.473	4121.37
672.664	3998.49
672.855	4037.4
673.046	4035.35
673.237	4037.4
673.428	4041.5
673.619	4031.26
673.809	3945.24
674	3967.77
674.191	3965.72
674.382	3975.96
674.573	3857.18
674.764	3785.5
674.954	3846.94
675.145	3814.17
675.336	3883.8
675.527	3803.93
675.717	3918.62
675.908	3752.73
676.099	3830.55
676.289	3844.89
676.48	3783.45
676.671	3758.88
676.861	3752.73
677.052	3615.52
677.243	3644.19
677.433	3752.73
677.624	3742.49
677.814	3724.06
678.005	3855.13
678.195	3664.67
678.386	3629.85
678.576	3728.16
678.767	3537.7
678.957	3578.65
679.148	3676.96
679.338	3627.81
679.529	3629.85
679.719	3625.76
679.909	3627.81
680.1	3572.51
680.29	3744.54
680.481	3549.98
680.671	3427.11
680.861	3468.06
681.052	3556.13
681.242	3515.17
681.432	3605.28
681.622	3552.03
681.813	3394.34
682.003	3472.16
682.193	3506.98
682.383	3480.35
682.573	3511.07
682.764	3398.43
682.954	3562.27
683.144	3531.55
683.334	3404.58
683.524	3336.99
683.714	3433.25
683.904	3470.11
684.094	3406.63
684.284	3427.11
684.474	3382.05
684.664	3355.43
684.854	3474.21
685.044	3341.09
685.234	3408.67
685.424	3371.81
685.614	3302.18
685.804	3470.11
685.994	3336.99
686.184	3291.94
686.374	3326.75
686.564	3287.84
686.753	3236.64
686.943	3273.51
687.133	3250.98
687.323	3298.08
687.513	3392.29
687.702	3201.83
687.892	3197.73
688.082	3261.22
688.272	3173.16
688.461	3148.58
688.651	3175.2
688.841	3226.4
689.03	3146.53
689.22	3173.16
689.41	3160.87
689.599	3134.25
689.789	3169.06
689.979	3150.63
690.168	3169.06
690.358	3060.52
690.547	3103.53
690.737	2990.89
690.926	2986.79
691.116	2964.26
691.305	3058.47
691.495	3083.05
691.684	3140.39
691.874	3093.29
692.063	2984.74
692.252	3044.13
692.442	3054.37
692.631	2978.6
692.82	2968.36
693.01	3009.32
693.199	2980.65
693.388	3035.94
693.578	2855.72
693.767	2890.54
693.956	2980.65
694.146	2884.39
694.335	2994.98
694.524	2925.35
694.713	2923.3
694.902	2906.92
695.092	2892.59
695.281	2935.59
695.47	2876.2
695.659	2818.86
695.848	2810.67
696.037	3035.94
696.226	2947.88
696.415	2958.12
696.604	2845.48
696.793	2937.64
696.982	2802.47
697.171	2757.42
697.36	2986.79
697.549	2863.91
697.738	2898.73
697.927	2855.72
698.116	2878.25
698.305	2820.91
698.494	2835.24
698.683	2831.15
698.872	2988.84
699.061	2835.24
699.25	2941.74
699.438	2874.15
699.627	2949.93
699.816	2835.24
700.005	2720.56
700.193	2855.72
700.382	2849.58
700.571	2829.1
700.76	2857.77
700.948	2814.76
701.137	2765.61
701.326	2892.59
701.514	2745.13
701.703	2870.06
701.892	2806.57
702.08	2933.54
702.269	2847.53
702.457	2722.6
702.646	2738.99
702.834	2792.23
703.023	2702.12
703.212	2788.14
703.4	2741.04
703.589	2763.56
703.777	2779.95
703.965	2691.88
704.154	2855.72
704.342	2661.16
704.531	2730.8
704.719	2845.48
704.907	2775.85
705.096	2812.71
705.284	2712.36
705.472	2657.07
705.661	2845.48
705.849	2757.42
706.037	2822.95
706.226	2759.47
706.414	2765.61
706.602	2667.31
706.79	2728.75
706.979	2691.88
707.167	2677.55
707.355	2650.92
707.543	2566.96
707.731	2689.84
707.919	2669.36
708.107	2614.06
708.296	2648.88
708.484	2665.26
708.672	2661.16
708.86	2687.79
709.048	2628.4
709.236	2693.93
709.424	2669.36
709.612	2595.63
709.8	2638.64
709.988	2550.57
710.176	2585.39
710.364	2646.83
710.551	2542.38
710.739	2571.05
710.927	2595.63
711.115	2560.81
711.303	2640.69
711.491	2562.86
711.679	2614.06
711.866	2564.91
712.054	2505.52
712.242	2480.94
712.43	2605.87
712.617	2540.33
712.805	2493.23
712.993	2556.72
713.181	2622.25
713.368	2579.25
713.556	2622.25
713.744	2536.24
713.931	2468.66
714.119	2487.09
714.306	2399.02
714.494	2372.4
714.682	2464.56
714.869	2474.8
715.057	2544.43
715.244	2513.71
715.432	2458.42
715.619	2401.07
715.807	2485.04
715.994	2429.74
716.182	2388.78
716.369	2534.19
716.556	2454.32
716.744	2372.4
716.931	2476.85
717.119	2384.69
717.306	2343.73
717.493	2456.37
717.681	2263.86
717.868	2390.83
718.055	2421.55
718.242	2337.59
718.43	2333.49
718.617	2444.08
718.804	2372.4
718.991	2378.55
719.179	2366.26
719.366	2323.25
719.553	2403.12
719.74	2368.31
719.927	2347.83
720.114	2247.48
720.301	2259.76
720.488	2224.95
720.676	2261.81
720.863	2171.7
721.05	2233.14
721.237	2247.48
721.424	2290.48
721.611	2356.02
721.798	2220.85
721.985	2155.32
722.172	2104.12
722.358	2267.95
722.545	2210.61
722.732	2253.62
722.919	2210.61
723.106	2233.14
723.293	2179.89
723.48	2183.99
723.667	2167.6
723.853	2257.71
724.04	2147.12
724.227	2173.75
724.414	2112.31
724.6	2126.64
724.787	2155.32
724.974	2155.32
725.161	2177.84
725.347	2108.21
725.534	2108.21
725.72	2155.32
725.907	1993.53
726.094	2151.22
726.28	2167.6
726.467	2161.46
726.653	1948.47
726.84	2143.03
727.027	2171.7
727.213	1991.48
727.4	2093.88
727.586	2151.22
727.773	2143.03
727.959	2046.77
728.145	1950.52
728.332	2159.41
728.518	2001.72
728.705	2104.12
728.891	1964.86
729.077	1956.66
729.264	2112.31
729.45	1962.81
729.636	1927.99
729.823	1981.24
730.009	2059.06
730.195	1907.51
730.382	1991.48
730.568	1956.66
730.754	1930.04
730.94	2063.16
731.126	1956.66
731.313	1930.04
731.499	1964.86
731.685	1950.52
731.871	1948.47
732.057	2069.3
732.243	1997.62
732.429	1844.03
732.615	1897.27
732.801	1887.03
732.987	1835.83
733.173	1915.7
733.359	1811.26
733.545	1856.31
733.731	1946.42
733.917	1934.14
734.103	1919.8
734.289	1958.71
734.475	1835.83
734.661	1946.42
734.847	1938.23
735.033	1813.31
735.219	1813.31
735.404	1958.71
735.59	1723.2
735.776	1913.66
735.962	1899.32
736.148	1919.8
736.333	1788.73
736.519	1833.79
736.705	1884.98
736.89	1815.35
737.076	1796.92
737.262	1731.39
737.447	1755.96
737.633	1661.76
737.819	1796.92
738.004	1831.74
738.19	1747.77
738.375	1833.79
738.561	1708.86
738.747	1741.63
738.932	1669.95
739.118	1747.77
739.303	1702.72
739.489	1821.5
739.674	1639.23
739.859	1645.37
740.045	1762.11
740.23	1827.64
740.416	1637.18
740.601	1717.05
740.786	1741.63
740.972	1672
741.157	1631.04
741.342	1680.19
741.528	1661.76
741.713	1643.32
741.898	1751.87
742.084	1624.89
742.269	1602.36
742.454	1577.79
742.639	1706.81
742.824	1598.27
743.01	1598.27
743.195	1596.22
743.38	1626.94
743.565	1540.93
743.75	1489.73
743.935	1538.88
744.12	1579.84
744.305	1528.64
744.49	1504.06
744.675	1473.34
744.86	1442.62
745.045	1512.25
745.23	1536.83
745.415	1522.49
745.6	1508.16
745.785	1473.34
745.97	1407.81
746.155	1393.47
746.34	1483.58
746.525	1397.57
746.71	1520.45
746.895	1473.34
747.079	1383.23
747.264	1401.66
747.449	1479.49
747.634	1463.1
747.819	1372.99
748.003	1377.09
748.188	1370.94
748.373	1379.14
748.557	1391.42
748.742	1327.94
748.927	1289.03
749.111	1274.69
749.296	1268.55
749.481	1354.56
749.665	1280.83
749.85	1307.46
750.034	1340.22
750.219	1225.54
750.404	1276.74
750.588	1207.11
750.773	1221.44
750.957	1213.25
751.141	1317.7
751.326	1182.53
751.51	1162.05
751.695	1235.78
751.879	1205.06
752.064	1207.11
752.248	1198.92
752.432	1233.73
752.617	1217.35
752.801	1151.81
752.985	1108.8
753.17	1162.05
753.354	1139.52
753.538	1129.28
753.722	1039.17
753.907	1139.52
754.091	1196.87
754.275	1123.14
754.459	994.12
754.643	1098.56
754.828	1082.18
755.012	1166.15
755.196	934.73
755.38	1035.08
755.564	1012.55
755.748	1014.6
755.932	1033.03
756.116	1039.17
756.3	961.35
756.484	987.97
756.668	934.73
756.852	1004.36
757.036	949.06
757.22	1002.31
757.404	955.21
757.588	979.78
757.772	942.92
757.956	1000.26
758.14	1006.41
758.323	969.54
758.507	1041.22
758.691	934.73
758.875	947.01
759.059	912.2
759.242	926.54
759.426	994.12
759.61	955.21
759.794	856.9
759.977	920.39
760.161	869.19
760.345	766.79
760.528	885.58
760.712	899.91
760.895	924.49
761.079	918.34
761.263	824.14
761.446	879.43
761.63	881.48
761.813	807.75
761.997	863.05
762.18	836.42
762.364	830.28
762.547	744.27
762.731	793.42
762.914	817.99
763.098	936.78
763.281	873.29
763.464	846.66
763.648	762.7
763.831	811.85
764.015	746.31
764.198	742.22
764.381	795.47
764.564	760.65
764.748	820.04
764.931	781.13
765.114	736.07
765.297	844.62
765.481	684.87
765.664	766.79
765.847	801.61
766.03	764.75
766.213	750.41
766.397	734.03
766.58	738.12
766.763	717.64
766.946	740.17
767.129	723.79
767.312	748.36
767.495	756.55
767.678	717.64
767.861	824.14
768.044	797.51
768.227	693.07
768.41	799.56
768.593	725.83
768.776	586.57
768.959	734.03
769.142	754.51
769.324	705.35
769.507	705.35
769.69	682.83
769.873	678.73
770.056	746.31
770.239	729.93
770.421	691.02
770.604	688.97
770.787	678.73
770.97	672.59
771.152	686.92
771.335	693.07
771.518	617.29
771.7	717.64
771.883	678.73
772.066	586.57
772.248	635.72
772.431	598.86
772.613	670.54
772.796	652.11
772.978	684.87
773.161	680.78
773.343	648.01
773.526	662.35
773.708	639.82
773.891	580.43
774.073	545.61
774.256	609.1
774.438	602.96
774.621	627.53
774.803	586.57
774.985	605
775.168	615.24
775.35	598.86
775.532	611.15
775.715	588.62
775.897	639.82
776.079	637.77
776.261	553.8
776.444	535.37
776.626	527.18
776.808	623.44
776.99	582.48
777.173	576.33
777.355	516.94
777.537	510.8
777.719	566.09
777.901	504.65
778.083	475.98
778.265	420.69
778.447	504.65
778.629	512.85
778.811	518.99
778.993	594.76
779.175	457.55
779.357	494.41
779.539	422.73
779.721	449.36
779.903	529.23
780.085	531.28
780.267	469.84
780.449	410.45
780.631	465.74
780.812	424.78
780.994	435.02
781.176	488.27
781.358	449.36
781.54	457.55
781.721	471.89
781.903	488.27
782.085	521.04
782.267	416.59
782.448	514.89
782.63	414.54
782.812	420.69
782.993	379.73
783.175	357.2
783.357	351.06
783.538	396.11
783.72	375.63
783.901	396.11
784.083	359.25
784.264	363.34
784.446	373.58
784.627	443.21
784.809	375.63
784.99	414.54
785.172	355.15
785.353	455.5
785.535	365.39
785.716	416.59
785.897	404.3
786.079	502.61
786.26	396.11
786.441	430.93
786.623	410.45
786.804	414.54
786.985	398.16
787.167	373.58
787.348	412.5
787.529	398.16
787.71	396.11
787.891	291.66
788.073	306
788.254	379.73
788.435	381.78
788.616	320.34
788.797	293.71
788.978	269.14
789.159	275.28
789.34	320.34
789.522	385.87
789.703	332.62
789.884	291.66
790.065	262.99
790.246	277.33
790.427	308.05
790.607	293.71
790.788	310.1
790.969	344.91
791.15	351.06
791.331	314.19
791.512	303.95
791.693	262.99
791.874	291.66
792.054	355.15
792.235	361.3
792.416	301.9
792.597	254.8
792.778	291.66
792.958	344.91
793.139	361.3
793.32	234.32
793.5	279.38
793.681	353.1
793.862	207.7
794.042	254.8
794.223	265.04
794.404	246.61
794.584	154.45
794.765	258.9
794.945	154.45
795.126	289.62
795.306	230.23
795.487	324.43
795.667	230.23
795.848	267.09
796.028	242.51
796.209	273.23
796.389	219.99
796.57	232.27
796.75	283.47
796.93	199.51
797.111	246.61
797.291	217.94
797.471	176.98
797.652	222.03
797.832	203.6
798.012	256.85
798.192	222.03
798.373	232.27
798.553	142.16
798.733	269.14
798.913	205.65
799.093	226.13
799.274	195.41
799.454	301.9
799.634	170.83
799.814	172.88
799.994	207.7
800.174	242.51
800.354	203.6
800.534	64.34
800.714	154.45
800.894	295.76
801.074	170.83
801.254	256.85
801.434	242.51
801.614	199.51
801.794	170.83
801.974	668.49
802.154	166.74
802.334	291.66
802.514	187.22
802.693	199.51
802.873	205.65
803.053	230.23
803.233	150.36
803.413	154.45
803.592	222.03
803.772	185.17
803.952	256.85
804.131	93.01
804.311	164.69
804.491	228.18
804.67	197.46
804.85	152.4
805.03	219.99
805.209	205.65
805.389	189.27
805.568	146.26
805.748	166.74
805.928	258.9
806.107	183.12
806.287	156.5
806.466	224.08
806.646	179.03
806.825	140.12
807.004	140.12
807.184	113.49
807.363	236.37
807.543	131.92
807.722	123.73
807.901	148.31
808.081	127.83
808.26	133.97
808.439	154.45
808.619	195.41
808.798	191.31
808.977	148.31
809.156	191.31
809.336	125.78
809.515	146.26
809.694	76.63
809.873	115.54
810.052	138.07
810.231	156.5
810.411	129.88
810.59	183.12
810.769	176.98
810.948	191.31
811.127	146.26
811.306	127.83
811.485	138.07
811.664	246.61
811.843	140.12
812.022	113.49
812.201	168.79
812.38	164.69
812.559	107.35
812.737	136.02
812.916	21.33
813.095	117.59
813.274	107.35
813.453	142.16
813.632	187.22
813.811	166.74
813.989	131.92
814.168	136.02
814.347	144.21
814.526	101.2
814.704	111.44
814.883	168.79
815.062	125.78
815.24	121.68
815.419	101.2
815.598	129.88
815.776	84.82
815.955	138.07
816.133	82.77
816.312	162.64
816.49	103.25
816.669	170.83
816.847	125.78
817.026	131.92
817.204	78.68
817.383	138.07
817.561	93.01
817.74	123.73
817.918	127.83
818.097	152.4
818.275	113.49
818.453	86.87
818.632	113.49
818.81	129.88
818.988	60.24
819.167	109.4
819.345	136.02
819.523	144.21
819.701	113.49
819.879	95.06
820.058	125.78
820.236	133.97
820.414	47.96
820.592	45.91
820.77	105.3
820.948	21.33
821.127	66.39
821.305	84.82
821.483	45.91
821.661	101.2
821.839	86.87
822.017	35.67
822.195	117.59
822.373	136.02
822.551	119.64
822.729	97.11
822.907	23.38
823.085	111.44
823.262	29.52
823.44	95.06
823.618	58.2
823.796	111.44
823.974	99.16
824.152	76.63
824.329	43.86
824.507	150.36
824.685	142.16
824.863	123.73
825.04	74.58
825.218	99.16
825.396	37.72
825.574	66.39
825.751	72.53
825.929	88.92
826.107	82.77
826.284	117.59
826.462	142.16
826.639	74.58
826.817	121.68
826.994	115.54
827.172	72.53
827.349	99.16
827.527	66.39
827.704	43.86
827.882	58.2
828.059	31.57
828.237	82.77
828.414	52.05
828.591	70.48
828.769	93.01
828.946	101.2
829.124	52.05
829.301	78.68
829.478	142.16
829.655	97.11
829.833	113.49
830.01	25.43
830.187	84.82
830.364	78.68
830.542	105.3
830.719	64.34
830.896	131.92
831.073	37.72
831.25	97.11
831.427	43.86
831.604	52.05
831.782	27.48
831.959	101.2
832.136	78.68
832.313	123.73
832.49	60.24
832.667	39.76
832.844	39.76
833.021	78.68
833.198	101.2
833.374	84.82
833.551	58.2
833.728	54.1
833.905	103.25
834.082	35.67
834.259	41.81
834.436	111.44
834.612	-17.58
834.789	111.44
834.966	66.39
835.143	70.48
835.319	58.2
835.496	95.06
835.673	35.67
835.85	131.92
836.026	93.01
836.203	19.29
836.38	-7.34
836.556	62.29
836.733	7
836.909	93.01
837.086	82.77
837.262	90.96
837.439	72.53
837.616	121.68
837.792	84.82
837.968	50
838.145	62.29
838.321	105.3
838.498	64.34
838.674	72.53
838.851	80.72
839.027	74.58
839.203	115.54
839.38	66.39
839.556	80.72
839.732	58.2
839.909	68.44
840.085	23.38
840.261	-29.87
840.437	76.63
840.614	68.44
840.79	101.2
840.966	47.96
841.142	21.33
841.318	93.01
841.494	84.82
841.671	109.4
841.847	62.29
842.023	25.43
842.199	23.38
842.375	62.29
842.551	66.39
842.727	19.29
842.903	97.11
843.079	35.67
843.255	68.44
843.431	70.48
843.607	60.24
843.783	74.58
843.959	39.76
844.134	52.05
844.31	45.91
844.486	78.68
844.662	-3.24
844.838	113.49
845.013	54.1
845.189	60.24
845.365	35.67
845.541	35.67
845.716	17.24
845.892	78.68
846.068	60.24
846.244	39.76
846.419	76.63
846.595	-7.34
846.77	68.44
846.946	50
847.122	68.44
847.297	-11.43
847.473	117.59
847.648	58.2
847.824	62.29
847.999	-17.58
848.175	82.77
848.35	39.76
848.526	17.24
848.701	-15.53
848.876	101.2
849.052	7
849.227	0.85
849.403	54.1
849.578	7
849.753	-9.39
849.929	86.87
850.104	72.53
850.279	11.09
850.454	62.29
850.63	39.76
850.805	-9.39
850.98	66.39
851.155	31.57
851.33	41.81
851.505	-17.58
851.681	60.24
851.856	58.2
852.031	76.63
852.206	80.72
852.381	74.58
852.556	-21.67
852.731	-7.34
852.906	88.92
853.081	70.48
853.256	66.39
853.431	45.91
853.606	64.34
853.781	21.33
853.956	25.43
854.131	70.48
854.305	74.58
854.48	25.43
854.655	41.81
854.83	13.14
855.005	15.19
855.18	103.25
855.354	41.81
855.529	111.44
855.704	35.67
855.879	72.53
856.053	0.85
856.228	76.63
856.403	19.29
856.577	70.48
856.752	39.76
856.926	80.72
857.101	152.4
857.276	78.68
857.45	56.15
857.625	25.43
857.799	-21.67
857.974	13.14
858.148	43.86
858.323	25.43
858.497	97.11
858.672	60.24
858.846	-3.24
859.02	9.05
859.195	17.24
859.369	52.05
859.543	50
859.718	7
859.892	4.95
860.066	41.81
860.241	45.91
860.415	41.81
860.589	56.15
860.763	9.05
860.938	27.48
861.112	82.77
861.286	76.63
861.46	11.09
861.634	27.48
861.808	25.43
861.982	23.38
862.157	0.85
862.331	-38.06
862.505	2.9
862.679	56.15
862.853	19.29
863.027	33.62
863.201	84.82
863.375	31.57
863.549	70.48
863.722	93.01
863.896	105.3
864.07	27.48
864.244	13.14
864.418	11.09
864.592	19.29
864.766	64.34
864.939	-13.48
865.113	64.34
865.287	-25.77
865.461	56.15
865.634	29.52
865.808	-1.19
865.982	-119.98
866.156	2.9
866.329	74.58
866.503	50
866.676	-7.34
866.85	39.76
867.024	29.52
867.197	25.43
867.371	-42.15
867.544	41.81
867.718	138.07
867.891	56.15
868.065	-5.29
868.238	21.33
868.412	21.33
868.585	72.53
868.759	101.2
868.932	-11.43
869.105	43.86
869.279	56.15
869.452	64.34
869.625	64.34
869.799	74.58
869.972	-13.48
870.145	-11.43
870.319	-40.11
870.492	70.48
870.665	37.72
870.838	119.64
871.011	-42.15
871.185	60.24
871.358	-23.72
871.531	-15.53
871.704	-3.24
871.877	-7.34
872.05	37.72
872.223	-7.34
872.396	54.1
872.569	105.3
872.742	17.24
872.915	35.67
873.088	2.9
873.261	-5.29
873.434	50
873.607	115.54
873.78	15.19
873.953	2.9
874.126	11.09
874.299	103.25
874.471	17.24
874.644	68.44
874.817	-1.19
874.99	43.86
875.163	11.09
875.335	-36.01
875.508	-9.39
875.681	80.72
875.853	0.85
876.026	52.05
876.199	-1.19
876.371	68.44
876.544	56.15
876.717	-68.78
876.889	-7.34
877.062	-7.34
877.234	9.05
877.407	131.92
877.579	125.78
877.752	35.67
877.924	66.39
878.097	4.95
878.269	-1.19
878.442	62.29
878.614	9.05
878.786	-5.29
878.959	62.29
879.131	31.57
879.303	45.91
879.476	66.39
879.648	101.2
879.82	21.33
879.993	2.9
880.165	56.15
880.337	-87.21
880.509	43.86
880.681	-31.91
880.854	25.43
881.026	-23.72
881.198	113.49
881.37	-19.63
881.542	107.35
881.714	70.48
881.886	17.24
882.058	52.05
882.23	58.2
882.402	13.14
882.574	2.9
882.746	52.05
882.918	90.96
883.09	56.15
883.262	31.57
883.434	39.76
883.606	-15.53
883.778	-11.43
883.95	82.77
884.122	31.57
884.293	15.19
884.465	93.01
884.637	86.87
884.809	-48.3
884.98	15.19
885.152	68.44
885.324	37.72
885.496	52.05
885.667	50
885.839	13.14
886.011	72.53
886.182	37.72
886.354	45.91
886.525	-44.2
886.697	99.16
886.869	-21.67
887.04	-21.67
887.212	19.29
887.383	76.63
887.555	-17.58
887.726	-13.48
887.897	4.95
888.069	60.24
888.24	17.24
888.412	29.52
888.583	160.59
888.754	-1.19
888.926	43.86
889.097	0.85
889.268	-40.11
889.44	13.14
889.611	21.33
889.782	9.05
889.953	-13.48
890.125	111.44
890.296	-48.3
890.467	2.9
890.638	-11.43
890.809	41.81
890.98	7
891.151	-21.67
891.323	60.24
891.494	90.96
891.665	2.9
891.836	-13.48
892.007	-11.43
892.178	43.86
892.349	90.96
892.52	-38.06
892.691	29.52
892.862	27.48
893.032	2.9
893.203	-21.67
893.374	76.63
893.545	50
893.716	-3.24
893.887	88.92
894.057	-21.67
894.228	-5.29
894.399	9.05
894.57	-11.43
894.74	0.85
894.911	23.38
895.082	-11.43
895.253	21.33
895.423	27.48
895.594	74.58
895.764	37.72
895.935	50
896.106	35.67
896.276	60.24
896.447	4.95
896.617	31.57
896.788	-40.11
896.958	39.76
897.129	0.85
897.299	11.09
897.47	-5.29
897.64	66.39
897.81	35.67
897.981	35.67
898.151	47.96
898.322	80.72
898.492	27.48
898.662	-62.63
898.832	58.2
899.003	47.96
899.173	-15.53
899.343	37.72
899.513	-38.06
