Data from USB4F104151__1__12-34-44-907.txt Node

Date: Fri Mar 14 12:34:44 EDT 2025
User: louis
Spectrometer: USB4F10415
Trigger mode: 4
Integration Time (sec): 2.000000E-2
Scans to average: 1
Electric dark correction enabled: true
Nonlinearity correction enabled: false
Boxcar width: 0
XAxis mode: Wavelengths
Number of Pixels in Spectrum: 3648
>>>>>Begin Spectral Data<<<<<
178.204	-81.07
178.424	-81.07
178.644	-81.07
178.864	-97.45
179.084	-175.27
179.304	31.57
179.524	-64.68
179.744	-5.29
179.964	50
180.184	56.15
180.404	-17.58
180.624	-9.39
180.844	-5.29
181.064	9.05
181.283	21.33
181.503	-27.82
181.723	-38.06
181.943	-38.06
182.163	11.09
182.383	9.05
182.602	23.38
182.822	35.67
183.042	-76.97
183.262	37.72
183.482	58.2
183.701	-29.87
183.921	-21.67
184.141	2.9
184.361	33.62
184.58	-9.39
184.8	82.77
185.02	-1.19
185.239	-11.43
185.459	-13.48
185.679	9.05
185.898	-38.06
186.118	-23.72
186.338	80.72
186.557	-3.24
186.777	-5.29
186.997	29.52
187.216	-54.44
187.436	58.2
187.655	-5.29
187.875	-13.48
188.095	31.57
188.314	60.24
188.534	-62.63
188.753	23.38
188.973	-21.67
189.192	47.96
189.412	19.29
189.631	54.1
189.851	-36.01
190.07	33.62
190.29	-1.19
190.509	64.34
190.729	-66.73
190.948	43.86
191.168	113.49
191.387	58.2
191.607	-46.25
191.826	80.72
192.045	-25.77
192.265	-7.34
192.484	19.29
192.704	54.1
192.923	31.57
193.142	111.44
193.362	31.57
193.581	17.24
193.8	31.57
194.02	58.2
194.239	11.09
194.458	43.86
194.678	2.9
194.897	-23.72
195.116	25.43
195.335	80.72
195.555	41.81
195.774	-13.48
195.993	-29.87
196.212	80.72
196.432	64.34
196.651	80.72
196.87	11.09
197.089	27.48
197.308	62.29
197.528	-13.48
197.747	33.62
197.966	0.85
198.185	19.29
198.404	31.57
198.623	90.96
198.842	-5.29
199.062	23.38
199.281	140.12
199.5	-9.39
199.719	-23.72
199.938	56.15
200.157	31.57
200.376	33.62
200.595	90.96
200.814	90.96
201.033	17.24
201.252	88.92
201.471	60.24
201.69	15.19
201.909	78.68
202.128	21.33
202.347	72.53
202.566	-58.54
202.785	13.14
203.004	25.43
203.223	68.44
203.442	-5.29
203.661	50
203.879	23.38
204.098	64.34
204.317	-11.43
204.536	64.34
204.755	54.1
204.974	21.33
205.193	136.02
205.411	4.95
205.63	19.29
205.849	19.29
206.068	29.52
206.287	-50.35
206.505	33.62
206.724	58.2
206.943	37.72
207.162	19.29
207.381	41.81
207.599	50
207.818	39.76
208.037	-33.96
208.255	41.81
208.474	9.05
208.693	58.2
208.911	-17.58
209.13	13.14
209.349	52.05
209.567	29.52
209.786	11.09
210.005	84.82
210.223	-9.39
210.442	-19.63
210.661	15.19
210.879	88.92
211.098	17.24
211.316	66.39
211.535	25.43
211.753	-9.39
211.972	23.38
212.191	13.14
212.409	-21.67
212.628	2.9
212.846	84.82
213.065	-27.82
213.283	-13.48
213.502	82.77
213.72	103.25
213.938	11.09
214.157	-13.48
214.375	88.92
214.594	-13.48
214.812	76.63
215.031	17.24
215.249	64.34
215.467	-19.63
215.686	84.82
215.904	101.2
216.122	17.24
216.341	50
216.559	-1.19
216.778	47.96
216.996	90.96
217.214	-5.29
217.432	74.58
217.651	47.96
217.869	-5.29
218.087	9.05
218.306	2.9
218.524	50
218.742	-36.01
218.96	80.72
219.179	37.72
219.397	82.77
219.615	101.2
219.833	37.72
220.051	86.87
220.27	66.39
220.488	35.67
220.706	27.48
220.924	-5.29
221.142	43.86
221.36	27.48
221.578	27.48
221.796	52.05
222.015	70.48
222.233	-21.67
222.451	23.38
222.669	-99.5
222.887	43.86
223.105	54.1
223.323	7
223.541	27.48
223.759	62.29
223.977	25.43
224.195	-21.67
224.413	9.05
224.631	17.24
224.849	-11.43
225.067	25.43
225.285	2.9
225.503	62.29
225.721	-33.96
225.939	13.14
226.157	62.29
226.375	111.44
226.592	-3.24
226.81	33.62
227.028	13.14
227.246	-7.34
227.464	66.39
227.682	62.29
227.9	-3.24
228.117	29.52
228.335	39.76
228.553	37.72
228.771	60.24
228.989	45.91
229.206	-33.96
229.424	23.38
229.642	-11.43
229.86	-1.19
230.077	64.34
230.295	52.05
230.513	21.33
230.731	47.96
230.948	58.2
231.166	78.68
231.384	-1.19
231.601	17.24
231.819	74.58
232.037	0.85
232.254	33.62
232.472	43.86
232.689	35.67
232.907	62.29
233.125	25.43
233.342	-1.19
233.56	-52.39
233.777	-23.72
233.995	43.86
234.213	23.38
234.43	23.38
234.648	50
234.865	39.76
235.083	2.9
235.3	64.34
235.518	103.25
235.735	33.62
235.953	52.05
236.17	64.34
236.388	37.72
236.605	17.24
236.822	41.81
237.04	23.38
237.257	31.57
237.475	41.81
237.692	-25.77
237.909	27.48
238.127	-9.39
238.344	80.72
238.562	35.67
238.779	-23.72
238.996	56.15
239.214	45.91
239.431	76.63
239.648	-23.72
239.865	47.96
240.083	-36.01
240.3	2.9
240.517	25.43
240.735	13.14
240.952	21.33
241.169	15.19
241.386	39.76
241.603	17.24
241.821	-1.19
242.038	43.86
242.255	60.24
242.472	-1.19
242.689	-25.77
242.907	15.19
243.124	37.72
243.341	52.05
243.558	-9.39
243.775	47.96
243.992	21.33
244.209	72.53
244.426	60.24
244.643	-7.34
244.86	-15.53
245.078	33.62
245.295	39.76
245.512	47.96
245.729	-33.96
245.946	25.43
246.163	25.43
246.38	39.76
246.597	27.48
246.814	-5.29
247.031	-36.01
247.248	62.29
247.464	58.2
247.681	68.44
247.898	29.52
248.115	0.85
248.332	-7.34
248.549	64.34
248.766	45.91
248.983	25.43
249.2	45.91
249.417	47.96
249.633	-50.35
249.85	64.34
250.067	-11.43
250.284	60.24
250.501	19.29
250.717	31.57
250.934	-29.87
251.151	62.29
251.368	129.88
251.585	76.63
251.801	74.58
252.018	-9.39
252.235	-3.24
252.451	54.1
252.668	35.67
252.885	23.38
253.102	37.72
253.318	4.95
253.535	-11.43
253.752	23.38
253.968	29.52
254.185	-54.44
254.401	11.09
254.618	27.48
254.835	33.62
255.051	78.68
255.268	27.48
255.484	-11.43
255.701	50
255.917	43.86
256.134	60.24
256.351	-60.59
256.567	-5.29
256.784	43.86
257	15.19
257.217	31.57
257.433	29.52
257.65	-21.67
257.866	11.09
258.082	37.72
258.299	35.67
258.515	80.72
258.732	0.85
258.948	-17.58
259.165	31.57
259.381	-91.31
259.597	52.05
259.814	64.34
260.03	-52.39
260.246	45.91
260.463	35.67
260.679	19.29
260.895	74.58
261.112	29.52
261.328	0.85
261.544	-7.34
261.761	23.38
261.977	37.72
262.193	-23.72
262.409	-50.35
262.626	56.15
262.842	31.57
263.058	2.9
263.274	76.63
263.49	-11.43
263.707	4.95
263.923	4.95
264.139	27.48
264.355	31.57
264.571	133.97
264.787	27.48
265.004	-15.53
265.22	-23.72
265.436	64.34
265.652	9.05
265.868	47.96
266.084	-5.29
266.3	58.2
266.516	7
266.732	-21.67
266.948	-3.24
267.164	25.43
267.38	21.33
267.596	84.82
267.812	66.39
268.028	21.33
268.244	-31.91
268.46	2.9
268.676	64.34
268.892	-40.11
269.108	43.86
269.324	17.24
269.54	97.11
269.756	-29.87
269.972	23.38
270.188	80.72
270.403	15.19
270.619	74.58
270.835	15.19
271.051	17.24
271.267	-9.39
271.483	37.72
271.698	17.24
271.914	41.81
272.13	99.16
272.346	84.82
272.562	17.24
272.777	136.02
272.993	-17.58
273.209	19.29
273.425	80.72
273.64	33.62
273.856	-50.35
274.072	29.52
274.287	25.43
274.503	31.57
274.719	58.2
274.934	15.19
275.15	-36.01
275.366	52.05
275.581	11.09
275.797	21.33
276.012	4.95
276.228	-40.11
276.444	72.53
276.659	68.44
276.875	-36.01
277.09	-7.34
277.306	-50.35
277.521	144.21
277.737	13.14
277.952	4.95
278.168	25.43
278.383	70.48
278.599	21.33
278.814	66.39
279.03	68.44
279.245	86.87
279.461	-1.19
279.676	29.52
279.892	88.92
280.107	68.44
280.322	-3.24
280.538	88.92
280.753	-3.24
280.969	74.58
281.184	50
281.399	-3.24
281.615	117.59
281.83	23.38
282.045	-21.67
282.26	56.15
282.476	50
282.691	31.57
282.906	99.16
283.122	39.76
283.337	41.81
283.552	90.96
283.767	17.24
283.983	52.05
284.198	-11.43
284.413	-7.34
284.628	35.67
284.843	70.48
285.058	31.57
285.274	70.48
285.489	88.92
285.704	-5.29
285.919	-38.06
286.134	-33.96
286.349	2.9
286.564	82.77
286.779	-11.43
286.995	-17.58
287.21	-11.43
287.425	45.91
287.64	-17.58
287.855	64.34
288.07	-40.11
288.285	72.53
288.5	23.38
288.715	-29.87
288.93	56.15
289.145	9.05
289.36	84.82
289.575	0.85
289.79	50
290.004	17.24
290.219	17.24
290.434	78.68
290.649	9.05
290.864	31.57
291.079	105.3
291.294	37.72
291.509	2.9
291.724	9.05
291.938	0.85
292.153	9.05
292.368	58.2
292.583	95.06
292.798	31.57
293.012	47.96
293.227	-1.19
293.442	84.82
293.657	-40.11
293.871	-25.77
294.086	97.11
294.301	66.39
294.516	68.44
294.73	39.76
294.945	15.19
295.16	86.87
295.374	88.92
295.589	15.19
295.804	70.48
296.018	9.05
296.233	76.63
296.447	60.24
296.662	43.86
296.877	15.19
297.091	7
297.306	68.44
297.52	19.29
297.735	60.24
297.949	23.38
298.164	37.72
298.378	43.86
298.593	13.14
298.807	74.58
299.022	33.62
299.236	78.68
299.451	60.24
299.665	33.62
299.88	95.06
300.094	54.1
300.309	41.81
300.523	80.72
300.737	9.05
300.952	78.68
301.166	4.95
301.381	-38.06
301.595	-21.67
301.809	37.72
302.024	4.95
302.238	23.38
302.452	47.96
302.667	72.53
302.881	80.72
303.095	45.91
303.309	37.72
303.524	31.57
303.738	33.62
303.952	7
304.166	0.85
304.381	-36.01
304.595	35.67
304.809	27.48
305.023	-54.44
305.237	31.57
305.452	13.14
305.666	-31.91
305.88	107.35
306.094	95.06
306.308	-40.11
306.522	35.67
306.736	9.05
306.95	95.06
307.164	7
307.379	23.38
307.593	76.63
307.807	50
308.021	97.11
308.235	-9.39
308.449	31.57
308.663	45.91
308.877	33.62
309.091	64.34
309.305	43.86
309.519	-29.87
309.733	11.09
309.947	2.9
310.161	76.63
310.374	11.09
310.588	35.67
310.802	-27.82
311.016	-40.11
311.23	4.95
311.444	-56.49
311.658	70.48
311.872	56.15
312.085	-33.96
312.299	13.14
312.513	56.15
312.727	68.44
312.941	-11.43
313.154	74.58
313.368	-33.96
313.582	-15.53
313.796	45.91
314.009	-11.43
314.223	-5.29
314.437	33.62
314.651	19.29
314.864	99.16
315.078	19.29
315.292	25.43
315.505	-68.78
315.719	68.44
315.933	0.85
316.146	45.91
316.36	31.57
316.573	58.2
316.787	60.24
317.001	25.43
317.214	-68.78
317.428	37.72
317.641	60.24
317.855	43.86
318.068	35.67
318.282	31.57
318.495	72.53
318.709	-15.53
318.922	31.57
319.136	66.39
319.349	43.86
319.563	33.62
319.776	9.05
319.99	-50.35
320.203	88.92
320.417	15.19
320.63	25.43
320.843	82.77
321.057	50
321.27	27.48
321.483	-7.34
321.697	43.86
321.91	99.16
322.124	7
322.337	27.48
322.55	-68.78
322.763	119.64
322.977	72.53
323.19	-33.96
323.403	19.29
323.617	-1.19
323.83	70.48
324.043	62.29
324.256	17.24
324.469	37.72
324.683	-3.24
324.896	-11.43
325.109	-33.96
325.322	47.96
325.535	19.29
325.748	47.96
325.962	23.38
326.175	27.48
326.388	0.85
326.601	13.14
326.814	-11.43
327.027	-66.73
327.24	86.87
327.453	80.72
327.666	27.48
327.879	47.96
328.092	80.72
328.305	84.82
328.518	-5.29
328.731	19.29
328.944	-48.3
329.157	45.91
329.37	2.9
329.583	133.97
329.796	47.96
330.009	-1.19
330.222	60.24
330.435	29.52
330.648	29.52
330.861	58.2
331.073	-27.82
331.286	17.24
331.499	41.81
331.712	-52.39
331.925	-36.01
332.138	43.86
332.35	58.2
332.563	15.19
332.776	80.72
332.989	17.24
333.202	64.34
333.414	-13.48
333.627	0.85
333.84	50
334.053	82.77
334.265	27.48
334.478	39.76
334.691	27.48
334.903	21.33
335.116	66.39
335.329	-62.63
335.541	107.35
335.754	90.96
335.966	43.86
336.179	56.15
336.392	45.91
336.604	35.67
336.817	68.44
337.029	99.16
337.242	93.01
337.454	107.35
337.667	27.48
337.88	27.48
338.092	-17.58
338.305	21.33
338.517	84.82
338.729	31.57
338.942	33.62
339.154	41.81
339.367	25.43
339.579	74.58
339.792	7
340.004	64.34
340.217	68.44
340.429	35.67
340.641	39.76
340.854	86.87
341.066	62.29
341.278	82.77
341.491	43.86
341.703	35.67
341.915	-1.19
342.128	31.57
342.34	15.19
342.552	-5.29
342.764	29.52
342.977	35.67
343.189	97.11
343.401	-38.06
343.613	-9.39
343.826	50
344.038	29.52
344.25	56.15
344.462	-17.58
344.674	99.16
344.886	-33.96
345.099	-13.48
345.311	72.53
345.523	39.76
345.735	45.91
345.947	66.39
346.159	43.86
346.371	52.05
346.583	7
346.795	76.63
347.007	86.87
347.219	43.86
347.431	7
347.643	78.68
347.855	-23.72
348.067	64.34
348.279	2.9
348.491	-1.19
348.703	33.62
348.915	25.43
349.127	58.2
349.339	82.77
349.551	11.09
349.763	47.96
349.975	13.14
350.187	60.24
350.399	-27.82
350.61	17.24
350.822	45.91
351.034	113.49
351.246	23.38
351.458	88.92
351.669	56.15
351.881	27.48
352.093	-29.87
352.305	31.57
352.517	43.86
352.728	68.44
352.94	88.92
353.152	78.68
353.363	-48.3
353.575	60.24
353.787	152.4
353.999	52.05
354.21	78.68
354.422	99.16
354.633	37.72
354.845	33.62
355.057	4.95
355.268	60.24
355.48	90.96
355.692	52.05
355.903	29.52
356.115	15.19
356.326	-13.48
356.538	-15.53
356.749	23.38
356.961	54.1
357.172	7
357.384	-9.39
357.595	29.52
357.807	37.72
358.018	11.09
358.23	31.57
358.441	101.2
358.653	111.44
358.864	60.24
359.075	-1.19
359.287	105.3
359.498	41.81
359.709	72.53
359.921	29.52
360.132	43.86
360.344	2.9
360.555	21.33
360.766	64.34
360.977	86.87
361.189	23.38
361.4	17.24
361.611	4.95
361.823	33.62
362.034	41.81
362.245	23.38
362.456	45.91
362.667	29.52
362.879	-62.63
363.09	47.96
363.301	25.43
363.512	41.81
363.723	-27.82
363.935	-11.43
364.146	37.72
364.357	0.85
364.568	74.58
364.779	21.33
364.99	88.92
365.201	45.91
365.412	86.87
365.623	-1.19
365.834	84.82
366.045	58.2
366.256	64.34
366.467	4.95
366.678	17.24
366.889	29.52
367.1	21.33
367.311	-1.19
367.522	86.87
367.733	17.24
367.944	84.82
368.155	33.62
368.366	41.81
368.577	15.19
368.788	9.05
368.999	-23.72
369.209	88.92
369.42	129.88
369.631	47.96
369.842	17.24
370.053	58.2
370.264	-1.19
370.474	62.29
370.685	58.2
370.896	74.58
371.107	80.72
371.317	50
371.528	9.05
371.739	95.06
371.95	-21.67
372.16	70.48
372.371	62.29
372.582	76.63
372.792	-9.39
373.003	15.19
373.214	37.72
373.424	125.78
373.635	31.57
373.846	103.25
374.056	-25.77
374.267	82.77
374.477	13.14
374.688	84.82
374.898	50
375.109	127.83
375.319	93.01
375.53	45.91
375.74	68.44
375.951	7
376.161	25.43
376.372	107.35
376.582	21.33
376.793	-27.82
377.003	39.76
377.214	45.91
377.424	58.2
377.635	52.05
377.845	0.85
378.055	29.52
378.266	45.91
378.476	88.92
378.686	23.38
378.897	80.72
379.107	78.68
379.317	72.53
379.528	68.44
379.738	97.11
379.948	-1.19
380.158	25.43
380.369	-15.53
380.579	90.96
380.789	68.44
380.999	31.57
381.21	4.95
381.42	162.64
381.63	-5.29
381.84	103.25
382.05	9.05
382.261	62.29
382.471	84.82
382.681	93.01
382.891	41.81
383.101	66.39
383.311	41.81
383.521	54.1
383.731	29.52
383.941	43.86
384.151	2.9
384.361	115.54
384.571	37.72
384.781	21.33
384.991	129.88
385.201	29.52
385.411	95.06
385.621	60.24
385.831	52.05
386.041	35.67
386.251	-17.58
386.461	82.77
386.671	21.33
386.881	123.73
387.091	80.72
387.301	84.82
387.511	111.44
387.72	-5.29
387.93	39.76
388.14	0.85
388.35	47.96
388.56	103.25
388.769	107.35
388.979	17.24
389.189	7
389.399	117.59
389.609	127.83
389.818	140.12
390.028	84.82
390.238	58.2
390.447	33.62
390.657	113.49
390.867	41.81
391.076	54.1
391.286	45.91
391.496	70.48
391.705	60.24
391.915	62.29
392.125	27.48
392.334	97.11
392.544	-21.67
392.753	95.06
392.963	172.88
393.172	103.25
393.382	82.77
393.591	160.59
393.801	-3.24
394.01	125.78
394.22	52.05
394.429	64.34
394.639	-1.19
394.848	39.76
395.058	93.01
395.267	103.25
395.477	52.05
395.686	41.81
395.895	105.3
396.105	33.62
396.314	93.01
396.524	52.05
396.733	146.26
396.942	78.68
397.152	115.54
397.361	148.31
397.57	121.68
397.78	88.92
397.989	33.62
398.198	93.01
398.407	117.59
398.617	179.03
398.826	93.01
399.035	80.72
399.244	154.45
399.453	41.81
399.663	60.24
399.872	166.74
400.081	72.53
400.29	84.82
400.499	84.82
400.708	119.64
400.917	127.83
401.127	136.02
401.336	84.82
401.545	90.96
401.754	29.52
401.963	95.06
402.172	82.77
402.381	90.96
402.59	107.35
402.799	95.06
403.008	131.92
403.217	138.07
403.426	191.31
403.635	133.97
403.844	64.34
404.053	170.83
404.262	148.31
404.471	150.36
404.68	140.12
404.888	86.87
405.097	174.93
405.306	119.64
405.515	144.21
405.724	219.99
405.933	109.4
406.142	222.03
406.35	185.17
406.559	176.98
406.768	170.83
406.977	199.51
407.185	181.07
407.394	236.37
407.603	183.12
407.812	209.75
408.02	209.75
408.229	185.17
408.438	256.85
408.646	199.51
408.855	224.08
409.064	320.34
409.272	209.75
409.481	222.03
409.69	246.61
409.898	250.71
410.107	346.96
410.315	295.76
410.524	306
410.733	346.96
410.941	375.63
411.15	326.48
411.358	408.4
411.567	375.63
411.775	271.19
411.984	392.02
412.192	381.78
412.401	478.03
412.609	473.93
412.818	432.97
413.026	494.41
413.234	480.08
413.443	529.23
413.651	467.79
413.86	541.52
414.068	607.05
414.276	643.92
414.485	562
414.693	609.1
414.901	645.96
415.11	668.49
415.318	713.55
415.526	740.17
415.734	695.11
415.943	781.13
416.151	768.84
416.359	797.51
416.567	742.22
416.776	754.51
416.984	850.76
417.192	918.34
417.4	840.52
417.608	971.59
417.817	979.78
418.025	987.97
418.233	1043.27
418.441	953.16
418.649	1108.8
418.857	1260.35
419.065	1073.99
419.273	1133.38
419.481	1180.48
419.689	1319.75
419.897	1389.38
420.105	1418.05
420.313	1467.2
420.521	1538.88
420.729	1407.81
420.937	1569.6
421.145	1637.18
421.353	1674.04
421.561	1811.26
421.769	1805.11
421.977	1846.07
422.185	1848.12
422.393	1932.09
422.601	2069.3
422.809	2114.36
423.017	2028.34
423.224	2186.04
423.432	2337.59
423.64	2208.56
423.848	2458.42
424.056	2480.94
424.263	2564.91
424.471	2536.24
424.679	2749.23
424.887	2786.09
425.094	2894.63
425.302	2890.54
425.51	3011.37
425.718	3175.2
425.925	3097.38
426.133	3173.16
426.341	3470.11
426.548	3543.84
426.756	3599.13
426.964	3562.27
427.171	3914.52
427.379	3971.86
427.586	4037.4
427.794	3969.82
428.001	4262.68
428.209	4444.95
428.417	4393.75
428.624	4592.4
428.832	4666.13
429.039	4594.45
429.247	4766.48
429.454	5128.97
429.662	5460.74
429.869	5180.17
430.076	5593.86
430.284	5395.2
430.491	5638.91
430.699	5962.49
430.906	5806.84
431.114	5866.24
431.321	6046.46
431.528	6515.44
431.736	6761.2
431.943	7195.37
432.15	6742.77
432.358	7090.92
432.565	7310.05
432.772	7215.85
432.979	7666.4
433.187	7736.03
433.394	7727.84
433.601	8254.17
433.808	8196.82
434.016	8223.45
434.223	8667.86
434.43	9249.48
434.637	8921.81
434.844	9441.99
435.052	9890.49
435.259	9589.44
435.466	9863.87
435.673	9605.83
435.88	10441.4
436.087	10937.01
436.294	11111.08
436.501	10642.1
436.708	10971.82
436.915	11307.69
437.122	11668.13
437.329	11625.12
437.537	12069.53
437.743	12229.27
437.95	12165.79
438.157	12948.11
438.364	13259.4
438.571	13128.33
438.778	13292.17
438.985	14582.39
439.192	14088.83
439.399	14520.95
439.606	14092.93
439.813	14944.88
440.02	15741.54
440.227	15567.46
440.433	15217.26
440.64	15989.35
440.847	15581.8
441.054	16263.77
441.261	17033.81
441.467	16988.75
441.674	17418.83
441.881	17996.35
442.088	17932.87
442.294	17828.42
442.501	18305.6
442.708	18594.36
442.914	19388.97
443.121	20177.44
443.328	19587.63
443.534	20752.92
443.741	20220.45
443.948	20212.26
444.154	21580.3
444.361	21379.6
444.568	21758.47
444.774	21768.71
444.981	21985.8
445.187	22690.3
445.394	23411.18
445.6	23323.12
445.807	25678.29
446.013	24416.74
446.22	24852.95
446.426	25919.95
446.633	25971.15
446.839	27025.85
447.046	25807.31
447.252	27169.21
447.459	27095.48
447.665	27165.11
447.871	28383.65
448.078	29350.29
448.284	28139.94
448.491	29088.15
448.697	30261.64
448.903	30714.24
449.11	30527.88
449.316	29804.94
449.522	30878.08
449.728	31828.34
449.935	32088.43
450.141	31895.92
450.347	32627.04
450.553	31684.98
450.76	31764.85
450.966	33419.61
451.172	32790.88
451.378	33773.91
451.584	32702.82
451.791	33794.39
451.997	33640.79
452.203	34238.79
452.409	34058.57
452.615	34111.82
452.821	32827.74
453.027	32508.26
453.233	34156.88
453.44	32715.11
453.646	33210.71
453.852	33511.77
454.058	33898.83
454.264	32817.5
454.47	33608.02
454.676	32715.11
454.882	33827.15
455.088	31297.91
455.294	31752.56
455.5	31793.52
455.705	32010.6
455.911	31064.44
456.117	30472.58
456.323	29919.63
456.529	28328.36
456.735	29684.11
456.941	28715.42
457.147	28066.22
457.352	27638.19
457.558	27277.75
457.764	27314.61
457.97	26870.2
458.176	26257.86
458.381	26456.51
458.587	24943.06
458.793	25188.82
458.999	23794.15
459.204	25389.52
459.41	24670.68
459.616	23007.73
459.821	22979.06
460.027	23075.32
460.233	22290.95
460.438	21176.85
460.644	21733.9
460.85	20767.26
461.055	20443.68
461.261	20331.04
461.466	18774.58
461.672	18125.38
461.878	19687.98
462.083	18301.5
462.289	17969.73
462.494	17672.78
462.7	16923.22
462.905	16603.74
463.111	17046.1
463.316	16831.06
463.522	16720.47
463.727	16822.87
463.932	16702.04
464.138	16398.94
464.343	16568.92
464.549	16190.05
464.754	16411.23
464.959	16360.03
465.165	16423.51
465.37	15641.19
465.575	15225.45
465.781	15762.02
465.986	16065.12
466.191	15362.67
466.397	15061.62
466.602	14359.16
466.807	14815.86
467.012	14948.98
467.218	14740.08
467.423	14641.78
467.628	14543.48
467.833	15391.34
468.038	14621.3
468.244	14183.04
468.449	14760.56
468.654	14457.46
468.859	14369.4
469.064	14322.3
469.269	13709.96
469.474	13877.89
469.679	14107.26
469.885	13691.52
470.09	13822.59
470.295	13699.72
470.5	13443.72
470.705	13699.72
470.91	13261.45
471.115	12845.71
471.32	13310.6
471.525	13159.05
471.73	12946.06
471.935	12698.26
472.139	12602.01
472.344	12612.24
472.549	12284.57
472.754	12264.09
472.959	12163.74
473.164	11842.21
473.369	11719.33
473.574	11960.99
473.778	11909.79
473.983	11803.3
474.188	11575.97
474.393	11285.16
474.598	11377.32
474.802	11221.67
475.007	11123.37
475.212	10955.44
475.417	10603.19
475.621	10820.27
475.826	10638
476.031	10595
476.235	10328.76
476.44	10584.76
476.645	10427.06
476.849	10302.14
477.054	10117.82
477.259	9951.93
477.463	10029.76
477.668	9587.4
477.872	9978.56
478.077	9538.24
478.282	9519.81
478.486	9470.66
478.691	9341.64
478.895	9212.62
479.1	9220.81
479.304	9441.99
479.509	9169.61
479.713	9237.19
479.918	8878.8
480.122	8940.24
480.326	9206.47
480.531	8843.98
480.735	8798.93
480.94	8479.44
481.144	8821.45
481.348	8622.8
481.553	8667.86
481.757	8385.24
481.961	8635.09
482.166	8745.68
482.37	8450.77
482.574	8514.26
482.778	8657.62
482.983	8633.04
483.187	8520.4
483.391	8635.09
483.595	8530.64
483.8	8485.59
484.004	8499.92
484.208	8583.89
484.412	8176.34
484.616	8538.84
484.821	8520.4
485.025	8397.53
485.229	8536.79
485.433	8288.98
485.637	8645.33
485.841	8393.43
486.045	8403.67
486.249	8518.36
486.453	8563.41
486.657	8377.05
486.861	8542.93
487.065	8399.57
487.269	8407.77
487.473	8121.05
487.677	8559.31
487.881	8542.93
488.085	8493.78
488.289	8565.46
488.493	8278.74
488.697	8471.25
488.901	8385.24
489.105	8522.45
489.309	8635.09
489.512	8542.93
489.716	8440.53
489.92	8504.02
490.124	8747.73
490.328	8794.83
490.531	8592.08
490.735	8735.44
490.939	8807.12
491.143	8692.43
491.346	8626.9
491.55	8674
491.754	8766.16
491.958	8852.17
492.161	8807.12
492.365	8907.47
492.569	8792.78
492.772	8788.69
492.976	9093.83
493.18	8919.76
493.383	9206.47
493.587	9110.22
493.79	9112.27
493.994	8846.03
494.197	9161.42
494.401	9472.71
494.605	9272.01
494.808	9466.56
495.012	9509.57
495.215	9628.35
495.419	9695.94
495.622	9421.51
495.825	9710.27
496.029	9847.49
496.232	9902.78
496.436	9726.66
496.639	10238.65
496.843	10130.11
497.046	10291.9
497.249	10324.66
497.453	10332.86
497.656	10533.56
497.859	10498.74
498.063	10896.05
498.266	10754.74
498.469	10857.14
498.673	10957.49
498.876	11090.6
499.079	11291.31
499.282	11276.97
499.485	11565.73
499.689	11649.7
499.892	11739.81
500.095	11866.78
500.298	11940.51
500.501	11973.28
500.705	12233.37
500.908	12348.06
501.111	12417.69
501.314	12755.6
501.517	12673.68
501.72	12980.88
501.923	12841.62
502.126	13255.31
502.329	13214.35
502.532	13480.58
502.735	13591.17
502.938	14051.97
503.141	13929.09
503.344	14185.08
503.547	13976.19
503.75	14430.84
503.953	14623.35
504.156	14580.34
504.359	14680.69
504.562	14830.2
504.765	15276.65
504.968	15469.16
505.17	15438.44
505.373	15635.05
505.576	15714.92
505.779	15827.56
505.982	15979.11
506.185	16286.3
506.387	16282.2
506.59	16634.46
506.793	17046.1
506.996	16781.91
507.198	17334.86
507.401	17109.58
507.604	17525.32
507.807	17914.44
508.009	17607.24
508.212	18281.02
508.415	18397.76
508.617	18610.75
508.82	18473.53
509.022	18713.14
509.225	19155.51
509.428	19194.42
509.63	19438.12
509.833	19499.56
510.035	19995.17
510.238	19788.33
510.44	20118.05
510.643	20435.49
510.845	20662.81
511.048	20537.88
511.25	20961.81
511.453	21371.41
511.655	21895.69
511.858	21590.54
512.06	21916.17
512.262	22059.52
512.465	22088.2
512.667	22680.06
512.87	22544.89
513.072	22991.35
513.274	23103.99
513.477	23167.48
513.679	23728.62
513.881	23945.7
514.084	23980.52
514.286	24297.95
514.488	24211.94
514.69	25031.13
514.893	25051.61
515.095	25033.18
515.297	26063.3
515.499	25596.37
515.701	25958.86
515.904	26292.68
516.106	26208.71
516.308	26642.88
516.51	26864.06
516.712	26743.23
516.914	27328.95
517.116	27490.74
517.318	27777.45
517.52	27969.96
517.722	28473.76
517.925	28633.5
518.127	28957.08
518.329	29096.35
518.531	29026.71
518.733	29700.5
518.935	29591.95
519.136	29774.22
519.338	30638.47
519.54	30448
519.742	30845.31
519.944	31076.73
520.146	31371.64
520.348	31203.71
520.55	31609.2
520.752	31842.67
520.954	32569.7
521.155	32307.56
521.357	32711.01
521.559	32952.67
521.761	33407.32
521.963	33497.43
522.164	33542.49
522.366	33622.36
522.568	33939.79
522.77	34120.01
522.971	34842.95
523.173	34578.76
523.375	34951.49
523.576	35068.22
523.778	34996.54
523.98	35645.75
524.181	35647.8
524.383	35551.54
524.584	36372.78
524.786	36329.77
524.988	35977.52
525.189	36794.66
525.391	36421.93
525.592	36757.8
525.794	37310.75
525.995	37394.71
526.197	37697.81
526.398	37706.01
526.6	38048.02
526.801	38099.22
527.003	38205.71
527.204	38379.79
527.406	38670.6
527.607	38441.23
527.808	38746.37
528.01	38285.58
528.211	38650.12
528.412	39295.23
528.614	39203.07
528.815	39278.85
529.016	39618.81
529.218	39219.45
529.419	39358.72
529.62	39944.44
529.822	39495.93
530.023	39737.59
530.224	39981.3
530.425	39917.81
530.626	39258.37
530.828	39457.02
531.029	40474.86
531.23	39854.33
531.431	39954.68
531.632	40001.78
531.833	40331.5
532.035	39995.64
532.236	40505.58
532.437	40313.07
532.638	40356.08
532.839	40253.68
533.04	40585.45
533.241	40325.36
533.442	40839.4
533.643	40614.12
533.844	40689.9
534.045	40702.18
534.246	40114.42
534.447	40796.39
534.648	40732.9
534.849	40698.09
535.05	41005.28
535.251	40917.22
535.451	40308.97
535.652	40780.01
535.853	40816.87
536.054	40614.12
536.255	40808.68
536.456	40386.8
536.657	41138.4
536.857	40177.9
537.058	40665.32
537.259	40835.3
537.46	40560.87
537.66	40542.44
537.861	40730.86
538.062	40399.08
538.263	40839.4
538.463	40155.38
538.664	40659.18
538.865	40976.61
539.065	40954.08
539.266	40327.41
539.466	40861.93
539.667	40245.49
539.868	40947.94
540.068	40468.72
540.269	40526.06
540.469	40763.62
540.67	40546.54
540.87	40739.05
541.071	40298.73
541.271	40253.68
541.472	40612.07
541.672	40089.84
541.873	40059.12
542.073	40536.3
542.274	40626.41
542.474	40415.47
542.675	40438
542.875	40763.62
543.075	40356.08
543.276	40202.48
543.476	40607.98
543.676	40376.56
543.877	40585.45
544.077	40407.28
544.277	40208.62
544.478	40354.03
544.678	40364.27
544.878	40263.92
545.078	40450.28
545.279	40014.07
545.479	40343.79
545.679	39911.67
545.879	40571.11
546.079	40204.53
546.28	40210.67
546.48	40292.59
546.68	40421.61
546.88	40214.77
547.08	40530.15
547.28	40155.38
547.48	40231.15
547.68	40573.16
547.88	40063.22
548.081	40415.47
548.281	40313.07
548.481	40069.36
548.681	40411.37
548.881	39944.44
549.081	40169.71
549.28	39954.68
549.48	40874.21
549.68	40210.67
549.88	40677.61
550.08	40153.33
550.28	40519.92
550.48	40212.72
550.68	40218.86
550.88	39891.19
551.08	40214.77
551.279	40124.66
551.479	39981.3
551.679	40470.76
551.879	39835.89
552.079	40052.98
552.278	39880.95
552.478	40390.89
552.678	40194.29
552.878	40329.45
553.077	39876.85
553.277	39698.68
553.477	40243.44
553.676	39991.54
553.876	40050.93
554.076	39440.64
554.275	39878.9
554.475	39788.79
554.674	40104.18
554.874	40302.83
555.074	39956.72
555.273	40018.16
555.473	39827.7
555.672	39328
555.872	39631.1
556.071	39960.82
556.271	39858.42
556.47	39708.92
556.67	39276.8
556.869	39301.37
557.068	39487.74
557.268	39768.31
557.467	39508.22
557.667	39477.5
557.866	39696.63
558.065	39383.29
558.265	39514.36
558.464	39063.81
558.663	39235.84
558.863	38478.09
559.062	39780.6
559.261	38736.13
559.461	39344.38
559.66	38709.51
559.859	38891.78
560.058	38990.08
560.258	39100.67
560.457	38527.24
560.656	39143.68
560.855	38285.58
561.054	38764.81
561.253	38134.03
561.453	38856.96
561.652	38459.66
561.851	38840.58
562.05	38863.11
562.249	38123.79
562.448	38807.81
562.647	37970.19
562.846	38422.8
563.045	38367.5
563.244	37875.99
563.443	38172.94
563.642	37548.31
563.841	37767.45
564.04	37896.47
564.239	38140.18
564.438	37634.33
564.637	38050.06
564.836	37720.34
565.035	37220.64
565.234	37267.74
565.432	37124.38
565.631	36931.87
565.83	37486.87
566.029	36956.45
566.228	37052.7
566.427	37021.98
566.625	36878.63
566.824	36479.27
567.023	37058.85
567.222	36229.42
567.42	36933.92
567.619	36553
567.818	36544.81
568.016	36448.55
568.215	36532.52
568.414	36014.38
568.612	36350.25
568.811	35860.79
569.01	36071.73
569.208	35766.58
569.407	35776.82
569.605	35529.02
569.804	35729.72
570.002	35365.18
570.201	35729.72
570.4	35025.21
570.598	35129.66
570.797	35017.02
570.995	35268.92
571.193	34472.26
571.392	35066.17
571.59	34672.96
571.789	35127.61
571.987	34531.65
572.186	34787.65
572.384	34382.15
572.582	34599.24
572.781	34644.29
572.979	34136.4
573.177	34064.72
573.376	34156.88
573.574	33616.21
573.772	33874.26
573.971	33720.66
574.169	33722.71
574.367	33542.49
574.565	33653.08
574.763	33243.48
574.962	33118.56
575.16	32995.68
575.358	33151.32
575.556	32768.35
575.754	33540.44
575.952	32813.41
576.151	33251.67
576.349	32852.32
576.547	32330.09
576.745	32581.99
576.943	32637.28
577.141	32266.6
577.339	32278.89
577.537	32287.08
577.735	31971.69
577.933	31979.89
578.131	31895.92
578.329	31742.32
578.527	31607.16
578.725	31654.26
578.923	31682.93
579.121	31312.25
579.319	31670.64
579.516	31641.97
579.714	31289.72
579.912	31015.29
580.11	31164.79
580.308	31117.69
580.506	31162.75
580.704	30476.68
580.901	30949.76
581.099	31005.05
581.297	30335.37
581.495	30460.29
581.692	30861.69
581.89	30175.62
582.088	30265.74
582.285	29829.52
582.483	30501.25
582.681	30046.6
582.878	30222.73
583.076	29575.57
583.274	30163.34
583.471	29714.83
583.669	29614.48
583.866	29487.51
584.064	29600.15
584.262	29352.34
584.459	29571.47
584.657	29165.98
584.854	29313.43
585.052	28909.98
585.249	29090.2
585.447	28821.92
585.644	28797.34
585.841	28676.51
586.039	29264.28
586.236	28330.41
586.434	28174.76
586.631	28242.34
586.828	28244.39
587.026	28580.26
587.223	27974.06
587.42	28133.8
587.618	27826.6
587.815	27582.9
588.012	27824.56
588.21	27570.61
588.407	27826.6
588.604	27521.46
588.801	27292.08
588.999	27376.05
589.196	27376.05
589.393	27156.92
589.59	27066.81
589.787	27066.81
589.984	26657.21
590.182	26696.13
590.379	26743.23
590.576	26743.23
590.773	26663.36
590.97	26270.15
591.167	26616.26
591.364	26206.66
591.561	26522.05
591.758	26202.57
591.955	26190.28
592.152	26233.29
592.349	25919.95
592.546	25887.18
592.743	25821.64
592.94	25393.62
593.137	25893.32
593.334	25543.12
593.531	25330.13
593.727	26042.82
593.924	25467.34
594.121	25448.91
594.318	25426.39
594.515	25086.42
594.712	25115.09
594.908	25160.15
595.105	25119.19
595.302	24918.49
595.499	24994.26
595.696	24758.75
595.892	24252.9
596.089	24701.4
596.286	24539.61
596.482	24359.39
596.679	24480.22
596.876	24351.2
597.072	24173.03
597.269	24095.21
597.466	23947.75
597.662	23982.57
597.859	24017.38
598.055	23921.13
598.252	23638.51
598.448	23896.55
598.645	23615.98
598.841	23577.07
599.038	23857.64
599.234	23353.84
599.431	23085.56
599.627	23349.75
599.824	23491.05
600.02	23069.17
600.217	23081.46
600.413	22800.89
600.609	22718.97
600.806	22872.57
601.002	22995.45
601.198	22610.43
601.395	22481.41
601.591	22528.51
601.787	22532.61
601.984	22209.03
602.18	22311.42
602.376	22278.66
602.572	22303.23
602.769	21977.61
602.965	22131.2
603.161	22221.31
603.357	22008.33
603.553	21856.78
603.75	21750.28
603.946	21715.47
604.142	21856.78
604.338	21377.55
604.534	21668.36
604.73	21422.61
604.926	21510.67
605.122	21164.56
605.318	21144.08
605.514	21172.75
605.71	20959.77
605.906	21123.6
606.102	21201.43
606.298	21033.49
606.494	20892.18
606.69	20810.26
606.886	20582.94
607.082	20496.92
607.278	20740.63
607.474	20458.01
607.67	20750.87
607.866	20281.89
608.062	20660.76
608.257	20357.66
608.453	20443.68
608.649	20175.39
608.845	19956.26
609.041	20271.65
609.236	20402.72
609.432	20132.39
609.628	20099.62
609.824	19870.25
610.019	19948.07
610.215	20032.04
610.411	19921.45
610.606	19714.6
610.802	19747.37
610.998	19739.18
611.193	19597.87
611.389	19677.74
611.584	19319.34
611.78	19372.59
611.976	19651.11
612.171	19544.62
612.367	19354.16
612.562	19262
612.758	19020.34
612.953	19194.42
613.149	19479.08
613.344	19085.87
613.539	19546.67
613.735	19229.23
613.93	18926.13
614.126	18784.82
614.321	18905.65
614.517	19249.71
614.712	18979.38
614.907	18821.69
615.103	18948.66
615.298	18758.2
615.493	18983.48
615.688	18547.26
615.884	18829.88
616.079	18498.11
616.274	18436.67
616.47	18479.68
616.665	18516.54
616.86	18268.73
617.055	18209.34
617.25	18137.66
617.445	18586.17
617.641	18072.13
617.836	18041.41
618.031	17625.67
618.226	18240.06
618.421	17664.58
618.616	18162.24
618.811	17658.44
619.006	17979.97
619.201	17443.4
619.396	17738.31
619.591	17191.5
619.786	17519.18
619.981	17019.47
620.176	17437.26
620.371	17044.05
620.566	17144.4
620.761	17085.01
620.956	16908.88
621.151	17005.14
621.346	16980.56
621.541	16650.84
621.735	16728.66
621.93	16745.05
622.125	16417.37
622.32	16333.4
622.515	16650.84
622.709	16413.27
622.904	16171.61
623.099	15911.52
623.294	16134.75
623.488	15913.57
623.683	15862.37
623.878	15514.22
624.072	15852.13
624.267	15753.83
624.462	15493.74
624.656	15350.38
624.851	15284.84
625.046	15526.5
625.24	15313.52
625.435	15004.27
625.629	15022.7
625.824	14977.65
626.018	14801.52
626.213	14572.15
626.407	14699.13
626.602	14514.81
626.796	14348.92
626.991	14463.61
627.185	14211.71
627.38	14307.96
627.574	14281.34
627.768	14078.59
627.963	13865.6
628.157	14049.92
628.352	13918.85
628.546	13851.27
628.74	13841.03
628.935	13619.85
629.129	13716.1
629.323	13531.78
629.517	13210.25
629.712	13365.9
629.906	13179.53
630.1	13259.4
630.294	13171.34
630.489	12939.92
630.683	13177.48
630.877	12964.5
631.071	12677.78
631.265	12984.98
631.459	12700.31
631.653	12743.31
631.848	12591.77
632.042	12610.2
632.236	12538.52
632.43	12305.05
632.624	12427.93
632.818	12272.28
633.012	12266.14
633.206	12200.6
633.4	12081.82
633.594	12051.1
633.788	12079.77
633.982	11891.36
634.176	11854.5
634.369	11868.83
634.563	11569.83
634.757	11545.25
634.951	11659.94
635.145	11535.01
635.339	11453.09
635.533	11293.35
635.726	11401.9
635.92	11358.89
636.114	11098.8
636.308	11287.21
636.501	11311.78
636.695	11186.86
636.889	10980.01
637.083	10918.57
637.276	10834.61
637.47	10658.48
637.664	10502.84
637.857	10603.19
638.051	10515.12
638.244	10386.1
638.438	10361.53
638.632	10556.08
638.825	10257.08
639.019	10207.93
639.212	10189.5
639.406	10136.25
639.599	10207.93
639.793	10066.62
639.986	9974.46
640.18	9892.54
640.373	9800.38
640.567	9845.44
640.76	9820.86
640.954	9751.23
641.147	9511.62
641.34	9695.94
641.534	9628.35
641.727	9489.09
641.92	9577.16
642.114	9378.5
642.307	9468.61
642.5	9347.78
642.694	9009.87
642.887	8993.48
643.08	9245.38
643.273	9110.22
643.467	8882.89
643.66	9016.01
643.853	8757.97
644.046	8837.84
644.239	8870.61
644.432	8743.63
644.626	8764.11
644.819	8563.41
645.012	8637.14
645.205	8524.5
645.398	8526.55
645.591	8375
645.784	8338.13
645.977	8346.33
646.17	8432.34
646.363	8129.24
646.556	8252.12
646.749	8209.11
646.942	8119
647.135	7994.08
647.328	7922.4
647.521	8024.79
647.714	7871.2
647.907	7785.18
648.099	7797.47
648.292	7852.77
648.485	7776.99
648.678	7666.4
648.871	7553.76
649.064	7617.25
649.256	7576.29
649.449	7520.99
649.642	7680.74
649.835	7426.79
650.027	7201.51
650.22	7404.26
650.413	7277.29
650.605	7461.6
650.798	7260.9
650.991	6992.62
651.183	7209.7
651.376	7027.43
651.568	7219.94
651.761	7047.91
651.954	7029.48
652.146	7039.72
652.339	7021.29
652.531	6769.39
652.724	6992.62
652.916	6738.67
653.109	6742.77
653.301	6730.48
653.494	6804.21
653.686	6632.18
653.879	6773.49
654.071	6623.98
654.263	6468.34
654.456	6773.49
654.648	6521.59
654.84	6497.01
655.033	6431.48
655.225	6470.39
655.417	6288.12
655.61	6247.16
655.802	6386.42
655.994	6306.55
656.186	6273.78
656.379	6165.24
656.571	6302.45
656.763	5991.16
656.955	5993.21
657.148	6214.39
657.34	6079.22
657.532	5923.58
657.724	6036.22
657.916	5964.54
658.108	5948.15
658.3	5837.56
658.492	5903.1
658.684	5976.83
658.876	5804.8
659.068	5632.77
659.26	5714.69
659.452	5556.99
659.644	5640.96
659.836	5401.35
660.028	5739.26
660.22	5462.79
660.412	5456.64
660.604	5497.6
660.796	5432.07
660.988	5532.42
661.18	5475.07
661.372	5382.92
661.563	5427.97
661.755	5204.74
661.947	5360.39
662.139	5344
662.331	5251.85
662.522	5241.61
662.714	5204.74
662.906	5186.31
663.097	5100.3
663.289	5038.86
663.481	5028.62
663.673	5001.99
663.864	4936.46
664.056	4832.01
664.247	4965.13
664.439	5108.49
664.631	4893.45
664.822	4995.85
665.014	4969.23
665.205	4866.83
665.397	4805.39
665.588	4793.1
665.78	4526.86
665.971	4678.41
666.163	4774.67
666.354	4674.32
666.546	4666.13
666.737	4598.54
666.929	4530.96
667.12	4715.28
667.311	4580.11
667.503	4623.12
667.694	4641.55
667.885	4600.59
668.077	4590.35
668.268	4444.95
668.459	4426.51
668.651	4459.28
668.842	4467.47
669.033	4354.83
669.224	4307.73
669.416	4403.99
669.607	4262.68
669.798	4264.72
669.989	4414.23
670.18	4287.25
670.371	4135.7
670.563	4131.61
670.754	4283.16
670.945	4184.85
671.136	4338.45
671.327	4266.77
671.518	4123.41
671.709	4223.76
671.9	4154.13
672.091	4221.72
672.282	4000.54
672.473	4029.21
672.664	4203.29
672.855	4064.02
673.046	4041.5
673.237	4078.36
673.428	3941.15
673.619	4205.33
673.809	4029.21
674	4002.58
674.191	3875.61
674.382	3996.44
674.573	4018.97
674.764	3963.67
674.954	3937.05
675.145	3947.29
675.336	3760.92
675.527	3877.66
675.717	3834.65
675.908	3883.8
676.099	3926.81
676.289	3885.85
676.48	3842.84
676.671	3828.51
676.861	3877.66
677.052	3812.12
677.243	3758.88
677.433	3728.16
677.624	3799.84
677.814	3762.97
678.005	3760.92
678.195	3775.26
678.386	3732.25
678.576	3687.2
678.767	3648.29
678.957	3611.42
679.148	3605.28
679.338	3734.3
679.529	3750.68
679.719	3609.37
679.909	3613.47
680.1	3683.1
680.29	3662.62
680.481	3693.34
680.671	3752.73
680.861	3625.76
681.052	3605.28
681.242	3623.71
681.432	3654.43
681.622	3457.82
681.813	3576.61
682.003	3582.75
682.193	3533.6
682.383	3525.41
682.573	3623.71
682.764	3425.06
682.954	3437.34
683.144	3494.69
683.334	3480.35
683.524	3443.49
683.714	3443.49
683.904	3592.99
684.094	3549.98
684.284	3324.71
684.474	3418.91
684.664	3308.32
684.854	3377.95
685.044	3382.05
685.234	3306.27
685.424	3406.63
685.614	3300.13
685.804	3427.11
685.994	3293.99
686.184	3367.71
686.374	3326.75
686.564	3386.15
686.753	3318.56
686.943	3291.94
687.133	3336.99
687.323	3154.73
687.513	3330.85
687.702	3296.04
687.892	3113.77
688.082	3255.08
688.272	3177.25
688.461	3218.21
688.651	3238.69
688.841	3269.41
689.03	3212.07
689.22	3113.77
689.41	3058.47
689.599	3138.34
689.789	3023.66
689.979	3058.47
690.168	3033.9
690.358	3201.83
690.547	3072.81
690.737	3214.12
690.926	3003.18
691.116	3156.77
691.305	3076.9
691.495	3019.56
691.684	3044.13
691.874	3068.71
692.063	3089.19
692.252	2984.74
692.442	3087.14
692.631	2898.73
692.82	3007.27
693.01	3097.38
693.199	2855.72
693.388	2976.55
693.578	2921.26
693.767	3003.18
693.956	3158.82
694.146	2956.07
694.335	2949.93
694.524	2982.7
694.713	2972.46
694.902	2865.96
695.092	2986.79
695.281	2859.82
695.47	2960.17
695.659	2925.35
695.848	2790.19
696.037	2939.69
696.226	2816.81
696.415	2835.24
696.604	2935.59
696.793	2767.66
696.982	2974.5
697.171	2962.22
697.36	2882.35
697.549	2833.19
697.738	3019.56
697.927	2859.82
698.116	2796.33
698.305	2865.96
698.494	2865.96
698.683	2913.06
698.872	2941.74
699.061	2827.05
699.25	2855.72
699.438	2808.62
699.627	2857.77
699.816	2839.34
700.005	2810.67
700.193	2779.95
700.382	2833.19
700.571	3005.22
700.76	2796.33
700.948	2775.85
701.137	2906.92
701.326	2808.62
701.514	2880.3
701.703	2812.71
701.892	2927.4
702.08	2906.92
702.269	2841.39
702.457	2730.8
702.646	2755.37
702.834	2759.47
703.023	2738.99
703.212	2784.04
703.4	2796.33
703.589	2816.81
703.777	2825
703.965	2792.23
704.154	2857.77
704.342	2669.36
704.531	2759.47
704.719	2831.15
704.907	2843.43
705.096	2677.55
705.284	2607.92
705.472	2724.65
705.661	2726.7
705.849	2702.12
706.037	2687.79
706.226	2751.28
706.414	2775.85
706.602	2728.75
706.79	2689.84
706.979	2757.42
707.167	2890.54
707.355	2759.47
707.543	2700.08
707.731	2695.98
707.919	2679.6
708.107	2695.98
708.296	2683.69
708.484	2693.93
708.672	2593.58
708.86	2634.54
709.048	2708.27
709.236	2677.55
709.424	2679.6
709.612	2593.58
709.8	2706.22
709.988	2648.88
710.176	2689.84
710.364	2681.64
710.551	2669.36
710.739	2628.4
710.927	2552.62
711.115	2585.39
711.303	2603.82
711.491	2575.15
711.679	2630.45
711.866	2634.54
712.054	2622.25
712.242	2528.05
712.43	2536.24
712.617	2577.2
712.805	2554.67
712.993	2620.21
713.181	2458.42
713.368	2569.01
713.556	2523.95
713.744	2509.62
713.931	2677.55
714.119	2487.09
714.306	2573.1
714.494	2560.81
714.682	2390.83
714.869	2511.66
715.057	2437.94
715.244	2532.14
715.432	2503.47
715.619	2374.45
715.807	2450.22
715.994	2485.04
716.182	2485.04
716.369	2497.33
716.556	2403.12
716.744	2442.03
716.931	2351.92
717.119	2423.6
717.306	2288.43
717.493	2421.55
717.681	2392.88
717.868	2421.55
718.055	2444.08
718.242	2315.06
718.43	2382.64
718.617	2419.5
718.804	2321.2
718.991	2388.78
719.179	2450.22
719.366	2257.71
719.553	2255.67
719.74	2313.01
719.927	2356.02
720.114	2308.91
720.301	2368.31
720.488	2235.19
720.676	2298.67
720.863	2323.25
721.05	2278.19
721.237	2292.53
721.424	2251.57
721.611	2239.28
721.798	2243.38
721.985	2153.27
722.172	2171.7
722.358	2239.28
722.545	2341.68
722.732	2224.95
722.919	2345.78
723.106	2167.6
723.293	2241.33
723.48	2157.36
723.667	2265.91
723.853	2229.04
724.04	2214.71
724.227	2253.62
724.414	2122.55
724.6	2095.93
724.787	2278.19
724.974	2308.91
725.161	2208.56
725.347	2079.54
725.534	2206.52
725.72	2153.27
725.907	2165.56
726.094	2200.37
726.28	2112.31
726.467	2134.84
726.653	2171.7
726.84	2145.08
727.027	2143.03
727.213	2087.73
727.4	2087.73
727.586	2085.69
727.773	2145.08
727.959	2216.76
728.145	2126.64
728.332	2020.15
728.518	2188.08
728.705	2110.26
728.891	2063.16
729.077	2065.21
729.264	2020.15
729.45	2083.64
729.636	2083.64
729.823	2057.01
730.009	2020.15
730.195	2122.55
730.382	2100.02
730.568	2001.72
730.754	1973.05
730.94	2046.77
731.126	1977.14
731.313	2001.72
731.499	2028.34
731.685	2009.91
731.871	2040.63
732.057	2018.1
732.243	1915.7
732.429	1866.55
732.615	2007.86
732.801	1995.57
732.987	1864.5
733.173	1915.7
733.359	1971
733.545	1878.84
733.731	1821.5
733.917	1829.69
734.103	1993.53
734.289	1903.42
734.475	1893.18
734.661	1948.47
734.847	2036.53
735.033	1839.93
735.219	1940.28
735.404	1858.36
735.59	1899.32
735.776	1868.6
735.962	1917.75
736.148	1846.07
736.333	1895.22
736.519	1878.84
736.705	1907.51
736.89	1866.55
737.076	1755.96
737.262	1819.45
737.447	1858.36
737.633	1792.83
737.819	1854.27
738.004	1737.53
738.19	1852.22
738.375	1755.96
738.561	1792.83
738.747	1803.07
738.932	1807.16
739.118	1829.69
739.303	1784.63
739.489	1860.41
739.674	1719.1
739.859	1760.06
740.045	1553.21
740.23	1661.76
740.416	1717.05
740.601	1563.45
740.786	1751.87
740.972	1719.1
741.157	1637.18
741.342	1710.91
741.528	1647.42
741.713	1631.04
741.898	1717.05
742.084	1694.52
742.269	1708.86
742.454	1538.88
742.639	1547.07
742.824	1633.08
743.01	1604.41
743.195	1700.67
743.38	1628.99
743.565	1549.12
743.75	1553.21
743.935	1524.54
744.12	1450.82
744.305	1600.32
744.49	1583.93
744.675	1590.08
744.86	1522.49
745.045	1553.21
745.23	1499.97
745.415	1506.11
745.6	1469.25
745.785	1448.77
745.97	1489.73
746.155	1485.63
746.34	1518.4
746.525	1465.15
746.71	1436.48
746.895	1467.2
747.079	1426.24
747.264	1452.86
747.449	1432.38
747.634	1442.62
747.819	1420.1
748.003	1358.66
748.188	1323.84
748.373	1305.41
748.557	1346.37
748.742	1329.99
748.927	1295.17
749.111	1284.93
749.296	1354.56
749.481	1360.7
749.665	1289.03
749.85	1366.85
750.034	1338.18
750.219	1293.12
750.404	1196.87
750.588	1291.07
750.773	1190.72
750.957	1217.35
751.141	1266.5
751.326	1162.05
751.51	1196.87
751.695	1182.53
751.879	1194.82
752.064	1293.12
752.248	1176.39
752.432	1174.34
752.617	1160
752.801	1176.39
752.985	1102.66
753.17	1313.6
753.354	1205.06
753.538	1168.2
753.722	1153.86
753.907	1119.04
754.091	1028.93
754.275	1117
754.459	1117
754.643	1174.34
754.828	1000.26
755.012	1127.24
755.196	1026.89
755.38	1020.74
755.564	1100.61
755.748	1082.18
755.932	1010.5
756.116	1045.32
756.3	1030.98
756.484	1037.13
756.668	1018.69
756.852	914.25
757.036	983.88
757.22	938.82
757.404	1012.55
757.588	957.25
757.772	904.01
757.956	953.16
758.14	1030.98
758.323	920.39
758.507	987.97
758.691	879.43
758.875	850.76
759.059	1012.55
759.242	959.3
759.426	885.58
759.61	932.68
759.794	928.58
759.977	848.71
760.161	992.07
760.345	918.34
760.528	846.66
760.712	901.96
760.895	906.06
761.079	809.8
761.263	936.78
761.446	852.81
761.63	871.24
761.813	865.1
761.997	830.28
762.18	809.8
762.364	836.42
762.547	752.46
762.731	842.57
762.914	789.32
763.098	848.71
763.281	875.34
763.464	820.04
763.648	842.57
763.831	793.42
764.015	742.22
764.198	813.9
764.381	805.71
764.564	826.18
764.748	760.65
764.931	686.92
765.114	820.04
765.297	867.14
765.481	791.37
765.664	643.92
765.847	815.94
766.03	897.86
766.213	748.36
766.397	875.34
766.58	758.6
766.763	705.35
766.946	719.69
767.129	723.79
767.312	740.17
767.495	832.33
767.678	584.52
767.861	731.98
768.044	643.92
768.227	693.07
768.41	670.54
768.593	705.35
768.776	691.02
768.959	688.97
769.142	674.64
769.324	699.21
769.507	613.2
769.69	783.18
769.873	719.69
770.056	684.87
770.239	717.64
770.421	678.73
770.604	697.16
770.787	645.96
770.97	697.16
771.152	615.24
771.335	744.27
771.518	621.39
771.7	621.39
771.883	699.21
772.066	682.83
772.248	574.28
772.431	748.36
772.613	562
772.796	648.01
772.978	613.2
773.161	678.73
773.343	555.85
773.526	605
773.708	654.16
773.891	605
774.073	629.58
774.256	533.33
774.438	676.68
774.621	627.53
774.803	572.24
774.985	631.63
775.168	566.09
775.35	699.21
775.532	588.62
775.715	535.37
775.897	527.18
776.079	570.19
776.261	533.33
776.444	578.38
776.626	549.71
776.808	553.8
776.99	551.76
777.173	471.89
777.355	529.23
777.537	488.27
777.719	568.14
777.901	545.61
778.083	559.95
778.265	465.74
778.447	582.48
778.629	527.18
778.811	568.14
778.993	551.76
779.175	449.36
779.357	504.65
779.539	445.26
779.721	422.73
779.903	445.26
780.085	527.18
780.267	455.5
780.449	510.8
780.631	457.55
780.812	424.78
780.994	529.23
781.176	432.97
781.358	492.37
781.54	412.5
781.721	514.89
781.903	449.36
782.085	484.17
782.267	424.78
782.448	424.78
782.63	324.43
782.812	375.63
782.993	398.16
783.175	426.83
783.357	332.62
783.538	410.45
783.72	422.73
783.901	363.34
784.083	451.41
784.264	469.84
784.446	357.2
784.627	381.78
784.809	435.02
784.99	357.2
785.172	414.54
785.353	328.53
785.535	443.21
785.716	318.29
785.897	344.91
786.079	426.83
786.26	367.44
786.441	312.14
786.623	361.3
786.804	342.86
786.985	342.86
787.167	383.82
787.348	357.2
787.529	334.67
787.71	306
787.891	385.87
788.073	322.38
788.254	308.05
788.435	293.71
788.616	316.24
788.797	224.08
788.978	336.72
789.159	258.9
789.34	316.24
789.522	320.34
789.703	310.1
789.884	293.71
790.065	240.47
790.246	295.76
790.427	332.62
790.607	236.37
790.788	295.76
790.969	312.14
791.15	244.56
791.331	281.43
791.512	222.03
791.693	219.99
791.874	275.28
792.054	289.62
792.235	394.06
792.416	254.8
792.597	213.84
792.778	269.14
792.958	273.23
793.139	205.65
793.32	258.9
793.5	295.76
793.681	291.66
793.862	224.08
794.042	215.89
794.223	248.66
794.404	228.18
794.584	197.46
794.765	283.47
794.945	242.51
795.126	293.71
795.306	226.13
795.487	246.61
795.667	275.28
795.848	291.66
796.028	228.18
796.209	252.75
796.389	213.84
796.57	250.71
796.75	189.27
796.93	176.98
797.111	226.13
797.291	279.38
797.471	252.75
797.652	199.51
797.832	191.31
798.012	258.9
798.192	213.84
798.373	189.27
798.553	195.41
798.733	277.33
798.913	185.17
799.093	197.46
799.274	230.23
799.454	144.21
799.634	250.71
799.814	291.66
799.994	170.83
800.174	187.22
800.354	254.8
800.534	142.16
800.714	154.45
800.894	187.22
801.074	164.69
801.254	199.51
801.434	187.22
801.614	195.41
801.794	146.26
801.974	676.68
802.154	162.64
802.334	236.37
802.514	187.22
802.693	226.13
802.873	189.27
803.053	213.84
803.233	258.9
803.413	228.18
803.592	209.75
803.772	133.97
803.952	193.36
804.131	179.03
804.311	226.13
804.491	162.64
804.67	199.51
804.85	160.59
805.03	140.12
805.209	162.64
805.389	240.47
805.568	179.03
805.748	162.64
805.928	133.97
806.107	97.11
806.287	154.45
806.466	111.44
806.646	146.26
806.825	93.01
807.004	170.83
807.184	64.34
807.363	127.83
807.543	185.17
807.722	136.02
807.901	226.13
808.081	158.55
808.26	125.78
808.439	236.37
808.619	105.3
808.798	170.83
808.977	185.17
809.156	170.83
809.336	123.73
809.515	254.8
809.694	133.97
809.873	90.96
810.052	160.59
810.231	136.02
810.411	101.2
810.59	138.07
810.769	117.59
810.948	121.68
811.127	117.59
811.306	99.16
811.485	123.73
811.664	129.88
811.843	136.02
812.022	123.73
812.201	142.16
812.38	88.92
812.559	146.26
812.737	127.83
812.916	66.39
813.095	168.79
813.274	138.07
813.453	207.7
813.632	127.83
813.811	136.02
813.989	41.81
814.168	105.3
814.347	127.83
814.526	80.72
814.704	138.07
814.883	179.03
815.062	133.97
815.24	97.11
815.419	97.11
815.598	146.26
815.776	146.26
815.955	103.25
816.133	166.74
816.312	103.25
816.49	127.83
816.669	160.59
816.847	45.91
817.026	142.16
817.204	45.91
817.383	72.53
817.561	80.72
817.74	123.73
817.918	97.11
818.097	84.82
818.275	105.3
818.453	109.4
818.632	115.54
818.81	146.26
818.988	58.2
819.167	121.68
819.345	140.12
819.523	103.25
819.701	68.44
819.879	107.35
820.058	39.76
820.236	50
820.414	105.3
820.592	111.44
820.77	133.97
820.948	78.68
821.127	41.81
821.305	66.39
821.483	107.35
821.661	115.54
821.839	50
822.017	107.35
822.195	105.3
822.373	127.83
822.551	31.57
822.729	68.44
822.907	47.96
823.085	146.26
823.262	115.54
823.44	140.12
823.618	76.63
823.796	4.95
823.974	35.67
824.152	117.59
824.329	97.11
824.507	133.97
824.685	146.26
824.863	107.35
825.04	47.96
825.218	174.93
825.396	97.11
825.574	82.77
825.751	70.48
825.929	78.68
826.107	95.06
826.284	138.07
826.462	168.79
826.639	41.81
826.817	50
826.994	93.01
827.172	45.91
827.349	47.96
827.527	80.72
827.704	62.29
827.882	117.59
828.059	13.14
828.237	119.64
828.414	117.59
828.591	11.09
828.769	43.86
828.946	50
829.124	29.52
829.301	76.63
829.478	154.45
829.655	47.96
829.833	111.44
830.01	101.2
830.187	125.78
830.364	58.2
830.542	76.63
830.719	97.11
830.896	62.29
831.073	23.38
831.25	82.77
831.427	78.68
831.604	64.34
831.782	15.19
831.959	23.38
832.136	60.24
832.313	111.44
832.49	45.91
832.667	70.48
832.844	88.92
833.021	68.44
833.198	31.57
833.374	146.26
833.551	105.3
833.728	58.2
833.905	21.33
834.082	52.05
834.259	68.44
834.436	29.52
834.612	29.52
834.789	95.06
834.966	21.33
835.143	56.15
835.319	111.44
835.496	66.39
835.673	-11.43
835.85	125.78
836.026	52.05
836.203	60.24
836.38	62.29
836.556	52.05
836.733	68.44
836.909	43.86
837.086	70.48
837.262	21.33
837.439	82.77
837.616	-13.48
837.792	47.96
837.968	68.44
838.145	-9.39
838.321	103.25
838.498	82.77
838.674	50
838.851	15.19
839.027	86.87
839.203	82.77
839.38	72.53
839.556	74.58
839.732	117.59
839.909	23.38
840.085	70.48
840.261	-5.29
840.437	74.58
840.614	90.96
840.79	66.39
840.966	29.52
841.142	88.92
841.318	80.72
841.494	33.62
841.671	43.86
841.847	13.14
842.023	31.57
842.199	54.1
842.375	58.2
842.551	37.72
842.727	52.05
842.903	111.44
843.079	25.43
843.255	187.22
843.431	15.19
843.607	129.88
843.783	17.24
843.959	2.9
844.134	33.62
844.31	129.88
844.486	47.96
844.662	4.95
844.838	97.11
845.013	54.1
845.189	21.33
845.365	-9.39
845.541	29.52
845.716	117.59
845.892	7
846.068	11.09
846.244	47.96
846.419	45.91
846.595	-25.77
846.77	-23.72
846.946	-1.19
847.122	37.72
847.297	7
847.473	25.43
847.648	9.05
847.824	29.52
847.999	41.81
848.175	50
848.35	4.95
848.526	52.05
848.701	-19.63
848.876	23.38
849.052	72.53
849.227	107.35
849.403	31.57
849.578	70.48
849.753	15.19
849.929	101.2
850.104	84.82
850.279	-15.53
850.454	35.67
850.63	29.52
850.805	97.11
850.98	66.39
851.155	19.29
851.33	-15.53
851.505	54.1
851.681	78.68
851.856	25.43
852.031	19.29
852.206	-5.29
852.381	-42.15
852.556	17.24
852.731	54.1
852.906	27.48
853.081	27.48
853.256	25.43
853.431	2.9
853.606	-19.63
853.781	-25.77
853.956	-11.43
854.131	-5.29
854.305	13.14
854.48	-19.63
854.655	39.76
854.83	21.33
855.005	-19.63
855.18	25.43
855.354	-33.96
855.529	0.85
855.704	0.85
855.879	84.82
856.053	7
856.228	25.43
856.403	70.48
856.577	93.01
856.752	-9.39
856.926	86.87
857.101	11.09
857.276	-5.29
857.45	70.48
857.625	93.01
857.799	31.57
857.974	78.68
858.148	0.85
858.323	60.24
858.497	54.1
858.672	4.95
858.846	21.33
859.02	125.78
859.195	0.85
859.369	-3.24
859.543	15.19
859.718	62.29
859.892	4.95
860.066	60.24
860.241	13.14
860.415	17.24
860.589	11.09
860.763	21.33
860.938	19.29
861.112	103.25
861.286	68.44
861.46	-5.29
861.634	17.24
861.808	39.76
861.982	-19.63
862.157	25.43
862.331	23.38
862.505	-9.39
862.679	-13.48
862.853	-1.19
863.027	-1.19
863.201	62.29
863.375	-7.34
863.549	31.57
863.722	43.86
863.896	29.52
864.07	41.81
864.244	45.91
864.418	-1.19
864.592	15.19
864.766	47.96
864.939	45.91
865.113	9.05
865.287	23.38
865.461	15.19
865.634	-58.54
865.808	62.29
865.982	31.57
866.156	37.72
866.329	-52.39
866.503	9.05
866.676	27.48
866.85	66.39
867.024	2.9
867.197	11.09
867.371	56.15
867.544	97.11
867.718	-23.72
867.891	23.38
868.065	13.14
868.238	37.72
868.412	21.33
868.585	-17.58
868.759	66.39
868.932	72.53
869.105	13.14
869.279	60.24
869.452	84.82
869.625	27.48
869.799	-3.24
869.972	27.48
870.145	27.48
870.319	29.52
870.492	-23.72
870.665	-33.96
870.838	0.85
871.011	-68.78
871.185	-11.43
871.358	-3.24
871.531	21.33
871.704	66.39
871.877	76.63
872.05	13.14
872.223	21.33
872.396	-46.25
872.569	31.57
872.742	-52.39
872.915	80.72
873.088	15.19
873.261	43.86
873.434	50
873.607	80.72
873.78	11.09
873.953	37.72
874.126	54.1
874.299	-31.91
874.471	-1.19
874.644	31.57
874.817	35.67
874.99	45.91
875.163	15.19
875.335	-31.91
875.508	66.39
875.681	56.15
875.853	9.05
876.026	80.72
876.199	31.57
876.371	9.05
876.544	-21.67
876.717	-19.63
876.889	43.86
877.062	-21.67
877.234	93.01
877.407	56.15
877.579	21.33
877.752	95.06
877.924	4.95
878.097	27.48
878.269	25.43
878.442	-3.24
878.614	-21.67
878.786	45.91
878.959	-48.3
879.131	-23.72
879.303	-7.34
879.476	-48.3
879.648	39.76
879.82	50
879.993	27.48
880.165	-29.87
880.337	27.48
880.509	58.2
880.681	15.19
880.854	4.95
881.026	19.29
881.198	107.35
881.37	25.43
881.542	54.1
881.714	-66.73
881.886	-29.87
882.058	-13.48
882.23	-74.92
882.402	-15.53
882.574	43.86
882.746	-17.58
882.918	62.29
883.09	25.43
883.262	19.29
883.434	31.57
883.606	-1.19
883.778	15.19
883.95	111.44
884.122	-56.49
884.293	62.29
884.465	-1.19
884.637	31.57
884.809	-38.06
884.98	13.14
885.152	23.38
885.324	43.86
885.496	17.24
885.667	-46.25
885.839	56.15
886.011	11.09
886.182	35.67
886.354	45.91
886.525	-3.24
886.697	19.29
886.869	17.24
887.04	-19.63
887.212	11.09
887.383	37.72
887.555	58.2
887.726	-87.21
887.897	-27.82
888.069	-42.15
888.24	-13.48
888.412	-7.34
888.583	29.52
888.754	27.48
888.926	-29.87
889.097	-19.63
889.268	72.53
889.44	25.43
889.611	-15.53
889.782	33.62
889.953	-21.67
890.125	35.67
890.296	-64.68
890.467	17.24
890.638	-70.83
890.809	4.95
890.98	-1.19
891.151	-42.15
891.323	45.91
891.494	70.48
891.665	-48.3
891.836	-38.06
892.007	-17.58
892.178	23.38
892.349	2.9
892.52	50
892.691	-31.91
892.862	37.72
893.032	-23.72
893.203	-5.29
893.374	-52.39
893.545	9.05
893.716	-7.34
893.887	39.76
894.057	-46.25
894.228	19.29
894.399	-17.58
894.57	13.14
894.74	17.24
894.911	-74.92
895.082	17.24
895.253	15.19
895.423	9.05
895.594	33.62
895.764	-7.34
895.935	-42.15
896.106	58.2
896.276	-58.54
896.447	-5.29
896.617	-52.39
896.788	-19.63
896.958	-21.67
897.129	-11.43
897.299	41.81
897.47	99.16
897.64	-19.63
897.81	-33.96
897.981	23.38
898.151	4.95
898.322	-58.54
898.492	31.57
898.662	-21.67
898.832	15.19
899.003	60.24
899.173	-5.29
899.343	99.16
899.513	-23.72
