Data from USB4F104151__11__12-35-08-504.txt Node

Date: Fri Mar 14 12:35:08 EDT 2025
User: louis
Spectrometer: USB4F10415
Trigger mode: 4
Integration Time (sec): 2.000000E-2
Scans to average: 1
Electric dark correction enabled: true
Nonlinearity correction enabled: false
Boxcar width: 0
XAxis mode: Wavelengths
Number of Pixels in Spectrum: 3648
>>>>>Begin Spectral Data<<<<<
178.204	-65.88
178.424	-65.88
178.644	-65.88
178.864	-158.03
179.084	-112.98
179.304	-18.77
179.524	52.91
179.744	-90.45
179.964	-55.64
180.184	7.85
180.404	-41.3
180.624	22.19
180.844	11.95
181.064	28.33
181.283	30.38
181.503	13.99
181.723	38.57
181.943	-74.07
182.163	-29.01
182.383	-8.53
182.602	42.67
182.822	-22.87
183.042	36.52
183.262	63.15
183.482	-20.82
183.701	-22.87
183.921	5.8
184.141	-26.96
184.361	-67.92
184.58	-16.73
184.8	1.71
185.02	-41.3
185.239	20.14
185.459	-43.35
185.679	40.62
185.898	-49.49
186.118	28.33
186.338	-41.3
186.557	-22.87
186.777	-0.34
186.997	1.71
187.216	-55.64
187.436	13.99
187.655	7.85
187.875	61.1
188.095	-33.11
188.314	5.8
188.534	32.43
188.753	44.71
188.973	-2.39
189.192	59.05
189.412	-115.03
189.631	20.14
189.851	11.95
190.07	75.43
190.29	-16.73
190.509	9.9
190.729	-22.87
190.948	-31.06
191.168	85.67
191.387	-18.77
191.607	34.47
191.826	63.15
192.045	-49.49
192.265	7.85
192.484	-12.63
192.704	-26.96
192.923	13.99
193.142	34.47
193.362	54.95
193.581	3.75
193.8	1.71
194.02	40.62
194.239	26.28
194.458	32.43
194.678	1.71
194.897	-4.44
195.116	18.09
195.335	50.86
195.555	30.38
195.774	-45.4
195.993	13.99
196.212	-108.88
196.432	36.52
196.651	-14.68
196.87	3.75
197.089	-33.11
197.308	11.95
197.528	5.8
197.747	-63.83
197.966	50.86
198.185	30.38
198.404	-59.73
198.623	-37.2
198.842	57
199.062	-2.39
199.281	-59.73
199.5	-20.82
199.719	9.9
199.938	-65.88
200.157	85.67
200.376	28.33
200.595	24.23
200.814	13.99
201.033	-18.77
201.252	-20.82
201.471	7.85
201.69	30.38
201.909	13.99
202.128	-14.68
202.347	-86.36
202.566	-10.58
202.785	-20.82
203.004	-72.02
203.223	11.95
203.442	11.95
203.661	-29.01
203.879	24.23
204.098	26.28
204.317	-65.88
204.536	-4.44
204.755	-37.2
204.974	26.28
205.193	52.91
205.411	50.86
205.63	36.52
205.849	42.67
206.068	13.99
206.287	-18.77
206.505	-35.16
206.724	26.28
206.943	-20.82
207.162	3.75
207.381	-63.83
207.599	81.58
207.818	-57.68
208.037	46.76
208.255	3.75
208.474	-18.77
208.693	81.58
208.911	34.47
209.13	34.47
209.349	11.95
209.567	63.15
209.786	67.24
210.005	-18.77
210.223	7.85
210.442	-24.92
210.661	1.71
210.879	20.14
211.098	-2.39
211.316	36.52
211.535	-22.87
211.753	54.95
211.972	-16.73
212.191	18.09
212.409	-31.06
212.628	46.76
212.846	-0.34
213.065	67.24
213.283	1.71
213.502	48.81
213.72	-100.69
213.938	16.04
214.157	24.23
214.375	16.04
214.594	-35.16
214.812	-37.2
215.031	-31.06
215.249	-82.26
215.467	5.8
215.686	-22.87
215.904	22.19
216.122	9.9
216.341	3.75
216.559	-33.11
216.778	44.71
216.996	-4.44
217.214	-41.3
217.432	13.99
217.651	-4.44
217.869	-2.39
218.087	22.19
218.306	-4.44
218.524	-22.87
218.742	-12.63
218.96	46.76
219.179	-24.92
219.397	-12.63
219.615	57
219.833	75.43
220.051	-59.73
220.27	-16.73
220.488	-24.92
220.706	34.47
220.924	-24.92
221.142	28.33
221.36	-2.39
221.578	-35.16
221.796	-18.77
222.015	-26.96
222.233	63.15
222.451	48.81
222.669	-39.25
222.887	9.9
223.105	13.99
223.323	5.8
223.541	-20.82
223.759	46.76
223.977	13.99
224.195	16.04
224.413	-35.16
224.631	38.57
224.849	36.52
225.067	67.24
225.285	30.38
225.503	73.39
225.721	22.19
225.939	7.85
226.157	42.67
226.375	34.47
226.592	-41.3
226.81	30.38
227.028	22.19
227.246	46.76
227.464	91.82
227.682	18.09
227.9	32.43
228.117	1.71
228.335	3.75
228.553	-41.3
228.771	-0.34
228.989	22.19
229.206	-45.4
229.424	40.62
229.642	5.8
229.86	20.14
230.077	20.14
230.295	7.85
230.513	44.71
230.731	18.09
230.948	46.76
231.166	1.71
231.384	-12.63
231.601	-22.87
231.819	26.28
232.037	24.23
232.254	-41.3
232.472	-39.25
232.689	26.28
232.907	89.77
233.125	1.71
233.342	-14.68
233.56	-10.58
233.777	-39.25
233.995	28.33
234.213	34.47
234.43	67.24
234.648	-14.68
234.865	-6.49
235.083	32.43
235.3	22.19
235.518	32.43
235.735	-31.06
235.953	-14.68
236.17	3.75
236.388	-8.53
236.605	-35.16
236.822	-6.49
237.04	28.33
237.257	22.19
237.475	22.19
237.692	7.85
237.909	-61.78
238.127	-45.4
238.344	38.57
238.562	11.95
238.779	5.8
238.996	-37.2
239.214	-45.4
239.431	91.82
239.648	-80.21
239.865	-8.53
240.083	-0.34
240.3	13.99
240.517	9.9
240.735	-51.54
240.952	-4.44
241.169	13.99
241.386	-6.49
241.603	114.34
241.821	-39.25
242.038	-33.11
242.255	67.24
242.472	20.14
242.689	50.86
242.907	-35.16
243.124	34.47
243.341	-31.06
243.558	-37.2
243.775	30.38
243.992	40.62
244.209	-20.82
244.426	-8.53
244.643	-20.82
244.86	11.95
245.078	-0.34
245.295	3.75
245.512	11.95
245.729	-4.44
245.946	26.28
246.163	81.58
246.38	22.19
246.597	40.62
246.814	83.63
247.031	34.47
247.248	-20.82
247.464	61.1
247.681	-55.64
247.898	57
248.115	71.34
248.332	-31.06
248.549	3.75
248.766	65.19
248.983	44.71
249.2	16.04
249.417	7.85
249.633	-22.87
249.85	13.99
250.067	-61.78
250.284	-45.4
250.501	28.33
250.717	50.86
250.934	-43.35
251.151	24.23
251.368	-53.59
251.585	95.91
251.801	-24.92
252.018	-16.73
252.235	65.19
252.451	-20.82
252.668	-82.26
252.885	46.76
253.102	7.85
253.318	-12.63
253.535	-6.49
253.752	-61.78
253.968	22.19
254.185	34.47
254.401	34.47
254.618	16.04
254.835	16.04
255.051	36.52
255.268	20.14
255.484	11.95
255.701	7.85
255.917	-12.63
256.134	-24.92
256.351	65.19
256.567	28.33
256.784	65.19
257	-51.54
257.217	-6.49
257.433	-2.39
257.65	36.52
257.866	-39.25
258.082	9.9
258.299	-41.3
258.515	46.76
258.732	-4.44
258.948	73.39
259.165	-4.44
259.381	40.62
259.597	54.95
259.814	3.75
260.03	-37.2
260.246	24.23
260.463	28.33
260.679	3.75
260.895	-49.49
261.112	5.8
261.328	65.19
261.544	-4.44
261.761	61.1
261.977	79.53
262.193	-45.4
262.409	3.75
262.626	-22.87
262.842	26.28
263.058	7.85
263.274	18.09
263.49	7.85
263.707	46.76
263.923	3.75
264.139	-22.87
264.355	40.62
264.571	34.47
264.787	79.53
265.004	65.19
265.22	-47.44
265.436	44.71
265.652	-82.26
265.868	97.96
266.084	-10.58
266.3	-35.16
266.516	-6.49
266.732	79.53
266.948	7.85
267.164	28.33
267.38	54.95
267.596	9.9
267.812	100.01
268.028	48.81
268.244	-6.49
268.46	-4.44
268.676	-47.44
268.892	16.04
269.108	30.38
269.324	3.75
269.54	-24.92
269.756	18.09
269.972	-0.34
270.188	-33.11
270.403	-14.68
270.619	-18.77
270.835	18.09
271.051	1.71
271.267	-88.4
271.483	63.15
271.698	-16.73
271.914	79.53
272.13	48.81
272.346	-14.68
272.562	22.19
272.777	57
272.993	-39.25
273.209	-115.03
273.425	24.23
273.64	34.47
273.856	-2.39
274.072	-59.73
274.287	-96.6
274.503	32.43
274.719	38.57
274.934	13.99
275.15	-88.4
275.366	28.33
275.581	81.58
275.797	-0.34
276.012	28.33
276.228	36.52
276.444	9.9
276.659	34.47
276.875	-43.35
277.09	-14.68
277.306	-69.97
277.521	3.75
277.737	-6.49
277.952	116.39
278.168	5.8
278.383	75.43
278.599	32.43
278.814	-12.63
279.03	57
279.245	32.43
279.461	-22.87
279.676	61.1
279.892	16.04
280.107	-22.87
280.322	-61.78
280.538	-4.44
280.753	-4.44
280.969	50.86
281.184	48.81
281.399	5.8
281.615	-18.77
281.83	95.91
282.045	-55.64
282.26	3.75
282.476	-69.97
282.691	65.19
282.906	-24.92
283.122	83.63
283.337	-33.11
283.552	69.29
283.767	5.8
283.983	26.28
284.198	18.09
284.413	54.95
284.628	1.71
284.843	34.47
285.058	1.71
285.274	20.14
285.489	-26.96
285.704	75.43
285.919	-37.2
286.134	22.19
286.349	-53.59
286.564	-45.4
286.779	3.75
286.995	-14.68
287.21	32.43
287.425	48.81
287.64	-0.34
287.855	1.71
288.07	-43.35
288.285	71.34
288.5	1.71
288.715	-0.34
288.93	44.71
289.145	-24.92
289.36	3.75
289.575	-35.16
289.79	48.81
290.004	59.05
290.219	-37.2
290.434	54.95
290.649	18.09
290.864	-6.49
291.079	44.71
291.294	42.67
291.509	-22.87
291.724	5.8
291.938	-45.4
292.153	26.28
292.368	5.8
292.583	18.09
292.798	-33.11
293.012	50.86
293.227	16.04
293.442	36.52
293.657	75.43
293.871	50.86
294.086	59.05
294.301	28.33
294.516	26.28
294.73	9.9
294.945	-37.2
295.16	-49.49
295.374	-6.49
295.589	-22.87
295.804	-82.26
296.018	44.71
296.233	52.91
296.447	93.87
296.662	7.85
296.877	-4.44
297.091	67.24
297.306	32.43
297.52	7.85
297.735	71.34
297.949	67.24
298.164	5.8
298.378	-47.44
298.593	-0.34
298.807	3.75
299.022	22.19
299.236	75.43
299.451	52.91
299.665	-37.2
299.88	59.05
300.094	-29.01
300.309	46.76
300.523	18.09
300.737	75.43
300.952	26.28
301.166	-24.92
301.381	52.91
301.595	5.8
301.809	-59.73
302.024	46.76
302.238	9.9
302.452	-4.44
302.667	7.85
302.881	77.48
303.095	16.04
303.309	7.85
303.524	-37.2
303.738	20.14
303.952	65.19
304.166	40.62
304.381	-22.87
304.595	59.05
304.809	36.52
305.023	-6.49
305.237	-29.01
305.452	34.47
305.666	30.38
305.88	40.62
306.094	87.72
306.308	-4.44
306.522	28.33
306.736	34.47
306.95	40.62
307.164	7.85
307.379	-43.35
307.593	22.19
307.807	59.05
308.021	57
308.235	-47.44
308.449	3.75
308.663	24.23
308.877	65.19
309.091	100.01
309.305	13.99
309.519	9.9
309.733	18.09
309.947	40.62
310.161	65.19
310.374	34.47
310.588	102.06
310.802	-14.68
311.016	-10.58
311.23	16.04
311.444	7.85
311.658	5.8
311.872	-4.44
312.085	34.47
312.299	71.34
312.513	-18.77
312.727	16.04
312.941	-35.16
313.154	-0.34
313.368	28.33
313.582	-6.49
313.796	50.86
314.009	48.81
314.223	71.34
314.437	38.57
314.651	-29.01
314.864	5.8
315.078	5.8
315.292	7.85
315.505	18.09
315.719	22.19
315.933	65.19
316.146	26.28
316.36	-29.01
316.573	61.1
316.787	-2.39
317.001	5.8
317.214	-45.4
317.428	9.9
317.641	26.28
317.855	16.04
318.068	-2.39
318.282	-22.87
318.495	59.05
318.709	63.15
318.922	48.81
319.136	81.58
319.349	108.2
319.563	44.71
319.776	61.1
319.99	-43.35
320.203	38.57
320.417	13.99
320.63	9.9
320.843	108.2
321.057	-29.01
321.27	18.09
321.483	36.52
321.697	52.91
321.91	-33.11
322.124	50.86
322.337	71.34
322.55	20.14
322.763	34.47
322.977	-33.11
323.19	3.75
323.403	5.8
323.617	5.8
323.83	106.15
324.043	16.04
324.256	13.99
324.469	-2.39
324.683	59.05
324.896	-47.44
325.109	-0.34
325.322	-39.25
325.535	69.29
325.748	-14.68
325.962	34.47
326.175	52.91
326.388	67.24
326.601	7.85
326.814	59.05
327.027	40.62
327.24	93.87
327.453	-24.92
327.666	1.71
327.879	95.91
328.092	34.47
328.305	-2.39
328.518	28.33
328.731	36.52
328.944	-22.87
329.157	65.19
329.37	-24.92
329.583	38.57
329.796	79.53
330.009	52.91
330.222	-14.68
330.435	50.86
330.648	79.53
330.861	36.52
331.073	50.86
331.286	-26.96
331.499	75.43
331.712	-35.16
331.925	16.04
332.138	54.95
332.35	67.24
332.563	9.9
332.776	118.44
332.989	26.28
333.202	38.57
333.414	16.04
333.627	1.71
333.84	54.95
334.053	130.73
334.265	26.28
334.478	-0.34
334.691	18.09
334.903	75.43
335.116	34.47
335.329	-12.63
335.541	63.15
335.754	63.15
335.966	81.58
336.179	18.09
336.392	1.71
336.604	44.71
336.817	24.23
337.029	57
337.242	24.23
337.454	13.99
337.667	5.8
337.88	67.24
338.092	18.09
338.305	46.76
338.517	34.47
338.729	65.19
338.942	77.48
339.154	77.48
339.367	-43.35
339.579	-20.82
339.792	22.19
340.004	24.23
340.217	32.43
340.429	52.91
340.641	40.62
340.854	16.04
341.066	-22.87
341.278	34.47
341.491	87.72
341.703	91.82
341.915	40.62
342.128	83.63
342.34	36.52
342.552	18.09
342.764	59.05
342.977	91.82
343.189	46.76
343.401	42.67
343.613	-12.63
343.826	48.81
344.038	9.9
344.25	20.14
344.462	69.29
344.674	71.34
344.886	46.76
345.099	75.43
345.311	11.95
345.523	36.52
345.735	-6.49
345.947	73.39
346.159	48.81
346.371	-12.63
346.583	52.91
346.795	102.06
347.007	54.95
347.219	5.8
347.431	28.33
347.643	28.33
347.855	5.8
348.067	22.19
348.279	52.91
348.491	-12.63
348.703	26.28
348.915	-8.53
349.127	16.04
349.339	71.34
349.551	13.99
349.763	50.86
349.975	112.3
350.187	63.15
350.399	38.57
350.61	-0.34
350.822	32.43
351.034	50.86
351.246	32.43
351.458	95.91
351.669	77.48
351.881	36.52
352.093	112.3
352.305	30.38
352.517	50.86
352.728	24.23
352.94	106.15
353.152	5.8
353.363	63.15
353.575	102.06
353.787	46.76
353.999	-8.53
354.21	116.39
354.422	42.67
354.633	-2.39
354.845	36.52
355.057	30.38
355.268	42.67
355.48	83.63
355.692	-22.87
355.903	-2.39
356.115	18.09
356.326	-16.73
356.538	77.48
356.749	18.09
356.961	36.52
357.172	-4.44
357.384	16.04
357.595	44.71
357.807	57
358.018	7.85
358.23	30.38
358.441	136.87
358.653	124.58
358.864	30.38
359.075	-2.39
359.287	63.15
359.498	54.95
359.709	-18.77
359.921	52.91
360.132	44.71
360.344	79.53
360.555	38.57
360.766	34.47
360.977	57
361.189	44.71
361.4	42.67
361.611	89.77
361.823	48.81
362.034	16.04
362.245	-6.49
362.456	57
362.667	13.99
362.879	52.91
363.09	79.53
363.301	71.34
363.512	42.67
363.723	-18.77
363.935	-96.6
364.146	-45.4
364.357	-22.87
364.568	65.19
364.779	63.15
364.99	97.96
365.201	32.43
365.412	50.86
365.623	-6.49
365.834	61.1
366.045	-16.73
366.256	7.85
366.467	34.47
366.678	46.76
366.889	-33.11
367.1	50.86
367.311	71.34
367.522	42.67
367.733	9.9
367.944	32.43
368.155	79.53
368.366	38.57
368.577	44.71
368.788	91.82
368.999	9.9
369.209	73.39
369.42	93.87
369.631	59.05
369.842	40.62
370.053	57
370.264	65.19
370.474	36.52
370.685	65.19
370.896	-26.96
371.107	93.87
371.317	57
371.528	-0.34
371.739	26.28
371.95	54.95
372.16	-12.63
372.371	44.71
372.582	13.99
372.792	7.85
373.003	59.05
373.214	63.15
373.424	79.53
373.635	-14.68
373.846	124.58
374.056	83.63
374.267	71.34
374.477	18.09
374.688	59.05
374.898	67.24
375.109	50.86
375.319	54.95
375.53	61.1
375.74	77.48
375.951	28.33
376.161	59.05
376.372	61.1
376.582	93.87
376.793	81.58
377.003	93.87
377.214	38.57
377.424	54.95
377.635	61.1
377.845	13.99
378.055	69.29
378.266	48.81
378.476	91.82
378.686	42.67
378.897	5.8
379.107	75.43
379.317	46.76
379.528	26.28
379.738	102.06
379.948	59.05
380.158	73.39
380.369	102.06
380.579	102.06
380.789	3.75
380.999	13.99
381.21	77.48
381.42	106.15
381.63	59.05
381.84	7.85
382.05	32.43
382.261	-6.49
382.471	28.33
382.681	-8.53
382.891	38.57
383.101	118.44
383.311	69.29
383.521	50.86
383.731	3.75
383.941	30.38
384.151	54.95
384.361	93.87
384.571	63.15
384.781	57
384.991	102.06
385.201	132.78
385.411	140.97
385.621	-29.01
385.831	42.67
386.041	100.01
386.251	20.14
386.461	59.05
386.671	-4.44
386.881	167.59
387.091	116.39
387.301	149.16
387.511	59.05
387.72	11.95
387.93	95.91
388.14	36.52
388.35	91.82
388.56	16.04
388.769	69.29
388.979	116.39
389.189	61.1
389.399	18.09
389.609	100.01
389.818	89.77
390.028	52.91
390.238	169.64
390.447	95.91
390.657	24.23
390.867	91.82
391.076	57
391.286	11.95
391.496	100.01
391.705	40.62
391.915	83.63
392.125	79.53
392.334	18.09
392.544	104.11
392.753	177.83
392.963	97.96
393.172	9.9
393.382	40.62
393.591	73.39
393.801	65.19
394.01	91.82
394.22	57
394.429	79.53
394.639	44.71
394.848	153.26
395.058	83.63
395.267	161.45
395.477	48.81
395.686	95.91
395.895	50.86
396.105	63.15
396.314	46.76
396.524	61.1
396.733	36.52
396.942	159.4
397.152	186.02
397.361	204.46
397.57	110.25
397.78	81.58
397.989	108.2
398.198	46.76
398.407	65.19
398.617	143.02
398.826	91.82
399.035	100.01
399.244	100.01
399.453	59.05
399.663	89.77
399.872	102.06
400.081	108.2
400.29	79.53
400.499	134.82
400.708	130.73
400.917	95.91
401.127	102.06
401.336	138.92
401.545	165.54
401.754	89.77
401.963	124.58
402.172	171.69
402.381	173.74
402.59	143.02
402.799	104.11
403.008	165.54
403.217	79.53
403.426	186.02
403.635	159.4
403.844	132.78
404.053	196.26
404.262	171.69
404.471	153.26
404.68	116.39
404.888	206.5
405.097	198.31
405.306	175.78
405.515	175.78
405.724	181.93
405.933	143.02
406.142	204.46
406.35	212.65
406.559	128.68
406.768	208.55
406.977	265.89
407.185	151.21
407.394	222.89
407.603	214.7
407.812	269.99
408.02	337.57
408.229	231.08
408.438	274.09
408.646	298.66
408.855	212.65
409.064	290.47
409.272	237.22
409.481	337.57
409.69	284.33
409.898	325.29
410.107	392.87
410.315	370.34
410.524	431.78
410.733	433.83
410.941	407.2
411.15	439.97
411.358	530.08
411.567	446.12
411.775	509.6
411.984	499.36
412.192	616.1
412.401	499.36
412.609	628.39
412.818	579.23
413.026	632.48
413.234	597.67
413.443	667.3
413.651	634.53
413.86	720.54
414.068	765.6
414.276	835.23
414.485	810.65
414.693	804.51
414.901	894.62
415.11	851.61
415.318	880.29
415.526	902.81
415.734	941.72
415.943	999.07
416.151	1085.08
416.359	1105.56
416.567	1103.51
416.776	1132.19
416.984	1185.43
417.192	1216.15
417.4	1324.69
417.608	1162.9
417.817	1347.22
418.025	1427.09
418.233	1357.46
418.441	1451.67
418.649	1496.72
418.857	1625.75
419.065	1678.99
419.273	1549.97
419.481	1767.06
419.689	1805.97
419.897	1867.41
420.105	1918.61
420.313	1861.26
420.521	2076.3
420.729	1988.24
420.937	2172.55
421.145	2221.7
421.353	2391.69
421.561	2414.21
421.769	2500.23
421.977	2586.24
422.185	2518.66
422.393	2676.35
422.601	2958.97
422.809	2903.68
423.017	2887.29
423.224	3001.98
423.432	3276.41
423.64	3264.12
423.848	3577.46
424.056	3352.18
424.263	3700.34
424.471	3581.56
424.679	3716.72
424.887	3907.18
425.094	3913.33
425.302	4114.03
425.51	4130.41
425.718	4333.16
425.925	4386.41
426.133	4578.92
426.341	4925.02
426.548	4945.5
426.756	5008.99
426.964	5138.01
427.171	5398.1
427.379	5572.18
427.586	5658.2
427.794	5760.59
428.001	6067.79
428.209	6442.57
428.417	6321.74
428.624	6655.56
428.832	6583.88
429.039	6561.35
429.247	6733.38
429.454	7210.56
429.662	7771.7
429.869	7296.57
430.076	7892.53
430.284	7671.35
430.491	7796.28
430.699	8338.99
430.906	8402.47
431.114	8457.77
431.321	8617.51
431.528	8922.66
431.736	9518.62
431.943	9762.33
432.15	9682.45
432.358	9799.19
432.565	10391.05
432.772	9948.69
432.979	10733.06
433.187	10966.53
433.394	10970.63
433.601	11871.73
433.808	11730.42
434.016	11941.36
434.223	12066.29
434.43	12865
434.637	12492.27
434.844	13395.42
435.052	13714.91
435.259	13602.27
435.466	13542.88
435.673	13557.21
435.88	14638.54
436.087	15207.87
436.294	15289.79
436.501	14781.9
436.708	15467.97
436.915	15672.76
437.122	16397.74
437.329	16467.38
437.537	16930.22
437.743	17087.91
437.95	17032.61
438.157	18105.75
438.364	18521.49
438.571	18589.07
438.778	18603.41
438.985	20391.28
439.192	19469.7
439.399	20215.16
439.606	19670.4
439.813	20993.39
440.02	22050.14
440.227	21683.55
440.433	21601.63
440.64	22437.2
440.847	22009.18
441.054	22668.62
441.261	24132.92
441.467	23846.21
441.674	24419.64
441.881	25261.35
442.088	25169.19
442.294	24857.9
442.501	25711.91
442.708	26090.78
442.914	26799.38
443.121	28566.77
443.328	27440.39
443.534	29621.48
443.741	28751.09
443.948	28321.02
444.154	30082.27
444.361	30495.96
444.568	30541.02
444.774	30207.2
444.981	30930.13
445.187	31685.83
445.394	33051.83
445.6	32392.38
445.807	35810.44
446.013	34188.45
446.22	34872.47
446.426	36183.17
446.633	36205.7
446.839	37760.11
447.046	36326.53
447.252	37981.29
447.459	38052.97
447.665	37721.2
447.871	39658.57
448.078	40999.99
448.284	39365.71
448.491	40283.2
448.697	42241.06
448.903	42560.55
449.11	43113.5
449.316	42116.14
449.522	43330.58
449.728	44022.79
449.935	44438.53
450.141	44151.82
450.347	45749.23
450.553	43994.12
450.76	44680.19
450.966	46167.02
451.172	45769.71
451.378	46525.41
451.584	45603.83
451.791	46769.12
451.997	46748.64
452.203	47483.86
452.409	47594.45
452.615	47420.38
452.821	45495.28
453.027	45573.11
453.233	47309.78
453.44	45816.82
453.646	46435.3
453.852	46486.5
454.058	47381.46
454.264	45800.43
454.47	46783.46
454.676	45638.64
454.882	47322.07
455.088	42978.33
455.294	43768.85
455.5	44282.89
455.705	44999.68
455.911	43334.68
456.117	42652.7
456.323	41454.64
456.529	39703.63
456.735	41317.43
456.941	40475.71
457.147	39482.45
457.352	38427.74
457.558	38235.24
457.764	38222.95
457.97	37547.12
458.176	36902.01
458.381	36590.72
458.587	35085.46
458.793	34751.64
458.999	33254.58
459.204	35560.59
459.41	34612.38
459.616	31968.45
459.821	32365.76
460.027	32378.04
460.233	31796.42
460.438	29897.95
460.644	30219.49
460.85	28724.47
461.055	28531.96
461.261	28486.9
461.466	26469.65
461.672	25488.68
461.878	27235.6
462.083	25509.16
462.289	24974.64
462.494	24792.37
462.7	23686.47
462.905	22922.57
463.111	23737.66
463.316	24001.85
463.522	23469.38
463.727	23543.11
463.932	23188.81
464.138	22824.27
464.343	23364.93
464.549	22551.89
464.754	23502.15
464.959	23074.12
465.165	22906.19
465.37	21933.4
465.575	21437.8
465.781	22183.26
465.986	22386.01
466.191	21423.46
466.397	20913.52
466.602	20079.99
466.807	20831.6
467.012	20733.29
467.218	20690.29
467.423	20544.88
467.628	20604.27
467.833	21613.92
468.038	20743.53
468.244	20194.68
468.449	20731.25
468.654	20010.36
468.859	20094.33
469.064	19926.39
469.269	19287.43
469.474	19111.3
469.679	19748.22
469.885	19256.71
470.09	19385.73
470.295	19445.12
470.5	18853.26
470.705	19205.51
470.91	18480.53
471.115	18296.21
471.32	18587.02
471.525	18546.06
471.73	18183.57
471.935	17999.26
472.139	17395.11
472.344	17636.77
472.549	17540.51
472.754	17116.58
472.959	16844.2
473.164	16637.36
473.369	16352.69
473.574	16577.97
473.778	16772.52
473.983	16494
474.188	16713.13
474.393	15635.9
474.598	15898.04
474.802	15769.02
475.007	15599.04
475.212	15547.84
475.417	14955.97
475.621	15029.7
475.826	15078.85
476.031	14874.06
476.235	14222.8
476.44	14712.27
476.645	14503.37
476.849	14489.04
477.054	14439.89
477.259	14136.79
477.463	14108.12
477.668	13743.58
477.872	13807.06
478.077	13542.88
478.282	13233.63
478.486	13360.61
478.691	13178.34
478.895	13016.55
479.1	12922.34
479.304	13243.87
479.509	12537.32
479.713	12805.61
479.918	12346.86
480.122	12361.2
480.326	12588.52
480.531	12643.82
480.735	12502.51
480.94	12350.96
481.144	12553.71
481.348	12109.3
481.553	12326.38
481.757	11918.84
481.961	11871.73
482.166	12475.88
482.37	12035.57
482.574	12121.59
482.778	11990.52
482.983	12187.12
483.187	12103.15
483.391	12025.33
483.595	11912.69
483.8	11906.55
484.004	11914.74
484.208	12062.19
484.412	11947.51
484.616	12301.81
484.821	12002.8
485.025	12045.81
485.229	12008.95
485.433	11761.14
485.637	12111.35
485.841	11843.06
486.045	11914.74
486.249	12027.38
486.453	11843.06
486.657	11959.8
486.861	11884.02
487.065	11863.54
487.269	11793.91
487.473	11761.14
487.677	11990.52
487.881	12078.58
488.085	11912.69
488.289	11914.74
488.493	11992.56
488.697	11953.65
488.901	11748.86
489.105	12230.13
489.309	12000.76
489.512	12080.63
489.716	12080.63
489.92	12078.58
490.124	11961.84
490.328	12305.9
490.531	12000.76
490.735	12054
490.939	12230.13
491.143	12248.56
491.346	12150.26
491.55	12752.36
491.754	12398.06
491.958	12453.36
492.161	12301.81
492.365	12479.98
492.569	12447.21
492.772	12559.85
492.976	12658.15
493.18	12717.54
493.383	12705.26
493.587	13069.8
493.79	13188.58
493.994	12768.74
494.197	13024.74
494.401	13127.14
494.605	13026.79
494.808	13290.98
495.012	13411.81
495.215	13471.2
495.419	13489.63
495.622	13680.09
495.825	13864.41
496.029	13802.97
496.232	13944.28
496.436	13919.7
496.639	14274
496.843	14228.95
497.046	14546.38
497.249	14675.4
497.453	14790.09
497.656	14925.25
497.859	14941.64
498.063	14949.83
498.266	15416.77
498.469	15228.35
498.673	15588.8
498.876	15711.67
499.079	15771.07
499.282	16025.01
499.485	16375.22
499.689	16248.24
499.892	16526.77
500.095	16743.85
500.298	17024.42
500.501	16889.26
500.705	17288.61
500.908	17421.73
501.111	17548.7
501.314	17853.85
501.517	17923.48
501.72	18025.88
501.923	18138.52
502.126	18554.26
502.329	18922.89
502.532	18662.8
502.735	19035.53
502.938	19500.42
503.141	19641.73
503.344	19727.74
503.547	19725.69
503.75	20342.13
503.953	20510.07
504.156	20512.11
504.359	20852.08
504.562	20739.44
504.765	21517.67
504.968	21687.65
505.17	21857.63
505.373	21706.08
505.576	22306.13
505.779	22420.82
505.982	22596.95
506.185	23010.64
506.387	23199.05
506.59	23197
506.793	23743.81
506.996	23573.83
507.198	24239.42
507.401	24366.39
507.604	24456.5
507.807	25156.91
508.009	25074.99
508.212	25136.43
508.415	25879.84
508.617	25642.28
508.82	26152.22
509.022	25912.61
509.225	26696.98
509.428	26787.09
509.63	26930.45
509.833	27049.23
510.035	27823.36
510.238	27512.07
510.44	28413.18
510.643	28447.99
510.845	28796.15
511.048	28255.48
511.25	29293.8
511.453	29437.16
511.655	30368.99
511.858	29756.64
512.06	30346.46
512.262	30538.97
512.465	30981.33
512.667	31128.78
512.87	31485.13
513.072	31276.24
513.274	32302.27
513.477	32607.42
513.679	32570.55
513.881	33211.57
514.084	33678.5
514.286	33356.97
514.488	33598.63
514.69	34735.26
514.893	34360.48
515.095	34854.04
515.297	35099.8
515.499	35484.81
515.701	35665.03
515.904	35912.84
516.106	36469.89
516.308	36873.34
516.51	37215.35
516.712	37061.75
516.914	37201.01
517.116	38038.63
517.318	38210.66
517.52	38509.66
517.722	38278.24
517.925	39310.42
518.127	39478.35
518.329	39695.44
518.531	39459.92
518.733	40447.04
518.935	40819.77
519.136	40918.07
519.338	41737.26
519.54	41372.72
519.742	42214.44
519.944	42345.51
520.146	42718.24
520.348	42892.32
520.55	42982.43
520.752	43541.52
520.954	44061.71
521.155	43547.67
521.357	44465.16
521.559	44876.8
521.761	45417.46
521.963	44983.29
522.164	45661.17
522.366	45501.43
522.568	46328.81
522.77	46509.03
522.971	47420.38
523.173	46482.41
523.375	47393.75
523.576	47037.4
523.778	47139.8
523.98	47918.03
524.181	48452.55
524.383	47991.76
524.584	49230.78
524.786	48823.23
524.988	48688.07
525.189	49441.72
525.391	49025.98
525.592	49974.19
525.794	49888.18
525.995	50477.99
526.197	50183.08
526.398	50375.59
526.6	51037.09
526.801	50779.04
527.003	51049.38
527.204	51475.35
527.406	51688.34
527.607	51080.1
527.808	52112.27
528.01	51256.22
528.211	51430.3
528.412	52222.86
528.614	52163.47
528.815	52536.2
529.016	52857.73
529.218	52378.51
529.419	52175.76
529.62	52806.53
529.822	52568.97
530.023	52640.65
530.224	52640.65
530.425	52943.75
530.626	52444.04
530.828	52384.65
531.029	53719.93
531.23	52974.47
531.431	53169.02
531.632	53304.19
531.833	53578.62
532.035	53275.52
532.236	53154.69
532.437	53961.59
532.638	53468.03
532.839	54055.79
533.04	54033.27
533.241	53214.08
533.442	54250.35
533.643	54203.25
533.844	53779.32
534.045	53965.68
534.246	53343.1
534.447	53781.37
534.648	53459.83
534.849	53891.96
535.05	53570.43
535.251	53869.43
535.451	53877.62
535.652	53846.9
535.853	53693.3
536.054	53652.34
536.255	54117.23
536.456	53263.23
536.657	54188.91
536.857	53627.77
537.058	53515.13
537.259	54246.25
537.46	53926.77
537.66	53767.03
537.861	53875.57
538.062	53934.96
538.263	53879.67
538.463	53818.23
538.664	53701.5
538.865	54170.48
539.065	54094.71
539.266	53324.67
539.466	54367.09
539.667	53183.36
539.868	54205.3
540.068	53394.3
540.269	53496.7
540.469	53980.02
540.67	53658.49
540.87	53746.55
541.071	53828.47
541.271	54059.89
541.472	53433.21
541.672	53568.38
541.873	53406.59
542.073	52794.25
542.274	53627.77
542.474	53400.44
542.675	53097.34
542.875	53742.45
543.075	53631.86
543.276	53083.01
543.476	53795.7
543.676	53265.28
543.877	53232.51
544.077	53312.38
544.277	53222.27
544.478	53476.22
544.678	53623.67
544.878	53390.2
545.078	53078.91
545.279	53029.76
545.479	52761.48
545.679	53220.22
545.879	52763.53
546.079	53087.1
546.28	53130.11
546.48	52374.41
546.68	53394.3
546.88	53447.55
547.08	53721.97
547.28	52702.09
547.48	52753.29
547.68	53187.46
547.88	52853.64
548.081	53379.96
548.281	53345.15
548.481	52966.27
548.681	53347.2
548.881	53101.44
549.081	52872.07
549.28	52601.74
549.48	53140.35
549.68	52546.44
549.88	53328.76
550.08	52984.71
550.28	53025.67
550.48	52609.93
550.68	53062.53
550.88	52585.35
551.08	52697.99
551.279	52761.48
551.479	52345.74
551.679	52804.48
551.879	52837.25
552.079	53136.26
552.278	52456.33
552.478	52595.59
552.678	52564.87
552.878	52964.23
553.077	52603.78
553.277	52296.59
553.477	53205.89
553.676	52345.74
553.876	52265.87
554.076	52183.95
554.275	52476.81
554.475	51915.67
554.674	52372.36
554.874	52454.28
555.074	51966.87
555.273	52507.53
555.473	52820.87
555.672	52009.87
555.872	52210.57
556.071	52013.97
556.271	52652.94
556.47	51848.08
556.67	51321.76
556.869	51878.8
557.068	52120.46
557.268	51760.02
557.467	51985.3
557.667	51676.05
557.866	51690.39
558.065	51348.38
558.265	51428.25
558.464	50992.03
558.663	51796.88
558.863	51071.9
559.062	51770.26
559.261	50703.27
559.461	51592.09
559.66	50795.43
559.859	51121.05
560.058	51039.14
560.258	51125.15
560.457	50699.17
560.656	51424.15
560.855	50658.21
561.054	50936.74
561.253	50533.29
561.453	50351.02
561.652	51114.91
561.851	50394.03
562.05	50301.87
562.249	50629.54
562.448	50658.21
562.647	50197.42
562.846	49904.56
563.045	50154.41
563.244	49750.96
563.443	50473.9
563.642	49353.66
563.841	49810.35
564.04	49521.59
564.239	50140.08
564.438	49161.15
564.637	49689.52
564.836	49435.58
565.035	48991.17
565.234	49669.04
565.432	48980.93
565.631	48980.93
565.83	49322.94
566.029	48690.12
566.228	48718.79
566.427	48800.71
566.625	48401.35
566.824	48098.25
567.023	48860.1
567.222	47600.6
567.42	48513.99
567.619	48026.57
567.818	47832.02
568.016	47889.36
568.215	48206.8
568.414	47598.55
568.612	48083.92
568.811	47344.6
569.01	47717.33
569.208	46818.27
569.407	47436.76
569.605	47211.48
569.804	47250.39
570.002	46527.46
570.201	47320.02
570.4	46392.29
570.598	46568.42
570.797	46142.44
570.995	46396.39
571.193	45808.62
571.392	46537.7
571.59	45919.21
571.789	46115.82
571.987	45923.31
572.186	45786.1
572.384	45636.59
572.582	45837.3
572.781	45503.48
572.979	44803.07
573.177	45265.91
573.376	45247.48
573.574	44993.53
573.772	44934.14
573.971	44825.6
574.169	44674.05
574.367	44456.96
574.565	44868.61
574.763	44416
574.962	44174.34
575.16	43873.29
575.358	44348.42
575.556	43691.02
575.754	44389.38
575.952	43686.93
576.151	44114.95
576.349	43590.67
576.547	43146.26
576.745	43285.53
576.943	43326.49
577.141	43299.86
577.339	43572.24
577.537	42871.84
577.735	42980.38
577.933	42708
578.131	42398.76
578.329	42470.43
578.527	42114.09
578.725	42247.21
578.923	42544.16
579.121	42003.5
579.319	41554.99
579.516	41827.37
579.714	41974.83
579.912	41563.18
580.11	41665.58
580.308	41634.86
580.506	41272.37
580.704	40623.17
580.901	41233.46
581.099	41278.52
581.297	40617.02
581.495	40574.02
581.692	41014.33
581.89	40565.82
582.088	40823.87
582.285	40516.67
582.483	40383.55
582.681	40121.41
582.878	39791.69
583.076	39685.2
583.274	40084.55
583.471	39357.52
583.669	39629.9
583.866	39519.31
584.064	39609.42
584.262	39126.1
584.459	39656.53
584.657	38970.46
584.854	39398.48
585.052	38354.02
585.249	38710.36
585.447	38753.37
585.644	38681.69
585.841	38403.17
586.039	38720.6
586.236	38118.5
586.434	38214.76
586.631	38018.15
586.828	38040.68
587.026	37723.24
587.223	37788.78
587.42	37321.84
587.618	37729.39
587.815	37082.23
588.012	37174.39
588.21	37211.25
588.407	37295.22
588.604	37211.25
588.801	36856.95
588.999	36764.79
589.196	36723.83
589.393	36797.56
589.59	36611.2
589.787	36545.66
589.984	36428.93
590.182	35896.45
590.379	36265.09
590.576	35587.21
590.773	36029.57
590.97	35517.58
591.167	35798.15
591.364	35558.54
591.561	35486.86
591.758	35054.74
591.955	35161.23
592.152	35794.06
592.349	34788.5
592.546	35191.95
592.743	35007.64
592.94	34387.1
593.137	34679.96
593.334	34716.82
593.531	34088.1
593.727	34702.49
593.924	34153.63
594.121	34018.47
594.318	34352.29
594.515	33529
594.712	34245.79
594.908	33840.29
595.105	33873.06
595.302	33354.93
595.499	33508.52
595.696	33510.57
595.892	33068.21
596.089	33217.71
596.286	33270.96
596.482	33055.92
596.679	33258.67
596.876	33307.82
597.072	32289.98
597.269	32744.63
597.466	32201.92
597.662	32423.1
597.859	32629.94
598.055	32429.24
598.252	32337.09
598.448	31837.38
598.645	31567.05
598.841	31395.02
599.038	31608.01
599.234	31636.68
599.431	31241.42
599.627	31446.22
599.824	31390.92
600.02	31132.88
600.217	31681.74
600.413	31225.04
600.609	30991.57
600.806	30670.04
601.002	31061.2
601.198	30506.2
601.395	30340.32
601.591	30778.58
601.787	30498.01
601.984	30156
602.18	30506.2
602.376	30510.3
602.572	30272.73
602.769	29795.56
602.965	29658.34
603.161	29715.69
603.357	29709.54
603.553	29469.93
603.75	29687.01
603.946	29164.78
604.142	29476.07
604.338	29140.21
604.534	29347.05
604.73	28798.2
604.926	28759.28
605.122	29107.44
605.318	28450.04
605.514	28591.35
605.71	28677.37
605.906	28452.09
606.102	28265.72
606.298	28486.9
606.494	28675.32
606.69	28419.32
606.886	28404.99
607.082	27931.9
607.278	28128.51
607.474	27823.36
607.67	27966.72
607.866	27604.23
608.062	27663.62
608.257	27411.72
608.453	27569.41
608.649	27673.86
608.845	27112.72
609.041	27217.16
609.236	27626.76
609.432	27307.27
609.628	27274.51
609.824	27221.26
610.019	27452.68
610.215	26928.4
610.411	27186.44
610.606	27090.19
610.802	26971.41
610.998	26934.54
611.193	26776.85
611.389	26608.92
611.584	26668.31
611.78	26301.72
611.976	26891.54
612.171	26709.27
612.367	26316.06
612.562	26221.85
612.758	26098.97
612.953	25888.03
613.149	26359.06
613.344	25867.55
613.539	26447.13
613.735	26248.47
613.93	26121.5
614.126	25910.56
614.321	26260.76
614.517	26115.36
614.712	25740.58
614.907	25695.52
615.103	25857.31
615.298	25822.5
615.493	26041.63
615.688	25378.09
615.884	25988.38
616.079	25224.49
616.274	25496.87
616.47	25431.33
616.665	25154.86
616.86	24991.02
617.055	25386.28
617.25	25275.69
617.445	25427.24
617.641	24511.8
617.836	24933.68
618.031	24560.95
618.226	24884.53
618.421	24788.27
618.616	25005.36
618.811	24280.38
619.006	24687.92
619.201	24214.84
619.396	24421.69
619.591	24096.06
619.786	24024.38
619.981	23735.62
620.176	24063.29
620.371	23725.38
620.566	23979.32
620.761	23559.49
620.956	23620.93
621.151	23264.58
621.346	23338.31
621.541	22814.03
621.735	23633.22
621.93	22807.89
622.125	22592.85
622.32	22578.51
622.515	22592.85
622.709	22455.64
622.904	22621.52
623.099	22136.15
623.294	22506.84
623.488	22052.19
623.683	22125.91
623.878	21658.98
624.072	21450.08
624.267	22007.13
624.462	21335.4
624.656	21364.07
624.851	21122.41
625.046	21038.44
625.24	21302.63
625.435	20874.6
625.629	20774.25
625.824	20526.45
626.018	20673.9
626.213	20372.85
626.407	20456.82
626.602	20360.56
626.796	19983.74
626.991	20551.03
627.185	20024.7
627.38	19813.76
627.574	19656.06
627.768	19690.88
627.963	19428.74
628.157	19275.14
628.352	19537.28
628.546	19056.01
628.74	19238.28
628.935	18871.69
629.129	19066.25
629.323	18527.63
629.517	18771.34
629.712	18916.75
629.906	18441.62
630.1	18224.53
630.294	18525.58
630.489	18177.43
630.683	18148.76
630.877	17864.09
631.071	17933.72
631.265	18011.54
631.459	17622.43
631.653	17730.97
631.848	17495.46
632.042	17137.06
632.236	17337.76
632.43	17130.92
632.624	17339.81
632.818	17059.24
633.012	16860.59
633.206	16809.39
633.4	16977.32
633.594	16659.88
633.788	16776.62
633.982	16750
634.176	16709.04
634.369	16397.74
634.563	16641.45
634.757	16309.68
634.951	16268.72
635.145	16166.32
635.339	16307.63
635.533	15805.88
635.726	15687.1
635.92	15619.52
636.114	15629.76
636.308	15594.94
636.501	15510.97
636.695	15437.25
636.889	15386.05
637.083	15533.5
637.276	15179.2
637.47	15039.94
637.664	14966.21
637.857	14980.55
638.051	14951.88
638.244	14693.83
638.438	14790.09
638.632	14443.98
638.825	14573
639.019	14511.57
639.212	14501.33
639.406	14360.02
639.599	14208.47
639.793	14181.84
639.986	13788.63
640.18	14009.81
640.373	14046.68
640.567	13917.65
640.76	13790.68
640.954	13481.44
641.147	13549.02
641.34	13512.16
641.534	13428.19
641.727	13551.07
641.92	13626.84
642.114	13286.88
642.307	13161.95
642.5	13147.62
642.694	12752.36
642.887	13063.65
643.08	12942.82
643.273	12836.33
643.467	12916.2
643.66	12668.39
643.853	12551.66
644.046	12555.76
644.239	12609
644.432	12398.06
644.626	12295.66
644.819	12080.63
645.012	12078.58
645.205	12330.48
645.398	12201.46
645.591	12131.83
645.784	12006.9
645.977	11765.24
646.17	11830.77
646.363	11714.04
646.556	11658.74
646.749	11689.46
646.942	11503.1
647.135	11523.58
647.328	11359.74
647.521	11439.61
647.714	11124.22
647.907	11449.85
648.099	11208.19
648.292	11206.14
648.485	11087.36
648.678	10960.39
648.871	10911.24
649.064	10763.78
649.256	10937.86
649.449	10874.37
649.642	10726.92
649.835	10579.47
650.027	10632.71
650.22	10599.94
650.413	10348.04
650.605	10403.34
650.798	10423.82
650.991	10042.9
651.183	10259.98
651.376	9985.55
651.568	10157.58
651.761	10280.46
651.954	10090
652.146	9889.3
652.339	9977.36
652.531	9809.43
652.724	9920.02
652.916	9633.3
653.109	9795.09
653.301	9713.17
653.494	9694.74
653.686	9573.91
653.879	9500.19
654.071	9502.23
654.263	9381.4
654.456	9453.08
654.648	9217.57
654.84	9301.53
655.033	9397.79
655.225	9192.99
655.417	9127.46
655.61	9084.45
655.802	9154.08
655.994	9039.39
656.186	8842.79
656.379	8783.4
656.571	8846.88
656.763	8578.6
656.955	8824.36
657.148	8797.73
657.34	8640.04
657.532	8484.39
657.724	8601.13
657.916	8259.12
658.108	8668.71
658.3	8445.48
658.492	8291.88
658.684	8199.73
658.876	8224.3
659.068	8355.37
659.26	8377.9
659.452	8291.88
659.644	8138.29
659.836	8044.08
660.028	7984.69
660.22	7786.04
660.412	7884.34
660.604	7941.68
660.796	7865.91
660.988	7747.12
661.18	7747.12
661.372	7827
661.563	7863.86
661.755	7560.76
661.947	7624.25
662.139	7536.18
662.331	7415.35
662.522	7480.89
662.714	7521.85
662.906	7306.81
663.097	7366.2
663.289	7269.95
663.481	7362.11
663.673	7140.93
663.864	7298.62
664.056	7179.84
664.247	7091.77
664.439	7044.67
664.631	7081.53
664.822	7038.53
665.014	7134.78
665.205	7050.82
665.397	6790.72
665.588	6856.26
665.78	6745.67
665.971	6764.1
666.163	6870.59
666.354	6723.14
666.546	6719.04
666.737	6618.69
666.929	6798.91
667.12	6596.17
667.311	6661.7
667.503	6534.73
667.694	6391.37
667.885	6313.55
668.077	6372.94
668.268	6434.38
668.459	6331.98
668.651	6323.79
668.842	6553.16
669.033	6377.03
669.224	6145.61
669.416	6389.32
669.607	6094.41
669.798	6235.72
669.989	6346.31
670.18	6039.12
670.371	6069.84
670.563	6211.15
670.754	6024.78
670.945	5987.92
671.136	5873.23
671.327	5924.43
671.518	5951.06
671.709	5969.49
671.9	5918.29
672.091	5908.05
672.282	5887.57
672.473	5928.53
672.664	5772.88
672.855	5736.02
673.046	5895.76
673.237	5819.99
673.428	5731.92
673.619	5586.52
673.809	5512.79
674	5537.37
674.191	5604.95
674.382	5473.88
674.573	5604.95
674.764	5391.96
674.954	5523.03
675.145	5496.41
675.336	5629.52
675.527	5441.11
675.717	5332.57
675.908	5320.28
676.099	5344.86
676.289	5295.71
676.48	5285.47
676.671	5285.47
676.861	5332.57
677.052	5232.22
677.243	5170.78
677.433	5234.27
677.624	5248.6
677.814	5185.12
678.005	5226.07
678.195	5269.08
678.386	5023.33
678.576	5056.09
678.767	5080.67
678.957	5144.16
679.148	5213.79
679.338	5176.92
679.529	5152.35
679.719	4974.17
679.909	4949.6
680.1	5023.33
680.29	5072.48
680.481	5029.47
680.671	5066.33
680.861	4998.75
681.052	5060.19
681.242	5129.82
681.432	4984.41
681.622	5008.99
681.813	4914.78
682.003	4949.6
682.193	4822.63
682.383	4906.59
682.573	4882.02
682.764	4804.19
682.954	4945.5
683.144	4865.63
683.334	4853.34
683.524	4697.7
683.714	4796
683.904	4707.94
684.094	4652.64
684.284	4798.05
684.474	4855.39
684.664	4712.03
684.854	4796
685.044	4652.64
685.234	4466.28
685.424	4714.08
685.614	4687.46
685.804	4453.99
685.994	4617.83
686.184	4730.47
686.374	4462.18
686.564	4472.42
686.753	4456.04
686.943	4419.18
687.133	4556.39
687.323	4443.75
687.513	4474.47
687.702	4464.23
687.892	4367.98
688.082	4320.87
688.272	4437.61
688.461	4507.24
688.651	4576.87
688.841	4372.07
689.03	4238.95
689.22	4404.84
689.41	4269.67
689.599	4243.05
689.789	4380.26
689.979	4234.86
690.168	4191.85
690.358	4245.1
690.547	4259.43
690.737	4185.71
690.926	4271.72
691.116	4062.83
691.305	4148.84
691.495	4097.64
691.684	4071.02
691.874	4187.75
692.063	4087.4
692.252	4019.82
692.442	4165.23
692.631	3993.2
692.82	3954.29
693.01	4089.45
693.199	3944.05
693.388	3954.29
693.578	4048.49
693.767	4054.64
693.956	3968.62
694.146	3829.36
694.335	3905.14
694.524	3993.2
694.713	3942
694.902	3958.38
695.092	3872.37
695.281	3800.69
695.47	3870.32
695.659	3919.47
695.848	3782.26
696.037	3729.01
696.226	3784.3
696.415	3839.6
696.604	3982.96
696.793	3747.44
696.982	3839.6
697.171	3843.7
697.36	3716.72
697.549	3907.18
697.738	3741.3
697.927	3776.11
698.116	3794.54
698.305	3718.77
698.494	3837.55
698.683	3845.74
698.872	3825.26
699.061	3729.01
699.25	3753.59
699.438	3669.62
699.627	3712.63
699.816	3739.25
700.005	3671.67
700.193	3663.47
700.382	3798.64
700.571	3718.77
700.76	3616.37
700.948	3548.79
701.137	3634.8
701.326	3567.22
701.514	3610.23
701.703	3647.09
701.892	3647.09
702.08	3559.03
702.269	3573.36
702.457	3454.58
702.646	3491.45
702.834	3561.08
703.023	3534.45
703.212	3614.32
703.4	3489.4
703.589	3550.84
703.777	3571.32
703.965	3368.57
704.154	3513.97
704.342	3440.25
704.531	3516.02
704.719	3425.91
704.907	3346.04
705.096	3430.01
705.284	3491.45
705.472	3413.62
705.661	3419.77
705.849	3475.06
706.037	3487.35
706.226	3448.44
706.414	3403.38
706.602	3391.09
706.79	3442.29
706.979	3389.05
707.167	3384.95
707.355	3311.22
707.543	3454.58
707.731	3325.56
707.919	3362.42
708.107	3276.41
708.296	3333.75
708.484	3257.98
708.672	3200.63
708.86	3329.66
709.048	3090.04
709.236	3329.66
709.424	3303.03
709.612	3296.89
709.8	3188.35
709.988	3260.02
710.176	3141.24
710.364	3300.98
710.551	3253.88
710.739	3243.64
710.927	3194.49
711.115	3124.86
711.303	3206.78
711.491	3229.31
711.679	3161.72
711.866	3253.88
712.054	3067.52
712.242	3135.1
712.43	3184.25
712.617	3098.24
712.805	3131
712.993	3075.71
713.181	3059.32
713.368	3133.05
713.556	3110.52
713.744	2875.01
713.931	3260.02
714.119	3227.26
714.306	3106.43
714.494	3071.61
714.682	3016.32
714.869	2981.5
715.057	3051.13
715.244	3008.12
715.432	3028.6
715.619	3040.89
715.807	2903.68
715.994	3038.84
716.182	2954.88
716.369	2950.78
716.556	3044.99
716.744	2870.91
716.931	3028.6
717.119	2870.91
717.306	3018.36
717.493	2883.2
717.681	2897.53
717.868	2801.28
718.055	2887.29
718.242	2934.4
718.43	2985.6
718.617	2879.1
718.804	2922.11
718.991	2803.33
719.179	2864.77
719.366	2881.15
719.553	2887.29
719.74	2913.92
719.927	2770.56
720.114	2821.76
720.301	2948.73
720.488	2723.46
720.676	2610.82
720.863	2797.18
721.05	2774.66
721.237	2776.7
721.424	2762.37
721.611	2842.24
721.798	2817.66
721.985	2705.03
722.172	2700.93
722.358	2707.07
722.545	2727.55
722.732	2541.19
722.919	2727.55
723.106	2551.43
723.293	2594.44
723.48	2520.71
723.667	2641.54
723.853	2670.21
724.04	2743.94
724.227	2608.77
724.414	2649.73
724.6	2530.95
724.787	2670.21
724.974	2653.83
725.161	2678.4
725.347	2619.01
725.534	2590.34
725.72	2553.48
725.907	2520.71
726.094	2514.56
726.28	2565.76
726.467	2502.28
726.653	2502.28
726.84	2647.68
727.027	2592.39
727.213	2522.76
727.4	2496.13
727.586	2334.34
727.773	2567.81
727.959	2492.04
728.145	2457.22
728.332	2586.24
728.518	2545.28
728.705	2551.43
728.891	2455.17
729.077	2420.36
729.264	2424.45
729.45	2385.54
729.636	2500.23
729.823	2446.98
730.009	2479.75
730.195	2557.57
730.382	2522.76
730.568	2428.55
730.754	2455.17
730.94	2465.41
731.126	2373.25
731.313	2440.84
731.499	2307.72
731.685	2463.37
731.871	2313.86
732.057	2446.98
732.243	2297.48
732.429	2395.78
732.615	2322.06
732.801	2336.39
732.987	2328.2
733.173	2305.67
733.359	2211.46
733.545	2367.11
733.731	2367.11
733.917	2375.3
734.103	2377.35
734.289	2307.72
734.475	2215.56
734.661	2375.3
734.847	2266.76
735.033	2231.94
735.219	2330.25
735.404	2289.29
735.59	2295.43
735.776	2203.27
735.962	2293.38
736.148	2338.44
736.333	2229.9
736.519	2242.18
736.705	2174.6
736.89	2221.7
737.076	2180.75
737.262	2182.79
737.447	2109.07
737.633	2174.6
737.819	2199.18
738.004	2211.46
738.19	2256.52
738.375	2113.16
738.561	2209.42
738.747	2166.41
738.932	2104.97
739.118	2154.12
739.303	2066.06
739.489	2064.01
739.674	1975.95
739.859	2059.92
740.045	2068.11
740.23	2016.91
740.416	1953.42
740.601	2102.92
740.786	2002.57
740.972	2051.72
741.157	1920.65
741.342	1957.52
741.528	2027.15
741.713	2115.21
741.898	2004.62
742.084	1998.48
742.269	1978
742.454	1879.69
742.639	2078.35
742.824	1887.89
743.01	1914.51
743.195	1861.26
743.38	1943.18
743.565	1986.19
743.75	1996.43
743.935	1810.06
744.12	2047.63
744.305	1838.73
744.49	1937.04
744.675	1869.45
744.86	1848.97
745.045	1891.98
745.23	1840.78
745.415	1887.89
745.6	1898.13
745.785	1754.77
745.97	1816.21
746.155	1830.54
746.34	1810.06
746.525	1740.43
746.71	1703.57
746.895	1691.28
747.079	1676.95
747.264	1730.19
747.449	1707.66
747.634	1666.71
747.819	1787.54
748.003	1685.14
748.188	1752.72
748.373	1683.09
748.557	1574.55
748.742	1642.13
748.927	1656.47
749.111	1574.55
749.296	1666.71
749.481	1601.17
749.665	1625.75
749.85	1619.6
750.034	1492.63
750.219	1648.27
750.404	1584.79
750.588	1668.75
750.773	1611.41
750.957	1517.2
751.141	1615.51
751.326	1496.72
751.51	1453.72
751.695	1498.77
751.879	1488.53
752.064	1423
752.248	1379.99
752.432	1416.85
752.617	1334.93
752.801	1441.43
752.985	1343.13
753.17	1463.96
753.354	1402.52
753.538	1357.46
753.722	1365.65
753.907	1293.97
754.091	1359.51
754.275	1351.32
754.459	1238.68
754.643	1361.56
754.828	1384.09
755.012	1304.21
755.196	1175.19
755.38	1308.31
755.564	1267.35
755.748	1259.16
755.932	1158.81
756.116	1271.45
756.3	1242.78
756.484	1234.58
756.668	1158.81
756.852	1156.76
757.036	1203.86
757.22	1205.91
757.404	1156.76
757.588	1123.99
757.772	1138.33
757.956	1144.47
758.14	1150.62
758.323	1068.7
758.507	1132.19
758.691	1080.99
758.875	992.92
759.059	1107.61
759.242	1064.6
759.426	1085.08
759.61	1037.98
759.794	1093.27
759.977	1199.77
760.161	1150.62
760.345	1050.27
760.528	1040.03
760.712	988.83
760.895	1005.21
761.079	949.92
761.263	999.07
761.446	1017.5
761.63	1042.07
761.813	1015.45
761.997	904.86
762.18	1011.36
762.364	935.58
762.547	1019.55
762.731	986.78
762.914	941.72
763.098	1013.4
763.281	964.25
763.464	974.49
763.648	949.92
763.831	976.54
764.015	939.68
764.198	958.11
764.381	906.91
764.564	927.39
764.748	935.58
764.931	954.01
765.114	845.47
765.297	951.96
765.481	898.72
765.664	962.2
765.847	960.16
766.03	970.4
766.213	851.61
766.397	898.72
766.58	880.29
766.763	892.57
766.946	904.86
767.129	814.75
767.312	857.76
767.495	814.75
767.678	884.38
767.861	859.81
768.044	865.95
768.227	847.52
768.41	878.24
768.593	956.06
768.776	851.61
768.959	878.24
769.142	843.42
769.324	876.19
769.507	888.48
769.69	790.17
769.873	755.36
770.056	839.33
770.239	773.79
770.421	736.93
770.604	833.18
770.787	702.11
770.97	745.12
771.152	773.79
771.335	759.46
771.518	777.89
771.7	829.09
771.883	786.08
772.066	759.46
772.248	757.41
772.431	804.51
772.613	759.46
772.796	698.02
772.978	642.72
773.161	685.73
773.343	700.06
773.526	728.74
773.708	769.69
773.891	605.86
774.073	702.11
774.256	679.58
774.438	751.26
774.621	663.2
774.803	734.88
774.985	642.72
775.168	712.35
775.35	687.78
775.532	708.26
775.715	638.62
775.897	671.39
776.079	642.72
776.261	593.57
776.444	550.56
776.626	693.92
776.808	612
776.99	591.52
777.173	593.57
777.355	663.2
777.537	663.2
777.719	573.09
777.901	659.1
778.083	601.76
778.265	628.39
778.447	624.29
778.629	601.76
778.811	591.52
778.993	597.67
779.175	593.57
779.357	579.23
779.539	487.08
779.721	528.03
779.903	548.51
780.085	558.75
780.267	566.95
780.449	515.75
780.631	577.19
780.812	497.32
780.994	550.56
781.176	482.98
781.358	513.7
781.54	458.4
781.721	564.9
781.903	583.33
782.085	431.78
782.267	550.56
782.448	419.49
782.63	507.55
782.812	552.61
782.993	474.79
783.175	411.3
783.357	446.12
783.538	509.6
783.72	386.72
783.901	485.03
784.083	499.36
784.264	372.39
784.446	372.39
784.627	399.01
784.809	528.03
784.99	538.27
785.172	339.62
785.353	374.44
785.535	474.79
785.716	399.01
785.897	413.35
786.079	431.78
786.26	439.97
786.441	394.92
786.623	329.38
786.804	384.68
786.985	388.77
787.167	423.59
787.348	380.58
787.529	509.6
787.71	421.54
787.891	446.12
788.073	411.3
788.254	370.34
788.435	317.09
788.616	360.1
788.797	360.1
788.978	327.33
789.159	325.29
789.34	360.1
789.522	362.15
789.703	300.71
789.884	353.96
790.065	380.58
790.246	401.06
790.427	325.29
790.607	292.52
790.788	386.72
790.969	267.94
791.15	351.91
791.331	331.43
791.512	272.04
791.693	347.81
791.874	382.63
792.054	368.29
792.235	321.19
792.416	284.33
792.597	267.94
792.778	317.09
792.958	329.38
793.139	253.61
793.32	233.13
793.5	247.46
793.681	265.89
793.862	313
794.042	247.46
794.223	188.07
794.404	286.37
794.584	292.52
794.765	247.46
794.945	269.99
795.126	298.66
795.306	317.09
795.487	231.08
795.667	269.99
795.848	308.9
796.028	282.28
796.209	294.57
796.389	323.24
796.57	267.94
796.75	245.41
796.93	239.27
797.111	192.17
797.291	253.61
797.471	282.28
797.652	231.08
797.832	204.46
798.012	241.32
798.192	253.61
798.373	220.84
798.553	224.94
798.733	255.65
798.913	220.84
799.093	278.18
799.274	241.32
799.454	235.18
799.634	235.18
799.814	218.79
799.994	188.07
800.174	233.13
800.354	278.18
800.534	194.22
800.714	245.41
800.894	147.11
801.074	233.13
801.254	222.89
801.434	206.5
801.614	175.78
801.794	132.78
801.974	679.58
802.154	204.46
802.334	247.46
802.514	216.74
802.693	116.39
802.873	192.17
803.053	175.78
803.233	218.79
803.413	167.59
803.592	202.41
803.772	206.5
803.952	186.02
804.131	183.98
804.311	130.73
804.491	163.5
804.67	161.45
804.85	229.03
805.03	161.45
805.209	169.64
805.389	153.26
805.568	177.83
805.748	136.87
805.928	231.08
806.107	145.06
806.287	253.61
806.466	224.94
806.646	100.01
806.825	130.73
807.004	145.06
807.184	130.73
807.363	280.23
807.543	177.83
807.722	100.01
807.901	177.83
808.081	153.26
808.26	155.3
808.439	155.3
808.619	161.45
808.798	204.46
808.977	220.84
809.156	153.26
809.336	177.83
809.515	161.45
809.694	157.35
809.873	147.11
810.052	75.43
810.231	140.97
810.411	128.68
810.59	204.46
810.769	151.21
810.948	126.63
811.127	77.48
811.306	163.5
811.485	108.2
811.664	194.22
811.843	110.25
812.022	114.34
812.201	112.3
812.38	81.58
812.559	67.24
812.737	138.92
812.916	134.82
813.095	190.12
813.274	206.5
813.453	140.97
813.632	126.63
813.811	97.96
813.989	24.23
814.168	81.58
814.347	69.29
814.526	112.3
814.704	143.02
814.883	190.12
815.062	57
815.24	143.02
815.419	59.05
815.598	186.02
815.776	104.11
815.955	38.57
816.133	85.67
816.312	138.92
816.49	167.59
816.669	97.96
816.847	102.06
817.026	79.53
817.204	79.53
817.383	89.77
817.561	124.58
817.74	114.34
817.918	67.24
818.097	75.43
818.275	85.67
818.453	147.11
818.632	97.96
818.81	73.39
818.988	87.72
819.167	108.2
819.345	81.58
819.523	147.11
819.701	93.87
819.879	128.68
820.058	42.67
820.236	36.52
820.414	102.06
820.592	140.97
820.77	95.91
820.948	85.67
821.127	110.25
821.305	71.34
821.483	91.82
821.661	63.15
821.839	140.97
822.017	108.2
822.195	83.63
822.373	73.39
822.551	65.19
822.729	91.82
822.907	116.39
823.085	65.19
823.262	71.34
823.44	52.91
823.618	1.71
823.796	81.58
823.974	118.44
824.152	22.19
824.329	50.86
824.507	89.77
824.685	110.25
824.863	22.19
825.04	50.86
825.218	59.05
825.396	71.34
825.574	95.91
825.751	140.97
825.929	89.77
826.107	40.62
826.284	114.34
826.462	186.02
826.639	-16.73
826.817	-39.25
826.994	22.19
827.172	114.34
827.349	59.05
827.527	22.19
827.704	112.3
827.882	95.91
828.059	38.57
828.237	71.34
828.414	36.52
828.591	-31.06
828.769	63.15
828.946	52.91
829.124	75.43
829.301	124.58
829.478	-14.68
829.655	77.48
829.833	40.62
830.01	13.99
830.187	114.34
830.364	42.67
830.542	7.85
830.719	71.34
830.896	59.05
831.073	54.95
831.25	73.39
831.427	46.76
831.604	63.15
831.782	71.34
831.959	95.91
832.136	126.63
832.313	-0.34
832.49	77.48
832.667	75.43
832.844	-4.44
833.021	97.96
833.198	-16.73
833.374	91.82
833.551	46.76
833.728	52.91
833.905	89.77
834.082	67.24
834.259	11.95
834.436	147.11
834.612	83.63
834.789	18.09
834.966	-16.73
835.143	91.82
835.319	57
835.496	42.67
835.673	57
835.85	120.49
836.026	132.78
836.203	85.67
836.38	-12.63
836.556	48.81
836.733	54.95
836.909	61.1
837.086	61.1
837.262	61.1
837.439	97.96
837.616	50.86
837.792	16.04
837.968	89.77
838.145	18.09
838.321	-2.39
838.498	57
838.674	59.05
838.851	112.3
839.027	-0.34
839.203	67.24
839.38	32.43
839.556	91.82
839.732	40.62
839.909	-10.58
840.085	26.28
840.261	7.85
840.437	54.95
840.614	36.52
840.79	91.82
840.966	26.28
841.142	-14.68
841.318	52.91
841.494	52.91
841.671	38.57
841.847	30.38
842.023	42.67
842.199	50.86
842.375	102.06
842.551	20.14
842.727	77.48
842.903	69.29
843.079	18.09
843.255	83.63
843.431	11.95
843.607	91.82
843.783	-18.77
843.959	7.85
844.134	52.91
844.31	32.43
844.486	26.28
844.662	22.19
844.838	26.28
845.013	36.52
845.189	13.99
845.365	1.71
845.541	36.52
845.716	63.15
845.892	26.28
846.068	52.91
846.244	46.76
846.419	22.19
846.595	7.85
846.77	-2.39
846.946	30.38
847.122	-16.73
847.297	65.19
847.473	-37.2
847.648	-12.63
847.824	34.47
847.999	-22.87
848.175	50.86
848.35	46.76
848.526	-20.82
848.701	42.67
848.876	52.91
849.052	30.38
849.227	9.9
849.403	44.71
849.578	-33.11
849.753	13.99
849.929	30.38
850.104	87.72
850.279	-8.53
850.454	-76.12
850.63	24.23
850.805	63.15
850.98	24.23
851.155	9.9
851.33	42.67
851.505	7.85
851.681	65.19
851.856	-20.82
852.031	34.47
852.206	7.85
852.381	44.71
852.556	32.43
852.731	-29.01
852.906	-45.4
853.081	34.47
853.256	28.33
853.431	75.43
853.606	57
853.781	-4.44
853.956	-2.39
854.131	7.85
854.305	7.85
854.48	-24.92
854.655	-31.06
854.83	22.19
855.005	-0.34
855.18	57
855.354	44.71
855.529	50.86
855.704	42.67
855.879	81.58
856.053	1.71
856.228	26.28
856.403	-33.11
856.577	11.95
856.752	34.47
856.926	1.71
857.101	-4.44
857.276	22.19
857.45	44.71
857.625	-6.49
857.799	59.05
857.974	42.67
858.148	-6.49
858.323	42.67
858.497	-31.06
858.672	38.57
858.846	-37.2
859.02	57
859.195	24.23
859.369	7.85
859.543	42.67
859.718	-51.54
859.892	-74.07
860.066	61.1
860.241	7.85
860.415	-8.53
860.589	-18.77
860.763	50.86
860.938	28.33
861.112	20.14
861.286	40.62
861.46	1.71
861.634	-33.11
861.808	-14.68
861.982	11.95
862.157	16.04
862.331	-8.53
862.505	-39.25
862.679	-55.64
862.853	32.43
863.027	-26.96
863.201	13.99
863.375	13.99
863.549	40.62
863.722	77.48
863.896	26.28
864.07	59.05
864.244	65.19
864.418	-35.16
864.592	34.47
864.766	-57.68
864.939	-16.73
865.113	5.8
865.287	-6.49
865.461	7.85
865.634	30.38
865.808	-39.25
865.982	-69.97
866.156	-8.53
866.329	-12.63
866.503	-20.82
866.676	-39.25
866.85	48.81
867.024	36.52
867.197	-2.39
867.371	93.87
867.544	7.85
867.718	-24.92
867.891	20.14
868.065	-47.44
868.238	-43.35
868.412	11.95
868.585	24.23
868.759	30.38
868.932	-18.77
869.105	-49.49
869.279	13.99
869.452	-8.53
869.625	-16.73
869.799	16.04
869.972	50.86
870.145	-10.58
870.319	-22.87
870.492	-24.92
870.665	-47.44
870.838	7.85
871.011	-51.54
871.185	-57.68
871.358	44.71
871.531	-18.77
871.704	-39.25
871.877	57
872.05	1.71
872.223	-92.5
872.396	-16.73
872.569	-84.31
872.742	-8.53
872.915	65.19
873.088	-8.53
873.261	-12.63
873.434	59.05
873.607	-49.49
873.78	34.47
873.953	-43.35
874.126	-35.16
874.299	42.67
874.471	30.38
874.644	24.23
874.817	-33.11
874.99	24.23
875.163	11.95
875.335	-6.49
875.508	-49.49
875.681	18.09
875.853	-51.54
876.026	30.38
876.199	46.76
876.371	-59.73
876.544	-29.01
876.717	-53.59
876.889	-92.5
877.062	3.75
877.234	-18.77
877.407	-41.3
877.579	46.76
877.752	-0.34
877.924	13.99
878.097	44.71
878.269	-35.16
878.442	81.58
878.614	85.67
878.786	34.47
878.959	-31.06
879.131	42.67
879.303	-33.11
879.476	-6.49
879.648	-18.77
879.82	28.33
879.993	-37.2
880.165	67.24
880.337	-39.25
880.509	-37.2
880.681	3.75
880.854	-0.34
881.026	-14.68
881.198	20.14
881.37	-6.49
881.542	-8.53
881.714	-45.4
881.886	-37.2
882.058	75.43
882.23	63.15
882.402	32.43
882.574	32.43
882.746	87.72
882.918	11.95
883.09	-31.06
883.262	-4.44
883.434	-4.44
883.606	-4.44
883.778	-86.36
883.95	40.62
884.122	7.85
884.293	22.19
884.465	5.8
884.637	7.85
884.809	-43.35
884.98	36.52
885.152	28.33
885.324	-22.87
885.496	-39.25
885.667	7.85
885.839	5.8
886.011	50.86
886.182	-26.96
886.354	-8.53
886.525	-18.77
886.697	34.47
886.869	-76.12
887.04	44.71
887.212	24.23
887.383	5.8
887.555	20.14
887.726	-57.68
887.897	-4.44
888.069	-26.96
888.24	36.52
888.412	-37.2
888.583	9.9
888.754	-16.73
888.926	-51.54
889.097	-67.92
889.268	-80.21
889.44	-4.44
889.611	9.9
889.782	-72.02
889.953	-51.54
890.125	-6.49
890.296	1.71
890.467	24.23
890.638	-8.53
890.809	28.33
890.98	9.9
891.151	54.95
891.323	-0.34
891.494	-47.44
891.665	-43.35
891.836	-72.02
892.007	-12.63
892.178	-45.4
892.349	-47.44
892.52	-57.68
892.691	11.95
892.862	-33.11
893.032	-39.25
893.203	30.38
893.374	22.19
893.545	57
893.716	9.9
893.887	-51.54
894.057	28.33
894.228	-47.44
894.399	-8.53
894.57	3.75
894.74	1.71
894.911	42.67
895.082	-29.01
895.253	22.19
895.423	-49.49
895.594	-26.96
895.764	-6.49
895.935	-49.49
896.106	-92.5
896.276	83.63
896.447	-55.64
896.617	-41.3
896.788	-43.35
896.958	-16.73
897.129	-53.59
897.299	-2.39
897.47	5.8
897.64	22.19
897.81	18.09
897.981	-18.77
898.151	-6.49
898.322	-2.39
898.492	11.95
898.662	-14.68
898.832	-20.82
899.003	-47.44
899.173	9.9
899.343	-47.44
899.513	-65.88
