Data from USB4F104151__65__12-36-35-314.txt Node

Date: Fri Mar 14 12:36:35 EDT 2025
User: louis
Spectrometer: USB4F10415
Trigger mode: 4
Integration Time (sec): 2.000000E-2
Scans to average: 1
Electric dark correction enabled: true
Nonlinearity correction enabled: false
Boxcar width: 0
XAxis mode: Wavelengths
Number of Pixels in Spectrum: 3648
>>>>>Begin Spectral Data<<<<<
178.204	-63.83
178.424	-63.83
178.644	-63.83
178.864	-41.3
179.084	-65.88
179.304	48.81
179.524	9.9
179.744	9.9
179.964	28.33
180.184	-0.34
180.404	-8.53
180.624	24.23
180.844	-18.77
181.064	-53.59
181.283	-12.63
181.503	1.71
181.723	-29.01
181.943	-8.53
182.163	42.67
182.383	-0.34
182.602	13.99
182.822	97.96
183.042	52.91
183.262	57
183.482	67.24
183.701	81.58
183.921	57
184.141	26.28
184.361	36.52
184.58	16.04
184.8	54.95
185.02	50.86
185.239	22.19
185.459	63.15
185.679	57
185.898	65.19
186.118	48.81
186.338	-14.68
186.557	89.77
186.777	9.9
186.997	-35.16
187.216	26.28
187.436	30.38
187.655	-29.01
187.875	81.58
188.095	54.95
188.314	20.14
188.534	69.29
188.753	63.15
188.973	40.62
189.192	52.91
189.412	50.86
189.631	32.43
189.851	-26.96
190.07	59.05
190.29	104.11
190.509	20.14
190.729	-0.34
190.948	83.63
191.168	114.34
191.387	20.14
191.607	36.52
191.826	87.72
192.045	36.52
192.265	18.09
192.484	26.28
192.704	11.95
192.923	-6.49
193.142	61.1
193.362	28.33
193.581	108.2
193.8	-6.49
194.02	-24.92
194.239	59.05
194.458	100.01
194.678	73.39
194.897	77.48
195.116	-29.01
195.335	108.2
195.555	69.29
195.774	40.62
195.993	97.96
196.212	63.15
196.432	3.75
196.651	75.43
196.87	5.8
197.089	151.21
197.308	100.01
197.528	65.19
197.747	75.43
197.966	11.95
198.185	22.19
198.404	26.28
198.623	61.1
198.842	34.47
199.062	38.57
199.281	69.29
199.5	63.15
199.719	18.09
199.938	116.39
200.157	48.81
200.376	30.38
200.595	7.85
200.814	22.19
201.033	26.28
201.252	69.29
201.471	59.05
201.69	-37.2
201.909	69.29
202.128	77.48
202.347	22.19
202.566	28.33
202.785	57
203.004	-29.01
203.223	69.29
203.442	61.1
203.661	50.86
203.879	38.57
204.098	34.47
204.317	57
204.536	54.95
204.755	100.01
204.974	46.76
205.193	61.1
205.411	77.48
205.63	9.9
205.849	52.91
206.068	5.8
206.287	20.14
206.505	50.86
206.724	18.09
206.943	61.1
207.162	-8.53
207.381	24.23
207.599	18.09
207.818	65.19
208.037	65.19
208.255	-2.39
208.474	30.38
208.693	61.1
208.911	63.15
209.13	95.91
209.349	126.63
209.567	110.25
209.786	83.63
210.005	79.53
210.223	106.15
210.442	9.9
210.661	34.47
210.879	20.14
211.098	-6.49
211.316	130.73
211.535	11.95
211.753	22.19
211.972	63.15
212.191	22.19
212.409	44.71
212.628	95.91
212.846	-39.25
213.065	67.24
213.283	77.48
213.502	38.57
213.72	-8.53
213.938	57
214.157	120.49
214.375	77.48
214.594	24.23
214.812	57
215.031	61.1
215.249	16.04
215.467	46.76
215.686	-53.59
215.904	65.19
216.122	61.1
216.341	120.49
216.559	112.3
216.778	118.44
216.996	65.19
217.214	50.86
217.432	28.33
217.651	7.85
217.869	73.39
218.087	-14.68
218.306	30.38
218.524	61.1
218.742	20.14
218.96	63.15
219.179	54.95
219.397	114.34
219.615	79.53
219.833	-10.58
220.051	-2.39
220.27	24.23
220.488	9.9
220.706	46.76
220.924	52.91
221.142	50.86
221.36	48.81
221.578	34.47
221.796	22.19
222.015	54.95
222.233	114.34
222.451	102.06
222.669	34.47
222.887	79.53
223.105	79.53
223.323	24.23
223.541	42.67
223.759	85.67
223.977	63.15
224.195	120.49
224.413	95.91
224.631	57
224.849	89.77
225.067	26.28
225.285	5.8
225.503	20.14
225.721	-14.68
225.939	20.14
226.157	28.33
226.375	132.78
226.592	18.09
226.81	-20.82
227.028	11.95
227.246	83.63
227.464	13.99
227.682	63.15
227.9	36.52
228.117	89.77
228.335	38.57
228.553	77.48
228.771	63.15
228.989	24.23
229.206	54.95
229.424	93.87
229.642	52.91
229.86	48.81
230.077	42.67
230.295	77.48
230.513	69.29
230.731	-0.34
230.948	-22.87
231.166	128.68
231.384	16.04
231.601	83.63
231.819	46.76
232.037	13.99
232.254	11.95
232.472	110.25
232.689	11.95
232.907	40.62
233.125	50.86
233.342	34.47
233.56	7.85
233.777	30.38
233.995	54.95
234.213	42.67
234.43	5.8
234.648	44.71
234.865	18.09
235.083	65.19
235.3	61.1
235.518	81.58
235.735	106.15
235.953	61.1
236.17	34.47
236.388	93.87
236.605	67.24
236.822	24.23
237.04	18.09
237.257	24.23
237.475	18.09
237.692	5.8
237.909	-16.73
238.127	44.71
238.344	65.19
238.562	67.24
238.779	18.09
238.996	54.95
239.214	116.39
239.431	38.57
239.648	67.24
239.865	28.33
240.083	50.86
240.3	50.86
240.517	-16.73
240.735	24.23
240.952	-14.68
241.169	34.47
241.386	54.95
241.603	11.95
241.821	-76.12
242.038	52.91
242.255	26.28
242.472	-14.68
242.689	48.81
242.907	61.1
243.124	-22.87
243.341	48.81
243.558	32.43
243.775	54.95
243.992	-8.53
244.209	52.91
244.426	114.34
244.643	69.29
244.86	36.52
245.078	-12.63
245.295	104.11
245.512	38.57
245.729	16.04
245.946	40.62
246.163	59.05
246.38	52.91
246.597	97.96
246.814	46.76
247.031	48.81
247.248	155.3
247.464	-8.53
247.681	50.86
247.898	108.2
248.115	97.96
248.332	-12.63
248.549	124.58
248.766	85.67
248.983	38.57
249.2	-35.16
249.417	124.58
249.633	32.43
249.85	24.23
250.067	48.81
250.284	50.86
250.501	122.54
250.717	61.1
250.934	-24.92
251.151	59.05
251.368	61.1
251.585	52.91
251.801	7.85
252.018	65.19
252.235	69.29
252.451	34.47
252.668	13.99
252.885	63.15
253.102	38.57
253.318	59.05
253.535	46.76
253.752	-8.53
253.968	69.29
254.185	73.39
254.401	69.29
254.618	132.78
254.835	32.43
255.051	73.39
255.268	104.11
255.484	-0.34
255.701	128.68
255.917	5.8
256.134	9.9
256.351	110.25
256.567	69.29
256.784	77.48
257	-14.68
257.217	61.1
257.433	124.58
257.65	69.29
257.866	59.05
258.082	-35.16
258.299	18.09
258.515	97.96
258.732	114.34
258.948	-33.11
259.165	59.05
259.381	3.75
259.597	73.39
259.814	38.57
260.03	63.15
260.246	77.48
260.463	-24.92
260.679	40.62
260.895	75.43
261.112	91.82
261.328	83.63
261.544	155.3
261.761	34.47
261.977	97.96
262.193	3.75
262.409	36.52
262.626	20.14
262.842	73.39
263.058	-57.68
263.274	-4.44
263.49	32.43
263.707	44.71
263.923	63.15
264.139	5.8
264.355	104.11
264.571	32.43
264.787	57
265.004	100.01
265.22	97.96
265.436	50.86
265.652	48.81
265.868	104.11
266.084	48.81
266.3	67.24
266.516	-10.58
266.732	36.52
266.948	61.1
267.164	67.24
267.38	106.15
267.596	71.34
267.812	97.96
268.028	40.62
268.244	95.91
268.46	40.62
268.676	26.28
268.892	67.24
269.108	26.28
269.324	75.43
269.54	1.71
269.756	50.86
269.972	-20.82
270.188	16.04
270.403	7.85
270.619	9.9
270.835	40.62
271.051	28.33
271.267	30.38
271.483	11.95
271.698	40.62
271.914	59.05
272.13	71.34
272.346	63.15
272.562	36.52
272.777	85.67
272.993	-4.44
273.209	9.9
273.425	28.33
273.64	-14.68
273.856	67.24
274.072	28.33
274.287	38.57
274.503	75.43
274.719	28.33
274.934	-2.39
275.15	-8.53
275.366	54.95
275.581	11.95
275.797	44.71
276.012	-49.49
276.228	3.75
276.444	104.11
276.659	130.73
276.875	95.91
277.09	16.04
277.306	57
277.521	63.15
277.737	59.05
277.952	130.73
278.168	18.09
278.383	102.06
278.599	77.48
278.814	52.91
279.03	73.39
279.245	36.52
279.461	18.09
279.676	100.01
279.892	77.48
280.107	42.67
280.322	18.09
280.538	91.82
280.753	97.96
280.969	-2.39
281.184	87.72
281.399	34.47
281.615	67.24
281.83	95.91
282.045	63.15
282.26	40.62
282.476	134.82
282.691	54.95
282.906	46.76
283.122	120.49
283.337	18.09
283.552	102.06
283.767	89.77
283.983	52.91
284.198	52.91
284.413	16.04
284.628	38.57
284.843	52.91
285.058	143.02
285.274	75.43
285.489	79.53
285.704	110.25
285.919	13.99
286.134	108.2
286.349	44.71
286.564	97.96
286.779	95.91
286.995	34.47
287.21	24.23
287.425	42.67
287.64	36.52
287.855	34.47
288.07	-14.68
288.285	75.43
288.5	63.15
288.715	67.24
288.93	61.1
289.145	42.67
289.36	22.19
289.575	108.2
289.79	9.9
290.004	20.14
290.219	126.63
290.434	116.39
290.649	93.87
290.864	-20.82
291.079	128.68
291.294	50.86
291.509	30.38
291.724	77.48
291.938	50.86
292.153	100.01
292.368	34.47
292.583	16.04
292.798	91.82
293.012	81.58
293.227	65.19
293.442	-6.49
293.657	75.43
293.871	69.29
294.086	5.8
294.301	87.72
294.516	24.23
294.73	26.28
294.945	1.71
295.16	136.87
295.374	71.34
295.589	83.63
295.804	36.52
296.018	130.73
296.233	81.58
296.447	-0.34
296.662	1.71
296.877	192.17
297.091	28.33
297.306	-16.73
297.52	-0.34
297.735	124.58
297.949	112.3
298.164	97.96
298.378	122.54
298.593	7.85
298.807	18.09
299.022	-16.73
299.236	57
299.451	85.67
299.665	30.38
299.88	24.23
300.094	79.53
300.309	91.82
300.523	69.29
300.737	73.39
300.952	38.57
301.166	165.54
301.381	61.1
301.595	52.91
301.809	30.38
302.024	36.52
302.238	52.91
302.452	46.76
302.667	77.48
302.881	50.86
303.095	65.19
303.309	93.87
303.524	16.04
303.738	134.82
303.952	-0.34
304.166	116.39
304.381	-12.63
304.595	116.39
304.809	-10.58
305.023	65.19
305.237	38.57
305.452	11.95
305.666	61.1
305.88	-6.49
306.094	157.35
306.308	118.44
306.522	93.87
306.736	91.82
306.95	11.95
307.164	5.8
307.379	108.2
307.593	69.29
307.807	114.34
308.021	91.82
308.235	26.28
308.449	13.99
308.663	190.12
308.877	89.77
309.091	89.77
309.305	91.82
309.519	-29.01
309.733	104.11
309.947	79.53
310.161	69.29
310.374	44.71
310.588	26.28
310.802	124.58
311.016	-33.11
311.23	26.28
311.444	110.25
311.658	48.81
311.872	65.19
312.085	52.91
312.299	110.25
312.513	106.15
312.727	91.82
312.941	22.19
313.154	1.71
313.368	63.15
313.582	87.72
313.796	71.34
314.009	52.91
314.223	36.52
314.437	102.06
314.651	63.15
314.864	65.19
315.078	46.76
315.292	57
315.505	36.52
315.719	79.53
315.933	7.85
316.146	89.77
316.36	34.47
316.573	138.92
316.787	100.01
317.001	67.24
317.214	61.1
317.428	110.25
317.641	20.14
317.855	97.96
318.068	71.34
318.282	22.19
318.495	85.67
318.709	97.96
318.922	114.34
319.136	95.91
319.349	40.62
319.563	22.19
319.776	140.97
319.99	69.29
320.203	59.05
320.417	147.11
320.63	48.81
320.843	81.58
321.057	44.71
321.27	36.52
321.483	61.1
321.697	106.15
321.91	52.91
322.124	65.19
322.337	34.47
322.55	11.95
322.763	3.75
322.977	32.43
323.19	11.95
323.403	13.99
323.617	32.43
323.83	85.67
324.043	50.86
324.256	69.29
324.469	22.19
324.683	112.3
324.896	5.8
325.109	73.39
325.322	3.75
325.535	85.67
325.748	132.78
325.962	3.75
326.175	42.67
326.388	59.05
326.601	63.15
326.814	54.95
327.027	71.34
327.24	122.54
327.453	-12.63
327.666	32.43
327.879	102.06
328.092	85.67
328.305	65.19
328.518	67.24
328.731	89.77
328.944	16.04
329.157	1.71
329.37	97.96
329.583	46.76
329.796	93.87
330.009	75.43
330.222	89.77
330.435	81.58
330.648	32.43
330.861	108.2
331.073	89.77
331.286	104.11
331.499	102.06
331.712	24.23
331.925	67.24
332.138	61.1
332.35	30.38
332.563	22.19
332.776	102.06
332.989	97.96
333.202	126.63
333.414	89.77
333.627	77.48
333.84	57
334.053	75.43
334.265	140.97
334.478	11.95
334.691	36.52
334.903	100.01
335.116	7.85
335.329	95.91
335.541	77.48
335.754	140.97
335.966	32.43
336.179	81.58
336.392	50.86
336.604	95.91
336.817	59.05
337.029	89.77
337.242	153.26
337.454	38.57
337.667	57
337.88	97.96
338.092	34.47
338.305	159.4
338.517	-4.44
338.729	130.73
338.942	11.95
339.154	40.62
339.367	-33.11
339.579	93.87
339.792	38.57
340.004	114.34
340.217	-24.92
340.429	44.71
340.641	32.43
340.854	42.67
341.066	-8.53
341.278	83.63
341.491	124.58
341.703	54.95
341.915	42.67
342.128	57
342.34	116.39
342.552	48.81
342.764	97.96
342.977	95.91
343.189	30.38
343.401	140.97
343.613	69.29
343.826	-0.34
344.038	50.86
344.25	24.23
344.462	36.52
344.674	69.29
344.886	28.33
345.099	54.95
345.311	138.92
345.523	83.63
345.735	16.04
345.947	79.53
346.159	59.05
346.371	34.47
346.583	7.85
346.795	97.96
347.007	106.15
347.219	120.49
347.431	67.24
347.643	126.63
347.855	102.06
348.067	18.09
348.279	16.04
348.491	85.67
348.703	59.05
348.915	132.78
349.127	30.38
349.339	34.47
349.551	50.86
349.763	87.72
349.975	69.29
350.187	132.78
350.399	93.87
350.61	59.05
350.822	120.49
351.034	120.49
351.246	95.91
351.458	50.86
351.669	54.95
351.881	136.87
352.093	40.62
352.305	13.99
352.517	48.81
352.728	32.43
352.94	42.67
353.152	85.67
353.363	5.8
353.575	65.19
353.787	28.33
353.999	44.71
354.21	104.11
354.422	95.91
354.633	126.63
354.845	73.39
355.057	46.76
355.268	95.91
355.48	38.57
355.692	36.52
355.903	81.58
356.115	91.82
356.326	36.52
356.538	91.82
356.749	91.82
356.961	81.58
357.172	38.57
357.384	3.75
357.595	67.24
357.807	75.43
358.018	52.91
358.23	26.28
358.441	126.63
358.653	169.64
358.864	32.43
359.075	20.14
359.287	18.09
359.498	95.91
359.709	77.48
359.921	106.15
360.132	71.34
360.344	52.91
360.555	106.15
360.766	138.92
360.977	112.3
361.189	196.26
361.4	85.67
361.611	59.05
361.823	128.68
362.034	83.63
362.245	122.54
362.456	83.63
362.667	38.57
362.879	40.62
363.09	104.11
363.301	145.06
363.512	102.06
363.723	89.77
363.935	89.77
364.146	97.96
364.357	102.06
364.568	75.43
364.779	89.77
364.99	69.29
365.201	126.63
365.412	112.3
365.623	110.25
365.834	32.43
366.045	114.34
366.256	143.02
366.467	81.58
366.678	143.02
366.889	104.11
367.1	95.91
367.311	57
367.522	83.63
367.733	116.39
367.944	81.58
368.155	26.28
368.366	106.15
368.577	124.58
368.788	147.11
368.999	46.76
369.209	104.11
369.42	61.1
369.631	112.3
369.842	112.3
370.053	5.8
370.264	65.19
370.474	69.29
370.685	102.06
370.896	79.53
371.107	71.34
371.317	108.2
371.528	89.77
371.739	81.58
371.95	54.95
372.16	93.87
372.371	63.15
372.582	102.06
372.792	138.92
373.003	93.87
373.214	59.05
373.424	65.19
373.635	85.67
373.846	91.82
374.056	147.11
374.267	87.72
374.477	79.53
374.688	114.34
374.898	24.23
375.109	40.62
375.319	110.25
375.53	132.78
375.74	52.91
375.951	67.24
376.161	118.44
376.372	71.34
376.582	112.3
376.793	95.91
377.003	46.76
377.214	75.43
377.424	95.91
377.635	126.63
377.845	54.95
378.055	79.53
378.266	-22.87
378.476	81.58
378.686	95.91
378.897	83.63
379.107	34.47
379.317	108.2
379.528	30.38
379.738	153.26
379.948	46.76
380.158	134.82
380.369	65.19
380.579	71.34
380.789	83.63
380.999	118.44
381.21	79.53
381.42	59.05
381.63	30.38
381.84	73.39
382.05	61.1
382.261	143.02
382.471	112.3
382.681	40.62
382.891	110.25
383.101	91.82
383.311	83.63
383.521	57
383.731	79.53
383.941	46.76
384.151	95.91
384.361	173.74
384.571	71.34
384.781	91.82
384.991	114.34
385.201	163.5
385.411	120.49
385.621	61.1
385.831	83.63
386.041	136.87
386.251	108.2
386.461	132.78
386.671	81.58
386.881	34.47
387.091	50.86
387.301	102.06
387.511	100.01
387.72	159.4
387.93	85.67
388.14	97.96
388.35	93.87
388.56	67.24
388.769	132.78
388.979	155.3
389.189	75.43
389.399	95.91
389.609	122.54
389.818	71.34
390.028	116.39
390.238	124.58
390.447	112.3
390.657	118.44
390.867	59.05
391.076	128.68
391.286	100.01
391.496	120.49
391.705	118.44
391.915	145.06
392.125	165.54
392.334	130.73
392.544	198.31
392.753	120.49
392.963	85.67
393.172	130.73
393.382	97.96
393.591	95.91
393.801	75.43
394.01	114.34
394.22	171.69
394.429	77.48
394.639	143.02
394.848	136.87
395.058	36.52
395.267	138.92
395.477	220.84
395.686	100.01
395.895	241.32
396.105	153.26
396.314	196.26
396.524	138.92
396.733	145.06
396.942	136.87
397.152	128.68
397.361	169.64
397.57	159.4
397.78	140.97
397.989	77.48
398.198	145.06
398.407	167.59
398.617	124.58
398.826	175.78
399.035	165.54
399.244	167.59
399.453	100.01
399.663	179.88
399.872	216.74
400.081	77.48
400.29	249.51
400.499	140.97
400.708	114.34
400.917	112.3
401.127	194.22
401.336	145.06
401.545	245.41
401.754	181.93
401.963	200.36
402.172	140.97
402.381	118.44
402.59	167.59
402.799	220.84
403.008	177.83
403.217	247.46
403.426	190.12
403.635	274.09
403.844	173.74
404.053	220.84
404.262	304.81
404.471	272.04
404.68	331.43
404.888	233.13
405.097	198.31
405.306	216.74
405.515	204.46
405.724	218.79
405.933	222.89
406.142	188.07
406.35	259.75
406.559	298.66
406.768	276.13
406.977	296.61
407.185	362.15
407.394	376.48
407.603	280.23
407.812	319.14
408.02	435.88
408.229	378.53
408.438	366.25
408.646	405.16
408.855	360.1
409.064	421.54
409.272	347.81
409.481	444.07
409.69	489.12
409.898	497.32
410.107	464.55
410.315	493.22
410.524	470.69
410.733	485.03
410.941	468.64
411.15	564.9
411.358	585.38
411.567	607.91
411.775	550.56
411.984	616.1
412.192	693.92
412.401	638.62
412.609	722.59
412.818	714.4
413.026	802.46
413.234	779.93
413.443	710.3
413.651	757.41
413.86	853.66
414.068	890.53
414.276	911
414.485	933.53
414.693	935.58
414.901	1044.12
415.11	1037.98
415.318	1044.12
415.526	1044.12
415.734	1119.9
415.943	1123.99
416.151	1255.06
416.359	1195.67
416.567	1298.07
416.776	1253.02
416.984	1453.72
417.192	1375.89
417.4	1480.34
417.608	1482.39
417.817	1556.11
418.025	1592.98
418.233	1697.42
418.441	1717.9
418.649	1779.34
418.857	1791.63
419.065	1996.43
419.273	1805.97
419.481	2031.24
419.689	2057.87
419.897	2240.14
420.105	2190.99
420.313	2236.04
420.521	2381.45
420.729	2416.26
420.937	2393.73
421.145	2539.14
421.353	2731.65
421.561	2858.62
421.769	2782.85
421.977	3044.99
422.185	2930.3
422.393	3194.49
422.601	3389.05
422.809	3401.33
423.017	3339.9
423.224	3599.99
423.432	3638.9
423.64	3772.02
423.848	4021.87
424.056	3913.33
424.263	4269.67
424.471	4308.58
424.679	4353.64
424.887	4634.21
425.094	4769.38
425.302	4722.27
425.51	4896.35
425.718	5033.57
425.925	5074.53
426.133	5209.69
426.341	5469.78
426.548	5709.4
426.756	5889.62
426.964	5746.26
427.171	6272.59
427.379	6381.13
427.586	6575.69
427.794	6725.19
428.001	6997.57
428.209	7321.15
428.417	7245.37
428.624	7562.81
428.832	7607.86
429.039	7693.88
429.247	7493.18
429.454	8252.97
429.662	8955.43
429.869	8427.05
430.076	8889.89
430.284	8691.24
430.491	9113.12
430.699	9618.97
430.906	9633.3
431.114	9762.33
431.321	10253.84
431.528	10460.68
431.736	10851.85
431.943	11478.52
432.15	11073.03
432.358	11261.44
432.565	11912.69
432.772	11877.88
432.979	12398.06
433.187	12707.3
433.394	12668.39
433.601	13608.41
433.808	13821.4
434.016	13784.54
434.223	14327.25
434.43	15158.72
434.637	14480.85
434.844	15635.9
435.052	15910.33
435.259	15977.91
435.466	15955.38
435.673	15672.76
435.88	16602.54
436.087	17665.44
436.294	17700.25
436.501	17016.23
436.708	17769.88
436.915	18283.92
437.122	19047.82
437.329	18879.88
437.537	19729.79
437.743	20112.76
437.95	19811.71
438.157	20768.11
438.364	21984.6
438.571	21562.72
438.778	21599.59
438.985	23694.66
439.192	22746.45
439.399	23358.79
439.606	23045.45
439.813	24528.18
440.02	25683.23
440.227	25365.8
440.433	24997.17
440.64	25840.93
440.847	26068.25
441.054	26172.7
441.261	28165.37
441.467	27706.63
441.674	28290.3
441.881	29428.97
442.088	29138.16
442.294	29039.86
442.501	30063.84
442.708	30739.67
442.914	31560.91
443.121	33072.31
443.328	32009.41
443.534	34020.52
443.741	33453.23
443.948	32838.84
444.154	35290.26
444.361	34856.09
444.568	35017.88
444.774	34991.25
444.981	36023.43
445.187	37012.6
445.394	37878.89
445.6	37819.5
445.807	41475.12
446.013	39480.4
446.22	40559.68
446.426	42267.69
446.633	42193.96
446.839	43486.23
447.046	41620.53
447.252	43883.53
447.459	44497.92
447.665	44096.52
447.871	45986.8
448.078	47643.6
448.284	45579.25
448.491	46705.63
448.697	48978.88
448.903	49378.23
449.11	49484.73
449.316	48741.31
449.522	49742.77
449.728	50946.98
449.935	51360.67
450.141	51653.53
450.347	51921.81
450.553	50885.54
450.76	51522.46
450.966	52984.71
451.172	52398.99
451.378	53867.38
451.584	52910.98
451.791	54201.2
451.997	53918.58
452.203	54956.9
452.409	54633.32
452.615	54459.24
452.821	52894.6
453.027	52192.14
453.233	55102.31
453.44	52640.65
453.646	53379.96
453.852	53746.55
454.058	54240.11
454.264	52609.93
454.47	53810.04
454.676	52329.36
454.882	54111.09
455.088	49470.39
455.294	50500.52
455.5	51280.8
455.705	51719.06
455.911	49918.9
456.117	48690.12
456.323	48190.41
456.529	45587.44
456.735	47506.39
456.941	46392.29
457.147	46298.09
457.352	44459.01
457.558	43998.22
457.764	43912.2
457.97	43117.59
458.176	42058.79
458.381	42079.27
458.587	40518.72
458.793	40191.05
458.999	38124.64
459.204	40920.12
459.41	40068.17
459.616	37084.28
459.821	37233.78
460.027	37145.72
460.233	36426.88
460.438	34782.36
460.644	34792.6
460.85	33408.17
461.055	33223.86
461.261	32705.72
461.466	30143.71
461.672	29213.93
461.878	31587.53
462.083	29478.12
462.289	29076.72
462.494	28714.23
462.7	27432.2
462.905	26613.01
463.111	27325.71
463.316	27479.3
463.522	27063.57
463.727	26699.03
463.932	27055.37
464.138	26959.12
464.343	27227.4
464.549	25748.77
464.754	26883.34
464.959	26961.17
465.165	26395.93
465.37	25118
465.575	24583.48
465.781	25570.6
465.986	25740.58
466.191	24812.85
466.397	24458.55
466.602	23072.07
466.807	24040.76
467.012	24411.45
467.218	23795.01
467.423	23665.99
467.628	23792.96
467.833	24692.02
468.038	23944.51
468.244	23153.99
468.449	24169.79
468.654	23438.66
468.859	23211.34
469.064	23065.93
469.269	21890.4
469.474	22267.22
469.679	22797.65
469.885	21884.25
470.09	22480.21
470.295	22199.64
470.5	21857.63
470.705	21544.29
470.91	21175.66
471.115	21220.71
471.32	21585.25
471.525	21433.7
471.73	20968.81
471.935	20860.27
472.139	20383.09
472.344	20483.44
472.549	20481.39
472.754	20108.66
472.959	19596.67
473.164	19223.94
473.369	19178.89
473.574	19629.44
473.778	19471.75
473.983	19185.03
474.188	19070.34
474.393	18038.17
474.598	18414.99
474.802	18159
475.007	18339.22
475.212	18126.23
475.417	17431.97
475.621	17327.52
475.826	17345.95
476.031	16960.94
476.235	16737.71
476.44	17280.42
476.645	16672.17
476.849	16696.75
477.054	16653.74
477.259	16383.41
477.463	16307.63
477.668	15926.71
477.872	15822.27
478.077	15844.79
478.282	15357.38
478.486	15310.27
478.691	15080.9
478.895	15125.96
479.1	15224.26
479.304	15277.51
479.509	14398.93
479.713	14812.62
479.918	14581.2
480.122	14417.36
480.326	14360.02
480.531	14792.14
480.735	14259.67
480.94	14235.09
481.144	14593.48
481.348	13614.55
481.553	14302.67
481.757	13895.13
481.961	14228.95
482.166	14237.14
482.37	14259.67
482.574	13798.87
482.778	13975
482.983	13975
483.187	13870.55
483.391	14067.16
483.595	13979.09
483.8	13692.38
484.004	14132.69
484.208	14034.39
484.412	13921.75
484.616	14132.69
484.821	14192.08
485.025	13768.15
485.229	13841.88
485.433	13616.6
485.637	13905.37
485.841	13788.63
486.045	13927.89
486.249	13888.98
486.453	13735.39
486.657	13960.66
486.861	13938.13
487.065	13598.17
487.269	14167.51
487.473	13587.93
487.677	13985.24
487.881	13956.57
488.085	13987.29
488.289	13776.34
488.493	13737.43
488.697	14024.15
488.901	14296.53
489.105	13753.82
489.309	14030.29
489.512	13903.32
489.716	14210.51
489.92	14181.84
490.124	13931.99
490.328	14341.58
490.531	14065.11
490.735	14355.92
490.939	14392.78
491.143	14106.07
491.346	14230.99
491.55	14794.18
491.754	14511.57
491.958	14699.98
492.161	14767.56
492.365	14669.26
492.569	14613.96
492.772	14476.75
492.976	14777.8
493.18	14839.24
493.383	15175.11
493.587	15324.61
493.79	15324.61
493.994	14943.69
494.197	15261.12
494.401	15734.2
494.605	15515.07
494.808	15474.11
495.012	15607.23
495.215	15750.59
495.419	15875.51
495.622	15965.62
495.825	16217.52
496.029	16221.62
496.232	16424.37
496.436	16285.11
496.639	16864.68
496.843	16942.5
497.046	17026.47
497.249	17210.79
497.453	17421.73
497.656	17438.11
497.859	17296.8
498.063	17864.09
498.266	17890.71
498.469	18163.09
498.673	18042.26
498.876	18455.95
499.079	18818.44
499.282	18398.61
499.485	19199.37
499.689	18855.31
499.892	19234.18
500.095	19383.68
500.298	19936.63
500.501	19875.2
500.705	20481.39
500.908	20612.46
501.111	20735.34
501.314	20743.53
501.517	21063.02
501.72	21142.89
501.923	21364.07
502.126	21849.44
502.329	22138.2
502.532	22302.04
502.735	22318.42
502.938	22756.69
503.141	22691.15
503.344	23362.89
503.547	23295.3
503.75	23455.04
503.953	23821.63
504.156	24083.77
504.359	24565.04
504.562	24476.98
504.765	25161
504.968	25349.42
505.17	25621.8
505.373	25580.84
505.576	25916.7
505.779	26129.69
505.982	26254.62
506.185	26869.01
506.387	27335.95
506.59	27475.21
506.793	27811.07
506.996	27589.89
507.198	28716.28
507.401	28310.78
507.604	28597.49
507.807	29254.89
508.009	29070.58
508.212	29078.77
508.415	29674.73
508.617	30602.46
508.82	30342.36
509.022	30407.9
509.225	31096.02
509.428	31286.48
509.63	31311.05
509.833	31257.81
510.035	32160.96
510.238	32214.21
510.44	32625.85
510.643	33193.14
510.845	33391.79
511.048	33203.38
511.25	33991.84
511.453	33852.58
511.655	34856.09
511.858	34557.08
512.06	35284.11
512.262	35300.5
512.465	35411.09
512.667	35961.99
512.87	36203.65
513.072	36803.71
513.274	37176.44
513.477	37473.39
513.679	37870.7
513.881	38249.57
514.084	38399.07
514.286	38179.94
514.488	38501.47
514.69	39756.88
514.893	39926.86
515.095	39646.29
515.297	39988.3
515.499	40465.47
515.701	41409.59
515.904	41165.88
516.106	41278.52
516.308	42007.59
516.51	42765.34
516.712	42535.97
516.914	42904.6
517.116	43375.64
517.318	43629.58
517.52	44149.77
517.722	44286.98
517.925	44600.32
518.127	45040.64
518.329	44907.52
518.531	45177.85
518.733	46054.38
518.935	46234.6
519.136	46660.58
519.338	47166.43
519.54	46898.14
519.742	47545.3
519.944	47643.6
520.146	48626.63
520.348	48774.08
520.55	48643.01
520.752	49132.48
520.954	49959.86
521.155	49783.73
521.357	50262.96
521.559	50834.34
521.761	50828.2
521.963	51057.57
522.164	51506.07
522.366	51458.97
522.568	51901.33
522.77	52265.87
522.971	53134.21
523.173	52308.88
523.375	53033.86
523.576	53091.2
523.778	53836.66
523.98	53924.72
524.181	54053.75
524.383	54311.79
524.584	54459.24
524.786	54825.83
524.988	54549.35
525.189	55548.76
525.391	55290.72
525.592	55184.22
525.794	55970.64
525.995	55958.36
526.197	56060.76
526.398	56308.56
526.6	56210.26
526.801	56820.55
527.003	57023.3
527.204	57140.03
527.406	57627.45
527.607	57377.6
527.808	57895.74
528.01	57000.77
528.211	57840.44
528.412	58868.52
528.614	58135.35
528.815	58290.99
529.016	58741.55
529.218	57891.64
529.419	58647.34
529.62	58706.73
529.822	58465.07
530.023	59054.89
530.224	58434.35
530.425	59054.89
530.626	58327.86
530.828	58698.54
531.029	59767.58
531.23	59177.76
531.431	59087.65
531.632	59237.15
531.833	59470.62
532.035	59294.5
532.236	59192.1
532.437	59460.38
532.638	59126.56
532.839	59757.34
533.04	60062.49
533.241	59036.45
533.442	60271.38
533.643	60171.03
533.844	59656.99
534.045	59884.31
534.246	59413.28
534.447	60197.65
534.648	59855.64
534.849	59966.23
535.05	59296.55
535.251	59812.63
535.451	59652.89
535.652	59919.13
535.853	59869.98
536.054	59779.87
536.255	59994.9
536.456	59476.77
536.657	60607.25
536.857	59867.93
537.058	59716.38
537.259	60021.53
537.46	59949.85
537.66	59509.53
537.861	59882.26
538.062	59704.09
538.263	59886.36
538.463	59593.5
538.664	59810.59
538.865	60113.69
539.065	59900.7
539.266	59458.34
539.466	60074.77
539.667	59030.31
539.868	60330.77
540.068	59900.7
540.269	59392.8
540.469	59955.99
540.67	59437.86
540.87	59716.38
541.071	59599.65
541.271	60029.72
541.472	59368.22
541.672	59366.18
541.873	59503.39
542.073	59145
542.274	60037.91
542.474	59300.64
542.675	59142.95
542.875	59800.35
543.075	59274.02
543.276	58981.16
543.476	59581.21
543.676	59091.75
543.877	59597.6
544.077	59550.49
544.277	59267.87
544.478	59456.29
544.678	59743
544.878	59355.94
545.078	59489.05
545.279	59196.2
545.479	59132.71
545.679	59366.18
545.879	59018.02
546.079	59099.94
546.28	59054.89
546.48	58915.62
546.68	59216.68
546.88	59413.28
547.08	59052.84
547.28	59075.37
547.48	58868.52
547.68	58854.18
547.88	58579.76
548.081	59288.35
548.281	58563.37
548.481	58612.52
548.681	59151.14
548.881	58778.41
549.081	59108.13
549.28	58190.64
549.48	59413.28
549.68	59001.64
549.88	59677.47
550.08	58755.88
550.28	59046.69
550.48	58688.3
550.68	59034.41
550.88	58766.12
551.08	58503.98
551.279	58641.2
551.479	58506.03
551.679	58882.86
551.879	58704.68
552.079	58989.35
552.278	58719.02
552.478	58778.41
552.678	58401.58
552.878	58866.47
553.077	58368.82
553.277	58207.03
553.477	58907.43
553.676	58350.38
553.876	58432.3
554.076	58039.09
554.275	58260.27
554.475	57781.05
554.674	58575.66
554.874	58786.6
555.074	58422.06
555.273	58243.89
555.473	58075.96
555.672	57852.73
555.872	58141.49
556.071	58123.06
556.271	58123.06
556.47	57996.09
556.67	57674.55
556.869	57637.69
557.068	57957.17
557.268	57457.47
557.467	57649.98
557.667	57469.76
557.866	57469.76
558.065	57883.45
558.265	57097.03
558.464	57537.34
558.663	57938.74
558.863	56691.53
559.062	57867.06
559.261	57228.1
559.461	57699.13
559.66	56636.23
559.859	57119.56
560.058	56634.19
560.258	57191.23
560.457	56552.27
560.656	56992.58
560.855	56429.39
561.054	57088.84
561.253	56054.61
561.453	56619.85
561.652	56625.99
561.851	56920.9
562.05	56281.94
562.249	56265.55
562.448	56685.39
562.647	56210.26
562.846	56163.15
563.045	55974.74
563.244	55618.39
563.443	56210.26
563.642	55192.42
563.841	55958.36
564.04	55843.67
564.239	56138.58
564.438	55155.55
564.637	55667.55
564.836	55688.02
565.035	55270.24
565.234	55393.12
565.432	55233.38
565.631	54836.07
565.83	55419.74
566.029	55083.87
566.228	54844.26
566.427	54780.77
566.625	54393.71
566.824	54233.97
567.023	54754.15
567.222	53652.34
567.42	54817.64
567.619	53990.26
567.818	54244.21
568.016	53832.57
568.215	54287.21
568.414	53863.28
568.612	54459.24
568.811	53496.7
569.01	53693.3
569.208	53271.42
569.407	53459.83
569.605	52833.16
569.804	53554.04
570.002	53074.82
570.201	53367.68
570.4	52908.93
570.598	52675.46
570.797	52749.19
570.995	53164.93
571.193	51850.13
571.392	53062.53
571.59	52110.22
571.789	51977.11
571.987	52124.56
572.186	51815.32
572.384	52130.7
572.582	52214.67
572.781	52079.5
572.979	51704.73
573.177	51346.33
573.376	51536.79
573.574	51661.72
573.772	51639.19
573.971	51168.16
574.169	51043.23
574.367	50658.21
574.565	51121.05
574.763	50707.36
574.962	50981.79
575.16	50125.74
575.358	50637.73
575.556	50070.45
575.754	51053.47
575.952	49802.16
576.151	50363.31
576.349	49664.95
576.547	49439.67
576.745	49843.12
576.943	50004.91
577.141	49935.28
577.339	49937.33
577.537	49425.34
577.735	49228.73
577.933	49068.99
578.131	49134.52
578.329	48651.2
578.527	49032.13
578.725	48673.73
578.923	49189.82
579.121	48542.66
579.319	48583.62
579.516	48894.91
579.714	47813.59
579.912	48114.64
580.11	47836.11
580.308	48047.05
580.506	47989.71
580.704	47287.26
580.901	47918.03
581.099	47659.99
581.297	47184.86
581.495	47109.08
581.692	46777.31
581.89	46722.02
582.088	46873.57
582.285	46683.11
582.483	47033.31
582.681	46627.81
582.878	46625.76
583.076	46095.34
583.274	46474.21
583.471	45636.59
583.669	45929.45
583.866	46081
584.064	45943.79
584.262	45661.17
584.459	45849.58
584.657	45329.4
584.854	45726.7
585.052	44596.23
585.249	46021.61
585.447	45423.61
585.644	44923.9
585.841	44958.72
586.039	44874.75
586.236	44555.27
586.434	44600.32
586.631	44248.07
586.828	44536.84
587.026	44741.63
587.223	44301.32
587.42	44049.42
587.618	44360.71
587.815	43660.3
588.012	43875.34
588.21	43709.46
588.407	43709.46
588.604	43349.01
588.801	42740.77
588.999	43480.08
589.196	42683.42
589.393	43023.39
589.59	43138.07
589.787	42628.13
589.984	42384.42
590.182	41970.73
590.379	42638.37
590.576	41923.63
590.773	42216.49
590.97	41675.82
591.167	42146.86
591.364	41733.17
591.561	41794.6
591.758	41061.43
591.955	41149.49
592.152	41942.06
592.349	41403.44
592.546	41155.64
592.743	41239.61
592.94	40475.71
593.137	40975.42
593.334	40637.5
593.531	40315.97
593.727	40551.49
593.924	40207.43
594.121	40113.22
594.318	40901.69
594.515	39517.26
594.712	40414.27
594.908	39799.88
595.105	39746.64
595.302	39353.43
595.499	39664.72
595.696	39330.9
595.892	39001.18
596.089	39328.85
596.286	39394.39
596.482	38810.71
596.679	38870.11
596.876	38988.89
597.072	38577.25
597.269	38397.02
597.466	38259.81
597.662	38235.24
597.859	38143.08
598.055	38280.29
598.252	37899.37
598.448	37872.74
598.645	37760.11
598.841	37579.89
599.038	37477.49
599.234	37411.95
599.431	37282.93
599.627	37035.13
599.824	37682.28
600.02	36670.59
600.217	37147.76
600.413	36607.1
600.609	36775.03
600.806	36248.71
601.002	36803.71
601.198	36142.21
601.395	36220.03
601.591	36414.59
601.787	35896.45
601.984	35665.03
602.18	36224.13
602.376	35732.62
602.572	35736.71
602.769	35435.66
602.965	35447.95
603.161	35241.1
603.357	35445.9
603.553	35353.74
603.75	35161.23
603.946	35097.75
604.142	35208.34
604.338	34352.29
604.534	34907.29
604.73	34419.87
604.926	34163.87
605.122	34256.03
605.318	34043.04
605.514	33901.73
605.71	34071.71
605.906	34053.28
606.102	34104.48
606.298	34159.78
606.494	33969.32
606.69	33879.21
606.886	33862.82
607.082	33230
607.278	33109.17
607.474	33082.55
607.67	33529
607.866	32851.13
608.062	33424.56
608.257	33027.25
608.453	32713.91
608.649	33084.59
608.845	32603.32
609.041	32867.51
609.236	33080.5
609.432	32488.63
609.628	32631.99
609.824	32476.35
610.019	32081.09
610.215	32441.53
610.411	32597.18
610.606	31900.87
610.802	32158.91
610.998	32122.05
611.193	32001.22
611.389	32021.7
611.584	31892.68
611.78	31714.5
611.976	31644.87
612.171	31497.42
612.367	31773.89
612.562	31888.58
612.758	31151.31
612.953	31210.7
613.149	31933.64
613.344	30993.62
613.539	31069.39
613.735	31575.24
613.93	31208.65
614.126	30842.07
614.321	31216.85
614.517	31401.16
614.712	31321.29
614.907	30639.32
615.103	30891.22
615.298	30942.42
615.493	31124.69
615.688	30522.58
615.884	31147.22
616.079	30168.29
616.274	30842.07
616.47	30315.74
616.665	30534.87
616.86	30319.84
617.055	30299.36
617.25	30033.12
617.445	30176.48
617.641	29975.78
617.836	29936.87
618.031	29596.9
618.226	29945.06
618.421	29455.59
618.616	29777.12
618.811	29463.79
619.006	29701.35
619.201	29025.52
619.396	29355.24
619.591	28691.7
619.786	29138.16
619.981	28552.44
620.176	29207.79
620.371	28431.61
620.566	28304.63
620.761	28398.84
620.956	28427.51
621.151	28062.97
621.346	28466.42
621.541	27831.55
621.735	27991.3
621.93	27487.5
622.125	27712.77
622.32	27409.67
622.515	27397.38
622.709	26975.5
622.904	26973.46
623.099	26793.23
623.294	26762.51
623.488	26453.27
623.683	26582.29
623.878	26197.27
624.072	26203.42
624.267	26176.8
624.462	26006.81
624.656	25625.89
624.851	25744.67
625.046	25517.35
625.24	25562.4
625.435	25322.79
625.629	25027.88
625.824	25015.6
626.018	25093.42
626.213	24581.43
626.407	24792.37
626.602	24317.24
626.796	24476.98
626.991	24311.1
627.185	24204.6
627.38	24167.74
627.574	23514.44
627.768	23571.78
627.963	23657.79
628.157	22967.63
628.352	23653.7
628.546	23024.97
628.74	23469.38
628.935	22463.83
629.129	22885.71
629.323	22295.89
629.517	22664.53
629.712	22525.27
629.906	22506.84
630.1	22068.57
630.294	22304.09
630.489	21945.69
630.683	22046.04
630.877	21478.75
631.071	21622.11
631.265	21394.79
631.459	21314.92
631.653	21263.72
631.848	21398.88
632.042	21130.6
632.236	21091.69
632.43	20956.52
632.624	20807.02
632.818	20456.82
633.012	20331.89
633.206	20534.64
633.4	20508.02
633.594	19817.85
633.788	20215.16
633.982	20444.53
634.176	20108.66
634.369	19875.2
634.563	19617.15
634.757	19742.08
634.951	19502.47
635.145	19230.09
635.339	19404.16
635.533	19053.96
635.726	19195.27
635.92	18783.63
636.114	19092.87
636.308	18900.36
636.501	19053.96
636.695	18855.31
636.889	18414.99
637.083	18312.6
637.276	18367.89
637.47	18687.37
637.664	18005.4
637.857	17849.75
638.051	18197.91
638.244	17778.08
638.438	17825.18
638.632	17778.08
638.825	17589.66
639.019	17601.95
639.212	17542.56
639.406	17413.54
639.599	17266.08
639.793	17198.5
639.986	17081.77
640.18	16928.17
640.373	16805.29
640.567	16743.85
640.76	16559.53
640.954	16754.09
641.147	16420.27
641.34	16364.98
641.534	16401.84
641.727	16229.81
641.92	16199.09
642.114	15939
642.307	16125.36
642.5	16074.17
642.694	15760.83
642.887	15664.57
643.08	15809.98
643.273	15852.98
643.467	15347.14
643.66	15400.38
643.853	15314.37
644.046	15146.44
644.239	15281.6
644.432	15191.49
644.626	14902.73
644.819	14906.82
645.012	14974.41
645.205	14880.2
645.398	14616.01
645.591	14648.78
645.784	14695.88
645.977	14605.77
646.17	14517.71
646.363	14323.15
646.556	14069.2
646.749	14196.18
646.942	14218.71
647.135	13923.8
647.328	13872.6
647.521	13927.89
647.714	13739.48
647.907	13751.77
648.099	13866.46
648.292	13764.06
648.485	13618.65
648.678	13389.28
648.871	13407.71
649.064	13325.79
649.256	13376.99
649.449	13440.48
649.642	12971.49
649.835	12883.43
650.027	12946.92
650.22	12963.3
650.413	12836.33
650.605	12908.01
650.798	12692.97
650.991	12721.64
651.183	12682.73
651.376	12627.43
651.568	12537.32
651.761	12498.41
651.954	12207.6
652.146	12371.44
652.339	12176.88
652.531	12283.38
652.724	12058.1
652.916	11824.63
653.109	12094.96
653.301	11820.53
653.494	11922.93
653.686	11615.74
653.879	11724.28
654.071	11568.63
654.263	11558.39
654.456	11779.57
654.648	11535.87
654.84	11204.1
655.033	11443.71
655.225	11181.57
655.417	11286.01
655.61	11087.36
655.802	11331.07
655.994	10974.72
656.186	11232.77
656.379	10872.32
656.571	11068.93
656.763	10782.21
656.955	10898.95
657.148	10690.06
657.34	10759.69
657.532	10489.35
657.724	10556.94
657.916	10528.27
658.108	10432.01
658.3	10343.95
658.492	10425.87
658.684	10249.74
658.876	10196.5
659.068	10231.31
659.26	10030.61
659.452	10133.01
659.644	10178.06
659.836	9905.68
660.028	9899.54
660.22	9799.19
660.412	9760.28
660.604	9530.91
660.796	9793.05
660.988	9430.55
661.18	9571.86
661.372	9571.86
661.563	9494.04
661.755	9344.54
661.947	9475.61
662.139	9410.08
662.331	9424.41
662.522	9264.67
662.714	9109.02
662.906	9078.3
663.097	9072.16
663.289	9070.11
663.481	8889.89
663.673	9051.68
663.864	8986.15
664.056	8812.07
664.247	8924.71
664.439	8521.26
664.631	8844.84
664.822	8916.51
665.014	8777.25
665.205	8484.39
665.397	8637.99
665.588	8482.35
665.78	8523.3
665.971	8390.19
666.163	8658.47
666.354	8275.5
666.546	8357.42
666.737	8439.34
666.929	8207.92
667.12	8234.54
667.311	8199.73
667.503	8003.12
667.694	8230.45
667.885	7972.4
668.077	8115.76
668.268	8009.26
668.459	7890.48
668.651	7839.28
668.842	7872.05
669.033	7859.76
669.224	7788.08
669.416	7745.08
669.607	7695.93
669.798	7403.07
669.989	7642.68
670.18	7519.8
670.371	7577.14
670.563	7575.1
670.754	7538.23
670.945	7372.35
671.136	7429.69
671.327	7491.13
671.518	7315
671.709	7396.92
671.9	7413.31
672.091	7265.85
672.282	7218.75
672.473	7345.72
672.664	7151.17
672.855	7222.84
673.046	7024.19
673.237	7118.4
673.428	7200.32
673.619	7095.87
673.809	6946.37
674	6905.41
674.191	6837.83
674.382	6927.94
674.573	6626.89
674.764	6946.37
674.954	6886.98
675.145	6782.53
675.336	6647.37
675.527	6774.34
675.717	6768.2
675.908	6497.86
676.099	6760
676.289	6559.3
676.48	6499.91
676.671	6389.32
676.861	6610.5
677.052	6483.53
677.243	6452.81
677.433	6397.51
677.624	6391.37
677.814	6463.05
678.005	6401.61
678.195	6508.1
678.386	6432.33
678.576	6360.65
678.767	6217.29
678.957	6307.4
679.148	6317.64
679.338	6245.96
679.529	6241.87
679.719	6170.19
679.909	6338.12
680.1	6010.45
680.29	6237.77
680.481	6157.9
680.671	6049.36
680.861	6004.3
681.052	5981.78
681.242	5946.96
681.432	6131.28
681.622	5883.47
681.813	5920.34
682.003	5949.01
682.193	6069.84
682.383	5918.29
682.573	5828.18
682.764	5885.52
682.954	5819.99
683.144	5795.41
683.334	5822.03
683.524	5707.35
683.714	5903.95
683.904	5596.76
684.094	5705.3
684.284	5588.57
684.474	5785.17
684.664	5678.68
684.854	5772.88
685.044	5566.04
685.234	5484.12
685.424	5592.66
685.614	5574.23
685.804	5396.06
685.994	5412.44
686.184	5480.02
686.374	5258.84
686.564	5322.33
686.753	5312.09
686.943	5396.06
687.133	5193.31
687.323	5267.03
687.513	5351
687.702	5240.41
687.892	5168.73
688.082	5244.51
688.272	5248.6
688.461	5211.74
688.651	5228.12
688.841	5187.16
689.03	5191.26
689.22	4933.22
689.41	5015.13
689.599	5213.79
689.789	4937.31
689.979	5090.91
690.168	5125.72
690.358	4873.82
690.547	4884.06
690.737	4793.95
690.926	4998.75
691.116	4961.89
691.305	4970.08
691.495	4947.55
691.684	4705.89
691.874	4861.54
692.063	4763.23
692.252	4650.6
692.442	4740.71
692.631	4703.84
692.82	4511.33
693.01	4570.72
693.199	4722.27
693.388	4578.92
693.578	4607.59
693.767	4583.01
693.956	4427.37
694.146	4480.61
694.335	4378.22
694.524	4513.38
694.713	4523.62
694.902	4525.67
695.092	4404.84
695.281	4337.26
695.47	4425.32
695.659	4435.56
695.848	4267.63
696.037	4363.88
696.226	4359.78
696.415	4288.11
696.604	4320.87
696.793	4335.21
696.982	4382.31
697.171	4300.39
697.36	4314.73
697.549	4247.15
697.738	4187.75
697.927	4214.38
698.116	4318.82
698.305	4152.94
698.494	4212.33
698.683	4087.4
698.872	4206.19
699.061	4179.56
699.25	4048.49
699.438	3989.1
699.627	4130.41
699.816	4091.5
700.005	4081.26
700.193	3919.47
700.382	4136.56
700.571	4021.87
700.76	4015.73
700.948	3917.42
701.137	4050.54
701.326	3927.66
701.514	4042.35
701.703	3898.99
701.892	4064.88
702.08	4021.87
702.269	3948.14
702.457	3964.53
702.646	3999.34
702.834	3851.89
703.023	3804.78
703.212	3907.18
703.4	3878.51
703.589	3776.11
703.777	3898.99
703.965	3868.27
704.154	3888.75
704.342	3970.67
704.531	3772.02
704.719	3864.18
704.907	3743.35
705.096	3790.45
705.284	3808.88
705.472	3751.54
705.661	3700.34
705.849	3886.7
706.037	3778.16
706.226	3585.65
706.414	3614.32
706.602	3622.52
706.79	3665.52
706.979	3657.33
707.167	3708.53
707.355	3659.38
707.543	3593.84
707.731	3589.75
707.919	3720.82
708.107	3663.47
708.296	3595.89
708.484	3630.71
708.672	3622.52
708.86	3686
709.048	3548.79
709.236	3622.52
709.424	3616.37
709.612	3417.72
709.8	3663.47
709.988	3499.64
710.176	3540.6
710.364	3442.29
710.551	3456.63
710.739	3565.17
710.927	3556.98
711.115	3419.77
711.303	3380.86
711.491	3356.28
711.679	3487.35
711.866	3505.78
712.054	3415.67
712.242	3430.01
712.43	3563.12
712.617	3425.91
712.805	3509.88
712.993	3352.18
713.181	3284.6
713.368	3346.04
713.556	3300.98
713.744	3382.9
713.931	3346.04
714.119	3343.99
714.306	3366.52
714.494	3380.86
714.682	3325.56
714.869	3200.63
715.057	3251.83
715.244	3305.08
715.432	3255.93
715.619	3247.74
715.807	3311.22
715.994	3212.92
716.182	3196.54
716.369	3264.12
716.556	3327.61
716.744	3243.64
716.931	3239.55
717.119	3331.7
717.306	3145.34
717.493	3231.35
717.681	3145.34
717.868	3212.92
718.055	3133.05
718.242	3169.91
718.43	3149.43
718.617	3124.86
718.804	3151.48
718.991	3071.61
719.179	3237.5
719.366	3210.87
719.553	3184.25
719.74	3223.16
719.927	3124.86
720.114	2969.21
720.301	3034.75
720.488	3092.09
720.676	3067.52
720.863	3108.48
721.05	3137.15
721.237	2981.5
721.424	3143.29
721.611	3088
721.798	3032.7
721.985	2954.88
722.172	3075.71
722.358	2934.4
722.545	2903.68
722.732	2979.45
722.919	3051.13
723.106	2944.64
723.293	2967.17
723.48	2942.59
723.667	3020.41
723.853	2948.73
724.04	2967.17
724.227	2991.74
724.414	2899.58
724.6	2858.62
724.787	2899.58
724.974	2899.58
725.161	2946.69
725.347	2875.01
725.534	2915.97
725.72	2868.86
725.907	2821.76
726.094	2987.65
726.28	2797.18
726.467	2825.86
726.653	2745.98
726.84	2784.9
727.027	2864.77
727.213	2745.98
727.4	2897.53
727.586	2850.43
727.773	2668.16
727.959	2844.29
728.145	2784.9
728.332	2889.34
728.518	2711.17
728.705	2715.27
728.891	2891.39
729.077	2784.9
729.264	2756.22
729.45	2645.63
729.636	2829.95
729.823	2778.75
730.009	2799.23
730.195	2735.74
730.382	2829.95
730.568	2748.03
730.754	2774.66
730.94	2702.98
731.126	2659.97
731.313	2653.83
731.499	2604.67
731.685	2694.79
731.871	2700.93
732.057	2702.98
732.243	2559.62
732.429	2621.06
732.615	2731.65
732.801	2598.53
732.987	2639.49
733.173	2686.59
733.359	2686.59
733.545	2662.02
733.731	2678.4
733.917	2725.51
734.103	2655.87
734.289	2645.63
734.475	2510.47
734.661	2645.63
734.847	2569.86
735.033	2631.3
735.219	2557.57
735.404	2506.37
735.59	2606.72
735.776	2569.86
735.962	2666.11
736.148	2643.59
736.333	2526.85
736.519	2664.07
736.705	2451.08
736.89	2530.95
737.076	2457.22
737.262	2530.95
737.447	2465.41
737.633	2414.21
737.819	2520.71
738.004	2602.63
738.19	2399.88
738.375	2516.61
738.561	2391.69
738.747	2520.71
738.932	2371.21
739.118	2465.41
739.303	2479.75
739.489	2561.67
739.674	2360.97
739.859	2367.11
740.045	2346.63
740.23	2324.1
740.416	2315.91
740.601	2420.36
740.786	2397.83
740.972	2379.4
741.157	2313.86
741.342	2213.51
741.528	2406.02
741.713	2360.97
741.898	2209.42
742.084	2301.58
742.269	2287.24
742.454	2326.15
742.639	2444.93
742.824	2324.1
743.01	2246.28
743.195	2244.23
743.38	2412.17
743.565	2129.55
743.75	2184.84
743.935	2113.16
744.12	2283.14
744.305	2135.69
744.49	2117.26
744.675	2133.64
744.86	2117.26
745.045	2121.35
745.23	2150.03
745.415	2023.05
745.6	2139.79
745.785	2029.2
745.97	2260.62
746.155	2152.07
746.34	2107.02
746.525	1957.52
746.71	2090.63
746.895	2000.52
747.079	2086.54
747.264	1902.22
747.449	1975.95
747.634	2102.92
747.819	1918.61
748.003	1904.27
748.188	1914.51
748.373	1810.06
748.557	1920.65
748.742	1867.41
748.927	2002.57
749.111	1883.79
749.296	1881.74
749.481	1808.02
749.665	1859.21
749.85	1844.88
750.034	1855.12
750.219	1787.54
750.404	1838.73
750.588	1703.57
750.773	1795.73
750.957	1689.23
751.141	1787.54
751.326	1750.67
751.51	1771.15
751.695	1736.34
751.879	1744.53
752.064	1738.38
752.248	1715.86
752.432	1693.33
752.617	1678.99
752.801	1783.44
752.985	1635.99
753.17	1642.13
753.354	1601.17
753.538	1549.97
753.722	1545.88
753.907	1549.97
754.091	1554.07
754.275	1572.5
754.459	1590.93
754.643	1447.57
754.828	1466
755.012	1513.11
755.196	1463.96
755.38	1527.44
755.564	1488.53
755.748	1572.5
755.932	1410.71
756.116	1408.66
756.3	1371.8
756.484	1468.05
756.668	1420.95
756.852	1443.48
757.036	1390.23
757.22	1332.89
757.404	1324.69
757.588	1363.61
757.772	1361.56
757.956	1404.57
758.14	1439.38
758.323	1423
758.507	1431.19
758.691	1326.74
758.875	1300.12
759.059	1293.97
759.242	1269.4
759.426	1285.78
759.61	1220.25
759.794	1275.54
759.977	1371.8
760.161	1281.69
760.345	1379.99
760.528	1240.73
760.712	1144.47
760.895	1177.24
761.079	1275.54
761.263	1177.24
761.446	1164.95
761.63	1175.19
761.813	1144.47
761.997	1197.72
762.18	1087.13
762.364	1218.2
762.547	1048.22
762.731	1187.48
762.914	1181.34
763.098	1023.64
763.281	1179.29
763.464	1068.7
763.648	1171.1
763.831	1162.9
764.015	1162.9
764.198	1162.9
764.381	1076.89
764.564	1089.18
764.748	1078.94
764.931	1146.52
765.114	1023.64
765.297	1080.99
765.481	1191.58
765.664	1035.93
765.847	1066.65
766.03	1058.46
766.213	962.2
766.397	1035.93
766.58	1078.94
766.763	1011.36
766.946	1013.4
767.129	1097.37
767.312	1037.98
767.495	1054.36
767.678	1023.64
767.861	1035.93
768.044	923.29
768.227	1015.45
768.41	1013.4
768.593	1033.88
768.776	986.78
768.959	1044.12
769.142	1046.17
769.324	902.81
769.507	974.49
769.69	992.92
769.873	974.49
770.056	917.15
770.239	966.3
770.421	999.07
770.604	980.64
770.787	933.53
770.97	913.05
771.152	1025.69
771.335	945.82
771.518	970.4
771.7	927.39
771.883	855.71
772.066	943.77
772.248	931.48
772.431	921.24
772.613	933.53
772.796	886.43
772.978	839.33
773.161	937.63
773.343	872.09
773.526	845.47
773.708	911
773.891	835.23
774.073	892.57
774.256	886.43
774.438	810.65
774.621	921.24
774.803	816.8
774.985	802.46
775.168	827.04
775.35	767.65
775.532	759.46
775.715	773.79
775.897	794.27
776.079	736.93
776.261	806.56
776.444	829.09
776.626	790.17
776.808	833.18
776.99	757.41
777.173	835.23
777.355	775.84
777.537	814.75
777.719	847.52
777.901	720.54
778.083	685.73
778.265	734.88
778.447	734.88
778.629	763.55
778.811	630.43
778.993	710.3
779.175	691.87
779.357	675.49
779.539	679.58
779.721	669.34
779.903	667.3
780.085	689.82
780.267	718.5
780.449	669.34
780.631	718.5
780.812	734.88
780.994	644.77
781.176	550.56
781.358	681.63
781.54	677.54
781.721	655.01
781.903	642.72
782.085	640.67
782.267	593.57
782.448	634.53
782.63	495.27
782.812	640.67
782.993	556.71
783.175	644.77
783.357	597.67
783.538	589.47
783.72	568.99
783.901	581.28
784.083	595.62
784.264	575.14
784.446	550.56
784.627	482.98
784.809	474.79
784.99	558.75
785.172	544.42
785.353	456.36
785.535	505.51
785.716	505.51
785.897	501.41
786.079	587.43
786.26	503.46
786.441	517.79
786.623	478.88
786.804	460.45
786.985	464.55
787.167	521.89
787.348	460.45
787.529	534.18
787.71	544.42
787.891	435.88
788.073	513.7
788.254	513.7
788.435	474.79
788.616	548.51
788.797	499.36
788.978	540.32
789.159	433.83
789.34	507.55
789.522	392.87
789.703	476.84
789.884	413.35
790.065	425.64
790.246	364.2
790.427	435.88
790.607	417.44
790.788	401.06
790.969	323.24
791.15	374.44
791.331	460.45
791.512	425.64
791.693	460.45
791.874	341.67
792.054	390.82
792.235	407.2
792.416	413.35
792.597	413.35
792.778	415.4
792.958	323.24
793.139	366.25
793.32	298.66
793.5	351.91
793.681	450.21
793.862	358.05
794.042	335.53
794.223	237.22
794.404	329.38
794.584	384.68
794.765	337.57
794.945	401.06
795.126	413.35
795.306	276.13
795.487	351.91
795.667	413.35
795.848	392.87
796.028	306.85
796.209	323.24
796.389	386.72
796.57	259.75
796.75	448.16
796.93	368.29
797.111	282.28
797.291	384.68
797.471	384.68
797.652	286.37
797.832	237.22
798.012	407.2
798.192	267.94
798.373	310.95
798.553	386.72
798.733	343.72
798.913	331.43
799.093	245.41
799.274	214.7
799.454	280.23
799.634	306.85
799.814	321.19
799.994	343.72
800.174	302.76
800.354	315.05
800.534	257.7
800.714	257.7
800.894	263.85
801.074	245.41
801.254	206.5
801.434	304.81
801.614	288.42
801.794	216.74
801.974	669.34
802.154	315.05
802.334	300.71
802.514	269.99
802.693	231.08
802.873	274.09
803.053	337.57
803.233	294.57
803.413	251.56
803.592	278.18
803.772	245.41
803.952	272.04
804.131	259.75
804.311	261.8
804.491	294.57
804.67	269.99
804.85	245.41
805.03	278.18
805.209	198.31
805.389	247.46
805.568	190.12
805.748	288.42
805.928	134.82
806.107	278.18
806.287	239.27
806.466	290.47
806.646	229.03
806.825	245.41
807.004	288.42
807.184	233.13
807.363	169.64
807.543	220.84
807.722	278.18
807.901	198.31
808.081	323.24
808.26	143.02
808.439	229.03
808.619	212.65
808.798	224.94
808.977	259.75
809.156	204.46
809.336	181.93
809.515	218.79
809.694	100.01
809.873	269.99
810.052	233.13
810.231	288.42
810.411	218.79
810.59	196.26
810.769	181.93
810.948	222.89
811.127	173.74
811.306	194.22
811.485	173.74
811.664	208.55
811.843	222.89
812.022	157.35
812.201	167.59
812.38	200.36
812.559	200.36
812.737	222.89
812.916	145.06
813.095	171.69
813.274	210.6
813.453	192.17
813.632	229.03
813.811	145.06
813.989	132.78
814.168	216.74
814.347	190.12
814.526	118.44
814.704	190.12
814.883	216.74
815.062	102.06
815.24	183.98
815.419	69.29
815.598	165.54
815.776	145.06
815.955	190.12
816.133	194.22
816.312	138.92
816.49	151.21
816.669	136.87
816.847	188.07
817.026	138.92
817.204	140.97
817.383	120.49
817.561	95.91
817.74	159.4
817.918	140.97
818.097	106.15
818.275	116.39
818.453	212.65
818.632	79.53
818.81	151.21
818.988	177.83
819.167	196.26
819.345	159.4
819.523	181.93
819.701	75.43
819.879	163.5
820.058	208.55
820.236	204.46
820.414	198.31
820.592	112.3
820.77	145.06
820.948	188.07
821.127	171.69
821.305	126.63
821.483	116.39
821.661	179.88
821.839	67.24
822.017	192.17
822.195	136.87
822.373	97.96
822.551	188.07
822.729	177.83
822.907	134.82
823.085	206.5
823.262	75.43
823.44	67.24
823.618	108.2
823.796	157.35
823.974	173.74
824.152	132.78
824.329	112.3
824.507	149.16
824.685	67.24
824.863	126.63
825.04	159.4
825.218	102.06
825.396	67.24
825.574	143.02
825.751	173.74
825.929	100.01
826.107	89.77
826.284	192.17
826.462	145.06
826.639	110.25
826.817	108.2
826.994	85.67
827.172	132.78
827.349	159.4
827.527	104.11
827.704	120.49
827.882	114.34
828.059	108.2
828.237	118.44
828.414	157.35
828.591	38.57
828.769	134.82
828.946	110.25
829.124	102.06
829.301	175.78
829.478	108.2
829.655	136.87
829.833	165.54
830.01	91.82
830.187	106.15
830.364	50.86
830.542	50.86
830.719	54.95
830.896	116.39
831.073	85.67
831.25	71.34
831.427	81.58
831.604	52.91
831.782	36.52
831.959	87.72
832.136	79.53
832.313	128.68
832.49	108.2
832.667	157.35
832.844	112.3
833.021	130.73
833.198	75.43
833.374	57
833.551	24.23
833.728	71.34
833.905	134.82
834.082	151.21
834.259	95.91
834.436	153.26
834.612	48.81
834.789	100.01
834.966	110.25
835.143	120.49
835.319	87.72
835.496	147.11
835.673	114.34
835.85	122.54
836.026	104.11
836.203	177.83
836.38	54.95
836.556	81.58
836.733	85.67
836.909	165.54
837.086	46.76
837.262	149.16
837.439	108.2
837.616	28.33
837.792	48.81
837.968	138.92
838.145	-2.39
838.321	97.96
838.498	71.34
838.674	118.44
838.851	130.73
839.027	59.05
839.203	40.62
839.38	18.09
839.556	26.28
839.732	67.24
839.909	26.28
840.085	89.77
840.261	-0.34
840.437	50.86
840.614	83.63
840.79	143.02
840.966	97.96
841.142	30.38
841.318	48.81
841.494	97.96
841.671	75.43
841.847	-14.68
842.023	65.19
842.199	108.2
842.375	44.71
842.551	32.43
842.727	11.95
842.903	73.39
843.079	42.67
843.255	42.67
843.431	67.24
843.607	100.01
843.783	30.38
843.959	147.11
844.134	73.39
844.31	97.96
844.486	87.72
844.662	34.47
844.838	91.82
845.013	63.15
845.189	93.87
845.365	102.06
845.541	34.47
845.716	167.59
845.892	87.72
846.068	-14.68
846.244	36.52
846.419	54.95
846.595	110.25
846.77	91.82
846.946	153.26
847.122	124.58
847.297	69.29
847.473	69.29
847.648	42.67
847.824	132.78
847.999	59.05
848.175	26.28
848.35	95.91
848.526	102.06
848.701	38.57
848.876	83.63
849.052	93.87
849.227	30.38
849.403	13.99
849.578	5.8
849.753	11.95
849.929	71.34
850.104	87.72
850.279	83.63
850.454	11.95
850.63	87.72
850.805	108.2
850.98	46.76
851.155	5.8
851.33	69.29
851.505	38.57
851.681	106.15
851.856	65.19
852.031	61.1
852.206	50.86
852.381	114.34
852.556	5.8
852.731	97.96
852.906	77.48
853.081	61.1
853.256	138.92
853.431	34.47
853.606	61.1
853.781	100.01
853.956	-14.68
854.131	52.91
854.305	52.91
854.48	89.77
854.655	42.67
854.83	18.09
855.005	30.38
855.18	20.14
855.354	22.19
855.529	79.53
855.704	13.99
855.879	36.52
856.053	22.19
856.228	75.43
856.403	-6.49
856.577	59.05
856.752	-76.12
856.926	77.48
857.101	69.29
857.276	57
857.45	26.28
857.625	28.33
857.799	30.38
857.974	75.43
858.148	65.19
858.323	32.43
858.497	-0.34
858.672	104.11
858.846	28.33
859.02	75.43
859.195	69.29
859.369	11.95
859.543	85.67
859.718	54.95
859.892	91.82
860.066	87.72
860.241	-4.44
860.415	-22.87
860.589	42.67
860.763	42.67
860.938	48.81
861.112	79.53
861.286	-6.49
861.46	97.96
861.634	38.57
861.808	40.62
861.982	18.09
862.157	-14.68
862.331	44.71
862.505	-0.34
862.679	75.43
862.853	18.09
863.027	63.15
863.201	140.97
863.375	-8.53
863.549	89.77
863.722	-4.44
863.896	40.62
864.07	-0.34
864.244	-14.68
864.418	34.47
864.592	106.15
864.766	40.62
864.939	75.43
865.113	26.28
865.287	48.81
865.461	24.23
865.634	26.28
865.808	32.43
865.982	75.43
866.156	-82.26
866.329	18.09
866.503	42.67
866.676	32.43
866.85	-14.68
867.024	9.9
867.197	28.33
867.371	3.75
867.544	11.95
867.718	48.81
867.891	79.53
868.065	-35.16
868.238	46.76
868.412	5.8
868.585	-0.34
868.759	16.04
868.932	24.23
869.105	-18.77
869.279	71.34
869.452	5.8
869.625	-0.34
869.799	54.95
869.972	-37.2
870.145	44.71
870.319	75.43
870.492	69.29
870.665	38.57
870.838	13.99
871.011	57
871.185	85.67
871.358	54.95
871.531	57
871.704	42.67
871.877	-4.44
872.05	9.9
872.223	-43.35
872.396	36.52
872.569	-24.92
872.742	73.39
872.915	71.34
873.088	48.81
873.261	57
873.434	11.95
873.607	-20.82
873.78	48.81
873.953	36.52
874.126	9.9
874.299	54.95
874.471	73.39
874.644	57
874.817	63.15
874.99	36.52
875.163	38.57
875.335	44.71
875.508	71.34
875.681	50.86
875.853	93.87
876.026	-24.92
876.199	-18.77
876.371	36.52
876.544	18.09
876.717	9.9
876.889	20.14
877.062	11.95
877.234	50.86
877.407	40.62
877.579	-26.96
877.752	65.19
877.924	22.19
878.097	20.14
878.269	30.38
878.442	26.28
878.614	13.99
878.786	13.99
878.959	-0.34
879.131	36.52
879.303	20.14
879.476	7.85
879.648	57
879.82	28.33
879.993	-22.87
880.165	11.95
880.337	-31.06
880.509	18.09
880.681	50.86
880.854	9.9
881.026	-41.3
881.198	-4.44
881.37	24.23
881.542	-14.68
881.714	7.85
881.886	1.71
882.058	22.19
882.23	-26.96
882.402	9.9
882.574	48.81
882.746	83.63
882.918	75.43
883.09	3.75
883.262	22.19
883.434	71.34
883.606	89.77
883.778	50.86
883.95	38.57
884.122	-26.96
884.293	40.62
884.465	3.75
884.637	65.19
884.809	65.19
884.98	24.23
885.152	48.81
885.324	110.25
885.496	24.23
885.667	-43.35
885.839	-2.39
886.011	-2.39
886.182	-4.44
886.354	52.91
886.525	24.23
886.697	20.14
886.869	-16.73
887.04	-0.34
887.212	77.48
887.383	-0.34
887.555	57
887.726	-26.96
887.897	16.04
888.069	46.76
888.24	-33.11
888.412	9.9
888.583	48.81
888.754	-10.58
888.926	-24.92
889.097	34.47
889.268	-10.58
889.44	-29.01
889.611	-29.01
889.782	81.58
889.953	-24.92
890.125	36.52
890.296	20.14
890.467	77.48
890.638	28.33
890.809	30.38
890.98	9.9
891.151	83.63
891.323	28.33
891.494	73.39
891.665	-31.06
891.836	48.81
892.007	57
892.178	95.91
892.349	-29.01
892.52	-49.49
892.691	-29.01
892.862	24.23
893.032	-26.96
893.203	30.38
893.374	61.1
893.545	5.8
893.716	46.76
893.887	28.33
894.057	24.23
894.228	-26.96
894.399	93.87
894.57	57
894.74	1.71
894.911	75.43
895.082	26.28
895.253	50.86
895.423	36.52
895.594	81.58
895.764	3.75
895.935	-24.92
896.106	22.19
896.276	79.53
896.447	65.19
896.617	50.86
896.788	-51.54
896.958	30.38
897.129	54.95
897.299	34.47
897.47	40.62
897.64	42.67
897.81	1.71
897.981	11.95
898.151	-31.06
898.322	24.23
898.492	75.43
898.662	9.9
898.832	-29.01
899.003	67.24
899.173	5.8
899.343	38.57
899.513	44.71
