Data from USB4F104151__44__12-35-56-159.txt Node

Date: Fri Mar 14 12:35:56 EDT 2025
User: louis
Spectrometer: USB4F10415
Trigger mode: 4
Integration Time (sec): 2.000000E-2
Scans to average: 1
Electric dark correction enabled: true
Nonlinearity correction enabled: false
Boxcar width: 0
XAxis mode: Wavelengths
Number of Pixels in Spectrum: 3648
>>>>>Begin Spectral Data<<<<<
178.204	-90.45
178.424	-90.45
178.644	-90.45
178.864	-51.54
179.084	-86.36
179.304	22.19
179.524	28.33
179.744	-47.44
179.964	59.05
180.184	26.28
180.404	-8.53
180.624	52.91
180.844	18.09
181.064	-47.44
181.283	1.71
181.503	-57.68
181.723	-47.44
181.943	-10.58
182.163	32.43
182.383	11.95
182.602	-2.39
182.822	18.09
183.042	34.47
183.262	42.67
183.482	-18.77
183.701	13.99
183.921	-14.68
184.141	9.9
184.361	57
184.58	16.04
184.8	52.91
185.02	-45.4
185.239	54.95
185.459	9.9
185.679	22.19
185.898	-6.49
186.118	30.38
186.338	-55.64
186.557	-8.53
186.777	-49.49
186.997	-41.3
187.216	-22.87
187.436	46.76
187.655	-82.26
187.875	-20.82
188.095	18.09
188.314	1.71
188.534	-22.87
188.753	-14.68
188.973	102.06
189.192	13.99
189.412	26.28
189.631	13.99
189.851	-6.49
190.07	5.8
190.29	-88.4
190.509	-12.63
190.729	-18.77
190.948	59.05
191.168	110.25
191.387	54.95
191.607	52.91
191.826	46.76
192.045	22.19
192.265	-74.07
192.484	-6.49
192.704	9.9
192.923	-33.11
193.142	63.15
193.362	-51.54
193.581	42.67
193.8	22.19
194.02	-4.44
194.239	-8.53
194.458	-24.92
194.678	-22.87
194.897	-6.49
195.116	46.76
195.335	-29.01
195.555	-24.92
195.774	59.05
195.993	-14.68
196.212	22.19
196.432	-16.73
196.651	63.15
196.87	22.19
197.089	89.77
197.308	16.04
197.528	38.57
197.747	-31.06
197.966	30.38
198.185	-49.49
198.404	3.75
198.623	59.05
198.842	40.62
199.062	52.91
199.281	79.53
199.5	11.95
199.719	30.38
199.938	40.62
200.157	57
200.376	77.48
200.595	-33.11
200.814	91.82
201.033	52.91
201.252	67.24
201.471	22.19
201.69	9.9
201.909	-31.06
202.128	69.29
202.347	32.43
202.566	89.77
202.785	38.57
203.004	-18.77
203.223	40.62
203.442	77.48
203.661	85.67
203.879	54.95
204.098	-14.68
204.317	-31.06
204.536	46.76
204.755	-12.63
204.974	26.28
205.193	-4.44
205.411	-14.68
205.63	50.86
205.849	-0.34
206.068	-0.34
206.287	30.38
206.505	-12.63
206.724	52.91
206.943	26.28
207.162	9.9
207.381	-12.63
207.599	-10.58
207.818	30.38
208.037	67.24
208.255	57
208.474	28.33
208.693	-2.39
208.911	-0.34
209.13	26.28
209.349	30.38
209.567	-22.87
209.786	1.71
210.005	-2.39
210.223	-31.06
210.442	-12.63
210.661	3.75
210.879	3.75
211.098	-4.44
211.316	46.76
211.535	-8.53
211.753	-29.01
211.972	93.87
212.191	65.19
212.409	-41.3
212.628	-29.01
212.846	61.1
213.065	18.09
213.283	100.01
213.502	67.24
213.72	-31.06
213.938	36.52
214.157	-10.58
214.375	36.52
214.594	-2.39
214.812	1.71
215.031	-8.53
215.249	69.29
215.467	22.19
215.686	34.47
215.904	38.57
216.122	5.8
216.341	52.91
216.559	-12.63
216.778	-2.39
216.996	30.38
217.214	1.71
217.432	46.76
217.651	-61.78
217.869	42.67
218.087	20.14
218.306	28.33
218.524	11.95
218.742	-45.4
218.96	-18.77
219.179	38.57
219.397	46.76
219.615	20.14
219.833	59.05
220.051	-0.34
220.27	32.43
220.488	79.53
220.706	30.38
220.924	36.52
221.142	18.09
221.36	-41.3
221.578	3.75
221.796	22.19
222.015	-31.06
222.233	28.33
222.451	26.28
222.669	-18.77
222.887	69.29
223.105	-49.49
223.323	46.76
223.541	-59.73
223.759	22.19
223.977	69.29
224.195	112.3
224.413	34.47
224.631	36.52
224.849	1.71
225.067	16.04
225.285	20.14
225.503	20.14
225.721	-47.44
225.939	-6.49
226.157	61.1
226.375	59.05
226.592	-51.54
226.81	54.95
227.028	-22.87
227.246	81.58
227.464	36.52
227.682	46.76
227.9	-47.44
228.117	36.52
228.335	-69.97
228.553	32.43
228.771	-55.64
228.989	-6.49
229.206	-2.39
229.424	-18.77
229.642	32.43
229.86	13.99
230.077	13.99
230.295	22.19
230.513	13.99
230.731	11.95
230.948	-33.11
231.166	59.05
231.384	1.71
231.601	65.19
231.819	34.47
232.037	-55.64
232.254	-14.68
232.472	5.8
232.689	46.76
232.907	-22.87
233.125	-24.92
233.342	13.99
233.56	-33.11
233.777	-20.82
233.995	26.28
234.213	32.43
234.43	-2.39
234.648	77.48
234.865	7.85
235.083	59.05
235.3	-53.59
235.518	5.8
235.735	-0.34
235.953	32.43
236.17	-29.01
236.388	52.91
236.605	22.19
236.822	22.19
237.04	-51.54
237.257	16.04
237.475	48.81
237.692	77.48
237.909	-86.36
238.127	34.47
238.344	-35.16
238.562	85.67
238.779	-51.54
238.996	3.75
239.214	65.19
239.431	-18.77
239.648	5.8
239.865	36.52
240.083	44.71
240.3	32.43
240.517	-80.21
240.735	40.62
240.952	83.63
241.169	-24.92
241.386	3.75
241.603	-14.68
241.821	26.28
242.038	3.75
242.255	71.34
242.472	-2.39
242.689	-0.34
242.907	52.91
243.124	-10.58
243.341	18.09
243.558	-6.49
243.775	46.76
243.992	-61.78
244.209	57
244.426	93.87
244.643	46.76
244.86	-0.34
245.078	50.86
245.295	59.05
245.512	36.52
245.729	13.99
245.946	30.38
246.163	-26.96
246.38	24.23
246.597	-12.63
246.814	36.52
247.031	-16.73
247.248	18.09
247.464	-53.59
247.681	1.71
247.898	52.91
248.115	-24.92
248.332	-0.34
248.549	18.09
248.766	5.8
248.983	5.8
249.2	7.85
249.417	24.23
249.633	13.99
249.85	-10.58
250.067	-18.77
250.284	71.34
250.501	-35.16
250.717	16.04
250.934	3.75
251.151	50.86
251.368	30.38
251.585	34.47
251.801	-33.11
252.018	61.1
252.235	63.15
252.451	-20.82
252.668	-14.68
252.885	5.8
253.102	9.9
253.318	-24.92
253.535	-22.87
253.752	-59.73
253.968	67.24
254.185	1.71
254.401	-0.34
254.618	34.47
254.835	-63.83
255.051	61.1
255.268	42.67
255.484	16.04
255.701	-53.59
255.917	93.87
256.134	7.85
256.351	128.68
256.567	-53.59
256.784	13.99
257	-39.25
257.217	26.28
257.433	32.43
257.65	95.91
257.866	40.62
258.082	-26.96
258.299	26.28
258.515	52.91
258.732	-53.59
258.948	-29.01
259.165	18.09
259.381	24.23
259.597	16.04
259.814	95.91
260.03	22.19
260.246	1.71
260.463	36.52
260.679	69.29
260.895	95.91
261.112	34.47
261.328	-16.73
261.544	44.71
261.761	-2.39
261.977	-10.58
262.193	-16.73
262.409	9.9
262.626	26.28
262.842	85.67
263.058	54.95
263.274	46.76
263.49	-53.59
263.707	46.76
263.923	9.9
264.139	3.75
264.355	16.04
264.571	28.33
264.787	69.29
265.004	26.28
265.22	54.95
265.436	-10.58
265.652	-24.92
265.868	36.52
266.084	50.86
266.3	-63.83
266.516	-41.3
266.732	67.24
266.948	87.72
267.164	50.86
267.38	-8.53
267.596	-20.82
267.812	5.8
268.028	61.1
268.244	34.47
268.46	67.24
268.676	-22.87
268.892	-12.63
269.108	67.24
269.324	5.8
269.54	28.33
269.756	13.99
269.972	34.47
270.188	34.47
270.403	44.71
270.619	28.33
270.835	38.57
271.051	-22.87
271.267	32.43
271.483	7.85
271.698	-47.44
271.914	38.57
272.13	-43.35
272.346	40.62
272.562	-49.49
272.777	50.86
272.993	-12.63
273.209	40.62
273.425	-8.53
273.64	3.75
273.856	93.87
274.072	-37.2
274.287	-45.4
274.503	40.62
274.719	50.86
274.934	69.29
275.15	-57.68
275.366	38.57
275.581	40.62
275.797	30.38
276.012	-18.77
276.228	3.75
276.444	28.33
276.659	59.05
276.875	13.99
277.09	-92.5
277.306	-4.44
277.521	44.71
277.737	1.71
277.952	-39.25
278.168	24.23
278.383	22.19
278.599	-45.4
278.814	108.2
279.03	-29.01
279.245	42.67
279.461	11.95
279.676	100.01
279.892	3.75
280.107	-26.96
280.322	-22.87
280.538	52.91
280.753	36.52
280.969	42.67
281.184	16.04
281.399	-26.96
281.615	24.23
281.83	32.43
282.045	-4.44
282.26	-12.63
282.476	20.14
282.691	20.14
282.906	13.99
283.122	9.9
283.337	-88.4
283.552	24.23
283.767	13.99
283.983	7.85
284.198	-4.44
284.413	112.3
284.628	-47.44
284.843	30.38
285.058	-6.49
285.274	-10.58
285.489	-47.44
285.704	26.28
285.919	50.86
286.134	20.14
286.349	-16.73
286.564	20.14
286.779	-41.3
286.995	13.99
287.21	5.8
287.425	69.29
287.64	-26.96
287.855	54.95
288.07	40.62
288.285	57
288.5	-55.64
288.715	50.86
288.93	7.85
289.145	18.09
289.36	46.76
289.575	95.91
289.79	36.52
290.004	3.75
290.219	18.09
290.434	5.8
290.649	83.63
290.864	-35.16
291.079	18.09
291.294	-33.11
291.509	75.43
291.724	65.19
291.938	-24.92
292.153	83.63
292.368	13.99
292.583	-24.92
292.798	-47.44
293.012	-8.53
293.227	42.67
293.442	30.38
293.657	57
293.871	97.96
294.086	24.23
294.301	95.91
294.516	24.23
294.73	30.38
294.945	3.75
295.16	73.39
295.374	48.81
295.589	71.34
295.804	1.71
296.018	-12.63
296.233	9.9
296.447	3.75
296.662	-49.49
296.877	-24.92
297.091	85.67
297.306	-37.2
297.52	-2.39
297.735	87.72
297.949	40.62
298.164	11.95
298.378	-2.39
298.593	1.71
298.807	42.67
299.022	89.77
299.236	11.95
299.451	91.82
299.665	-16.73
299.88	7.85
300.094	61.1
300.309	48.81
300.523	9.9
300.737	110.25
300.952	52.91
301.166	83.63
301.381	54.95
301.595	34.47
301.809	26.28
302.024	44.71
302.238	44.71
302.452	28.33
302.667	-2.39
302.881	32.43
303.095	22.19
303.309	24.23
303.524	1.71
303.738	48.81
303.952	85.67
304.166	30.38
304.381	1.71
304.595	71.34
304.809	57
305.023	46.76
305.237	26.28
305.452	24.23
305.666	11.95
305.88	-4.44
306.094	50.86
306.308	61.1
306.522	87.72
306.736	18.09
306.95	13.99
307.164	11.95
307.379	1.71
307.593	18.09
307.807	63.15
308.021	-12.63
308.235	-49.49
308.449	108.2
308.663	42.67
308.877	-26.96
309.091	63.15
309.305	87.72
309.519	34.47
309.733	42.67
309.947	106.15
310.161	18.09
310.374	30.38
310.588	13.99
310.802	20.14
311.016	48.81
311.23	24.23
311.444	20.14
311.658	3.75
311.872	108.2
312.085	32.43
312.299	87.72
312.513	57
312.727	1.71
312.941	9.9
313.154	85.67
313.368	28.33
313.582	63.15
313.796	40.62
314.009	28.33
314.223	67.24
314.437	-2.39
314.651	93.87
314.864	61.1
315.078	34.47
315.292	7.85
315.505	-47.44
315.719	32.43
315.933	13.99
316.146	40.62
316.36	95.91
316.573	67.24
316.787	-8.53
317.001	20.14
317.214	13.99
317.428	46.76
317.641	-29.01
317.855	28.33
318.068	-39.25
318.282	16.04
318.495	44.71
318.709	65.19
318.922	18.09
319.136	44.71
319.349	16.04
319.563	-22.87
319.776	40.62
319.99	48.81
320.203	42.67
320.417	77.48
320.63	-6.49
320.843	112.3
321.057	69.29
321.27	63.15
321.483	13.99
321.697	65.19
321.91	-29.01
322.124	52.91
322.337	89.77
322.55	18.09
322.763	-0.34
322.977	71.34
323.19	-12.63
323.403	1.71
323.617	54.95
323.83	36.52
324.043	63.15
324.256	44.71
324.469	-35.16
324.683	-2.39
324.896	16.04
325.109	-72.02
325.322	-26.96
325.535	30.38
325.748	38.57
325.962	-6.49
326.175	36.52
326.388	42.67
326.601	52.91
326.814	61.1
327.027	9.9
327.24	16.04
327.453	-35.16
327.666	22.19
327.879	30.38
328.092	71.34
328.305	-14.68
328.518	-14.68
328.731	57
328.944	93.87
329.157	106.15
329.37	28.33
329.583	36.52
329.796	108.2
330.009	18.09
330.222	-18.77
330.435	75.43
330.648	-39.25
330.861	67.24
331.073	63.15
331.286	42.67
331.499	38.57
331.712	-22.87
331.925	-29.01
332.138	83.63
332.35	13.99
332.563	42.67
332.776	151.21
332.989	42.67
333.202	40.62
333.414	-18.77
333.627	-29.01
333.84	30.38
334.053	65.19
334.265	26.28
334.478	40.62
334.691	-12.63
334.903	-16.73
335.116	-2.39
335.329	28.33
335.541	28.33
335.754	59.05
335.966	5.8
336.179	9.9
336.392	-8.53
336.604	-8.53
336.817	34.47
337.029	97.96
337.242	13.99
337.454	69.29
337.667	32.43
337.88	59.05
338.092	11.95
338.305	28.33
338.517	-43.35
338.729	95.91
338.942	46.76
339.154	-12.63
339.367	-20.82
339.579	20.14
339.792	-51.54
340.004	87.72
340.217	16.04
340.429	63.15
340.641	-57.68
340.854	91.82
341.066	48.81
341.278	40.62
341.491	16.04
341.703	32.43
341.915	7.85
342.128	-33.11
342.34	42.67
342.552	46.76
342.764	-4.44
342.977	-10.58
343.189	126.63
343.401	-0.34
343.613	-16.73
343.826	106.15
344.038	-26.96
344.25	30.38
344.462	112.3
344.674	40.62
344.886	34.47
345.099	71.34
345.311	44.71
345.523	11.95
345.735	-6.49
345.947	52.91
346.159	-18.77
346.371	-69.97
346.583	50.86
346.795	59.05
347.007	20.14
347.219	26.28
347.431	-35.16
347.643	46.76
347.855	-0.34
348.067	54.95
348.279	-35.16
348.491	89.77
348.703	-41.3
348.915	63.15
349.127	63.15
349.339	104.11
349.551	108.2
349.763	26.28
349.975	79.53
350.187	67.24
350.399	24.23
350.61	11.95
350.822	-6.49
351.034	24.23
351.246	46.76
351.458	132.78
351.669	1.71
351.881	52.91
352.093	-2.39
352.305	42.67
352.517	22.19
352.728	52.91
352.94	-2.39
353.152	34.47
353.363	28.33
353.575	34.47
353.787	26.28
353.999	32.43
354.21	28.33
354.422	40.62
354.633	75.43
354.845	67.24
355.057	44.71
355.268	-35.16
355.48	36.52
355.692	40.62
355.903	7.85
356.115	34.47
356.326	9.9
356.538	89.77
356.749	63.15
356.961	63.15
357.172	59.05
357.384	61.1
357.595	95.91
357.807	116.39
358.018	-31.06
358.23	32.43
358.441	65.19
358.653	79.53
358.864	81.58
359.075	-6.49
359.287	26.28
359.498	89.77
359.709	40.62
359.921	24.23
360.132	-2.39
360.344	-12.63
360.555	13.99
360.766	13.99
360.977	11.95
361.189	-8.53
361.4	-10.58
361.611	32.43
361.823	48.81
362.034	-10.58
362.245	71.34
362.456	104.11
362.667	13.99
362.879	81.58
363.09	-16.73
363.301	106.15
363.512	32.43
363.723	5.8
363.935	128.68
364.146	-6.49
364.357	73.39
364.568	104.11
364.779	-22.87
364.99	44.71
365.201	-0.34
365.412	11.95
365.623	22.19
365.834	3.75
366.045	5.8
366.256	26.28
366.467	40.62
366.678	67.24
366.889	-12.63
367.1	-43.35
367.311	81.58
367.522	79.53
367.733	-24.92
367.944	134.82
368.155	9.9
368.366	79.53
368.577	42.67
368.788	48.81
368.999	77.48
369.209	73.39
369.42	52.91
369.631	75.43
369.842	24.23
370.053	38.57
370.264	50.86
370.474	-2.39
370.685	85.67
370.896	-14.68
371.107	79.53
371.317	-8.53
371.528	59.05
371.739	28.33
371.95	30.38
372.16	38.57
372.371	54.95
372.582	77.48
372.792	22.19
373.003	89.77
373.214	20.14
373.424	97.96
373.635	-10.58
373.846	77.48
374.056	38.57
374.267	59.05
374.477	28.33
374.688	67.24
374.898	79.53
375.109	28.33
375.319	7.85
375.53	116.39
375.74	110.25
375.951	48.81
376.161	13.99
376.372	50.86
376.582	22.19
376.793	38.57
377.003	28.33
377.214	44.71
377.424	69.29
377.635	128.68
377.845	85.67
378.055	71.34
378.266	69.29
378.476	7.85
378.686	81.58
378.897	36.52
379.107	20.14
379.317	100.01
379.528	-4.44
379.738	81.58
379.948	-16.73
380.158	42.67
380.369	42.67
380.579	-26.96
380.789	40.62
380.999	79.53
381.21	22.19
381.42	42.67
381.63	36.52
381.84	89.77
382.05	73.39
382.261	40.62
382.471	18.09
382.681	-14.68
382.891	124.58
383.101	143.02
383.311	52.91
383.521	20.14
383.731	75.43
383.941	89.77
384.151	44.71
384.361	59.05
384.571	-8.53
384.781	57
384.991	28.33
385.201	73.39
385.411	77.48
385.621	40.62
385.831	32.43
386.041	-24.92
386.251	59.05
386.461	61.1
386.671	11.95
386.881	20.14
387.091	102.06
387.301	61.1
387.511	54.95
387.72	52.91
387.93	44.71
388.14	3.75
388.35	81.58
388.56	112.3
388.769	75.43
388.979	63.15
389.189	34.47
389.399	52.91
389.609	46.76
389.818	26.28
390.028	52.91
390.238	28.33
390.447	9.9
390.657	71.34
390.867	140.97
391.076	73.39
391.286	20.14
391.496	71.34
391.705	118.44
391.915	40.62
392.125	93.87
392.334	-12.63
392.544	91.82
392.753	79.53
392.963	26.28
393.172	59.05
393.382	26.28
393.591	93.87
393.801	38.57
394.01	138.92
394.22	75.43
394.429	44.71
394.639	28.33
394.848	116.39
395.058	155.3
395.267	93.87
395.477	46.76
395.686	118.44
395.895	157.35
396.105	169.64
396.314	97.96
396.524	71.34
396.733	134.82
396.942	93.87
397.152	132.78
397.361	118.44
397.57	87.72
397.78	87.72
397.989	85.67
398.198	126.63
398.407	192.17
398.617	95.91
398.826	120.49
399.035	95.91
399.244	89.77
399.453	116.39
399.663	149.16
399.872	85.67
400.081	61.1
400.29	91.82
400.499	91.82
400.708	161.45
400.917	81.58
401.127	120.49
401.336	128.68
401.545	210.6
401.754	173.74
401.963	151.21
402.172	118.44
402.381	179.88
402.59	114.34
402.799	163.5
403.008	216.74
403.217	149.16
403.426	136.87
403.635	145.06
403.844	173.74
404.053	151.21
404.262	167.59
404.471	183.98
404.68	190.12
404.888	163.5
405.097	128.68
405.306	208.55
405.515	280.23
405.724	132.78
405.933	231.08
406.142	210.6
406.35	239.27
406.559	280.23
406.768	214.7
406.977	204.46
407.185	267.94
407.394	247.46
407.603	196.26
407.812	216.74
408.02	280.23
408.229	239.27
408.438	321.19
408.646	321.19
408.855	282.28
409.064	331.43
409.272	351.91
409.481	313
409.69	368.29
409.898	286.37
410.107	399.01
410.315	503.46
410.524	419.49
410.733	437.92
410.941	444.07
411.15	442.02
411.358	444.07
411.567	509.6
411.775	513.7
411.984	558.75
412.192	593.57
412.401	536.23
412.609	548.51
412.818	749.22
413.026	579.23
413.234	667.3
413.443	763.55
413.651	722.59
413.86	710.3
414.068	878.24
414.276	824.99
414.485	800.41
414.693	884.38
414.901	814.75
415.11	915.1
415.318	970.4
415.526	931.48
415.734	1009.31
415.943	1027.74
416.151	1083.03
416.359	1040.03
416.567	1101.47
416.776	1066.65
416.984	1283.74
417.192	1339.03
417.4	1275.54
417.608	1306.26
417.817	1371.8
418.025	1429.14
418.233	1494.68
418.441	1441.43
418.649	1629.84
418.857	1681.04
419.065	1742.48
419.273	1678.99
419.481	1805.97
419.689	1875.6
419.897	2025.1
420.105	1998.48
420.313	2068.11
420.521	2147.98
420.729	2061.96
420.937	2270.86
421.145	2350.73
421.353	2524.8
421.561	2633.35
421.769	2559.62
421.977	2838.14
422.185	2696.83
422.393	2942.59
422.601	3120.76
422.809	2930.3
423.017	3051.13
423.224	3288.7
423.432	3300.98
423.64	3448.44
423.848	3505.78
424.056	3479.16
424.263	3819.12
424.471	3733.11
424.679	3948.14
424.887	4060.78
425.094	4185.71
425.302	4195.95
425.51	4421.22
425.718	4630.12
425.925	4537.96
426.133	4798.05
426.341	4976.22
426.548	5099.1
426.756	5217.88
426.964	5346.91
427.171	5545.56
427.379	5768.79
427.586	5920.34
427.794	5975.63
428.001	6276.68
428.209	6637.13
428.417	6426.18
428.624	6977.09
428.832	7095.87
429.039	7024.19
429.247	6872.64
429.454	7538.23
429.662	8058.42
429.869	7571
430.076	8074.8
430.284	7845.43
430.491	8304.17
430.699	8496.68
430.906	8621.61
431.114	8824.36
431.321	8955.43
431.528	9195.04
431.736	9895.44
431.943	10434.06
432.15	10024.47
432.358	9989.65
432.565	10526.22
432.772	10536.46
432.979	11341.31
433.187	11181.57
433.394	11539.96
433.601	12258.8
433.808	12254.7
434.016	11902.45
434.223	12463.6
434.43	13356.51
434.637	13106.66
434.844	13964.76
435.052	14298.58
435.259	14151.12
435.466	14450.13
435.673	14134.74
435.88	15123.91
436.087	15801.79
436.294	15963.58
436.501	15443.39
436.708	15844.79
436.915	16123.32
437.122	17145.25
437.329	16981.42
437.537	17511.84
437.743	17917.34
437.95	17737.12
438.157	18515.34
438.364	19285.38
438.571	19172.74
438.778	19258.76
438.985	21030.25
439.192	20393.33
439.399	20835.69
439.606	20583.79
439.813	21435.75
440.02	23006.54
440.227	22654.29
440.433	21939.55
440.64	22811.98
440.847	22949.2
441.054	23520.58
441.261	24841.52
441.467	24560.95
441.674	25058.6
441.881	26041.63
442.088	26004.77
442.294	25847.07
442.501	26641.68
442.708	27264.27
442.914	28083.45
443.121	28970.22
443.328	27995.39
443.534	30299.36
443.741	29576.42
443.948	29396.2
444.154	30934.23
444.361	31014.1
444.568	31313.1
444.774	31124.69
444.981	31700.17
445.187	32341.18
445.394	33713.32
445.6	33307.82
445.807	36617.34
446.013	35333.26
446.22	35832.97
446.426	37309.55
446.633	37315.7
446.839	38614.11
447.046	37395.57
447.252	39486.54
447.459	39285.84
447.665	39351.38
447.871	41018.42
448.078	42724.38
448.284	40707.13
448.491	41751.6
448.697	43428.88
448.903	43981.84
449.11	44196.87
449.316	43471.89
449.522	43994.12
449.728	45181.95
449.935	46121.96
450.141	45962.22
450.347	46496.74
450.553	45194.23
450.76	46230.51
450.966	47213.53
451.172	46801.89
451.378	48167.88
451.584	47234.01
451.791	48344.01
451.997	48022.48
452.203	48696.26
452.409	48878.53
452.615	48620.48
452.821	47164.38
453.027	46509.03
453.233	48903.1
453.44	47350.74
453.646	47819.73
453.852	47764.43
454.058	48483.27
454.264	47123.42
454.47	48077.77
454.676	47039.45
454.882	48827.33
455.088	44651.52
455.294	45200.38
455.5	45917.17
455.705	46124.01
455.911	44567.55
456.117	43676.69
456.323	43226.14
456.529	41020.47
456.735	42734.62
456.941	41395.25
457.147	40795.2
457.352	39720.01
457.558	39291.99
457.764	39832.65
457.97	38773.85
458.176	37858.41
458.381	37645.42
458.587	35873.93
458.793	35904.65
458.999	34172.07
459.204	36658.3
459.41	35597.45
459.616	33023.15
459.821	33346.73
460.027	32947.38
460.233	32087.23
460.438	30868.69
460.644	31118.54
460.85	29717.73
461.055	29361.39
461.261	29342.95
461.466	26993.93
461.672	26037.53
461.878	28091.65
462.083	25840.93
462.289	25744.67
462.494	25484.58
462.7	24495.41
462.905	23770.43
463.111	24665.39
463.316	24538.42
463.522	24048.96
463.727	24249.66
463.932	24124.73
464.138	23747.9
464.343	23754.05
464.549	22943.05
464.754	23776.58
464.959	23551.3
465.165	23520.58
465.37	22498.64
465.575	22046.04
465.781	23096.65
465.986	22943.05
466.191	22291.8
466.397	21869.92
466.602	20768.11
466.807	21466.47
467.012	21632.35
467.218	21282.15
467.423	21486.95
467.628	21261.67
467.833	22121.82
468.038	21333.35
468.244	20557.17
468.449	21550.43
468.654	20612.46
468.859	20634.99
469.064	20426.1
469.269	19615.1
469.474	19950.97
469.679	20354.42
469.885	19582.34
470.09	20104.57
470.295	20018.55
470.5	19414.4
470.705	19656.06
470.91	19180.93
471.115	18853.26
471.32	19412.35
471.525	18961.8
471.73	18572.69
471.935	18587.02
472.139	17946.01
472.344	18226.58
472.549	17933.72
472.754	17743.26
472.959	17188.26
473.164	17028.52
473.369	16731.56
473.574	17253.8
473.778	17128.87
473.983	17124.77
474.188	17034.66
474.393	16229.81
474.598	16371.12
474.802	16190.9
475.007	16014.77
475.212	16166.32
475.417	15697.34
475.621	15533.5
475.826	15570.37
476.031	15136.2
476.235	15052.23
476.44	15021.51
476.645	14986.69
476.849	14575.05
477.054	14845.38
477.259	14421.45
477.463	14341.58
477.668	14104.02
477.872	14415.31
478.077	14009.81
478.282	13436.38
478.486	13700.57
478.691	13448.67
478.895	13577.69
479.1	13602.27
479.304	13276.64
479.509	12983.78
479.713	13370.85
479.918	12852.71
480.122	12774.89
480.326	13065.7
480.531	13235.68
480.735	12713.45
480.94	12758.5
481.144	13004.26
481.348	12428.78
481.553	12654.06
481.757	12414.45
481.961	12592.62
482.166	12586.47
482.37	12649.96
482.574	12199.41
482.778	12283.38
482.983	12723.69
483.187	12647.91
483.391	12506.6
483.595	12430.83
483.8	12146.16
484.004	12400.11
484.208	12613.1
484.412	12508.65
484.616	12611.05
484.821	12518.89
485.025	12156.4
485.229	12479.98
485.433	12279.28
485.637	12359.15
485.841	12180.98
486.045	12283.38
486.249	12336.62
486.453	12287.47
486.657	12324.33
486.861	12586.47
487.065	12127.73
487.269	12504.56
487.473	12160.5
487.677	12299.76
487.881	12355.05
488.085	12342.77
488.289	12459.5
488.493	12236.27
488.697	12379.63
488.901	12627.43
489.105	12455.4
489.309	12498.41
489.512	12400.11
489.716	12633.58
489.92	12408.3
490.124	12465.64
490.328	12695.02
490.531	12563.95
490.735	12635.63
490.939	12815.85
491.143	12647.91
491.346	12525.04
491.55	12934.63
491.754	12809.7
491.958	13100.51
492.161	12885.48
492.365	13051.36
492.569	12998.12
492.772	12768.74
492.976	13123.04
493.18	13037.03
493.383	13370.85
493.587	13485.53
493.79	13415.9
493.994	13135.33
494.197	13637.08
494.401	13688.28
494.605	13493.72
494.808	13788.63
495.012	13899.22
495.215	13911.51
495.419	14058.96
495.622	13936.09
495.825	14376.4
496.029	14372.3
496.232	14726.6
496.436	14509.52
496.639	15164.87
496.843	14812.62
497.046	14917.06
497.249	15263.17
497.453	15312.32
497.656	15429.06
497.859	15801.79
498.063	15543.74
498.266	15895.99
498.469	15914.42
498.673	16084.41
498.876	16573.87
499.079	16596.4
499.282	16457.14
499.485	16975.27
499.689	16983.46
499.892	17343.91
500.095	17272.23
500.298	17761.69
500.501	17298.85
500.705	17921.43
500.908	18038.17
501.111	18408.85
501.314	18449.81
501.517	18521.49
501.72	18994.57
501.923	18869.64
502.126	19297.67
502.329	19713.41
502.532	19764.61
502.735	20127.1
502.938	20344.18
503.141	20364.66
503.344	20374.9
503.547	20645.23
503.75	21032.3
503.953	21499.23
504.156	21398.88
504.359	21906.78
504.562	21747.04
504.765	22080.86
504.968	22369.62
505.17	22848.85
505.373	22754.64
505.576	23092.55
505.779	23485.76
505.982	23698.75
506.185	23977.28
506.387	24028.48
506.59	24116.54
506.793	24823.09
506.996	24769.84
507.198	25343.27
507.401	25353.51
507.604	25605.41
507.807	26260.76
508.009	26176.8
508.212	26844.43
508.415	26840.34
508.617	26928.4
508.82	27327.75
509.022	27282.7
509.225	27970.82
509.428	27999.49
509.63	28224.76
509.833	28228.86
510.035	29396.2
510.238	29066.48
510.44	29519.08
510.643	29902.05
510.845	29920.48
511.048	30037.22
511.25	30389.47
511.453	30594.26
511.655	32140.48
511.858	31470.79
512.06	31913.16
512.262	32050.37
512.465	32009.41
512.667	32666.81
512.87	33127.6
513.072	33078.45
513.274	33672.36
513.477	34018.47
513.679	34413.73
513.881	34512.03
514.084	34884.76
514.286	35034.26
514.488	35509.39
514.69	36547.71
514.893	36146.31
515.095	36351.1
515.297	37063.8
515.499	37352.56
515.701	37641.32
515.904	38067.3
516.106	38419.55
516.308	38229.09
516.51	38880.35
516.712	39353.43
516.914	39441.49
517.116	40305.73
517.318	39720.01
517.52	40569.92
517.722	40676.41
517.925	41462.83
518.127	41444.4
518.329	41993.26
518.531	41577.52
518.733	42468.39
518.935	43041.82
519.136	42740.77
519.338	43430.93
519.54	43523.09
519.742	44104.71
519.944	44180.49
520.146	45075.45
520.348	45040.64
520.55	45421.56
520.752	45634.55
520.954	46236.65
521.155	45900.78
521.357	46525.41
521.559	47231.96
521.761	47385.56
521.963	47598.55
522.164	48186.32
522.366	48106.44
522.568	48647.11
522.77	48757.7
522.971	49433.53
523.173	49320.89
523.375	49546.17
523.576	49572.79
523.778	49810.35
523.98	50852.77
524.181	50748.32
524.383	50498.47
524.584	51073.95
524.786	51135.39
524.988	51372.95
525.189	51784.6
525.391	51858.32
525.592	52206.48
525.794	52880.26
525.995	51991.44
526.197	52786.05
526.398	52874.12
526.6	53037.95
526.801	53287.81
527.003	53201.79
527.204	53484.41
527.406	53797.75
527.607	53721.97
527.808	54031.22
528.01	53441.4
528.211	53967.73
528.412	55047.01
528.614	54719.34
528.815	54932.32
529.016	55255.9
529.218	54512.49
529.419	55108.45
529.62	54516.59
529.822	55044.96
530.023	55186.27
530.224	55184.22
530.425	55520.09
530.626	55135.07
530.828	55116.64
531.029	56107.86
531.23	55186.27
531.431	55581.53
531.632	55761.75
531.833	55626.59
532.035	55761.75
532.236	55794.52
532.437	56335.18
532.638	55337.82
532.839	56187.73
533.04	55884.63
533.241	55481.18
533.442	56740.68
533.643	56060.76
533.844	56265.55
534.045	56050.52
534.246	55331.68
534.447	56406.86
534.648	55831.38
534.849	55878.49
535.05	55978.84
535.251	55993.17
535.451	55948.12
535.652	55991.12
535.853	55997.27
536.054	56193.87
536.255	56081.23
536.456	55759.7
536.657	56564.56
536.857	56027.99
537.058	55554.91
537.259	56390.48
537.46	55999.32
537.66	55485.28
537.861	56392.53
538.062	55788.38
538.263	55835.48
538.463	55645.02
538.664	55972.69
538.865	55989.08
539.065	56118.1
539.266	55446.36
539.466	55845.72
539.667	54991.72
539.868	55911.25
540.068	55284.58
540.269	55466.84
540.469	55700.31
540.67	55163.74
540.87	55448.41
541.071	55698.26
541.271	55782.23
541.472	55442.27
541.672	55020.39
541.873	55331.68
542.073	54836.07
542.274	55974.74
542.474	54834.02
542.675	55059.3
542.875	55776.09
543.075	55366.49
543.276	54958.95
543.476	55462.75
543.676	54969.19
543.877	55446.36
544.077	55188.32
544.277	54842.21
544.478	54643.56
544.678	55370.59
544.878	55290.72
545.078	55163.74
545.279	54571.88
545.479	54725.48
545.679	54823.78
545.879	54739.82
546.079	54807.4
546.28	54961
546.48	54143.86
546.68	54915.94
546.88	55182.18
547.08	55151.46
547.28	54354.8
547.48	54401.9
547.68	54688.62
547.88	54164.34
548.081	55047.01
548.281	54948.71
548.481	54254.45
548.681	54926.18
548.881	54502.25
549.081	54922.08
549.28	54106.99
549.48	54838.12
549.68	54684.52
549.88	54983.52
550.08	54082.42
550.28	54774.63
550.48	54254.45
550.68	55028.58
550.88	54342.51
551.08	54547.31
551.279	54586.22
551.479	54008.69
551.679	54610.79
551.879	54125.42
552.079	54358.89
552.278	54119.28
552.478	54297.45
552.678	54369.13
552.878	54661.99
553.077	54250.35
553.277	53529.47
553.477	54465.39
553.676	53812.09
553.876	54152.05
554.076	54131.57
554.275	53840.76
554.475	53795.7
554.674	54102.9
554.874	54203.25
555.074	53347.2
555.273	54012.79
555.473	53988.21
555.672	53586.81
555.872	54199.15
556.071	53928.82
556.271	54152.05
556.47	53648.25
556.67	53480.31
556.869	53586.81
557.068	54055.79
557.268	53336.96
557.467	53531.51
557.667	53498.75
557.866	53224.32
558.065	53324.67
558.265	52704.13
558.464	52956.03
558.663	53273.47
558.863	52677.51
559.062	54113.14
559.261	53068.67
559.461	53250.94
559.66	52390.8
559.859	53046.15
560.058	52085.65
560.258	52902.79
560.457	52546.44
560.656	53099.39
560.855	52286.35
561.054	52872.07
561.253	52257.68
561.453	52679.56
561.652	52427.66
561.851	52530.06
562.05	52069.26
562.249	52204.43
562.448	52284.3
562.647	52018.06
562.846	51940.24
563.045	51927.95
563.244	51446.68
563.443	52249.49
563.642	51209.12
563.841	51592.09
564.04	51110.81
564.239	51516.31
564.438	51110.81
564.637	51313.56
564.836	51385.24
565.035	50555.82
565.234	51051.42
565.432	50705.32
565.631	50858.91
565.83	50903.97
566.029	50535.34
566.228	50023.34
566.427	50508.71
566.625	50334.63
566.824	49427.38
567.023	50402.22
567.222	49234.88
567.42	50193.32
567.619	49503.16
567.818	49757.11
568.016	49279.93
568.215	49738.68
568.414	49421.24
568.612	49796.02
568.811	49304.51
569.01	49431.48
569.208	48606.15
569.407	48878.53
569.605	48581.57
569.804	48815.04
570.002	48561.09
570.201	48878.53
570.4	48225.23
570.598	47659.99
570.797	47819.73
570.995	47948.75
571.193	47510.49
571.392	47885.26
571.59	47702.99
571.789	47238.11
571.987	47336.41
572.186	47522.77
572.384	47590.36
572.582	47553.49
572.781	47457.24
572.979	46447.59
573.177	46855.14
573.376	47160.28
573.574	46441.45
573.772	46640.1
573.971	46130.15
574.169	46461.93
574.367	45532.15
574.565	46287.85
574.763	45497.33
574.962	45966.32
575.16	45276.15
575.358	45853.68
575.556	44772.35
575.754	45734.9
575.952	44827.65
576.151	45491.19
576.349	44672
576.547	44796.93
576.745	44606.47
576.943	44839.93
577.141	44168.2
577.339	44430.34
577.537	44452.87
577.735	44235.78
577.933	43781.13
578.131	43969.55
578.329	43611.15
578.527	43224.09
578.725	43510.8
578.923	43375.64
579.121	43461.65
579.319	43318.29
579.516	43211.8
579.714	43054.11
579.912	42621.98
580.11	43254.81
580.308	42298.41
580.506	42304.55
580.704	42226.73
580.901	42687.52
581.099	42419.24
581.297	42064.94
581.495	41952.3
581.692	41966.63
581.89	41716.78
582.088	41817.13
582.285	41753.65
582.483	42331.17
582.681	41800.75
582.878	41188.41
583.076	40856.64
583.274	41294.9
583.471	40633.41
583.669	40922.17
583.866	40346.69
584.064	41008.18
584.262	40488
584.459	40500.29
584.657	40305.73
584.854	40590.4
585.052	39685.2
585.249	39947.34
585.447	40166.47
585.644	39212.12
585.841	39588.94
586.039	39906.38
586.236	39498.83
586.434	39441.49
586.631	39185.49
586.828	39375.95
587.026	39214.16
587.223	38534.24
587.42	38356.07
587.618	38845.53
587.815	38155.36
588.012	38329.44
588.21	38351.97
588.407	38354.02
588.604	38263.91
588.801	37717.1
588.999	37643.37
589.196	37579.89
589.393	37620.84
589.59	37598.32
589.787	37440.62
589.984	37221.49
590.182	36899.96
590.379	37502.06
590.576	37076.08
590.773	37192.82
590.97	36813.94
591.167	36772.99
591.364	36459.65
591.561	36314.24
591.758	36011.14
591.955	36136.07
592.152	36207.75
592.349	35898.5
592.546	36027.52
592.743	36056.2
592.94	35515.53
593.137	35863.69
593.334	35527.82
593.531	35411.09
593.727	35638.41
593.924	35933.32
594.121	34935.96
594.318	35343.5
594.515	34864.28
594.712	34987.16
594.908	34460.83
595.105	34753.69
595.302	34391.2
595.499	34901.14
595.696	34401.44
595.892	34376.86
596.089	34352.29
596.286	34307.23
596.482	34108.58
596.679	34235.55
596.876	33928.36
597.072	33492.14
597.269	33420.46
597.466	33262.77
597.662	33000.63
597.859	33637.55
598.055	33209.52
598.252	32887.99
598.448	33182.9
598.645	32949.43
598.841	32652.47
599.038	32711.86
599.234	32875.7
599.431	32558.27
599.627	32410.81
599.824	32677.05
600.02	32351.42
600.217	32181.44
600.413	32230.59
600.609	32036.03
600.806	31925.44
601.002	31653.06
601.198	31823.05
601.395	31689.93
601.591	31321.29
601.787	31757.51
601.984	31214.8
602.18	31356.11
602.376	31001.81
602.572	30823.64
602.769	31227.09
602.965	30534.87
603.161	30966.99
603.357	30821.59
603.553	30741.72
603.75	30809.3
603.946	30072.03
604.142	30551.26
604.338	29783.27
604.534	30182.62
604.73	29916.39
604.926	29930.72
605.122	30153.95
605.318	29498.6
605.514	29467.88
605.71	29816.04
605.906	29732.07
606.102	29568.23
606.298	29271.28
606.494	29230.32
606.69	29060.34
606.886	29478.12
607.082	28962.03
607.278	29175.02
607.474	28652.79
607.67	29175.02
607.866	28572.92
608.062	29064.43
608.257	28640.5
608.453	28550.39
608.649	28675.32
608.845	28456.18
609.041	28349.69
609.236	28335.35
609.432	28464.38
609.628	28329.21
609.824	28005.63
610.019	27880.71
610.215	27890.95
610.411	28011.78
610.606	27876.61
610.802	27766.02
610.998	27806.98
611.193	27696.39
611.389	27475.21
611.584	27553.03
611.78	27503.88
611.976	27526.41
612.171	27448.58
612.367	27415.82
612.562	27467.02
612.758	26989.84
612.953	27141.39
613.149	27186.44
613.344	26836.24
613.539	27262.22
613.735	27002.13
613.93	27112.72
614.126	26457.37
614.321	26823.95
614.517	26780.95
614.712	26699.03
614.907	26604.82
615.103	26930.45
615.298	26453.27
615.493	26586.39
615.688	25988.38
615.884	26692.88
616.079	26012.96
616.274	26451.22
616.47	26066.2
616.665	25916.7
616.86	26141.98
617.055	26076.44
617.25	25957.66
617.445	26098.97
617.641	25515.3
617.836	25898.27
618.031	25300.26
618.226	25709.86
618.421	25539.88
618.616	25599.27
618.811	25120.04
619.006	25369.9
619.201	24884.53
619.396	25226.54
619.591	24821.04
619.786	25107.76
619.981	24614.2
620.176	24849.71
620.371	24180.03
620.566	24370.49
620.761	24134.97
620.956	24341.82
621.151	23797.06
621.346	23932.22
621.541	23522.63
621.735	23788.86
621.93	23465.28
622.125	23645.51
622.32	23110.99
622.515	23549.25
622.709	22963.53
622.904	23254.34
623.099	22959.44
623.294	22814.03
623.488	22701.39
623.683	22605.14
623.878	22119.77
624.072	22523.22
624.267	22379.86
624.462	21980.51
624.656	21476.71
624.851	22050.14
625.046	21753.18
625.24	21771.61
625.435	21106.02
625.629	21464.42
625.824	21235.05
626.018	21312.87
626.213	20825.45
626.407	20987.24
626.602	20577.65
626.796	20727.15
626.991	20649.33
627.185	20350.32
627.38	20479.35
627.574	19973.5
627.768	20053.37
627.963	20094.33
628.157	20034.94
628.352	20104.57
628.546	19688.83
628.74	19961.21
628.935	19541.38
629.129	19250.56
629.323	19357.06
629.517	19295.62
629.712	19223.94
629.906	18990.47
630.1	18783.63
630.294	18969.99
630.489	18615.69
630.683	18582.93
630.877	18658.7
631.071	18513.3
631.265	18513.3
631.459	18361.75
631.653	18224.53
631.848	18087.32
632.042	17886.62
632.236	18079.13
632.43	17714.59
632.624	17419.68
632.818	17604
633.012	17735.07
633.206	17444.26
633.4	17331.62
633.594	17135.01
633.788	17069.48
633.982	17565.09
634.176	16995.75
634.369	16649.64
634.563	16987.56
634.757	16567.73
634.951	16614.83
635.145	16450.99
635.339	16397.74
635.533	16450.99
635.726	16037.3
635.92	16000.44
636.114	16078.26
636.308	16033.21
636.501	15771.07
636.695	15805.88
636.889	15562.17
637.083	15549.89
637.276	15463.87
637.47	15644.09
637.664	15132.1
637.857	15418.82
638.051	15037.89
638.244	15146.44
638.438	15273.41
638.632	14947.78
638.825	14865.86
639.019	14816.71
639.212	14581.2
639.406	14771.66
639.599	14446.03
639.793	14407.12
639.986	14300.62
640.18	14226.9
640.373	14325.2
640.567	14034.39
640.76	13977.05
640.954	13927.89
641.147	13893.08
641.34	13733.34
641.534	13780.44
641.727	13596.12
641.92	13632.99
642.114	13497.82
642.307	13628.89
642.5	13295.07
642.694	13362.65
642.887	13051.36
643.08	13071.84
643.273	13041.12
643.467	12838.37
643.66	13030.88
643.853	12848.61
644.046	12568.04
644.239	12692.97
644.432	12496.36
644.626	12342.77
644.819	12408.3
645.012	12443.12
645.205	12547.56
645.398	12074.48
645.591	12170.74
645.784	12193.26
645.977	11943.41
646.17	11939.32
646.363	11902.45
646.556	11800.05
646.749	11724.28
646.942	11791.86
647.135	11562.49
647.328	11552.25
647.521	11337.21
647.714	11451.9
647.907	11320.83
648.099	11359.74
648.292	11226.62
648.485	10970.63
648.678	11052.55
648.871	11001.35
649.064	10814.98
649.256	10892.8
649.449	10759.69
649.642	10767.88
649.835	10579.47
650.027	10608.14
650.22	10532.36
650.413	10554.89
650.605	10561.03
650.798	10356.24
650.991	10219.02
651.183	10243.6
651.376	10212.88
651.568	10046.99
651.761	10128.91
651.954	10163.73
652.146	9932.31
652.339	10100.24
652.531	9932.31
652.724	9711.13
652.916	9709.08
653.109	9815.57
653.301	9711.13
653.494	9793.05
653.686	9371.16
653.879	9704.98
654.071	9565.72
654.263	9326.11
654.456	9412.12
654.648	9289.24
654.84	9381.4
655.033	9453.08
655.225	9270.81
655.417	9135.65
655.61	8928.8
655.802	9020.96
655.994	8932.9
656.186	9279.01
656.379	8877.6
656.571	8764.96
656.763	8717.86
656.955	8756.77
657.148	8805.92
657.34	8660.52
657.532	8644.13
657.724	8597.03
657.916	8500.78
658.108	8431.15
658.3	8535.59
658.492	8468.01
658.684	8308.27
658.876	8496.68
659.068	8279.6
659.26	7968.31
659.452	8238.64
659.644	8064.56
659.836	8072.75
660.028	8136.24
660.22	7867.95
660.412	7939.63
660.604	7898.67
660.796	7740.98
660.988	7931.44
661.18	7685.69
661.372	7818.8
661.563	7855.67
661.755	7640.63
661.947	7677.49
662.139	7788.08
662.331	7675.45
662.522	7554.62
662.714	7628.34
662.906	7394.87
663.097	7323.19
663.289	7509.56
663.481	7419.45
663.673	7261.76
663.864	7296.57
664.056	7261.76
664.247	7145.02
664.439	7052.86
664.631	7147.07
664.822	6983.23
665.014	7159.36
665.205	6987.33
665.397	6944.32
665.588	6983.23
665.78	6919.75
665.971	6745.67
666.163	6749.76
666.354	6807.11
666.546	6596.17
666.737	6770.24
666.929	6532.68
667.12	6608.45
667.311	6491.72
667.503	6456.9
667.694	6499.91
667.885	6567.49
668.077	6639.17
668.268	6504.01
668.459	6364.75
668.651	6477.38
668.842	6442.57
669.033	6415.94
669.224	6393.42
669.416	6381.13
669.607	6284.87
669.798	6284.87
669.989	6239.82
670.18	6032.97
670.371	6151.76
670.563	6250.06
670.754	6118.99
670.945	5977.68
671.136	6012.49
671.327	6041.17
671.518	5879.38
671.709	5924.43
671.9	6125.13
672.091	6057.55
672.282	5992.02
672.473	5942.86
672.664	5869.14
672.855	5891.66
673.046	5789.27
673.237	5822.03
673.428	5688.92
673.619	5924.43
673.809	5647.96
674	5750.35
674.191	5772.88
674.382	5754.45
674.573	5582.42
674.764	5699.16
674.954	5615.19
675.145	5629.52
675.336	5441.11
675.527	5498.45
675.717	5473.88
675.908	5420.63
676.099	5344.86
676.289	5609.05
676.48	5484.12
676.671	5486.17
676.861	5547.61
677.052	5432.92
677.243	5324.38
677.433	5383.77
677.624	5394.01
677.814	5197.4
678.005	5520.98
678.195	5328.47
678.386	5201.5
678.576	5443.16
678.767	5246.55
678.957	5387.86
679.148	5316.19
679.338	5357.14
679.529	5203.55
679.719	5086.81
679.909	5307.99
680.1	5160.54
680.29	5205.6
680.481	5193.31
680.671	5273.18
680.861	5138.01
681.052	5054.05
681.242	5193.31
681.432	5189.21
681.622	4994.65
681.813	5277.27
682.003	5105.24
682.193	5156.44
682.383	5068.38
682.573	5099.1
682.764	5035.61
682.954	5039.71
683.144	4988.51
683.334	5066.33
683.524	4961.89
683.714	5084.77
683.904	5047.9
684.094	5095
684.284	5113.44
684.474	4961.89
684.664	4912.74
684.854	4804.19
685.044	5000.8
685.234	4961.89
685.424	4818.53
685.614	4886.11
685.804	4861.54
685.994	5047.9
686.184	4843.1
686.374	4816.48
686.564	4826.72
686.753	4709.99
686.943	4570.72
687.133	4810.34
687.323	4705.89
687.513	4691.56
687.702	4681.32
687.892	4716.13
688.082	4832.86
688.272	4877.92
688.461	4611.68
688.651	4609.64
688.841	4656.74
689.03	4593.25
689.22	4548.2
689.41	4531.81
689.599	4609.64
689.789	4785.76
689.979	4537.96
690.168	4527.72
690.358	4560.49
690.547	4490.85
690.737	4535.91
690.926	4580.96
691.116	4478.57
691.305	4351.59
691.495	4380.26
691.684	4365.93
691.874	4425.32
692.063	4292.2
692.252	4320.87
692.442	4333.16
692.631	4216.43
692.82	4343.4
693.01	4300.39
693.199	4284.01
693.388	4157.04
693.578	4251.24
693.767	4281.96
693.956	4261.48
694.146	4320.87
694.335	4202.09
694.524	4263.53
694.713	4138.6
694.902	4232.81
695.092	4296.3
695.281	4134.51
695.47	4234.86
695.659	4249.19
695.848	4091.5
696.037	4109.93
696.226	4157.04
696.415	4144.75
696.604	4257.39
696.793	3989.1
696.982	4091.5
697.171	4263.53
697.36	4210.28
697.549	4023.92
697.738	4101.74
697.927	4073.07
698.116	3976.81
698.305	3829.36
698.494	4001.39
698.683	4138.6
698.872	4058.73
699.061	3890.8
699.25	3995.25
699.438	4023.92
699.627	4021.87
699.816	3958.38
700.005	3927.66
700.193	3937.9
700.382	3960.43
700.571	4034.16
700.76	4068.97
700.948	3995.25
701.137	3903.09
701.326	4032.11
701.514	3901.04
701.703	3909.23
701.892	3784.3
702.08	4001.39
702.269	3970.67
702.457	3792.5
702.646	3788.4
702.834	3882.61
703.023	3831.41
703.212	3763.83
703.4	3767.92
703.589	3765.87
703.777	3841.65
703.965	3710.58
704.154	3735.15
704.342	3903.09
704.531	3804.78
704.719	3712.63
704.907	3825.26
705.096	3690.1
705.284	3716.72
705.472	3747.44
705.661	3681.91
705.849	3876.46
706.037	3702.39
706.226	3620.47
706.414	3688.05
706.602	3696.24
706.79	3679.86
706.979	3700.34
707.167	3675.76
707.355	3610.23
707.543	3620.47
707.731	3716.72
707.919	3706.48
708.107	3649.14
708.296	3438.2
708.484	3485.3
708.672	3561.08
708.86	3731.06
709.048	3544.69
709.236	3454.58
709.424	3538.55
709.612	3409.53
709.8	3563.12
709.988	3454.58
710.176	3571.32
710.364	3399.29
710.551	3413.62
710.739	3448.44
710.927	3448.44
711.115	3376.76
711.303	3335.8
711.491	3376.76
711.679	3227.26
711.866	3315.32
712.054	3380.86
712.242	3319.42
712.43	3399.29
712.617	3298.94
712.805	3425.91
712.993	3395.19
713.181	3202.68
713.368	3272.31
713.556	3266.17
713.744	3239.55
713.931	3434.1
714.119	3292.79
714.306	3358.33
714.494	3329.66
714.682	3227.26
714.869	3262.07
715.057	3245.69
715.244	3063.42
715.432	3180.15
715.619	3155.58
715.807	3167.87
715.994	3233.4
716.182	3174.01
716.369	3303.03
716.556	3024.51
716.744	3022.46
716.931	3171.96
717.119	3196.54
717.306	3149.43
717.493	3077.76
717.681	3094.14
717.868	3047.04
718.055	3059.32
718.242	3153.53
718.43	3030.65
718.617	3024.51
718.804	3012.22
718.991	3001.98
719.179	3077.76
719.366	2860.67
719.553	3022.46
719.74	3030.65
719.927	2965.12
720.114	2922.11
720.301	2961.02
720.488	2743.94
720.676	2881.15
720.863	2899.58
721.05	2829.95
721.237	2713.22
721.424	2905.73
721.611	2809.47
721.798	2743.94
721.985	2762.37
722.172	2758.27
722.358	2821.76
722.545	2770.56
722.732	2883.2
722.919	2758.27
723.106	2766.46
723.293	2807.42
723.48	2657.92
723.667	2721.41
723.853	2795.14
724.04	2819.71
724.227	2698.88
724.414	2690.69
724.6	2678.4
724.787	2680.45
724.974	2653.83
725.161	2682.5
725.347	2680.45
725.534	2719.36
725.72	2655.87
725.907	2662.02
726.094	2725.51
726.28	2479.75
726.467	2549.38
726.653	2678.4
726.84	2602.63
727.027	2653.83
727.213	2418.31
727.4	2588.29
727.586	2530.95
727.773	2596.48
727.959	2578.05
728.145	2533
728.332	2590.34
728.518	2508.42
728.705	2690.69
728.891	2522.76
729.077	2516.61
729.264	2551.43
729.45	2487.94
729.636	2533
729.823	2432.65
730.009	2479.75
730.195	2541.19
730.382	2504.32
730.568	2446.98
730.754	2393.73
730.94	2512.52
731.126	2432.65
731.313	2461.32
731.499	2414.21
731.685	2389.64
731.871	2340.49
732.057	2455.17
732.243	2328.2
732.429	2408.07
732.615	2487.94
732.801	2264.71
732.987	2356.87
733.173	2322.06
733.359	2406.02
733.545	2342.53
733.731	2236.04
733.917	2311.82
734.103	2307.72
734.289	2260.62
734.475	2313.86
734.661	2338.44
734.847	2244.23
735.033	2305.67
735.219	2274.95
735.404	2336.39
735.59	2328.2
735.776	2301.58
735.962	2203.27
736.148	2299.53
736.333	2326.15
736.519	2246.28
736.705	2252.42
736.89	2227.85
737.076	2197.13
737.262	2279.05
737.447	2053.77
737.633	2117.26
737.819	2262.66
738.004	2188.94
738.19	2176.65
738.375	2100.87
738.561	2139.79
738.747	2166.41
738.932	2066.06
739.118	2164.36
739.303	2098.83
739.489	2195.08
739.674	2072.2
739.859	2025.1
740.045	2141.83
740.23	2043.53
740.416	2150.03
740.601	2092.68
740.786	1957.52
740.972	2086.54
741.157	1924.75
741.342	1955.47
741.528	1971.85
741.713	2078.35
741.898	1930.89
742.084	2068.11
742.269	1924.75
742.454	1967.76
742.639	1984.14
742.824	1980.04
743.01	1980.04
743.195	1906.32
743.38	1914.51
743.565	1879.69
743.75	1867.41
743.935	2002.57
744.12	1883.79
744.305	1875.6
744.49	1853.07
744.675	1828.49
744.86	1891.98
745.045	1844.88
745.23	1816.21
745.415	1734.29
745.6	1787.54
745.785	1801.87
745.97	1801.87
746.155	1799.82
746.34	1689.23
746.525	1676.95
746.71	1695.38
746.895	1713.81
747.079	1681.04
747.264	1627.79
747.449	1791.63
747.634	1867.41
747.819	1681.04
748.003	1681.04
748.188	1685.14
748.373	1623.7
748.557	1701.52
748.742	1541.78
748.927	1648.27
749.111	1699.47
749.296	1517.2
749.481	1552.02
749.665	1562.26
749.85	1537.68
750.034	1664.66
750.219	1410.71
750.404	1525.4
750.588	1463.96
750.773	1533.59
750.957	1478.29
751.141	1425.04
751.326	1408.66
751.51	1515.16
751.695	1435.28
751.879	1437.33
752.064	1488.53
752.248	1482.39
752.432	1445.52
752.617	1382.04
752.801	1429.14
752.985	1353.37
753.17	1433.24
753.354	1377.94
753.538	1357.46
753.722	1296.02
753.907	1296.02
754.091	1236.63
754.275	1314.45
754.459	1226.39
754.643	1287.83
754.828	1336.98
755.012	1167
755.196	1336.98
755.38	1269.4
755.564	1222.3
755.748	1273.5
755.932	1261.21
756.116	1220.25
756.3	1093.27
756.484	1228.44
756.668	1267.35
756.852	1128.09
757.036	1123.99
757.22	1130.14
757.404	1119.9
757.588	1156.76
757.772	1248.92
757.956	1111.71
758.14	1183.38
758.323	1121.95
758.507	1044.12
758.691	1126.04
758.875	1103.51
759.059	1103.51
759.242	1023.64
759.426	1074.84
759.61	1144.47
759.794	1085.08
759.977	1050.27
760.161	1054.36
760.345	1093.27
760.528	1035.93
760.712	1054.36
760.895	1044.12
761.079	1007.26
761.263	1052.31
761.446	990.88
761.63	1015.45
761.813	947.87
761.997	1044.12
762.18	1023.64
762.364	1019.55
762.547	964.25
762.731	927.39
762.914	958.11
763.098	958.11
763.281	997.02
763.464	921.24
763.648	888.48
763.831	915.1
764.015	941.72
764.198	863.9
764.381	904.86
764.564	960.16
764.748	927.39
764.931	861.85
765.114	884.38
765.297	994.97
765.481	853.66
765.664	876.19
765.847	863.9
766.03	904.86
766.213	878.24
766.397	931.48
766.58	835.23
766.763	808.61
766.946	863.9
767.129	870.05
767.312	876.19
767.495	827.04
767.678	872.09
767.861	757.41
768.044	716.45
768.227	810.65
768.41	859.81
768.593	781.98
768.776	798.37
768.959	847.52
769.142	824.99
769.324	788.13
769.507	736.93
769.69	771.74
769.873	751.26
770.056	894.62
770.239	724.64
770.421	730.78
770.604	794.27
770.787	769.69
770.97	781.98
771.152	763.55
771.335	847.52
771.518	724.64
771.7	814.75
771.883	736.93
772.066	710.3
772.248	730.78
772.431	784.03
772.613	806.56
772.796	779.93
772.978	800.41
773.161	657.06
773.343	722.59
773.526	710.3
773.708	650.91
773.891	650.91
774.073	702.11
774.256	712.35
774.438	751.26
774.621	601.76
774.803	685.73
774.985	636.58
775.168	595.62
775.35	657.06
775.532	693.92
775.715	673.44
775.897	751.26
776.079	636.58
776.261	642.72
776.444	614.05
776.626	632.48
776.808	585.38
776.99	560.8
777.173	587.43
777.355	568.99
777.537	632.48
777.719	495.27
777.901	558.75
778.083	626.34
778.265	593.57
778.447	548.51
778.629	595.62
778.811	612
778.993	659.1
779.175	589.47
779.357	550.56
779.539	523.94
779.721	554.66
779.903	566.95
780.085	679.58
780.267	605.86
780.449	460.45
780.631	579.23
780.812	511.65
780.994	585.38
781.176	444.07
781.358	564.9
781.54	489.12
781.721	566.95
781.903	536.23
782.085	534.18
782.267	530.08
782.448	478.88
782.63	423.59
782.812	491.17
782.993	468.64
783.175	431.78
783.357	507.55
783.538	466.6
783.72	433.83
783.901	454.31
784.083	401.06
784.264	413.35
784.446	431.78
784.627	401.06
784.809	399.01
784.99	444.07
785.172	515.75
785.353	460.45
785.535	407.2
785.716	388.77
785.897	370.34
786.079	388.77
786.26	401.06
786.441	448.16
786.623	280.23
786.804	382.63
786.985	425.64
787.167	399.01
787.348	399.01
787.529	386.72
787.71	399.01
787.891	390.82
788.073	327.33
788.254	333.48
788.435	353.96
788.616	405.16
788.797	413.35
788.978	380.58
789.159	315.05
789.34	409.25
789.522	329.38
789.703	405.16
789.884	415.4
790.065	323.24
790.246	302.76
790.427	282.28
790.607	292.52
790.788	399.01
790.969	313
791.15	319.14
791.331	356.01
791.512	306.85
791.693	323.24
791.874	321.19
792.054	337.57
792.235	292.52
792.416	257.7
792.597	272.04
792.778	315.05
792.958	315.05
793.139	302.76
793.32	296.61
793.5	290.47
793.681	310.95
793.862	335.53
794.042	288.42
794.223	214.7
794.404	329.38
794.584	206.5
794.765	280.23
794.945	308.9
795.126	222.89
795.306	186.02
795.487	319.14
795.667	353.96
795.848	214.7
796.028	286.37
796.209	249.51
796.389	253.61
796.57	245.41
796.75	304.81
796.93	280.23
797.111	313
797.291	267.94
797.471	282.28
797.652	214.7
797.832	229.03
798.012	226.98
798.192	118.44
798.373	229.03
798.553	237.22
798.733	204.46
798.913	206.5
799.093	265.89
799.274	237.22
799.454	220.84
799.634	300.71
799.814	259.75
799.994	216.74
800.174	278.18
800.354	259.75
800.534	218.79
800.714	104.11
800.894	222.89
801.074	233.13
801.254	235.18
801.434	269.99
801.614	159.4
801.794	253.61
801.974	630.43
802.154	216.74
802.334	237.22
802.514	175.78
802.693	165.54
802.873	214.7
803.053	112.3
803.233	229.03
803.413	214.7
803.592	169.64
803.772	87.72
803.952	212.65
804.131	138.92
804.311	194.22
804.491	210.6
804.67	204.46
804.85	167.59
805.03	161.45
805.209	200.36
805.389	159.4
805.568	206.5
805.748	220.84
805.928	159.4
806.107	247.46
806.287	108.2
806.466	85.67
806.646	190.12
806.825	202.41
807.004	128.68
807.184	212.65
807.363	138.92
807.543	173.74
807.722	120.49
807.901	179.88
808.081	183.98
808.26	183.98
808.439	134.82
808.619	100.01
808.798	183.98
808.977	171.69
809.156	194.22
809.336	177.83
809.515	93.87
809.694	173.74
809.873	224.94
810.052	83.63
810.231	181.93
810.411	167.59
810.59	138.92
810.769	145.06
810.948	110.25
811.127	116.39
811.306	165.54
811.485	122.54
811.664	161.45
811.843	118.44
812.022	130.73
812.201	118.44
812.38	134.82
812.559	179.88
812.737	237.22
812.916	132.78
813.095	40.62
813.274	100.01
813.453	159.4
813.632	81.58
813.811	157.35
813.989	147.11
814.168	102.06
814.347	120.49
814.526	153.26
814.704	124.58
814.883	163.5
815.062	206.5
815.24	147.11
815.419	128.68
815.598	102.06
815.776	54.95
815.955	177.83
816.133	100.01
816.312	134.82
816.49	128.68
816.669	114.34
816.847	161.45
817.026	214.7
817.204	91.82
817.383	63.15
817.561	108.2
817.74	95.91
817.918	91.82
818.097	112.3
818.275	83.63
818.453	112.3
818.632	165.54
818.81	167.59
818.988	30.38
819.167	104.11
819.345	116.39
819.523	106.15
819.701	75.43
819.879	145.06
820.058	87.72
820.236	165.54
820.414	130.73
820.592	124.58
820.77	134.82
820.948	69.29
821.127	34.47
821.305	100.01
821.483	118.44
821.661	95.91
821.839	20.14
822.017	30.38
822.195	48.81
822.373	77.48
822.551	95.91
822.729	40.62
822.907	75.43
823.085	108.2
823.262	87.72
823.44	57
823.618	71.34
823.796	116.39
823.974	63.15
824.152	102.06
824.329	30.38
824.507	161.45
824.685	89.77
824.863	75.43
825.04	83.63
825.218	163.5
825.396	130.73
825.574	177.83
825.751	122.54
825.929	69.29
826.107	87.72
826.284	75.43
826.462	93.87
826.639	124.58
826.817	20.14
826.994	48.81
827.172	20.14
827.349	87.72
827.527	118.44
827.704	65.19
827.882	106.15
828.059	108.2
828.237	157.35
828.414	61.1
828.591	34.47
828.769	85.67
828.946	69.29
829.124	61.1
829.301	136.87
829.478	22.19
829.655	77.48
829.833	106.15
830.01	48.81
830.187	54.95
830.364	110.25
830.542	22.19
830.719	97.96
830.896	120.49
831.073	42.67
831.25	69.29
831.427	63.15
831.604	-12.63
831.782	65.19
831.959	63.15
832.136	79.53
832.313	145.06
832.49	36.52
832.667	57
832.844	73.39
833.021	5.8
833.198	128.68
833.374	13.99
833.551	73.39
833.728	48.81
833.905	77.48
834.082	112.3
834.259	40.62
834.436	81.58
834.612	79.53
834.789	61.1
834.966	-4.44
835.143	20.14
835.319	-0.34
835.496	30.38
835.673	38.57
835.85	114.34
836.026	22.19
836.203	69.29
836.38	7.85
836.556	59.05
836.733	30.38
836.909	97.96
837.086	59.05
837.262	-22.87
837.439	79.53
837.616	52.91
837.792	40.62
837.968	-0.34
838.145	-2.39
838.321	24.23
838.498	63.15
838.674	50.86
838.851	89.77
839.027	24.23
839.203	-22.87
839.38	48.81
839.556	36.52
839.732	97.96
839.909	34.47
840.085	67.24
840.261	-4.44
840.437	24.23
840.614	11.95
840.79	71.34
840.966	-31.06
841.142	42.67
841.318	77.48
841.494	85.67
841.671	-16.73
841.847	22.19
842.023	40.62
842.199	71.34
842.375	28.33
842.551	5.8
842.727	-24.92
842.903	136.87
843.079	42.67
843.255	104.11
843.431	59.05
843.607	108.2
843.783	5.8
843.959	75.43
844.134	-12.63
844.31	65.19
844.486	69.29
844.662	18.09
844.838	9.9
845.013	3.75
845.189	9.9
845.365	61.1
845.541	81.58
845.716	44.71
845.892	13.99
846.068	28.33
846.244	28.33
846.419	44.71
846.595	22.19
846.77	34.47
846.946	32.43
847.122	38.57
847.297	50.86
847.473	3.75
847.648	-22.87
847.824	26.28
847.999	-12.63
848.175	81.58
848.35	11.95
848.526	-2.39
848.701	28.33
848.876	-2.39
849.052	7.85
849.227	75.43
849.403	5.8
849.578	73.39
849.753	-24.92
849.929	40.62
850.104	-31.06
850.279	18.09
850.454	20.14
850.63	24.23
850.805	36.52
850.98	42.67
851.155	40.62
851.33	34.47
851.505	11.95
851.681	57
851.856	7.85
852.031	73.39
852.206	54.95
852.381	3.75
852.556	1.71
852.731	7.85
852.906	5.8
853.081	48.81
853.256	112.3
853.431	1.71
853.606	-72.02
853.781	18.09
853.956	-41.3
854.131	69.29
854.305	5.8
854.48	73.39
854.655	-33.11
854.83	46.76
855.005	30.38
855.18	93.87
855.354	11.95
855.529	73.39
855.704	7.85
855.879	81.58
856.053	-24.92
856.228	42.67
856.403	-6.49
856.577	36.52
856.752	-55.64
856.926	24.23
857.101	13.99
857.276	50.86
857.45	26.28
857.625	-18.77
857.799	-4.44
857.974	-67.92
858.148	22.19
858.323	22.19
858.497	42.67
858.672	-16.73
858.846	44.71
859.02	57
859.195	-4.44
859.369	24.23
859.543	44.71
859.718	-35.16
859.892	50.86
860.066	48.81
860.241	-14.68
860.415	7.85
860.589	-43.35
860.763	-8.53
860.938	3.75
861.112	-33.11
861.286	9.9
861.46	-43.35
861.634	22.19
861.808	67.24
861.982	-45.4
862.157	-4.44
862.331	-20.82
862.505	9.9
862.679	9.9
862.853	46.76
863.027	-0.34
863.201	13.99
863.375	5.8
863.549	-69.97
863.722	-45.4
863.896	36.52
864.07	3.75
864.244	-2.39
864.418	5.8
864.592	-0.34
864.766	-82.26
864.939	-10.58
865.113	-26.96
865.287	-67.92
865.461	71.34
865.634	34.47
865.808	7.85
865.982	1.71
866.156	-43.35
866.329	-4.44
866.503	22.19
866.676	22.19
866.85	7.85
867.024	18.09
867.197	-49.49
867.371	46.76
867.544	-37.2
867.718	24.23
867.891	24.23
868.065	28.33
868.238	-2.39
868.412	59.05
868.585	22.19
868.759	-31.06
868.932	13.99
869.105	-6.49
869.279	-29.01
869.452	13.99
869.625	13.99
869.799	5.8
869.972	-35.16
870.145	11.95
870.319	22.19
870.492	9.9
870.665	9.9
870.838	34.47
871.011	5.8
871.185	-10.58
871.358	54.95
871.531	-24.92
871.704	-49.49
871.877	-8.53
872.05	3.75
872.223	-33.11
872.396	54.95
872.569	-4.44
872.742	-59.73
872.915	-33.11
873.088	-47.44
873.261	-10.58
873.434	-16.73
873.607	-49.49
873.78	42.67
873.953	-14.68
874.126	46.76
874.299	16.04
874.471	-22.87
874.644	-10.58
874.817	-14.68
874.99	61.1
875.163	-2.39
875.335	-10.58
875.508	-39.25
875.681	48.81
875.853	-16.73
876.026	16.04
876.199	61.1
876.371	-18.77
876.544	36.52
876.717	16.04
876.889	-12.63
877.062	59.05
877.234	34.47
877.407	-2.39
877.579	-72.02
877.752	114.34
877.924	18.09
878.097	-20.82
878.269	40.62
878.442	-10.58
878.614	-43.35
878.786	75.43
878.959	32.43
879.131	-22.87
879.303	-35.16
879.476	-29.01
879.648	-53.59
879.82	-14.68
879.993	-14.68
880.165	-4.44
880.337	57
880.509	32.43
880.681	44.71
880.854	-2.39
881.026	40.62
881.198	16.04
881.37	-6.49
881.542	-6.49
881.714	-43.35
881.886	36.52
882.058	-47.44
882.23	24.23
882.402	36.52
882.574	-86.36
882.746	73.39
882.918	61.1
883.09	9.9
883.262	42.67
883.434	7.85
883.606	-63.83
883.778	13.99
883.95	26.28
884.122	-2.39
884.293	-2.39
884.465	-55.64
884.637	54.95
884.809	44.71
884.98	57
885.152	50.86
885.324	30.38
885.496	-33.11
885.667	-16.73
885.839	-0.34
886.011	13.99
886.182	-8.53
886.354	79.53
886.525	-0.34
886.697	30.38
886.869	71.34
887.04	-20.82
887.212	63.15
887.383	112.3
887.555	-55.64
887.726	38.57
887.897	7.85
888.069	44.71
888.24	54.95
888.412	34.47
888.583	-92.5
888.754	-4.44
888.926	-24.92
889.097	-2.39
889.268	-57.68
889.44	50.86
889.611	9.9
889.782	20.14
889.953	-26.96
890.125	-10.58
890.296	-43.35
890.467	-29.01
890.638	-10.58
890.809	-8.53
890.98	3.75
891.151	30.38
891.323	-41.3
891.494	22.19
891.665	13.99
891.836	-29.01
892.007	-35.16
892.178	48.81
892.349	-31.06
892.52	-80.21
892.691	-29.01
892.862	54.95
893.032	-67.92
893.203	-39.25
893.374	16.04
893.545	-16.73
893.716	-63.83
893.887	11.95
894.057	-4.44
894.228	-45.4
894.399	-72.02
894.57	13.99
894.74	-74.07
894.911	-8.53
895.082	-51.54
895.253	3.75
895.423	20.14
895.594	7.85
895.764	-29.01
895.935	-24.92
896.106	-4.44
896.276	-45.4
896.447	52.91
896.617	-53.59
896.788	-49.49
896.958	13.99
897.129	-6.49
897.299	5.8
897.47	32.43
897.64	-24.92
897.81	11.95
897.981	34.47
898.151	-57.68
898.322	-26.96
898.492	7.85
898.662	32.43
898.832	-26.96
899.003	-31.06
899.173	-6.49
899.343	-22.87
899.513	-55.64
