Data from USB4F104151__96__12-37-12-410.txt Node

Date: Fri Mar 14 12:37:12 EDT 2025
User: louis
Spectrometer: USB4F10415
Trigger mode: 4
Integration Time (sec): 2.000000E-2
Scans to average: 1
Electric dark correction enabled: true
Nonlinearity correction enabled: false
Boxcar width: 0
XAxis mode: Wavelengths
Number of Pixels in Spectrum: 3648
>>>>>Begin Spectral Data<<<<<
178.204	-137.38
178.424	-137.38
178.644	-137.38
178.864	-125.1
179.084	-73.9
179.304	-47.27
179.524	-34.99
179.744	8.02
179.964	63.32
180.184	79.7
180.404	-18.6
180.624	28.5
180.844	-10.41
181.064	-14.51
181.283	32.6
181.503	-75.95
181.723	-10.41
181.943	-26.79
182.163	22.36
182.383	-20.65
182.602	-26.79
182.822	122.71
183.042	8.02
183.262	-47.27
183.482	22.36
183.701	-43.18
183.921	18.26
184.141	-86.19
184.361	-18.6
184.58	40.79
184.8	-0.17
185.02	-2.22
185.239	3.93
185.459	-39.08
185.679	42.84
185.898	-28.84
186.118	-18.6
186.338	16.21
186.557	-10.41
186.777	44.88
186.997	-26.79
187.216	-0.17
187.436	1.88
187.655	16.21
187.875	40.79
188.095	18.26
188.314	20.31
188.534	61.27
188.753	-88.23
188.973	-47.27
189.192	16.21
189.412	16.21
189.631	-32.94
189.851	55.12
190.07	67.41
190.29	14.17
190.509	34.64
190.729	-10.41
190.948	53.08
191.168	73.56
191.387	12.12
191.607	12.12
191.826	-6.31
192.045	-24.75
192.265	-92.33
192.484	-45.23
192.704	77.65
192.923	-41.13
193.142	-12.46
193.362	16.21
193.581	20.31
193.8	-20.65
194.02	-24.75
194.239	1.88
194.458	-4.27
194.678	-45.23
194.897	-4.27
195.116	-57.51
195.335	-4.27
195.555	-22.7
195.774	-14.51
195.993	26.45
196.212	3.93
196.432	-45.23
196.651	10.07
196.87	-0.17
197.089	1.88
197.308	-55.47
197.528	14.17
197.747	8.02
197.966	-22.7
198.185	-16.55
198.404	-0.17
198.623	-53.42
198.842	8.02
199.062	-41.13
199.281	40.79
199.5	16.21
199.719	8.02
199.938	46.93
200.157	-0.17
200.376	1.88
200.595	-67.75
200.814	12.12
201.033	46.93
201.252	-43.18
201.471	16.21
201.69	16.21
201.909	-32.94
202.128	-16.55
202.347	106.32
202.566	28.5
202.785	10.07
203.004	-57.51
203.223	-12.46
203.442	-8.36
203.661	-65.71
203.879	42.84
204.098	-47.27
204.317	-71.85
204.536	12.12
204.755	8.02
204.974	46.93
205.193	-61.61
205.411	67.41
205.63	-43.18
205.849	-8.36
206.068	-6.31
206.287	-0.17
206.505	-28.84
206.724	44.88
206.943	1.88
207.162	-16.55
207.381	24.4
207.599	8.02
207.818	36.69
208.037	-0.17
208.255	-51.37
208.474	-37.03
208.693	46.93
208.911	-10.41
209.13	-71.85
209.349	8.02
209.567	-20.65
209.786	51.03
210.005	8.02
210.223	-24.75
210.442	-24.75
210.661	-28.84
210.879	57.17
211.098	18.26
211.316	65.36
211.535	-69.8
211.753	-61.61
211.972	38.74
212.191	-6.31
212.409	-10.41
212.628	40.79
212.846	5.97
213.065	-10.41
213.283	-49.32
213.502	-20.65
213.72	16.21
213.938	22.36
214.157	44.88
214.375	24.4
214.594	-2.22
214.812	3.93
215.031	94.04
215.249	34.64
215.467	40.79
215.686	-28.84
215.904	42.84
216.122	-10.41
216.341	26.45
216.559	3.93
216.778	18.26
216.996	-51.37
217.214	-18.6
217.432	-82.09
217.651	10.07
217.869	-18.6
218.087	18.26
218.306	34.64
218.524	-20.65
218.742	24.4
218.96	10.07
219.179	-12.46
219.397	12.12
219.615	-0.17
219.833	-37.03
220.051	-63.66
220.27	10.07
220.488	-6.31
220.706	8.02
220.924	30.55
221.142	-49.32
221.36	-53.42
221.578	22.36
221.796	-20.65
222.015	-22.7
222.233	-4.27
222.451	-12.46
222.669	-4.27
222.887	-67.75
223.105	-43.18
223.323	38.74
223.541	-49.32
223.759	8.02
223.977	-6.31
224.195	51.03
224.413	20.31
224.631	38.74
224.849	71.51
225.067	22.36
225.285	-16.55
225.503	-67.75
225.721	-63.66
225.939	51.03
226.157	24.4
226.375	12.12
226.592	-75.95
226.81	63.32
227.028	-10.41
227.246	34.64
227.464	-28.84
227.682	30.55
227.9	36.69
228.117	83.8
228.335	-12.46
228.553	8.02
228.771	14.17
228.989	104.28
229.206	-22.7
229.424	-34.99
229.642	-24.75
229.86	-6.31
230.077	24.4
230.295	26.45
230.513	3.93
230.731	-24.75
230.948	14.17
231.166	-28.84
231.384	-8.36
231.601	8.02
231.819	-0.17
232.037	1.88
232.254	-82.09
232.472	5.97
232.689	16.21
232.907	-18.6
233.125	1.88
233.342	12.12
233.56	-6.31
233.777	8.02
233.995	30.55
234.213	63.32
234.43	36.69
234.648	1.88
234.865	-32.94
235.083	44.88
235.3	-28.84
235.518	-4.27
235.735	20.31
235.953	32.6
236.17	38.74
236.388	-8.36
236.605	-22.7
236.822	-28.84
237.04	69.46
237.257	-26.79
237.475	-20.65
237.692	-26.79
237.909	3.93
238.127	44.88
238.344	28.5
238.562	-30.89
238.779	-65.71
238.996	-10.41
239.214	14.17
239.431	40.79
239.648	12.12
239.865	-24.75
240.083	-28.84
240.3	18.26
240.517	-65.71
240.735	-2.22
240.952	26.45
241.169	73.56
241.386	34.64
241.603	-8.36
241.821	26.45
242.038	-22.7
242.255	38.74
242.472	-8.36
242.689	-20.65
242.907	44.88
243.124	-65.71
243.341	81.75
243.558	-34.99
243.775	-0.17
243.992	20.31
244.209	30.55
244.426	89.94
244.643	3.93
244.86	-12.46
245.078	-0.17
245.295	-63.66
245.512	40.79
245.729	-6.31
245.946	14.17
246.163	5.97
246.38	14.17
246.597	-45.23
246.814	-18.6
247.031	-47.27
247.248	-18.6
247.464	14.17
247.681	-43.18
247.898	12.12
248.115	96.08
248.332	-39.08
248.549	3.93
248.766	69.46
248.983	44.88
249.2	42.84
249.417	14.17
249.633	-2.22
249.85	34.64
250.067	-6.31
250.284	-61.61
250.501	59.22
250.717	44.88
250.934	-22.7
251.151	-26.79
251.368	42.84
251.585	-24.75
251.801	-18.6
252.018	1.88
252.235	-32.94
252.451	-0.17
252.668	-65.71
252.885	51.03
253.102	34.64
253.318	18.26
253.535	-37.03
253.752	24.4
253.968	59.22
254.185	42.84
254.401	48.98
254.618	-102.57
254.835	3.93
255.051	-6.31
255.268	12.12
255.484	69.46
255.701	16.21
255.917	-10.41
256.134	28.5
256.351	-8.36
256.567	-45.23
256.784	3.93
257	-32.94
257.217	22.36
257.433	14.17
257.65	24.4
257.866	-0.17
258.082	-22.7
258.299	26.45
258.515	57.17
258.732	-32.94
258.948	-2.22
259.165	-77.99
259.381	30.55
259.597	-49.32
259.814	-22.7
260.03	16.21
260.246	-34.99
260.463	32.6
260.679	-14.51
260.895	5.97
261.112	-6.31
261.328	-10.41
261.544	42.84
261.761	10.07
261.977	71.51
262.193	-12.46
262.409	10.07
262.626	73.56
262.842	16.21
263.058	-18.6
263.274	96.08
263.49	14.17
263.707	98.13
263.923	-22.7
264.139	-18.6
264.355	3.93
264.571	-18.6
264.787	-6.31
265.004	28.5
265.22	59.22
265.436	-57.51
265.652	-20.65
265.868	22.36
266.084	32.6
266.3	-28.84
266.516	22.36
266.732	24.4
266.948	10.07
267.164	5.97
267.38	-32.94
267.596	32.6
267.812	48.98
268.028	-8.36
268.244	8.02
268.46	-22.7
268.676	-49.32
268.892	28.5
269.108	14.17
269.324	122.71
269.54	-4.27
269.756	22.36
269.972	-49.32
270.188	8.02
270.403	-16.55
270.619	5.97
270.835	-8.36
271.051	8.02
271.267	36.69
271.483	-22.7
271.698	5.97
271.914	-108.71
272.13	-39.08
272.346	32.6
272.562	-14.51
272.777	38.74
272.993	-45.23
273.209	28.5
273.425	-22.7
273.64	20.31
273.856	51.03
274.072	-10.41
274.287	14.17
274.503	-4.27
274.719	34.64
274.934	20.31
275.15	40.79
275.366	24.4
275.581	-75.95
275.797	-24.75
276.012	-14.51
276.228	20.31
276.444	-2.22
276.659	40.79
276.875	12.12
277.09	-34.99
277.306	-30.89
277.521	81.75
277.737	51.03
277.952	-39.08
278.168	75.6
278.383	-0.17
278.599	-0.17
278.814	12.12
279.03	51.03
279.245	16.21
279.461	48.98
279.676	32.6
279.892	10.07
280.107	32.6
280.322	-2.22
280.538	75.6
280.753	34.64
280.969	-22.7
281.184	-24.75
281.399	48.98
281.615	26.45
281.83	-37.03
282.045	-16.55
282.26	-6.31
282.476	-45.23
282.691	20.31
282.906	18.26
283.122	-4.27
283.337	-65.71
283.552	71.51
283.767	-57.51
283.983	73.56
284.198	10.07
284.413	98.13
284.628	-41.13
284.843	57.17
285.058	46.93
285.274	-6.31
285.489	-32.94
285.704	36.69
285.919	32.6
286.134	22.36
286.349	-16.55
286.564	1.88
286.779	71.51
286.995	-98.47
287.21	-14.51
287.425	57.17
287.64	-20.65
287.855	-34.99
288.07	30.55
288.285	65.36
288.5	-12.46
288.715	-12.46
288.93	14.17
289.145	71.51
289.36	26.45
289.575	-2.22
289.79	-10.41
290.004	-14.51
290.219	87.89
290.434	-8.36
290.649	5.97
290.864	8.02
291.079	30.55
291.294	38.74
291.509	-16.55
291.724	1.88
291.938	-39.08
292.153	-2.22
292.368	3.93
292.583	63.32
292.798	30.55
293.012	48.98
293.227	14.17
293.442	1.88
293.657	16.21
293.871	-0.17
294.086	3.93
294.301	53.08
294.516	28.5
294.73	102.23
294.945	-41.13
295.16	-47.27
295.374	20.31
295.589	14.17
295.804	-6.31
296.018	8.02
296.233	30.55
296.447	3.93
296.662	-2.22
296.877	51.03
297.091	-14.51
297.306	14.17
297.52	36.69
297.735	-14.51
297.949	-34.99
298.164	59.22
298.378	-75.95
298.593	42.84
298.807	36.69
299.022	-6.31
299.236	32.6
299.451	30.55
299.665	32.6
299.88	8.02
300.094	-24.75
300.309	77.65
300.523	-20.65
300.737	30.55
300.952	53.08
301.166	5.97
301.381	-6.31
301.595	-41.13
301.809	-24.75
302.024	38.74
302.238	-6.31
302.452	32.6
302.667	-18.6
302.881	-28.84
303.095	-18.6
303.309	42.84
303.524	-18.6
303.738	8.02
303.952	-14.51
304.166	-49.32
304.381	26.45
304.595	-4.27
304.809	-4.27
305.023	-0.17
305.237	-24.75
305.452	3.93
305.666	-0.17
305.88	10.07
306.094	5.97
306.308	81.75
306.522	-34.99
306.736	14.17
306.95	94.04
307.164	-2.22
307.379	32.6
307.593	98.13
307.807	30.55
308.021	-18.6
308.235	-4.27
308.449	-45.23
308.663	-14.51
308.877	44.88
309.091	30.55
309.305	30.55
309.519	-34.99
309.733	34.64
309.947	-51.37
310.161	12.12
310.374	18.26
310.588	24.4
310.802	-22.7
311.016	18.26
311.23	77.65
311.444	-34.99
311.658	-39.08
311.872	98.13
312.085	-28.84
312.299	63.32
312.513	18.26
312.727	24.4
312.941	-30.89
313.154	36.69
313.368	128.85
313.582	30.55
313.796	38.74
314.009	22.36
314.223	-20.65
314.437	12.12
314.651	3.93
314.864	16.21
315.078	-4.27
315.292	48.98
315.505	-73.9
315.719	83.8
315.933	-32.94
316.146	77.65
316.36	-16.55
316.573	79.7
316.787	-12.46
317.001	32.6
317.214	55.12
317.428	12.12
317.641	-82.09
317.855	3.93
318.068	-10.41
318.282	-6.31
318.495	55.12
318.709	-2.22
318.922	61.27
319.136	24.4
319.349	-41.13
319.563	3.93
319.776	-0.17
319.99	-20.65
320.203	-16.55
320.417	67.41
320.63	5.97
320.843	-49.32
321.057	18.26
321.27	28.5
321.483	24.4
321.697	40.79
321.91	-14.51
322.124	94.04
322.337	10.07
322.55	-14.51
322.763	-28.84
322.977	48.98
323.19	-18.6
323.403	8.02
323.617	20.31
323.83	14.17
324.043	-28.84
324.256	-28.84
324.469	14.17
324.683	63.32
324.896	-0.17
325.109	34.64
325.322	-39.08
325.535	61.27
325.748	128.85
325.962	5.97
326.175	3.93
326.388	26.45
326.601	44.88
326.814	73.56
327.027	24.4
327.24	59.22
327.453	-30.89
327.666	73.56
327.879	-67.75
328.092	30.55
328.305	51.03
328.518	22.36
328.731	-30.89
328.944	51.03
329.157	18.26
329.37	73.56
329.583	104.28
329.796	42.84
330.009	-32.94
330.222	53.08
330.435	85.84
330.648	63.32
330.861	8.02
331.073	32.6
331.286	32.6
331.499	-8.36
331.712	-14.51
331.925	-16.55
332.138	5.97
332.35	-53.42
332.563	-39.08
332.776	-8.36
332.989	-8.36
333.202	38.74
333.414	-4.27
333.627	-14.51
333.84	-8.36
334.053	48.98
334.265	10.07
334.478	3.93
334.691	69.46
334.903	-32.94
335.116	53.08
335.329	48.98
335.541	26.45
335.754	-2.22
335.966	32.6
336.179	20.31
336.392	32.6
336.604	46.93
336.817	116.56
337.029	46.93
337.242	-39.08
337.454	26.45
337.667	46.93
337.88	-6.31
338.092	5.97
338.305	63.32
338.517	26.45
338.729	-20.65
338.942	53.08
339.154	42.84
339.367	38.74
339.579	-26.79
339.792	-8.36
340.004	26.45
340.217	26.45
340.429	34.64
340.641	-4.27
340.854	38.74
341.066	-2.22
341.278	89.94
341.491	55.12
341.703	36.69
341.915	71.51
342.128	-37.03
342.34	48.98
342.552	51.03
342.764	-14.51
342.977	-45.23
343.189	-28.84
343.401	20.31
343.613	8.02
343.826	40.79
344.038	61.27
344.25	42.84
344.462	22.36
344.674	-22.7
344.886	48.98
345.099	18.26
345.311	46.93
345.523	8.02
345.735	-18.6
345.947	5.97
346.159	98.13
346.371	-0.17
346.583	73.56
346.795	16.21
347.007	-37.03
347.219	38.74
347.431	38.74
347.643	42.84
347.855	-32.94
348.067	-14.51
348.279	8.02
348.491	-20.65
348.703	-22.7
348.915	32.6
349.127	-39.08
349.339	5.97
349.551	59.22
349.763	65.36
349.975	-10.41
350.187	57.17
350.399	24.4
350.61	96.08
350.822	-43.18
351.034	48.98
351.246	24.4
351.458	36.69
351.669	79.7
351.881	36.69
352.093	-0.17
352.305	89.94
352.517	-30.89
352.728	-2.22
352.94	34.64
353.152	28.5
353.363	20.31
353.575	5.97
353.787	14.17
353.999	36.69
354.21	26.45
354.422	14.17
354.633	5.97
354.845	-41.13
355.057	-18.6
355.268	-12.46
355.48	24.4
355.692	87.89
355.903	28.5
356.115	12.12
356.326	81.75
356.538	38.74
356.749	-22.7
356.961	59.22
357.172	-22.7
357.384	-0.17
357.595	32.6
357.807	65.36
358.018	40.79
358.23	34.64
358.441	8.02
358.653	57.17
358.864	-14.51
359.075	63.32
359.287	20.31
359.498	46.93
359.709	-0.17
359.921	40.79
360.132	46.93
360.344	-37.03
360.555	59.22
360.766	57.17
360.977	32.6
361.189	81.75
361.4	75.6
361.611	57.17
361.823	26.45
362.034	-30.89
362.245	53.08
362.456	-12.46
362.667	59.22
362.879	-2.22
363.09	26.45
363.301	104.28
363.512	46.93
363.723	-6.31
363.935	1.88
364.146	94.04
364.357	-12.46
364.568	26.45
364.779	8.02
364.99	24.4
365.201	20.31
365.412	44.88
365.623	-24.75
365.834	38.74
366.045	12.12
366.256	44.88
366.467	-61.61
366.678	57.17
366.889	-34.99
367.1	20.31
367.311	61.27
367.522	38.74
367.733	-12.46
367.944	114.52
368.155	20.31
368.366	81.75
368.577	12.12
368.788	81.75
368.999	42.84
369.209	44.88
369.42	42.84
369.631	42.84
369.842	24.4
370.053	67.41
370.264	71.51
370.474	1.88
370.685	48.98
370.896	65.36
371.107	34.64
371.317	57.17
371.528	12.12
371.739	75.6
371.95	91.99
372.16	30.55
372.371	-45.23
372.582	65.36
372.792	87.89
373.003	32.6
373.214	32.6
373.424	48.98
373.635	34.64
373.846	75.6
374.056	26.45
374.267	48.98
374.477	42.84
374.688	59.22
374.898	-12.46
375.109	73.56
375.319	40.79
375.53	71.51
375.74	59.22
375.951	112.47
376.161	22.36
376.372	46.93
376.582	69.46
376.793	26.45
377.003	42.84
377.214	57.17
377.424	48.98
377.635	-39.08
377.845	71.51
378.055	137.04
378.266	-43.18
378.476	102.23
378.686	61.27
378.897	42.84
379.107	30.55
379.317	10.07
379.528	34.64
379.738	-41.13
379.948	28.5
380.158	-0.17
380.369	-2.22
380.579	65.36
380.789	65.36
380.999	96.08
381.21	8.02
381.42	61.27
381.63	12.12
381.84	38.74
382.05	79.7
382.261	71.51
382.471	81.75
382.681	85.84
382.891	3.93
383.101	40.79
383.311	-18.6
383.521	-0.17
383.731	46.93
383.941	120.66
384.151	-14.51
384.361	38.74
384.571	20.31
384.781	10.07
384.991	91.99
385.201	85.84
385.411	81.75
385.621	5.97
385.831	36.69
386.041	137.04
386.251	100.18
386.461	44.88
386.671	85.84
386.881	38.74
387.091	32.6
387.301	75.6
387.511	-4.27
387.72	16.21
387.93	100.18
388.14	-32.94
388.35	18.26
388.56	69.46
388.769	-10.41
388.979	30.55
389.189	10.07
389.399	42.84
389.609	8.02
389.818	61.27
390.028	55.12
390.238	24.4
390.447	71.51
390.657	94.04
390.867	36.69
391.076	77.65
391.286	-6.31
391.496	1.88
391.705	-6.31
391.915	73.56
392.125	55.12
392.334	61.27
392.544	108.37
392.753	55.12
392.963	65.36
393.172	67.41
393.382	73.56
393.591	143.19
393.801	89.94
394.01	69.46
394.22	98.13
394.429	153.43
394.639	46.93
394.848	71.51
395.058	135
395.267	81.75
395.477	61.27
395.686	10.07
395.895	132.95
396.105	141.14
396.314	132.95
396.524	114.52
396.733	120.66
396.942	98.13
397.152	57.17
397.361	96.08
397.57	32.6
397.78	38.74
397.989	77.65
398.198	147.28
398.407	61.27
398.617	100.18
398.826	91.99
399.035	108.37
399.244	151.38
399.453	126.8
399.663	137.04
399.872	120.66
400.081	91.99
400.29	116.56
400.499	75.6
400.708	233.3
400.917	118.61
401.127	165.71
401.336	122.71
401.545	122.71
401.754	165.71
401.963	200.53
402.172	124.76
402.381	89.94
402.59	143.19
402.799	155.47
403.008	184.15
403.217	145.24
403.426	186.19
403.635	118.61
403.844	145.24
404.053	116.56
404.262	163.67
404.471	141.14
404.68	200.53
404.888	192.34
405.097	155.47
405.306	182.1
405.515	184.15
405.724	227.15
405.933	208.72
406.142	137.04
406.35	161.62
406.559	235.35
406.768	210.77
406.977	264.02
407.185	229.2
407.394	218.96
407.603	221.01
407.812	221.01
408.02	227.15
408.229	206.67
408.438	204.63
408.646	352.08
408.855	284.5
409.064	315.22
409.272	304.98
409.481	419.66
409.69	329.55
409.898	364.37
410.107	442.19
410.315	448.33
410.524	382.8
410.733	368.46
410.941	444.24
411.15	393.04
411.358	450.38
411.567	573.26
411.775	431.95
411.984	544.59
412.192	591.69
412.401	544.59
412.609	614.22
412.818	646.99
413.026	651.08
413.234	763.72
413.443	714.57
413.651	712.52
413.86	733
414.068	808.78
414.276	763.72
414.485	866.12
414.693	915.27
414.901	862.02
415.11	880.46
415.318	866.12
415.526	982.85
415.734	1038.15
415.943	1032.01
416.151	1054.53
416.359	1118.02
416.567	1156.93
416.776	1277.76
416.984	1130.31
417.192	1251.14
417.4	1267.52
417.608	1292.1
417.817	1361.73
418.025	1476.41
418.233	1525.57
418.441	1500.99
418.649	1677.12
418.857	1732.41
419.065	1822.52
419.273	1705.79
419.481	1744.7
419.689	1961.78
419.897	2105.14
420.105	2088.76
420.313	2053.94
420.521	2068.28
420.729	2172.72
420.937	2342.71
421.145	2447.15
421.353	2445.1
421.561	2682.67
421.769	2578.22
421.977	2668.33
422.185	2840.36
422.393	2993.96
422.601	3069.73
422.809	3190.56
423.017	3143.46
423.224	3317.54
423.432	3440.42
423.64	3424.03
423.848	3665.69
424.056	3606.3
424.263	3919.64
424.471	3911.45
424.679	3905.31
424.887	3999.51
425.094	4237.08
425.302	4327.19
425.51	4388.63
425.718	4570.9
425.925	4685.58
426.133	4912.91
426.341	5123.85
426.548	5222.15
426.756	5316.36
426.964	5369.6
427.171	5652.22
427.379	5930.75
427.586	6106.87
427.794	6160.12
428.001	6444.79
428.209	6919.92
428.417	6586.1
428.624	7036.65
428.832	6967.02
429.039	7132.9
429.247	7184.1
429.454	7837.41
429.662	8189.66
429.869	7847.65
430.076	8177.37
430.284	7978.72
430.491	8457.94
430.699	8892.11
430.906	8939.21
431.114	9201.35
431.321	9402.05
431.528	9672.39
431.736	10061.5
431.943	10512.05
432.15	10063.55
432.358	10473.14
432.565	11054.76
432.772	10948.27
432.979	11710.11
433.187	11863.71
433.394	11835.04
433.601	12760.72
433.808	12775.06
434.016	12445.34
434.223	13127.31
434.43	14001.79
434.637	13610.63
434.844	14462.58
435.052	14829.17
435.259	14823.03
435.466	14909.04
435.673	14861.94
435.88	15668.84
436.087	16545.37
436.294	16621.14
436.501	15910.5
436.708	16543.32
436.915	17112.66
437.122	17819.21
437.329	17897.03
437.537	18320.96
437.743	18617.91
437.95	18306.62
438.157	19578.41
438.364	20151.84
438.571	20215.33
438.778	20176.42
438.985	21939.72
439.192	21235.22
439.399	21792.26
439.606	21421.58
439.813	22722.04
440.02	24286.69
440.227	23567.85
440.433	23248.37
440.64	24126.95
440.847	23834.09
441.054	24303.07
441.261	26193.35
441.467	25986.5
441.674	26461.63
441.881	27237.81
442.088	27235.77
442.294	27014.59
442.501	27837.87
442.708	28183.98
442.914	29578.64
443.121	30422.41
443.328	30051.72
443.534	31860.08
443.741	31024.51
443.948	30563.71
444.154	32857.44
444.361	32521.57
444.568	32548.2
444.774	33064.28
444.981	33652.05
445.187	34028.88
445.394	35654.97
445.6	35194.17
445.807	38688.01
446.013	36930.85
446.22	37874.96
446.426	38905.09
446.633	39535.87
446.839	40707.3
447.046	39243.01
447.252	41497.82
447.459	41456.86
447.665	41370.85
447.871	42980.55
448.078	44846.25
448.284	42886.34
448.491	43891.9
448.697	45681.82
448.903	46210.2
449.11	46718.09
449.316	45808.79
449.522	46746.76
449.728	47549.57
449.935	48493.68
450.141	47815.8
450.347	49267.81
450.553	48012.41
450.76	48616.56
450.966	49818.72
451.172	49077.35
451.378	50642
451.584	49693.79
451.791	50904.14
451.997	50299.99
452.203	51131.47
452.409	51438.66
452.615	51227.72
452.821	49708.13
453.027	49079.4
453.233	51471.43
453.44	49644.64
453.646	49972.31
453.852	50414.68
454.058	51143.75
454.264	49126.5
454.47	50775.12
454.676	49257.57
454.882	51213.38
455.088	46871.69
455.294	47459.46
455.5	48309.36
455.705	48559.22
455.911	46892.17
456.117	45986.97
456.323	45130.92
456.529	43082.95
456.735	45008.04
456.941	43676.86
457.147	42718.41
457.352	41819.35
457.558	40996.07
457.764	41448.67
457.97	40563.95
458.176	39965.94
458.381	39861.49
458.587	37954.83
458.793	37784.85
458.999	36017.46
459.204	38518.03
459.41	37440.79
459.616	34889.02
459.821	35087.68
460.027	34809.15
460.233	34047.31
460.438	32284.01
460.644	32888.16
460.85	31356.28
461.055	30971.26
461.261	30971.26
461.466	28317.09
461.672	27721.13
461.878	29609.36
462.083	27637.17
462.289	27256.25
462.494	26961.34
462.7	25771.47
462.905	24876.51
463.111	26004.94
463.316	25877.96
463.522	25341.39
463.727	25667.02
463.932	25425.36
464.138	25329.11
464.343	25267.67
464.549	24438.24
464.754	25447.89
464.959	25214.42
465.165	24956.38
465.37	23719.4
465.575	23160.31
465.781	24337.89
465.986	24231.4
466.191	23805.42
466.397	23201.27
466.602	21759.5
466.807	22822.39
467.012	22625.79
467.218	22476.29
467.423	22435.33
467.628	22353.41
467.833	23643.63
468.038	22427.14
468.244	21984.77
468.449	22758.91
468.654	21730.83
468.859	21960.2
469.064	21636.62
469.269	21065.24
469.474	21188.11
469.679	21558.8
469.885	20901.4
470.09	21134.87
470.295	20915.73
470.5	20772.38
470.705	20604.44
470.91	20043.3
471.115	19959.33
471.32	20354.59
471.525	20192.8
471.73	19766.82
471.935	19623.47
472.139	19099.19
472.344	19447.34
472.549	19181.1
472.754	18910.77
472.959	18529.85
473.164	17923.65
473.369	17886.79
473.574	18433.6
473.778	18525.75
473.983	18107.97
474.188	17974.85
474.393	17124.94
474.598	17358.41
474.802	17159.76
475.007	17135.18
475.212	17061.46
475.417	16498.27
475.621	16311.9
475.826	16451.16
476.031	16055.9
476.235	15726.18
476.44	16111.2
476.645	15875.68
476.849	15869.54
477.054	15496.81
477.259	15410.79
477.463	15623.78
477.668	14855.79
477.872	15294.06
478.077	14730.87
478.282	14679.67
478.486	14507.64
478.691	14245.5
478.895	14464.63
479.1	14114.43
479.304	14141.05
479.509	13815.43
479.713	14134.91
479.918	13581.96
480.122	13440.65
480.326	13743.75
480.531	13745.8
480.735	13414.02
480.94	13377.16
481.144	13788.8
481.348	13178.51
481.553	13309.58
481.757	12975.76
481.961	13258.38
482.166	13620.87
482.37	13559.43
482.574	12889.74
482.778	13174.41
482.983	13418.12
483.187	13325.96
483.391	13436.55
483.595	13155.98
483.8	12940.94
484.004	13102.73
484.208	13399.69
484.412	13012.62
484.616	13045.39
484.821	13106.83
485.025	12947.09
485.229	13074.06
485.433	12867.22
485.637	12973.71
485.841	13080.21
486.045	13002.38
486.249	13059.73
486.453	12863.12
486.657	13104.78
486.861	13332.11
487.065	12797.59
487.269	13145.74
487.473	13090.45
487.677	13252.24
487.881	13229.71
488.085	13160.08
488.289	13287.05
488.493	12988.05
488.697	13166.22
488.901	13084.3
489.105	13192.84
489.309	13069.97
489.512	13166.22
489.716	13401.74
489.92	13282.95
490.124	13174.41
490.328	13409.93
490.531	13366.92
490.735	13389.45
490.939	13629.06
491.143	13336.2
491.346	13401.74
491.55	13799.04
491.754	13524.61
491.958	13751.94
492.161	13909.63
492.365	14024.32
492.569	13776.52
492.772	13526.66
492.976	14159.49
493.18	14034.56
493.383	14272.12
493.587	14087.81
493.79	14493.3
493.994	14237.31
494.197	14294.65
494.401	14610.04
494.605	14421.63
494.808	15005.3
495.012	14745.2
495.215	14812.79
495.419	14927.47
495.622	14878.32
495.825	15318.64
496.029	15160.94
496.232	15609.45
496.436	15605.35
496.639	15734.37
496.843	15937.12
497.046	15986.27
497.249	16068.19
497.453	16395.87
497.656	16438.87
497.859	16404.06
498.063	16592.47
498.266	17219.15
498.469	16871
498.673	17067.6
498.876	17329.74
499.079	17493.58
499.282	17485.39
499.485	18060.87
499.689	18126.4
499.892	18437.69
500.095	18146.88
500.298	18619.96
500.501	18658.87
500.705	19201.58
500.908	19488.3
501.111	19461.68
501.314	19684.9
501.517	19906.09
501.72	19721.77
501.923	20147.75
502.126	20635.16
502.329	20864.53
502.532	20747.8
502.735	20823.58
502.938	21593.61
503.141	21351.95
503.344	22052.36
503.547	21976.58
503.75	22353.41
503.953	22420.99
504.156	22863.35
504.359	23062.01
504.562	23258.61
504.765	23522.8
504.968	23590.38
505.17	23895.53
505.373	23975.4
505.576	24546.78
505.779	24563.17
505.982	24806.87
506.185	25400.79
506.387	25497.04
506.59	25710.03
506.793	26297.8
506.996	26185.16
507.198	26688.96
507.401	26699.2
507.604	26852.8
507.807	27458.99
508.009	27581.87
508.212	27729.33
508.415	28224.93
508.617	28597.66
508.82	28495.27
509.022	28544.42
509.225	29494.68
509.428	29670.8
509.63	29799.82
509.833	29978
510.035	30901.63
510.238	30467.46
510.44	31053.18
510.643	31171.96
510.845	31518.07
511.048	31442.29
511.25	32126.32
511.453	31962.48
511.655	33172.83
511.858	32650.6
512.06	33033.57
512.262	33852.75
512.465	33781.07
512.667	34467.14
512.87	34293.07
513.072	34555.21
513.274	35200.32
513.477	35497.27
513.679	36087.09
513.881	36007.22
514.084	36496.68
514.286	36195.63
514.488	36955.43
514.69	37674.26
514.893	37969.17
515.095	38036.75
515.297	38233.36
515.499	38685.96
515.701	39085.31
515.904	39402.75
516.106	39531.77
516.308	40033.52
516.51	40639.72
516.712	40666.34
516.914	40811.75
517.116	41684.19
517.318	41602.27
517.52	41874.65
517.722	42284.24
517.925	43009.22
518.127	43259.07
518.329	43445.44
518.531	43230.4
518.733	43836.6
518.935	44412.08
519.136	44233.91
519.338	44733.61
519.54	45696.16
519.742	45753.5
519.944	45962.39
520.146	46695.56
520.348	46816.39
520.55	46757
520.752	47273.09
520.954	48266.36
521.155	47793.28
521.357	48352.37
521.559	48716.91
521.761	49235.05
521.963	49200.23
522.164	49550.43
522.366	49448.03
522.568	50203.74
522.77	50316.37
522.971	50957.39
523.173	50750.54
523.375	51237.96
523.576	51303.49
523.778	51299.4
523.98	51919.93
524.181	51921.98
524.383	52337.72
524.584	53044.27
524.786	52792.37
524.988	52673.59
525.189	53765.15
525.391	53722.15
525.592	53734.43
525.794	54375.45
525.995	54346.78
526.197	54735.89
526.398	54289.43
526.6	55051.28
526.801	55170.06
527.003	55088.14
527.204	55116.81
527.406	55811.07
527.607	55444.49
527.808	56120.32
528.01	55145.48
528.211	55958.53
528.412	56931.31
528.614	56501.24
528.815	56554.49
529.016	57121.77
529.218	56501.24
529.419	56921.07
529.62	57142.25
529.822	57005.04
530.023	56962.03
530.224	57408.49
530.425	57340.91
530.626	57027.57
530.828	56804.34
531.029	58268.64
531.23	57340.91
531.431	57676.77
531.632	57525.22
531.833	57998.3
532.035	57347.05
532.236	57959.39
532.437	57805.8
532.638	57490.41
532.839	57961.44
533.04	57934.82
533.241	57682.92
533.442	58917.84
533.643	58094.56
533.844	58557.4
534.045	58074.08
534.246	57816.04
534.447	58207.2
534.648	57963.49
534.849	58201.05
535.05	57717.73
535.251	58414.04
535.451	57816.04
535.652	58856.4
535.853	58182.62
536.054	57951.2
536.255	58457.05
536.456	57994.21
536.657	58561.5
536.857	58342.36
537.058	57762.79
537.259	58483.67
537.46	58285.02
537.66	58059.74
537.861	58065.89
538.062	58160.09
538.263	58252.25
538.463	58321.88
538.664	58135.52
538.865	58418.14
539.065	58268.64
539.266	57938.91
539.466	58555.35
539.667	57787.36
539.868	58696.66
540.068	57877.47
540.269	57893.86
540.469	58348.51
540.67	57824.23
540.87	57791.46
541.071	58176.48
541.271	58352.6
541.472	57861.09
541.672	57897.95
541.873	57723.88
542.073	57435.11
542.274	58422.23
542.474	57820.13
542.675	57760.74
542.875	58467.29
543.075	58156
543.276	57398.25
543.476	58362.84
543.676	57478.12
543.877	58217.44
544.077	58022.88
544.277	57791.46
544.478	57768.93
544.678	58229.72
544.878	57951.2
545.078	57844.71
545.279	57179.12
545.479	57390.06
545.679	57658.34
545.879	57437.16
546.079	57652.2
546.28	57580.52
546.48	57697.25
546.68	57345
546.88	57721.83
547.08	57826.27
547.28	57517.03
547.48	57557.99
547.68	57545.7
547.88	57467.88
548.081	58041.31
548.281	57404.39
548.481	57107.44
548.681	57844.71
548.881	57150.45
549.081	57205.74
549.28	57369.58
549.48	57797.6
549.68	57066.48
549.88	57699.3
550.08	57224.17
550.28	57451.5
550.48	57633.77
550.68	57719.78
550.88	57046
551.08	57328.62
551.279	57578.47
551.479	57185.26
551.679	57066.48
551.879	57052.14
552.079	57637.86
552.278	57361.39
552.478	57215.98
552.678	57320.43
552.878	57191.4
553.077	57164.78
553.277	56835.06
553.477	57721.83
553.676	57070.57
553.876	56568.82
554.076	56896.5
554.275	57103.34
554.475	56609.78
554.674	57058.29
554.874	57037.81
555.074	57033.71
555.273	57283.56
555.473	56906.74
555.672	56486.9
555.872	56646.64
556.071	56591.35
556.271	56945.65
556.47	56767.48
556.67	55817.22
556.869	56470.52
557.068	56695.8
557.268	56181.76
557.467	56462.33
557.667	56202.24
557.866	56341.5
558.065	56249.34
558.265	56140.8
558.464	55950.34
558.663	56617.97
558.863	55866.37
559.062	56435.7
559.261	55290.89
559.461	56636.41
559.66	55292.94
559.859	55890.94
560.058	55305.23
560.258	55647.24
560.457	55313.42
560.656	55424.01
560.855	54938.64
561.054	55747.59
561.253	55165.96
561.453	55325.71
561.652	55284.75
561.851	55260.17
562.05	55241.74
562.249	54758.42
562.448	55008.27
562.647	55186.44
562.846	54674.45
563.045	54631.44
563.244	54418.45
563.443	55168.01
563.642	54195.23
563.841	54752.27
564.04	54254.62
564.239	54381.59
564.438	53904.41
564.637	54133.79
564.836	54182.94
565.035	53738.53
565.234	53984.29
565.432	53707.81
565.631	53623.84
565.83	53388.33
566.029	53568.55
566.228	53462.05
566.427	53384.23
566.625	52876.33
566.824	52757.55
567.023	53349.42
567.222	52917.29
567.42	53161
567.619	53345.32
567.818	52450.36
568.016	52429.88
568.215	52931.63
568.414	52493.36
568.612	52757.55
568.811	52038.72
569.01	52319.29
569.208	51864.64
569.407	52288.57
569.605	51506.24
569.804	51924.03
570.002	51387.46
570.201	52251.7
570.4	51450.95
570.598	51027.02
570.797	50635.86
570.995	51266.63
571.193	50963.53
571.392	51299.4
571.59	50506.83
571.789	50666.58
571.987	50885.71
572.186	50445.4
572.384	50510.93
572.582	50439.25
572.781	50615.38
572.979	50144.34
573.177	49769.57
573.376	50515.03
573.574	49607.78
573.772	50127.96
573.971	49488.99
574.169	49917.02
574.367	49149.03
574.565	49704.03
574.763	49060.97
574.962	49159.27
575.16	48858.22
575.358	49206.37
575.556	48288.88
575.754	49509.47
575.952	48041.08
576.151	48430.19
576.349	47948.92
576.547	48114.81
576.745	48139.38
576.943	48157.81
577.141	47885.43
577.339	48006.26
577.537	47584.38
577.735	47498.37
577.933	47406.21
578.131	47410.31
578.329	46953.61
578.527	47260.8
578.725	46922.89
578.923	46941.32
579.121	46449.81
579.319	46443.66
579.516	46869.64
579.714	47049.86
579.912	46771.34
580.11	46144.66
580.308	46290.07
580.506	46015.64
580.704	45546.65
580.901	46032.02
581.099	45829.27
581.297	45683.87
581.495	45638.81
581.692	45393.06
581.89	45253.79
582.088	45972.63
582.285	45206.69
582.483	45307.04
582.681	44809.39
582.878	44745.9
583.076	44221.62
583.274	44946.6
583.471	44295.35
583.669	44426.42
583.866	44264.63
584.064	44678.32
584.262	43836.6
584.459	44244.15
584.657	43470.01
584.854	44108.98
585.052	43545.79
585.249	43527.36
585.447	43572.41
585.644	43015.36
585.841	43230.4
586.039	43384
586.236	42734.79
586.434	42525.9
586.631	42706.12
586.828	42759.37
587.026	42595.53
587.223	42714.31
587.42	42171.6
587.618	42169.55
587.815	41989.33
588.012	41624.79
588.21	41919.7
588.407	41966.8
588.604	41430.24
588.801	41426.14
588.999	41477.34
589.196	41186.53
589.393	41032.93
589.59	41260.26
589.787	41112.8
589.984	40828.13
590.182	40252.66
590.379	40936.68
590.576	40342.77
590.773	40346.86
590.97	40312.05
591.167	40281.33
591.364	39906.55
591.561	39832.82
591.758	39601.4
591.955	39533.82
592.152	39699.7
592.349	39445.76
592.546	39685.37
592.743	39484.67
592.94	38671.62
593.137	39380.22
593.334	39204.1
593.531	38515.98
593.727	38917.38
593.924	38712.58
594.121	38393.1
594.318	38262.03
594.515	37762.33
594.712	38679.82
594.908	38008.08
595.105	38096.14
595.302	37948.69
595.499	37721.37
595.696	37469.47
595.892	37297.44
596.089	37418.27
596.286	37778.71
596.482	37285.15
596.679	37238.05
596.876	37412.12
597.072	36734.24
597.269	37315.87
597.466	36511.02
597.662	36676.9
597.859	36615.46
598.055	36277.55
598.252	36330.79
598.448	36302.12
598.645	36103.47
598.841	35603.77
599.038	35640.63
599.234	35855.67
599.431	35456.31
599.627	35304.76
599.824	35573.05
600.02	35026.24
600.217	35243.32
600.413	35489.08
600.609	34960.7
600.806	34972.99
601.002	35052.86
601.198	34362.7
601.395	34516.29
601.591	34553.16
601.787	34456.9
601.984	34100.56
602.18	34348.36
602.376	34137.42
602.572	33555.8
602.769	33842.51
602.965	33500.5
603.161	33789.27
603.357	33252.7
603.553	33559.89
603.75	33494.36
603.946	33072.48
604.142	33314.14
604.338	32839.01
604.534	32990.56
604.73	32879.97
604.926	32816.48
605.122	32902.5
605.318	32484.71
605.514	32386.41
605.71	32257.39
605.906	32025.96
606.102	32470.37
606.298	32099.69
606.494	32064.88
606.69	31817.07
606.886	32396.65
607.082	31642.99
607.278	31817.07
607.474	31427.96
607.67	31853.94
607.866	31303.03
608.062	31413.62
608.257	31186.3
608.453	31391.09
608.649	30938.49
608.845	30834.05
609.041	30911.87
609.236	30940.54
609.432	30664.07
609.628	30852.48
609.824	30653.83
610.019	30612.87
610.215	30547.33
610.411	30758.27
610.606	30647.68
610.802	30666.11
610.998	30186.89
611.193	30606.72
611.389	30084.49
611.584	30084.49
611.78	30137.74
611.976	30221.7
612.171	30182.79
612.367	29998.48
612.562	30221.7
612.758	29670.8
612.953	29558.16
613.149	29765.01
613.344	29349.27
613.539	29896.08
613.735	29408.66
613.93	29474.2
614.126	29226.39
614.321	29769.1
614.517	29357.46
614.712	29152.66
614.907	28988.83
615.103	29142.42
615.298	28859.8
615.493	28956.06
615.688	28843.42
615.884	29310.36
616.079	28530.08
616.274	29037.98
616.47	28767.65
616.665	29150.62
616.86	28765.6
617.055	28775.84
617.25	28327.33
617.445	28421.54
617.641	27973.03
617.836	28310.95
618.031	27960.75
618.226	28218.79
618.421	27907.5
618.616	28183.98
618.811	27203
619.006	27962.79
619.201	27256.25
619.396	27563.44
619.591	27004.35
619.786	27274.68
619.981	26691.01
620.176	27239.86
620.371	26764.73
620.566	26871.23
620.761	26848.7
620.956	26590.66
621.151	26168.77
621.346	26265.03
621.541	26031.56
621.735	26279.36
621.93	25599.44
622.125	25994.7
622.32	25374.16
622.515	25468.37
622.709	25542.1
622.904	25411.03
623.099	25273.81
623.294	25302.48
623.488	24833.5
623.683	24751.58
623.878	24423.9
624.072	24673.76
624.267	24651.23
624.462	24313.31
624.656	24004.07
624.851	23928.3
625.046	23909.86
625.24	23823.85
625.435	23467.5
625.629	23324.15
625.824	23057.91
626.018	23168.5
626.213	22713.85
626.407	23168.5
626.602	22719.99
626.796	22881.78
626.991	22672.89
627.185	22775.29
627.38	22246.91
627.574	22349.31
627.768	21909
627.963	22103.56
628.157	22222.34
628.352	21880.33
628.546	21554.7
628.74	21720.59
628.935	21321.23
629.129	21190.16
629.323	21007.89
629.517	21055
629.712	21169.68
629.906	21038.61
630.1	20395.55
630.294	20940.31
630.489	20848.15
630.683	20502.04
630.877	20350.49
631.071	20319.78
631.265	20254.24
631.459	19990.05
631.653	19789.35
631.848	19924.52
632.042	19732.01
632.236	19764.78
632.43	19635.75
632.624	19398.19
632.818	19230.26
633.012	19326.51
633.206	19267.12
633.4	19129.91
633.594	18953.78
633.788	18654.78
633.982	18757.18
634.176	18589.24
634.369	18454.08
634.563	18456.12
634.757	18349.63
634.951	18419.26
635.145	18155.07
635.339	18067.01
635.533	17755.72
635.726	17671.75
635.92	17393.23
636.114	17811.01
636.308	17444.43
636.501	17544.78
636.695	17604.17
636.889	17542.73
637.083	17106.51
637.276	16909.91
637.47	16916.05
637.664	17083.98
637.857	17030.74
638.051	17047.12
638.244	16698.97
638.438	16453.21
638.632	16381.53
638.825	16365.15
639.019	16488.03
639.212	16174.69
639.406	16051.81
639.599	16162.4
639.793	16051.81
639.986	15693.41
640.18	15873.64
640.373	15914.59
640.567	15582.82
640.76	15660.65
640.954	15201.9
641.147	15427.18
641.34	15187.57
641.534	14982.77
641.727	14966.38
641.92	15189.61
642.114	14997.1
642.307	14769.78
642.5	14714.48
642.694	14661.24
642.887	14726.77
643.08	14761.59
643.273	14696.05
643.467	14448.25
643.66	14507.64
643.853	14315.13
644.046	14083.71
644.239	14091.9
644.432	14259.84
644.626	13782.66
644.819	13895.3
645.012	13815.43
645.205	13596.29
645.398	13651.59
645.591	13446.79
645.784	13579.91
645.977	13422.22
646.17	13289.1
646.363	13297.29
646.556	13221.52
646.749	13205.13
646.942	13014.67
647.135	12885.65
647.328	12826.26
647.521	13094.54
647.714	12807.83
647.907	12664.47
648.099	12617.36
648.292	12539.54
648.485	12551.83
648.678	12377.75
648.871	12332.7
649.064	12519.06
649.256	12236.44
649.449	12220.06
649.642	12191.39
649.835	11888.29
650.027	11878.05
650.22	12080.8
650.413	11853.47
650.605	11699.87
650.798	11669.16
650.991	11595.43
651.183	11546.28
651.376	11370.15
651.568	11343.53
651.761	11296.42
651.954	11325.1
652.146	11357.86
652.339	11261.61
652.531	11394.73
652.724	10972.85
652.916	10929.84
653.109	10952.37
653.301	11081.39
653.494	10849.97
653.686	10598.07
653.879	10856.11
654.071	10770.1
654.263	10370.74
654.456	10526.39
654.648	10696.37
654.84	10469.05
655.033	10405.56
655.225	10276.54
655.417	10413.75
655.61	10139.32
655.802	10147.51
655.994	10215.1
656.186	10155.71
656.379	9961.15
656.571	10100.41
656.763	10006.2
656.955	10104.51
657.148	9877.18
657.34	9803.46
657.532	9780.93
657.724	9713.35
657.916	9666.24
658.108	9635.52
658.3	9428.68
658.492	9582.28
658.684	9266.89
658.876	9537.22
659.068	9203.4
659.26	9297.61
659.452	9238.22
659.644	9150.15
659.836	8982.22
660.028	9021.13
660.22	8728.27
660.412	8965.84
660.604	8750.8
660.796	8791.76
660.988	8994.51
661.18	9004.75
661.372	8724.18
661.563	8681.17
661.755	8580.82
661.947	8605.39
662.139	8539.86
662.331	8507.09
662.522	8492.76
662.714	8414.93
662.906	8339.16
663.097	8296.15
663.289	8236.76
663.481	8146.65
663.673	8208.09
663.864	8160.98
664.056	8060.63
664.247	7882.46
664.439	8054.49
664.631	8021.72
664.822	8003.29
665.014	8120.03
665.205	7978.72
665.397	7763.68
665.588	7778.01
665.78	7767.77
665.971	7710.43
666.163	7675.62
666.354	7614.18
666.546	7591.65
666.737	7550.69
666.929	7493.35
667.12	7503.59
667.311	7569.12
667.503	7239.4
667.694	7397.09
667.885	7186.15
668.077	7360.23
668.268	7175.91
668.459	7341.8
668.651	7380.71
668.842	7186.15
669.033	7157.48
669.224	7042.79
669.416	7038.7
669.607	6979.31
669.798	6944.49
669.989	7057.13
670.18	7046.89
670.371	6999.79
670.563	7126.76
670.754	6883.05
670.945	6835.95
671.136	6917.87
671.327	6706.93
671.518	6524.66
671.709	6817.52
671.9	6549.23
672.091	6829.81
672.282	6680.3
672.473	6559.47
672.664	6551.28
672.855	6563.57
673.046	6463.22
673.237	6625.01
673.428	6489.84
673.619	6641.39
673.809	6246.13
674	6379.25
674.191	6235.89
674.382	6231.8
674.573	6164.22
674.764	6356.72
674.954	6291.19
675.145	6184.69
675.336	6354.68
675.527	6242.04
675.717	6131.45
675.908	6090.49
676.099	6336.24
676.289	6100.73
676.48	5936.89
676.671	6067.96
676.861	6141.69
677.052	5969.66
677.243	5910.27
677.433	5859.07
677.624	6006.52
677.814	5916.41
678.005	5961.47
678.195	5818.11
678.386	5877.5
678.576	5768.96
678.767	5799.68
678.957	5820.16
679.148	5945.08
679.338	5670.65
679.529	5863.16
679.719	5635.84
679.909	5746.43
680.1	5787.39
680.29	5648.13
680.481	5766.91
680.671	5738.24
680.861	5517.06
681.052	5635.84
681.242	5541.63
681.432	5629.7
681.622	5609.22
681.813	5641.98
682.003	5463.81
682.193	5480.19
682.383	5531.39
682.573	5459.71
682.764	5420.8
682.954	5402.37
683.144	5433.09
683.334	5414.66
683.524	5492.48
683.714	5486.34
683.904	5371.65
684.094	5267.2
684.284	5396.23
684.474	5447.43
684.664	5463.81
684.854	5220.1
685.044	5078.79
685.234	5109.51
685.424	5228.29
685.614	5328.64
685.804	5361.41
685.994	5226.25
686.184	5256.97
686.374	5216.01
686.564	5043.98
686.753	5228.29
686.943	5009.16
687.133	5015.3
687.323	5117.7
687.513	5011.21
687.702	4902.67
687.892	4945.67
688.082	4818.7
688.272	5000.97
688.461	5101.32
688.651	4955.91
688.841	4824.84
689.03	4972.3
689.22	4749.07
689.41	4894.47
689.599	4771.6
689.789	4808.46
689.979	4753.16
690.168	4673.29
690.358	4591.38
690.547	4622.09
690.737	4697.87
690.926	4497.17
691.116	4568.85
691.305	4577.04
691.495	4753.16
691.684	4525.84
691.874	4534.03
692.063	4521.74
692.252	4554.51
692.442	4456.21
692.631	4329.24
692.82	4534.03
693.01	4314.9
693.199	4362
693.388	4167.45
693.578	4398.87
693.767	4312.85
693.956	4345.62
694.146	4169.49
694.335	4331.28
694.524	4308.76
694.713	4183.83
694.902	4228.88
695.092	4261.65
695.281	4202.26
695.47	4224.79
695.659	4159.25
695.848	4151.06
696.037	4126.49
696.226	4128.53
696.415	4040.47
696.604	4157.21
696.793	4060.95
696.982	4142.87
697.171	4208.41
697.36	4126.49
697.549	4116.25
697.738	4159.25
697.927	4118.29
698.116	4019.99
698.305	3985.18
698.494	3901.21
698.683	3987.22
698.872	3997.46
699.061	3956.5
699.25	3929.88
699.438	4108.05
699.627	3823.39
699.816	3956.5
700.005	3802.91
700.193	3833.63
700.382	4017.94
700.571	3878.68
700.76	3987.22
700.948	3905.31
701.137	3903.26
701.326	3923.74
701.514	3882.78
701.703	3929.88
701.892	3798.81
702.08	3802.91
702.269	3751.71
702.457	3716.89
702.646	3874.59
702.834	3647.26
703.023	3774.24
703.212	3647.26
703.4	3675.93
703.589	3716.89
703.777	3770.14
703.965	3606.3
704.154	3723.04
704.342	3827.48
704.531	3692.32
704.719	3598.11
704.907	3698.46
705.096	3800.86
705.284	3508
705.472	3645.21
705.661	3583.77
705.849	3518.24
706.037	3637.02
706.226	3604.25
706.414	3616.54
706.602	3563.29
706.79	3620.64
706.979	3477.28
707.167	3567.39
707.355	3393.31
707.543	3413.79
707.731	3673.89
707.919	3483.42
708.107	3368.74
708.296	3526.43
708.484	3397.41
708.672	3505.95
708.86	3436.32
709.048	3530.53
709.236	3290.92
709.424	3477.28
709.612	3389.22
709.8	3360.55
709.988	3475.23
710.176	3387.17
710.364	3393.31
710.551	3325.73
710.739	3391.27
710.927	3356.45
711.115	3331.87
711.303	3354.4
711.491	3280.68
711.679	3303.2
711.866	3262.24
712.054	3327.78
712.242	3258.15
712.43	3284.77
712.617	3225.38
712.805	3200.8
712.993	3252
713.181	3245.86
713.368	3151.65
713.556	3225.38
713.744	3200.8
713.931	3237.67
714.119	3110.69
714.306	3145.51
714.494	3143.46
714.682	3174.18
714.869	3163.94
715.057	3161.89
715.244	3155.75
715.432	3182.37
715.619	3071.78
715.807	3034.92
715.994	3110.69
716.182	3114.79
716.369	3104.55
716.556	3125.03
716.744	3061.54
716.931	3098.41
717.119	3186.47
717.306	3149.61
717.493	2963.24
717.681	3010.34
717.868	3137.32
718.055	3000.1
718.242	3047.21
718.43	3014.44
718.617	2875.18
718.804	2987.82
718.991	2996.01
719.179	3006.25
719.366	2946.86
719.553	2914.09
719.74	3002.15
719.927	2889.51
720.114	2942.76
720.301	2879.27
720.488	2723.63
720.676	2897.71
720.863	2871.08
721.05	2842.41
721.237	2842.41
721.424	2813.74
721.611	2924.33
721.798	2725.68
721.985	2891.56
722.172	2842.41
722.358	2709.29
722.545	2723.63
722.732	2709.29
722.919	2809.64
723.106	2799.4
723.293	2715.44
723.48	2709.29
723.667	2725.68
723.853	2742.06
724.04	2754.35
724.227	2727.72
724.414	2684.72
724.6	2727.72
724.787	2795.31
724.974	2748.2
725.161	2688.81
725.347	2764.59
725.534	2682.67
725.72	2725.68
725.907	2776.87
726.094	2697
726.28	2596.65
726.467	2602.8
726.653	2633.52
726.84	2748.2
727.027	2778.92
727.213	2651.95
727.4	2574.13
727.586	2688.81
727.773	2619.18
727.959	2633.52
728.145	2477.87
728.332	2629.42
728.518	2567.98
728.705	2514.73
728.891	2488.11
729.077	2600.75
729.264	2537.26
729.45	2664.24
729.636	2580.27
729.823	2578.22
730.009	2510.64
730.195	2555.69
730.382	2484.02
730.568	2514.73
730.754	2520.88
730.94	2443.06
731.126	2506.54
731.313	2594.61
731.499	2465.58
731.685	2557.74
731.871	2486.06
732.057	2533.17
732.243	2543.41
732.429	2395.95
732.615	2555.69
732.801	2371.38
732.987	2404.14
733.173	2531.12
733.359	2447.15
733.545	2367.28
733.731	2295.6
733.917	2420.53
734.103	2318.13
734.289	2441.01
734.475	2545.45
734.661	2418.48
734.847	2363.19
735.033	2490.16
735.219	2385.71
735.404	2363.19
735.59	2309.94
735.776	2361.14
735.962	2520.88
736.148	2383.66
736.333	2381.62
736.519	2309.94
736.705	2338.61
736.89	2357.04
737.076	2305.84
737.262	2314.03
737.447	2244.4
737.633	2254.64
737.819	2207.54
738.004	2242.36
738.19	2277.17
738.375	2291.51
738.561	2307.89
738.747	2271.03
738.932	2201.4
739.118	2242.36
739.303	2225.97
739.489	2203.44
739.674	2125.62
739.859	2144.05
740.045	2191.16
740.23	2205.49
740.416	2178.87
740.601	2223.92
740.786	2180.92
740.972	2094.9
741.157	2092.85
741.342	2170.68
741.528	2127.67
741.713	2088.76
741.898	2041.65
742.084	2162.48
742.269	2201.4
742.454	2178.87
742.639	2109.24
742.824	2029.37
743.01	2135.86
743.195	2103.09
743.38	1969.98
743.565	1943.35
743.75	1982.26
743.935	1906.49
744.12	2002.74
744.305	1955.64
744.49	1894.2
744.675	1935.16
744.86	1933.11
745.045	1922.87
745.23	1869.62
745.415	1873.72
745.6	1906.49
745.785	1859.38
745.97	1957.69
746.155	1931.06
746.34	1767.23
746.525	1869.62
746.71	1812.28
746.895	1873.72
747.079	1849.15
747.264	1742.65
747.449	1759.03
747.634	1707.84
747.819	1769.27
748.003	1834.81
748.188	1750.84
748.373	1632.06
748.557	1793.85
748.742	1713.98
748.927	1654.59
749.111	1701.69
749.296	1677.12
749.481	1687.36
749.665	1634.11
749.85	1613.63
750.034	1650.49
750.219	1640.25
750.404	1599.29
750.588	1681.21
750.773	1591.1
750.957	1652.54
751.141	1527.61
751.326	1558.33
751.51	1572.67
751.695	1517.37
751.879	1505.09
752.064	1490.75
752.248	1580.86
752.432	1492.8
752.617	1492.8
752.801	1494.85
752.985	1427.26
753.17	1488.7
753.354	1500.99
753.538	1480.51
753.722	1431.36
753.907	1343.3
754.091	1402.69
754.275	1423.17
754.459	1384.26
754.643	1439.55
754.828	1369.92
755.012	1357.63
755.196	1347.39
755.38	1320.77
755.564	1378.11
755.748	1304.39
755.932	1294.15
756.116	1228.61
756.3	1279.81
756.484	1339.2
756.668	1269.57
756.852	1144.64
757.036	1191.75
757.22	1152.84
757.404	1218.37
757.588	1185.6
757.772	1183.56
757.956	1228.61
758.14	1199.94
758.323	1118.02
758.507	1130.31
758.691	1079.11
758.875	1130.31
759.059	1171.27
759.242	1167.17
759.426	1152.84
759.61	1167.17
759.794	1068.87
759.977	1134.4
760.161	1181.51
760.345	1036.1
760.528	1257.28
760.712	1179.46
760.895	1124.16
761.079	1173.32
761.263	950.09
761.446	1091.4
761.63	1064.77
761.813	984.9
761.997	1064.77
762.18	1003.33
762.364	974.66
762.547	976.71
762.731	995.14
762.914	1001.29
763.098	1009.48
763.281	1029.96
763.464	1089.35
763.648	958.28
763.831	960.33
764.015	956.23
764.198	997.19
764.381	945.99
764.564	1050.44
764.748	954.18
764.931	1044.29
765.114	945.99
765.297	962.37
765.481	950.09
765.664	921.42
765.847	882.5
766.03	956.23
766.213	892.74
766.397	1001.29
766.58	776.01
766.763	927.56
766.946	866.12
767.129	872.26
767.312	980.81
767.495	845.64
767.678	866.12
767.861	925.51
768.044	933.7
768.227	929.61
768.41	907.08
768.593	878.41
768.776	866.12
768.959	796.49
769.142	880.46
769.324	882.5
769.507	833.35
769.69	939.85
769.873	849.74
770.056	833.35
770.239	821.06
770.421	765.77
770.604	853.83
770.787	720.71
770.97	819.02
771.152	720.71
771.335	800.59
771.518	735.05
771.7	780.11
771.883	796.49
772.066	796.49
772.248	849.74
772.431	767.82
772.613	771.91
772.796	790.35
772.978	728.91
773.161	798.54
773.343	757.58
773.526	737.1
773.708	722.76
773.891	814.92
774.073	669.52
774.256	724.81
774.438	814.92
774.621	720.71
774.803	730.95
774.985	653.13
775.168	706.38
775.35	761.67
775.532	603.98
775.715	702.28
775.897	661.32
776.079	689.99
776.261	669.52
776.444	692.04
776.626	687.95
776.808	622.41
776.99	675.66
777.173	704.33
777.355	585.55
777.537	622.41
777.719	614.22
777.901	694.09
778.083	634.7
778.265	622.41
778.447	628.56
778.629	622.41
778.811	577.36
778.993	640.84
779.175	638.8
779.357	538.45
779.539	536.4
779.721	599.88
779.903	581.45
780.085	517.97
780.267	552.78
780.449	628.56
780.631	585.55
780.812	517.97
780.994	587.6
781.176	513.87
781.358	513.87
781.54	565.07
781.721	511.82
781.903	540.49
782.085	530.25
782.267	503.63
782.448	458.57
782.63	489.29
782.812	524.11
782.993	468.81
783.175	513.87
783.357	503.63
783.538	532.3
783.72	466.77
783.901	513.87
784.083	491.34
784.264	458.57
784.446	419.66
784.627	436.05
784.809	501.58
784.99	491.34
785.172	460.62
785.353	483.15
785.535	442.19
785.716	438.09
785.897	495.44
786.079	460.62
786.26	405.33
786.441	395.09
786.623	399.18
786.804	393.04
786.985	421.71
787.167	393.04
787.348	335.7
787.529	405.33
787.71	415.57
787.891	436.05
788.073	386.9
788.254	470.86
788.435	483.15
788.616	401.23
788.797	374.61
788.978	431.95
789.159	374.61
789.34	259.92
789.522	384.85
789.703	307.02
789.884	356.18
790.065	311.12
790.246	315.22
790.427	405.33
790.607	317.26
790.788	339.79
790.969	319.31
791.15	399.18
791.331	253.78
791.512	327.5
791.693	214.87
791.874	327.5
792.054	327.5
792.235	360.27
792.416	196.43
792.597	280.4
792.778	268.11
792.958	401.23
793.139	360.27
793.32	321.36
793.5	266.07
793.681	335.7
793.862	337.74
794.042	284.5
794.223	268.11
794.404	304.98
794.584	192.34
794.765	300.88
794.945	276.31
795.126	235.35
795.306	231.25
795.487	223.06
795.667	294.74
795.848	300.88
796.028	261.97
796.209	284.5
796.389	311.12
796.57	266.07
796.75	245.59
796.93	249.68
797.111	288.59
797.291	229.2
797.471	218.96
797.652	212.82
797.832	175.95
798.012	239.44
798.192	221.01
798.373	307.02
798.553	255.83
798.733	286.54
798.913	264.02
799.093	276.31
799.274	198.48
799.454	259.92
799.634	233.3
799.814	307.02
799.994	245.59
800.174	223.06
800.354	196.43
800.534	190.29
800.714	216.91
800.894	206.67
801.074	231.25
801.254	268.11
801.434	259.92
801.614	186.19
801.794	196.43
801.974	458.57
802.154	290.64
802.334	298.83
802.514	157.52
802.693	272.21
802.873	225.11
803.053	182.1
803.233	184.15
803.413	180.05
803.592	229.2
803.772	210.77
803.952	165.71
804.131	159.57
804.311	141.14
804.491	276.31
804.67	284.5
804.85	241.49
805.03	126.8
805.209	212.82
805.389	245.59
805.568	157.52
805.748	178
805.928	94.04
806.107	212.82
806.287	255.83
806.466	198.48
806.646	137.04
806.825	157.52
807.004	229.2
807.184	153.43
807.363	192.34
807.543	155.47
807.722	151.38
807.901	157.52
808.081	243.54
808.26	192.34
808.439	147.28
808.619	110.42
808.798	116.56
808.977	214.87
809.156	188.24
809.336	180.05
809.515	237.39
809.694	231.25
809.873	180.05
810.052	124.76
810.231	251.73
810.411	145.24
810.59	114.52
810.769	102.23
810.948	186.19
811.127	155.47
811.306	118.61
811.485	126.8
811.664	147.28
811.843	255.83
812.022	63.32
812.201	130.9
812.38	102.23
812.559	108.37
812.737	202.58
812.916	79.7
813.095	122.71
813.274	159.57
813.453	132.95
813.632	118.61
813.811	200.53
813.989	153.43
814.168	126.8
814.347	83.8
814.526	55.12
814.704	67.41
814.883	116.56
815.062	48.98
815.24	89.94
815.419	137.04
815.598	141.14
815.776	91.99
815.955	71.51
816.133	114.52
816.312	149.33
816.49	116.56
816.669	126.8
816.847	69.46
817.026	124.76
817.204	167.76
817.383	139.09
817.561	91.99
817.74	118.61
817.918	63.32
818.097	122.71
818.275	69.46
818.453	75.6
818.632	132.95
818.81	159.57
818.988	40.79
819.167	94.04
819.345	79.7
819.523	20.31
819.701	147.28
819.879	141.14
820.058	116.56
820.236	126.8
820.414	110.42
820.592	114.52
820.77	75.6
820.948	98.13
821.127	61.27
821.305	67.41
821.483	-0.17
821.661	141.14
821.839	26.45
822.017	96.08
822.195	63.32
822.373	126.8
822.551	59.22
822.729	118.61
822.907	104.28
823.085	85.84
823.262	173.91
823.44	63.32
823.618	102.23
823.796	69.46
823.974	59.22
824.152	53.08
824.329	96.08
824.507	75.6
824.685	89.94
824.863	71.51
825.04	94.04
825.218	81.75
825.396	73.56
825.574	104.28
825.751	34.64
825.929	61.27
826.107	57.17
826.284	69.46
826.462	65.36
826.639	135
826.817	81.75
826.994	59.22
827.172	-2.22
827.349	-6.31
827.527	42.84
827.704	79.7
827.882	40.79
828.059	137.04
828.237	98.13
828.414	143.19
828.591	59.22
828.769	16.21
828.946	53.08
829.124	167.76
829.301	69.46
829.478	55.12
829.655	36.69
829.833	53.08
830.01	-69.8
830.187	24.4
830.364	20.31
830.542	102.23
830.719	16.21
830.896	71.51
831.073	63.32
831.25	87.89
831.427	46.93
831.604	59.22
831.782	-6.31
831.959	30.55
832.136	34.64
832.313	42.84
832.49	20.31
832.667	67.41
832.844	14.17
833.021	118.61
833.198	108.37
833.374	8.02
833.551	42.84
833.728	69.46
833.905	44.88
834.082	89.94
834.259	-4.27
834.436	130.9
834.612	8.02
834.789	51.03
834.966	104.28
835.143	28.5
835.319	10.07
835.496	46.93
835.673	12.12
835.85	67.41
836.026	42.84
836.203	5.97
836.38	38.74
836.556	24.4
836.733	14.17
836.909	40.79
837.086	53.08
837.262	75.6
837.439	59.22
837.616	81.75
837.792	14.17
837.968	-22.7
838.145	24.4
838.321	10.07
838.498	-16.55
838.674	79.7
838.851	8.02
839.027	22.36
839.203	46.93
839.38	44.88
839.556	114.52
839.732	32.6
839.909	-20.65
840.085	26.45
840.261	14.17
840.437	-10.41
840.614	48.98
840.79	69.46
840.966	57.17
841.142	108.37
841.318	71.51
841.494	73.56
841.671	-8.36
841.847	48.98
842.023	36.69
842.199	-28.84
842.375	-4.27
842.551	-77.99
842.727	1.88
842.903	77.65
843.079	-39.08
843.255	34.64
843.431	85.84
843.607	16.21
843.783	-10.41
843.959	12.12
844.134	-57.51
844.31	40.79
844.486	-0.17
844.662	-4.27
844.838	38.74
845.013	28.5
845.189	-10.41
845.365	1.88
845.541	18.26
845.716	18.26
845.892	-39.08
846.068	55.12
846.244	-94.38
846.419	-4.27
846.595	16.21
846.77	30.55
846.946	48.98
847.122	65.36
847.297	40.79
847.473	34.64
847.648	-2.22
847.824	77.65
847.999	5.97
848.175	46.93
848.35	38.74
848.526	24.4
848.701	-30.89
848.876	5.97
849.052	-14.51
849.227	110.42
849.403	-24.75
849.578	-45.23
849.753	-37.03
849.929	32.6
850.104	-14.51
850.279	-10.41
850.454	18.26
850.63	73.56
850.805	61.27
850.98	-22.7
851.155	-26.79
851.33	-10.41
851.505	30.55
851.681	67.41
851.856	24.4
852.031	44.88
852.206	-14.51
852.381	1.88
852.556	18.26
852.731	69.46
852.906	-20.65
853.081	-8.36
853.256	30.55
853.431	-2.22
853.606	-53.42
853.781	-39.08
853.956	34.64
854.131	-53.42
854.305	-24.75
854.48	1.88
854.655	-53.42
854.83	85.84
855.005	-28.84
855.18	-28.84
855.354	-37.03
855.529	-22.7
855.704	-6.31
855.879	-24.75
856.053	16.21
856.228	32.6
856.403	-26.79
856.577	10.07
856.752	-14.51
856.926	-18.6
857.101	-77.99
857.276	-43.18
857.45	20.31
857.625	-0.17
857.799	26.45
857.974	-0.17
858.148	-45.23
858.323	-32.94
858.497	-34.99
858.672	8.02
858.846	-69.8
859.02	-71.85
859.195	-61.61
859.369	-16.55
859.543	5.97
859.718	1.88
859.892	77.65
860.066	-41.13
860.241	-37.03
860.415	14.17
860.589	30.55
860.763	-20.65
860.938	67.41
861.112	14.17
861.286	-6.31
861.46	-41.13
861.634	-30.89
861.808	94.04
861.982	-26.79
862.157	-39.08
862.331	-30.89
862.505	-73.9
862.679	-59.56
862.853	-28.84
863.027	-49.32
863.201	57.17
863.375	-0.17
863.549	-26.79
863.722	14.17
863.896	46.93
864.07	-55.47
864.244	22.36
864.418	-51.37
864.592	85.84
864.766	-34.99
864.939	16.21
865.113	5.97
865.287	-16.55
865.461	-18.6
865.634	10.07
865.808	-43.18
865.982	-82.09
866.156	44.88
866.329	-12.46
866.503	-41.13
866.676	5.97
866.85	-41.13
867.024	14.17
867.197	51.03
867.371	20.31
867.544	38.74
867.718	-45.23
867.891	24.4
868.065	-82.09
868.238	-82.09
868.412	32.6
868.585	-6.31
868.759	-86.19
868.932	-82.09
869.105	-53.42
869.279	-20.65
869.452	18.26
869.625	3.93
869.799	-39.08
869.972	-88.23
870.145	16.21
870.319	-6.31
870.492	-49.32
870.665	-84.14
870.838	-28.84
871.011	-28.84
871.185	-12.46
871.358	-6.31
871.531	-6.31
871.704	-73.9
871.877	16.21
872.05	-6.31
872.223	-22.7
872.396	-12.46
872.569	-69.8
872.742	5.97
872.915	22.36
873.088	5.97
873.261	-10.41
873.434	44.88
873.607	20.31
873.78	-10.41
873.953	-41.13
874.126	-106.67
874.299	-2.22
874.471	-32.94
874.644	-6.31
874.817	-41.13
874.99	-6.31
875.163	16.21
875.335	34.64
875.508	-71.85
875.681	20.31
875.853	-20.65
876.026	16.21
876.199	40.79
876.371	-41.13
876.544	-61.61
876.717	-20.65
876.889	-47.27
877.062	-57.51
877.234	-51.37
877.407	-22.7
877.579	-34.99
877.752	-34.99
877.924	18.26
878.097	-18.6
878.269	-49.32
878.442	-51.37
878.614	-30.89
878.786	-55.47
878.959	5.97
879.131	-32.94
879.303	-41.13
879.476	-30.89
879.648	-39.08
879.82	-63.66
879.993	-24.75
880.165	-80.04
880.337	-32.94
880.509	12.12
880.681	-34.99
880.854	-84.14
881.026	5.97
881.198	-18.6
881.37	-14.51
881.542	48.98
881.714	42.84
881.886	14.17
882.058	-18.6
882.23	73.56
882.402	-10.41
882.574	16.21
882.746	-75.95
882.918	26.45
883.09	36.69
883.262	-30.89
883.434	-12.46
883.606	-39.08
883.778	-26.79
883.95	-22.7
884.122	-67.75
884.293	65.36
884.465	-47.27
884.637	30.55
884.809	18.26
884.98	22.36
885.152	-67.75
885.324	18.26
885.496	-2.22
885.667	-30.89
885.839	-98.47
886.011	-47.27
886.182	20.31
886.354	-41.13
886.525	-49.32
886.697	-82.09
886.869	-24.75
887.04	-10.41
887.212	-12.46
887.383	102.23
887.555	-26.79
887.726	-20.65
887.897	20.31
888.069	-37.03
888.24	5.97
888.412	-32.94
888.583	-69.8
888.754	-28.84
888.926	1.88
889.097	38.74
889.268	-71.85
889.44	-20.65
889.611	-12.46
889.782	-98.47
889.953	3.93
890.125	-20.65
890.296	-24.75
890.467	-57.51
890.638	-63.66
890.809	-34.99
890.98	-12.46
891.151	-69.8
891.323	-16.55
891.494	-14.51
891.665	-14.51
891.836	-43.18
892.007	-51.37
892.178	22.36
892.349	-102.57
892.52	42.84
892.691	10.07
892.862	-14.51
893.032	-30.89
893.203	-22.7
893.374	-26.79
893.545	34.64
893.716	-12.46
893.887	-37.03
894.057	18.26
894.228	-53.42
894.399	-34.99
894.57	-16.55
894.74	-65.71
894.911	-43.18
895.082	-8.36
895.253	1.88
895.423	-98.47
895.594	-10.41
895.764	-43.18
895.935	-59.56
896.106	-43.18
896.276	12.12
896.447	-26.79
896.617	3.93
896.788	-26.79
896.958	-4.27
897.129	-65.71
897.299	-51.37
897.47	18.26
897.64	10.07
897.81	-37.03
897.981	16.21
898.151	-26.79
898.322	-34.99
898.492	-26.79
898.662	5.97
898.832	-30.89
899.003	32.6
899.173	-26.79
899.343	-37.03
899.513	1.88
