Data from USB4F104151__55__12-36-24-756.txt Node

Date: Fri Mar 14 12:36:24 EDT 2025
User: louis
Spectrometer: USB4F10415
Trigger mode: 4
Integration Time (sec): 2.000000E-2
Scans to average: 1
Electric dark correction enabled: true
Nonlinearity correction enabled: false
Boxcar width: 0
XAxis mode: Wavelengths
Number of Pixels in Spectrum: 3648
>>>>>Begin Spectral Data<<<<<
178.204	-97.79
178.424	-97.79
178.644	-97.79
178.864	-83.45
179.084	-108.03
179.304	4.61
179.524	-30.21
179.744	25.09
179.964	45.57
180.184	31.23
180.404	-46.59
180.624	18.94
180.844	53.76
181.064	-28.16
181.283	-42.5
181.503	-24.06
181.723	-7.68
181.943	-11.78
182.163	41.47
182.383	20.99
182.602	-11.78
182.822	6.66
183.042	-1.54
183.262	-13.82
183.482	12.8
183.701	4.61
183.921	20.99
184.141	59.9
184.361	-15.87
184.58	-26.11
184.8	61.95
185.02	10.75
185.239	29.18
185.459	-48.64
185.679	-17.92
185.898	31.23
186.118	76.29
186.338	-34.3
186.557	84.48
186.777	-7.68
186.997	-67.07
187.216	27.14
187.436	8.7
187.655	23.04
187.875	61.95
188.095	-1.54
188.314	66.05
188.534	29.18
188.753	-36.35
188.973	16.9
189.192	25.09
189.412	16.9
189.631	12.8
189.851	-13.82
190.07	84.48
190.29	-24.06
190.509	37.38
190.729	-28.16
190.948	78.33
191.168	55.81
191.387	27.14
191.607	-1.54
191.826	78.33
192.045	-7.68
192.265	-40.45
192.484	-44.54
192.704	33.28
192.923	-85.5
193.142	6.66
193.362	-7.68
193.581	55.81
193.8	-5.63
194.02	80.38
194.239	-19.97
194.458	29.18
194.678	-46.59
194.897	49.66
195.116	-73.21
195.335	-7.68
195.555	-38.4
195.774	10.75
195.993	-28.16
196.212	-17.92
196.432	-28.16
196.651	-13.82
196.87	80.38
197.089	61.95
197.308	-11.78
197.528	-1.54
197.747	0.51
197.966	27.14
198.185	61.95
198.404	33.28
198.623	39.42
198.842	-28.16
199.062	-56.83
199.281	-32.26
199.5	-5.63
199.719	-28.16
199.938	0.51
200.157	16.9
200.376	45.57
200.595	-9.73
200.814	16.9
201.033	70.14
201.252	37.38
201.471	47.62
201.69	-62.98
201.909	0.51
202.128	-24.06
202.347	-19.97
202.566	-17.92
202.785	6.66
203.004	-40.45
203.223	90.62
203.442	0.51
203.661	-28.16
203.879	-60.93
204.098	12.8
204.317	-3.58
204.536	33.28
204.755	2.56
204.974	35.33
205.193	16.9
205.411	35.33
205.63	29.18
205.849	-34.3
206.068	14.85
206.287	37.38
206.505	-19.97
206.724	-13.82
206.943	-22.02
207.162	-71.17
207.381	16.9
207.599	14.85
207.818	0.51
208.037	14.85
208.255	-38.4
208.474	49.66
208.693	33.28
208.911	6.66
209.13	20.99
209.349	-32.26
209.567	-5.63
209.786	43.52
210.005	14.85
210.223	37.38
210.442	-67.07
210.661	80.38
210.879	-24.06
211.098	18.94
211.316	53.76
211.535	66.05
211.753	10.75
211.972	27.14
212.191	29.18
212.409	57.86
212.628	35.33
212.846	-9.73
213.065	-5.63
213.283	84.48
213.502	-48.64
213.72	12.8
213.938	33.28
214.157	57.86
214.375	-50.69
214.594	-44.54
214.812	-24.06
215.031	10.75
215.249	-48.64
215.467	18.94
215.686	0.51
215.904	-32.26
216.122	10.75
216.341	51.71
216.559	-9.73
216.778	18.94
216.996	39.42
217.214	39.42
217.432	29.18
217.651	78.33
217.869	23.04
218.087	41.47
218.306	-15.87
218.524	16.9
218.742	29.18
218.96	14.85
219.179	-11.78
219.397	31.23
219.615	57.86
219.833	49.66
220.051	-15.87
220.27	82.43
220.488	51.71
220.706	64
220.924	-34.3
221.142	-19.97
221.36	-11.78
221.578	-52.74
221.796	-15.87
222.015	23.04
222.233	49.66
222.451	119.29
222.669	-30.21
222.887	102.91
223.105	0.51
223.323	12.8
223.541	10.75
223.759	-58.88
223.977	33.28
224.195	72.19
224.413	14.85
224.631	45.57
224.849	-1.54
225.067	27.14
225.285	-44.54
225.503	0.51
225.721	-11.78
225.939	37.38
226.157	113.15
226.375	92.67
226.592	29.18
226.81	2.56
227.028	-17.92
227.246	133.63
227.464	37.38
227.682	84.48
227.9	66.05
228.117	25.09
228.335	41.47
228.553	47.62
228.771	55.81
228.989	80.38
229.206	-17.92
229.424	14.85
229.642	-48.64
229.86	55.81
230.077	100.86
230.295	0.51
230.513	23.04
230.731	10.75
230.948	-1.54
231.166	37.38
231.384	18.94
231.601	-19.97
231.819	66.05
232.037	-34.3
232.254	-5.63
232.472	-13.82
232.689	-105.98
232.907	-48.64
233.125	-42.5
233.342	-17.92
233.56	-11.78
233.777	-30.21
233.995	4.61
234.213	-3.58
234.43	2.56
234.648	35.33
234.865	-40.45
235.083	74.24
235.3	4.61
235.518	8.7
235.735	-3.58
235.953	4.61
236.17	-22.02
236.388	-58.88
236.605	-24.06
236.822	84.48
237.04	-19.97
237.257	-38.4
237.475	0.51
237.692	59.9
237.909	-15.87
238.127	-1.54
238.344	68.09
238.562	-1.54
238.779	-15.87
238.996	16.9
239.214	43.52
239.431	70.14
239.648	-28.16
239.865	27.14
240.083	31.23
240.3	0.51
240.517	18.94
240.735	33.28
240.952	10.75
241.169	51.71
241.386	20.99
241.603	49.66
241.821	-73.21
242.038	10.75
242.255	41.47
242.472	-5.63
242.689	6.66
242.907	-56.83
243.124	12.8
243.341	-11.78
243.558	-36.35
243.775	-73.21
243.992	-11.78
244.209	-13.82
244.426	64
244.643	47.62
244.86	-56.83
245.078	8.7
245.295	0.51
245.512	20.99
245.729	-65.02
245.946	33.28
246.163	-15.87
246.38	29.18
246.597	33.28
246.814	41.47
247.031	-11.78
247.248	-22.02
247.464	4.61
247.681	-36.35
247.898	31.23
248.115	23.04
248.332	-15.87
248.549	33.28
248.766	45.57
248.983	-9.73
249.2	12.8
249.417	119.29
249.633	18.94
249.85	-1.54
250.067	47.62
250.284	18.94
250.501	70.14
250.717	23.04
250.934	23.04
251.151	-54.78
251.368	4.61
251.585	-7.68
251.801	12.8
252.018	-19.97
252.235	27.14
252.451	-34.3
252.668	41.47
252.885	2.56
253.102	45.57
253.318	0.51
253.535	31.23
253.752	59.9
253.968	-26.11
254.185	64
254.401	12.8
254.618	6.66
254.835	39.42
255.051	-36.35
255.268	16.9
255.484	-5.63
255.701	86.53
255.917	20.99
256.134	4.61
256.351	55.81
256.567	2.56
256.784	-5.63
257	-13.82
257.217	86.53
257.433	-5.63
257.65	-7.68
257.866	64
258.082	-17.92
258.299	-54.78
258.515	-38.4
258.732	43.52
258.948	-48.64
259.165	70.14
259.381	-11.78
259.597	70.14
259.814	51.71
260.03	-19.97
260.246	27.14
260.463	27.14
260.679	20.99
260.895	35.33
261.112	4.61
261.328	41.47
261.544	-42.5
261.761	72.19
261.977	-24.06
262.193	12.8
262.409	59.9
262.626	2.56
262.842	35.33
263.058	-40.45
263.274	49.66
263.49	18.94
263.707	61.95
263.923	27.14
264.139	29.18
264.355	-17.92
264.571	27.14
264.787	41.47
265.004	29.18
265.22	-1.54
265.436	37.38
265.652	-77.31
265.868	35.33
266.084	23.04
266.3	8.7
266.516	16.9
266.732	-17.92
266.948	39.42
267.164	-30.21
267.38	61.95
267.596	-15.87
267.812	33.28
268.028	74.24
268.244	8.7
268.46	35.33
268.676	-46.59
268.892	31.23
269.108	-9.73
269.324	12.8
269.54	47.62
269.756	98.81
269.972	-38.4
270.188	55.81
270.403	-19.97
270.619	0.51
270.835	-1.54
271.051	-73.21
271.267	-15.87
271.483	88.57
271.698	12.8
271.914	-24.06
272.13	23.04
272.346	53.76
272.562	16.9
272.777	16.9
272.993	2.56
273.209	59.9
273.425	18.94
273.64	-15.87
273.856	23.04
274.072	-73.21
274.287	-15.87
274.503	51.71
274.719	10.75
274.934	20.99
275.15	-15.87
275.366	47.62
275.581	-7.68
275.797	-13.82
276.012	18.94
276.228	23.04
276.444	59.9
276.659	37.38
276.875	-65.02
277.09	14.85
277.306	-50.69
277.521	37.38
277.737	8.7
277.952	-3.58
278.168	8.7
278.383	76.29
278.599	4.61
278.814	-22.02
279.03	45.57
279.245	88.57
279.461	43.52
279.676	31.23
279.892	14.85
280.107	23.04
280.322	-62.98
280.538	25.09
280.753	4.61
280.969	-17.92
281.184	-19.97
281.399	-9.73
281.615	-24.06
281.83	18.94
282.045	-40.45
282.26	27.14
282.476	8.7
282.691	53.76
282.906	-38.4
283.122	27.14
283.337	2.56
283.552	37.38
283.767	-34.3
283.983	45.57
284.198	20.99
284.413	4.61
284.628	-13.82
284.843	53.76
285.058	-28.16
285.274	18.94
285.489	-48.64
285.704	90.62
285.919	27.14
286.134	4.61
286.349	27.14
286.564	-5.63
286.779	4.61
286.995	39.42
287.21	37.38
287.425	14.85
287.64	96.77
287.855	33.28
288.07	-24.06
288.285	27.14
288.5	61.95
288.715	25.09
288.93	59.9
289.145	-5.63
289.36	33.28
289.575	-19.97
289.79	55.81
290.004	-24.06
290.219	96.77
290.434	6.66
290.649	8.7
290.864	23.04
291.079	-30.21
291.294	6.66
291.509	61.95
291.724	-17.92
291.938	18.94
292.153	-56.83
292.368	4.61
292.583	49.66
292.798	18.94
293.012	-11.78
293.227	49.66
293.442	16.9
293.657	-5.63
293.871	37.38
294.086	45.57
294.301	4.61
294.516	55.81
294.73	47.62
294.945	-24.06
295.16	-60.93
295.374	20.99
295.589	23.04
295.804	2.56
296.018	-38.4
296.233	47.62
296.447	57.86
296.662	-1.54
296.877	31.23
297.091	23.04
297.306	70.14
297.52	4.61
297.735	70.14
297.949	12.8
298.164	59.9
298.378	0.51
298.593	72.19
298.807	78.33
299.022	4.61
299.236	4.61
299.451	-13.82
299.665	61.95
299.88	23.04
300.094	14.85
300.309	-11.78
300.523	43.52
300.737	41.47
300.952	-1.54
301.166	100.86
301.381	61.95
301.595	-17.92
301.809	-13.82
302.024	0.51
302.238	-9.73
302.452	39.42
302.667	-44.54
302.881	-5.63
303.095	168.45
303.309	-26.11
303.524	2.56
303.738	66.05
303.952	-38.4
304.166	53.76
304.381	-9.73
304.595	10.75
304.809	-58.88
305.023	70.14
305.237	25.09
305.452	4.61
305.666	4.61
305.88	43.52
306.094	92.67
306.308	51.71
306.522	33.28
306.736	55.81
306.95	80.38
307.164	-30.21
307.379	4.61
307.593	-9.73
307.807	76.29
308.021	18.94
308.235	66.05
308.449	-73.21
308.663	-9.73
308.877	92.67
309.091	33.28
309.305	6.66
309.519	41.47
309.733	-19.97
309.947	37.38
310.161	29.18
310.374	-50.69
310.588	100.86
310.802	12.8
311.016	-1.54
311.23	23.04
311.444	-40.45
311.658	-15.87
311.872	66.05
312.085	10.75
312.299	70.14
312.513	102.91
312.727	64
312.941	57.86
313.154	4.61
313.368	-30.21
313.582	43.52
313.796	68.09
314.009	35.33
314.223	92.67
314.437	-9.73
314.651	23.04
314.864	20.99
315.078	4.61
315.292	33.28
315.505	23.04
315.719	18.94
315.933	-9.73
316.146	18.94
316.36	80.38
316.573	12.8
316.787	57.86
317.001	59.9
317.214	-7.68
317.428	33.28
317.641	-52.74
317.855	-24.06
318.068	37.38
318.282	66.05
318.495	16.9
318.709	61.95
318.922	2.56
319.136	29.18
319.349	123.39
319.563	-19.97
319.776	33.28
319.99	-5.63
320.203	90.62
320.417	31.23
320.63	53.76
320.843	35.33
321.057	-75.26
321.27	61.95
321.483	119.29
321.697	88.57
321.91	-13.82
322.124	29.18
322.337	66.05
322.55	-3.58
322.763	25.09
322.977	-13.82
323.19	33.28
323.403	49.66
323.617	10.75
323.83	18.94
324.043	76.29
324.256	-30.21
324.469	39.42
324.683	47.62
324.896	20.99
325.109	80.38
325.322	-81.41
325.535	57.86
325.748	0.51
325.962	45.57
326.175	-34.3
326.388	37.38
326.601	70.14
326.814	-34.3
327.027	29.18
327.24	68.09
327.453	18.94
327.666	61.95
327.879	84.48
328.092	70.14
328.305	4.61
328.518	74.24
328.731	-58.88
328.944	33.28
329.157	-32.26
329.37	37.38
329.583	111.1
329.796	59.9
330.009	-9.73
330.222	61.95
330.435	47.62
330.648	-30.21
330.861	0.51
331.073	2.56
331.286	4.61
331.499	0.51
331.712	61.95
331.925	31.23
332.138	-13.82
332.35	20.99
332.563	29.18
332.776	82.43
332.989	88.57
333.202	49.66
333.414	80.38
333.627	57.86
333.84	82.43
334.053	-7.68
334.265	45.57
334.478	-17.92
334.691	76.29
334.903	-28.16
335.116	41.47
335.329	76.29
335.541	35.33
335.754	43.52
335.966	-54.78
336.179	-3.58
336.392	66.05
336.604	92.67
336.817	-7.68
337.029	12.8
337.242	-1.54
337.454	47.62
337.667	47.62
337.88	29.18
338.092	55.81
338.305	4.61
338.517	33.28
338.729	43.52
338.942	35.33
339.154	37.38
339.367	-67.07
339.579	94.72
339.792	35.33
340.004	45.57
340.217	2.56
340.429	37.38
340.641	72.19
340.854	51.71
341.066	109.05
341.278	64
341.491	100.86
341.703	80.38
341.915	-30.21
342.128	104.96
342.34	25.09
342.552	-34.3
342.764	-5.63
342.977	47.62
343.189	-32.26
343.401	80.38
343.613	55.81
343.826	84.48
344.038	49.66
344.25	10.75
344.462	-28.16
344.674	27.14
344.886	43.52
345.099	57.86
345.311	23.04
345.523	53.76
345.735	4.61
345.947	84.48
346.159	6.66
346.371	78.33
346.583	-36.35
346.795	57.86
347.007	78.33
347.219	47.62
347.431	18.94
347.643	8.7
347.855	80.38
348.067	55.81
348.279	39.42
348.491	39.42
348.703	49.66
348.915	6.66
349.127	39.42
349.339	20.99
349.551	72.19
349.763	-44.54
349.975	27.14
350.187	70.14
350.399	76.29
350.61	-40.45
350.822	6.66
351.034	49.66
351.246	43.52
351.458	41.47
351.669	49.66
351.881	84.48
352.093	129.53
352.305	72.19
352.517	16.9
352.728	66.05
352.94	29.18
353.152	68.09
353.363	-11.78
353.575	59.9
353.787	25.09
353.999	70.14
354.21	25.09
354.422	-22.02
354.633	45.57
354.845	43.52
355.057	29.18
355.268	2.56
355.48	37.38
355.692	39.42
355.903	33.28
356.115	-19.97
356.326	-15.87
356.538	86.53
356.749	64
356.961	57.86
357.172	8.7
357.384	25.09
357.595	18.94
357.807	94.72
358.018	27.14
358.23	16.9
358.441	86.53
358.653	119.29
358.864	88.57
359.075	14.85
359.287	8.7
359.498	25.09
359.709	35.33
359.921	25.09
360.132	16.9
360.344	78.33
360.555	61.95
360.766	92.67
360.977	49.66
361.189	96.77
361.4	4.61
361.611	86.53
361.823	43.52
362.034	-62.98
362.245	-26.11
362.456	29.18
362.667	-17.92
362.879	4.61
363.09	80.38
363.301	-38.4
363.512	25.09
363.723	-34.3
363.935	-9.73
364.146	61.95
364.357	-7.68
364.568	86.53
364.779	111.1
364.99	92.67
365.201	18.94
365.412	55.81
365.623	16.9
365.834	74.24
366.045	-11.78
366.256	18.94
366.467	4.61
366.678	-5.63
366.889	-7.68
367.1	41.47
367.311	23.04
367.522	-44.54
367.733	53.76
367.944	0.51
368.155	-40.45
368.366	8.7
368.577	96.77
368.788	33.28
368.999	78.33
369.209	20.99
369.42	127.49
369.631	47.62
369.842	53.76
370.053	76.29
370.264	37.38
370.474	39.42
370.685	23.04
370.896	76.29
371.107	94.72
371.317	61.95
371.528	-11.78
371.739	25.09
371.95	94.72
372.16	78.33
372.371	12.8
372.582	45.57
372.792	29.18
373.003	27.14
373.214	14.85
373.424	39.42
373.635	29.18
373.846	43.52
374.056	125.44
374.267	35.33
374.477	-38.4
374.688	66.05
374.898	-19.97
375.109	-5.63
375.319	41.47
375.53	72.19
375.74	12.8
375.951	-3.58
376.161	14.85
376.372	4.61
376.582	25.09
376.793	88.57
377.003	-32.26
377.214	27.14
377.424	94.72
377.635	111.1
377.845	14.85
378.055	88.57
378.266	12.8
378.476	-13.82
378.686	59.9
378.897	102.91
379.107	12.8
379.317	92.67
379.528	4.61
379.738	78.33
379.948	16.9
380.158	168.45
380.369	41.47
380.579	98.81
380.789	55.81
380.999	143.87
381.21	18.94
381.42	39.42
381.63	70.14
381.84	76.29
382.05	33.28
382.261	14.85
382.471	84.48
382.681	47.62
382.891	78.33
383.101	41.47
383.311	25.09
383.521	25.09
383.731	76.29
383.941	49.66
384.151	82.43
384.361	-5.63
384.571	104.96
384.781	-11.78
384.991	68.09
385.201	88.57
385.411	53.76
385.621	113.15
385.831	33.28
386.041	45.57
386.251	123.39
386.461	51.71
386.671	61.95
386.881	100.86
387.091	88.57
387.301	66.05
387.511	72.19
387.72	109.05
387.93	78.33
388.14	18.94
388.35	133.63
388.56	90.62
388.769	84.48
388.979	94.72
389.189	39.42
389.399	68.09
389.609	129.53
389.818	111.1
390.028	55.81
390.238	84.48
390.447	12.8
390.657	96.77
390.867	51.71
391.076	53.76
391.286	84.48
391.496	-11.78
391.705	43.52
391.915	98.81
392.125	174.59
392.334	47.62
392.544	102.91
392.753	47.62
392.963	43.52
393.172	137.73
393.382	4.61
393.591	184.83
393.801	86.53
394.01	119.29
394.22	45.57
394.429	84.48
394.639	47.62
394.848	92.67
395.058	41.47
395.267	96.77
395.477	57.86
395.686	82.43
395.895	147.97
396.105	86.53
396.314	115.2
396.524	84.48
396.733	-19.97
396.942	82.43
397.152	141.82
397.361	193.02
397.57	96.77
397.78	125.44
397.989	135.68
398.198	178.69
398.407	115.2
398.617	174.59
398.826	74.24
399.035	57.86
399.244	49.66
399.453	66.05
399.663	96.77
399.872	115.2
400.081	139.77
400.29	92.67
400.499	111.1
400.708	170.49
400.917	143.87
401.127	100.86
401.336	78.33
401.545	152.06
401.754	174.59
401.963	162.3
402.172	82.43
402.381	70.14
402.59	90.62
402.799	223.74
403.008	170.49
403.217	209.4
403.426	258.56
403.635	107.01
403.844	68.09
404.053	219.64
404.262	174.59
404.471	268.8
404.68	178.69
404.888	256.51
405.097	227.84
405.306	197.12
405.515	162.3
405.724	223.74
405.933	246.27
406.142	180.73
406.35	240.12
406.559	217.6
406.768	248.32
406.977	201.21
407.185	221.69
407.394	266.75
407.603	227.84
407.812	293.37
408.02	389.63
408.229	328.19
408.438	276.99
408.646	342.52
408.855	371.19
409.064	424.44
409.272	373.24
409.481	377.34
409.69	379.39
409.898	346.62
410.107	442.87
410.315	461.3
410.524	432.63
410.733	451.07
410.941	440.83
411.15	555.51
411.358	522.74
411.567	586.23
411.775	516.6
411.984	504.31
412.192	676.34
412.401	702.97
412.609	674.29
412.818	633.33
413.026	709.11
413.234	637.43
413.443	721.4
413.651	745.97
413.86	760.31
414.068	813.56
414.276	913.91
414.485	903.67
414.693	963.06
414.901	973.3
415.11	946.67
415.318	1016.3
415.526	958.96
415.734	1102.32
415.943	1112.56
416.151	1200.62
416.359	1204.72
416.567	1184.24
416.776	1255.92
416.984	1374.7
417.192	1354.22
417.4	1407.47
417.608	1409.51
417.817	1479.15
418.025	1497.58
418.233	1714.66
418.441	1538.54
418.649	1796.58
418.857	1823.2
419.065	1841.64
419.273	1792.48
419.481	2056.67
419.689	2240.99
419.897	2175.45
420.105	2157.02
420.313	2165.21
420.521	2341.34
420.729	2279.9
420.937	2456.03
421.145	2568.66
421.353	2699.73
421.561	2853.33
421.769	2863.57
421.977	3082.7
422.185	2970.07
422.393	3062.23
422.601	3262.93
422.809	3373.52
423.017	3350.99
423.224	3529.16
423.432	3742.15
423.64	3645.9
423.848	3981.76
424.056	3824.07
424.263	4039.11
424.471	4225.47
424.679	4209.09
424.887	4438.46
425.094	4557.24
425.302	4583.87
425.51	4809.14
425.718	4948.4
425.925	5073.33
426.133	5208.5
426.341	5276.08
426.548	5706.15
426.756	5650.86
426.964	5824.94
427.171	6304.16
427.379	6322.59
427.586	6429.09
427.794	6633.88
428.001	6879.64
428.209	7197.07
428.417	7033.24
428.624	7365.01
428.832	7756.17
429.039	7496.08
429.247	7532.94
429.454	8274.31
429.662	8900.98
429.869	8337.79
430.076	8833.4
430.284	8450.43
430.491	8950.14
430.699	9474.42
430.906	9415.02
431.114	9564.53
431.321	9951.59
431.528	10350.95
431.736	10891.61
431.943	11313.49
432.15	11116.89
432.358	11153.75
432.565	11805
432.772	11686.22
432.979	12286.28
433.187	12417.35
433.394	12785.98
433.601	13664.56
433.808	13764.91
434.016	13390.13
434.223	14100.78
434.43	14928.16
434.637	14569.76
434.844	15417.62
435.052	15769.87
435.259	15624.47
435.466	15851.79
435.673	15735.06
435.88	16531.72
436.087	17592.56
436.294	17496.31
436.501	17189.11
436.708	17715.44
436.915	18565.35
437.122	19122.4
437.329	18976.99
437.537	19701.97
437.743	19880.14
437.95	19704.02
438.157	20897.99
438.364	21381.31
438.571	21436.6
438.778	21455.03
438.985	23697.56
439.192	22724.77
439.399	23357.6
439.606	22677.67
439.813	24064.14
440.02	25690.23
440.227	24975.49
440.433	24955.01
440.64	25526.39
440.847	25645.18
441.054	26286.19
441.261	28342.35
441.467	27455.58
441.674	27842.65
441.881	29157.44
442.088	29354.05
442.294	28954.69
442.501	29898.81
442.708	30324.79
442.914	31402.02
443.121	32876.55
443.328	31971.35
443.534	34232.31
443.741	33175.56
443.948	32819.21
444.154	34955.24
444.361	34867.18
444.568	35330.02
444.774	35229.67
444.981	35575.78
445.187	36718.54
445.394	38377.4
445.6	37402.57
445.807	41344.91
446.013	39444.39
446.22	40490.9
446.426	41701.25
446.633	42241.92
446.839	43603.81
447.046	41777.03
447.252	43972.45
447.459	44152.67
447.665	43931.49
447.871	46063.43
448.078	47767.34
448.284	45403.98
448.491	46696.25
448.697	48400.16
448.903	49645.32
449.11	49415.95
449.316	48625.43
449.522	49878.79
449.728	50855.67
449.935	51558.13
450.141	51136.24
450.347	52293.35
450.553	50878.2
450.76	51726.06
450.966	53055.19
451.172	52367.07
451.378	53966.54
451.584	53059.29
451.791	54132.42
451.997	53780.17
452.203	54712
452.409	54712
452.615	54714.05
452.821	52782.81
453.027	52174.56
453.233	54875.83
453.44	52618.97
453.646	53286.61
453.852	53952.2
454.058	54507.2
454.264	52694.75
454.47	54142.66
454.676	52700.89
454.882	54453.95
455.088	49852.17
455.294	50734.84
455.5	51658.48
455.705	52006.63
455.911	49614.6
456.117	49276.69
456.323	48482.08
456.529	46155.58
456.735	47861.54
456.941	47116.08
457.147	45778.76
457.352	44556.12
457.558	44152.67
457.764	44072.8
457.97	43018.1
458.176	42463.1
458.381	42499.96
458.587	40443.8
458.793	40380.31
458.999	38178.75
459.204	41133.96
459.41	40382.36
459.616	37169.1
459.821	37445.57
460.027	37261.26
460.233	36347.86
460.438	34754.54
460.644	35260.39
460.85	33433.6
461.055	33112.07
461.261	33011.72
461.466	30390.32
461.672	29626.43
461.878	31365.15
462.083	29794.36
462.289	28928.07
462.494	28919.88
462.7	27580.51
462.905	26990.69
463.111	27600.99
463.316	27795.54
463.522	27009.12
463.727	27392.09
463.932	27119.71
464.138	26622.06
464.343	26929.25
464.549	26384.49
464.754	27228.26
464.959	26943.59
465.165	26894.44
465.37	25516.15
465.575	25135.23
465.781	25993.33
465.986	26286.19
466.191	25276.54
466.397	24449.16
466.602	23363.74
466.807	24088.72
467.012	24365.2
467.218	24232.08
467.423	23926.93
467.628	24209.55
467.833	25081.99
468.038	23924.88
468.244	23689.37
468.449	24381.58
468.654	23703.7
468.859	23496.86
469.064	23210.14
469.269	22335.66
469.474	22503.59
469.679	23308.44
469.885	22374.57
470.09	22847.65
470.295	22585.51
470.5	22180.01
470.705	21956.78
470.91	21700.79
471.115	21467.32
471.32	21577.91
471.525	21459.13
471.73	21326.01
471.935	20850.88
472.139	20572.36
472.344	20433.1
472.549	20779.2
472.754	20426.95
472.959	19704.02
473.164	19595.48
473.369	19331.29
473.574	19814.61
473.778	19773.65
473.983	19275.99
474.188	19423.45
474.393	18583.78
474.598	18346.22
474.802	18510.05
475.007	18352.36
475.212	18442.47
475.417	17742.07
475.621	17611
475.826	17664.24
476.031	17402.1
476.235	17031.42
476.44	17197.31
476.645	16732.42
476.849	16734.46
477.054	16738.56
477.259	16445.7
477.463	16683.27
477.668	16163.08
477.872	16333.06
478.077	15794.45
478.282	15673.62
478.486	15735.06
478.691	15624.47
478.895	15384.85
479.1	15233.3
479.304	15196.44
479.509	14973.21
479.713	15403.28
479.918	14743.84
480.122	14604.58
480.326	14792.99
480.531	14723.36
480.735	14418.21
480.94	14469.41
481.144	14858.53
481.348	14389.54
481.553	14651.68
481.757	14115.11
481.961	14362.92
482.166	14313.77
482.37	14364.96
482.574	14049.58
482.778	14045.48
482.983	14553.38
483.187	14178.6
483.391	14125.35
483.595	14016.81
483.8	13990.19
484.004	14151.98
484.208	14338.34
484.412	14098.73
484.616	14264.61
484.821	14178.6
485.025	14008.62
485.229	14201.13
485.433	14170.41
485.637	13785.39
485.841	13977.9
486.045	13984.04
486.249	14287.14
486.453	14022.95
486.657	14092.58
486.861	14164.26
487.065	13674.8
487.269	14039.34
487.473	13769.01
487.677	14274.85
487.881	14037.29
488.085	14291.24
488.289	14172.46
488.493	14059.82
488.697	14074.15
488.901	14258.47
489.105	14170.41
489.309	14215.46
489.512	14377.25
489.716	14465.32
489.92	14405.92
490.124	13994.28
490.328	14295.33
490.531	14307.62
490.735	14348.58
490.939	14653.73
491.143	14348.58
491.346	14539.04
491.55	14635.3
491.754	14559.52
491.958	14786.85
492.161	14723.36
492.365	14883.1
492.569	14702.88
492.772	14719.26
492.976	14958.88
493.18	15028.51
493.383	15096.09
493.587	15157.53
493.79	15352.09
493.994	15347.99
494.197	15264.02
494.401	15477.01
494.605	15669.52
494.808	15833.36
495.012	16132.36
495.215	15964.43
495.419	16044.3
495.622	16103.69
495.825	16410.89
496.029	16417.03
496.232	16470.28
496.436	16513.28
496.639	17027.32
496.843	17053.95
497.046	17246.46
497.249	17264.89
497.453	17246.46
497.656	17342.71
497.859	17621.24
498.063	17871.09
498.266	18221.29
498.469	18028.78
498.673	18151.66
498.876	18819.3
499.079	18729.19
499.282	18716.9
499.485	19298.52
499.689	19380.44
499.892	19398.87
500.095	19677.4
500.298	20291.79
500.501	19984.59
500.705	20349.13
500.908	20728
501.111	20777.15
501.314	20613.32
501.517	21180.6
501.72	21330.11
501.923	21487.8
502.126	21952.69
502.329	22094
502.532	22544.55
502.735	22266.03
502.938	23173.28
503.141	22735.01
503.344	23204
503.547	23564.44
503.75	23802
503.953	24000.66
504.156	24092.82
504.359	24365.2
504.562	24731.78
504.765	25239.68
504.968	25133.18
505.17	25460.86
505.373	25741.43
505.576	26208.37
505.779	26167.41
505.982	26476.65
506.185	27019.36
506.387	27312.22
506.59	27301.98
506.793	28002.39
506.996	27781.21
507.198	28242
507.401	28622.92
507.604	28835.91
507.807	29016.13
508.009	29186.11
508.212	29521.98
508.415	30281.78
508.617	30163
508.82	30480.43
509.022	30339.12
509.225	31297.57
509.428	30945.32
509.63	31617.05
509.833	32000.02
510.035	32688.14
510.238	32190.48
510.44	32825.36
510.643	33234.95
510.845	33349.64
511.048	33349.64
511.25	33751.04
511.453	34228.21
511.655	35510.24
511.858	34754.54
512.06	35063.78
512.262	35583.97
512.465	35719.13
512.667	36222.94
512.87	36915.15
513.072	36405.2
513.274	37392.33
513.477	37382.09
513.679	38000.57
513.881	38250.42
514.084	38770.61
514.286	38193.08
514.488	39061.42
514.69	39907.23
514.893	39860.13
515.095	40325.02
515.297	40294.3
515.499	40462.23
515.701	41095.05
515.904	41586.57
516.106	41727.88
516.308	41848.71
516.51	42588.02
516.712	42459
516.914	42872.69
517.116	43444.07
517.318	43806.56
517.52	44054.37
517.722	44085.09
517.925	44803.92
518.127	45442.89
518.329	45115.22
518.531	45086.54
518.733	45659.98
518.935	46442.3
519.136	46485.31
519.338	46999.35
519.54	47105.84
519.742	47517.48
519.944	47849.25
520.146	48688.92
520.348	48858.9
520.55	48752.41
520.752	49245.97
520.954	50177.79
521.155	49487.63
521.357	50366.21
521.559	50458.37
521.761	51324.66
521.963	50779.9
522.164	51394.29
522.366	51638
522.568	51818.22
522.77	52233.95
522.971	52895.45
523.173	52180.71
523.375	53114.58
523.576	53534.42
523.778	53128.92
523.98	53798.6
524.181	53964.49
524.383	53962.44
524.584	54595.26
524.786	54228.68
524.988	55015.1
525.189	55127.73
525.391	55584.43
525.592	55383.73
525.794	56309.41
525.995	56415.91
526.197	55885.48
526.398	55967.4
526.6	56180.39
526.801	56805.02
527.003	56944.28
527.204	57202.33
527.406	57018.01
527.607	57382.55
527.808	57783.95
528.01	56757.92
528.211	57357.97
528.412	58551.94
528.614	57996.94
528.815	58463.88
529.016	58666.62
529.218	58328.71
529.419	58457.73
529.62	58678.91
529.822	58857.09
530.023	58257.03
530.224	58705.54
530.425	58553.99
530.626	58478.21
530.828	58336.9
531.029	59672.18
531.23	58859.13
531.431	58869.37
531.632	59373.17
531.833	59299.45
532.035	59045.5
532.236	59547.25
532.437	59532.92
532.638	59082.36
532.839	59586.16
533.04	59825.78
533.241	59420.28
533.442	60032.62
533.643	59823.73
533.844	59758.19
534.045	59993.71
534.246	59414.13
534.447	59868.78
534.648	59741.81
534.849	59659.89
535.05	59461.24
535.251	59823.73
535.451	59473.52
535.652	59688.56
535.853	59481.72
536.054	60216.94
536.255	59879.02
536.456	59389.56
536.657	60460.65
536.857	59491.96
537.058	59758.19
537.259	60180.07
537.46	59917.93
537.66	59405.94
537.861	59666.03
538.062	59737.71
538.263	59743.86
538.463	59428.47
538.664	59821.68
538.865	59885.17
539.065	59813.49
539.266	59610.74
539.466	59831.92
539.667	59342.45
539.868	59928.17
540.068	59760.24
540.269	59637.36
540.469	59930.22
540.67	59500.15
540.87	59637.36
541.071	59690.61
541.271	59782.77
541.472	59432.57
541.672	59293.3
541.873	59416.18
542.073	58951.29
542.274	59864.69
542.474	59651.7
542.675	59283.06
542.875	59844.21
543.075	59184.76
543.276	59276.92
543.476	59999.85
543.676	59479.67
543.877	59737.71
544.077	59385.46
544.277	59283.06
544.478	59188.86
544.678	59412.09
544.878	59305.59
545.078	59129.47
545.279	59078.27
545.479	59205.24
545.679	59207.29
545.879	59590.26
546.079	59172.47
546.28	59065.98
546.48	59160.19
546.68	59195
546.88	59469.43
547.08	59233.91
547.28	59086.46
547.48	58752.64
547.68	58887.81
547.88	58771.07
548.081	59172.47
548.281	58795.65
548.481	59086.46
548.681	59156.09
548.881	59213.43
549.081	58699.39
549.28	58844.8
549.48	58936.96
549.68	58840.7
549.88	59221.62
550.08	58771.07
550.28	58713.73
550.48	58599.04
550.68	58992.25
550.88	58640
551.08	58709.63
551.279	58803.84
551.479	58594.95
551.679	58955.39
551.879	58623.62
552.079	59192.95
552.278	58822.27
552.478	58136.2
552.678	58439.3
552.878	59154.04
553.077	58668.67
553.277	58085
553.477	59088.51
553.676	58246.79
553.876	58633.86
554.076	58289.8
554.275	58510.98
554.475	58005.13
554.674	58513.03
554.874	58224.26
555.074	58279.56
555.273	58314.37
555.473	58844.8
555.672	57960.08
555.872	58293.89
556.071	57943.69
556.271	58529.41
556.47	57841.29
556.67	57636.5
556.869	57726.61
557.068	57933.45
557.268	57890.44
557.467	57734.8
557.667	57788.05
557.866	57697.94
558.065	57585.3
558.265	57214.61
558.464	56712.86
558.663	58089.1
558.863	57032.35
559.062	58031.75
559.261	57286.29
559.461	58242.7
559.66	56897.18
559.859	57392.79
560.058	57067.16
560.258	57001.63
560.457	56667.81
560.656	57374.36
560.855	56979.1
561.054	57106.07
561.253	56344.23
561.453	56757.92
561.652	56792.73
561.851	56788.64
562.05	56667.81
562.249	55688.88
562.448	57448.08
562.647	56731.29
562.846	56442.53
563.045	56397.48
563.244	55936.68
563.443	56915.61
563.642	55891.63
563.841	56080.04
564.04	55703.21
564.239	56145.58
564.438	55727.79
564.637	56252.07
564.836	55809.71
565.035	55500.47
565.234	55721.65
565.432	55668.4
565.631	55234.23
565.83	55232.18
566.029	55506.61
566.228	55078.58
566.427	55396.02
566.625	54810.3
566.824	54881.98
567.023	55187.13
567.222	54372.03
567.42	54875.83
567.619	54562.5
567.818	54621.89
568.016	54423.23
568.215	54836.92
568.414	54179.53
568.612	54351.55
568.811	54001.35
569.01	54386.37
569.208	53503.7
569.407	54236.87
569.605	53612.24
569.804	53984.97
570.002	53421.78
570.201	53855.95
570.4	53237.46
570.598	53141.21
570.797	52907.74
570.995	53464.78
571.193	52647.64
571.392	52797.15
571.59	52872.92
571.789	52748
571.987	52524.77
572.186	52897.5
572.384	52842.2
572.582	52821.72
572.781	52352.74
572.979	51664.62
573.177	52029.16
573.376	52164.32
573.574	51621.61
573.772	52082.41
573.971	51920.62
574.169	51437.3
574.367	51508.97
574.565	51461.87
574.763	51267.31
574.962	51056.37
575.16	50628.35
575.358	51181.3
575.556	50562.81
575.754	51113.72
575.952	50351.87
576.151	50986.74
576.349	49948.42
576.547	50163.46
576.745	50620.16
576.943	50388.74
577.141	50155.27
577.339	49907.46
577.537	50093.83
577.735	49798.92
577.933	49407.76
578.131	49491.72
578.329	49399.57
578.527	49041.17
578.725	48815.9
578.923	49686.28
579.121	48713.5
579.319	48975.64
579.516	49504.01
579.714	48625.43
579.912	48965.4
580.11	48848.66
580.308	48639.77
580.506	48002.85
580.704	47853.35
580.901	48353.05
581.099	48324.38
581.297	47720.23
581.495	47955.75
581.692	47841.06
581.89	47558.44
582.088	47761.19
582.285	47327.02
582.483	47474.48
582.681	47302.45
582.878	47488.81
583.076	46712.63
583.274	47269.68
583.471	46393.15
583.669	46843.7
583.866	46466.87
584.064	46786.36
584.262	46049.09
584.459	46634.81
584.657	46008.13
584.854	46405.44
585.052	45369.16
585.249	45754.18
585.447	45997.89
585.644	45406.03
585.841	45344.59
586.039	45846.34
586.236	45197.13
586.434	44867.41
586.631	45043.54
586.828	45145.94
587.026	45031.25
587.223	45064.02
587.42	44453.72
587.618	44418.91
587.815	43997.02
588.012	43900.77
588.21	43751.27
588.407	44306.27
588.604	43917.15
588.801	44003.17
588.999	43632.49
589.196	43235.18
589.393	43396.97
589.59	43460.46
589.787	43339.63
589.984	43255.66
590.182	42747.76
590.379	43212.65
590.576	42809.2
590.773	42743.67
590.97	42493.82
591.167	42643.32
591.364	41832.32
591.561	42266.49
591.758	41596.81
591.955	41928.58
592.152	42151.8
592.349	41529.22
592.546	41703.3
592.743	41633.67
592.94	41009.04
593.137	41361.29
593.334	41752.45
593.531	40816.53
593.727	41021.33
593.924	41449.35
594.121	40443.8
594.318	40812.43
594.515	40404.89
594.712	40980.37
594.908	40175.51
595.105	40310.68
595.302	39923.61
595.499	40298.39
595.696	40146.84
595.892	39489.45
596.089	40109.98
596.286	39731.11
596.482	39229.35
596.679	39911.33
596.876	39780.26
597.072	38963.12
597.269	39563.17
597.466	38811.57
597.662	38807.47
597.859	38649.78
598.055	38967.21
598.252	38838.19
598.448	38234.04
598.645	37992.38
598.841	38279.1
599.038	38223.8
599.234	38117.31
599.431	37947.32
599.627	37435.33
599.824	37808.06
600.02	37304.26
600.217	37791.68
600.413	37615.55
600.609	37054.41
600.806	36833.23
601.002	37216.2
601.198	36909
601.395	36689.87
601.591	36747.22
601.787	36620.24
601.984	36558.8
602.18	36788.17
602.376	36392.92
602.572	35981.27
602.769	36216.79
602.965	35618.78
603.161	35837.92
603.357	35581.92
603.553	35874.78
603.75	35729.37
603.946	35391.46
604.142	35563.49
604.338	34887.66
604.534	35305.45
604.73	34707.44
604.926	34871.28
605.122	35196.9
605.318	34568.18
605.514	34549.74
605.71	34578.42
605.906	34707.44
606.102	34852.84
606.298	34381.81
606.494	34201.59
606.69	34455.54
606.886	34234.36
607.082	33855.48
607.278	33886.2
607.474	33609.73
607.67	34152.44
607.866	33523.71
608.062	33847.29
608.257	33529.86
608.453	33458.18
608.649	33693.69
608.845	33499.14
609.041	33345.54
609.236	33368.07
609.432	33298.44
609.628	33257.48
609.824	33105.93
610.019	32413.71
610.215	33114.12
610.411	32684.05
610.606	32749.58
610.802	32772.11
610.998	32632.85
611.193	32376.85
611.389	32401.43
611.584	32155.67
611.78	32118.81
611.976	32331.79
612.171	32247.83
612.367	32585.74
612.562	32208.92
612.758	31930.39
612.953	31811.61
613.149	32376.85
613.344	31479.84
613.539	32245.78
613.735	31907.87
613.93	31903.77
614.126	31537.18
614.321	32036.89
614.517	31473.7
614.712	31373.35
614.907	31567.9
615.103	31217.7
615.298	31002.66
615.493	31584.29
615.688	31154.21
615.884	31776.8
616.079	30887.98
616.274	31113.25
616.47	31064.1
616.665	31322.15
616.86	30603.31
617.055	30951.46
617.25	30505.01
617.445	31213.6
617.641	30357.55
617.836	30883.88
618.031	30470.19
618.226	30621.74
618.421	30472.24
618.616	30472.24
618.811	29632.57
619.006	30234.67
619.201	29571.13
619.396	29577.28
619.591	29169.73
619.786	29902.9
619.981	29366.34
620.176	29182.02
620.371	29263.94
620.566	29245.51
620.761	28665.93
620.956	29093.96
621.151	28604.49
621.346	28725.32
621.541	28246.1
621.735	28573.77
621.93	27301.98
622.125	28430.41
622.32	27717.72
622.515	27930.71
622.709	27424.86
622.904	27433.05
623.099	27371.61
623.294	27494.49
623.488	26914.92
623.683	27234.4
623.878	26587.24
624.072	26531.95
624.267	26753.13
624.462	26542.19
624.656	26259.57
624.851	26278
625.046	25983.09
625.24	25827.45
625.435	25714.81
625.629	25831.54
625.824	25534.59
626.018	25458.81
626.213	24785.03
626.407	25249.92
626.602	24930.44
626.796	24995.97
626.991	24860.8
627.185	24813.7
627.38	24281.23
627.574	24141.97
627.768	24148.11
627.963	23920.79
628.157	23785.62
628.352	24033.43
628.546	23591.06
628.74	23490.71
628.935	23398.55
629.129	23367.84
629.323	23122.08
629.517	23312.54
629.712	23144.61
629.906	23099.55
630.1	22329.52
630.294	22567.08
630.489	22483.11
630.683	22673.57
630.877	22145.2
631.071	22102.19
631.265	21971.12
631.459	21790.9
631.653	21674.17
631.848	21541.05
632.042	21227.71
632.236	21616.82
632.43	21350.59
632.624	21498.04
632.818	20959.42
633.012	20668.61
633.206	20734.15
633.4	20873.41
633.594	20326.6
633.788	20709.57
633.982	20506.82
634.176	20310.22
634.369	20422.86
634.563	20017.36
634.757	20226.25
634.951	20076.75
635.145	20359.37
635.339	20031.69
635.533	19628.24
635.726	19822.8
635.92	19325.15
636.114	19314.91
636.308	19394.78
636.501	19282.14
636.695	19040.48
636.889	18974.94
637.083	19009.76
637.276	18802.91
637.47	18768.1
637.664	18712.8
637.857	18563.3
638.051	18487.53
638.244	18354.41
638.438	18245.87
638.632	18366.7
638.825	18018.54
639.019	17991.92
639.212	17950.96
639.406	17713.39
639.599	17723.63
639.793	17789.17
639.986	17467.64
640.18	17320.18
640.373	17404.15
640.567	16894.21
640.76	17246.46
640.954	17049.85
641.147	16865.53
641.34	16963.84
641.534	16849.15
641.727	16812.29
641.92	16654.59
642.114	16638.21
642.307	16529.67
642.5	16380.17
642.694	16388.36
642.887	16025.87
643.08	16140.55
643.273	16128.27
643.467	15933.71
643.66	15866.13
643.853	15819.02
644.046	15364.37
644.239	15698.19
644.432	15556.88
644.626	15423.76
644.819	15280.41
645.012	15378.71
645.205	15079.71
645.398	15206.68
645.591	14993.69
645.784	15067.42
645.977	14903.58
646.17	14700.83
646.363	14739.74
646.556	14688.54
646.749	14784.8
646.942	14510.37
647.135	14293.29
647.328	14262.57
647.521	14233.89
647.714	13900.08
647.907	14113.06
648.099	13977.9
648.292	13977.9
648.485	13805.87
648.678	13695.28
648.871	13752.62
649.064	13682.99
649.256	13766.96
649.449	13439.28
649.642	13611.31
649.835	13422.9
650.027	13295.93
650.22	13211.96
650.413	13273.4
650.605	13097.27
650.798	12980.54
650.991	13017.4
651.183	13019.45
651.376	12831.04
651.568	12831.04
651.761	12722.49
651.954	12517.7
652.146	12736.83
652.339	12382.53
652.531	12353.86
652.724	12413.25
652.916	11962.7
653.109	12173.64
653.301	12157.25
653.494	12185.93
653.686	12118.34
653.879	12124.49
654.071	11954.51
654.263	11901.26
654.456	11815.24
654.648	11755.85
654.84	11616.59
655.033	11575.63
655.225	11610.45
655.417	11630.93
655.61	11280.72
655.802	11506
655.994	11307.35
656.186	11309.4
656.379	11178.33
656.571	11073.88
656.763	11104.6
656.955	10881.37
657.148	11106.65
657.34	10797.4
657.532	10819.93
657.724	10881.37
657.916	10887.51
658.108	10662.24
658.3	10660.19
658.492	10803.55
658.684	10600.8
658.876	10408.29
659.068	10514.78
659.26	10396
659.452	10342.75
659.644	10211.68
659.836	9992.55
660.028	10183.01
660.22	10269.03
660.412	9830.76
660.604	10209.64
660.796	9896.3
660.988	9816.43
661.18	9742.7
661.372	9754.99
661.563	9730.41
661.755	9490.8
661.947	9777.51
662.139	9638.25
662.331	9253.23
662.522	9177.46
662.714	9382.26
662.906	9320.82
663.097	9382.26
663.289	9093.49
663.481	9247.09
663.673	9286
663.864	9154.93
664.056	9087.35
664.247	9122.16
664.439	8817.02
664.631	8919.42
664.822	8853.88
665.014	8825.21
665.205	8943.99
665.397	8733.05
665.588	8644.99
665.78	8786.3
665.971	8814.97
666.163	8632.7
666.354	8661.37
666.546	8655.23
666.737	8362.37
666.929	8380.8
667.12	8319.36
667.311	8335.74
667.503	8233.35
667.694	8458.62
667.885	8100.23
668.077	8345.98
668.268	8173.96
668.459	8249.73
668.651	8077.7
668.842	8194.43
669.033	7950.73
669.224	7866.76
669.416	7981.45
669.607	7897.48
669.798	7784.84
669.989	8014.21
670.18	7815.56
670.371	7852.42
670.563	7817.61
670.754	7754.12
670.945	7680.39
671.136	7614.86
671.327	7506.32
671.518	7299.47
671.709	7461.26
671.9	7436.69
672.091	7477.65
672.282	7338.38
672.473	7559.56
672.664	7465.36
672.855	7338.38
673.046	7338.38
673.237	7287.18
673.428	7381.39
673.619	7158.16
673.809	7125.4
674	7168.4
674.191	6992.28
674.382	6928.79
674.573	7111.06
674.764	6908.31
674.954	6918.55
675.145	6951.32
675.336	6961.56
675.527	7008.66
675.717	6916.5
675.908	6861.21
676.099	6828.44
676.289	6986.13
676.48	6668.7
676.671	6556.06
676.861	6734.23
677.052	6576.54
677.243	6527.39
677.433	6607.26
677.624	6597.02
677.814	6539.68
678.005	6533.53
678.195	6465.95
678.386	6511
678.576	6420.89
678.767	6576.54
678.957	6375.84
679.148	6400.41
679.338	6244.77
679.529	6355.36
679.719	6255.01
679.909	6312.35
680.1	6150.56
680.29	6255.01
680.481	5958.05
680.671	6273.44
680.861	6140.32
681.052	6216.1
681.242	6123.94
681.432	6101.41
681.622	6068.64
681.813	6058.4
682.003	6138.27
682.193	6019.49
682.383	6039.97
682.573	5837.22
682.764	5933.48
682.954	6091.17
683.144	5876.13
683.334	5964.2
683.524	5863.85
683.714	5876.13
683.904	5753.26
684.094	5792.17
684.284	5736.87
684.474	5790.12
684.664	5695.91
684.854	5837.22
685.044	5640.62
685.234	5734.82
685.424	5657
685.614	5601.71
685.804	5613.99
685.994	5673.39
686.184	5425.58
686.374	5384.62
686.564	5546.41
686.753	5550.51
686.943	5515.69
687.133	5527.98
687.323	5366.19
687.513	5431.73
687.702	5333.42
687.892	5280.18
688.082	5155.25
688.272	5200.3
688.461	5265.84
688.651	5247.41
688.841	5233.07
689.03	5321.13
689.22	5231.02
689.41	5108.15
689.599	5140.91
689.789	4948.4
689.979	4972.98
690.168	5124.53
690.358	4981.17
690.547	5005.75
690.737	5007.8
690.926	4932.02
691.116	4680.12
691.305	4962.74
691.495	4968.88
691.684	4809.14
691.874	4946.36
692.063	4868.53
692.252	4823.48
692.442	4891.06
692.631	4680.12
692.82	4571.58
693.01	4604.35
693.199	4899.25
693.388	4606.39
693.578	4647.35
693.767	4647.35
693.956	4641.21
694.146	4608.44
694.335	4448.7
694.524	4624.83
694.713	4610.49
694.902	4497.85
695.092	4510.14
695.281	4379.07
695.47	4504
695.659	4344.25
695.848	4460.99
696.037	4350.4
696.226	4303.29
696.415	4262.33
696.604	4397.5
696.793	4317.63
696.982	4354.49
697.171	4315.58
697.36	4194.75
697.549	4239.81
697.738	4178.37
697.927	4172.22
698.116	4352.45
698.305	4235.71
698.494	4225.47
698.683	4137.41
698.872	4106.69
699.061	4176.32
699.25	4157.89
699.438	4127.17
699.627	4069.83
699.816	4057.54
700.005	4170.18
700.193	4067.78
700.382	3940.8
700.571	3940.8
700.76	4178.37
700.948	4035.01
701.137	3926.47
701.326	4022.72
701.514	3842.5
701.703	4022.72
701.892	3885.51
702.08	4039.11
702.269	4047.3
702.457	3873.22
702.646	3834.31
702.834	3799.49
703.023	3965.38
703.212	3869.12
703.4	3783.11
703.589	3850.69
703.777	3830.21
703.965	3772.87
704.154	3817.93
704.342	3742.15
704.531	3807.69
704.719	3832.26
704.907	3672.52
705.096	3738.05
705.284	3666.38
705.472	3717.58
705.661	3699.14
705.849	3754.44
706.037	3684.81
706.226	3756.49
706.414	3615.18
706.602	3664.33
706.79	3586.51
706.979	3625.42
707.167	3674.57
707.355	3613.13
707.543	3602.89
707.731	3719.62
707.919	3606.98
708.107	3475.91
708.296	3578.31
708.484	3553.74
708.672	3582.41
708.86	3498.44
709.048	3647.94
709.236	3494.35
709.424	3627.46
709.612	3461.58
709.8	3508.68
709.988	3463.63
710.176	3447.24
710.364	3494.35
710.551	3504.59
710.739	3672.52
710.927	3523.02
711.115	3535.31
711.303	3418.57
711.491	3375.56
711.679	3332.56
711.866	3396.04
712.054	3279.31
712.242	3465.68
712.43	3404.24
712.617	3357.13
712.805	3348.94
712.993	3299.79
713.181	3230.16
713.368	3248.59
713.556	3314.13
713.744	3328.46
713.931	3377.61
714.119	3367.37
714.306	3371.47
714.494	3369.42
714.682	3289.55
714.869	3275.21
715.057	3236.3
715.244	3357.13
715.432	3150.29
715.619	3244.49
715.807	3197.39
715.994	3293.65
716.182	3125.71
716.369	3256.78
716.556	3191.25
716.744	3125.71
716.931	3062.23
717.119	3086.8
717.306	3191.25
717.493	3164.62
717.681	3142.1
717.868	3088.85
718.055	3111.38
718.242	3094.99
718.43	3170.77
718.617	3066.32
718.804	2996.69
718.991	3150.29
719.179	3107.28
719.366	3140.05
719.553	3125.71
719.74	3008.98
719.927	2947.54
720.114	2996.69
720.301	3058.13
720.488	3004.88
720.676	3105.23
720.863	3117.52
721.05	3013.07
721.237	2980.31
721.424	2937.3
721.611	2935.25
721.798	2965.97
721.985	2945.49
722.172	2914.77
722.358	3056.08
722.545	2810.33
722.732	2963.92
722.919	2839
723.106	2888.15
723.293	3002.83
723.48	2912.72
723.667	2963.92
723.853	2894.29
724.04	2857.43
724.227	2765.27
724.414	2793.94
724.6	2795.99
724.787	2879.96
724.974	2998.74
725.161	2961.87
725.347	2787.8
725.534	2783.7
725.72	2830.8
725.907	2709.97
726.094	2802.13
726.28	2834.9
726.467	2861.52
726.653	2795.99
726.84	2836.95
727.027	2879.96
727.213	2892.24
727.4	2714.07
727.586	2734.55
727.773	2761.17
727.959	2767.32
728.145	2761.17
728.332	2826.71
728.518	2828.76
728.705	2830.8
728.891	2648.54
729.077	2740.69
729.264	2769.37
729.45	2679.26
729.636	2767.32
729.823	2611.67
730.009	2740.69
730.195	2683.35
730.382	2587.1
730.568	2714.07
730.754	2644.44
730.94	2664.92
731.126	2765.27
731.313	2744.79
731.499	2716.12
731.685	2658.78
731.871	2607.58
732.057	2634.2
732.243	2644.44
732.429	2585.05
732.615	2679.26
732.801	2494.94
732.987	2607.58
733.173	2630.1
733.359	2568.66
733.545	2621.91
733.731	2421.21
733.917	2601.43
734.103	2611.67
734.289	2611.67
734.475	2511.32
734.661	2554.33
734.847	2548.19
735.033	2499.03
735.219	2460.12
735.404	2507.23
735.59	2580.95
735.776	2449.88
735.962	2441.69
736.148	2425.31
736.333	2519.51
736.519	2599.38
736.705	2529.75
736.89	2501.08
737.076	2499.03
737.262	2380.25
737.447	2431.45
737.633	2355.68
737.819	2585.05
738.004	2488.79
738.19	2406.88
738.375	2492.89
738.561	2517.47
738.747	2376.16
738.932	2445.79
739.118	2443.74
739.303	2390.49
739.489	2427.35
739.674	2415.07
739.859	2341.34
740.045	2355.68
740.23	2429.4
740.416	2304.48
740.601	2306.52
740.786	2347.48
740.972	2378.2
741.157	2185.69
741.342	2169.31
741.528	2249.18
741.713	2341.34
741.898	2195.93
742.084	2200.03
742.269	2140.64
742.454	2120.16
742.639	2335.2
742.824	2210.27
743.01	2202.08
743.195	2232.8
743.38	2134.5
743.565	2124.26
743.75	2216.41
743.935	2118.11
744.12	2019.81
744.305	2068.96
744.49	2013.67
744.675	2177.5
744.86	2157.02
745.045	2079.2
745.23	1980.9
745.415	2030.05
745.6	2185.69
745.785	1950.18
745.97	1995.23
746.155	1972.71
746.34	1956.32
746.525	2046.43
746.71	2068.96
746.895	1872.36
747.079	2048.48
747.264	1931.75
747.449	1954.27
747.634	1966.56
747.819	1978.85
748.003	1825.25
748.188	1923.55
748.373	1911.27
748.557	1804.77
748.742	1952.23
748.927	1841.64
749.111	1898.98
749.296	1888.74
749.481	1806.82
749.665	1833.44
749.85	1845.73
750.034	1774.05
750.219	1833.44
750.404	1735.14
750.588	1774.05
750.773	1786.34
750.957	1737.19
751.141	1704.42
751.326	1683.94
751.51	1688.04
751.695	1800.68
751.879	1632.74
752.064	1677.8
752.248	1567.21
752.432	1649.13
752.617	1647.08
752.801	1731.05
752.985	1579.5
753.17	1636.84
753.354	1456.62
753.538	1653.22
753.722	1661.41
753.907	1634.79
754.091	1505.77
754.275	1419.75
754.459	1532.39
754.643	1460.71
754.828	1501.67
755.012	1391.08
755.196	1362.41
755.38	1442.28
755.564	1468.91
755.748	1331.69
755.932	1475.05
756.116	1419.75
756.3	1411.56
756.484	1348.08
756.668	1432.04
756.852	1411.56
757.036	1315.31
757.22	1290.73
757.404	1290.73
757.588	1214.96
757.772	1331.69
757.956	1298.92
758.14	1307.12
758.323	1251.82
758.507	1217.01
758.691	1251.82
758.875	1276.4
759.059	1298.92
759.242	1264.11
759.426	1280.49
759.61	1292.78
759.794	1202.67
759.977	1155.57
760.161	1296.88
760.345	1223.15
760.528	1282.54
760.712	1204.72
760.895	1157.61
761.079	1151.47
761.263	1233.39
761.446	1030.64
761.63	1069.55
761.813	1075.7
761.997	1159.66
762.18	1020.4
762.364	1174
762.547	1124.85
762.731	1124.85
762.914	1106.42
763.098	1053.17
763.281	1223.15
763.464	1032.69
763.648	1042.93
763.831	1036.78
764.015	1069.55
764.198	1047.02
764.381	1001.97
764.564	952.82
764.748	1071.6
764.931	1083.89
765.114	987.63
765.297	1085.94
765.481	942.58
765.664	1067.5
765.847	1030.64
766.03	1061.36
766.213	981.49
766.397	1038.83
766.58	952.82
766.763	987.63
766.946	969.2
767.129	997.87
767.312	977.39
767.495	969.2
767.678	922.1
767.861	1042.93
768.044	967.15
768.227	1028.59
768.41	924.15
768.593	934.39
768.776	852.47
768.959	967.15
769.142	895.47
769.324	858.61
769.507	944.63
769.69	915.95
769.873	864.75
770.056	944.63
770.239	973.3
770.421	1067.5
770.604	934.39
770.787	905.71
770.97	848.37
771.152	911.86
771.335	764.4
771.518	874.99
771.7	901.62
771.883	885.23
772.066	868.85
772.248	836.08
772.431	854.51
772.613	831.99
772.796	856.56
772.978	850.42
773.161	881.14
773.343	944.63
773.526	786.93
773.708	864.75
773.891	778.74
774.073	819.7
774.256	821.75
774.438	838.13
774.621	811.51
774.803	840.18
774.985	719.35
775.168	834.04
775.35	784.88
775.532	825.84
775.715	731.64
775.897	721.4
776.079	690.68
776.261	784.88
776.444	809.46
776.626	854.51
776.808	745.97
776.99	731.64
777.173	754.16
777.355	619
777.537	756.21
777.719	700.92
777.901	719.35
778.083	668.15
778.265	655.86
778.447	705.01
778.629	682.49
778.811	569.85
778.993	709.11
779.175	723.44
779.357	664.05
779.539	629.24
779.721	680.44
779.903	682.49
780.085	586.23
780.267	733.68
780.449	645.62
780.631	621.05
780.812	610.81
780.994	567.8
781.176	594.42
781.358	649.72
781.54	528.89
781.721	545.27
781.903	543.22
782.085	592.37
782.267	590.33
782.448	563.7
782.63	616.95
782.812	522.74
782.993	541.18
783.175	526.84
783.357	594.42
783.538	455.16
783.72	610.81
783.901	557.56
784.083	510.46
784.264	492.02
784.446	475.64
784.627	524.79
784.809	494.07
784.99	489.98
785.172	526.84
785.353	528.89
785.535	475.64
785.716	481.78
785.897	471.54
786.079	510.46
786.26	471.54
786.441	502.26
786.623	446.97
786.804	453.11
786.985	463.35
787.167	471.54
787.348	463.35
787.529	485.88
787.71	457.21
787.891	428.54
788.073	461.3
788.254	348.67
788.435	471.54
788.616	463.35
788.797	416.25
788.978	395.77
789.159	395.77
789.34	444.92
789.522	410.11
789.703	328.19
789.884	395.77
790.065	479.74
790.246	444.92
790.427	307.71
790.607	422.39
790.788	358.91
790.969	414.2
791.15	401.91
791.331	369.15
791.512	383.48
791.693	381.43
791.874	352.76
792.054	469.5
792.235	352.76
792.416	311.8
792.597	393.72
792.778	377.34
792.958	334.33
793.139	432.63
793.32	350.71
793.5	293.37
793.681	379.39
793.862	432.63
794.042	274.94
794.223	297.47
794.404	250.36
794.584	328.19
794.765	307.71
794.945	377.34
795.126	387.58
795.306	354.81
795.487	285.18
795.667	301.56
795.848	281.08
796.028	342.52
796.209	303.61
796.389	266.75
796.57	332.28
796.75	352.76
796.93	344.57
797.111	317.95
797.291	272.89
797.471	313.85
797.652	299.52
797.832	305.66
798.012	332.28
798.192	285.18
798.373	229.88
798.553	297.47
798.733	283.13
798.913	281.08
799.093	272.89
799.274	285.18
799.454	276.99
799.634	264.7
799.814	279.04
799.994	238.08
800.174	244.22
800.354	291.32
800.534	217.6
800.714	274.94
800.894	221.69
801.074	201.21
801.254	281.08
801.434	307.71
801.614	162.3
801.794	268.8
801.974	688.63
802.154	221.69
802.334	197.12
802.514	193.02
802.693	233.98
802.873	199.16
803.053	299.52
803.233	260.6
803.413	301.56
803.592	154.11
803.772	215.55
803.952	217.6
804.131	238.08
804.311	266.75
804.491	233.98
804.67	201.21
804.85	215.55
805.03	217.6
805.209	221.69
805.389	207.36
805.568	131.58
805.748	125.44
805.928	264.7
806.107	186.88
806.287	182.78
806.466	238.08
806.646	160.25
806.825	168.45
807.004	186.88
807.184	160.25
807.363	139.77
807.543	252.41
807.722	133.63
807.901	197.12
808.081	135.68
808.26	61.95
808.439	250.36
808.619	147.97
808.798	197.12
808.977	145.92
809.156	215.55
809.336	221.69
809.515	197.12
809.694	168.45
809.873	129.53
810.052	180.73
810.231	170.49
810.411	125.44
810.59	258.56
810.769	193.02
810.948	182.78
811.127	133.63
811.306	186.88
811.485	213.5
811.664	123.39
811.843	164.35
812.022	188.93
812.201	190.97
812.38	182.78
812.559	158.21
812.737	178.69
812.916	70.14
813.095	168.45
813.274	129.53
813.453	131.58
813.632	125.44
813.811	168.45
813.989	115.2
814.168	152.06
814.347	180.73
814.526	160.25
814.704	186.88
814.883	182.78
815.062	125.44
815.24	182.78
815.419	139.77
815.598	68.09
815.776	115.2
815.955	135.68
816.133	205.31
816.312	172.54
816.49	107.01
816.669	117.25
816.847	135.68
817.026	178.69
817.204	174.59
817.383	104.96
817.561	117.25
817.74	158.21
817.918	121.34
818.097	158.21
818.275	125.44
818.453	154.11
818.632	143.87
818.81	147.97
818.988	107.01
819.167	100.86
819.345	145.92
819.523	104.96
819.701	78.33
819.879	74.24
820.058	119.29
820.236	53.76
820.414	147.97
820.592	150.01
820.77	55.81
820.948	82.43
821.127	76.29
821.305	102.91
821.483	186.88
821.661	131.58
821.839	10.75
822.017	227.84
822.195	96.77
822.373	74.24
822.551	90.62
822.729	180.73
822.907	123.39
823.085	98.81
823.262	72.19
823.44	39.42
823.618	74.24
823.796	111.1
823.974	78.33
824.152	96.77
824.329	133.63
824.507	96.77
824.685	53.76
824.863	119.29
825.04	35.33
825.218	135.68
825.396	43.52
825.574	90.62
825.751	119.29
825.929	107.01
826.107	96.77
826.284	133.63
826.462	152.06
826.639	80.38
826.817	68.09
826.994	115.2
827.172	117.25
827.349	57.86
827.527	121.34
827.704	129.53
827.882	156.16
828.059	59.9
828.237	94.72
828.414	72.19
828.591	-26.11
828.769	121.34
828.946	90.62
829.124	37.38
829.301	25.09
829.478	14.85
829.655	70.14
829.833	64
830.01	72.19
830.187	-5.63
830.364	96.77
830.542	88.57
830.719	135.68
830.896	96.77
831.073	51.71
831.25	-1.54
831.427	84.48
831.604	14.85
831.782	125.44
831.959	25.09
832.136	8.7
832.313	29.18
832.49	29.18
832.667	129.53
832.844	84.48
833.021	100.86
833.198	39.42
833.374	72.19
833.551	39.42
833.728	70.14
833.905	135.68
834.082	27.14
834.259	96.77
834.436	166.4
834.612	20.99
834.789	88.57
834.966	74.24
835.143	27.14
835.319	55.81
835.496	37.38
835.673	143.87
835.85	29.18
836.026	64
836.203	39.42
836.38	33.28
836.556	43.52
836.733	86.53
836.909	37.38
837.086	51.71
837.262	14.85
837.439	-11.78
837.616	55.81
837.792	104.96
837.968	80.38
838.145	25.09
838.321	64
838.498	64
838.674	64
838.851	8.7
839.027	29.18
839.203	18.94
839.38	88.57
839.556	8.7
839.732	64
839.909	70.14
840.085	12.8
840.261	25.09
840.437	-38.4
840.614	-5.63
840.79	47.62
840.966	27.14
841.142	98.81
841.318	-28.16
841.494	70.14
841.671	39.42
841.847	74.24
842.023	49.66
842.199	39.42
842.375	94.72
842.551	-1.54
842.727	6.66
842.903	123.39
843.079	14.85
843.255	78.33
843.431	49.66
843.607	35.33
843.783	-3.58
843.959	10.75
844.134	8.7
844.31	2.56
844.486	53.76
844.662	-19.97
844.838	98.81
845.013	20.99
845.189	43.52
845.365	20.99
845.541	29.18
845.716	-9.73
845.892	-26.11
846.068	74.24
846.244	-32.26
846.419	18.94
846.595	-56.83
846.77	37.38
846.946	27.14
847.122	-56.83
847.297	51.71
847.473	61.95
847.648	-19.97
847.824	70.14
847.999	-30.21
848.175	33.28
848.35	-1.54
848.526	35.33
848.701	61.95
848.876	-11.78
849.052	66.05
849.227	-15.87
849.403	-42.5
849.578	6.66
849.753	20.99
849.929	16.9
850.104	45.57
850.279	96.77
850.454	37.38
850.63	74.24
850.805	16.9
850.98	33.28
851.155	31.23
851.33	-13.82
851.505	-93.69
851.681	53.76
851.856	29.18
852.031	10.75
852.206	10.75
852.381	-19.97
852.556	-34.3
852.731	-15.87
852.906	72.19
853.081	6.66
853.256	29.18
853.431	2.56
853.606	0.51
853.781	-52.74
853.956	2.56
854.131	2.56
854.305	-7.68
854.48	14.85
854.655	18.94
854.83	0.51
855.005	-26.11
855.18	-38.4
855.354	-15.87
855.529	59.9
855.704	47.62
855.879	-28.16
856.053	-5.63
856.228	14.85
856.403	-17.92
856.577	53.76
856.752	8.7
856.926	27.14
857.101	53.76
857.276	14.85
857.45	0.51
857.625	-40.45
857.799	86.53
857.974	117.25
858.148	-28.16
858.323	47.62
858.497	-77.31
858.672	6.66
858.846	74.24
859.02	-40.45
859.195	16.9
859.369	8.7
859.543	51.71
859.718	-1.54
859.892	33.28
860.066	-3.58
860.241	-46.59
860.415	12.8
860.589	29.18
860.763	-5.63
860.938	10.75
861.112	45.57
861.286	8.7
861.46	96.77
861.634	-32.26
861.808	45.57
861.982	-54.78
862.157	-67.07
862.331	39.42
862.505	-5.63
862.679	-32.26
862.853	-22.02
863.027	-11.78
863.201	57.86
863.375	-13.82
863.549	27.14
863.722	4.61
863.896	31.23
864.07	-28.16
864.244	139.77
864.418	6.66
864.592	37.38
864.766	10.75
864.939	47.62
865.113	61.95
865.287	-13.82
865.461	-87.55
865.634	-40.45
865.808	-48.64
865.982	-7.68
866.156	-9.73
866.329	-26.11
866.503	-24.06
866.676	59.9
866.85	-15.87
867.024	-38.4
867.197	78.33
867.371	-22.02
867.544	16.9
867.718	14.85
867.891	-11.78
868.065	-60.93
868.238	10.75
868.412	-40.45
868.585	20.99
868.759	16.9
868.932	-71.17
869.105	29.18
869.279	-67.07
869.452	-32.26
869.625	51.71
869.799	-3.58
869.972	-22.02
870.145	-26.11
870.319	35.33
870.492	-9.73
870.665	18.94
870.838	29.18
871.011	2.56
871.185	-36.35
871.358	-5.63
871.531	-28.16
871.704	16.9
871.877	-5.63
872.05	-17.92
872.223	-17.92
872.396	-15.87
872.569	41.47
872.742	2.56
872.915	23.04
873.088	-46.59
873.261	43.52
873.434	35.33
873.607	27.14
873.78	-34.3
873.953	-44.54
874.126	33.28
874.299	41.47
874.471	33.28
874.644	6.66
874.817	-69.12
874.99	33.28
875.163	10.75
875.335	-11.78
875.508	14.85
875.681	6.66
875.853	-7.68
876.026	-7.68
876.199	47.62
876.371	-11.78
876.544	-48.64
876.717	-30.21
876.889	27.14
877.062	29.18
877.234	2.56
877.407	-52.74
877.579	-62.98
877.752	-34.3
877.924	-28.16
878.097	-13.82
878.269	-32.26
878.442	33.28
878.614	-38.4
878.786	-52.74
878.959	-22.02
879.131	18.94
879.303	2.56
879.476	8.7
879.648	82.43
879.82	-50.69
879.993	2.56
880.165	76.29
880.337	37.38
880.509	-26.11
880.681	-1.54
880.854	-38.4
881.026	0.51
881.198	31.23
881.37	-13.82
881.542	31.23
881.714	-73.21
881.886	-48.64
882.058	-44.54
882.23	-28.16
882.402	45.57
882.574	-30.21
882.746	-11.78
882.918	-24.06
883.09	-13.82
883.262	4.61
883.434	33.28
883.606	-65.02
883.778	-54.78
883.95	-75.26
884.122	-24.06
884.293	33.28
884.465	-3.58
884.637	43.52
884.809	-38.4
884.98	10.75
885.152	4.61
885.324	-34.3
885.496	12.8
885.667	-58.88
885.839	35.33
886.011	-22.02
886.182	55.81
886.354	41.47
886.525	25.09
886.697	14.85
886.869	-22.02
887.04	-30.21
887.212	-17.92
887.383	53.76
887.555	-34.3
887.726	-38.4
887.897	-3.58
888.069	31.23
888.24	-9.73
888.412	-11.78
888.583	16.9
888.754	31.23
888.926	-36.35
889.097	6.66
889.268	-26.11
889.44	39.42
889.611	41.47
889.782	-40.45
889.953	6.66
890.125	53.76
890.296	-32.26
890.467	47.62
890.638	-19.97
890.809	-30.21
890.98	-58.88
891.151	6.66
891.323	64
891.494	-75.26
891.665	-26.11
891.836	-7.68
892.007	-7.68
892.178	-1.54
892.349	-13.82
892.52	61.95
892.691	-26.11
892.862	2.56
893.032	-5.63
893.203	41.47
893.374	-38.4
893.545	8.7
893.716	16.9
893.887	35.33
894.057	-11.78
894.228	-34.3
894.399	-46.59
894.57	61.95
894.74	14.85
894.911	12.8
895.082	-9.73
895.253	-87.55
895.423	39.42
895.594	20.99
895.764	-1.54
895.935	-67.07
896.106	-75.26
896.276	12.8
896.447	-67.07
896.617	-34.3
896.788	-50.69
896.958	-22.02
897.129	-50.69
897.299	-5.63
897.47	-44.54
897.64	12.8
897.81	25.09
897.981	39.42
898.151	-26.11
898.322	64
898.492	-50.69
898.662	-19.97
898.832	29.18
899.003	39.42
899.173	-54.78
899.343	18.94
899.513	-34.3
