Data from USB4F104151__46__12-35-57-238.txt Node

Date: Fri Mar 14 12:35:57 EDT 2025
User: louis
Spectrometer: USB4F10415
Trigger mode: 4
Integration Time (sec): 2.000000E-2
Scans to average: 1
Electric dark correction enabled: true
Nonlinearity correction enabled: false
Boxcar width: 0
XAxis mode: Wavelengths
Number of Pixels in Spectrum: 3648
>>>>>Begin Spectral Data<<<<<
178.204	-90.11
178.424	-90.11
178.644	-90.11
178.864	-94.21
179.084	-16.38
179.304	-18.43
179.524	30.72
179.744	4.1
179.964	14.34
180.184	-16.38
180.404	47.1
180.624	-49.15
180.844	34.82
181.064	-12.29
181.283	51.2
181.503	-65.53
181.723	-20.48
181.943	-28.67
182.163	24.58
182.383	51.2
182.602	-6.14
182.822	28.67
183.042	-63.49
183.262	-14.34
183.482	86.01
183.701	61.44
183.921	63.49
184.141	12.29
184.361	63.49
184.58	133.12
184.8	-45.06
185.02	51.2
185.239	69.63
185.459	40.96
185.679	26.62
185.898	-14.34
186.118	83.97
186.338	-32.77
186.557	8.19
186.777	55.3
186.997	-86.01
187.216	71.68
187.436	135.17
187.655	16.38
187.875	24.58
188.095	30.72
188.314	10.24
188.534	59.39
188.753	36.86
188.973	-86.01
189.192	34.82
189.412	-32.77
189.631	116.73
189.851	83.97
190.07	90.11
190.29	-4.1
190.509	45.06
190.729	55.3
190.948	102.4
191.168	55.3
191.387	94.21
191.607	18.43
191.826	57.34
192.045	-18.43
192.265	59.39
192.484	26.62
192.704	96.25
192.923	14.34
193.142	69.63
193.362	28.67
193.581	14.34
193.8	12.29
194.02	32.77
194.239	-14.34
194.458	96.25
194.678	6.14
194.897	34.82
195.116	67.58
195.335	57.34
195.555	45.06
195.774	10.24
195.993	69.63
196.212	34.82
196.432	75.77
196.651	26.62
196.87	28.67
197.089	108.54
197.308	-10.24
197.528	10.24
197.747	69.63
197.966	43.01
198.185	110.59
198.404	2.05
198.623	-10.24
198.842	36.86
199.062	43.01
199.281	30.72
199.5	-10.24
199.719	57.34
199.938	-2.05
200.157	2.05
200.376	26.62
200.595	51.2
200.814	6.14
201.033	-16.38
201.252	-6.14
201.471	69.63
201.69	-14.34
201.909	12.29
202.128	8.19
202.347	26.62
202.566	51.2
202.785	20.48
203.004	6.14
203.223	63.49
203.442	30.72
203.661	24.58
203.879	-73.73
204.098	28.67
204.317	-6.14
204.536	67.58
204.755	43.01
204.974	43.01
205.193	20.48
205.411	51.2
205.63	71.68
205.849	71.68
206.068	100.35
206.287	73.73
206.505	28.67
206.724	71.68
206.943	40.96
207.162	34.82
207.381	53.25
207.599	65.54
207.818	45.06
208.037	65.54
208.255	26.62
208.474	75.77
208.693	28.67
208.911	-36.86
209.13	71.68
209.349	63.49
209.567	88.06
209.786	22.53
210.005	77.82
210.223	49.15
210.442	-102.4
210.661	26.62
210.879	24.58
211.098	8.19
211.316	20.48
211.535	51.2
211.753	-32.77
211.972	63.49
212.191	75.77
212.409	36.86
212.628	-12.29
212.846	28.67
213.065	34.82
213.283	36.86
213.502	55.3
213.72	43.01
213.938	32.77
214.157	63.49
214.375	57.34
214.594	51.2
214.812	28.67
215.031	51.2
215.249	57.34
215.467	43.01
215.686	26.62
215.904	40.96
216.122	-28.67
216.341	100.35
216.559	114.69
216.778	90.11
216.996	-8.19
217.214	24.58
217.432	-32.77
217.651	43.01
217.869	-22.53
218.087	-24.58
218.306	28.67
218.524	16.38
218.742	6.14
218.96	73.73
219.179	-18.43
219.397	22.53
219.615	55.3
219.833	-38.91
220.051	-53.25
220.27	67.58
220.488	40.96
220.706	88.06
220.924	59.39
221.142	10.24
221.36	-28.67
221.578	49.15
221.796	12.29
222.015	8.19
222.233	2.05
222.451	45.06
222.669	-16.38
222.887	36.86
223.105	8.19
223.323	57.34
223.541	-10.24
223.759	77.82
223.977	32.77
224.195	-24.58
224.413	49.15
224.631	83.97
224.849	77.82
225.067	-12.29
225.285	2.05
225.503	40.96
225.721	14.34
225.939	-45.06
226.157	16.38
226.375	63.49
226.592	-53.25
226.81	57.34
227.028	63.49
227.246	83.97
227.464	-43.01
227.682	-16.38
227.9	65.54
228.117	94.21
228.335	36.86
228.553	-26.62
228.771	26.62
228.989	61.44
229.206	-8.19
229.424	6.14
229.642	16.38
229.86	92.16
230.077	40.96
230.295	73.73
230.513	34.82
230.731	-28.67
230.948	65.54
231.166	45.06
231.384	-24.58
231.601	-67.58
231.819	49.15
232.037	22.53
232.254	-34.82
232.472	65.54
232.689	69.63
232.907	12.29
233.125	51.2
233.342	53.25
233.56	-4.1
233.777	36.86
233.995	-22.53
234.213	22.53
234.43	12.29
234.648	40.96
234.865	98.3
235.083	92.16
235.3	-47.1
235.518	59.39
235.735	110.59
235.953	-67.58
236.17	38.91
236.388	86.01
236.605	-22.53
236.822	124.93
237.04	10.24
237.257	14.34
237.475	49.15
237.692	14.34
237.909	28.67
238.127	6.14
238.344	18.43
238.562	4.1
238.779	49.15
238.996	24.58
239.214	-88.06
239.431	61.44
239.648	47.1
239.865	2.05
240.083	53.25
240.3	63.49
240.517	-4.1
240.735	-16.38
240.952	155.65
241.169	2.05
241.386	69.63
241.603	59.39
241.821	-6.14
242.038	57.34
242.255	96.25
242.472	-20.48
242.689	51.2
242.907	90.11
243.124	6.14
243.341	63.49
243.558	77.82
243.775	24.58
243.992	-20.48
244.209	73.73
244.426	81.92
244.643	126.97
244.86	65.54
245.078	71.68
245.295	-6.14
245.512	-24.58
245.729	18.43
245.946	53.25
246.163	67.58
246.38	-38.91
246.597	-20.48
246.814	118.78
247.031	40.96
247.248	47.1
247.464	59.39
247.681	96.25
247.898	47.1
248.115	45.06
248.332	47.1
248.549	86.01
248.766	86.01
248.983	51.2
249.2	-55.3
249.417	-10.24
249.633	-14.34
249.85	12.29
250.067	-14.34
250.284	28.67
250.501	55.3
250.717	96.25
250.934	49.15
251.151	-34.82
251.368	67.58
251.585	139.26
251.801	-45.06
252.018	6.14
252.235	81.92
252.451	-28.67
252.668	86.01
252.885	129.02
253.102	38.91
253.318	16.38
253.535	-63.49
253.752	20.48
253.968	26.62
254.185	28.67
254.401	38.91
254.618	36.86
254.835	75.77
255.051	118.78
255.268	102.4
255.484	26.62
255.701	83.97
255.917	55.3
256.134	57.34
256.351	30.72
256.567	16.38
256.784	67.58
257	24.58
257.217	36.86
257.433	65.54
257.65	24.58
257.866	32.77
258.082	32.77
258.299	24.58
258.515	0
258.732	114.69
258.948	20.48
259.165	-8.19
259.381	67.58
259.597	81.92
259.814	22.53
260.03	114.69
260.246	47.1
260.463	40.96
260.679	63.49
260.895	14.34
261.112	77.82
261.328	30.72
261.544	-6.14
261.761	73.73
261.977	0
262.193	-30.72
262.409	38.91
262.626	-18.43
262.842	-20.48
263.058	6.14
263.274	67.58
263.49	57.34
263.707	63.49
263.923	0
264.139	26.62
264.355	28.67
264.571	53.25
264.787	-14.34
265.004	10.24
265.22	32.77
265.436	63.49
265.652	-28.67
265.868	18.43
266.084	30.72
266.3	-45.06
266.516	10.24
266.732	2.05
266.948	59.39
267.164	14.34
267.38	28.67
267.596	40.96
267.812	61.44
268.028	65.54
268.244	-2.05
268.46	59.39
268.676	45.06
268.892	65.54
269.108	51.2
269.324	59.39
269.54	-14.34
269.756	43.01
269.972	-22.53
270.188	51.2
270.403	45.06
270.619	71.68
270.835	26.62
271.051	-16.38
271.267	73.73
271.483	18.43
271.698	61.44
271.914	69.63
272.13	28.67
272.346	126.97
272.562	38.91
272.777	-2.05
272.993	114.69
273.209	69.63
273.425	94.21
273.64	-12.29
273.856	28.67
274.072	38.91
274.287	40.96
274.503	47.1
274.719	-8.19
274.934	0
275.15	-28.67
275.366	55.3
275.581	61.44
275.797	28.67
276.012	36.86
276.228	-8.19
276.444	30.72
276.659	149.5
276.875	20.48
277.09	98.3
277.306	14.34
277.521	-8.19
277.737	22.53
277.952	14.34
278.168	-20.48
278.383	63.49
278.599	6.14
278.814	77.82
279.03	38.91
279.245	73.73
279.461	104.45
279.676	-16.38
279.892	26.62
280.107	-12.29
280.322	20.48
280.538	116.73
280.753	67.58
280.969	-6.14
281.184	-8.19
281.399	-10.24
281.615	34.82
281.83	-18.43
282.045	-49.15
282.26	2.05
282.476	40.96
282.691	24.58
282.906	8.19
283.122	102.4
283.337	-55.3
283.552	26.62
283.767	8.19
283.983	51.2
284.198	34.82
284.413	-43.01
284.628	16.38
284.843	24.58
285.058	67.58
285.274	28.67
285.489	69.63
285.704	59.39
285.919	-12.29
286.134	26.62
286.349	4.1
286.564	40.96
286.779	110.59
286.995	32.77
287.21	-20.48
287.425	40.96
287.64	86.01
287.855	49.15
288.07	57.34
288.285	49.15
288.5	77.82
288.715	86.01
288.93	-16.38
289.145	28.67
289.36	45.06
289.575	75.77
289.79	-6.14
290.004	38.91
290.219	57.34
290.434	45.06
290.649	49.15
290.864	36.86
291.079	47.1
291.294	-12.29
291.509	-16.38
291.724	90.11
291.938	24.58
292.153	114.69
292.368	36.86
292.583	124.93
292.798	63.49
293.012	69.63
293.227	47.1
293.442	49.15
293.657	69.63
293.871	86.01
294.086	32.77
294.301	20.48
294.516	63.49
294.73	112.64
294.945	40.96
295.16	79.87
295.374	24.58
295.589	67.58
295.804	30.72
296.018	40.96
296.233	75.77
296.447	116.73
296.662	16.38
296.877	65.54
297.091	36.86
297.306	28.67
297.52	12.29
297.735	51.2
297.949	55.3
298.164	-34.82
298.378	73.73
298.593	40.96
298.807	53.25
299.022	-30.72
299.236	55.3
299.451	98.3
299.665	14.34
299.88	16.38
300.094	43.01
300.309	47.1
300.523	63.49
300.737	-26.62
300.952	104.45
301.166	135.17
301.381	2.05
301.595	-2.05
301.809	34.82
302.024	57.34
302.238	-40.96
302.452	51.2
302.667	-73.73
302.881	92.16
303.095	-8.19
303.309	30.72
303.524	12.29
303.738	53.25
303.952	43.01
304.166	55.3
304.381	-16.38
304.595	55.3
304.809	40.96
305.023	118.78
305.237	34.82
305.452	30.72
305.666	71.68
305.88	90.11
306.094	53.25
306.308	14.34
306.522	34.82
306.736	38.91
306.95	16.38
307.164	38.91
307.379	45.06
307.593	73.73
307.807	75.77
308.021	98.3
308.235	69.63
308.449	10.24
308.663	4.1
308.877	96.25
309.091	55.3
309.305	12.29
309.519	55.3
309.733	53.25
309.947	94.21
310.161	-4.1
310.374	129.02
310.588	81.92
310.802	90.11
311.016	-12.29
311.23	53.25
311.444	20.48
311.658	34.82
311.872	63.49
312.085	90.11
312.299	71.68
312.513	47.1
312.727	4.1
312.941	36.86
313.154	14.34
313.368	149.5
313.582	88.06
313.796	102.4
314.009	-4.1
314.223	45.06
314.437	67.58
314.651	-10.24
314.864	14.34
315.078	22.53
315.292	81.92
315.505	4.1
315.719	22.53
315.933	77.82
316.146	92.16
316.36	-8.19
316.573	137.21
316.787	14.34
317.001	10.24
317.214	-14.34
317.428	28.67
317.641	53.25
317.855	36.86
318.068	-2.05
318.282	131.07
318.495	92.16
318.709	88.06
318.922	71.68
319.136	-34.82
319.349	77.82
319.563	18.43
319.776	79.87
319.99	-24.58
320.203	38.91
320.417	69.63
320.63	65.54
320.843	55.3
321.057	-20.48
321.27	38.91
321.483	51.2
321.697	96.25
321.91	16.38
322.124	38.91
322.337	26.62
322.55	36.86
322.763	-26.62
322.977	61.44
323.19	51.2
323.403	77.82
323.617	96.25
323.83	106.49
324.043	43.01
324.256	14.34
324.469	104.45
324.683	18.43
324.896	51.2
325.109	34.82
325.322	8.19
325.535	81.92
325.748	122.88
325.962	61.44
326.175	43.01
326.388	40.96
326.601	79.87
326.814	22.53
327.027	-38.91
327.24	26.62
327.453	28.67
327.666	86.01
327.879	65.54
328.092	-51.2
328.305	59.39
328.518	90.11
328.731	34.82
328.944	73.73
329.157	75.77
329.37	-6.14
329.583	83.97
329.796	94.21
330.009	6.14
330.222	118.78
330.435	88.06
330.648	116.73
330.861	36.86
331.073	71.68
331.286	-8.19
331.499	4.1
331.712	24.58
331.925	38.91
332.138	-10.24
332.35	59.39
332.563	40.96
332.776	151.55
332.989	22.53
333.202	8.19
333.414	55.3
333.627	-2.05
333.84	79.87
334.053	32.77
334.265	55.3
334.478	71.68
334.691	18.43
334.903	51.2
335.116	14.34
335.329	53.25
335.541	55.3
335.754	141.31
335.966	61.44
336.179	34.82
336.392	86.01
336.604	65.54
336.817	116.73
337.029	38.91
337.242	38.91
337.454	43.01
337.667	-53.25
337.88	122.88
338.092	12.29
338.305	71.68
338.517	49.15
338.729	83.97
338.942	36.86
339.154	-36.86
339.367	-20.48
339.579	59.39
339.792	12.29
340.004	71.68
340.217	2.05
340.429	30.72
340.641	-43.01
340.854	51.2
341.066	16.38
341.278	90.11
341.491	116.73
341.703	59.39
341.915	20.48
342.128	38.91
342.34	51.2
342.552	24.58
342.764	20.48
342.977	133.12
343.189	86.01
343.401	92.16
343.613	67.58
343.826	126.97
344.038	14.34
344.25	6.14
344.462	55.3
344.674	8.19
344.886	51.2
345.099	81.92
345.311	57.34
345.523	71.68
345.735	49.15
345.947	126.97
346.159	32.77
346.371	61.44
346.583	73.73
346.795	100.35
347.007	112.64
347.219	49.15
347.431	43.01
347.643	14.34
347.855	71.68
348.067	63.49
348.279	53.25
348.491	69.63
348.703	38.91
348.915	36.86
349.127	18.43
349.339	139.26
349.551	57.34
349.763	106.49
349.975	26.62
350.187	22.53
350.399	43.01
350.61	61.44
350.822	36.86
351.034	65.54
351.246	-14.34
351.458	-16.38
351.669	71.68
351.881	49.15
352.093	92.16
352.305	40.96
352.517	47.1
352.728	75.77
352.94	69.63
353.152	88.06
353.363	-16.38
353.575	30.72
353.787	47.1
353.999	92.16
354.21	112.64
354.422	63.49
354.633	69.63
354.845	90.11
355.057	96.25
355.268	47.1
355.48	22.53
355.692	-16.38
355.903	6.14
356.115	8.19
356.326	10.24
356.538	81.92
356.749	55.3
356.961	94.21
357.172	81.92
357.384	75.77
357.595	36.86
357.807	65.54
358.018	49.15
358.23	43.01
358.441	43.01
358.653	55.3
358.864	51.2
359.075	36.86
359.287	94.21
359.498	61.44
359.709	122.88
359.921	14.34
360.132	8.19
360.344	79.87
360.555	24.58
360.766	51.2
360.977	55.3
361.189	16.38
361.4	8.19
361.611	92.16
361.823	22.53
362.034	129.02
362.245	45.06
362.456	-16.38
362.667	51.2
362.879	-10.24
363.09	71.68
363.301	8.19
363.512	53.25
363.723	104.45
363.935	65.54
364.146	102.4
364.357	57.34
364.568	98.3
364.779	65.54
364.99	102.4
365.201	6.14
365.412	-10.24
365.623	-6.14
365.834	0
366.045	92.16
366.256	83.97
366.467	57.34
366.678	43.01
366.889	90.11
367.1	77.82
367.311	55.3
367.522	40.96
367.733	98.3
367.944	26.62
368.155	28.67
368.366	77.82
368.577	32.77
368.788	90.11
368.999	32.77
369.209	51.2
369.42	145.41
369.631	102.4
369.842	63.49
370.053	126.97
370.264	55.3
370.474	145.41
370.685	24.58
370.896	69.63
371.107	92.16
371.317	129.02
371.528	100.35
371.739	98.3
371.95	63.49
372.16	77.82
372.371	83.97
372.582	12.29
372.792	69.63
373.003	47.1
373.214	63.49
373.424	92.16
373.635	120.83
373.846	106.49
374.056	51.2
374.267	67.58
374.477	124.93
374.688	45.06
374.898	22.53
375.109	96.25
375.319	92.16
375.53	126.97
375.74	92.16
375.951	14.34
376.161	18.43
376.372	104.45
376.582	75.77
376.793	94.21
377.003	63.49
377.214	53.25
377.424	81.92
377.635	90.11
377.845	43.01
378.055	110.59
378.266	30.72
378.476	32.77
378.686	86.01
378.897	55.3
379.107	86.01
379.317	114.69
379.528	-22.53
379.738	47.1
379.948	-53.25
380.158	112.64
380.369	77.82
380.579	141.31
380.789	-4.1
380.999	75.77
381.21	40.96
381.42	86.01
381.63	20.48
381.84	75.77
382.05	0
382.261	112.64
382.471	43.01
382.681	83.97
382.891	51.2
383.101	102.4
383.311	-4.1
383.521	96.25
383.731	59.39
383.941	65.54
384.151	2.05
384.361	124.93
384.571	79.87
384.781	104.45
384.991	55.3
385.201	75.77
385.411	43.01
385.621	79.87
385.831	92.16
386.041	86.01
386.251	79.87
386.461	169.98
386.671	47.1
386.881	75.77
387.091	114.69
387.301	53.25
387.511	63.49
387.72	92.16
387.93	67.58
388.14	49.15
388.35	6.14
388.56	81.92
388.769	83.97
388.979	75.77
389.189	77.82
389.399	49.15
389.609	69.63
389.818	30.72
390.028	53.25
390.238	135.17
390.447	94.21
390.657	55.3
390.867	155.65
391.076	65.54
391.286	96.25
391.496	108.54
391.705	45.06
391.915	55.3
392.125	59.39
392.334	67.58
392.544	51.2
392.753	38.91
392.963	86.01
393.172	153.6
393.382	63.49
393.591	208.89
393.801	63.49
394.01	194.56
394.22	137.21
394.429	167.93
394.639	126.97
394.848	102.4
395.058	110.59
395.267	143.36
395.477	129.02
395.686	169.98
395.895	198.65
396.105	129.02
396.314	55.3
396.524	96.25
396.733	110.59
396.942	133.12
397.152	100.35
397.361	73.73
397.57	133.12
397.78	169.98
397.989	145.41
398.198	141.31
398.407	114.69
398.617	149.5
398.826	149.5
399.035	139.26
399.244	151.55
399.453	149.5
399.663	147.45
399.872	169.98
400.081	131.07
400.29	161.79
400.499	165.89
400.708	200.7
400.917	161.79
401.127	190.46
401.336	180.22
401.545	151.55
401.754	149.5
401.963	116.73
402.172	116.73
402.381	176.13
402.59	120.83
402.799	192.51
403.008	108.54
403.217	83.97
403.426	149.5
403.635	231.42
403.844	126.97
404.053	165.89
404.262	131.07
404.471	237.56
404.68	235.52
404.888	239.61
405.097	157.69
405.306	202.75
405.515	247.8
405.724	262.14
405.933	204.8
406.142	235.52
406.35	221.18
406.559	184.32
406.768	270.33
406.977	233.47
407.185	286.72
407.394	311.29
407.603	239.61
407.812	237.56
408.02	329.72
408.229	350.2
408.438	278.52
408.646	268.28
408.855	327.68
409.064	405.5
409.272	364.54
409.481	389.11
409.69	397.31
409.898	327.68
410.107	419.83
410.315	487.42
410.524	481.27
410.733	442.36
410.941	419.83
411.15	450.55
411.358	532.47
411.567	530.42
411.775	581.62
411.984	511.99
412.192	569.34
412.401	643.06
412.609	618.49
412.818	681.97
413.026	653.3
413.234	647.16
413.443	647.16
413.651	720.88
413.86	837.62
414.068	757.75
414.276	911.35
414.485	808.95
414.693	823.28
414.901	921.59
415.11	1023.98
415.318	972.79
415.526	985.07
415.734	1073.14
415.943	1093.62
416.151	1105.9
416.359	1146.86
416.567	1191.92
416.776	1087.47
416.984	1224.69
417.192	1339.37
417.4	1259.5
417.608	1284.08
417.817	1355.76
418.025	1497.07
418.233	1529.83
418.441	1464.3
418.649	1568.74
418.857	1656.81
419.065	1710.05
419.273	1669.09
419.481	1802.21
419.689	1869.8
419.897	1927.14
420.105	1966.05
420.313	2076.64
420.521	2078.69
420.729	2205.66
420.937	2183.13
421.145	2469.85
421.353	2437.08
421.561	2535.39
421.769	2668.5
421.977	2791.38
422.185	2750.42
422.393	2873.3
422.601	2940.88
422.809	2983.89
423.017	3100.62
423.224	3246.03
423.432	3301.33
423.64	3442.64
423.848	3581.9
424.056	3483.59
424.263	3753.93
424.471	3729.35
424.679	3819.46
424.887	4050.88
425.094	4171.71
425.302	4325.31
425.51	4347.84
425.718	4665.27
425.925	4685.75
426.133	4599.74
426.341	4954.04
426.548	5261.23
426.756	5068.72
426.964	5195.7
427.171	5550
427.379	5834.66
427.586	5711.78
427.794	5943.21
428.001	6254.5
428.209	6494.11
428.417	6363.04
428.624	7071.64
428.832	6961.05
429.039	6817.69
429.247	6809.5
429.454	7450.51
429.662	8071.04
429.869	7333.78
430.076	8132.48
430.284	7942.02
430.491	8253.31
430.699	8667
430.906	8685.44
431.114	8808.31
431.321	9166.71
431.528	9367.41
431.736	9848.68
431.943	10252.13
432.15	9967.46
432.358	9998.18
432.565	10737.5
432.772	10522.46
432.979	11085.65
433.187	11261.78
433.394	11550.54
433.601	12115.78
433.808	12109.64
434.016	12019.53
434.223	12621.63
434.43	13463.35
434.637	12891.96
434.844	13993.77
435.052	14376.74
435.259	13954.86
435.466	14167.85
435.673	13858.6
435.88	15144.73
436.087	15814.41
436.294	15685.39
436.501	15492.88
436.708	16002.83
436.915	16254.73
437.122	16885.5
437.329	17063.68
437.537	17452.79
437.743	17655.54
437.95	17778.42
438.157	18648.8
438.364	19039.97
438.571	18798.31
438.778	19263.19
438.985	20969.15
439.192	20203.21
439.399	20870.85
439.606	20315.85
439.813	21726.9
440.02	23123.62
440.227	22277.8
440.433	22189.74
440.64	22914.72
440.847	22974.11
441.054	23514.78
441.261	24821.38
441.467	24772.23
441.674	25140.86
441.881	25888.37
442.088	26107.51
442.294	25849.46
442.501	26535.53
442.708	27399.77
442.914	27854.42
443.121	29150.79
443.328	28331.6
443.534	30537.26
443.741	29587
443.948	29163.07
444.154	31596.06
444.361	31043.11
444.568	31583.77
444.774	31348.26
444.981	31628.83
445.187	32577.04
445.394	33877.5
445.6	33846.78
445.807	36808.14
446.013	35286.5
446.22	35823.07
446.426	37051.85
446.633	37547.46
446.839	38919.6
447.046	37238.22
447.252	39581.09
447.459	39073.2
447.665	39392.68
447.871	41086.35
448.078	42671.48
448.284	40719.76
448.491	41772.42
448.697	43347.31
448.903	43679.08
449.11	44365.15
449.316	43185.52
449.522	44408.15
449.728	45419.85
449.935	45905.22
450.141	45868.36
450.347	46769.46
450.553	45499.72
450.76	46245.18
450.966	47455.53
451.172	47093.04
451.378	48256.29
451.584	47238.45
451.791	48264.48
451.997	48440.6
452.203	48739.61
452.409	49132.82
452.615	48598.3
452.821	46699.83
453.027	46464.32
453.233	49093.91
453.44	46658.87
453.646	47453.48
453.852	48188.7
454.058	48563.48
454.264	46849.33
454.47	48020.77
454.676	47140.14
454.882	48375.07
455.088	44426.59
455.294	45391.18
455.5	45917.51
455.705	46347.58
455.911	44500.31
456.117	43539.82
456.323	42960.24
456.529	41225.61
456.735	42732.92
456.941	41002.38
457.147	40689.04
457.352	39544.23
457.558	39169.45
457.764	38645.17
457.97	38659.51
458.176	37791.17
458.381	37676.48
458.587	35984.86
458.793	35493.35
458.999	33893.88
459.204	36523.47
459.41	35313.13
459.616	32953.87
459.821	33250.82
460.027	32998.92
460.233	32542.22
460.438	31000.1
460.644	31104.55
460.85	29546.05
461.055	29275.71
461.261	29115.97
461.466	27203.17
461.672	26236.53
461.878	28434
462.083	26254.96
462.289	25661.05
462.494	25671.29
462.7	24391.31
462.905	23772.82
463.111	24555.15
463.316	24319.63
463.522	24073.87
463.727	24264.33
463.932	24247.95
464.138	23738.01
464.343	23705.24
464.549	22904.48
464.754	24059.54
464.959	23668.37
465.165	23428.76
465.37	22347.43
465.575	22044.34
465.781	22955.68
465.986	23017.12
466.191	22103.73
466.397	21544.63
466.602	20727.49
466.807	21483.19
467.012	21571.25
467.218	21292.73
467.423	20973.25
467.628	21200.57
467.833	22083.25
468.038	21391.03
468.244	20686.53
468.449	21483.19
468.654	20891.33
468.859	20772.55
469.064	20655.81
469.269	19588.82
469.474	19953.36
469.679	20096.72
469.885	19650.26
470.09	20096.72
470.295	19820.24
470.5	19386.07
470.705	19738.32
470.91	18874.08
471.115	18712.29
471.32	19287.77
471.525	18992.86
471.73	18560.74
471.935	18468.58
472.139	17917.68
472.344	18130.67
472.549	17854.19
472.754	17706.74
472.959	17186.55
473.164	17198.84
473.369	16680.71
473.574	17741.55
473.778	17340.15
473.983	17069.82
474.188	17125.11
474.393	16131.85
474.598	16443.14
474.802	16113.42
475.007	16043.79
475.212	15988.49
475.417	15415.06
475.621	15574.8
475.826	15331.09
476.031	15464.21
476.235	15056.67
476.44	15159.06
476.645	14970.65
476.849	14966.56
477.054	14526.24
477.259	14227.24
477.463	14628.64
477.668	14085.93
477.872	14343.97
478.077	14180.14
478.282	13549.36
478.486	13709.1
478.691	13561.65
478.895	13266.74
479.1	13262.65
479.304	13588.27
479.509	13244.21
479.713	13332.28
479.918	13215.54
480.122	12885.82
480.326	13117.24
480.531	12988.22
480.735	12873.53
480.94	12762.94
481.144	13156.15
481.348	12484.42
481.553	12480.32
481.757	12398.4
481.961	12535.62
482.166	12869.44
482.37	12744.51
482.574	12306.24
482.778	12355.4
482.983	12699.45
483.187	12549.95
483.391	12478.27
483.595	12418.88
483.8	12189.51
484.004	12449.6
484.208	12554.05
484.412	12429.12
484.616	12339.01
484.821	12463.94
485.025	12085.06
485.229	12511.04
485.433	12275.52
485.637	12371.78
485.841	12273.48
486.045	12359.49
486.249	12433.22
486.453	12314.44
486.657	12273.48
486.861	12349.25
487.065	11953.99
487.269	11960.14
487.473	11878.22
487.677	12365.64
487.881	12386.11
488.085	12281.67
488.289	12529.47
488.493	12324.68
488.697	12537.66
488.901	12547.9
489.105	12420.93
489.309	12388.16
489.512	12488.51
489.716	12310.34
489.92	12394.31
490.124	12529.47
490.328	12652.35
490.531	12615.49
490.735	12855.1
490.939	12797.76
491.143	12812.09
491.346	12668.73
491.55	12912.44
491.754	12857.15
491.958	12894.01
492.161	12777.28
492.365	13057.85
492.569	12805.95
492.772	12908.35
492.976	13072.18
493.18	13178.68
493.383	13102.9
493.587	13342.52
493.79	13526.83
493.994	13166.39
494.197	13455.15
494.401	13791.02
494.605	13586.22
494.808	13825.84
495.012	13934.38
495.215	14059.31
495.419	14151.46
495.622	13932.33
495.825	14296.87
496.029	14266.15
496.232	14567.2
496.436	14473
496.639	14858.01
496.843	14798.62
497.046	15140.63
497.249	15103.77
497.453	15365.91
497.656	15380.25
497.859	15494.93
498.063	15875.85
498.266	16103.18
498.469	15978.25
498.673	16019.21
498.876	16566.02
499.079	16494.34
499.282	16578.31
499.485	16903.93
499.689	16883.45
499.892	17145.59
500.095	17299.19
500.298	17878.77
500.501	17487.61
500.705	18214.63
500.908	18306.79
501.111	18343.66
501.314	18482.92
501.517	18704.1
501.72	19156.7
501.923	18650.85
502.126	19142.36
502.329	19666.64
502.532	19652.31
502.735	19853.01
502.938	20248.27
503.141	20293.32
503.344	20864.71
503.547	20520.65
503.75	20891.33
503.953	21567.16
504.156	21335.74
504.359	21593.78
504.562	21632.69
504.765	22288.04
504.968	22417.07
505.17	22589.1
505.373	22728.36
505.576	22945.44
505.779	23123.62
505.982	23486.11
506.185	23920.27
506.387	23983.76
506.59	24602.25
506.793	24647.3
506.996	24761.99
507.198	25327.23
507.401	25136.77
507.604	25757.3
507.807	26291.82
508.009	26257.01
508.212	26388.08
508.415	26717.8
508.617	27199.07
508.82	27303.52
509.022	27168.35
509.225	27907.67
509.428	28245.58
509.63	28192.34
509.833	28325.46
510.035	28986.95
510.238	28886.6
510.44	29570.62
510.643	29619.77
510.845	30066.23
511.048	30025.27
511.25	30273.07
511.453	30778.92
511.655	31667.74
511.858	31114.79
512.06	31557.15
512.262	32187.92
512.465	32204.31
512.667	32546.32
512.87	32941.58
513.072	33168.9
513.274	33621.5
513.477	34239.99
513.679	34629.1
513.881	34645.49
514.084	34975.21
514.286	35341.8
514.488	35227.11
514.69	36259.29
514.893	36480.47
515.095	36517.33
515.297	37070.28
515.499	37086.67
515.701	37336.52
515.904	37834.17
516.106	38016.44
516.308	38610.35
516.51	38727.09
516.712	38964.65
516.914	39345.58
517.116	39992.73
517.318	40105.37
517.52	40031.65
517.722	40406.42
517.925	41307.53
518.127	41465.22
518.329	41733.51
518.531	41772.42
518.733	42628.47
518.935	42997.1
519.136	42784.12
519.338	43251.05
519.54	43816.29
519.742	44096.86
519.944	44197.21
520.146	44840.28
520.348	44993.87
520.55	45276.49
520.752	45477.19
520.954	45929.8
521.155	45708.61
521.357	46654.78
521.559	47121.71
521.761	47863.08
521.963	47846.69
522.164	47607.08
522.366	47850.79
522.568	48850.2
522.77	48409.89
522.971	49200.4
523.173	48880.92
523.375	49607.95
523.576	49681.67
523.778	49698.06
523.98	50388.22
524.181	50523.39
524.383	50287.87
524.584	51354.86
524.786	51352.82
524.988	50918.65
525.189	51729.64
525.391	51946.73
525.592	52088.04
525.794	52255.97
525.995	52382.94
526.197	52503.77
526.398	52534.49
526.6	52913.37
526.801	53253.33
527.003	53126.36
527.204	53490.9
527.406	53488.85
527.607	53865.67
527.808	54244.55
528.01	53386.45
528.211	53927.11
528.412	55108.79
528.614	54584.51
528.815	54381.76
529.016	55184.57
529.218	55026.87
529.419	54836.41
529.62	55094.46
529.822	54777.02
530.023	55223.48
530.224	54725.82
530.425	54944.95
530.626	55215.29
530.828	54869.18
531.029	55989.42
531.23	55084.22
531.431	55473.33
531.632	55444.66
531.833	55817.39
532.035	55686.32
532.236	55559.34
532.437	55801
532.638	55870.64
532.839	56104.1
533.04	56243.37
533.241	55516.34
533.442	55956.65
533.643	55991.47
533.844	55727.28
534.045	56048.81
534.246	55817.39
534.447	56186.02
534.648	55903.4
534.849	55993.51
535.05	55602.35
535.251	56079.53
535.451	56075.43
535.652	55612.59
535.853	55921.83
536.054	55919.79
536.255	56075.43
536.456	55649.45
536.657	56632.48
536.857	55428.27
537.058	55575.73
537.259	56032.43
537.46	55893.16
537.66	56054.95
537.861	55950.51
538.062	55442.61
538.263	55815.34
538.463	55321.78
538.664	55461.04
538.865	56132.78
539.065	55995.56
539.266	55344.31
539.466	56067.24
539.667	55358.64
539.868	55678.13
540.068	55157.94
540.269	55618.74
540.469	55846.06
540.67	55063.74
540.87	55461.04
541.071	55696.56
541.271	55786.67
541.472	55327.92
541.672	55495.86
541.873	55092.41
542.073	54426.82
542.274	55403.7
542.474	55153.85
542.675	55080.12
542.875	55868.59
543.075	55203
543.276	54510.78
543.476	55534.77
543.676	54910.14
543.877	55110.84
544.077	55194.81
544.277	55168.18
544.478	55319.73
544.678	55342.26
544.878	55024.82
545.078	55166.13
545.279	54879.42
545.479	54265.03
545.679	54867.13
545.879	55028.92
546.079	55176.37
546.28	54967.48
546.48	54248.64
546.68	54684.86
546.88	54799.55
547.08	54518.98
547.28	54531.26
547.48	54670.53
547.68	54473.92
547.88	54523.07
548.081	54850.75
548.281	55127.22
548.481	54144.2
548.681	54392
548.881	54297.8
549.081	54492.35
549.28	54117.57
549.48	54928.57
549.68	53998.79
549.88	54963.39
550.08	54357.19
550.28	54781.12
550.48	54777.02
550.68	54652.09
550.88	54523.07
551.08	53802.19
551.279	54101.19
551.479	54252.74
551.679	54291.65
551.879	54043.85
552.079	54455.49
552.278	54093
552.478	54029.51
552.678	53880.01
552.878	54508.74
553.077	54039.75
553.277	54086.85
553.477	54709.44
553.676	53933.26
553.876	54015.18
554.076	53898.44
554.275	53650.64
554.475	53408.98
554.674	54080.71
554.874	54320.32
555.074	53619.92
555.273	53869.77
555.473	53955.78
555.672	53339.35
555.872	53761.23
556.071	53728.46
556.271	53744.84
556.47	53742.8
556.67	53312.72
556.869	53335.25
557.068	53585.1
557.268	53226.71
557.467	53169.36
557.667	53384.4
557.866	53355.73
558.065	53406.93
558.265	52968.66
558.464	52868.31
558.663	53507.28
558.863	52731.1
559.062	53822.67
559.261	52430.05
559.461	53634.25
559.66	52403.42
559.859	52868.31
560.058	52520.16
560.258	52643.04
560.457	51799.27
560.656	52862.17
560.855	52552.93
561.054	52294.88
561.253	51954.92
561.453	52526.3
561.652	52339.94
561.851	52585.69
562.05	52051.17
562.249	52036.84
562.448	52112.61
562.647	52026.6
562.846	52073.7
563.045	51655.92
563.244	51750.12
563.443	51967.21
563.642	51059.96
563.841	51598.57
564.04	51303.67
564.239	51727.59
564.438	51125.49
564.637	51016.95
564.836	51160.31
565.035	50670.84
565.234	51049.72
565.432	50453.76
565.631	50648.32
565.83	50496.77
566.029	49900.81
566.228	50715.9
566.427	50406.65
566.625	49904.9
566.824	49583.37
567.023	50453.76
567.222	49265.94
567.42	50242.82
567.619	49878.28
567.818	49394.96
568.016	49167.63
568.215	49872.14
568.414	48981.27
568.612	49653
568.811	49198.35
569.01	49186.07
569.208	48528.67
569.407	48940.31
569.605	48239.9
569.804	49237.26
570.002	48026.92
570.201	48547.1
570.4	48370.97
570.598	48235.81
570.797	47938.85
570.995	47789.35
571.193	47467.82
571.392	48311.58
571.59	47406.38
571.789	47410.48
571.987	47168.82
572.186	47162.67
572.384	46738.74
572.582	47146.29
572.781	47516.97
572.979	46171.46
573.177	46673.21
573.376	47035.7
573.574	46110.02
573.772	46568.76
573.971	46404.92
574.169	46011.71
574.367	45733.19
574.565	46243.13
574.763	45657.42
574.962	45446.47
575.16	45299.02
575.358	45604.17
575.556	44803.41
575.754	46003.52
575.952	45362.51
576.151	45636.94
576.349	45233.49
576.547	44799.32
576.745	44492.12
576.943	44604.76
577.141	44819.8
577.339	44420.44
577.537	43840.87
577.735	43666.79
577.933	43615.59
578.131	44082.53
578.329	43488.62
578.527	43457.9
578.725	43531.62
578.923	43459.94
579.121	43154.8
579.319	43418.99
579.516	43347.31
579.714	43017.58
579.912	42696.05
580.11	42966.38
580.308	42509.69
580.506	42456.44
580.704	41973.12
580.901	42526.07
581.099	42687.86
581.297	42265.98
581.495	42157.44
581.692	41852.29
581.89	41397.64
582.088	41614.72
582.285	41397.64
582.483	41655.68
582.681	41629.06
582.878	41078.16
583.076	40375.7
583.274	41405.83
583.471	40332.7
583.669	40744.34
583.866	40207.77
584.064	40662.42
584.262	40523.16
584.459	40582.55
584.657	39898.53
584.854	40457.62
585.052	39462.31
585.249	40000.93
585.447	39900.58
585.644	39652.77
585.841	39714.21
586.039	39882.14
586.236	39228.84
586.434	38958.51
586.631	38473.14
586.828	38782.38
587.026	39003.56
587.223	38811.06
587.42	38671.79
587.618	38987.18
587.815	38440.37
588.012	38149.56
588.21	38251.96
588.407	38180.28
588.604	38186.43
588.801	38047.16
588.999	37963.2
589.196	37819.84
589.393	37858.75
589.59	37574.08
589.787	37483.97
589.984	37012.94
590.182	37039.56
590.379	37244.36
590.576	36697.55
590.773	37236.17
590.97	36486.61
591.167	36857.29
591.364	36711.89
591.561	36589.01
591.758	36406.74
591.955	36122.07
592.152	36758.99
592.349	35866.08
592.546	36271.57
592.743	36058.59
592.94	35325.41
593.137	36050.39
593.334	35753.44
593.531	35192.29
593.727	35440.1
593.924	35472.87
594.121	34854.38
594.318	35319.27
594.515	34596.34
594.712	35200.49
594.908	34717.17
595.105	35165.67
595.302	34145.78
595.499	34321.91
595.696	34231.8
595.892	34317.81
596.089	34582
596.286	34145.78
596.482	33725.95
596.679	34207.22
596.876	33988.09
597.072	33517.06
597.269	33777.15
597.466	33461.76
597.662	33426.95
597.859	33299.97
598.055	33068.55
598.252	33170.95
598.448	32927.24
598.645	32957.96
598.841	32585.23
599.038	32771.6
599.234	32712.2
599.431	32417.3
599.627	32421.39
599.824	32456.21
600.02	32527.89
600.217	32423.44
600.413	31933.98
600.609	31966.74
600.806	31784.47
601.002	32108.05
601.198	31680.03
601.395	31098.41
601.591	30998.05
601.787	31374.88
601.984	31235.62
602.18	31434.27
602.376	30971.43
602.572	31079.97
602.769	31075.88
602.965	30678.57
603.161	31141.41
603.357	30494.25
603.553	30584.37
603.75	30555.69
603.946	30207.54
604.142	30291.51
604.338	30043.7
604.534	30479.92
604.73	30082.61
604.926	29904.44
605.122	29908.54
605.318	29675.07
605.514	29460.03
605.71	29169.22
605.906	29754.94
606.102	29390.4
606.298	29359.68
606.494	29400.64
606.69	29357.63
606.886	28923.46
607.082	28950.09
607.278	29208.13
607.474	28417.61
607.67	29046.34
607.866	28454.48
608.062	29144.64
608.257	28855.88
608.453	28812.87
608.649	28718.67
608.845	28560.97
609.041	28223.06
609.236	28212.82
609.432	28669.51
609.628	28343.89
609.824	28218.96
610.019	28030.55
610.215	28020.31
610.411	28100.18
610.606	27580
610.802	27909.72
610.998	27723.35
611.193	27616.86
611.389	27641.43
611.584	27698.78
611.78	27121.25
611.976	27424.35
612.171	27625.05
612.367	27078.24
612.562	27346.53
612.758	26863.21
612.953	27031.14
613.149	27379.29
613.344	26623.59
613.539	27135.59
613.735	26691.18
613.93	27121.25
614.126	26709.61
614.321	27180.64
614.517	26611.31
614.712	26736.23
614.907	26791.53
615.103	26445.42
615.298	26293.87
615.493	26701.42
615.688	26025.59
615.884	26824.29
616.079	26035.83
616.274	26420.84
616.47	26263.15
616.665	25998.96
616.86	25843.32
617.055	26021.49
617.25	25765.49
617.445	26273.39
617.641	25562.75
617.836	25517.69
618.031	25446.01
618.226	25419.39
618.421	25222.78
618.616	25554.55
618.811	25003.65
619.006	25433.72
619.201	24616.58
619.396	25026.18
619.591	24702.6
619.786	25007.75
619.981	24356.49
620.176	24649.35
620.371	24168.08
620.566	24180.37
620.761	24000.15
620.956	24594.06
621.151	24077.97
621.346	24166.03
621.541	23742.1
621.735	23963.28
621.93	23475.87
622.125	23529.11
622.32	23246.49
622.515	23309.98
622.709	22783.65
622.904	23068.32
623.099	23041.7
623.294	22943.39
623.488	22382.25
623.683	22746.79
623.878	22490.79
624.072	22519.46
624.267	22003.38
624.462	22267.56
624.656	21868.21
624.851	21958.32
625.046	21604.02
625.24	21862.07
625.435	21503.67
625.629	21384.89
625.824	21362.36
626.018	21225.15
626.213	20582.09
626.407	20842.18
626.602	20623.05
626.796	20684.48
626.991	20680.39
627.185	20758.21
627.38	20430.54
627.574	20340.43
627.768	20246.22
627.963	20010.7
628.157	19822.29
628.352	19840.72
628.546	19588.82
628.74	19766.99
628.935	19685.08
629.129	19289.82
629.323	19115.74
629.517	19308.25
629.712	19238.62
629.906	18984.67
630.1	18988.77
630.294	19091.16
630.489	18716.39
630.683	18726.63
630.877	18616.04
631.071	18482.92
631.265	18417.38
631.459	18222.83
631.653	18204.39
631.848	18220.78
632.042	18048.75
632.236	17993.45
632.43	17565.43
632.624	17782.51
632.818	17665.78
633.012	17305.34
633.206	17518.32
633.4	17204.99
633.594	17057.53
633.788	17344.25
633.982	17100.54
634.176	16893.69
634.369	16840.45
634.563	16506.63
634.757	16576.26
634.951	16711.42
635.145	16531.2
635.339	16477.96
635.533	16598.79
635.726	16283.4
635.92	16258.82
636.114	16031.5
636.308	15847.18
636.501	15968.01
636.695	15855.37
636.889	15759.12
637.083	15607.57
637.276	15554.32
637.47	15394.58
637.664	15474.45
637.857	15372.05
638.051	15200.02
638.244	15251.22
638.438	15036.19
638.632	15132.44
638.825	14679.84
639.019	14935.84
639.212	14591.78
639.406	14759.71
639.599	14376.74
639.793	14542.63
639.986	13985.58
640.18	14477.09
640.373	14190.38
640.567	14001.96
640.76	13827.88
640.954	14036.78
641.147	13696.81
641.34	13725.49
641.534	13682.48
641.727	13641.52
641.92	13713.2
642.114	13532.98
642.307	13518.64
642.5	13135.67
642.694	13125.43
642.887	13150.01
643.08	13203.25
643.273	13010.75
643.467	13123.38
643.66	12717.89
643.853	12764.99
644.046	12728.13
644.239	12564.29
644.432	12603.2
644.626	12371.78
644.819	12576.58
645.012	12328.77
645.205	12396.35
645.398	12347.2
645.591	12156.74
645.784	12066.63
645.977	11890.51
646.17	11960.14
646.363	11827.02
646.556	11851.6
646.749	11726.67
646.942	11513.68
647.135	11501.39
647.328	11513.68
647.521	11466.58
647.714	11368.27
647.907	11407.19
648.099	11261.78
648.292	11226.96
648.485	11251.54
648.678	11102.04
648.871	11126.61
649.064	10958.68
649.256	10948.44
649.449	10889.05
649.642	10837.85
649.835	10567.52
650.027	10743.64
650.22	10491.74
650.413	10411.87
650.605	10651.49
650.798	10321.76
650.991	10325.86
651.183	10094.44
651.376	10164.07
651.568	10336.1
651.761	10053.48
651.954	10125.16
652.146	10041.19
652.339	10149.73
652.531	10039.14
652.724	9918.31
652.916	9824.11
653.109	9893.74
653.301	9662.32
653.494	9641.84
653.686	9473.9
653.879	9820.01
654.071	9465.71
654.263	9242.48
654.456	9561.97
654.648	9523.05
654.84	9254.77
655.033	9164.66
655.225	9252.72
655.417	9105.27
655.61	9170.8
655.802	9193.33
655.994	8900.47
656.186	9013.11
656.379	9109.36
656.571	8941.43
656.763	8935.29
656.955	8998.77
657.148	8662.91
657.34	8867.7
657.532	8683.39
657.724	8621.95
657.916	8548.22
658.108	8650.62
658.3	8613.76
658.492	8347.52
658.684	8474.49
658.876	8202.11
659.068	8304.51
659.26	8271.75
659.452	8157.06
659.644	8099.72
659.836	8230.79
660.028	8159.11
660.22	7980.93
660.412	8032.13
660.604	7667.6
660.796	7884.68
660.988	7745.42
661.18	7813
661.372	7624.59
661.563	7716.75
661.755	7618.44
661.947	7581.58
662.139	7440.27
662.331	7563.15
662.522	7368.59
662.714	7507.85
662.906	7346.06
663.097	7272.34
663.289	7368.59
663.481	7491.47
663.673	7176.08
663.864	7104.4
664.056	7194.51
664.247	7157.65
664.439	7014.29
664.631	7284.62
664.822	7051.16
665.014	7020.44
665.205	6883.22
665.397	6819.74
665.588	6989.72
665.78	6997.91
665.971	6858.65
666.163	6899.61
666.354	6981.53
666.546	6666.14
666.737	6541.21
666.929	6774.68
667.12	6625.18
667.311	6451.1
667.503	6649.75
667.694	6586.27
667.885	6557.6
668.077	6424.48
668.268	6311.84
668.459	6303.65
668.651	6399.9
668.842	6350.75
669.033	6293.41
669.224	6313.89
669.416	6432.67
669.607	6379.42
669.798	6123.43
669.989	6152.1
670.18	5992.36
670.371	5984.16
670.563	6100.9
670.754	6096.8
670.945	6090.66
671.136	6203.3
671.327	5894.05
671.518	5957.54
671.709	6014.88
671.9	5916.58
672.091	5951.4
672.282	5867.43
672.473	5775.27
672.664	5822.38
672.855	5857.19
673.046	5879.72
673.237	5875.62
673.428	5818.28
673.619	5758.89
673.809	5873.57
674	5666.73
674.191	5593
674.382	5625.77
674.573	5736.36
674.764	5445.55
674.954	5578.67
675.145	5527.47
675.336	5578.67
675.527	5582.76
675.717	5435.31
675.908	5527.47
676.099	5400.49
676.289	5435.31
676.48	5402.54
676.671	5285.81
676.861	5412.78
677.052	5418.93
677.243	5279.66
677.433	5418.93
677.624	5433.26
677.814	5244.85
678.005	5359.53
678.195	5212.08
678.386	5240.75
678.576	5367.73
678.767	5214.13
678.957	5390.25
679.148	5246.9
679.338	5257.14
679.529	5130.16
679.719	5105.59
679.909	5316.53
680.1	5115.83
680.29	5250.99
680.481	5271.47
680.671	5005.24
680.861	5046.19
681.052	5062.58
681.242	5093.3
681.432	5171.12
681.622	5189.55
681.813	4972.47
682.003	5005.24
682.193	5109.68
682.383	5038
682.573	5058.48
682.764	5089.2
682.954	5005.24
683.144	4978.61
683.334	4796.34
683.524	4974.52
683.714	4868.02
683.904	4911.03
684.094	4908.98
684.284	5003.19
684.474	4937.65
684.664	4857.78
684.854	4849.59
685.044	4833.21
685.234	4757.43
685.424	4732.86
685.614	4886.45
685.804	4829.11
685.994	4734.9
686.184	4726.71
686.374	4714.42
686.564	4732.86
686.753	4675.51
686.943	4648.89
687.133	4669.37
687.323	4687.8
687.513	4583.35
687.702	4581.31
687.892	4626.36
688.082	4747.19
688.272	4661.18
688.461	4523.96
688.651	4642.75
688.841	4530.11
689.03	4435.9
689.22	4446.14
689.41	4450.24
689.599	4429.76
689.789	4558.78
689.979	4446.14
690.168	4552.63
690.358	4362.17
690.547	4401.08
690.737	4437.95
690.926	4466.62
691.116	4331.45
691.305	4435.9
691.495	4394.94
691.684	4327.36
691.874	4476.86
692.063	4306.88
692.252	4421.56
692.442	4274.11
692.631	4296.64
692.82	4153.28
693.01	4192.19
693.199	4255.68
693.388	4140.99
693.578	4235.2
693.767	4317.12
693.956	4259.78
694.146	4239.3
694.335	4192.19
694.524	4196.29
694.713	4245.44
694.902	4036.55
695.092	4184
695.281	4071.36
695.47	4177.86
695.659	4003.78
695.848	4095.94
696.037	4136.9
696.226	3999.68
696.415	4063.17
696.604	4009.92
696.793	4022.21
696.982	3962.82
697.171	4085.7
697.36	4061.12
697.549	4065.22
697.738	4036.55
697.927	3905.48
698.116	3964.87
698.305	4052.93
698.494	4009.92
698.683	4069.31
698.872	3987.4
699.061	3921.86
699.25	3905.48
699.438	3954.63
699.627	3907.52
699.816	3950.53
700.005	3948.48
700.193	3938.24
700.382	3942.34
700.571	3837.89
700.76	4026.31
700.948	3936.2
701.137	3885
701.326	3872.71
701.514	3796.93
701.703	3846.09
701.892	3854.28
702.08	3876.8
702.269	3891.14
702.457	3887.04
702.646	3913.67
702.834	3905.48
703.023	3897.28
703.212	3735.49
703.4	3819.46
703.589	3743.69
703.777	3839.94
703.965	3721.16
704.154	3659.72
704.342	3704.78
704.531	3733.45
704.719	3690.44
704.907	3893.19
705.096	3704.78
705.284	3645.38
705.472	3702.73
705.661	3680.2
705.849	3616.71
706.037	3653.58
706.226	3698.63
706.414	3602.38
706.602	3682.25
706.79	3739.59
706.979	3758.02
707.167	3645.38
707.355	3659.72
707.543	3477.45
707.731	3590.09
707.919	3551.18
708.107	3569.61
708.296	3528.65
708.484	3624.9
708.672	3422.16
708.86	3512.27
709.048	3575.75
709.236	3424.2
709.424	3477.45
709.612	3465.16
709.8	3512.27
709.988	3391.44
710.176	3536.84
710.364	3502.03
710.551	3430.35
710.739	3319.76
710.927	3313.61
711.115	3358.67
711.303	3440.59
711.491	3360.72
711.679	3309.52
711.866	3387.34
712.054	3256.27
712.242	3301.33
712.43	3155.92
712.617	3346.38
712.805	3321.81
712.993	3252.17
713.181	3151.82
713.368	3375.05
713.556	3213.26
713.744	3178.45
713.931	3411.92
714.119	3149.78
714.306	3200.98
714.494	3225.55
714.682	3092.43
714.869	3276.75
715.057	3295.18
715.244	3114.96
715.432	3157.97
715.619	3137.49
715.807	3192.78
715.994	3231.69
716.182	3131.34
716.369	3045.33
716.556	3080.15
716.744	3127.25
716.931	3022.8
717.119	3164.11
717.306	3131.34
717.493	2936.79
717.681	3078.1
717.868	3024.85
718.055	3008.47
718.242	3141.58
718.43	3004.37
718.617	2842.58
718.804	2906.07
718.991	2889.68
719.179	2934.74
719.366	2963.41
719.553	3000.27
719.74	2897.88
719.927	2944.98
720.114	2942.93
720.301	2920.4
720.488	2871.25
720.676	2844.63
720.863	2727.89
721.05	2922.45
721.237	2805.72
721.424	2877.4
721.611	2840.53
721.798	2772.95
721.985	2820.05
722.172	2746.33
722.358	2756.57
722.545	2842.58
722.732	2748.37
722.919	2758.61
723.106	2781.14
723.293	2736.09
723.48	2768.85
723.667	2744.28
723.853	2715.61
724.04	2731.99
724.227	2721.75
724.414	2654.17
724.6	2557.91
724.787	2643.93
724.974	2719.7
725.161	2578.39
725.347	2731.99
725.534	2617.3
725.72	2746.33
725.907	2617.3
726.094	2555.86
726.28	2686.94
726.467	2602.97
726.653	2621.4
726.84	2615.26
727.027	2594.78
727.213	2578.39
727.4	2510.81
727.586	2529.24
727.773	2525.15
727.959	2492.38
728.145	2502.62
728.332	2529.24
728.518	2631.64
728.705	2420.7
728.891	2435.03
729.077	2488.28
729.264	2379.74
729.45	2404.32
729.636	2473.95
729.823	2459.61
730.009	2461.66
730.195	2443.23
730.382	2422.75
730.568	2475.99
730.754	2467.8
730.94	2447.32
731.126	2344.92
731.313	2582.49
731.499	2383.84
731.685	2467.8
731.871	2473.95
732.057	2404.32
732.243	2394.08
732.429	2369.5
732.615	2375.64
732.801	2377.69
732.987	2324.44
733.173	2389.98
733.359	2246.62
733.545	2310.11
733.731	2242.53
733.917	2250.72
734.103	2228.19
734.289	2234.33
734.475	2252.77
734.661	2324.44
734.847	2338.78
735.033	2158.56
735.219	2291.68
735.404	2095.07
735.59	2271.2
735.776	2191.33
735.962	2172.89
736.148	2244.57
736.333	2336.73
736.519	2176.99
736.705	2158.56
736.89	2041.82
737.076	2197.47
737.262	2136.03
737.447	2203.61
737.633	2187.23
737.819	2070.5
738.004	2060.26
738.19	2236.38
738.375	2064.35
738.561	2119.65
738.747	2095.07
738.932	2125.79
739.118	2090.98
739.303	2078.69
739.489	2076.64
739.674	2023.39
739.859	2111.46
740.045	2066.4
740.23	1994.72
740.416	2017.25
740.601	1968.1
740.786	2086.88
740.972	1951.71
741.157	1890.28
741.342	1968.1
741.528	1890.28
741.713	1990.63
741.898	1908.71
742.084	1886.18
742.269	1966.05
742.454	1920.99
742.639	1941.47
742.824	1839.08
743.01	1984.48
743.195	1902.56
743.38	1996.77
743.565	1892.32
743.75	1810.4
743.935	1884.13
744.12	1869.8
744.305	1892.32
744.49	1828.84
744.675	1826.79
744.86	1900.52
745.045	1886.18
745.23	1748.97
745.415	1740.77
745.6	1832.93
745.785	1759.21
745.97	1740.77
746.155	1650.66
746.34	1740.77
746.525	1738.73
746.71	1619.94
746.895	1689.57
747.079	1720.29
747.264	1619.94
747.449	1705.96
747.634	1748.97
747.819	1777.64
748.003	1632.23
748.188	1658.85
748.373	1658.85
748.557	1562.6
748.742	1591.27
748.927	1529.83
749.111	1533.93
749.296	1595.37
749.481	1589.22
749.665	1644.52
749.85	1482.73
750.034	1495.02
750.219	1345.52
750.404	1380.33
750.588	1460.2
750.773	1497.07
750.957	1431.53
751.141	1464.3
751.326	1376.23
751.51	1482.73
751.695	1339.37
751.879	1490.92
752.064	1447.91
752.248	1380.33
752.432	1404.91
752.617	1415.15
752.801	1495.02
752.985	1345.52
753.17	1316.84
753.354	1271.79
753.538	1392.62
753.722	1277.93
753.907	1245.17
754.091	1218.54
754.275	1253.36
754.459	1298.41
754.643	1214.45
754.828	1329.13
755.012	1302.51
755.196	1230.83
755.38	1263.6
755.564	1159.15
755.748	1140.72
755.932	1236.97
756.116	1245.17
756.3	1241.07
756.484	1130.48
756.668	1169.39
756.852	1085.42
757.036	1136.62
757.22	1226.73
757.404	1140.72
757.588	1163.25
757.772	1095.66
757.956	1110
758.14	1122.29
758.323	1087.47
758.507	1081.33
758.691	1085.42
758.875	1005.55
759.059	1081.33
759.242	1085.42
759.426	999.41
759.61	1110
759.794	1056.75
759.977	1081.33
760.161	1019.89
760.345	929.78
760.528	1128.43
760.712	1099.76
760.895	995.31
761.079	1052.66
761.263	1030.13
761.446	997.36
761.63	1036.27
761.813	1124.33
761.997	954.35
762.18	929.78
762.364	1013.74
762.547	849.91
762.731	940.02
762.914	944.11
763.098	929.78
763.281	917.49
763.464	968.69
763.648	860.15
763.831	866.29
764.015	880.63
764.198	1011.7
764.381	880.63
764.564	894.96
764.748	925.68
764.931	937.97
765.114	911.35
765.297	767.99
765.481	899.06
765.664	925.68
765.847	841.72
766.03	847.86
766.213	935.92
766.397	876.53
766.58	886.77
766.763	919.54
766.946	804.85
767.129	942.07
767.312	905.2
767.495	970.74
767.678	860.15
767.861	925.68
768.044	770.04
768.227	788.47
768.41	790.52
768.593	808.95
768.776	876.53
768.959	841.72
769.142	839.67
769.324	847.86
769.507	847.86
769.69	870.39
769.873	774.13
770.056	819.19
770.239	778.23
770.421	757.75
770.604	808.95
770.787	667.64
770.97	815.09
771.152	745.46
771.335	710.65
771.518	749.56
771.7	741.36
771.883	755.7
772.066	790.52
772.248	751.6
772.431	755.7
772.613	688.12
772.796	681.97
772.978	772.08
773.161	772.08
773.343	731.12
773.526	710.65
773.708	722.93
773.891	651.25
774.073	647.16
774.256	796.66
774.438	675.83
774.621	690.17
774.803	739.32
774.985	638.97
775.168	686.07
775.35	649.21
775.532	616.44
775.715	698.36
775.897	673.78
776.079	620.53
776.261	641.01
776.444	651.25
776.626	704.5
776.808	638.97
776.99	641.01
777.173	567.29
777.355	636.92
777.537	557.05
777.719	649.21
777.901	628.73
778.083	575.48
778.265	462.84
778.447	591.86
778.629	552.95
778.811	540.66
778.993	638.97
779.175	624.63
779.357	604.15
779.539	520.18
779.721	544.76
779.903	585.72
780.085	569.34
780.267	595.96
780.449	509.94
780.631	524.28
780.812	487.42
780.994	555
781.176	497.66
781.358	536.57
781.54	499.7
781.721	573.43
781.903	540.66
782.085	428.03
782.267	516.09
782.448	520.18
782.63	479.22
782.812	526.33
782.993	454.65
783.175	448.51
783.357	462.84
783.538	428.03
783.72	434.17
783.901	509.94
784.083	450.55
784.264	376.83
784.446	401.4
784.627	417.79
784.809	536.57
784.99	448.51
785.172	360.44
785.353	425.98
785.535	393.21
785.716	360.44
785.897	399.35
786.079	393.21
786.26	333.82
786.441	477.18
786.623	415.74
786.804	358.39
786.985	389.11
787.167	395.26
787.348	389.11
787.529	411.64
787.71	339.96
787.891	356.35
788.073	372.73
788.254	319.48
788.435	307.2
788.616	395.26
788.797	436.22
788.978	350.2
789.159	364.54
789.34	362.49
789.522	317.44
789.703	382.97
789.884	415.74
790.065	333.82
790.246	393.21
790.427	305.15
790.607	425.98
790.788	344.06
790.969	391.16
791.15	256
791.331	362.49
791.512	362.49
791.693	296.96
791.874	290.81
792.054	352.25
792.235	356.35
792.416	315.39
792.597	280.57
792.778	268.28
792.958	276.48
793.139	372.73
793.32	329.72
793.5	260.09
793.681	380.92
793.862	315.39
794.042	190.46
794.223	296.96
794.404	301.05
794.584	329.72
794.765	296.96
794.945	235.52
795.126	303.1
795.306	272.38
795.487	309.24
795.667	325.63
795.848	262.14
796.028	284.67
796.209	256
796.389	274.43
796.57	251.9
796.75	319.48
796.93	266.24
797.111	206.84
797.291	251.9
797.471	196.61
797.652	233.47
797.832	260.09
798.012	319.48
798.192	241.66
798.373	186.37
798.553	217.08
798.733	317.44
798.913	243.71
799.093	339.96
799.274	225.28
799.454	180.22
799.634	272.38
799.814	188.41
799.994	241.66
800.174	268.28
800.354	233.47
800.534	192.51
800.714	182.27
800.894	260.09
801.074	212.99
801.254	178.17
801.434	223.23
801.614	210.94
801.794	163.84
801.974	628.73
802.154	231.42
802.334	307.2
802.514	200.7
802.693	151.55
802.873	153.6
803.053	184.32
803.233	196.61
803.413	198.65
803.592	192.51
803.772	163.84
803.952	159.74
804.131	153.6
804.311	223.23
804.491	215.04
804.67	196.61
804.85	151.55
805.03	161.79
805.209	184.32
805.389	151.55
805.568	202.75
805.748	200.7
805.928	161.79
806.107	215.04
806.287	167.93
806.466	165.89
806.646	161.79
806.825	139.26
807.004	174.08
807.184	196.61
807.363	167.93
807.543	145.41
807.722	143.36
807.901	268.28
808.081	256
808.26	180.22
808.439	196.61
808.619	153.6
808.798	159.74
808.977	196.61
809.156	153.6
809.336	110.59
809.515	167.93
809.694	159.74
809.873	190.46
810.052	200.7
810.231	194.56
810.411	147.45
810.59	167.93
810.769	172.03
810.948	176.13
811.127	141.31
811.306	133.12
811.485	139.26
811.664	194.56
811.843	110.59
812.022	131.07
812.201	151.55
812.38	81.92
812.559	131.07
812.737	153.6
812.916	108.54
813.095	149.5
813.274	159.74
813.453	112.64
813.632	163.84
813.811	149.5
813.989	149.5
814.168	112.64
814.347	174.08
814.526	86.01
814.704	131.07
814.883	122.88
815.062	137.21
815.24	122.88
815.419	108.54
815.598	172.03
815.776	129.02
815.955	135.17
816.133	96.25
816.312	133.12
816.49	174.08
816.669	45.06
816.847	59.39
817.026	67.58
817.204	83.97
817.383	143.36
817.561	73.73
817.74	137.21
817.918	106.49
818.097	108.54
818.275	67.58
818.453	102.4
818.632	98.3
818.81	71.68
818.988	116.73
819.167	149.5
819.345	43.01
819.523	92.16
819.701	100.35
819.879	98.3
820.058	165.89
820.236	86.01
820.414	57.34
820.592	88.06
820.77	131.07
820.948	161.79
821.127	96.25
821.305	102.4
821.483	51.2
821.661	141.31
821.839	120.83
822.017	75.77
822.195	98.3
822.373	157.69
822.551	94.21
822.729	163.84
822.907	49.15
823.085	141.31
823.262	151.55
823.44	118.78
823.618	61.44
823.796	98.3
823.974	143.36
824.152	153.6
824.329	120.83
824.507	51.2
824.685	120.83
824.863	100.35
825.04	36.86
825.218	149.5
825.396	34.82
825.574	88.06
825.751	57.34
825.929	100.35
826.107	43.01
826.284	182.27
826.462	120.83
826.639	61.44
826.817	61.44
826.994	71.68
827.172	108.54
827.349	143.36
827.527	133.12
827.704	126.97
827.882	96.25
828.059	77.82
828.237	79.87
828.414	90.11
828.591	77.82
828.769	114.69
828.946	45.06
829.124	75.77
829.301	131.07
829.478	172.03
829.655	77.82
829.833	38.91
830.01	83.97
830.187	53.25
830.364	96.25
830.542	141.31
830.719	141.31
830.896	65.54
831.073	53.25
831.25	153.6
831.427	92.16
831.604	94.21
831.782	71.68
831.959	18.43
832.136	24.58
832.313	92.16
832.49	118.78
832.667	124.93
832.844	8.19
833.021	114.69
833.198	79.87
833.374	77.82
833.551	22.53
833.728	-6.14
833.905	61.44
834.082	10.24
834.259	26.62
834.436	75.77
834.612	71.68
834.789	47.1
834.966	86.01
835.143	81.92
835.319	-12.29
835.496	67.58
835.673	55.3
835.85	133.12
836.026	34.82
836.203	49.15
836.38	71.68
836.556	26.62
836.733	47.1
836.909	16.38
837.086	94.21
837.262	88.06
837.439	-20.48
837.616	40.96
837.792	-2.05
837.968	6.14
838.145	-6.14
838.321	55.3
838.498	65.54
838.674	75.77
838.851	18.43
839.027	77.82
839.203	55.3
839.38	73.73
839.556	49.15
839.732	6.14
839.909	26.62
840.085	51.2
840.261	12.29
840.437	28.67
840.614	28.67
840.79	45.06
840.966	55.3
841.142	12.29
841.318	59.39
841.494	14.34
841.671	51.2
841.847	59.39
842.023	2.05
842.199	147.45
842.375	32.77
842.551	24.58
842.727	-8.19
842.903	55.3
843.079	14.34
843.255	53.25
843.431	18.43
843.607	38.91
843.783	8.19
843.959	61.44
844.134	45.06
844.31	71.68
844.486	-36.86
844.662	79.87
844.838	55.3
845.013	104.45
845.189	49.15
845.365	57.34
845.541	77.82
845.716	110.59
845.892	-4.1
846.068	20.48
846.244	36.86
846.419	43.01
846.595	67.58
846.77	-4.1
846.946	102.4
847.122	59.39
847.297	30.72
847.473	108.54
847.648	47.1
847.824	104.45
847.999	26.62
848.175	47.1
848.35	14.34
848.526	10.24
848.701	57.34
848.876	12.29
849.052	65.54
849.227	53.25
849.403	18.43
849.578	14.34
849.753	8.19
849.929	49.15
850.104	-16.38
850.279	10.24
850.454	22.53
850.63	-4.1
850.805	-20.48
850.98	36.86
851.155	88.06
851.33	65.54
851.505	77.82
851.681	49.15
851.856	-22.53
852.031	45.06
852.206	32.77
852.381	-18.43
852.556	75.77
852.731	24.58
852.906	73.73
853.081	61.44
853.256	30.72
853.431	26.62
853.606	-28.67
853.781	108.54
853.956	92.16
854.131	-34.82
854.305	2.05
854.48	14.34
854.655	10.24
854.83	-34.82
855.005	24.58
855.18	45.06
855.354	131.07
855.529	92.16
855.704	71.68
855.879	26.62
856.053	79.87
856.228	96.25
856.403	40.96
856.577	-38.91
856.752	10.24
856.926	61.44
857.101	-4.1
857.276	65.54
857.45	26.62
857.625	67.58
857.799	65.54
857.974	-10.24
858.148	-55.3
858.323	22.53
858.497	-43.01
858.672	-18.43
858.846	-26.62
859.02	131.07
859.195	22.53
859.369	69.63
859.543	-51.2
859.718	16.38
859.892	40.96
860.066	6.14
860.241	65.54
860.415	36.86
860.589	-12.29
860.763	24.58
860.938	22.53
861.112	81.92
861.286	-4.1
861.46	14.34
861.634	-63.49
861.808	-6.14
861.982	-8.19
862.157	26.62
862.331	49.15
862.505	36.86
862.679	14.34
862.853	40.96
863.027	59.39
863.201	96.25
863.375	26.62
863.549	75.77
863.722	59.39
863.896	16.38
864.07	65.54
864.244	10.24
864.418	16.38
864.592	-30.72
864.766	65.54
864.939	34.82
865.113	47.1
865.287	34.82
865.461	-49.15
865.634	81.92
865.808	59.39
865.982	-49.15
866.156	16.38
866.329	-10.24
866.503	59.39
866.676	34.82
866.85	26.62
867.024	49.15
867.197	65.54
867.371	-12.29
867.544	-28.67
867.718	71.68
867.891	14.34
868.065	53.25
868.238	10.24
868.412	30.72
868.585	45.06
868.759	-26.62
868.932	34.82
869.105	-79.87
869.279	-10.24
869.452	-12.29
869.625	65.54
869.799	4.1
869.972	30.72
870.145	73.73
870.319	-12.29
870.492	79.87
870.665	40.96
870.838	38.91
871.011	0
871.185	8.19
871.358	38.91
871.531	-12.29
871.704	24.58
871.877	43.01
872.05	45.06
872.223	16.38
872.396	118.78
872.569	57.34
872.742	0
872.915	30.72
873.088	6.14
873.261	22.53
873.434	14.34
873.607	-14.34
873.78	53.25
873.953	-16.38
874.126	20.48
874.299	-30.72
874.471	-73.73
874.644	28.67
874.817	-18.43
874.99	16.38
875.163	26.62
875.335	45.06
875.508	22.53
875.681	51.2
875.853	-2.05
876.026	10.24
876.199	49.15
876.371	-4.1
876.544	-4.1
876.717	34.82
876.889	-34.82
877.062	-8.19
877.234	59.39
877.407	-18.43
877.579	49.15
877.752	81.92
877.924	59.39
878.097	22.53
878.269	-8.19
878.442	30.72
878.614	71.68
878.786	59.39
878.959	0
879.131	-36.86
879.303	-69.63
879.476	55.3
879.648	14.34
879.82	26.62
879.993	-55.3
880.165	-28.67
880.337	4.1
880.509	24.58
880.681	-10.24
880.854	34.82
881.026	-36.86
881.198	167.93
881.37	38.91
881.542	59.39
881.714	-67.58
881.886	30.72
882.058	-65.53
882.23	-2.05
882.402	47.1
882.574	-34.82
882.746	30.72
882.918	75.77
883.09	108.54
883.262	28.67
883.434	28.67
883.606	-18.43
883.778	32.77
883.95	-20.48
884.122	4.1
884.293	-55.3
884.465	28.67
884.637	24.58
884.809	-8.19
884.98	43.01
885.152	0
885.324	2.05
885.496	20.48
885.667	-18.43
885.839	20.48
886.011	53.25
886.182	34.82
886.354	14.34
886.525	-16.38
886.697	75.77
886.869	-12.29
887.04	32.77
887.212	-16.38
887.383	10.24
887.555	0
887.726	-10.24
887.897	-20.48
888.069	4.1
888.24	81.92
888.412	53.25
888.583	-20.48
888.754	-38.91
888.926	-32.77
889.097	6.14
889.268	22.53
889.44	0
889.611	-59.39
889.782	22.53
889.953	12.29
890.125	55.3
890.296	10.24
890.467	34.82
890.638	-32.77
890.809	0
890.98	6.14
891.151	20.48
891.323	-43.01
891.494	-55.3
891.665	32.77
891.836	98.3
892.007	14.34
892.178	30.72
892.349	-110.59
892.52	-4.1
892.691	18.43
892.862	59.39
893.032	45.06
893.203	-71.68
893.374	-22.53
893.545	-2.05
893.716	-43.01
893.887	20.48
894.057	-30.72
894.228	-2.05
894.399	63.49
894.57	-4.1
894.74	40.96
894.911	49.15
895.082	24.58
895.253	14.34
895.423	45.06
895.594	8.19
895.764	-71.68
895.935	20.48
896.106	6.14
896.276	4.1
896.447	-69.63
896.617	12.29
896.788	34.82
896.958	-38.91
897.129	18.43
897.299	-20.48
897.47	-18.43
897.64	90.11
897.81	63.49
897.981	79.87
898.151	67.58
898.322	-6.14
898.492	34.82
898.662	-40.96
898.832	-34.82
899.003	-2.05
899.173	47.1
899.343	-16.38
899.513	12.29
