Data from USB4F104151__22__12-35-25-862.txt Node

Date: Fri Mar 14 12:35:25 EDT 2025
User: louis
Spectrometer: USB4F10415
Trigger mode: 4
Integration Time (sec): 2.000000E-2
Scans to average: 1
Electric dark correction enabled: true
Nonlinearity correction enabled: false
Boxcar width: 0
XAxis mode: Wavelengths
Number of Pixels in Spectrum: 3648
>>>>>Begin Spectral Data<<<<<
178.204	0.51
178.424	0.51
178.644	0.51
178.864	-73.21
179.084	-79.36
179.304	4.61
179.524	-17.92
179.744	-11.78
179.964	31.23
180.184	33.28
180.404	-26.11
180.624	-36.35
180.844	33.28
181.064	-24.06
181.283	33.28
181.503	-56.83
181.723	37.38
181.943	2.56
182.163	143.87
182.383	2.56
182.602	47.62
182.822	41.47
183.042	49.66
183.262	12.8
183.482	-13.82
183.701	55.81
183.921	10.75
184.141	-1.54
184.361	45.57
184.58	6.66
184.8	-1.54
185.02	-1.54
185.239	72.19
185.459	-11.78
185.679	12.8
185.898	47.62
186.118	14.85
186.338	-13.82
186.557	66.05
186.777	10.75
186.997	43.52
187.216	0.51
187.436	74.24
187.655	12.8
187.875	61.95
188.095	6.66
188.314	8.7
188.534	35.33
188.753	0.51
188.973	-40.45
189.192	94.72
189.412	82.43
189.631	23.04
189.851	92.67
190.07	45.57
190.29	16.9
190.509	-19.97
190.729	14.85
190.948	2.56
191.168	109.05
191.387	31.23
191.607	31.23
191.826	12.8
192.045	-5.63
192.265	53.76
192.484	27.14
192.704	-34.3
192.923	16.9
193.142	78.33
193.362	31.23
193.581	-9.73
193.8	27.14
194.02	27.14
194.239	16.9
194.458	115.2
194.678	35.33
194.897	18.94
195.116	-5.63
195.335	33.28
195.555	53.76
195.774	-32.26
195.993	20.99
196.212	2.56
196.432	2.56
196.651	12.8
196.87	23.04
197.089	61.95
197.308	61.95
197.528	66.05
197.747	14.85
197.966	-3.58
198.185	27.14
198.404	-17.92
198.623	72.19
198.842	10.75
199.062	14.85
199.281	39.42
199.5	-26.11
199.719	80.38
199.938	29.18
200.157	61.95
200.376	70.14
200.595	14.85
200.814	66.05
201.033	57.86
201.252	16.9
201.471	35.33
201.69	39.42
201.909	78.33
202.128	10.75
202.347	47.62
202.566	39.42
202.785	0.51
203.004	16.9
203.223	70.14
203.442	-30.21
203.661	-11.78
203.879	59.9
204.098	16.9
204.317	78.33
204.536	29.18
204.755	-11.78
204.974	8.7
205.193	41.47
205.411	39.42
205.63	18.94
205.849	80.38
206.068	29.18
206.287	-3.58
206.505	-3.58
206.724	2.56
206.943	33.28
207.162	23.04
207.381	49.66
207.599	-34.3
207.818	4.61
208.037	45.57
208.255	4.61
208.474	27.14
208.693	10.75
208.911	-26.11
209.13	-40.45
209.349	86.53
209.567	-5.63
209.786	25.09
210.005	41.47
210.223	37.38
210.442	-19.97
210.661	43.52
210.879	55.81
211.098	16.9
211.316	25.09
211.535	53.76
211.753	41.47
211.972	51.71
212.191	35.33
212.409	53.76
212.628	53.76
212.846	16.9
213.065	-7.68
213.283	41.47
213.502	43.52
213.72	78.33
213.938	-38.4
214.157	98.81
214.375	4.61
214.594	12.8
214.812	78.33
215.031	-15.87
215.249	84.48
215.467	35.33
215.686	31.23
215.904	53.76
216.122	14.85
216.341	70.14
216.559	111.1
216.778	47.62
216.996	27.14
217.214	-32.26
217.432	-13.82
217.651	-58.88
217.869	-28.16
218.087	70.14
218.306	-15.87
218.524	92.67
218.742	-9.73
218.96	74.24
219.179	76.29
219.397	25.09
219.615	6.66
219.833	25.09
220.051	29.18
220.27	119.29
220.488	8.7
220.706	43.52
220.924	-24.06
221.142	4.61
221.36	70.14
221.578	-62.98
221.796	29.18
222.015	8.7
222.233	20.99
222.451	57.86
222.669	-46.59
222.887	8.7
223.105	47.62
223.323	86.53
223.541	-24.06
223.759	121.34
223.977	20.99
224.195	35.33
224.413	-5.63
224.631	43.52
224.849	-42.5
225.067	90.62
225.285	49.66
225.503	74.24
225.721	86.53
225.939	16.9
226.157	59.9
226.375	39.42
226.592	-13.82
226.81	-38.4
227.028	78.33
227.246	70.14
227.464	41.47
227.682	20.99
227.9	-11.78
228.117	2.56
228.335	4.61
228.553	82.43
228.771	-19.97
228.989	0.51
229.206	33.28
229.424	-13.82
229.642	-13.82
229.86	20.99
230.077	-22.02
230.295	43.52
230.513	51.71
230.731	6.66
230.948	59.9
231.166	86.53
231.384	41.47
231.601	45.57
231.819	57.86
232.037	33.28
232.254	45.57
232.472	-3.58
232.689	74.24
232.907	102.91
233.125	66.05
233.342	29.18
233.56	-36.35
233.777	98.81
233.995	-3.58
234.213	33.28
234.43	49.66
234.648	49.66
234.865	14.85
235.083	57.86
235.3	33.28
235.518	84.48
235.735	23.04
235.953	70.14
236.17	31.23
236.388	45.57
236.605	-13.82
236.822	66.05
237.04	68.09
237.257	-28.16
237.475	49.66
237.692	76.29
237.909	4.61
238.127	59.9
238.344	0.51
238.562	-3.58
238.779	2.56
238.996	-13.82
239.214	76.29
239.431	-28.16
239.648	45.57
239.865	90.62
240.083	-11.78
240.3	37.38
240.517	39.42
240.735	64
240.952	31.23
241.169	88.57
241.386	-19.97
241.603	-32.26
241.821	-46.59
242.038	39.42
242.255	10.75
242.472	43.52
242.689	20.99
242.907	68.09
243.124	59.9
243.341	37.38
243.558	51.71
243.775	-3.58
243.992	-28.16
244.209	90.62
244.426	127.49
244.643	68.09
244.86	8.7
245.078	70.14
245.295	4.61
245.512	-3.58
245.729	74.24
245.946	4.61
246.163	12.8
246.38	61.95
246.597	12.8
246.814	-17.92
247.031	68.09
247.248	-1.54
247.464	20.99
247.681	2.56
247.898	55.81
248.115	39.42
248.332	31.23
248.549	57.86
248.766	121.34
248.983	20.99
249.2	27.14
249.417	55.81
249.633	37.38
249.85	12.8
250.067	8.7
250.284	2.56
250.501	84.48
250.717	76.29
250.934	35.33
251.151	51.71
251.368	57.86
251.585	84.48
251.801	31.23
252.018	-7.68
252.235	43.52
252.451	70.14
252.668	0.51
252.885	49.66
253.102	104.96
253.318	-30.21
253.535	33.28
253.752	10.75
253.968	33.28
254.185	86.53
254.401	-17.92
254.618	-3.58
254.835	37.38
255.051	20.99
255.268	37.38
255.484	31.23
255.701	51.71
255.917	74.24
256.134	0.51
256.351	39.42
256.567	27.14
256.784	70.14
257	-40.45
257.217	86.53
257.433	-17.92
257.65	43.52
257.866	86.53
258.082	-17.92
258.299	-19.97
258.515	64
258.732	2.56
258.948	-13.82
259.165	-17.92
259.381	33.28
259.597	-1.54
259.814	-13.82
260.03	-38.4
260.246	-5.63
260.463	70.14
260.679	94.72
260.895	35.33
261.112	27.14
261.328	27.14
261.544	49.66
261.761	64
261.977	23.04
262.193	-19.97
262.409	-48.64
262.626	57.86
262.842	100.86
263.058	0.51
263.274	31.23
263.49	57.86
263.707	64
263.923	53.76
264.139	43.52
264.355	92.67
264.571	41.47
264.787	-3.58
265.004	23.04
265.22	68.09
265.436	-1.54
265.652	41.47
265.868	64
266.084	14.85
266.3	8.7
266.516	31.23
266.732	6.66
266.948	45.57
267.164	53.76
267.38	39.42
267.596	23.04
267.812	20.99
268.028	156.16
268.244	35.33
268.46	23.04
268.676	47.62
268.892	96.77
269.108	0.51
269.324	43.52
269.54	-9.73
269.756	59.9
269.972	45.57
270.188	-26.11
270.403	0.51
270.619	-34.3
270.835	70.14
271.051	53.76
271.267	-54.78
271.483	49.66
271.698	31.23
271.914	2.56
272.13	0.51
272.346	-24.06
272.562	49.66
272.777	82.43
272.993	-7.68
273.209	18.94
273.425	-3.58
273.64	47.62
273.856	59.9
274.072	74.24
274.287	-50.69
274.503	0.51
274.719	23.04
274.934	29.18
275.15	-99.84
275.366	-1.54
275.581	8.7
275.797	84.48
276.012	47.62
276.228	78.33
276.444	-48.64
276.659	4.61
276.875	8.7
277.09	119.29
277.306	-30.21
277.521	-15.87
277.737	88.57
277.952	76.29
278.168	59.9
278.383	-1.54
278.599	49.66
278.814	-11.78
279.03	70.14
279.245	29.18
279.461	66.05
279.676	47.62
279.892	4.61
280.107	-50.69
280.322	8.7
280.538	33.28
280.753	-36.35
280.969	51.71
281.184	-19.97
281.399	27.14
281.615	66.05
281.83	8.7
282.045	14.85
282.26	-7.68
282.476	27.14
282.691	27.14
282.906	27.14
283.122	53.76
283.337	10.75
283.552	-15.87
283.767	-40.45
283.983	25.09
284.198	66.05
284.413	12.8
284.628	2.56
284.843	45.57
285.058	18.94
285.274	31.23
285.489	-17.92
285.704	94.72
285.919	35.33
286.134	80.38
286.349	14.85
286.564	8.7
286.779	8.7
286.995	-7.68
287.21	31.23
287.425	82.43
287.64	16.9
287.855	55.81
288.07	23.04
288.285	31.23
288.5	104.96
288.715	57.86
288.93	-13.82
289.145	-42.5
289.36	88.57
289.575	88.57
289.79	20.99
290.004	33.28
290.219	49.66
290.434	49.66
290.649	37.38
290.864	20.99
291.079	16.9
291.294	14.85
291.509	31.23
291.724	12.8
291.938	27.14
292.153	25.09
292.368	-22.02
292.583	68.09
292.798	25.09
293.012	51.71
293.227	14.85
293.442	-30.21
293.657	98.81
293.871	41.47
294.086	-5.63
294.301	18.94
294.516	18.94
294.73	78.33
294.945	35.33
295.16	37.38
295.374	55.81
295.589	31.23
295.804	80.38
296.018	4.61
296.233	-5.63
296.447	37.38
296.662	29.18
296.877	80.38
297.091	20.99
297.306	76.29
297.52	-38.4
297.735	23.04
297.949	29.18
298.164	23.04
298.378	90.62
298.593	45.57
298.807	-22.02
299.022	2.56
299.236	49.66
299.451	51.71
299.665	37.38
299.88	100.86
300.094	35.33
300.309	53.76
300.523	0.51
300.737	8.7
300.952	64
301.166	2.56
301.381	16.9
301.595	-13.82
301.809	55.81
302.024	61.95
302.238	-62.98
302.452	-32.26
302.667	43.52
302.881	55.81
303.095	39.42
303.309	57.86
303.524	-50.69
303.738	8.7
303.952	49.66
304.166	39.42
304.381	-17.92
304.595	35.33
304.809	59.9
305.023	18.94
305.237	-40.45
305.452	14.85
305.666	-11.78
305.88	31.23
306.094	55.81
306.308	55.81
306.522	98.81
306.736	29.18
306.95	92.67
307.164	23.04
307.379	20.99
307.593	20.99
307.807	57.86
308.021	4.61
308.235	66.05
308.449	-50.69
308.663	-11.78
308.877	37.38
309.091	102.91
309.305	107.01
309.519	-34.3
309.733	37.38
309.947	-22.02
310.161	35.33
310.374	-32.26
310.588	80.38
310.802	47.62
311.016	-19.97
311.23	72.19
311.444	107.01
311.658	10.75
311.872	49.66
312.085	53.76
312.299	10.75
312.513	23.04
312.727	-11.78
312.941	80.38
313.154	20.99
313.368	70.14
313.582	119.29
313.796	96.77
314.009	29.18
314.223	86.53
314.437	47.62
314.651	102.91
314.864	33.28
315.078	-32.26
315.292	16.9
315.505	29.18
315.719	49.66
315.933	-38.4
316.146	55.81
316.36	16.9
316.573	86.53
316.787	78.33
317.001	6.66
317.214	80.38
317.428	82.43
317.641	-17.92
317.855	14.85
318.068	2.56
318.282	94.72
318.495	109.05
318.709	61.95
318.922	76.29
319.136	25.09
319.349	74.24
319.563	-67.07
319.776	45.57
319.99	68.09
320.203	27.14
320.417	25.09
320.63	18.94
320.843	88.57
321.057	43.52
321.27	8.7
321.483	-22.02
321.697	43.52
321.91	10.75
322.124	86.53
322.337	98.81
322.55	23.04
322.763	-40.45
322.977	113.15
323.19	84.48
323.403	125.44
323.617	57.86
323.83	84.48
324.043	102.91
324.256	64
324.469	29.18
324.683	35.33
324.896	61.95
325.109	76.29
325.322	-5.63
325.535	76.29
325.748	-22.02
325.962	37.38
326.175	-44.54
326.388	41.47
326.601	25.09
326.814	80.38
327.027	45.57
327.24	104.96
327.453	10.75
327.666	70.14
327.879	51.71
328.092	-9.73
328.305	72.19
328.518	23.04
328.731	18.94
328.944	49.66
329.157	16.9
329.37	61.95
329.583	100.86
329.796	86.53
330.009	27.14
330.222	45.57
330.435	20.99
330.648	47.62
330.861	49.66
331.073	68.09
331.286	59.9
331.499	27.14
331.712	-15.87
331.925	8.7
332.138	66.05
332.35	92.67
332.563	-3.58
332.776	43.52
332.989	18.94
333.202	129.53
333.414	49.66
333.627	16.9
333.84	39.42
334.053	0.51
334.265	27.14
334.478	18.94
334.691	53.76
334.903	39.42
335.116	0.51
335.329	6.66
335.541	43.52
335.754	78.33
335.966	49.66
336.179	53.76
336.392	6.66
336.604	31.23
336.817	72.19
337.029	45.57
337.242	27.14
337.454	96.77
337.667	27.14
337.88	49.66
338.092	72.19
338.305	47.62
338.517	-3.58
338.729	86.53
338.942	127.49
339.154	94.72
339.367	41.47
339.579	78.33
339.792	-1.54
340.004	59.9
340.217	57.86
340.429	49.66
340.641	74.24
340.854	59.9
341.066	-24.06
341.278	29.18
341.491	125.44
341.703	-9.73
341.915	-24.06
342.128	111.1
342.34	51.71
342.552	121.34
342.764	-22.02
342.977	-24.06
343.189	29.18
343.401	55.81
343.613	43.52
343.826	94.72
344.038	-24.06
344.25	12.8
344.462	-46.59
344.674	31.23
344.886	41.47
345.099	47.62
345.311	74.24
345.523	49.66
345.735	8.7
345.947	49.66
346.159	23.04
346.371	45.57
346.583	18.94
346.795	31.23
347.007	16.9
347.219	94.72
347.431	-24.06
347.643	12.8
347.855	23.04
348.067	102.91
348.279	29.18
348.491	39.42
348.703	47.62
348.915	-58.88
349.127	23.04
349.339	39.42
349.551	12.8
349.763	86.53
349.975	80.38
350.187	78.33
350.399	43.52
350.61	47.62
350.822	59.9
351.034	74.24
351.246	72.19
351.458	18.94
351.669	115.2
351.881	12.8
352.093	51.71
352.305	18.94
352.517	23.04
352.728	35.33
352.94	111.1
353.152	74.24
353.363	27.14
353.575	78.33
353.787	94.72
353.999	84.48
354.21	12.8
354.422	-44.54
354.633	49.66
354.845	66.05
355.057	37.38
355.268	49.66
355.48	43.52
355.692	14.85
355.903	10.75
356.115	61.95
356.326	31.23
356.538	100.86
356.749	16.9
356.961	47.62
357.172	35.33
357.384	68.09
357.595	25.09
357.807	47.62
358.018	59.9
358.23	31.23
358.441	111.1
358.653	57.86
358.864	23.04
359.075	61.95
359.287	64
359.498	190.97
359.709	35.33
359.921	47.62
360.132	35.33
360.344	2.56
360.555	31.23
360.766	25.09
360.977	10.75
361.189	154.11
361.4	51.71
361.611	96.77
361.823	104.96
362.034	61.95
362.245	-38.4
362.456	25.09
362.667	-3.58
362.879	57.86
363.09	53.76
363.301	37.38
363.512	20.99
363.723	66.05
363.935	-44.54
364.146	107.01
364.357	33.28
364.568	55.81
364.779	57.86
364.99	53.76
365.201	37.38
365.412	68.09
365.623	0.51
365.834	64
366.045	33.28
366.256	100.86
366.467	59.9
366.678	39.42
366.889	20.99
367.1	20.99
367.311	88.57
367.522	131.58
367.733	88.57
367.944	39.42
368.155	0.51
368.366	72.19
368.577	92.67
368.788	123.39
368.999	33.28
369.209	72.19
369.42	78.33
369.631	133.63
369.842	133.63
370.053	25.09
370.264	104.96
370.474	29.18
370.685	2.56
370.896	88.57
371.107	135.68
371.317	92.67
371.528	59.9
371.739	64
371.95	111.1
372.16	45.57
372.371	61.95
372.582	76.29
372.792	109.05
373.003	23.04
373.214	29.18
373.424	80.38
373.635	2.56
373.846	33.28
374.056	-9.73
374.267	78.33
374.477	4.61
374.688	53.76
374.898	0.51
375.109	12.8
375.319	14.85
375.53	127.49
375.74	-44.54
375.951	86.53
376.161	47.62
376.372	39.42
376.582	37.38
376.793	139.77
377.003	92.67
377.214	31.23
377.424	86.53
377.635	86.53
377.845	-36.35
378.055	45.57
378.266	51.71
378.476	139.77
378.686	76.29
378.897	104.96
379.107	64
379.317	102.91
379.528	61.95
379.738	57.86
379.948	41.47
380.158	39.42
380.369	78.33
380.579	66.05
380.789	107.01
380.999	96.77
381.21	104.96
381.42	66.05
381.63	55.81
381.84	115.2
382.05	14.85
382.261	64
382.471	47.62
382.681	86.53
382.891	96.77
383.101	86.53
383.311	92.67
383.521	45.57
383.731	51.71
383.941	35.33
384.151	96.77
384.361	-3.58
384.571	113.15
384.781	100.86
384.991	12.8
385.201	137.73
385.411	115.2
385.621	70.14
385.831	57.86
386.041	45.57
386.251	74.24
386.461	53.76
386.671	33.28
386.881	98.81
387.091	86.53
387.301	131.58
387.511	76.29
387.72	64
387.93	139.77
388.14	12.8
388.35	162.3
388.56	51.71
388.769	94.72
388.979	109.05
389.189	20.99
389.399	8.7
389.609	74.24
389.818	131.58
390.028	47.62
390.238	57.86
390.447	43.52
390.657	68.09
390.867	16.9
391.076	66.05
391.286	16.9
391.496	117.25
391.705	76.29
391.915	14.85
392.125	92.67
392.334	70.14
392.544	84.48
392.753	70.14
392.963	68.09
393.172	147.97
393.382	68.09
393.591	109.05
393.801	98.81
394.01	107.01
394.22	78.33
394.429	76.29
394.639	68.09
394.848	156.16
395.058	41.47
395.267	154.11
395.477	86.53
395.686	113.15
395.895	109.05
396.105	176.64
396.314	123.39
396.524	109.05
396.733	80.38
396.942	33.28
397.152	66.05
397.361	107.01
397.57	98.81
397.78	115.2
397.989	160.25
398.198	154.11
398.407	117.25
398.617	31.23
398.826	41.47
399.035	174.59
399.244	135.68
399.453	162.3
399.663	199.16
399.872	82.43
400.081	107.01
400.29	82.43
400.499	129.53
400.708	119.29
400.917	47.62
401.127	64
401.336	35.33
401.545	125.44
401.754	109.05
401.963	197.12
402.172	141.82
402.381	78.33
402.59	109.05
402.799	102.91
403.008	176.64
403.217	127.49
403.426	129.53
403.635	111.1
403.844	150.01
404.053	180.73
404.262	104.96
404.471	135.68
404.68	221.69
404.888	135.68
405.097	211.45
405.306	211.45
405.515	131.58
405.724	197.12
405.933	170.49
406.142	131.58
406.35	199.16
406.559	184.83
406.768	233.98
406.977	272.89
407.185	236.03
407.394	225.79
407.603	176.64
407.812	240.12
408.02	317.95
408.229	254.46
408.438	223.74
408.646	287.23
408.855	283.13
409.064	287.23
409.272	244.22
409.481	328.19
409.69	295.42
409.898	354.81
410.107	367.1
410.315	391.67
410.524	338.43
410.733	420.35
410.941	422.39
411.15	424.44
411.358	387.58
411.567	512.5
411.775	434.68
411.984	444.92
412.192	498.17
412.401	514.55
412.609	563.7
412.818	582.14
413.026	557.56
413.234	596.47
413.443	678.39
413.651	567.8
413.86	647.67
414.068	739.83
414.276	692.73
414.485	748.02
414.693	752.12
414.901	838.13
415.11	829.94
415.318	850.42
415.526	862.71
415.734	842.23
415.943	936.43
416.151	946.67
416.359	846.32
416.567	1083.89
416.776	1020.4
416.984	1184.24
417.192	1188.33
417.4	1180.14
417.608	1049.07
417.817	1208.81
418.025	1266.16
418.233	1286.64
418.441	1309.16
418.649	1505.77
418.857	1509.86
419.065	1495.53
419.273	1454.57
419.481	1585.64
419.689	1833.44
419.897	1755.62
420.105	1733.09
420.313	1749.48
420.521	1843.68
420.729	1896.93
420.937	2068.96
421.145	1894.88
421.353	2085.34
421.561	2116.06
421.769	2339.29
421.977	2490.84
422.185	2400.73
422.393	2527.71
422.601	2617.82
422.809	2689.49
423.017	2656.73
423.224	2730.45
423.432	3008.98
423.64	2988.5
423.848	3230.16
424.056	2925.01
424.263	3367.37
424.471	3314.13
424.679	3449.29
424.887	3578.31
425.094	3727.82
425.302	3723.72
425.51	3746.25
425.718	4010.43
425.925	3985.86
426.133	4200.9
426.341	4336.06
426.548	4563.39
426.756	4647.35
426.964	4557.24
427.171	4684.22
427.379	5069.23
427.586	5063.09
427.794	5116.34
428.001	5566.89
428.209	5620.14
428.417	5603.75
428.624	6111.65
428.832	6199.71
429.039	6019.49
429.247	6085.03
429.454	6521.24
429.662	7008.66
429.869	6554.01
430.076	7164.31
430.284	6781.34
430.491	7199.12
430.699	7541.13
430.906	7491.98
431.114	7518.61
431.321	7942.53
431.528	8034.69
431.736	8606.08
431.943	8808.83
432.15	8675.71
432.358	8534.4
432.565	9083.25
432.772	9234.8
432.979	9765.23
433.187	9980.26
433.394	9873.77
433.601	10508.64
433.808	10527.07
434.016	10391.91
434.223	11071.83
434.43	11567.44
434.637	11526.48
434.844	12112.2
435.052	12337.48
435.259	12460.35
435.466	12443.97
435.673	12218.69
435.88	12958.01
436.087	13662.51
436.294	13803.82
436.501	13306.16
436.708	13844.78
436.915	14098.73
437.122	14668.06
437.329	14715.17
437.537	15284.5
437.743	15495.44
437.95	15135
438.157	16095.5
438.364	16658.69
438.571	16447.75
438.778	16511.24
438.985	18399.46
439.192	17625.33
439.399	18036.97
439.606	17924.33
439.813	18680.03
440.02	19886.29
440.227	19572.95
440.433	19224.79
440.64	19859.66
440.847	19738.83
441.054	20224.2
441.261	21586.1
441.467	21246.14
441.674	21672.12
441.881	22687.91
442.088	22597.8
442.294	22149.29
442.501	22890.66
442.708	23656.6
442.914	24379.53
443.121	25317.5
443.328	24281.23
443.534	26134.64
443.741	25450.62
443.948	25118.85
444.154	27088.99
444.361	26605.67
444.568	26988.64
444.774	27322.46
444.981	27447.39
445.187	27797.59
445.394	29327.42
445.6	29005.89
445.807	31817.75
446.013	30363.7
446.22	31197.22
446.426	31709.21
446.633	32567.31
446.839	33652.73
447.046	32075.8
447.252	33880.06
447.459	34121.72
447.665	34097.14
447.871	35207.14
448.078	36653.01
448.284	34938.86
448.491	36386.77
448.697	37488.58
448.903	38336.44
449.11	38158.27
449.316	37797.82
449.522	37943.23
449.728	39331.75
449.935	39364.52
450.141	39727.01
450.347	40460.18
450.553	39137.19
450.76	39647.14
450.966	40804.24
451.172	40353.69
451.378	41492.36
451.584	41277.32
451.791	41885.57
451.997	41598.85
452.203	42434.42
452.409	42239.87
452.615	42250.11
452.821	40521.62
453.027	40152.99
453.233	42100.61
453.44	40363.93
453.646	41068.43
453.852	41301.9
454.058	41746.31
454.264	40808.34
454.47	41578.37
454.676	40802.19
454.882	42047.36
455.088	38215.61
455.294	38940.59
455.5	39182.25
455.705	40142.75
455.911	38643.63
456.117	37560.26
456.323	36878.29
456.529	35135.46
456.735	36804.56
456.941	35799.01
457.147	35344.36
457.352	33927.16
457.558	33771.52
457.764	33634.3
457.97	33218.57
458.176	32559.12
458.381	32481.3
458.587	30982.18
458.793	30892.07
458.999	29136.96
459.204	31248.42
459.41	31006.76
459.616	28371.02
459.821	28663.88
460.027	28368.98
460.233	28115.03
460.438	26267.76
460.644	26859.62
460.85	25720.95
461.055	25014.4
461.261	25106.56
461.466	23318.68
461.672	22546.6
461.878	23992.47
462.083	22436.01
462.289	22393
462.494	21926.07
462.7	20887.75
462.905	20494.54
463.111	20926.66
463.316	21231.8
463.522	20711.62
463.727	20689.09
463.932	20639.94
464.138	20371.66
464.343	20441.29
464.549	19863.76
464.754	20246.73
464.959	20271.31
465.165	20250.83
465.37	19290.33
465.575	19036.38
465.781	19753.17
465.986	19673.3
466.191	19362.01
466.397	18737.38
466.602	17809.65
466.807	18387.18
467.012	18573.54
467.218	18331.88
467.423	18055.4
467.628	18061.55
467.833	18985.18
468.038	18219.24
468.244	17756.4
468.449	18741.47
468.654	18041.07
468.859	17793.26
469.064	17461.49
469.269	17074.43
469.474	16939.26
469.679	17400.05
469.885	16802.05
470.09	17215.74
470.295	16886.01
470.5	16533.76
470.705	16351.49
470.91	16359.69
471.115	16140.55
471.32	16371.97
471.525	16501
471.73	15935.76
471.935	15847.69
472.139	15366.42
472.344	15601.94
472.549	15276.31
472.754	15341.85
472.959	15067.42
473.164	14418.21
473.369	14377.25
473.574	14962.97
473.778	14936.35
473.983	14762.27
474.188	14459.17
474.393	13762.86
474.598	13836.59
474.802	13707.57
475.007	13515.06
475.212	13711.66
475.417	13175.09
475.621	13146.42
475.826	13388.08
476.031	13066.55
476.235	12857.66
476.44	13084.98
476.645	12640.58
476.849	12597.57
477.054	12601.66
477.259	12388.67
477.463	12396.87
477.668	12304.71
477.872	12448.07
478.077	12104.01
478.282	11620.69
478.486	11528.53
478.691	11559.25
478.895	11686.22
479.1	11395.41
479.304	11430.23
479.509	11348.31
479.713	11452.75
479.918	11159.89
480.122	11063.64
480.326	11262.29
480.531	11055.45
480.735	11034.97
480.94	10899.8
481.144	11270.48
481.348	10549.6
481.553	10813.79
481.757	10623.33
481.961	10918.23
482.166	10981.72
482.37	10791.26
482.574	10637.66
482.778	10674.53
482.983	10686.81
483.187	10463.58
483.391	10688.86
483.595	10547.55
483.8	10484.06
484.004	10590.56
484.208	10740.06
484.412	10762.59
484.616	10629.47
484.821	10643.81
485.025	10738.01
485.229	10729.82
485.433	10647.9
485.637	10522.98
485.841	10561.89
486.045	10697.05
486.249	10652
486.453	10621.28
486.657	10776.92
486.861	11006.3
487.065	10328.42
487.269	10570.08
487.473	10629.47
487.677	10699.1
487.881	10731.87
488.085	10725.72
488.289	10719.58
488.493	10576.22
488.697	10719.58
488.901	10826.07
489.105	10731.87
489.309	10629.47
489.512	10660.19
489.716	10803.55
489.92	10879.32
490.124	10633.57
490.328	11024.73
490.531	10723.68
490.735	10989.91
490.939	10940.76
491.143	10961.24
491.346	11030.87
491.55	11014.49
491.754	11004.25
491.958	11260.24
492.161	10946.9
492.365	11166.04
492.569	11213.14
492.772	11145.56
492.976	11133.27
493.18	11397.46
493.383	11465.04
493.587	11458.9
493.79	11698.51
493.994	11581.78
494.197	11843.92
494.401	11899.21
494.605	11675.98
494.808	12151.11
495.012	12237.13
495.215	12126.53
495.419	12300.61
495.622	12140.87
495.825	12333.38
496.029	12431.68
496.232	12572.99
496.436	12370.24
496.639	12730.69
496.843	12896.57
497.046	13031.74
497.249	13261.11
497.453	13179.19
497.656	13402.42
497.859	13338.93
498.063	13502.77
498.266	13791.53
498.469	13955.37
498.673	13855.02
498.876	14027.05
499.079	14166.31
499.282	14256.42
499.485	14672.16
499.689	14661.92
499.892	14813.47
500.095	14657.82
500.298	15040.79
500.501	15321.37
500.705	15669.52
500.908	15952.14
501.111	15798.54
501.314	15743.25
501.517	15943.95
501.72	16410.89
501.923	16245
502.126	16881.92
502.329	17041.66
502.532	16988.41
502.735	17217.79
502.938	17606.9
503.141	17295.61
503.344	17881.33
503.547	17950.96
503.75	18114.8
503.953	18522.34
504.156	18743.52
504.359	18673.89
504.562	19073.24
504.765	19364.06
504.968	19314.91
505.17	19570.9
505.373	19697.88
505.576	19974.35
505.779	20353.23
505.982	20381.9
506.185	20885.7
506.387	20940.99
506.59	21137.6
506.793	21407.93
506.996	21270.72
507.198	22225.07
507.401	21944.5
507.604	21919.92
507.807	22669.48
508.009	22542.5
508.212	22925.47
508.415	23122.08
508.617	23478.43
508.82	23404.7
509.022	23584.92
509.225	24076.43
509.428	24420.49
509.63	24623.24
509.833	24410.25
510.035	25077.89
510.238	25147.52
510.44	25409.66
510.643	25704.57
510.845	26337.39
511.048	26044.53
511.25	26632.3
511.453	26656.87
511.655	27703.39
511.858	27222.11
512.06	27512.92
512.262	27934.81
512.465	27904.09
512.667	28303.44
512.87	28565.58
513.072	28635.21
513.274	29317.18
513.477	29485.12
513.679	29976.63
513.881	29933.62
514.084	30404.66
514.286	30324.79
514.488	31027.24
514.69	31852.57
514.893	31572
515.095	31619.1
515.297	32067.61
515.499	32305.17
515.701	32561.17
515.904	32815.12
516.106	33501.18
516.308	33804.28
516.51	34082.81
516.712	34025.46
516.914	34406.39
517.116	34717.68
517.318	35035.11
517.52	34947.05
517.722	35342.31
517.925	36218.84
518.127	36237.27
518.329	36388.82
518.531	36468.69
518.733	37072.84
518.935	37447.62
519.136	37240.78
519.338	37955.52
519.54	38305.72
519.742	38631.35
519.944	38303.67
520.146	39407.53
520.348	39442.34
520.55	39618.47
520.752	40202.14
520.954	40263.58
521.155	40277.91
521.357	40877.97
521.559	41222.03
521.761	41729.92
521.963	41889.66
522.164	41480.07
522.366	42119.04
522.568	42577.78
522.77	42561.4
522.971	43372.39
523.173	43061.1
523.375	43575.14
523.576	43224.94
523.778	43421.55
523.98	44087.14
524.181	44580.7
524.383	44390.23
524.584	44967.76
524.786	44824.4
524.988	44939.09
525.189	45797.19
525.391	46063.43
525.592	45922.12
525.794	46137.15
525.995	46044.99
526.197	46137.15
526.398	46350.14
526.6	47357.74
526.801	46870.32
527.003	46632.76
527.204	46927.67
527.406	47302.45
527.607	47599.4
527.808	47499.05
528.01	47148.85
528.211	47028.02
528.412	48523.04
528.614	47861.54
528.815	48095.01
529.016	48604.95
529.218	48052
529.419	48426.78
529.62	48303.9
529.822	48320.29
530.023	48570.14
530.224	48721.69
530.425	48770.84
530.626	48254.75
530.828	48242.46
531.029	49446.67
531.23	48680.73
531.431	49026.84
531.632	49143.57
531.833	49198.87
532.035	49125.14
532.236	48940.82
532.437	49491.72
532.638	49565.45
532.839	49254.16
533.04	49295.12
533.241	48627.48
533.442	49977.09
533.643	49170.19
533.844	49123.09
534.045	49477.39
534.246	49065.75
534.447	49377.04
534.648	48852.76
534.849	49692.43
535.05	49413.9
535.251	49037.08
535.451	49319.7
535.652	49280.78
535.853	49143.57
536.054	49491.72
536.255	49030.93
536.456	48973.59
536.657	49831.69
536.857	49125.14
537.058	49340.18
537.259	49590.03
537.46	49155.86
537.66	48766.74
537.861	49444.62
538.062	48914.2
538.263	48934.68
538.463	49278.74
538.664	49006.36
538.865	49082.13
539.065	49516.3
539.266	48662.3
539.466	49729.29
539.667	48244.51
539.868	49010.45
540.068	48848.66
540.269	48752.41
540.469	49223.44
540.67	48570.14
540.87	48543.52
541.071	48766.74
541.271	48807.7
541.472	48772.89
541.672	48899.86
541.873	48543.52
542.073	48045.86
542.274	48688.92
542.474	48451.36
542.675	48469.79
542.875	49061.65
543.075	48971.54
543.276	47998.76
543.476	48600.86
543.676	48322.33
543.877	48574.23
544.077	48690.97
544.277	48508.7
544.478	48181.02
544.678	48602.91
544.878	48377.63
545.078	48412.45
545.279	48189.22
545.479	47914.79
545.679	48459.55
545.879	48510.75
546.079	48056.1
546.28	48086.82
546.48	48058.15
546.68	48432.92
546.88	48201.5
547.08	48117.54
547.28	47619.88
547.48	47976.23
547.68	47939.36
547.88	47652.65
548.081	48103.2
548.281	48402.21
548.481	48039.71
548.681	48262.94
548.881	47781.67
549.081	48039.71
549.28	47681.32
549.48	48439.07
549.68	48013.09
549.88	48097.06
550.08	48027.43
550.28	47894.31
550.48	47533.87
550.68	48404.25
550.88	47595.31
551.08	47738.66
551.279	47945.51
551.479	47697.7
551.679	48004.9
551.879	47445.8
552.079	47902.5
552.278	47562.54
552.478	47644.46
552.678	47245.1
552.878	48199.46
553.077	47689.51
553.277	47148.85
553.477	48203.55
553.676	47146.8
553.876	47843.11
554.076	47494.96
554.275	47716.14
554.475	47152.94
554.674	47656.74
554.874	47140.66
555.074	47163.18
555.273	47466.28
555.473	47771.43
555.672	46950.2
555.872	47200.05
556.071	47136.56
556.271	47413.04
556.47	46954.29
556.67	46839.61
556.869	47083.31
557.068	47198
557.268	46704.44
557.467	46565.18
557.667	46931.76
557.866	46972.72
558.065	46651.19
558.265	46376.76
558.464	46249.79
558.663	46804.79
558.863	46192.45
559.062	47023.92
559.261	46354.24
559.461	46403.39
559.66	46198.59
559.859	46047.04
560.058	45963.07
560.258	46366.52
560.457	45850.44
560.656	46018.37
560.855	45766.47
561.054	46022.47
561.253	45563.72
561.453	45715.27
561.652	45834.05
561.851	45844.29
562.05	45330.25
562.249	45090.64
562.448	45453.13
562.647	45786.95
562.846	45387.6
563.045	45387.6
563.244	45023.06
563.443	45846.34
563.642	44791.64
563.841	44904.27
564.04	45008.72
564.239	45371.21
564.438	44556.12
564.637	45213.52
564.836	44752.73
565.035	44224.35
565.234	44494.68
565.432	44154.72
565.631	44332.89
565.83	44142.43
566.029	44226.4
566.228	43802.47
566.427	43728.74
566.625	43851.62
566.824	43233.13
567.023	44007.26
567.222	42674.04
567.42	43923.3
567.619	43448.17
567.818	43003.76
568.016	43290.48
568.215	43335.53
568.414	43173.74
568.612	43222.89
568.811	42813.3
569.01	42946.42
569.208	42504.06
569.407	42753.91
569.605	42065.79
569.804	42762.1
570.002	41863.04
570.201	42440.57
570.4	41992.06
570.598	41693.06
570.797	41949.06
570.995	41705.35
571.193	41428.87
571.392	41856.9
571.59	41131.92
571.789	41363.34
571.987	41105.29
572.186	41373.58
572.384	41256.84
572.582	41041.81
572.781	40912.78
572.979	40497.05
573.177	40394.65
573.376	40810.39
573.574	40165.28
573.772	40734.61
573.971	40644.5
574.169	40370.07
574.367	40003.49
574.565	40064.92
574.763	39999.39
574.962	39466.92
575.16	39301.03
575.358	39727.01
575.556	38971.31
575.754	39628.71
575.952	38723.51
576.151	39550.88
576.349	38786.99
576.547	38537.14
576.745	38940.59
576.943	38897.58
577.141	38932.4
577.339	38422.45
577.537	38328.25
577.735	38352.82
577.933	37912.51
578.131	38346.68
578.329	37873.6
578.527	37433.28
578.725	38121.4
578.923	37558.21
579.121	37183.43
579.319	37214.15
579.516	37431.24
579.714	37603.27
579.912	37052.36
580.11	36827.09
580.308	37289.93
580.506	37035.98
580.704	36380.63
580.901	36491.22
581.099	36796.37
581.297	36177.88
581.495	35948.51
581.692	36620.24
581.89	35936.22
582.088	36376.53
582.285	36184.02
582.483	36104.15
582.681	35860.44
582.878	35745.76
583.076	35356.64
583.274	35676.13
583.471	35516.39
583.669	35340.26
583.866	34879.47
584.064	35336.16
584.262	34695.15
584.459	35442.66
584.657	35078.12
584.854	35127.27
585.052	34213.88
585.249	34715.63
585.447	34873.32
585.644	33994.75
585.841	34201.59
586.039	34551.79
586.236	34146.29
586.434	33828.86
586.631	33775.61
586.828	34041.85
587.026	33771.52
587.223	33701.89
587.42	33718.27
587.618	33527.81
587.815	33181.7
588.012	32890.89
588.21	33054.73
588.407	33576.96
588.604	32882.7
588.801	33019.91
588.999	32909.32
589.196	32682
589.393	32915.47
589.59	32514.06
589.787	32202.77
589.984	32352.27
590.182	32069.65
590.379	32622.61
590.576	32133.14
590.773	32122.9
590.97	31772.7
591.167	32081.94
591.364	31819.8
591.561	31506.46
591.758	31477.79
591.955	31342.63
592.152	31330.34
592.349	31186.98
592.546	31369.25
592.743	31023.14
592.94	30677.04
593.137	30957.61
593.334	31359.01
593.531	30382.13
593.727	30754.86
593.924	30738.47
594.121	30179.38
594.318	30627.88
594.515	30101.56
594.712	30646.32
594.908	30226.48
595.105	30412.85
595.302	30023.73
595.499	29659.2
595.696	29589.56
595.892	29874.23
596.089	29868.09
596.286	29792.31
596.482	29694.01
596.679	29450.3
596.876	29601.85
597.072	29352
597.269	29411.39
597.466	28827.72
597.662	29139.01
597.859	28971.08
598.055	29186.11
598.252	28835.91
598.448	28727.37
598.645	28608.59
598.841	28452.94
599.038	28328.02
599.234	28407.89
599.431	28293.2
599.627	28291.15
599.824	28342.35
600.02	28121.17
600.217	28123.22
600.413	27791.45
600.609	27646.04
600.806	27613.27
601.002	27924.57
601.198	27732.06
601.395	27457.63
601.591	27498.59
601.787	27351.13
601.984	27172.96
602.18	27330.65
602.376	26996.84
602.572	26867.81
602.769	26777.7
602.965	26284.14
603.161	26626.15
603.357	26372.21
603.553	26675.3
603.75	26577
603.946	26310.77
604.142	26341.49
604.338	25710.71
604.534	26390.64
604.73	25712.76
604.926	25942.13
605.122	26056.82
605.318	25811.06
605.514	25786.49
605.71	25669.75
605.906	25383.04
606.102	25942.13
606.298	25510.01
606.494	25510.01
606.69	25512.06
606.886	25538.68
607.082	25084.03
607.278	25266.3
607.474	24891.52
607.67	25286.78
607.866	24836.23
608.062	25208.96
608.257	25084.03
608.453	25053.31
608.649	24789.13
608.845	24492.17
609.041	24479.88
609.236	24711.3
609.432	24594.57
609.628	24563.85
609.824	24305.81
610.019	24461.45
610.215	24133.78
610.411	24440.97
610.606	24270.99
610.802	24449.16
610.998	24305.81
611.193	24203.41
611.389	23881.88
611.584	23883.92
611.78	23832.72
611.976	24039.57
612.171	23754.9
612.367	23840.92
612.562	23738.52
612.758	23476.38
612.953	23464.09
613.149	23781.53
613.344	23492.76
613.539	23670.93
613.735	23281.82
613.93	23390.36
614.126	23117.98
614.321	23570.58
614.517	23552.15
614.712	23136.41
614.907	23117.98
615.103	23195.81
615.298	22970.53
615.493	23072.93
615.688	22296.75
615.884	23062.69
616.079	22565.03
616.274	22747.3
616.47	22554.79
616.665	22622.37
616.86	22622.37
617.055	22517.93
617.25	22814.88
617.445	22821.03
617.641	22118.57
617.836	22458.54
618.031	21950.64
618.226	22335.66
618.421	22024.37
618.616	22061.23
618.811	21700.79
619.006	22083.76
619.201	21672.12
619.396	21926.07
619.591	21379.26
619.786	21420.22
619.981	21225.66
620.176	21727.41
620.371	21237.95
620.566	21485.75
620.761	20943.04
620.956	21233.85
621.151	20938.94
621.346	20834.5
621.541	20652.23
621.735	20777.15
621.93	20379.85
622.125	20570.31
622.32	20060.37
622.515	20342.99
622.709	19927.25
622.904	20027.6
623.099	19775.7
623.294	20162.76
623.488	19450.07
623.683	19519.7
623.878	19314.91
624.072	19445.98
624.267	19290.33
624.462	19122.4
624.656	18897.12
624.851	19079.39
625.046	18835.68
625.24	18921.7
625.435	18766.05
625.629	18811.1
625.824	18405.61
626.018	18561.25
626.213	17944.81
626.407	18518.25
626.602	17801.46
626.796	18096.36
626.991	18165.99
627.185	17856.75
627.38	17682.67
627.574	17582.32
627.768	17588.47
627.963	17330.42
628.157	17404.15
628.352	17469.69
628.546	17015.04
628.74	17058.04
628.935	16898.3
629.129	17115.39
629.323	16179.47
629.517	16576.77
629.712	16488.71
629.906	16716.03
630.1	16199.94
630.294	16572.68
630.489	16085.26
630.683	16085.26
630.877	16036.11
631.071	15778.06
631.265	15964.43
631.459	15900.94
631.653	15708.43
631.848	15796.49
632.042	15628.56
632.236	15622.42
632.43	15241.5
632.624	15583.51
632.818	15085.85
633.012	15081.75
633.206	15178.01
633.4	15100.19
633.594	14915.87
633.788	14739.74
633.982	14903.58
634.176	14709.02
634.369	14450.98
634.563	14534.95
634.757	14379.3
634.951	14412.07
635.145	14416.16
635.339	14348.58
635.533	14092.58
635.726	13984.04
635.92	13844.78
636.114	14027.05
636.308	14047.53
636.501	13848.88
636.695	13613.36
636.889	13560.11
637.083	13513.01
637.276	13379.89
637.47	13291.83
637.664	13314.36
637.857	13508.91
638.051	13248.82
638.244	13224.25
638.438	12958.01
638.632	13070.65
638.825	12998.97
639.019	12865.85
639.212	12708.16
639.406	12794.17
639.599	12529.98
639.793	12493.12
639.986	12386.63
640.18	12417.35
640.373	12468.55
640.567	12106.06
640.76	12073.29
640.954	12337.48
641.147	12044.62
641.34	11770.19
641.534	11925.83
641.727	11678.03
641.92	11888.97
642.114	11643.21
642.307	11460.95
642.5	11471.18
642.694	11311.44
642.887	11295.06
643.08	11587.92
643.273	11176.28
643.467	11102.55
643.66	11182.42
643.853	10963.29
644.046	10998.1
644.239	10850.65
644.432	10719.58
644.626	10774.88
644.819	10807.64
645.012	10574.17
645.205	10631.52
645.398	10625.37
645.591	10598.75
645.784	10533.22
645.977	10350.95
646.17	10291.55
646.363	10289.51
646.556	9898.34
646.749	10140.01
646.942	10283.36
647.135	10008.94
647.328	9851.24
647.521	9851.24
647.714	9886.06
647.907	9742.7
648.099	9769.32
648.292	9632.11
648.485	9726.32
648.678	9470.32
648.871	9445.74
649.064	9376.11
649.256	9634.16
649.449	9314.67
649.642	9390.45
649.835	9406.83
650.027	9105.78
650.22	9167.22
650.413	9130.36
650.605	9286
650.798	9177.46
650.991	8825.21
651.183	8987
651.376	8745.34
651.568	8620.41
651.761	8706.43
651.954	8819.07
652.146	8587.64
652.339	8673.66
652.531	8786.3
652.724	8448.38
652.916	8438.14
653.109	8425.86
653.301	8460.67
653.494	8374.66
653.686	8116.61
653.879	8343.94
654.071	8151.43
654.263	8159.62
654.456	8118.66
654.648	8358.27
654.84	7879.05
655.033	7956.87
655.225	7858.57
655.417	7883.14
655.61	8085.89
655.802	7797.13
655.994	7752.07
656.186	7721.35
656.379	7659.92
656.571	7764.36
656.763	7571.85
656.955	7623.05
657.148	7573.9
657.34	7287.18
657.532	7299.47
657.724	7524.75
657.916	7344.53
658.108	7340.43
658.3	7313.81
658.492	7328.14
658.684	7238.03
658.876	7205.27
659.068	7281.04
659.26	7070.1
659.452	7170.45
659.644	7123.35
659.836	6908.31
660.028	7133.59
660.22	6633.88
660.412	6787.48
660.604	6879.64
660.796	6797.72
660.988	6687.13
661.18	6578.59
661.372	6699.42
661.563	6689.18
661.755	6648.22
661.947	6683.03
662.139	6554.01
662.331	6431.13
662.522	6465.95
662.714	6250.91
662.906	6449.57
663.097	6328.74
663.289	6453.66
663.481	6291.87
663.673	6341.02
663.864	6117.79
664.056	6230.43
664.247	6066.6
664.439	6144.42
664.631	6191.52
664.822	6101.41
665.014	5980.58
665.205	5960.1
665.397	5878.18
665.588	5992.87
665.78	5915.05
665.971	5898.66
666.163	6115.75
666.354	5812.65
666.546	5921.19
666.737	5685.67
666.929	5781.93
667.12	5657
667.311	5759.4
667.503	5732.78
667.694	5724.58
667.885	5507.5
668.077	5585.32
668.268	5538.22
668.459	5456.3
668.651	5564.84
668.842	5491.12
669.033	5480.88
669.224	5484.97
669.416	5450.16
669.607	5337.52
669.798	5333.42
669.989	5450.16
670.18	5341.61
670.371	5212.59
670.563	5411.25
670.754	5251.5
670.945	5243.31
671.136	5212.59
671.327	5169.59
671.518	5214.64
671.709	5093.81
671.9	5312.94
672.091	5118.39
672.282	5255.6
672.473	5241.26
672.664	5128.63
672.855	5110.19
673.046	5112.24
673.237	5185.97
673.428	4960.69
673.619	5036.47
673.809	4950.45
674	4846.01
674.191	5005.75
674.382	4905.4
674.573	5036.47
674.764	4983.22
674.954	4989.36
675.145	4954.55
675.336	4858.29
675.527	4815.29
675.717	4786.61
675.908	4909.49
676.099	4903.35
676.289	4958.64
676.48	4782.52
676.671	4841.91
676.861	4798.9
677.052	4704.7
677.243	4827.57
677.433	4745.66
677.624	4786.61
677.814	4620.73
678.005	4657.59
678.195	4694.46
678.386	4676.02
678.576	4544.95
678.767	4540.86
678.957	4585.91
679.148	4604.35
679.338	4585.91
679.529	4678.07
679.719	4803
679.909	4671.93
680.1	4534.71
680.29	4698.55
680.481	4477.37
680.671	4692.41
680.861	4618.68
681.052	4604.35
681.242	4446.65
681.432	4594.11
681.622	4487.61
681.813	4395.45
682.003	4534.71
682.193	4471.23
682.383	4471.23
682.573	4493.76
682.764	4487.61
682.954	4456.89
683.144	4415.93
683.334	4415.93
683.524	4483.52
683.714	4567.48
683.904	4518.33
684.094	4424.12
684.284	4397.5
684.474	4334.01
684.664	4471.23
684.854	4383.17
685.044	4389.31
685.234	4368.83
685.424	4329.92
685.614	4448.7
685.804	4428.22
685.994	4327.87
686.184	4313.53
686.374	4417.98
686.564	4245.95
686.753	4307.39
686.943	4102.59
687.133	4291.01
687.323	4372.93
687.513	4356.54
687.702	4248
687.892	4325.82
688.082	4100.55
688.272	4188.61
688.461	4258.24
688.651	4225.47
688.841	4178.37
689.03	4254.14
689.22	4096.45
689.41	4078.02
689.599	4051.39
689.789	4121.03
689.979	4020.67
690.168	4112.83
690.358	4014.53
690.547	3979.72
690.737	4045.25
690.926	3942.85
691.116	3944.9
691.305	4061.63
691.495	4061.63
691.684	3905.99
691.874	3912.13
692.063	3885.51
692.252	3969.48
692.442	3901.89
692.631	3809.73
692.82	3869.12
693.01	3776.97
693.199	3871.17
693.388	3805.64
693.578	3891.65
693.767	3932.61
693.956	3774.92
694.146	3752.39
694.335	3867.08
694.524	3891.65
694.713	3883.46
694.902	3809.73
695.092	3920.32
695.281	3752.39
695.47	3723.72
695.659	3772.87
695.848	3684.81
696.037	3795.4
696.226	3693
696.415	3830.21
696.604	3740.1
696.793	3662.28
696.982	3746.25
697.171	3701.19
697.36	3682.76
697.549	3625.42
697.738	3549.64
697.927	3639.75
698.116	3719.62
698.305	3635.66
698.494	3664.33
698.683	3561.93
698.872	3627.46
699.061	3633.61
699.25	3584.46
699.438	3602.89
699.627	3654.09
699.816	3496.39
700.005	3590.6
700.193	3645.9
700.382	3563.98
700.571	3588.55
700.76	3533.26
700.948	3645.9
701.137	3492.3
701.326	3559.88
701.514	3502.54
701.703	3586.51
701.892	3570.12
702.08	3543.5
702.269	3338.7
702.457	3508.68
702.646	3574.22
702.834	3619.27
703.023	3389.9
703.212	3518.92
703.4	3500.49
703.589	3400.14
703.777	3488.2
703.965	3361.23
704.154	3508.68
704.342	3410.38
704.531	3449.29
704.719	3379.66
704.907	3391.95
705.096	3385.8
705.284	3322.32
705.472	3387.85
705.661	3373.52
705.849	3455.44
706.037	3475.91
706.226	3365.32
706.414	3328.46
706.602	3221.97
706.79	3482.06
706.979	3346.89
707.167	3258.83
707.355	3256.78
707.543	3221.97
707.731	3260.88
707.919	3269.07
708.107	3205.58
708.296	3367.37
708.484	3191.25
708.672	3316.17
708.86	3281.36
709.048	3299.79
709.236	3111.38
709.424	3213.77
709.612	3187.15
709.8	3328.46
709.988	3203.54
710.176	3101.14
710.364	3201.49
710.551	3168.72
710.739	3013.07
710.927	3033.55
711.115	3189.2
711.303	3105.23
711.491	3146.19
711.679	2970.07
711.866	3072.47
712.054	3094.99
712.242	3043.79
712.43	3166.67
712.617	3076.56
712.805	3017.17
712.993	2927.06
713.181	2941.4
713.368	3027.41
713.556	3033.55
713.744	3035.6
713.931	2963.92
714.119	2908.63
714.306	3074.51
714.494	2963.92
714.682	2994.64
714.869	3062.23
715.057	3021.27
715.244	2931.16
715.432	2935.25
715.619	2965.97
715.807	2984.4
715.994	2931.16
716.182	2961.87
716.369	2918.87
716.556	2984.4
716.744	2943.44
716.931	2853.33
717.119	2912.72
717.306	2886.1
717.493	2961.87
717.681	2861.52
717.868	2832.85
718.055	2920.92
718.242	2873.81
718.43	2730.45
718.617	2757.08
718.804	2892.24
718.991	2810.33
719.179	2752.98
719.366	2757.08
719.553	2724.31
719.74	2664.92
719.927	2750.93
720.114	2824.66
720.301	2755.03
720.488	2750.93
720.676	2781.65
720.863	2761.17
721.05	2675.16
721.237	2705.88
721.424	2791.89
721.611	2640.34
721.798	2834.9
721.985	2699.73
722.172	2613.72
722.358	2681.3
722.545	2666.97
722.732	2619.86
722.919	2615.77
723.106	2730.45
723.293	2580.95
723.48	2621.91
723.667	2605.53
723.853	2617.82
724.04	2632.15
724.227	2685.4
724.414	2597.34
724.6	2515.42
724.787	2583
724.974	2585.05
725.161	2531.8
725.347	2511.32
725.534	2619.86
725.72	2585.05
725.907	2576.86
726.094	2527.71
726.28	2576.86
726.467	2619.86
726.653	2550.23
726.84	2513.37
727.027	2470.36
727.213	2513.37
727.4	2370.01
727.586	2427.35
727.773	2451.93
727.959	2458.07
728.145	2413.02
728.332	2306.52
728.518	2353.63
728.705	2359.77
728.891	2353.63
729.077	2408.92
729.264	2339.29
729.45	2327
729.636	2363.87
729.823	2357.72
730.009	2349.53
730.195	2388.44
730.382	2423.26
730.568	2302.43
730.754	2353.63
730.94	2357.72
731.126	2357.72
731.313	2296.28
731.499	2316.76
731.685	2388.44
731.871	2413.02
732.057	2404.83
732.243	2490.84
732.429	2306.52
732.615	2300.38
732.801	2384.35
732.987	2257.37
733.173	2234.85
733.359	2300.38
733.545	2298.33
733.731	2226.65
733.917	2179.55
734.103	2255.33
734.289	2232.8
734.475	2179.55
734.661	2216.41
734.847	2195.93
735.033	2247.13
735.219	2306.52
735.404	2177.5
735.59	2214.37
735.776	2161.12
735.962	2261.47
736.148	2224.61
736.333	2243.04
736.519	2193.89
736.705	2140.64
736.89	2075.1
737.076	2126.3
737.262	2154.98
737.447	2118.11
737.633	2091.49
737.819	2075.1
738.004	2079.2
738.19	2154.98
738.375	2028
738.561	2107.87
738.747	2068.96
738.932	2165.21
739.118	2089.44
739.303	2052.58
739.489	2023.91
739.674	2028
739.859	2036.19
740.045	2001.38
740.23	2030.05
740.416	1999.33
740.601	2007.52
740.786	1966.56
740.972	1944.03
741.157	1831.4
741.342	2001.38
741.528	1937.89
741.713	2015.71
741.898	1915.36
742.084	1843.68
742.269	1872.36
742.454	1870.31
742.639	1845.73
742.824	1872.36
743.01	1909.22
743.195	1882.6
743.38	1952.23
743.565	1901.03
743.75	1909.22
743.935	1827.3
744.12	1860.07
744.305	1833.44
744.49	1825.25
744.675	1837.54
744.86	1815.01
745.045	1833.44
745.23	1823.2
745.415	1784.29
745.6	1796.58
745.785	1761.77
745.97	1751.53
746.155	1778.15
746.34	1782.24
746.525	1767.91
746.71	1794.53
746.895	1618.41
747.079	1587.69
747.264	1753.57
747.449	1651.17
747.634	1616.36
747.819	1743.33
748.003	1692.13
748.188	1653.22
748.373	1645.03
748.557	1536.49
748.742	1667.56
748.927	1645.03
749.111	1542.63
749.296	1536.49
749.481	1546.73
749.665	1559.02
749.85	1561.06
750.034	1604.07
750.219	1442.28
750.404	1534.44
750.588	1497.58
750.773	1339.88
750.957	1456.62
751.141	1427.95
751.326	1505.77
751.51	1378.79
751.695	1446.38
751.879	1507.82
752.064	1397.23
752.248	1427.95
752.432	1429.99
752.617	1370.6
752.801	1444.33
752.985	1294.83
753.17	1343.98
753.354	1352.17
753.538	1243.63
753.722	1280.49
753.907	1233.39
754.091	1300.97
754.275	1405.42
754.459	1225.2
754.643	1290.73
754.828	1210.86
755.012	1272.3
755.196	1231.34
755.38	1290.73
755.564	1245.68
755.748	1225.2
755.932	1233.39
756.116	1180.14
756.3	1210.86
756.484	1192.43
756.668	1122.8
756.852	1167.85
757.036	1225.2
757.22	1161.71
757.404	1139.18
757.588	1128.94
757.772	1155.57
757.956	1071.6
758.14	1104.37
758.323	1147.37
758.507	1057.26
758.691	1098.22
758.875	1130.99
759.059	1096.18
759.242	971.25
759.426	1139.18
759.61	1051.12
759.794	999.92
759.977	1139.18
760.161	1010.16
760.345	1026.54
760.528	973.3
760.712	979.44
760.895	1004.02
761.079	975.35
761.263	1028.59
761.446	1022.45
761.63	1055.22
761.813	958.96
761.997	944.63
762.18	985.58
762.364	1010.16
762.547	965.11
762.731	893.43
762.914	1016.3
763.098	868.85
763.281	956.91
763.464	956.91
763.648	983.54
763.831	932.34
764.015	1001.97
764.198	932.34
764.381	877.04
764.564	954.87
764.748	899.57
764.931	954.87
765.114	856.56
765.297	905.71
765.481	776.69
765.664	905.71
765.847	831.99
766.03	881.14
766.213	862.71
766.397	883.19
766.58	879.09
766.763	834.04
766.946	918
767.129	889.33
767.312	944.63
767.495	813.56
767.678	821.75
767.861	813.56
768.044	819.7
768.227	838.13
768.41	782.84
768.593	854.51
768.776	758.26
768.959	897.52
769.142	797.17
769.324	778.74
769.507	842.23
769.69	840.18
769.873	739.83
770.056	862.71
770.239	692.73
770.421	780.79
770.604	786.93
770.787	840.18
770.97	782.84
771.152	709.11
771.335	745.97
771.518	727.54
771.7	834.04
771.883	739.83
772.066	733.68
772.248	731.64
772.431	756.21
772.613	721.4
772.796	694.77
772.978	778.74
773.161	729.59
773.343	657.91
773.526	653.81
773.708	694.77
773.891	680.44
774.073	668.15
774.256	739.83
774.438	774.64
774.621	707.06
774.803	670.2
774.985	645.62
775.168	666.1
775.35	659.96
775.532	702.97
775.715	602.61
775.897	733.68
776.079	662.01
776.261	692.73
776.444	666.1
776.626	518.65
776.808	676.34
776.99	606.71
777.173	657.91
777.355	653.81
777.537	592.37
777.719	621.05
777.901	514.55
778.083	590.33
778.265	555.51
778.447	627.19
778.629	598.52
778.811	559.61
778.993	555.51
779.175	539.13
779.357	512.5
779.539	512.5
779.721	563.7
779.903	586.23
780.085	584.18
780.267	461.3
780.449	526.84
780.631	510.46
780.812	479.74
780.994	528.89
781.176	516.6
781.358	530.94
781.54	453.11
781.721	446.97
781.903	424.44
782.085	385.53
782.267	457.21
782.448	547.32
782.63	453.11
782.812	408.06
782.993	430.59
783.175	479.74
783.357	406.01
783.538	477.69
783.72	375.29
783.901	334.33
784.083	418.3
784.264	426.49
784.446	463.35
784.627	485.88
784.809	516.6
784.99	403.96
785.172	369.15
785.353	489.98
785.535	489.98
785.716	358.91
785.897	393.72
786.079	307.71
786.26	422.39
786.441	385.53
786.623	352.76
786.804	469.5
786.985	385.53
787.167	412.15
787.348	403.96
787.529	430.59
787.71	426.49
787.891	336.38
788.073	385.53
788.254	330.23
788.435	387.58
788.616	342.52
788.797	328.19
788.978	365.05
789.159	356.86
789.34	326.14
789.522	385.53
789.703	326.14
789.884	336.38
790.065	342.52
790.246	348.67
790.427	293.37
790.607	334.33
790.788	352.76
790.969	293.37
791.15	317.95
791.331	256.51
791.512	346.62
791.693	289.28
791.874	317.95
792.054	244.22
792.235	213.5
792.416	326.14
792.597	264.7
792.778	291.32
792.958	346.62
793.139	369.15
793.32	311.8
793.5	248.32
793.681	309.76
793.862	256.51
794.042	299.52
794.223	332.28
794.404	256.51
794.584	264.7
794.765	242.17
794.945	244.22
795.126	303.61
795.306	268.8
795.487	274.94
795.667	248.32
795.848	256.51
796.028	291.32
796.209	244.22
796.389	215.55
796.57	276.99
796.75	336.38
796.93	299.52
797.111	246.27
797.291	207.36
797.471	193.02
797.652	186.88
797.832	178.69
798.012	315.9
798.192	276.99
798.373	250.36
798.553	219.64
798.733	227.84
798.913	158.21
799.093	207.36
799.274	209.4
799.454	213.5
799.634	193.02
799.814	178.69
799.994	229.88
800.174	252.41
800.354	233.98
800.534	111.1
800.714	170.49
800.894	188.93
801.074	215.55
801.254	225.79
801.434	266.75
801.614	178.69
801.794	164.35
801.974	645.62
802.154	203.26
802.334	260.6
802.514	170.49
802.693	170.49
802.873	197.12
803.053	203.26
803.233	231.93
803.413	166.4
803.592	219.64
803.772	252.41
803.952	164.35
804.131	125.44
804.311	199.16
804.491	227.84
804.67	180.73
804.85	174.59
805.03	233.98
805.209	164.35
805.389	184.83
805.568	203.26
805.748	211.45
805.928	139.77
806.107	221.69
806.287	227.84
806.466	197.12
806.646	156.16
806.825	233.98
807.004	172.54
807.184	152.06
807.363	207.36
807.543	123.39
807.722	78.33
807.901	162.3
808.081	215.55
808.26	190.97
808.439	193.02
808.619	127.49
808.798	131.58
808.977	154.11
809.156	217.6
809.336	150.01
809.515	150.01
809.694	80.38
809.873	172.54
810.052	123.39
810.231	135.68
810.411	145.92
810.59	143.87
810.769	166.4
810.948	131.58
811.127	109.05
811.306	170.49
811.485	117.25
811.664	176.64
811.843	123.39
812.022	131.58
812.201	127.49
812.38	119.29
812.559	182.78
812.737	139.77
812.916	182.78
813.095	168.45
813.274	96.77
813.453	98.81
813.632	162.3
813.811	168.45
813.989	156.16
814.168	205.31
814.347	94.72
814.526	92.67
814.704	137.73
814.883	127.49
815.062	96.77
815.24	160.25
815.419	84.48
815.598	156.16
815.776	64
815.955	135.68
816.133	121.34
816.312	88.57
816.49	127.49
816.669	111.1
816.847	123.39
817.026	184.83
817.204	96.77
817.383	252.41
817.561	90.62
817.74	86.53
817.918	145.92
818.097	160.25
818.275	20.99
818.453	98.81
818.632	100.86
818.81	152.06
818.988	107.01
819.167	102.91
819.345	113.15
819.523	147.97
819.701	111.1
819.879	47.62
820.058	66.05
820.236	119.29
820.414	152.06
820.592	104.96
820.77	18.94
820.948	20.99
821.127	131.58
821.305	94.72
821.483	51.71
821.661	156.16
821.839	39.42
822.017	53.76
822.195	39.42
822.373	104.96
822.551	100.86
822.729	123.39
822.907	141.82
823.085	64
823.262	174.59
823.44	25.09
823.618	98.81
823.796	82.43
823.974	145.92
824.152	107.01
824.329	109.05
824.507	70.14
824.685	107.01
824.863	18.94
825.04	12.8
825.218	166.4
825.396	147.97
825.574	123.39
825.751	27.14
825.929	172.54
826.107	53.76
826.284	25.09
826.462	133.63
826.639	49.66
826.817	86.53
826.994	109.05
827.172	76.29
827.349	143.87
827.527	125.44
827.704	127.49
827.882	66.05
828.059	131.58
828.237	129.53
828.414	115.2
828.591	111.1
828.769	135.68
828.946	47.62
829.124	88.57
829.301	57.86
829.478	72.19
829.655	31.23
829.833	84.48
830.01	18.94
830.187	88.57
830.364	74.24
830.542	94.72
830.719	129.53
830.896	129.53
831.073	115.2
831.25	43.52
831.427	70.14
831.604	41.47
831.782	55.81
831.959	123.39
832.136	45.57
832.313	55.81
832.49	25.09
832.667	-3.58
832.844	0.51
833.021	88.57
833.198	115.2
833.374	59.9
833.551	57.86
833.728	43.52
833.905	47.62
834.082	64
834.259	66.05
834.436	123.39
834.612	33.28
834.789	70.14
834.966	125.44
835.143	47.62
835.319	20.99
835.496	14.85
835.673	16.9
835.85	100.86
836.026	137.73
836.203	107.01
836.38	92.67
836.556	59.9
836.733	12.8
836.909	74.24
837.086	107.01
837.262	29.18
837.439	98.81
837.616	94.72
837.792	84.48
837.968	49.66
838.145	-28.16
838.321	-32.26
838.498	57.86
838.674	45.57
838.851	25.09
839.027	55.81
839.203	37.38
839.38	59.9
839.556	49.66
839.732	131.58
839.909	100.86
840.085	64
840.261	31.23
840.437	47.62
840.614	68.09
840.79	59.9
840.966	68.09
841.142	37.38
841.318	-48.64
841.494	66.05
841.671	-9.73
841.847	45.57
842.023	-42.5
842.199	35.33
842.375	76.29
842.551	33.28
842.727	72.19
842.903	57.86
843.079	10.75
843.255	72.19
843.431	-5.63
843.607	121.34
843.783	6.66
843.959	135.68
844.134	25.09
844.31	129.53
844.486	74.24
844.662	8.7
844.838	-9.73
845.013	100.86
845.189	27.14
845.365	-30.21
845.541	-5.63
845.716	115.2
845.892	43.52
846.068	14.85
846.244	59.9
846.419	49.66
846.595	31.23
846.77	61.95
846.946	61.95
847.122	16.9
847.297	-46.59
847.473	47.62
847.648	29.18
847.824	64
847.999	-11.78
848.175	61.95
848.35	-7.68
848.526	78.33
848.701	90.62
848.876	168.45
849.052	-17.92
849.227	-17.92
849.403	35.33
849.578	68.09
849.753	10.75
849.929	115.2
850.104	80.38
850.279	61.95
850.454	6.66
850.63	16.9
850.805	25.09
850.98	37.38
851.155	-5.63
851.33	82.43
851.505	12.8
851.681	59.9
851.856	0.51
852.031	6.66
852.206	55.81
852.381	-114.17
852.556	31.23
852.731	45.57
852.906	-13.82
853.081	88.57
853.256	107.01
853.431	111.1
853.606	33.28
853.781	45.57
853.956	-13.82
854.131	53.76
854.305	37.38
854.48	20.99
854.655	14.85
854.83	25.09
855.005	14.85
855.18	45.57
855.354	0.51
855.529	53.76
855.704	70.14
855.879	35.33
856.053	8.7
856.228	66.05
856.403	102.91
856.577	-40.45
856.752	-26.11
856.926	47.62
857.101	4.61
857.276	-40.45
857.45	23.04
857.625	47.62
857.799	-5.63
857.974	2.56
858.148	-15.87
858.323	68.09
858.497	18.94
858.672	45.57
858.846	47.62
859.02	76.29
859.195	92.67
859.369	29.18
859.543	27.14
859.718	12.8
859.892	27.14
860.066	49.66
860.241	84.48
860.415	2.56
860.589	-30.21
860.763	-1.54
860.938	-30.21
861.112	-38.4
861.286	82.43
861.46	-9.73
861.634	45.57
861.808	86.53
861.982	-11.78
862.157	-17.92
862.331	16.9
862.505	14.85
862.679	72.19
862.853	-56.83
863.027	8.7
863.201	27.14
863.375	31.23
863.549	45.57
863.722	16.9
863.896	39.42
864.07	27.14
864.244	8.7
864.418	45.57
864.592	-60.93
864.766	45.57
864.939	-40.45
865.113	-40.45
865.287	12.8
865.461	-32.26
865.634	-17.92
865.808	-24.06
865.982	76.29
866.156	-60.93
866.329	-48.64
866.503	25.09
866.676	-30.21
866.85	-52.74
867.024	72.19
867.197	55.81
867.371	53.76
867.544	2.56
867.718	-32.26
867.891	-24.06
868.065	53.76
868.238	31.23
868.412	55.81
868.585	92.67
868.759	113.15
868.932	47.62
869.105	-5.63
869.279	0.51
869.452	61.95
869.625	39.42
869.799	49.66
869.972	12.8
870.145	37.38
870.319	12.8
870.492	-50.69
870.665	2.56
870.838	-38.4
871.011	-11.78
871.185	-54.78
871.358	8.7
871.531	2.56
871.704	59.9
871.877	-28.16
872.05	-1.54
872.223	23.04
872.396	53.76
872.569	64
872.742	53.76
872.915	41.47
873.088	29.18
873.261	12.8
873.434	33.28
873.607	-56.83
873.78	-40.45
873.953	-60.93
874.126	49.66
874.299	-15.87
874.471	-34.3
874.644	94.72
874.817	43.52
874.99	74.24
875.163	-11.78
875.335	43.52
875.508	23.04
875.681	123.39
875.853	4.61
876.026	-13.82
876.199	64
876.371	12.8
876.544	0.51
876.717	-24.06
876.889	-3.58
877.062	35.33
877.234	-15.87
877.407	-13.82
877.579	55.81
877.752	-17.92
877.924	18.94
878.097	14.85
878.269	-65.02
878.442	-1.54
878.614	29.18
878.786	6.66
878.959	20.99
879.131	82.43
879.303	-122.37
879.476	43.52
879.648	68.09
879.82	16.9
879.993	-17.92
880.165	61.95
880.337	-28.16
880.509	43.52
880.681	53.76
880.854	-17.92
881.026	-1.54
881.198	39.42
881.37	39.42
881.542	16.9
881.714	43.52
881.886	14.85
882.058	-3.58
882.23	2.56
882.402	-1.54
882.574	111.1
882.746	51.71
882.918	47.62
883.09	0.51
883.262	-40.45
883.434	-11.78
883.606	-60.93
883.778	-5.63
883.95	-62.98
884.122	-17.92
884.293	76.29
884.465	-75.26
884.637	-36.35
884.809	-67.07
884.98	45.57
885.152	18.94
885.324	61.95
885.496	47.62
885.667	33.28
885.839	12.8
886.011	-42.5
886.182	-9.73
886.354	37.38
886.525	-22.02
886.697	37.38
886.869	-40.45
887.04	86.53
887.212	37.38
887.383	121.34
887.555	35.33
887.726	4.61
887.897	-40.45
888.069	-36.35
888.24	27.14
888.412	-19.97
888.583	-42.5
888.754	31.23
888.926	-19.97
889.097	18.94
889.268	16.9
889.44	96.77
889.611	-58.88
889.782	-7.68
889.953	4.61
890.125	8.7
890.296	14.85
890.467	6.66
890.638	-36.35
890.809	51.71
890.98	51.71
891.151	33.28
891.323	64
891.494	123.39
891.665	-22.02
891.836	29.18
892.007	-34.3
892.178	-46.59
892.349	47.62
892.52	-36.35
892.691	45.57
892.862	-9.73
893.032	-124.41
893.203	18.94
893.374	18.94
893.545	-28.16
893.716	-3.58
893.887	27.14
894.057	-3.58
894.228	-48.64
894.399	10.75
894.57	66.05
894.74	16.9
894.911	64
895.082	8.7
895.253	-15.87
895.423	6.66
895.594	64
895.764	0.51
895.935	-19.97
896.106	-3.58
896.276	37.38
896.447	-34.3
896.617	20.99
896.788	6.66
896.958	41.47
897.129	14.85
897.299	-19.97
897.47	-85.5
897.64	0.51
897.81	43.52
897.981	57.86
898.151	29.18
898.322	20.99
898.492	41.47
898.662	-3.58
898.832	10.75
899.003	76.29
899.173	16.9
899.343	-28.16
899.513	-75.26
