Data from USB4F104151__92__12-37-07-871.txt Node

Date: Fri Mar 14 12:37:07 EDT 2025
User: louis
Spectrometer: USB4F10415
Trigger mode: 4
Integration Time (sec): 2.000000E-2
Scans to average: 1
Electric dark correction enabled: true
Nonlinearity correction enabled: false
Boxcar width: 0
XAxis mode: Wavelengths
Number of Pixels in Spectrum: 3648
>>>>>Begin Spectral Data<<<<<
178.204	-47.27
178.424	-47.27
178.644	-47.27
178.864	-77.99
179.084	-114.86
179.304	20.31
179.524	-53.42
179.744	-14.51
179.964	69.46
180.184	-30.89
180.404	32.6
180.624	48.98
180.844	-16.55
181.064	8.02
181.283	-4.27
181.503	-47.27
181.723	-12.46
181.943	-8.36
182.163	87.89
182.383	20.31
182.602	63.32
182.822	87.89
183.042	26.45
183.262	51.03
183.482	53.08
183.701	38.74
183.921	46.93
184.141	94.04
184.361	53.08
184.58	44.88
184.8	44.88
185.02	-0.17
185.239	61.27
185.459	46.93
185.679	53.08
185.898	77.65
186.118	69.46
186.338	145.24
186.557	48.98
186.777	98.13
186.997	46.93
187.216	65.36
187.436	106.32
187.655	98.13
187.875	44.88
188.095	61.27
188.314	26.45
188.534	71.51
188.753	30.55
188.973	53.08
189.192	28.5
189.412	5.97
189.631	48.98
189.851	20.31
190.07	83.8
190.29	30.55
190.509	85.84
190.729	46.93
190.948	44.88
191.168	114.52
191.387	-4.27
191.607	10.07
191.826	100.18
192.045	-22.7
192.265	96.08
192.484	67.41
192.704	-41.13
192.923	30.55
193.142	116.56
193.362	59.22
193.581	40.79
193.8	98.13
194.02	65.36
194.239	46.93
194.458	69.46
194.678	12.12
194.897	67.41
195.116	28.5
195.335	14.17
195.555	38.74
195.774	73.56
195.993	-18.6
196.212	87.89
196.432	69.46
196.651	28.5
196.87	69.46
197.089	59.22
197.308	100.18
197.528	-10.41
197.747	-18.6
197.966	38.74
198.185	67.41
198.404	3.93
198.623	87.89
198.842	67.41
199.062	108.37
199.281	87.89
199.5	-41.13
199.719	36.69
199.938	85.84
200.157	12.12
200.376	63.32
200.595	18.26
200.814	22.36
201.033	34.64
201.252	55.12
201.471	53.08
201.69	69.46
201.909	69.46
202.128	79.7
202.347	32.6
202.566	46.93
202.785	44.88
203.004	28.5
203.223	104.28
203.442	-4.27
203.661	12.12
203.879	26.45
204.098	34.64
204.317	36.69
204.536	44.88
204.755	8.02
204.974	85.84
205.193	16.21
205.411	87.89
205.63	8.02
205.849	81.75
206.068	48.98
206.287	26.45
206.505	98.13
206.724	79.7
206.943	12.12
207.162	1.88
207.381	20.31
207.599	61.27
207.818	83.8
208.037	10.07
208.255	108.37
208.474	81.75
208.693	12.12
208.911	69.46
209.13	42.84
209.349	48.98
209.567	89.94
209.786	110.42
210.005	55.12
210.223	18.26
210.442	30.55
210.661	57.17
210.879	75.6
211.098	10.07
211.316	32.6
211.535	124.76
211.753	110.42
211.972	38.74
212.191	77.65
212.409	87.89
212.628	73.56
212.846	53.08
213.065	-6.31
213.283	75.6
213.502	75.6
213.72	94.04
213.938	20.31
214.157	102.23
214.375	98.13
214.594	-4.27
214.812	-0.17
215.031	44.88
215.249	30.55
215.467	73.56
215.686	67.41
215.904	61.27
216.122	53.08
216.341	91.99
216.559	98.13
216.778	83.8
216.996	42.84
217.214	34.64
217.432	36.69
217.651	40.79
217.869	57.17
218.087	75.6
218.306	85.84
218.524	100.18
218.742	10.07
218.96	71.51
219.179	22.36
219.397	30.55
219.615	28.5
219.833	-0.17
220.051	61.27
220.27	94.04
220.488	59.22
220.706	57.17
220.924	-39.08
221.142	-12.46
221.36	16.21
221.578	112.47
221.796	100.18
222.015	51.03
222.233	32.6
222.451	126.8
222.669	81.75
222.887	83.8
223.105	-47.27
223.323	22.36
223.541	42.84
223.759	48.98
223.977	48.98
224.195	69.46
224.413	42.84
224.631	126.8
224.849	24.4
225.067	85.84
225.285	69.46
225.503	51.03
225.721	59.22
225.939	38.74
226.157	18.26
226.375	79.7
226.592	46.93
226.81	100.18
227.028	32.6
227.246	77.65
227.464	96.08
227.682	42.84
227.9	77.65
228.117	77.65
228.335	32.6
228.553	53.08
228.771	8.02
228.989	98.13
229.206	8.02
229.424	-2.22
229.642	8.02
229.86	28.5
230.077	77.65
230.295	71.51
230.513	73.56
230.731	102.23
230.948	96.08
231.166	63.32
231.384	87.89
231.601	51.03
231.819	102.23
232.037	75.6
232.254	-4.27
232.472	71.51
232.689	-0.17
232.907	38.74
233.125	53.08
233.342	-24.75
233.56	55.12
233.777	30.55
233.995	79.7
234.213	69.46
234.43	18.26
234.648	102.23
234.865	120.66
235.083	118.61
235.3	32.6
235.518	44.88
235.735	46.93
235.953	120.66
236.17	-14.51
236.388	71.51
236.605	44.88
236.822	73.56
237.04	69.46
237.257	53.08
237.475	22.36
237.692	91.99
237.909	30.55
238.127	69.46
238.344	79.7
238.562	22.36
238.779	12.12
238.996	10.07
239.214	30.55
239.431	55.12
239.648	22.36
239.865	96.08
240.083	42.84
240.3	63.32
240.517	28.5
240.735	132.95
240.952	48.98
241.169	69.46
241.386	14.17
241.603	16.21
241.821	38.74
242.038	128.85
242.255	71.51
242.472	36.69
242.689	48.98
242.907	75.6
243.124	36.69
243.341	30.55
243.558	51.03
243.775	-20.65
243.992	-20.65
244.209	87.89
244.426	67.41
244.643	59.22
244.86	57.17
245.078	91.99
245.295	98.13
245.512	44.88
245.729	67.41
245.946	85.84
246.163	81.75
246.38	83.8
246.597	5.97
246.814	65.36
247.031	51.03
247.248	120.66
247.464	126.8
247.681	59.22
247.898	223.06
248.115	75.6
248.332	-43.18
248.549	94.04
248.766	89.94
248.983	79.7
249.2	48.98
249.417	-8.36
249.633	-32.94
249.85	132.95
250.067	81.75
250.284	20.31
250.501	71.51
250.717	122.71
250.934	32.6
251.151	-30.89
251.368	75.6
251.585	169.81
251.801	-12.46
252.018	30.55
252.235	8.02
252.451	46.93
252.668	-12.46
252.885	-12.46
253.102	106.32
253.318	67.41
253.535	69.46
253.752	46.93
253.968	42.84
254.185	83.8
254.401	57.17
254.618	32.6
254.835	53.08
255.051	104.28
255.268	42.84
255.484	85.84
255.701	44.88
255.917	40.79
256.134	-18.6
256.351	141.14
256.567	38.74
256.784	91.99
257	75.6
257.217	79.7
257.433	83.8
257.65	57.17
257.866	106.32
258.082	20.31
258.299	124.76
258.515	98.13
258.732	110.42
258.948	3.93
259.165	139.09
259.381	75.6
259.597	20.31
259.814	16.21
260.03	-2.22
260.246	53.08
260.463	71.51
260.679	12.12
260.895	79.7
261.112	59.22
261.328	28.5
261.544	16.21
261.761	48.98
261.977	28.5
262.193	61.27
262.409	91.99
262.626	147.28
262.842	71.51
263.058	137.04
263.274	77.65
263.49	108.37
263.707	79.7
263.923	73.56
264.139	14.17
264.355	40.79
264.571	73.56
264.787	87.89
265.004	128.85
265.22	16.21
265.436	1.88
265.652	38.74
265.868	83.8
266.084	48.98
266.3	42.84
266.516	67.41
266.732	-18.6
266.948	59.22
267.164	130.9
267.38	112.47
267.596	28.5
267.812	130.9
268.028	36.69
268.244	24.4
268.46	96.08
268.676	-2.22
268.892	98.13
269.108	38.74
269.324	40.79
269.54	1.88
269.756	48.98
269.972	83.8
270.188	87.89
270.403	102.23
270.619	30.55
270.835	85.84
271.051	81.75
271.267	46.93
271.483	102.23
271.698	10.07
271.914	102.23
272.13	61.27
272.346	89.94
272.562	26.45
272.777	5.97
272.993	18.26
273.209	1.88
273.425	42.84
273.64	63.32
273.856	14.17
274.072	116.56
274.287	65.36
274.503	67.41
274.719	102.23
274.934	149.33
275.15	40.79
275.366	16.21
275.581	-4.27
275.797	53.08
276.012	94.04
276.228	5.97
276.444	63.32
276.659	89.94
276.875	69.46
277.09	63.32
277.306	8.02
277.521	53.08
277.737	89.94
277.952	81.75
278.168	34.64
278.383	59.22
278.599	73.56
278.814	81.75
279.03	91.99
279.245	55.12
279.461	51.03
279.676	100.18
279.892	55.12
280.107	-16.55
280.322	55.12
280.538	-16.55
280.753	24.4
280.969	77.65
281.184	3.93
281.399	69.46
281.615	61.27
281.83	18.26
282.045	124.76
282.26	65.36
282.476	75.6
282.691	110.42
282.906	-2.22
283.122	22.36
283.337	63.32
283.552	79.7
283.767	28.5
283.983	14.17
284.198	30.55
284.413	157.52
284.628	8.02
284.843	79.7
285.058	114.52
285.274	104.28
285.489	-16.55
285.704	-0.17
285.919	-10.41
286.134	42.84
286.349	-6.31
286.564	-12.46
286.779	169.81
286.995	59.22
287.21	-6.31
287.425	89.94
287.64	87.89
287.855	59.22
288.07	100.18
288.285	44.88
288.5	44.88
288.715	42.84
288.93	34.64
289.145	26.45
289.36	-20.65
289.575	59.22
289.79	48.98
290.004	61.27
290.219	75.6
290.434	26.45
290.649	87.89
290.864	118.61
291.079	55.12
291.294	55.12
291.509	34.64
291.724	20.31
291.938	55.12
292.153	75.6
292.368	10.07
292.583	46.93
292.798	3.93
293.012	94.04
293.227	44.88
293.442	59.22
293.657	124.76
293.871	38.74
294.086	71.51
294.301	102.23
294.516	65.36
294.73	89.94
294.945	69.46
295.16	112.47
295.374	114.52
295.589	85.84
295.804	81.75
296.018	16.21
296.233	112.47
296.447	94.04
296.662	51.03
296.877	128.85
297.091	75.6
297.306	10.07
297.52	91.99
297.735	40.79
297.949	40.79
298.164	96.08
298.378	75.6
298.593	-6.31
298.807	89.94
299.022	44.88
299.236	24.4
299.451	69.46
299.665	59.22
299.88	100.18
300.094	59.22
300.309	-20.65
300.523	81.75
300.737	40.79
300.952	51.03
301.166	67.41
301.381	155.47
301.595	110.42
301.809	22.36
302.024	89.94
302.238	38.74
302.452	59.22
302.667	32.6
302.881	104.28
303.095	75.6
303.309	83.8
303.524	57.17
303.738	-4.27
303.952	48.98
304.166	36.69
304.381	69.46
304.595	102.23
304.809	83.8
305.023	3.93
305.237	20.31
305.452	91.99
305.666	55.12
305.88	114.52
306.094	42.84
306.308	1.88
306.522	118.61
306.736	65.36
306.95	79.7
307.164	63.32
307.379	42.84
307.593	89.94
307.807	116.56
308.021	79.7
308.235	139.09
308.449	100.18
308.663	53.08
308.877	118.61
309.091	24.4
309.305	63.32
309.519	12.12
309.733	130.9
309.947	69.46
310.161	128.85
310.374	122.71
310.588	79.7
310.802	20.31
311.016	63.32
311.23	71.51
311.444	28.5
311.658	96.08
311.872	161.62
312.085	94.04
312.299	91.99
312.513	104.28
312.727	87.89
312.941	61.27
313.154	89.94
313.368	8.02
313.582	40.79
313.796	42.84
314.009	79.7
314.223	28.5
314.437	53.08
314.651	81.75
314.864	22.36
315.078	8.02
315.292	75.6
315.505	36.69
315.719	44.88
315.933	71.51
316.146	34.64
316.36	-18.6
316.573	98.13
316.787	18.26
317.001	83.8
317.214	20.31
317.428	71.51
317.641	18.26
317.855	106.32
318.068	132.95
318.282	75.6
318.495	96.08
318.709	130.9
318.922	42.84
319.136	108.37
319.349	20.31
319.563	40.79
319.776	51.03
319.99	-37.03
320.203	28.5
320.417	14.17
320.63	132.95
320.843	36.69
321.057	12.12
321.27	96.08
321.483	83.8
321.697	91.99
321.91	40.79
322.124	91.99
322.337	96.08
322.55	22.36
322.763	163.67
322.977	91.99
323.19	8.02
323.403	73.56
323.617	51.03
323.83	102.23
324.043	55.12
324.256	102.23
324.469	65.36
324.683	81.75
324.896	57.17
325.109	75.6
325.322	-20.65
325.535	83.8
325.748	40.79
325.962	36.69
326.175	91.99
326.388	91.99
326.601	124.76
326.814	69.46
327.027	53.08
327.24	89.94
327.453	73.56
327.666	44.88
327.879	42.84
328.092	46.93
328.305	59.22
328.518	-2.22
328.731	8.02
328.944	71.51
329.157	40.79
329.37	159.57
329.583	87.89
329.796	130.9
330.009	24.4
330.222	46.93
330.435	36.69
330.648	20.31
330.861	59.22
331.073	89.94
331.286	87.89
331.499	100.18
331.712	-6.31
331.925	63.32
332.138	55.12
332.35	61.27
332.563	36.69
332.776	44.88
332.989	34.64
333.202	114.52
333.414	71.51
333.627	16.21
333.84	57.17
334.053	28.5
334.265	83.8
334.478	85.84
334.691	112.47
334.903	87.89
335.116	44.88
335.329	83.8
335.541	100.18
335.754	91.99
335.966	87.89
336.179	73.56
336.392	132.95
336.604	77.65
336.817	69.46
337.029	65.36
337.242	96.08
337.454	71.51
337.667	79.7
337.88	159.57
338.092	16.21
338.305	79.7
338.517	-18.6
338.729	112.47
338.942	12.12
339.154	89.94
339.367	10.07
339.579	71.51
339.792	5.97
340.004	98.13
340.217	44.88
340.429	69.46
340.641	77.65
340.854	135
341.066	69.46
341.278	73.56
341.491	110.42
341.703	51.03
341.915	89.94
342.128	59.22
342.34	34.64
342.552	22.36
342.764	89.94
342.977	124.76
343.189	67.41
343.401	55.12
343.613	38.74
343.826	18.26
344.038	-43.18
344.25	110.42
344.462	85.84
344.674	89.94
344.886	98.13
345.099	81.75
345.311	53.08
345.523	12.12
345.735	73.56
345.947	77.65
346.159	81.75
346.371	10.07
346.583	102.23
346.795	155.47
347.007	36.69
347.219	106.32
347.431	1.88
347.643	12.12
347.855	73.56
348.067	20.31
348.279	53.08
348.491	100.18
348.703	46.93
348.915	48.98
349.127	91.99
349.339	91.99
349.551	81.75
349.763	51.03
349.975	116.56
350.187	102.23
350.399	132.95
350.61	65.36
350.822	12.12
351.034	24.4
351.246	-2.22
351.458	143.19
351.669	83.8
351.881	55.12
352.093	94.04
352.305	46.93
352.517	42.84
352.728	71.51
352.94	59.22
353.152	79.7
353.363	14.17
353.575	151.38
353.787	98.13
353.999	12.12
354.21	118.61
354.422	87.89
354.633	59.22
354.845	85.84
355.057	24.4
355.268	44.88
355.48	110.42
355.692	18.26
355.903	118.61
356.115	8.02
356.326	53.08
356.538	57.17
356.749	48.98
356.961	81.75
357.172	20.31
357.384	40.79
357.595	83.8
357.807	59.22
358.018	135
358.23	143.19
358.441	114.52
358.653	53.08
358.864	65.36
359.075	77.65
359.287	32.6
359.498	98.13
359.709	69.46
359.921	83.8
360.132	16.21
360.344	22.36
360.555	14.17
360.766	98.13
360.977	151.38
361.189	71.51
361.4	53.08
361.611	75.6
361.823	28.5
362.034	135
362.245	12.12
362.456	38.74
362.667	34.64
362.879	42.84
363.09	73.56
363.301	130.9
363.512	73.56
363.723	14.17
363.935	81.75
364.146	137.04
364.357	96.08
364.568	96.08
364.779	57.17
364.99	157.52
365.201	57.17
365.412	116.56
365.623	44.88
365.834	55.12
366.045	96.08
366.256	104.28
366.467	120.66
366.678	85.84
366.889	65.36
367.1	44.88
367.311	122.71
367.522	126.8
367.733	48.98
367.944	143.19
368.155	30.55
368.366	61.27
368.577	38.74
368.788	104.28
368.999	71.51
369.209	34.64
369.42	81.75
369.631	188.24
369.842	53.08
370.053	89.94
370.264	124.76
370.474	110.42
370.685	141.14
370.896	40.79
371.107	106.32
371.317	77.65
371.528	-8.36
371.739	182.1
371.95	132.95
372.16	69.46
372.371	24.4
372.582	98.13
372.792	42.84
373.003	98.13
373.214	81.75
373.424	102.23
373.635	100.18
373.846	118.61
374.056	75.6
374.267	208.72
374.477	98.13
374.688	94.04
374.898	85.84
375.109	122.71
375.319	112.47
375.53	71.51
375.74	147.28
375.951	26.45
376.161	75.6
376.372	108.37
376.582	71.51
376.793	83.8
377.003	69.46
377.214	110.42
377.424	-2.22
377.635	53.08
377.845	26.45
378.055	124.76
378.266	91.99
378.476	87.89
378.686	38.74
378.897	126.8
379.107	114.52
379.317	106.32
379.528	102.23
379.738	165.71
379.948	98.13
380.158	28.5
380.369	112.47
380.579	106.32
380.789	18.26
380.999	116.56
381.21	89.94
381.42	116.56
381.63	126.8
381.84	100.18
382.05	122.71
382.261	46.93
382.471	137.04
382.681	53.08
382.891	94.04
383.101	114.52
383.311	38.74
383.521	108.37
383.731	104.28
383.941	65.36
384.151	81.75
384.361	65.36
384.571	126.8
384.781	96.08
384.991	57.17
385.201	159.57
385.411	87.89
385.621	132.95
385.831	53.08
386.041	122.71
386.251	110.42
386.461	135
386.671	48.98
386.881	182.1
387.091	98.13
387.301	91.99
387.511	137.04
387.72	71.51
387.93	124.76
388.14	69.46
388.35	157.52
388.56	61.27
388.769	89.94
388.979	157.52
389.189	85.84
389.399	126.8
389.609	157.52
389.818	190.29
390.028	147.28
390.238	104.28
390.447	100.18
390.657	118.61
390.867	53.08
391.076	120.66
391.286	26.45
391.496	208.72
391.705	73.56
391.915	173.91
392.125	79.7
392.334	71.51
392.544	85.84
392.753	153.43
392.963	77.65
393.172	89.94
393.382	96.08
393.591	63.32
393.801	89.94
394.01	106.32
394.22	149.33
394.429	81.75
394.639	124.76
394.848	167.76
395.058	173.91
395.267	67.41
395.477	161.62
395.686	137.04
395.895	139.09
396.105	202.58
396.314	161.62
396.524	128.85
396.733	163.67
396.942	126.8
397.152	139.09
397.361	124.76
397.57	178
397.78	120.66
397.989	73.56
398.198	184.15
398.407	200.53
398.617	155.47
398.826	137.04
399.035	210.77
399.244	106.32
399.453	81.75
399.663	100.18
399.872	186.19
400.081	120.66
400.29	167.76
400.499	69.46
400.708	190.29
400.917	233.3
401.127	100.18
401.336	135
401.545	198.48
401.754	145.24
401.963	214.87
402.172	157.52
402.381	114.52
402.59	116.56
402.799	114.52
403.008	196.43
403.217	188.24
403.426	163.67
403.635	229.2
403.844	204.63
404.053	173.91
404.262	147.28
404.471	169.81
404.68	141.14
404.888	194.39
405.097	188.24
405.306	290.64
405.515	218.96
405.724	218.96
405.933	255.83
406.142	223.06
406.35	272.21
406.559	249.68
406.768	298.83
406.977	223.06
407.185	286.54
407.394	235.35
407.603	204.63
407.812	274.26
408.02	317.26
408.229	352.08
408.438	321.36
408.646	323.41
408.855	302.93
409.064	323.41
409.272	341.84
409.481	413.52
409.69	354.13
409.898	354.13
410.107	438.09
410.315	446.29
410.524	390.99
410.733	403.28
410.941	431.95
411.15	513.87
411.358	483.15
411.567	520.01
411.775	448.33
411.984	501.58
412.192	593.74
412.401	544.59
412.609	599.88
412.818	646.99
413.026	620.36
413.234	683.85
413.443	630.6
413.651	673.61
413.86	733
414.068	784.2
414.276	692.04
414.485	814.92
414.693	790.35
414.901	819.02
415.11	892.74
415.318	886.6
415.526	886.6
415.734	1019.72
415.943	1042.25
416.151	1050.44
416.359	1044.29
416.567	1079.11
416.776	1058.63
416.984	1148.74
417.192	1189.7
417.4	1308.48
417.608	1247.04
417.817	1249.09
418.025	1386.3
418.233	1476.41
418.441	1429.31
418.649	1517.37
418.857	1589.05
419.065	1646.4
419.273	1634.11
419.481	1752.89
419.689	1861.43
419.897	1832.76
420.105	1871.67
420.313	2051.89
420.521	2017.08
420.729	2131.76
420.937	2103.09
421.145	2234.16
421.353	2324.27
421.561	2445.1
421.769	2438.96
421.977	2572.08
422.185	2563.89
422.393	2737.96
422.601	2858.79
422.809	2823.98
423.017	2850.6
423.224	3039.01
423.432	3125.03
423.64	3325.73
423.848	3426.08
424.056	3272.48
424.263	3510.05
424.471	3698.46
424.679	3718.94
424.887	3946.27
425.094	3974.94
425.302	3913.5
425.51	4146.97
425.718	4251.41
425.925	4382.48
426.133	4517.65
426.341	4671.25
426.548	4892.43
426.756	4935.43
426.964	5009.16
427.171	5330.69
427.379	5453.57
427.586	5533.44
427.794	5621.5
428.001	6000.38
428.209	6303.48
428.417	6037.24
428.624	6727.41
428.832	6651.63
429.039	6545.14
429.247	6555.38
429.454	7194.34
429.662	7634.66
429.869	7177.96
430.076	7556.83
430.284	7474.92
430.491	7749.34
430.699	8185.56
430.906	7935.71
431.114	8232.66
431.321	8605.39
431.528	8765.14
431.736	9221.83
431.943	9856.7
432.15	9578.18
432.358	9633.47
432.565	10139.32
432.772	10243.77
432.979	10526.39
433.187	10974.89
433.394	10825.39
433.601	11486.89
433.808	11935.39
434.016	11536.04
434.223	12082.84
434.43	12883.6
434.637	12314.27
434.844	13371.02
435.052	13573.77
435.259	13518.47
435.466	13688.45
435.673	13248.14
435.88	14263.93
436.087	15083.12
436.294	15056.5
436.501	14689.91
436.708	15197.81
436.915	15627.88
437.122	16238.17
437.329	16256.61
437.537	16711.25
437.743	16981.59
437.95	16772.69
438.157	17739.33
438.364	18458.17
438.571	18298.43
438.778	18304.57
438.985	20217.38
439.192	19533.36
439.399	20205.09
439.606	19476.01
439.813	20553.24
440.02	22097.41
440.227	21655.05
440.433	21270.03
440.64	21841.42
440.847	21775.88
441.054	22615.55
441.261	23705.07
441.467	23291.38
441.674	24198.63
441.881	25089.49
442.088	24964.57
442.294	24681.95
442.501	25286.1
442.708	26164.68
442.914	27082.17
443.121	28081.58
443.328	27452.85
443.534	29240.73
443.741	28218.79
443.948	27811.24
444.154	30035.34
444.361	29773.2
444.568	30291.34
444.774	29855.12
444.981	30309.77
445.187	31364.47
445.394	32449.89
445.6	32464.23
445.807	35286.33
446.013	33766.74
446.22	34649.41
446.426	35611.96
446.633	35933.49
446.839	37106.98
447.046	35771.7
447.252	37913.87
447.459	37989.65
447.665	37666.07
447.871	39429.37
448.078	41514.2
448.284	39286.01
448.491	39709.94
448.697	41714.9
448.903	42585.29
449.11	42394.83
449.316	41585.88
449.522	42519.76
449.728	43586.75
449.935	43955.38
450.141	44068.02
450.347	44915.88
450.553	43427.01
450.76	44364.98
450.966	45784.22
451.172	44733.61
451.378	46027.93
451.584	45204.64
451.791	46453.9
451.997	46120.09
452.203	47125.64
452.409	47023.24
452.615	46781.58
452.821	45175.97
453.027	44926.12
453.233	46937.23
453.44	45282.47
453.646	46159
453.852	45612.19
454.058	46654.61
454.264	45835.42
454.47	46275.73
454.676	45194.4
454.882	46464.14
455.088	42847.43
455.294	43404.48
455.5	43955.38
455.705	44526.77
455.911	42855.62
456.117	41794.78
456.323	40924.39
456.529	38972.67
456.735	40879.33
456.941	40111.35
457.147	39224.57
457.352	38075.66
457.558	37971.22
457.764	37383.45
457.97	37131.55
458.176	35894.58
458.381	36181.29
458.587	34692.42
458.793	34436.42
458.999	32822.62
459.204	35128.64
459.41	33815.89
459.616	31679.86
459.821	32028.01
460.027	31757.68
460.233	30879.1
460.438	29744.53
460.644	29572.5
460.85	28450.21
461.055	28171.69
461.261	27913.64
461.466	26062.28
461.672	24956.38
461.878	26729.92
462.083	24933.85
462.289	24538.59
462.494	24571.36
462.7	23526.89
462.905	22562.3
463.111	23737.84
463.316	23713.26
463.522	23154.16
463.727	23062.01
463.932	22959.61
464.138	22683.13
464.343	22932.98
464.549	22377.98
464.754	22953.46
464.959	22621.69
465.165	22556.16
465.37	21812.74
465.575	21466.64
465.781	21970.44
465.986	22035.97
466.191	21245.46
466.397	20559.39
466.602	19758.63
466.807	20549.15
467.012	20721.18
467.218	20391.45
467.423	20520.48
467.628	20076.07
467.833	21372.43
468.038	20559.39
468.244	20033.06
468.449	20696.6
468.654	19934.76
468.859	19672.62
469.064	19674.67
469.269	18806.33
469.474	19164.72
469.679	19543.6
469.885	18595.39
470.09	19207.73
470.295	19240.5
470.5	18642.49
470.705	18691.64
470.91	18251.33
471.115	18269.76
471.32	18361.92
471.525	18243.13
471.73	17790.53
471.935	17901.12
472.139	17380.94
472.344	17620.55
472.549	17245.77
472.754	17223.25
472.959	16903.76
473.164	16422.49
473.369	16313.95
473.574	16827.99
473.778	16600.66
473.983	16557.66
474.188	16326.24
474.393	15687.27
474.598	15734.37
474.802	15603.3
475.007	15388.27
475.212	15402.6
475.417	15138.41
475.621	14968.43
475.826	14927.47
476.031	14716.53
476.235	14345.85
476.44	14706.29
476.645	14034.56
476.849	14374.52
477.054	14098.05
477.259	14163.58
477.463	14030.46
477.668	13829.76
477.872	13545.09
478.077	13594.25
478.282	13321.87
478.486	13190.8
478.691	12895.89
478.895	13004.43
479.1	12951.18
479.304	13020.81
479.509	12603.03
479.713	12824.21
479.918	12433.05
480.122	12340.89
480.326	12363.42
480.531	12521.11
480.735	12105.37
480.94	12291.74
481.144	12623.51
481.348	12113.56
481.553	12287.64
481.757	11837.09
481.961	12246.68
482.166	12105.37
482.37	12123.8
482.574	11945.63
482.778	11855.52
482.983	12175
483.187	12019.36
483.391	12064.41
483.595	12017.31
483.8	11941.54
484.004	11777.7
484.208	12039.84
484.412	11830.94
484.616	11873.95
484.821	11853.47
485.025	11753.12
485.229	12048.03
485.433	11894.43
485.637	12140.19
485.841	11771.55
486.045	11732.64
486.249	11880.1
486.453	11742.88
486.657	12060.32
486.861	12107.42
487.065	11761.31
487.269	11871.9
487.473	11828.9
487.677	11916.96
487.881	12175
488.085	11966.11
488.289	12152.48
488.493	12056.22
488.697	11990.69
488.901	12091.04
489.105	11947.68
489.309	12027.55
489.512	11996.83
489.716	12328.6
489.92	11867.81
490.124	12031.65
490.328	12381.85
490.531	12013.21
490.735	12248.73
490.939	12058.27
491.143	12041.89
491.346	12072.61
491.55	12328.6
491.754	12488.34
491.958	12705.43
492.161	12277.4
492.365	12687
492.569	12723.86
492.772	12431
492.976	12760.72
493.18	12562.07
493.383	13008.53
493.587	12846.74
493.79	13205.13
493.994	12801.68
494.197	12879.5
494.401	13198.99
494.605	13201.04
494.808	13698.69
495.012	13551.24
495.215	13477.51
495.419	13684.36
495.622	13581.96
495.825	13860.48
496.029	13903.49
496.232	14184.06
496.436	14126.72
496.639	14552.7
496.843	14476.92
497.046	14710.39
497.249	14968.43
497.453	14636.66
497.656	14812.79
497.859	14820.98
498.063	15074.93
498.266	15238.76
498.469	15255.15
498.673	15779.43
498.876	15949.41
499.079	15847.01
499.282	15873.64
499.485	16203.36
499.689	16277.08
499.892	16287.32
500.095	16543.32
500.298	17223.25
500.501	16744.02
500.705	17346.12
500.908	17509.96
501.111	18017.86
501.314	17946.18
501.517	17933.89
501.72	18339.39
501.923	18179.65
502.126	18699.83
502.329	18724.41
502.532	18951.73
502.735	19041.84
502.938	19500.59
503.141	19390
503.344	19793.45
503.547	19963.43
503.75	20160.03
503.953	20319.78
504.156	20936.21
504.359	20991.51
504.562	20932.12
504.765	21607.95
504.968	21509.65
505.17	21753.35
505.373	21833.22
505.576	22382.08
505.779	22330.88
505.982	22568.44
506.185	22937.08
506.387	23158.26
506.59	23420.4
506.793	23834.09
506.996	23803.37
507.198	24337.89
507.401	23825.9
507.604	24610.27
507.807	24915.42
508.009	25310.68
508.212	24983
508.415	25451.98
508.617	25882.06
508.82	26125.77
509.022	26031.56
509.225	26719.68
509.428	26764.73
509.63	26758.59
509.833	27174.33
510.035	27770.29
510.238	27964.84
510.44	27866.54
510.643	28728.73
510.845	28480.93
511.048	28634.53
511.25	29169.05
511.453	29453.72
511.655	30168.46
511.858	29865.36
512.06	30072.2
512.262	30508.42
512.465	30479.75
512.667	31212.92
512.87	31556.98
513.072	31272.31
513.274	32458.09
513.477	32408.93
513.679	32486.76
513.881	32748.9
514.084	33373.53
514.286	33508.69
514.488	33391.96
514.69	34551.11
514.893	34323.79
515.095	34743.62
515.297	34653.51
515.499	35235.13
515.701	35497.27
515.904	35816.75
516.106	36218.16
516.308	36447.53
516.51	36910.37
516.712	36566.31
516.914	37326.11
517.116	37954.83
517.318	38102.29
517.52	37903.63
517.722	38415.63
517.925	38683.91
518.127	39574.78
518.329	39494.91
518.531	39425.28
518.733	40137.97
518.935	40469.74
519.136	40365.29
519.338	41172.19
519.54	41340.13
519.742	41626.84
519.944	41764.06
520.146	42374.35
520.348	42714.31
520.55	42718.41
520.752	42964.17
520.954	43883.7
521.155	43422.91
521.357	44373.17
521.559	44700.84
521.761	44827.82
521.963	44782.76
522.164	45044.9
522.366	44690.6
522.568	45741.21
522.77	45702.3
522.971	46445.71
523.173	46468.24
523.375	47105.16
523.576	46505.1
523.778	46914.7
523.98	48112.76
524.181	47236.23
524.383	47783.04
524.584	48399.47
524.786	48360.56
524.988	48448.63
525.189	48424.05
525.391	49476.71
525.592	49241.19
525.794	49472.61
525.995	49665.12
526.197	49685.6
526.398	49437.79
526.6	50021.47
526.801	50048.09
527.003	50707.54
527.204	50523.22
527.406	51041.35
527.607	50979.92
527.808	51006.54
528.01	50302.04
528.211	51387.46
528.412	51905.6
528.614	51831.87
528.815	51315.78
529.016	52468.79
529.218	51194.95
529.419	51973.18
529.62	52220.98
529.822	51958.84
530.023	52128.83
530.224	52231.22
530.425	52216.89
530.626	52216.89
530.828	52018.24
531.029	53113.9
531.23	52268.09
531.431	52460.6
531.632	53019.69
531.833	52976.68
532.035	52659.25
532.236	52958.25
532.437	53279.78
532.638	52761.65
532.839	53351.46
533.04	53214.25
533.241	52929.58
533.442	53652.51
533.643	53570.6
533.844	53023.79
534.045	53675.04
534.246	52788.27
534.447	53222.44
534.648	52915.25
534.849	53316.65
535.05	53429.29
535.251	53724.19
535.451	53257.26
535.652	53472.29
535.853	53308.46
536.054	53388.33
536.255	53193.77
536.456	53228.59
536.657	53756.96
536.857	53265.45
537.058	52929.58
537.259	53777.44
537.46	53560.36
537.66	53417
537.861	53355.56
538.062	53478.44
538.263	53548.07
538.463	53398.57
538.664	53548.07
538.865	53478.44
539.065	53515.3
539.266	53140.52
539.466	53519.4
539.667	52784.18
539.868	53828.64
540.068	53371.94
540.269	53101.61
540.469	53423.14
540.67	53279.78
540.87	53535.78
541.071	53015.6
541.271	53535.78
541.472	53042.22
541.672	52976.68
541.873	52769.84
542.073	52397.11
542.274	53543.97
542.474	52954.16
542.675	52737.07
542.875	53638.18
543.075	53193.77
543.276	52505.65
543.476	53158.95
543.676	52984.88
543.877	53464.1
544.077	52993.07
544.277	53113.9
544.478	53044.27
544.678	53249.06
544.878	53201.96
545.078	53220.39
545.279	52843.57
545.479	53044.27
545.679	52952.11
545.879	52878.38
546.079	52376.63
546.28	52790.32
546.48	52253.75
546.68	52505.65
546.88	52941.87
547.08	52444.21
547.28	52804.66
547.48	52524.08
547.68	52411.45
547.88	52495.41
548.081	52732.98
548.281	52792.37
548.481	52026.43
548.681	52952.11
548.881	52352.05
549.081	52685.87
549.28	52411.45
549.48	52483.12
549.68	52470.84
549.88	53312.55
550.08	52196.41
550.28	52685.87
550.48	52094.01
550.68	52829.23
550.88	52014.14
551.08	52128.83
551.279	52147.26
551.479	52106.3
551.679	52802.61
551.879	52263.99
552.079	52563
552.278	52053.05
552.478	52575.28
552.678	52606
552.878	52360.25
553.077	52122.68
553.277	51973.18
553.477	52536.37
553.676	52188.22
553.876	51899.45
554.076	51678.27
554.275	52175.93
554.475	51369.03
554.674	52075.58
554.874	51883.07
555.074	51655.75
555.273	52032.57
555.473	52184.12
555.672	51733.57
555.872	51852.35
556.071	51680.32
556.271	52284.47
556.47	51754.05
556.67	51203.14
556.869	51645.51
557.068	51594.31
557.268	51027.02
557.467	51311.69
557.667	51108.94
557.866	51450.95
558.065	51299.4
558.265	50846.8
558.464	50639.95
558.663	50984.01
558.863	50607.19
559.062	51639.36
559.261	50881.61
559.461	51090.51
559.66	50635.86
559.859	50877.52
560.058	50230.36
560.258	50558.03
560.457	50187.35
560.656	50842.7
560.855	50156.63
561.054	50533.46
561.253	50273.37
561.453	50381.91
561.652	50547.79
561.851	50615.38
562.05	50256.98
562.249	50050.14
562.448	50668.62
562.647	50080.86
562.846	50216.02
563.045	49972.31
563.244	49669.22
563.443	49990.75
563.642	49169.51
563.841	49521.76
564.04	49263.72
564.239	49810.53
564.438	48950.38
564.637	49550.43
564.836	49540.19
565.035	48835.69
565.234	49327.2
565.432	48897.13
565.631	48538.74
565.83	48682.09
566.029	49058.92
566.228	48804.97
566.427	48444.53
566.625	48311.41
566.824	47633.53
567.023	48643.18
567.222	47789.18
567.42	48456.82
567.619	48133.24
567.818	48133.24
568.016	47457.41
568.215	48012.41
568.414	47846.52
568.612	48319.6
568.811	47352.96
569.01	47768.7
569.208	47084.68
569.407	47654.01
569.605	46879.88
569.804	47629.44
570.002	46716.04
570.201	46720.14
570.4	46568.59
570.598	46216.34
570.797	46656.65
570.995	46496.91
571.193	45927.58
571.392	46646.41
571.59	46150.81
571.789	45956.25
571.987	45753.5
572.186	45833.37
572.384	45825.18
572.582	46042.26
572.781	45700.25
572.979	45044.9
573.177	45288.61
573.376	45100.2
573.574	45008.04
573.772	44866.73
573.971	45034.66
574.169	45102.25
574.367	44524.72
574.565	44651.69
574.763	44526.77
574.962	44491.95
575.16	44125.36
575.358	44684.46
575.556	43906.23
575.754	44129.46
575.952	43832.5
576.151	44633.26
576.349	43525.31
576.547	43556.03
576.745	43408.57
576.943	43715.77
577.141	43029.7
577.339	43521.21
577.537	42915.01
577.735	42978.5
577.933	42593.48
578.131	42747.08
578.329	42792.14
578.527	41931.99
578.725	42276.05
578.923	42550.48
579.121	42228.94
579.319	42263.76
579.516	42187.99
579.714	42327.25
579.912	42343.63
580.11	41514.2
580.308	41628.89
580.506	41854.17
580.704	41211.1
580.901	41516.25
581.099	41280.74
581.297	40905.96
581.495	40711.4
581.692	41092.32
581.89	40944.87
582.088	41018.6
582.285	40731.88
582.483	41000.16
582.681	40459.5
582.878	40490.22
583.076	40342.77
583.274	40604.91
583.471	39998.71
583.669	40058.1
583.866	39855.35
584.064	39906.55
584.262	39251.2
584.459	39902.45
584.657	39476.47
584.854	39798.01
585.052	39466.24
585.249	39081.22
585.447	38976.77
585.644	38872.32
585.841	39091.46
586.039	38755.59
586.236	38704.39
586.434	38737.16
586.631	38395.15
586.828	38515.98
587.026	38255.89
587.223	38135.06
587.42	38286.61
587.618	38100.24
587.815	37614.87
588.012	37315.87
588.21	37227.81
588.407	37963.03
588.604	37389.59
588.801	37487.9
588.999	37365.02
589.196	36984.1
589.393	36893.99
589.59	36969.76
589.787	36777.25
589.984	36701.48
590.182	36191.53
590.379	36793.64
590.576	35898.67
590.773	36672.81
590.97	36029.74
591.167	36412.71
591.364	35749.17
591.561	35929.39
591.758	35712.31
591.955	35910.96
592.152	35837.23
592.349	35312.95
592.546	35530.04
592.743	35611.96
592.94	34702.66
593.137	35308.86
593.334	35513.66
593.531	34639.17
593.727	34962.75
593.924	34882.88
594.121	34454.86
594.318	34727.24
594.515	33946.96
594.712	34846.02
594.908	34030.93
595.105	34276.68
595.302	33707.35
595.499	34026.83
595.696	33727.83
595.892	33551.7
596.089	33819.99
596.286	33482.07
596.482	33473.88
596.679	32875.87
596.876	33670.48
597.072	33307.99
597.269	32961.89
597.466	32824.67
597.662	32865.63
597.859	33101.15
598.055	32669.03
598.252	32470.37
598.448	32462.18
598.645	32646.5
598.841	31882.61
599.038	32247.15
599.234	32241
599.431	32236.91
599.627	31950.19
599.824	31872.37
600.02	31747.44
600.217	31518.07
600.413	31491.44
600.609	31526.26
600.806	31229.3
601.002	31356.28
601.198	30786.94
601.395	31073.66
601.591	31126.91
601.787	30877.05
601.984	30860.67
602.18	30750.08
602.376	30780.8
602.572	30455.17
602.769	30078.35
602.965	30201.22
603.161	30543.24
603.357	29885.84
603.553	29789.58
603.75	30055.82
603.946	29916.56
604.142	29748.62
604.338	29363.61
604.534	29531.54
604.73	29461.91
604.926	29371.8
605.122	29558.16
605.318	29236.63
605.514	29373.85
605.71	28827.04
605.906	29177.24
606.102	29025.69
606.298	28949.92
606.494	29037.98
606.69	28499.36
606.886	28962.2
607.082	28210.6
607.278	28716.45
607.474	28005.8
607.67	28550.56
607.866	28077.48
608.062	28730.78
608.257	28171.69
608.453	28026.28
608.649	28181.93
608.845	27901.36
609.041	28009.9
609.236	27913.64
609.432	27745.71
609.628	27794.86
609.824	27749.81
610.019	27977.13
610.215	27231.67
610.411	27569.58
610.606	27377.08
610.802	27747.76
610.998	27497.91
611.193	27241.91
611.389	27155.89
611.584	27106.74
611.78	27065.78
611.976	27016.63
612.171	27231.67
612.367	26998.2
612.562	27067.83
612.758	26588.61
612.953	26498.5
613.149	26901.95
613.344	26469.83
613.539	26977.72
613.735	26490.31
613.93	26824.12
614.126	26625.47
614.321	26758.59
614.517	26547.65
614.712	26269.12
614.907	25955.79
615.103	26580.42
615.298	26191.3
615.493	26254.79
615.688	25847.24
615.884	26291.65
616.079	25572.82
616.274	25832.91
616.47	25667.02
616.665	25888.2
616.86	25787.85
617.055	25798.09
617.25	25624.01
617.445	25834.96
617.641	25169.37
617.836	25593.29
618.031	25060.82
618.226	25316.82
618.421	25261.52
618.616	25257.43
618.811	24774.11
619.006	25202.13
619.201	24688.09
619.396	24985.05
619.591	24329.7
619.786	25001.43
619.981	24184.29
620.176	24612.32
620.371	24344.03
620.566	24151.52
620.761	24114.66
620.956	24346.08
621.151	23756.27
621.346	24024.55
621.541	23592.43
621.735	23576.05
621.93	23100.92
622.125	23772.65
622.32	23266.8
622.515	23131.64
622.709	23008.76
622.904	23119.35
623.099	22756.86
623.294	22816.25
623.488	22681.08
623.683	22648.32
623.878	22191.62
624.072	22564.35
624.267	22023.69
624.462	21892.62
624.656	21798.41
624.851	21917.19
625.046	21591.56
625.24	21822.98
625.435	21399.05
625.629	21667.34
625.824	21165.59
626.018	21124.63
626.213	20784.66
626.407	21157.39
626.602	20733.46
626.796	20817.43
626.991	20667.93
627.185	20354.59
627.38	20465.18
627.574	20500
627.768	20143.65
627.963	20016.68
628.157	19877.41
628.352	20080.16
628.546	19521.07
628.74	19664.43
628.935	19455.53
629.129	19426.86
629.323	19238.45
629.517	19299.89
629.712	19189.3
629.906	19088.95
630.1	18757.18
630.294	18945.59
630.489	18826.81
630.683	18679.35
630.877	18470.46
631.071	18306.62
631.265	18239.04
631.459	18204.22
631.653	17993.28
631.848	18095.68
632.042	18044.48
632.236	18214.46
632.43	17708.62
632.624	17983.04
632.818	17610.31
633.012	17337.93
633.206	17329.74
633.4	17452.62
633.594	17286.73
633.788	17151.57
633.982	17192.53
634.176	17034.83
634.369	16868.95
634.563	16948.82
634.757	16504.41
634.951	16758.36
635.145	16586.33
635.339	16737.88
635.533	16125.54
635.726	16363.1
635.92	16248.41
636.114	16262.75
636.308	15943.27
636.501	16037.47
636.695	15799.91
636.889	16027.23
637.083	15842.92
637.276	15564.39
637.47	15744.61
637.664	15287.92
637.857	15402.6
638.051	15320.68
638.244	15169.13
638.438	15214.19
638.632	15425.13
638.825	14904.95
639.019	14919.28
639.212	14978.67
639.406	14653.05
639.599	14724.72
639.793	14626.42
639.986	14607.99
640.18	14603.89
640.373	14530.17
640.567	14169.73
640.76	14390.91
640.954	14192.25
641.147	14304.89
641.34	13987.46
641.534	13938.3
641.727	13911.68
641.92	13702.79
642.114	13645.45
642.307	13702.79
642.5	13475.46
642.694	13434.5
642.887	13422.22
643.08	13543.05
643.273	13383.31
643.467	13194.89
643.66	13362.83
643.853	13227.66
644.046	13065.87
644.239	13287.05
644.432	13149.84
644.626	12953.23
644.819	12703.38
645.012	12813.97
645.205	12545.69
645.398	12551.83
645.591	12498.58
645.784	12519.06
645.977	12299.93
646.17	12375.7
646.363	12236.44
646.556	12033.69
646.749	12179.1
646.942	12070.56
647.135	12140.19
647.328	12048.03
647.521	11562.66
647.714	11693.73
647.907	11771.55
648.099	11644.58
648.292	11843.23
648.485	11476.65
648.678	11392.68
648.871	11409.06
649.064	11323.05
649.256	11415.21
649.449	11386.54
649.642	11318.95
649.835	11015.85
650.027	11034.28
650.22	11011.76
650.413	10903.21
650.605	10860.21
650.798	10798.77
650.991	10698.42
651.183	10766
651.376	10809.01
651.568	10688.18
651.761	10559.16
651.954	10610.36
652.146	10389.17
652.339	10391.22
652.531	10174.14
652.724	10223.29
652.916	10198.71
653.109	10131.13
653.301	10325.69
653.494	10149.56
653.686	10022.59
653.879	10172.09
654.071	9930.43
654.263	9959.1
654.456	9868.99
654.648	9832.13
654.84	9897.66
655.033	9817.79
655.225	9594.56
655.417	9772.74
655.61	9492.16
655.802	9817.79
655.994	9481.92
656.186	9389.77
656.379	9588.42
656.571	9475.78
656.763	9150.15
656.955	9238.22
657.148	9428.68
657.34	8988.36
657.532	9115.34
657.724	9098.95
657.916	9045.71
658.108	8935.12
658.3	8853.2
658.492	8799.95
658.684	8898.25
658.876	8634.07
659.068	8609.49
659.26	8634.07
659.452	8586.96
659.644	8486.61
659.836	8447.7
660.028	8609.49
660.22	8287.96
660.412	8447.7
660.604	8038.11
660.796	8222.42
660.988	8169.18
661.18	8169.18
661.372	8179.42
661.563	8136.41
661.755	8066.78
661.947	8156.89
662.139	8005.34
662.331	8038.11
662.522	7917.28
662.714	7855.84
662.906	7687.9
663.097	7835.36
663.289	7759.58
663.481	7765.73
663.673	7612.13
663.864	7597.79
664.056	7536.35
664.247	7505.63
664.439	7294.69
664.631	7481.06
664.822	7581.41
665.014	7483.11
665.205	7360.23
665.397	7446.24
665.588	7278.31
665.78	7378.66
665.971	7093.99
666.163	7151.34
666.354	7225.06
666.546	7055.08
666.737	7120.62
666.929	7059.18
667.12	7079.66
667.311	6969.07
667.503	6872.81
667.694	6944.49
667.885	6987.5
668.077	6958.83
668.268	6909.68
668.459	6813.42
668.651	6768.37
668.842	6563.57
669.033	6514.42
669.224	6633.2
669.416	6688.5
669.607	6604.53
669.798	6610.67
669.989	6530.8
670.18	6547.19
670.371	6721.26
670.563	6452.98
670.754	6498.03
670.945	6381.3
671.136	6493.94
671.327	6344.44
671.518	6360.82
671.709	6207.22
671.9	6364.92
672.091	6276.85
672.282	6242.04
672.473	6239.99
672.664	6119.16
672.855	5981.95
673.046	6123.26
673.237	6334.2
673.428	6196.98
673.619	6002.43
673.809	6024.95
674	5949.18
674.191	5994.23
674.382	5891.84
674.573	5904.12
674.764	6106.87
674.954	5949.18
675.145	5660.41
675.336	5848.83
675.527	5801.72
675.717	5934.84
675.908	5639.94
676.099	5564.16
676.289	5717.76
676.48	5578.5
676.671	5756.67
676.861	5611.26
677.052	5613.31
677.243	5345.03
677.433	5543.68
677.624	5615.36
677.814	5625.6
678.005	5611.26
678.195	5377.8
678.386	5598.98
678.576	5392.13
678.767	5521.15
678.957	5560.06
679.148	5492.48
679.338	5521.15
679.529	5529.34
679.719	5302.02
679.909	5312.26
680.1	5306.12
680.29	5211.91
680.481	5431.04
680.671	5355.27
680.861	5166.85
681.052	5342.98
681.242	5367.56
681.432	5234.44
681.622	5252.87
681.813	5170.95
682.003	5195.53
682.193	5181.19
682.383	5285.64
682.573	5164.81
682.764	4943.63
682.954	5173
683.144	5173
683.334	5162.76
683.524	5084.94
683.714	5136.13
683.904	5043.98
684.094	5043.98
684.284	5033.74
684.474	5101.32
684.664	5115.66
684.854	5019.4
685.044	4857.61
685.234	4953.87
685.424	4933.39
685.614	4896.52
685.804	4931.34
685.994	4744.97
686.184	4884.23
686.374	4761.36
686.564	4593.42
686.753	4835.08
686.943	4779.79
687.133	4859.66
687.323	4611.85
687.513	4681.49
687.702	4581.14
687.892	4622.09
688.082	4742.92
688.272	4718.35
688.461	4708.11
688.651	4677.39
688.841	4634.38
689.03	4466.45
689.22	4546.32
689.41	4417.3
689.599	4445.97
689.789	4431.63
689.979	4507.41
690.168	4536.08
690.358	4380.43
690.547	4452.11
690.737	4417.3
690.926	4386.58
691.116	4290.32
691.305	4241.17
691.495	4439.83
691.684	4343.57
691.874	4235.03
692.063	4208.41
692.252	4216.6
692.442	4306.71
692.631	4161.3
692.82	4118.29
693.01	4081.43
693.199	4089.62
693.388	4052.76
693.578	3938.07
693.767	3997.46
693.956	4024.09
694.146	3966.74
694.335	3993.37
694.524	4089.62
694.713	4038.42
694.902	4083.48
695.092	3991.32
695.281	4011.8
695.47	4075.29
695.659	3925.79
695.848	3933.98
696.037	3897.11
696.226	3815.2
696.415	3776.28
696.604	3915.55
696.793	3823.39
696.982	3882.78
697.171	3794.72
697.36	3968.79
697.549	3807
697.738	3692.32
697.927	3782.43
698.116	3807
698.305	3690.27
698.494	3772.19
698.683	3706.65
698.872	3753.76
699.061	3784.48
699.25	3829.53
699.438	3768.09
699.627	3710.75
699.816	3766.04
700.005	3618.59
700.193	3694.36
700.382	3639.07
700.571	3647.26
700.76	3645.21
700.948	3731.23
701.137	3534.62
701.326	3655.45
701.514	3532.58
701.703	3624.73
701.892	3604.25
702.08	3612.45
702.269	3630.88
702.457	3491.62
702.646	3495.71
702.834	3512.1
703.023	3594.01
703.212	3428.13
703.4	3428.13
703.589	3436.32
703.777	3450.66
703.965	3469.09
704.154	3477.28
704.342	3282.72
704.531	3497.76
704.719	3342.11
704.907	3471.14
705.096	3378.98
705.284	3512.1
705.472	3454.75
705.661	3413.79
705.849	3481.38
706.037	3444.51
706.226	3354.4
706.414	3307.3
706.602	3338.02
706.79	3397.41
706.979	3319.59
707.167	3460.9
707.355	3321.63
707.543	3378.98
707.731	3344.16
707.919	3231.52
708.107	3303.2
708.296	3413.79
708.484	3272.48
708.672	3284.77
708.86	3319.59
709.048	3299.11
709.236	3196.71
709.424	3282.72
709.612	3276.58
709.8	3319.59
709.988	3133.22
710.176	3239.72
710.364	3178.28
710.551	3131.17
710.739	3231.52
710.927	3163.94
711.115	3190.56
711.303	3278.63
711.491	3030.82
711.679	3055.4
711.866	3116.84
712.054	3215.14
712.242	3188.52
712.43	3196.71
712.617	3055.4
712.805	2996.01
712.993	3071.78
713.181	3092.26
713.368	3084.07
713.556	3030.82
713.744	3014.44
713.931	3184.42
714.119	2953
714.306	3028.78
714.494	3018.54
714.682	3004.2
714.869	3073.83
715.057	3063.59
715.244	3075.88
715.432	3030.82
715.619	2934.57
715.807	3088.17
715.994	2844.46
716.182	3018.54
716.369	3032.87
716.556	2983.72
716.744	2926.38
716.931	2885.42
717.119	2834.22
717.306	2983.72
717.493	2944.81
717.681	2858.79
717.868	2737.96
718.055	2940.71
718.242	2869.03
718.43	2789.16
718.617	2955.05
718.804	2748.2
718.991	2928.42
719.179	2934.57
719.366	2694.96
719.553	2885.42
719.74	2871.08
719.927	2707.24
720.114	2721.58
720.301	2811.69
720.488	2748.2
720.676	2791.21
720.863	2651.95
721.05	2780.97
721.237	2744.11
721.424	2780.97
721.611	2621.23
721.798	2682.67
721.985	2713.39
722.172	2699.05
722.358	2850.6
722.545	2791.21
722.732	2713.39
722.919	2688.81
723.106	2578.22
723.293	2715.44
723.48	2674.48
723.667	2592.56
723.853	2467.63
724.04	2676.52
724.227	2662.19
724.414	2580.27
724.6	2658.09
724.787	2490.16
724.974	2588.46
725.161	2582.32
725.347	2596.65
725.534	2785.07
725.72	2647.85
725.907	2559.79
726.094	2629.42
726.28	2580.27
726.467	2531.12
726.653	2524.97
726.84	2619.18
727.027	2621.23
727.213	2461.49
727.4	2604.85
727.586	2510.64
727.773	2561.84
727.959	2524.97
728.145	2514.73
728.332	2455.34
728.518	2527.02
728.705	2531.12
728.891	2613.04
729.077	2574.13
729.264	2467.63
729.45	2486.06
729.636	2502.45
729.823	2615.09
730.009	2543.41
730.195	2455.34
730.382	2389.81
730.568	2400.05
730.754	2441.01
730.94	2520.88
731.126	2535.21
731.313	2500.4
731.499	2434.86
731.685	2361.14
731.871	2326.32
732.057	2346.8
732.243	2416.43
732.429	2522.93
732.615	2428.72
732.801	2410.29
732.987	2395.95
733.173	2395.95
733.359	2365.23
733.545	2322.23
733.731	2451.25
733.917	2371.38
734.103	2369.33
734.289	2330.42
734.475	2334.51
734.661	2279.22
734.847	2422.58
735.033	2320.18
735.219	2395.95
735.404	2326.32
735.59	2371.38
735.776	2330.42
735.962	2316.08
736.148	2338.61
736.333	2193.2
736.519	2228.02
736.705	2279.22
736.89	2172.72
737.076	2293.55
737.262	2150.2
737.447	2250.55
737.633	2258.74
737.819	2311.99
738.004	2164.53
738.19	2217.78
738.375	2217.78
738.561	2176.82
738.747	2160.44
738.932	2205.49
739.118	2248.5
739.303	2133.81
739.489	2211.64
739.674	2137.91
739.859	2209.59
740.045	2168.63
740.23	2074.42
740.416	2006.84
740.601	2123.57
740.786	2133.81
740.972	2154.29
741.157	2103.09
741.342	1986.36
741.528	2053.94
741.713	2094.9
741.898	2035.51
742.084	1976.12
742.269	1953.59
742.454	2090.81
742.639	2021.17
742.824	1957.69
743.01	2047.8
743.195	1996.6
743.38	1957.69
743.565	1941.3
743.75	2058.04
743.935	2066.23
744.12	2064.18
744.305	1853.24
744.49	1754.94
744.675	1908.54
744.86	1924.92
745.045	2066.23
745.23	1965.88
745.415	1845.05
745.6	1994.55
745.785	1898.3
745.97	1828.67
746.155	1890.1
746.34	1802.04
746.525	1838.91
746.71	1826.62
746.895	1691.45
747.079	1750.84
747.264	1834.81
747.449	1765.18
747.634	1754.94
747.819	1818.43
748.003	1707.84
748.188	1773.37
748.373	1752.89
748.557	1765.18
748.742	1691.45
748.927	1730.36
749.111	1609.53
749.296	1597.24
749.481	1742.65
749.665	1623.87
749.85	1605.44
750.034	1746.75
750.219	1566.53
750.404	1675.07
750.588	1625.92
750.773	1511.23
750.957	1630.01
751.141	1580.86
751.326	1544
751.51	1580.86
751.695	1634.11
751.879	1572.67
752.064	1529.66
752.248	1451.84
752.432	1609.53
752.617	1523.52
752.801	1451.84
752.985	1457.98
753.17	1488.7
753.354	1410.88
753.538	1492.8
753.722	1367.87
753.907	1404.74
754.091	1353.54
754.275	1441.6
754.459	1398.59
754.643	1378.11
754.828	1417.02
755.012	1371.97
755.196	1285.95
755.38	1324.87
755.564	1414.98
755.748	1240.9
755.932	1208.13
756.116	1234.75
756.3	1261.38
756.484	1249.09
756.668	1285.95
756.852	1169.22
757.036	1275.71
757.22	1288
757.404	1226.56
757.588	1265.47
757.772	1191.75
757.956	1257.28
758.14	1142.6
758.323	1173.32
758.507	1146.69
758.691	1097.54
758.875	1175.36
759.059	1220.42
759.242	1142.6
759.426	1130.31
759.61	1171.27
759.794	1189.7
759.977	1089.35
760.161	1273.67
760.345	1161.03
760.528	1140.55
760.712	1003.33
760.895	1021.77
761.079	1091.4
761.263	1107.78
761.446	1029.96
761.63	1079.11
761.813	1111.88
761.997	1032.01
762.18	1066.82
762.364	1017.67
762.547	993.09
762.731	1013.57
762.914	1048.39
763.098	1118.02
763.281	1015.62
763.464	1046.34
763.648	1044.29
763.831	954.18
764.015	991.05
764.198	1038.15
764.381	1007.43
764.564	972.61
764.748	956.23
764.931	919.37
765.114	976.71
765.297	1044.29
765.481	962.37
765.664	952.13
765.847	984.9
766.03	999.24
766.213	978.76
766.397	925.51
766.58	999.24
766.763	976.71
766.946	939.85
767.129	937.8
767.312	968.52
767.495	1005.38
767.678	986.95
767.861	921.42
768.044	923.46
768.227	874.31
768.41	1007.43
768.593	886.6
768.776	892.74
768.959	933.7
769.142	907.08
769.324	855.88
769.507	839.5
769.69	841.54
769.873	798.54
770.056	810.82
770.239	855.88
770.421	984.9
770.604	888.65
770.787	837.45
770.97	915.27
771.152	810.82
771.335	808.78
771.518	722.76
771.7	802.63
771.883	827.21
772.066	790.35
772.248	833.35
772.431	812.87
772.613	767.82
772.796	782.15
772.978	810.82
773.161	773.96
773.343	857.93
773.526	859.98
773.708	733
773.891	751.43
774.073	833.35
774.256	743.24
774.438	833.35
774.621	759.63
774.803	708.43
774.985	679.75
775.168	796.49
775.35	724.81
775.532	769.87
775.715	782.15
775.897	714.57
776.079	663.37
776.261	728.91
776.444	759.63
776.626	716.62
776.808	671.56
776.99	669.52
777.173	616.27
777.355	710.47
777.537	689.99
777.719	702.28
777.901	626.51
778.083	655.18
778.265	622.41
778.447	685.9
778.629	630.6
778.811	657.23
778.993	646.99
779.175	622.41
779.357	571.21
779.539	540.49
779.721	591.69
779.903	565.07
780.085	573.26
780.267	608.08
780.449	624.46
780.631	659.28
780.812	642.89
780.994	595.79
781.176	597.84
781.358	677.71
781.54	517.97
781.721	603.98
781.903	567.12
782.085	552.78
782.267	595.79
782.448	560.97
782.63	405.33
782.812	517.97
782.993	507.73
783.175	563.02
783.357	431.95
783.538	474.96
783.72	460.62
783.901	540.49
784.083	458.57
784.264	460.62
784.446	448.33
784.627	464.72
784.809	450.38
784.99	526.16
785.172	493.39
785.353	489.29
785.535	522.06
785.716	505.68
785.897	489.29
786.079	364.37
786.26	427.85
786.441	528.21
786.623	423.76
786.804	470.86
786.985	423.76
787.167	538.45
787.348	438.09
787.529	434
787.71	450.38
787.891	474.96
788.073	425.81
788.254	366.42
788.435	390.99
788.616	460.62
788.797	440.14
788.978	356.18
789.159	464.72
789.34	382.8
789.522	427.85
789.703	304.98
789.884	409.42
790.065	399.18
790.246	454.48
790.427	364.37
790.607	444.24
790.788	397.14
790.969	378.7
791.15	370.51
791.331	362.32
791.512	372.56
791.693	409.42
791.874	419.66
792.054	415.57
792.235	366.42
792.416	335.7
792.597	335.7
792.778	374.61
792.958	341.84
793.139	366.42
793.32	331.6
793.5	386.9
793.681	413.52
793.862	358.22
794.042	362.32
794.223	304.98
794.404	284.5
794.584	280.4
794.765	384.85
794.945	337.74
795.126	440.14
795.306	264.02
795.487	393.04
795.667	255.83
795.848	329.55
796.028	354.13
796.209	317.26
796.389	274.26
796.57	307.02
796.75	270.16
796.93	253.78
797.111	184.15
797.291	290.64
797.471	345.94
797.652	264.02
797.832	315.22
798.012	270.16
798.192	360.27
798.373	241.49
798.553	278.35
798.733	235.35
798.913	264.02
799.093	227.15
799.274	227.15
799.454	311.12
799.634	251.73
799.814	317.26
799.994	300.88
800.174	329.55
800.354	227.15
800.534	251.73
800.714	225.11
800.894	290.64
801.074	212.82
801.254	204.63
801.434	245.59
801.614	208.72
801.794	243.54
801.974	649.04
802.154	192.34
802.334	194.39
802.514	225.11
802.693	180.05
802.873	270.16
803.053	233.3
803.233	212.82
803.413	274.26
803.592	214.87
803.772	200.53
803.952	231.25
804.131	233.3
804.311	257.87
804.491	235.35
804.67	178
804.85	280.4
805.03	214.87
805.209	212.82
805.389	175.95
805.568	218.96
805.748	225.11
805.928	223.06
806.107	182.1
806.287	169.81
806.466	212.82
806.646	167.76
806.825	165.71
807.004	171.86
807.184	264.02
807.363	282.45
807.543	239.44
807.722	175.95
807.901	192.34
808.081	225.11
808.26	161.62
808.439	231.25
808.619	264.02
808.798	186.19
808.977	178
809.156	147.28
809.336	149.33
809.515	212.82
809.694	173.91
809.873	151.38
810.052	194.39
810.231	229.2
810.411	202.58
810.59	233.3
810.769	112.47
810.948	200.53
811.127	157.52
811.306	186.19
811.485	192.34
811.664	247.63
811.843	184.15
812.022	194.39
812.201	137.04
812.38	190.29
812.559	145.24
812.737	128.85
812.916	108.37
813.095	173.91
813.274	145.24
813.453	145.24
813.632	124.76
813.811	200.53
813.989	171.86
814.168	175.95
814.347	157.52
814.526	91.99
814.704	153.43
814.883	186.19
815.062	81.75
815.24	173.91
815.419	198.48
815.598	249.68
815.776	110.42
815.955	180.05
816.133	110.42
816.312	175.95
816.49	94.04
816.669	210.77
816.847	128.85
817.026	126.8
817.204	132.95
817.383	192.34
817.561	77.65
817.74	155.47
817.918	94.04
818.097	184.15
818.275	155.47
818.453	100.18
818.632	190.29
818.81	184.15
818.988	161.62
819.167	210.77
819.345	139.09
819.523	132.95
819.701	175.95
819.879	178
820.058	161.62
820.236	112.47
820.414	171.86
820.592	161.62
820.77	202.58
820.948	180.05
821.127	5.97
821.305	141.14
821.483	122.71
821.661	212.82
821.839	161.62
822.017	135
822.195	180.05
822.373	8.02
822.551	116.56
822.729	139.09
822.907	137.04
823.085	169.81
823.262	145.24
823.44	46.93
823.618	143.19
823.796	151.38
823.974	169.81
824.152	165.71
824.329	116.56
824.507	126.8
824.685	126.8
824.863	75.6
825.04	120.66
825.218	216.91
825.396	139.09
825.574	149.33
825.751	151.38
825.929	175.95
826.107	110.42
826.284	69.46
826.462	34.64
826.639	87.89
826.817	89.94
826.994	182.1
827.172	139.09
827.349	153.43
827.527	126.8
827.704	132.95
827.882	175.95
828.059	85.84
828.237	157.52
828.414	94.04
828.591	81.75
828.769	132.95
828.946	100.18
829.124	71.51
829.301	135
829.478	77.65
829.655	118.61
829.833	157.52
830.01	114.52
830.187	94.04
830.364	96.08
830.542	114.52
830.719	184.15
830.896	202.58
831.073	100.18
831.25	157.52
831.427	44.88
831.604	175.95
831.782	126.8
831.959	110.42
832.136	71.51
832.313	167.76
832.49	112.47
832.667	126.8
832.844	94.04
833.021	118.61
833.198	34.64
833.374	116.56
833.551	71.51
833.728	63.32
833.905	61.27
834.082	28.5
834.259	110.42
834.436	116.56
834.612	75.6
834.789	59.22
834.966	141.14
835.143	75.6
835.319	81.75
835.496	96.08
835.673	65.36
835.85	159.57
836.026	102.23
836.203	51.03
836.38	135
836.556	96.08
836.733	71.51
836.909	161.62
837.086	114.52
837.262	98.13
837.439	46.93
837.616	89.94
837.792	108.37
837.968	180.05
838.145	89.94
838.321	42.84
838.498	85.84
838.674	59.22
838.851	57.17
839.027	102.23
839.203	73.56
839.38	36.69
839.556	132.95
839.732	85.84
839.909	128.85
840.085	91.99
840.261	57.17
840.437	120.66
840.614	28.5
840.79	151.38
840.966	135
841.142	34.64
841.318	59.22
841.494	63.32
841.671	112.47
841.847	53.08
842.023	65.36
842.199	79.7
842.375	85.84
842.551	24.4
842.727	83.8
842.903	89.94
843.079	3.93
843.255	46.93
843.431	67.41
843.607	12.12
843.783	-2.22
843.959	81.75
844.134	42.84
844.31	73.56
844.486	85.84
844.662	89.94
844.838	51.03
845.013	175.95
845.189	65.36
845.365	104.28
845.541	85.84
845.716	135
845.892	57.17
846.068	-2.22
846.244	44.88
846.419	69.46
846.595	126.8
846.77	48.98
846.946	126.8
847.122	91.99
847.297	83.8
847.473	87.89
847.648	89.94
847.824	61.27
847.999	8.02
848.175	69.46
848.35	71.51
848.526	106.32
848.701	104.28
848.876	48.98
849.052	63.32
849.227	102.23
849.403	24.4
849.578	120.66
849.753	46.93
849.929	79.7
850.104	116.56
850.279	71.51
850.454	89.94
850.63	79.7
850.805	1.88
850.98	65.36
851.155	85.84
851.33	118.61
851.505	67.41
851.681	67.41
851.856	16.21
852.031	63.32
852.206	53.08
852.381	36.69
852.556	44.88
852.731	40.79
852.906	149.33
853.081	28.5
853.256	65.36
853.431	63.32
853.606	48.98
853.781	-12.46
853.956	-2.22
854.131	77.65
854.305	81.75
854.48	65.36
854.655	-0.17
854.83	16.21
855.005	40.79
855.18	26.45
855.354	73.56
855.529	65.36
855.704	69.46
855.879	73.56
856.053	108.37
856.228	126.8
856.403	69.46
856.577	69.46
856.752	79.7
856.926	61.27
857.101	77.65
857.276	48.98
857.45	-26.79
857.625	67.41
857.799	24.4
857.974	36.69
858.148	-8.36
858.323	59.22
858.497	69.46
858.672	87.89
858.846	-2.22
859.02	46.93
859.195	73.56
859.369	53.08
859.543	20.31
859.718	137.04
859.892	91.99
860.066	85.84
860.241	18.26
860.415	87.89
860.589	59.22
860.763	63.32
860.938	38.74
861.112	55.12
861.286	79.7
861.46	34.64
861.634	71.51
861.808	139.09
861.982	77.65
862.157	-4.27
862.331	-20.65
862.505	-24.75
862.679	-18.6
862.853	44.88
863.027	-8.36
863.201	63.32
863.375	5.97
863.549	24.4
863.722	67.41
863.896	67.41
864.07	-18.6
864.244	75.6
864.418	98.13
864.592	145.24
864.766	24.4
864.939	77.65
865.113	46.93
865.287	85.84
865.461	34.64
865.634	112.47
865.808	46.93
865.982	38.74
866.156	-0.17
866.329	26.45
866.503	61.27
866.676	-16.55
866.85	18.26
867.024	100.18
867.197	12.12
867.371	44.88
867.544	16.21
867.718	42.84
867.891	44.88
868.065	-2.22
868.238	1.88
868.412	89.94
868.585	40.79
868.759	91.99
868.932	79.7
869.105	85.84
869.279	57.17
869.452	1.88
869.625	14.17
869.799	61.27
869.972	-82.09
870.145	42.84
870.319	63.32
870.492	110.42
870.665	-18.6
870.838	53.08
871.011	20.31
871.185	16.21
871.358	137.04
871.531	10.07
871.704	116.56
871.877	32.6
872.05	34.64
872.223	48.98
872.396	145.24
872.569	59.22
872.742	38.74
872.915	38.74
873.088	30.55
873.261	69.46
873.434	116.56
873.607	34.64
873.78	-6.31
873.953	40.79
874.126	14.17
874.299	14.17
874.471	30.55
874.644	18.26
874.817	46.93
874.99	65.36
875.163	24.4
875.335	108.37
875.508	73.56
875.681	79.7
875.853	63.32
876.026	81.75
876.199	126.8
876.371	18.26
876.544	3.93
876.717	28.5
876.889	1.88
877.062	-10.41
877.234	40.79
877.407	14.17
877.579	46.93
877.752	32.6
877.924	91.99
878.097	71.51
878.269	-8.36
878.442	75.6
878.614	46.93
878.786	61.27
878.959	-14.51
879.131	65.36
879.303	44.88
879.476	48.98
879.648	114.52
879.82	12.12
879.993	40.79
880.165	67.41
880.337	40.79
880.509	30.55
880.681	-24.75
880.854	20.31
881.026	67.41
881.198	61.27
881.37	30.55
881.542	79.7
881.714	51.03
881.886	126.8
882.058	14.17
882.23	65.36
882.402	32.6
882.574	40.79
882.746	116.56
882.918	102.23
883.09	120.66
883.262	81.75
883.434	91.99
883.606	-6.31
883.778	63.32
883.95	79.7
884.122	36.69
884.293	118.61
884.465	18.26
884.637	102.23
884.809	30.55
884.98	28.5
885.152	77.65
885.324	22.36
885.496	77.65
885.667	57.17
885.839	-18.6
886.011	46.93
886.182	51.03
886.354	32.6
886.525	87.89
886.697	110.42
886.869	44.88
887.04	71.51
887.212	75.6
887.383	-6.31
887.555	1.88
887.726	3.93
887.897	22.36
888.069	63.32
888.24	61.27
888.412	-10.41
888.583	73.56
888.754	108.37
888.926	-10.41
889.097	3.93
889.268	20.31
889.44	-18.6
889.611	-18.6
889.782	-34.99
889.953	-67.75
890.125	73.56
890.296	-43.18
890.467	77.65
890.638	61.27
890.809	16.21
890.98	-32.94
891.151	83.8
891.323	94.04
891.494	40.79
891.665	53.08
891.836	28.5
892.007	98.13
892.178	-10.41
892.349	-6.31
892.52	10.07
892.691	53.08
892.862	-26.79
893.032	-16.55
893.203	85.84
893.374	10.07
893.545	24.4
893.716	36.69
893.887	65.36
894.057	61.27
894.228	20.31
894.399	65.36
894.57	46.93
894.74	14.17
894.911	44.88
895.082	3.93
895.253	18.26
895.423	34.64
895.594	69.46
895.764	75.6
895.935	3.93
896.106	20.31
896.276	48.98
896.447	3.93
896.617	-30.89
896.788	-24.75
896.958	36.69
897.129	-20.65
897.299	75.6
897.47	59.22
897.64	-26.79
897.81	48.98
897.981	16.21
898.151	-45.23
898.322	5.97
898.492	-24.75
898.662	128.85
898.832	75.6
899.003	-67.75
899.173	61.27
899.343	59.22
899.513	59.22
