Data from USB4F104151__81__12-36-55-192.txt Node

Date: Fri Mar 14 12:36:55 EDT 2025
User: louis
Spectrometer: USB4F10415
Trigger mode: 4
Integration Time (sec): 2.000000E-2
Scans to average: 1
Electric dark correction enabled: true
Nonlinearity correction enabled: false
Boxcar width: 0
XAxis mode: Wavelengths
Number of Pixels in Spectrum: 3648
>>>>>Begin Spectral Data<<<<<
178.204	-50.52
178.424	-50.52
178.644	-50.52
178.864	-73.04
179.084	-5.46
179.304	12.97
179.524	27.31
179.744	35.5
179.964	4.78
180.184	-11.61
180.404	8.87
180.624	-73.04
180.844	25.26
181.064	12.97
181.283	-13.65
181.503	-48.47
181.723	19.11
181.943	21.16
182.163	-1.37
182.383	-44.37
182.602	-32.08
182.822	10.92
183.042	60.07
183.262	-3.41
183.482	45.74
183.701	-17.75
183.921	84.65
184.141	62.12
184.361	121.51
184.58	64.17
184.8	49.83
185.02	10.92
185.239	84.65
185.459	62.12
185.679	37.55
185.898	29.35
186.118	109.23
186.338	31.4
186.557	80.55
186.777	23.21
186.997	45.74
187.216	86.7
187.436	31.4
187.655	-23.89
187.875	29.35
188.095	62.12
188.314	4.78
188.534	39.59
188.753	92.84
188.973	41.64
189.192	66.22
189.412	-27.99
189.631	-32.08
189.851	49.83
190.07	62.12
190.29	58.03
190.509	39.59
190.729	78.51
190.948	78.51
191.168	168.62
191.387	119.46
191.607	-17.75
191.826	96.94
192.045	62.12
192.265	33.45
192.484	39.59
192.704	76.46
192.923	53.93
193.142	55.98
193.362	15.02
193.581	90.79
193.8	12.97
194.02	43.69
194.239	31.4
194.458	53.93
194.678	25.26
194.897	4.78
195.116	76.46
195.335	31.4
195.555	8.87
195.774	152.23
195.993	62.12
196.212	37.55
196.432	51.88
196.651	45.74
196.87	33.45
197.089	119.46
197.308	21.16
197.528	45.74
197.747	-9.56
197.966	45.74
198.185	90.79
198.404	12.97
198.623	72.36
198.842	21.16
199.062	45.74
199.281	58.03
199.5	25.26
199.719	35.5
199.938	58.03
200.157	12.97
200.376	60.07
200.595	78.51
200.814	12.97
201.033	39.59
201.252	66.22
201.471	144.04
201.69	152.23
201.909	29.35
202.128	8.87
202.347	82.6
202.566	111.27
202.785	70.31
203.004	33.45
203.223	35.5
203.442	-25.94
203.661	58.03
203.879	55.98
204.098	82.6
204.317	68.27
204.536	66.22
204.755	-42.32
204.974	58.03
205.193	98.99
205.411	8.87
205.63	53.93
205.849	115.37
206.068	82.6
206.287	47.79
206.505	68.27
206.724	2.73
206.943	27.31
207.162	45.74
207.381	33.45
207.599	17.07
207.818	51.88
208.037	43.69
208.255	33.45
208.474	45.74
208.693	27.31
208.911	12.97
209.13	72.36
209.349	51.88
209.567	62.12
209.786	12.97
210.005	82.6
210.223	-5.46
210.442	17.07
210.661	76.46
210.879	72.36
211.098	39.59
211.316	94.89
211.535	70.31
211.753	21.16
211.972	101.03
212.191	84.65
212.409	193.19
212.628	111.27
212.846	76.46
213.065	21.16
213.283	135.85
213.502	-11.61
213.72	27.31
213.938	62.12
214.157	8.87
214.375	111.27
214.594	92.84
214.812	55.98
215.031	33.45
215.249	23.21
215.467	47.79
215.686	51.88
215.904	80.55
216.122	68.27
216.341	55.98
216.559	21.16
216.778	33.45
216.996	27.31
217.214	-36.18
217.432	53.93
217.651	43.69
217.869	55.98
218.087	19.11
218.306	-54.61
218.524	55.98
218.742	60.07
218.96	-5.46
219.179	23.21
219.397	41.64
219.615	58.03
219.833	49.83
220.051	25.26
220.27	131.75
220.488	66.22
220.706	12.97
220.924	66.22
221.142	66.22
221.36	70.31
221.578	101.03
221.796	62.12
222.015	-34.13
222.233	31.4
222.451	25.26
222.669	19.11
222.887	58.03
223.105	25.26
223.323	4.78
223.541	23.21
223.759	8.87
223.977	12.97
224.195	86.7
224.413	29.35
224.631	125.61
224.849	58.03
225.067	150.18
225.285	27.31
225.503	53.93
225.721	-34.13
225.939	47.79
226.157	62.12
226.375	45.74
226.592	-40.28
226.81	51.88
227.028	17.07
227.246	45.74
227.464	19.11
227.682	70.31
227.9	72.36
228.117	27.31
228.335	62.12
228.553	53.93
228.771	23.21
228.989	76.46
229.206	109.23
229.424	29.35
229.642	19.11
229.86	111.27
230.077	117.42
230.295	23.21
230.513	6.83
230.731	125.61
230.948	-40.28
231.166	25.26
231.384	58.03
231.601	58.03
231.819	41.64
232.037	33.45
232.254	2.73
232.472	55.98
232.689	70.31
232.907	82.6
233.125	45.74
233.342	43.69
233.56	94.89
233.777	53.93
233.995	-11.61
234.213	62.12
234.43	31.4
234.648	90.79
234.865	84.65
235.083	62.12
235.3	96.94
235.518	12.97
235.735	64.17
235.953	76.46
236.17	-19.8
236.388	-5.46
236.605	-3.41
236.822	72.36
237.04	82.6
237.257	33.45
237.475	25.26
237.692	84.65
237.909	6.83
238.127	68.27
238.344	58.03
238.562	70.31
238.779	82.6
238.996	101.03
239.214	51.88
239.431	96.94
239.648	74.41
239.865	111.27
240.083	131.75
240.3	33.45
240.517	0.68
240.735	101.03
240.952	51.88
241.169	41.64
241.386	74.41
241.603	55.98
241.821	-34.13
242.038	72.36
242.255	-42.32
242.472	35.5
242.689	80.55
242.907	92.84
243.124	12.97
243.341	19.11
243.558	29.35
243.775	39.59
243.992	-7.51
244.209	-3.41
244.426	66.22
244.643	78.51
244.86	4.78
245.078	90.79
245.295	76.46
245.512	115.37
245.729	-15.7
245.946	64.17
246.163	101.03
246.38	45.74
246.597	84.65
246.814	66.22
247.031	45.74
247.248	29.35
247.464	80.55
247.681	88.75
247.898	-32.08
248.115	62.12
248.332	58.03
248.549	17.07
248.766	98.99
248.983	-3.41
249.2	68.27
249.417	96.94
249.633	17.07
249.85	94.89
250.067	66.22
250.284	17.07
250.501	111.27
250.717	17.07
250.934	90.79
251.151	109.23
251.368	41.64
251.585	58.03
251.801	-13.65
252.018	51.88
252.235	78.51
252.451	4.78
252.668	45.74
252.885	45.74
253.102	109.23
253.318	-13.65
253.535	-11.61
253.752	6.83
253.968	27.31
254.185	2.73
254.401	35.5
254.618	101.03
254.835	70.31
255.051	53.93
255.268	51.88
255.484	66.22
255.701	70.31
255.917	-7.51
256.134	39.59
256.351	66.22
256.567	12.97
256.784	68.27
257	8.87
257.217	94.89
257.433	31.4
257.65	82.6
257.866	4.78
258.082	2.73
258.299	25.26
258.515	53.93
258.732	41.64
258.948	10.92
259.165	2.73
259.381	19.11
259.597	76.46
259.814	47.79
260.03	98.99
260.246	27.31
260.463	-1.37
260.679	84.65
260.895	23.21
261.112	58.03
261.328	25.26
261.544	0.68
261.761	80.55
261.977	107.18
262.193	-21.84
262.409	92.84
262.626	78.51
262.842	49.83
263.058	47.79
263.274	94.89
263.49	82.6
263.707	111.27
263.923	17.07
264.139	-44.37
264.355	-9.56
264.571	115.37
264.787	55.98
265.004	55.98
265.22	88.75
265.436	-42.32
265.652	43.69
265.868	66.22
266.084	37.55
266.3	135.85
266.516	0.68
266.732	82.6
266.948	101.03
267.164	41.64
267.38	58.03
267.596	72.36
267.812	33.45
268.028	33.45
268.244	53.93
268.46	43.69
268.676	15.02
268.892	70.31
269.108	21.16
269.324	78.51
269.54	101.03
269.756	-19.8
269.972	25.26
270.188	37.55
270.403	105.13
270.619	64.17
270.835	74.41
271.051	94.89
271.267	25.26
271.483	127.66
271.698	66.22
271.914	76.46
272.13	17.07
272.346	92.84
272.562	10.92
272.777	103.08
272.993	58.03
273.209	39.59
273.425	37.55
273.64	0.68
273.856	33.45
274.072	66.22
274.287	45.74
274.503	113.32
274.719	25.26
274.934	98.99
275.15	39.59
275.366	45.74
275.581	66.22
275.797	86.7
276.012	10.92
276.228	39.59
276.444	74.41
276.659	101.03
276.875	15.02
277.09	68.27
277.306	12.97
277.521	43.69
277.737	135.85
277.952	80.55
278.168	4.78
278.383	80.55
278.599	121.51
278.814	21.16
279.03	53.93
279.245	55.98
279.461	60.07
279.676	25.26
279.892	-19.8
280.107	41.64
280.322	41.64
280.538	0.68
280.753	96.94
280.969	107.18
281.184	-3.41
281.399	121.51
281.615	47.79
281.83	47.79
282.045	90.79
282.26	19.11
282.476	-36.18
282.691	19.11
282.906	43.69
283.122	39.59
283.337	45.74
283.552	72.36
283.767	6.83
283.983	96.94
284.198	80.55
284.413	23.21
284.628	10.92
284.843	19.11
285.058	27.31
285.274	84.65
285.489	49.83
285.704	96.94
285.919	60.07
286.134	-52.56
286.349	96.94
286.564	37.55
286.779	107.18
286.995	49.83
287.21	25.26
287.425	86.7
287.64	82.6
287.855	41.64
288.07	55.98
288.285	72.36
288.5	123.56
288.715	39.59
288.93	70.31
289.145	47.79
289.36	76.46
289.575	68.27
289.79	76.46
290.004	27.31
290.219	45.74
290.434	17.07
290.649	113.32
290.864	66.22
291.079	76.46
291.294	58.03
291.509	70.31
291.724	125.61
291.938	49.83
292.153	49.83
292.368	15.02
292.583	39.59
292.798	21.16
293.012	84.65
293.227	-3.41
293.442	27.31
293.657	66.22
293.871	53.93
294.086	64.17
294.301	141.99
294.516	72.36
294.73	84.65
294.945	37.55
295.16	29.35
295.374	8.87
295.589	53.93
295.804	-15.7
296.018	51.88
296.233	78.51
296.447	72.36
296.662	-15.7
296.877	51.88
297.091	49.83
297.306	103.08
297.52	31.4
297.735	103.08
297.949	80.55
298.164	60.07
298.378	45.74
298.593	-15.7
298.807	53.93
299.022	8.87
299.236	58.03
299.451	-3.41
299.665	94.89
299.88	53.93
300.094	101.03
300.309	43.69
300.523	123.56
300.737	23.21
300.952	-9.56
301.166	115.37
301.381	41.64
301.595	25.26
301.809	70.31
302.024	8.87
302.238	41.64
302.452	117.42
302.667	2.73
302.881	90.79
303.095	88.75
303.309	58.03
303.524	133.8
303.738	72.36
303.952	37.55
304.166	39.59
304.381	19.11
304.595	76.46
304.809	-21.84
305.023	53.93
305.237	76.46
305.452	88.75
305.666	76.46
305.88	105.13
306.094	127.66
306.308	107.18
306.522	64.17
306.736	150.18
306.95	66.22
307.164	62.12
307.379	66.22
307.593	117.42
307.807	-1.37
308.021	105.13
308.235	111.27
308.449	10.92
308.663	17.07
308.877	117.42
309.091	39.59
309.305	66.22
309.519	19.11
309.733	49.83
309.947	2.73
310.161	55.98
310.374	37.55
310.588	35.5
310.802	43.69
311.016	47.79
311.23	60.07
311.444	78.51
311.658	17.07
311.872	60.07
312.085	49.83
312.299	68.27
312.513	45.74
312.727	94.89
312.941	-13.65
313.154	51.88
313.368	119.46
313.582	101.03
313.796	25.26
314.009	60.07
314.223	78.51
314.437	72.36
314.651	119.46
314.864	51.88
315.078	68.27
315.292	8.87
315.505	125.61
315.719	68.27
315.933	62.12
316.146	68.27
316.36	51.88
316.573	43.69
316.787	45.74
317.001	68.27
317.214	58.03
317.428	78.51
317.641	0.68
317.855	53.93
318.068	23.21
318.282	119.46
318.495	86.7
318.709	62.12
318.922	109.23
319.136	84.65
319.349	4.78
319.563	55.98
319.776	72.36
319.99	27.31
320.203	47.79
320.417	98.99
320.63	29.35
320.843	101.03
321.057	72.36
321.27	64.17
321.483	17.07
321.697	47.79
321.91	86.7
322.124	15.02
322.337	35.5
322.55	53.93
322.763	107.18
322.977	45.74
323.19	43.69
323.403	60.07
323.617	111.27
323.83	166.57
324.043	58.03
324.256	62.12
324.469	35.5
324.683	70.31
324.896	-21.84
325.109	101.03
325.322	35.5
325.535	135.85
325.748	27.31
325.962	74.41
326.175	39.59
326.388	84.65
326.601	64.17
326.814	19.11
327.027	90.79
327.24	94.89
327.453	60.07
327.666	90.79
327.879	68.27
328.092	170.66
328.305	58.03
328.518	8.87
328.731	45.74
328.944	98.99
329.157	117.42
329.37	68.27
329.583	115.37
329.796	90.79
330.009	6.83
330.222	76.46
330.435	74.41
330.648	60.07
330.861	105.13
331.073	43.69
331.286	94.89
331.499	107.18
331.712	51.88
331.925	96.94
332.138	105.13
332.35	125.61
332.563	10.92
332.776	76.46
332.989	23.21
333.202	72.36
333.414	92.84
333.627	41.64
333.84	35.5
334.053	23.21
334.265	15.02
334.478	135.85
334.691	60.07
334.903	53.93
335.116	70.31
335.329	98.99
335.541	123.56
335.754	96.94
335.966	23.21
336.179	39.59
336.392	-15.7
336.604	76.46
336.817	111.27
337.029	115.37
337.242	74.41
337.454	80.55
337.667	88.75
337.88	19.11
338.092	43.69
338.305	58.03
338.517	62.12
338.729	10.92
338.942	70.31
339.154	29.35
339.367	43.69
339.579	92.84
339.792	70.31
340.004	160.42
340.217	45.74
340.429	109.23
340.641	72.36
340.854	92.84
341.066	8.87
341.278	45.74
341.491	88.75
341.703	78.51
341.915	39.59
342.128	146.09
342.34	98.99
342.552	49.83
342.764	105.13
342.977	62.12
343.189	64.17
343.401	74.41
343.613	25.26
343.826	74.41
344.038	25.26
344.25	113.32
344.462	86.7
344.674	98.99
344.886	29.35
345.099	55.98
345.311	101.03
345.523	35.5
345.735	8.87
345.947	47.79
346.159	72.36
346.371	55.98
346.583	21.16
346.795	170.66
347.007	101.03
347.219	25.26
347.431	113.32
347.643	27.31
347.855	146.09
348.067	90.79
348.279	33.45
348.491	27.31
348.703	135.85
348.915	51.88
349.127	29.35
349.339	131.75
349.551	64.17
349.763	37.55
349.975	88.75
350.187	115.37
350.399	80.55
350.61	78.51
350.822	41.64
351.034	109.23
351.246	43.69
351.458	86.7
351.669	94.89
351.881	182.95
352.093	37.55
352.305	103.08
352.517	123.56
352.728	41.64
352.94	137.9
353.152	76.46
353.363	98.99
353.575	92.84
353.787	94.89
353.999	137.9
354.21	76.46
354.422	31.4
354.633	82.6
354.845	101.03
355.057	43.69
355.268	72.36
355.48	55.98
355.692	90.79
355.903	35.5
356.115	62.12
356.326	88.75
356.538	88.75
356.749	92.84
356.961	150.18
357.172	49.83
357.384	41.64
357.595	70.31
357.807	-15.7
358.018	55.98
358.23	90.79
358.441	94.89
358.653	74.41
358.864	12.97
359.075	29.35
359.287	105.13
359.498	88.75
359.709	45.74
359.921	31.4
360.132	60.07
360.344	96.94
360.555	37.55
360.766	60.07
360.977	27.31
361.189	158.38
361.4	51.88
361.611	107.18
361.823	72.36
362.034	78.51
362.245	12.97
362.456	64.17
362.667	8.87
362.879	27.31
363.09	43.69
363.301	109.23
363.512	80.55
363.723	37.55
363.935	35.5
364.146	82.6
364.357	94.89
364.568	43.69
364.779	64.17
364.99	111.27
365.201	70.31
365.412	94.89
365.623	80.55
365.834	80.55
366.045	58.03
366.256	84.65
366.467	-36.18
366.678	86.7
366.889	23.21
367.1	64.17
367.311	121.51
367.522	60.07
367.733	43.69
367.944	119.46
368.155	29.35
368.366	103.08
368.577	137.9
368.788	86.7
368.999	53.93
369.209	144.04
369.42	94.89
369.631	158.38
369.842	76.46
370.053	76.46
370.264	125.61
370.474	37.55
370.685	19.11
370.896	60.07
371.107	66.22
371.317	70.31
371.528	39.59
371.739	41.64
371.95	90.79
372.16	86.7
372.371	80.55
372.582	154.28
372.792	92.84
373.003	131.75
373.214	135.85
373.424	62.12
373.635	8.87
373.846	98.99
374.056	127.66
374.267	47.79
374.477	96.94
374.688	90.79
374.898	94.89
375.109	84.65
375.319	115.37
375.53	68.27
375.74	103.08
375.951	80.55
376.161	68.27
376.372	117.42
376.582	88.75
376.793	74.41
377.003	74.41
377.214	94.89
377.424	152.23
377.635	70.31
377.845	64.17
378.055	103.08
378.266	-15.7
378.476	98.99
378.686	94.89
378.897	103.08
379.107	129.7
379.317	78.51
379.528	86.7
379.738	45.74
379.948	80.55
380.158	62.12
380.369	117.42
380.579	121.51
380.789	76.46
380.999	62.12
381.21	80.55
381.42	94.89
381.63	37.55
381.84	105.13
382.05	58.03
382.261	113.32
382.471	185
382.681	105.13
382.891	84.65
383.101	74.41
383.311	62.12
383.521	37.55
383.731	47.79
383.941	76.46
384.151	80.55
384.361	107.18
384.571	72.36
384.781	37.55
384.991	45.74
385.201	82.6
385.411	72.36
385.621	74.41
385.831	74.41
386.041	94.89
386.251	74.41
386.461	72.36
386.671	109.23
386.881	70.31
387.091	53.93
387.301	96.94
387.511	35.5
387.72	64.17
387.93	86.7
388.14	80.55
388.35	68.27
388.56	160.42
388.769	129.7
388.979	35.5
389.189	-40.28
389.399	121.51
389.609	64.17
389.818	98.99
390.028	98.99
390.238	107.18
390.447	76.46
390.657	111.27
390.867	96.94
391.076	92.84
391.286	131.75
391.496	53.93
391.705	250.53
391.915	94.89
392.125	96.94
392.334	117.42
392.544	148.14
392.753	103.08
392.963	49.83
393.172	92.84
393.382	70.31
393.591	92.84
393.801	139.94
394.01	133.8
394.22	68.27
394.429	121.51
394.639	76.46
394.848	92.84
395.058	58.03
395.267	82.6
395.477	105.13
395.686	86.7
395.895	141.99
396.105	189.1
396.314	133.8
396.524	156.33
396.733	154.28
396.942	176.81
397.152	92.84
397.361	103.08
397.57	139.94
397.78	158.38
397.989	150.18
398.198	168.62
398.407	107.18
398.617	144.04
398.826	113.32
399.035	137.9
399.244	70.31
399.453	90.79
399.663	174.76
399.872	51.88
400.081	162.47
400.29	131.75
400.499	107.18
400.708	209.58
400.917	131.75
401.127	43.69
401.336	131.75
401.545	209.58
401.754	158.38
401.963	158.38
402.172	178.86
402.381	94.89
402.59	127.66
402.799	162.47
403.008	76.46
403.217	137.9
403.426	123.56
403.635	133.8
403.844	217.77
404.053	135.85
404.262	158.38
404.471	256.68
404.68	234.15
404.888	260.77
405.097	277.16
405.306	219.82
405.515	246.44
405.724	193.19
405.933	160.42
406.142	277.16
406.35	230.06
406.559	207.53
406.768	266.92
406.977	252.58
407.185	291.49
407.394	283.3
407.603	205.48
407.812	311.97
408.02	316.07
408.229	217.77
408.438	314.02
408.646	324.26
408.855	303.78
409.064	275.11
409.272	332.45
409.481	402.08
409.69	340.65
409.898	322.21
410.107	445.09
410.315	344.74
410.524	443.04
410.733	486.05
410.941	451.24
411.15	506.53
411.358	465.57
411.567	445.09
411.775	512.67
411.984	551.59
412.192	565.92
412.401	547.49
412.609	594.59
412.818	662.18
413.026	627.36
413.234	678.56
413.443	658.08
413.651	678.56
413.86	674.46
414.068	748.19
414.276	725.66
414.485	774.81
414.693	957.08
414.901	787.1
415.11	832.16
415.318	817.82
415.526	928.41
415.734	905.88
415.943	987.8
416.151	1051.29
416.359	1129.11
416.567	1049.24
416.776	1055.39
416.984	1149.59
417.192	1254.04
417.4	1301.14
417.608	1268.38
417.817	1393.3
418.025	1350.29
418.233	1462.93
418.441	1475.22
418.649	1464.98
418.857	1624.72
419.065	1637.01
419.273	1632.91
419.481	1671.83
419.689	1815.18
419.897	1798.8
420.105	1813.13
420.313	1974.92
420.521	2075.27
420.729	2155.15
420.937	2083.47
421.145	2218.63
421.353	2417.29
421.561	2400.9
421.769	2398.85
421.977	2734.72
422.185	2529.92
422.393	2605.7
422.601	2835.07
422.809	2884.22
423.017	2927.23
423.224	3000.96
423.432	3191.42
423.64	3269.24
423.848	3390.07
424.056	3420.79
424.263	3482.23
424.471	3662.45
424.679	3508.85
424.887	3865.2
425.094	4022.89
425.302	4018.8
425.51	4086.38
425.718	4356.71
425.925	4268.65
426.133	4522.6
426.341	4723.3
426.548	4973.15
426.756	4999.77
426.964	5034.59
427.171	5337.69
427.379	5343.83
427.586	5472.86
427.794	5552.73
428.001	5888.59
428.209	6179.4
428.417	5890.64
428.624	6629.96
428.832	6654.53
429.039	6724.16
429.247	6527.56
429.454	7131.71
429.662	7627.32
429.869	7215.68
430.076	7684.66
430.284	7320.12
430.491	7901.75
430.699	8116.78
430.906	8278.57
431.114	8438.31
431.321	8624.68
431.528	8768.04
431.736	9411.1
431.943	9722.39
432.15	9407
432.358	9583.13
432.565	10078.74
432.772	10123.79
432.979	10557.96
433.187	10945.03
433.394	10850.82
433.601	11700.73
433.808	11567.61
434.016	11600.38
434.223	12104.18
434.43	12839.4
434.637	12415.47
434.844	13298.14
435.052	13537.76
435.259	13382.11
435.466	13726.17
435.673	13668.83
435.88	14358.99
436.087	14920.13
436.294	15331.78
436.501	15032.77
436.708	15090.12
436.915	15745.47
437.122	16370.1
437.329	16128.44
437.537	17029.54
437.743	17140.13
437.95	16880.04
438.157	17742.24
438.364	18393.49
438.571	18569.62
438.778	18368.91
438.985	20066.68
439.192	19364.23
439.399	19843.45
439.606	19280.26
439.813	20816.24
440.02	21641.57
440.227	21408.1
440.433	21361
440.64	22212.95
440.847	21799.26
441.054	22786.38
441.261	23904.57
441.467	23574.85
441.674	24408.37
441.881	25153.83
442.088	24777.01
442.294	24949.04
442.501	25274.66
442.708	26134.81
442.914	26910.99
443.121	27973.89
443.328	27455.75
443.534	29083.89
443.741	28715.25
443.948	28184.83
444.154	30261.47
444.361	29941.99
444.568	30111.97
444.774	30009.57
444.981	30492.89
445.187	31279.31
445.394	32538.81
445.6	32223.42
445.807	35487.89
446.013	33777.83
446.22	34459.8
446.426	35754.12
446.633	36028.55
446.839	37187.7
447.046	35960.97
447.252	37865.58
447.459	37767.27
447.665	37920.87
447.871	39299.15
448.078	41302.07
448.284	39479.38
448.491	40173.64
448.697	41865.26
448.903	42027.05
449.11	42459.17
449.316	41838.64
449.522	42407.97
449.728	44021.77
449.935	44201.99
450.141	43870.22
450.347	45111.29
450.553	43581.46
450.76	44337.16
450.966	45547.51
451.172	45416.44
451.378	46270.44
451.584	45373.43
451.791	46559.2
451.997	46127.08
452.203	47179.74
452.409	47534.04
452.615	46893.02
452.821	45258.74
453.027	44888.06
453.233	47413.21
453.44	45383.67
453.646	45950.96
453.852	46188.52
454.058	46727.14
454.264	45281.27
454.47	46387.17
454.676	45176.83
454.882	46561.25
455.088	42842.14
455.294	43462.68
455.5	44257.29
455.705	44615.68
455.911	42856.48
456.117	42098.73
456.323	41142.33
456.529	39553.1
456.735	41451.57
456.941	39747.66
457.147	39061.59
457.352	38205.54
457.558	37933.16
457.764	38064.23
457.97	37267.57
458.176	36479.1
458.381	36509.82
458.587	34662.55
458.793	34709.66
458.999	32798.9
459.204	35154.07
459.41	34072.74
459.616	31877.32
459.821	32039.11
460.027	31762.63
460.233	31228.11
460.438	29540.58
460.644	30091.49
460.85	28733.68
461.055	28162.3
461.261	28188.92
461.466	26452.25
461.672	25221.42
461.878	27226.38
462.083	25432.36
462.289	24783.15
462.494	24441.14
462.7	23345.48
462.905	22911.31
463.111	23732.54
463.316	23572.8
463.522	23384.39
463.727	23349.57
463.932	22913.36
464.138	22962.51
464.343	23175.5
464.549	22376.79
464.754	23161.16
464.959	23073.1
465.165	22970.7
465.37	21741.92
465.575	21416.29
465.781	22122.84
465.986	21866.84
466.191	21662.05
466.397	21274.98
466.602	19816.83
466.807	20771.18
467.012	20916.59
467.218	20828.52
467.423	20472.18
467.628	20679.02
467.833	21293.41
468.038	20580.72
468.244	20300.15
468.449	20615.54
468.654	19954.04
468.859	19988.86
469.064	19908.99
469.269	19095.94
469.474	19304.84
469.679	19980.67
469.885	19323.27
470.09	19532.16
470.295	19407.23
470.5	18686.35
470.705	19247.49
470.91	18942.35
471.115	18176.41
471.32	18465.17
471.525	18385.3
471.73	18127.25
471.935	18112.92
472.139	17099.17
472.344	17658.27
472.549	17332.64
472.754	17559.97
472.959	17054.12
473.164	16341.43
473.369	16417.2
473.574	17004.97
473.778	16910.76
473.983	16472.5
474.188	16327.09
474.393	15880.63
474.598	15968.69
474.802	15681.98
475.007	15729.08
475.212	15446.46
475.417	14916.04
475.621	15217.09
475.826	15163.84
476.031	14916.04
476.235	14406.09
476.44	14846.41
476.645	14399.95
476.849	14496.21
477.054	14393.81
477.259	14002.64
477.463	14193.11
477.668	13437.41
477.872	13818.33
478.077	13703.64
478.282	13410.78
478.486	13064.68
478.691	13105.63
478.895	13117.92
479.1	13302.24
479.304	12999.14
479.509	12464.62
479.713	12863.97
479.918	12624.36
480.122	12323.31
480.326	12435.95
480.531	12622.31
480.735	12454.38
480.94	12411.37
481.144	12642.79
481.348	12306.93
481.553	12380.65
481.757	11891.19
481.961	12345.84
482.166	12306.93
482.37	12284.4
482.574	12251.63
482.778	12151.28
482.983	12339.69
483.187	12044.79
483.391	12296.69
483.595	12071.41
483.8	11807.22
484.004	12024.31
484.208	12302.83
484.412	12034.55
484.616	12241.39
484.821	12290.54
485.025	11782.65
485.229	12036.59
485.433	11983.35
485.637	12018.16
485.841	11921.91
486.045	12022.26
486.249	12141.04
486.453	11973.11
486.657	11975.16
486.861	12306.93
487.065	11749.88
487.269	12167.66
487.473	11936.24
487.677	12108.27
487.881	12278.26
488.085	11887.09
488.289	12247.54
488.493	12147.19
488.697	12241.39
488.901	12294.64
489.105	12296.69
489.309	12292.59
489.512	12225.01
489.716	12169.71
489.92	12227.06
490.124	12462.57
490.328	12542.44
490.531	12188.14
490.735	12454.38
490.939	12589.55
491.143	12290.54
491.346	12200.43
491.55	12607.98
491.754	12466.67
491.958	12610.03
492.161	12583.4
492.365	12689.9
492.569	12581.35
492.772	12730.86
492.976	12863.97
493.18	12823.01
493.383	12851.69
493.587	13068.77
493.79	13152.74
493.994	13134.31
494.197	13232.61
494.401	13394.4
494.605	13273.57
494.808	13531.61
495.012	13668.83
495.215	13414.88
495.419	13859.29
495.622	13699.55
495.825	13918.68
496.029	13851.1
496.232	14074.32
496.436	14088.66
496.639	14598.6
496.843	14414.29
497.046	14608.84
497.249	14983.62
497.453	15069.64
497.656	15212.99
497.859	15155.65
498.063	15571.39
498.266	15593.92
498.469	15563.2
498.673	15903.16
498.876	15919.54
499.079	16009.65
499.282	16191.92
499.485	16353.71
499.689	16576.94
499.892	16662.96
500.095	16812.46
500.298	17131.94
500.501	17314.21
500.705	17488.29
500.908	17592.73
501.111	17914.27
501.314	18088.34
501.517	18354.58
501.72	18248.08
501.923	18502.03
502.126	18956.68
502.329	19057.03
502.532	19419.52
502.735	19310.98
502.938	19810.68
503.141	19573.12
503.344	20148.6
503.547	19982.71
503.75	20375.92
503.953	20697.45
504.156	21211.49
504.359	21072.23
504.562	21145.96
504.765	21516.64
504.968	21528.93
505.17	22014.3
505.373	21825.89
505.576	22554.96
505.779	22550.87
505.982	22876.49
506.185	23263.56
506.387	23468.36
506.59	23800.13
506.793	24131.9
506.996	23834.94
507.198	24441.14
507.401	24768.82
507.604	24955.18
507.807	24885.55
508.009	25063.72
508.212	25338.15
508.415	25698.59
508.617	26052.89
508.82	26024.22
509.022	26114.33
509.225	27013.39
509.428	27040.01
509.63	27089.17
509.833	27304.2
510.035	28029.18
510.238	27949.31
510.44	28229.88
510.643	28819.7
510.845	28637.43
511.048	28721.4
511.25	29214.96
511.453	29511.91
511.655	30632.15
511.858	30372.06
512.06	30363.87
512.262	30658.77
512.465	30449.88
512.667	31248.59
512.87	31772.87
513.072	31627.46
513.274	32329.92
513.477	32456.89
513.679	32649.4
513.881	33089.71
514.084	33337.52
514.286	33188.02
514.488	33751.21
514.69	34310.3
514.893	34519.2
515.095	34881.69
515.297	35182.74
515.499	35377.29
515.701	35704.97
515.904	36096.13
516.106	36063.36
516.308	36522.11
516.51	36952.18
516.712	36683.9
516.914	37527.66
517.116	37988.46
517.318	37789.8
517.52	38336.61
517.722	38789.21
517.925	39120.98
518.127	39235.67
518.329	39655.5
518.531	39442.51
518.733	40499.26
518.935	41021.5
519.136	40994.87
519.338	41146.42
519.54	41560.11
519.742	41875.5
519.944	41824.3
520.146	42678.3
520.348	42483.75
520.55	42758.17
520.752	42729.5
520.954	44064.78
521.155	43302.93
521.357	44498.95
521.559	44511.24
521.761	44937.21
521.963	44691.46
522.164	44918.78
522.366	44836.86
522.568	45697.01
522.77	46094.32
522.971	46557.16
523.173	46090.22
523.375	46751.71
523.576	46628.84
523.778	47124.44
523.98	47675.35
524.181	47407.06
524.383	48132.04
524.584	48377.8
524.786	48121.8
524.988	48652.23
525.189	49301.43
525.391	49086.4
525.592	49379.26
525.794	49108.93
525.995	50028.46
526.197	49424.31
526.398	49706.93
526.6	50196.4
526.801	50364.33
527.003	50663.33
527.204	50745.25
527.406	51111.84
527.607	51079.07
527.808	51031.97
528.01	50204.59
528.211	51244.96
528.412	52184.97
528.614	51529.62
528.815	52055.95
529.016	52234.13
529.218	52172.69
529.419	52246.41
529.62	51922.83
529.822	52131.73
530.023	52295.56
530.224	52651.91
530.425	52340.62
530.626	52131.73
530.828	52123.54
531.029	53288.83
531.23	52559.75
531.431	52815.75
531.632	53135.23
531.833	53546.87
532.035	52983.68
532.236	53192.57
532.437	53849.97
532.638	53249.92
532.839	53448.57
533.04	53290.88
533.241	52950.91
533.442	53524.35
533.643	53032.83
533.844	53036.93
534.045	53426.04
534.246	53647.22
534.447	53503.87
534.648	52922.24
534.849	53247.87
535.05	53172.1
535.251	53530.49
535.451	53229.44
535.652	53790.58
535.853	53727.09
536.054	53641.08
536.255	53495.67
536.456	53241.73
536.657	54036.34
536.857	53260.16
537.058	53471.1
537.259	53720.95
537.46	53712.76
537.66	53342.08
537.861	53528.44
538.062	53346.17
538.263	53389.18
538.463	53327.74
538.664	53655.42
538.865	53479.29
539.065	53532.54
539.266	53098.37
539.466	53430.14
539.667	53100.42
539.868	53946.23
540.068	53407.61
540.269	53751.67
540.469	53628.79
540.67	53479.29
540.87	53395.32
541.071	53479.29
541.271	53573.5
541.472	53229.44
541.672	53276.54
541.873	53305.21
542.073	52772.74
542.274	53602.17
542.474	53079.94
542.675	53168
542.875	53397.37
543.075	53188.48
543.276	52692.87
543.476	53733.24
543.676	52299.66
543.877	53129.09
544.077	53163.9
544.277	53129.09
544.478	52963.2
544.678	53391.23
544.878	53202.81
545.078	53081.98
545.279	52475.79
545.479	53061.5
545.679	53133.18
545.879	53149.57
546.079	52639.62
546.28	52557.7
546.48	52574.09
546.68	53104.51
546.88	53086.08
547.08	52594.57
547.28	52692.87
547.48	52297.61
547.68	52717.45
547.88	52713.35
548.081	52746.12
548.281	52899.72
548.481	52598.66
548.681	53104.51
548.881	52838.28
549.081	52385.68
549.28	52754.31
549.48	53249.92
549.68	52481.93
549.88	53874.55
550.08	52852.61
550.28	53047.17
550.48	52391.82
550.68	52875.14
550.88	52971.39
551.08	52797.32
551.279	52737.93
551.479	52465.55
551.679	52899.72
551.879	52858.76
552.079	52991.87
552.278	52305.8
552.478	52416.39
552.678	52633.48
552.878	52971.39
553.077	52428.68
553.277	52156.3
553.477	52944.77
553.676	52250.51
553.876	52565.9
554.076	52187.02
554.275	52182.93
554.475	51740.57
554.674	52449.16
554.874	52379.53
555.074	51959.7
555.273	52361.1
555.473	52316.04
555.672	52299.66
555.872	52078.48
556.071	52176.78
556.271	52369.29
556.47	52086.67
556.67	51603.35
556.869	51949.46
557.068	51943.31
557.268	51666.84
557.467	51791.76
557.667	51482.52
557.866	51695.51
558.065	51822.48
558.265	51726.23
558.464	51505.05
558.663	51593.11
558.863	51007.39
559.062	52418.44
559.261	51087.26
559.461	52141.97
559.66	50649
559.859	50859.94
560.058	50839.46
560.258	50829.22
560.457	50712.48
560.656	51265.44
560.855	50479.02
561.054	51238.81
561.253	50556.84
561.453	51005.34
561.652	50923.43
561.851	50730.92
562.05	50464.68
562.249	50003.89
562.448	50538.41
562.647	50149.29
562.846	50302.89
563.045	50485.16
563.244	49870.77
563.443	50177.97
563.642	49817.52
563.841	50253.74
564.04	49477.56
564.239	50073.52
564.438	49393.59
564.637	49801.14
564.836	49653.68
565.035	49485.75
565.234	49790.9
565.432	48992.19
565.631	48957.38
565.83	49029.05
566.029	48820.16
566.228	49190.84
566.427	48596.93
566.625	48861.12
566.824	48625.6
567.023	49076.16
567.222	48236.49
567.42	48744.39
567.619	48672.71
567.818	48691.14
568.016	47970.25
568.215	48601.03
568.414	48023.5
568.612	48777.15
568.811	47699.92
569.01	47667.16
569.208	47331.29
569.407	47994.83
569.605	47368.15
569.804	47755.22
570.002	46782.43
570.201	47325.14
570.4	47110.11
570.598	47001.57
570.797	46759.91
570.995	47151.07
571.193	46563.3
571.392	46979.04
571.59	46589.92
571.789	46510.05
571.987	46264.3
572.186	46274.54
572.384	46112.75
572.582	46256.1
572.781	46032.88
572.979	45748.21
573.177	45840.37
573.376	45832.18
573.574	45957.1
573.772	45639.67
573.971	45654
574.169	45111.29
574.367	45205.5
574.565	45185.02
574.763	45010.94
574.962	45158.39
575.16	44623.87
575.358	44457.99
575.556	44115.98
575.754	45303.8
575.952	44470.28
576.151	44705.79
576.349	44115.98
576.547	44070.92
576.745	44230.66
576.943	44576.77
577.141	44148.75
577.339	43741.2
577.537	43827.21
577.735	43560.98
577.933	43509.78
578.131	43690
578.329	43690
578.527	42887.2
578.725	42932.25
578.923	43257.88
579.121	43057.18
579.319	42858.52
579.516	43042.84
579.714	42692.64
579.912	42670.11
580.11	42248.23
580.308	42287.14
580.506	42174.5
580.704	41461.81
580.901	42002.47
581.099	42240.04
581.297	41453.62
581.495	41670.7
581.692	41830.44
581.89	41576.5
582.088	41564.21
582.285	41109.56
582.483	42012.71
582.681	41426.99
582.878	40718.4
583.076	40859.71
583.274	41353.27
583.471	40740.93
583.669	40806.46
583.866	40124.49
584.064	40505.41
584.262	39972.94
584.459	40620.09
584.657	40290.37
584.854	40134.73
585.052	39215.19
585.249	40032.33
585.447	39813.2
585.644	39309.39
585.841	39737.42
586.039	39807.05
586.236	39489.62
586.434	39172.18
586.631	39008.34
586.828	39118.93
587.026	38856.79
587.223	39254.1
587.42	38504.54
587.618	38750.3
587.815	38387.81
588.012	38471.78
588.21	37937.26
588.407	38389.86
588.604	38619.23
588.801	37824.62
588.999	37931.11
589.196	37777.51
589.393	37412.98
589.59	37521.52
589.787	37220.47
589.984	37079.16
590.182	36921.46
590.379	37109.88
590.576	37027.96
590.773	36833.4
590.97	36522.11
591.167	36812.92
591.364	36518.01
591.561	36558.97
591.758	36245.63
591.955	36415.61
592.152	36475.01
592.349	35977.35
592.546	36026.5
592.743	36278.4
592.94	35489.93
593.137	35713.16
593.334	35661.96
593.531	35414.16
593.727	35684.49
593.924	34984.08
594.121	35055.76
594.318	35197.07
594.515	34832.54
594.712	34979.99
594.908	34758.81
595.105	34695.32
595.302	34621.59
595.499	34637.98
595.696	34619.55
595.892	34091.17
596.089	34631.83
596.286	34334.88
596.482	34144.42
596.679	34148.51
596.876	33913
597.072	33548.46
597.269	33837.22
597.466	33718.44
597.662	33468.59
597.859	33484.97
598.055	33298.61
598.252	33413.29
598.448	33093.81
598.645	32643.26
598.841	32622.78
599.038	33120.43
599.234	32934.07
599.431	32473.28
599.627	32663.74
599.824	32602.3
600.02	32348.35
600.217	32618.68
600.413	32262.33
600.609	31746.25
600.806	31944.9
601.002	32018.63
601.198	31467.72
601.395	31637.7
601.591	31799.49
601.787	31357.13
601.984	31115.47
602.18	31824.07
602.376	31004.88
602.572	31121.62
602.769	31172.81
602.965	30757.08
603.161	30730.45
603.357	30171.36
603.553	30169.31
603.75	30994.64
603.946	30376.16
604.142	30499.03
604.338	29948.13
604.534	30191.84
604.73	30068.96
604.926	29972.71
605.122	30167.26
605.318	29915.36
605.514	29755.62
605.71	29374.7
605.906	29397.23
606.102	29503.72
606.298	29458.67
606.494	29333.74
606.69	29305.07
606.886	29573.35
607.082	28788.98
607.278	28870.9
607.474	29108.46
607.67	29243.63
607.866	28606.71
608.062	28655.86
608.257	28281.08
608.453	28725.49
608.649	28584.18
608.845	28051.71
609.041	28389.63
609.236	28422.39
609.432	28246.27
609.628	28266.75
609.824	28305.66
610.019	28055.81
610.215	27902.21
610.411	28197.12
610.606	27947.26
610.802	28137.73
610.998	27977.98
611.193	27969.79
611.389	27537.67
611.584	27408.65
611.78	27144.46
611.976	27588.87
612.171	27556.1
612.367	27689.22
612.562	27422.98
612.758	26908.94
612.953	27246.86
613.149	27511.05
613.344	26863.89
613.539	27439.37
613.735	27042.06
613.93	27285.77
614.126	27119.88
614.321	26984.72
614.517	26734.87
614.712	26855.7
614.907	26675.48
615.103	26632.47
615.298	26650.9
615.493	26970.38
615.688	26222.87
615.884	27097.36
616.079	26392.86
616.274	26646.8
616.47	26282.27
616.665	26298.65
616.86	26292.51
617.055	25966.88
617.25	26083.61
617.445	26421.53
617.641	25571.62
617.836	26018.08
618.031	25774.37
618.226	26104.09
618.421	25766.18
618.616	25997.6
618.811	25393.45
619.006	25626.92
619.201	25045.29
619.396	25547.04
619.591	24998.19
619.786	25289
619.981	24883.5
620.176	24869.17
620.371	24643.89
620.566	24748.34
620.761	24381.75
620.956	24697.14
621.151	24293.69
621.346	24389.94
621.541	24117.56
621.735	24545.59
621.93	23634.24
622.125	23892.29
622.32	23388.49
622.515	23673.15
622.709	23415.11
622.904	23241.03
623.099	23388.49
623.294	23316.81
623.488	22989.13
623.683	22915.4
623.878	22587.73
624.072	22518.1
624.267	22597.97
624.462	22397.27
624.656	22352.21
624.851	22391.12
625.046	21993.82
625.24	22141.27
625.435	21700.96
625.629	21709.15
625.824	21637.47
626.018	21506.4
626.213	21258.6
626.407	21252.45
626.602	21041.51
626.796	21066.09
626.991	20904.3
627.185	20676.98
627.38	20873.58
627.574	20423.03
627.768	20304.24
627.963	20470.13
628.157	20128.12
628.352	20392.31
628.546	20019.58
628.74	20214.13
628.935	19818.88
629.129	19966.33
629.323	19550.59
629.517	19597.7
629.712	19607.94
629.906	19194.25
630.1	18973.07
630.294	19118.47
630.489	18768.27
630.683	19188.1
630.877	18669.97
631.071	18553.23
631.265	18708.88
631.459	18565.52
631.653	18350.48
631.848	18278.8
632.042	18198.93
632.236	18518.42
632.43	18260.37
632.624	17891.74
632.818	17727.9
633.012	17701.28
633.206	17699.23
633.4	17537.44
633.594	17367.46
633.788	17668.51
633.982	17504.67
634.176	17496.48
634.369	17215.91
634.563	16884.14
634.757	16753.07
634.951	17052.07
635.145	17082.79
635.339	16755.11
635.533	16480.69
635.726	16474.54
635.92	16773.55
636.114	16800.17
636.308	16273.84
636.501	16200.12
636.695	16484.78
636.889	15972.79
637.083	15958.46
637.276	15765.95
637.47	16005.56
637.664	15759.8
637.857	16007.61
638.051	15780.28
638.244	15501.76
638.438	15182.27
638.632	15505.85
638.825	15182.27
639.019	15186.37
639.212	15323.58
639.406	14995.91
639.599	14926.28
639.793	15032.77
639.986	14666.19
640.18	14727.63
640.373	14793.16
640.567	14416.33
640.76	14383.57
640.954	14379.47
641.147	14332.37
641.34	14172.63
641.534	14391.76
641.727	14068.18
641.92	14211.54
642.114	14062.04
642.307	13724.12
642.5	13978.07
642.694	13681.11
642.887	13662.68
643.08	13775.32
643.273	13363.68
643.467	13666.78
643.66	13234.66
643.853	13310.43
644.046	13322.72
644.239	13322.72
644.432	13296.1
644.626	13081.06
644.819	12999.14
645.012	12884.45
645.205	12726.76
645.398	12788.2
645.591	12882.41
645.784	12661.23
645.977	12640.75
646.17	12687.85
646.363	12399.09
646.556	12165.62
646.749	12288.5
646.942	12218.86
647.135	12204.53
647.328	12044.79
647.521	12100.08
647.714	11870.71
647.907	12040.69
648.099	11883
648.292	12085.75
648.485	11809.27
648.678	11659.77
648.871	11721.21
649.064	11483.64
649.256	11647.48
649.449	11530.75
649.642	11454.97
649.835	11135.49
650.027	11440.64
650.22	11182.59
650.413	11139.58
650.605	11241.98
650.798	11047.43
650.991	11059.71
651.183	10945.03
651.376	10885.64
651.568	10662.41
651.761	10773
651.954	10787.33
652.146	10652.17
652.339	10584.59
652.531	10324.49
652.724	10322.45
652.916	10320.4
653.109	10392.08
653.301	10447.37
653.494	10394.12
653.686	10246.67
653.879	10195.47
654.071	10220.05
654.263	9984.53
654.456	9988.63
654.648	10160.66
654.84	9857.56
655.033	9802.26
655.225	9767.45
655.417	9871.89
655.61	9706.01
655.802	9832.98
655.994	9630.23
656.186	9646.62
656.379	9429.53
656.571	9445.91
656.763	9304.6
656.955	9327.13
657.148	9341.47
657.34	9308.7
657.532	9245.21
657.724	9101.86
657.916	9294.36
658.108	9138.72
658.3	8870.44
658.492	8976.93
658.684	8827.43
658.876	8876.58
659.068	8964.64
659.26	8727.08
659.452	8759.84
659.644	8811.04
659.836	8657.45
660.028	8700.45
660.22	8464.94
660.412	8421.93
660.604	8530.47
660.796	8479.27
660.988	8479.27
661.18	8221.23
661.372	8311.34
661.563	8249.9
661.755	8086.06
661.947	8235.56
662.139	8102.45
662.331	7965.23
662.522	7979.57
662.714	8090.16
662.906	8002.1
663.097	8016.43
663.289	7963.19
663.481	7850.55
663.673	7733.81
663.864	7690.81
664.056	7655.99
664.247	7821.88
664.439	7582.26
664.631	7703.09
664.822	7615.03
665.014	7539.26
665.205	7494.2
665.397	7422.52
665.588	7428.67
665.78	7295.55
665.971	7158.33
666.163	7309.88
666.354	7328.31
666.546	7348.79
666.737	7252.54
666.929	7234.11
667.12	7139.9
667.311	7008.83
667.503	7035.46
667.694	7064.13
667.885	6953.54
668.077	7113.28
668.268	6847.04
668.459	6867.52
668.651	6996.54
668.842	6672.96
669.033	6914.63
669.224	6687.3
669.416	6867.52
669.607	6752.84
669.798	6574.66
669.989	6681.16
670.18	6609.48
670.371	6505.03
670.563	6617.67
670.754	6634.05
670.945	6464.07
671.136	6541.89
671.327	6496.84
671.518	6398.54
671.709	6343.24
671.9	6421.06
672.091	6312.52
672.282	6363.72
672.473	6249.04
672.664	6206.03
672.855	6316.62
673.046	6132.3
673.237	6253.13
673.428	6206.03
673.619	6079.05
673.809	6163.02
674	6074.96
674.191	6167.12
674.382	5853.78
674.573	5927.5
674.764	6091.34
674.954	6111.82
675.145	5761.62
675.336	5866.07
675.527	6048.33
675.717	5812.82
675.908	5919.31
676.099	5919.31
676.289	5837.39
676.48	5861.97
676.671	5608.02
676.861	5710.42
677.052	5716.56
677.243	5708.37
677.433	5743.19
677.624	5599.83
677.814	5720.66
678.005	5597.78
678.195	5683.8
678.386	5585.49
678.576	5550.68
678.767	5624.4
678.957	5575.25
679.148	5530.2
679.338	5657.17
679.529	5585.49
679.719	5567.06
679.909	5556.82
680.1	5499.48
680.29	5495.38
680.481	5337.69
680.671	5347.93
680.861	5321.31
681.052	5329.5
681.242	5245.53
681.432	5343.83
681.622	5212.76
681.813	5218.91
682.003	5311.07
682.193	5286.49
682.383	5304.92
682.573	5188.19
682.764	5173.85
682.954	5194.33
683.144	5177.95
683.334	5204.57
683.524	5147.23
683.714	5079.65
683.904	5040.73
684.094	5003.87
684.284	5069.41
684.474	5096.03
684.664	5175.9
684.854	5034.59
685.044	5059.17
685.234	4901.47
685.424	4893.28
685.614	4995.68
685.804	4952.67
685.994	4848.22
686.184	4885.09
686.374	4768.35
686.564	4901.47
686.753	4745.83
686.943	4700.77
687.133	4672.1
687.323	4645.48
687.513	4858.46
687.702	4643.43
687.892	4727.39
688.082	4549.22
688.272	4729.44
688.461	4600.42
688.651	4696.68
688.841	4543.08
689.03	4510.31
689.22	4473.45
689.41	4530.79
689.599	4598.37
689.789	4530.79
689.979	4387.43
690.168	4506.21
690.358	4409.96
690.547	4375.14
690.737	4311.66
690.926	4328.04
691.116	4239.98
691.305	4207.21
691.495	4260.46
691.684	4229.74
691.874	4291.18
692.063	4311.66
692.252	4268.65
692.442	4217.45
692.631	4164.2
692.82	4129.39
693.01	4147.82
693.199	4113
693.388	3986.03
693.578	4137.58
693.767	4041.32
693.956	4086.38
694.146	3998.32
694.335	3955.31
694.524	3949.17
694.713	3824.24
694.902	4045.42
695.092	3865.2
695.281	4002.41
695.47	4024.94
695.659	3969.65
695.848	3891.82
696.037	3826.29
696.226	3936.88
696.415	3889.78
696.604	3977.84
696.793	3826.29
696.982	3883.63
697.171	3781.23
697.36	3811.95
697.549	3824.24
697.738	3736.18
697.927	3775.09
698.116	3783.28
698.305	3703.41
698.494	3859.06
698.683	3742.32
698.872	3631.73
699.061	3768.95
699.25	3678.83
699.438	3691.12
699.627	3854.96
699.816	3648.11
700.005	3730.03
700.193	3777.14
700.382	3697.27
700.571	3635.83
700.76	3687.03
700.948	3644.02
701.137	3633.78
701.326	3627.64
701.514	3531.38
701.703	3736.18
701.892	3558
702.08	3566.2
702.269	3629.68
702.457	3654.26
702.646	3678.83
702.834	3496.57
703.023	3648.11
703.212	3621.49
703.4	3455.61
703.589	3471.99
703.777	3568.24
703.965	3504.76
704.154	3576.44
704.342	3443.32
704.531	3484.28
704.719	3330.68
704.907	3525.24
705.096	3474.04
705.284	3455.61
705.472	3426.93
705.661	3449.46
705.849	3502.71
706.037	3463.8
706.226	3244.67
706.414	3435.13
706.602	3375.74
706.79	3293.82
706.979	3279.48
707.167	3398.26
707.355	3314.3
707.543	3476.09
707.731	3324.54
707.919	3347.06
708.107	3275.38
708.296	3207.8
708.484	3322.49
708.672	3203.71
708.86	3261.05
709.048	3213.95
709.236	3281.53
709.424	3275.38
709.612	3215.99
709.8	3111.55
709.988	3170.94
710.176	3166.84
710.364	3197.56
710.551	3156.6
710.739	3228.28
710.927	3127.93
711.115	3138.17
711.303	3113.6
711.491	3123.84
711.679	3056.25
711.866	3107.45
712.054	3297.91
712.242	3003
712.43	3175.03
712.617	3125.88
712.805	3140.22
712.993	2974.33
713.181	2904.7
713.368	3123.84
713.556	3252.86
713.744	2978.43
713.931	3074.68
714.119	3046.01
714.306	3033.72
714.494	3003
714.682	3023.48
714.869	2945.66
715.057	3109.5
715.244	3093.12
715.432	3007.1
715.619	2923.13
715.807	3017.34
715.994	3041.92
716.182	2990.72
716.369	2988.67
716.556	2980.48
716.744	2818.69
716.931	2888.32
717.119	2945.66
717.306	2847.36
717.493	2794.11
717.681	2908.8
717.868	2884.22
718.055	2978.43
718.242	2904.7
718.43	3046.01
718.617	2916.99
718.804	2916.99
718.991	2884.22
719.179	2773.63
719.366	2816.64
719.553	2798.21
719.74	2855.55
719.927	2849.41
720.114	2759.3
720.301	2837.12
720.488	2798.21
720.676	2775.68
720.863	2962.05
721.05	2845.31
721.237	2738.82
721.424	2706.05
721.611	2767.49
721.798	2708.1
721.985	2681.47
722.172	2630.27
722.358	2693.76
722.545	2656.9
722.732	2665.09
722.919	2806.4
723.106	2689.67
723.293	2728.58
723.48	2650.75
723.667	2593.41
723.853	2601.6
724.04	2521.73
724.227	2679.43
724.414	2564.74
724.6	2607.75
724.787	2620.03
724.974	2714.24
725.161	2658.95
725.347	2599.56
725.534	2632.32
725.72	2695.81
725.907	2628.23
726.094	2574.98
726.28	2628.23
726.467	2613.89
726.653	2544.26
726.84	2605.7
727.027	2527.88
727.213	2466.44
727.4	2536.07
727.586	2529.92
727.773	2534.02
727.959	2536.07
728.145	2529.92
728.332	2564.74
728.518	2382.47
728.705	2617.99
728.891	2488.96
729.077	2411.14
729.264	2554.5
729.45	2550.4
729.636	2534.02
729.823	2419.33
730.009	2552.45
730.195	2482.82
730.382	2493.06
730.568	2515.59
730.754	2529.92
730.94	2429.57
731.126	2366.09
731.313	2443.91
731.499	2482.82
731.685	2470.53
731.871	2499.2
732.057	2390.66
732.243	2405
732.429	2499.2
732.615	2421.38
732.801	2462.34
732.987	2361.99
733.173	2388.61
733.359	2392.71
733.545	2398.85
733.731	2214.54
733.917	2323.08
734.103	2333.32
734.289	2337.41
734.475	2325.13
734.661	2349.7
734.847	2386.57
735.033	2357.89
735.219	2370.18
735.404	2124.43
735.59	2269.83
735.776	2275.98
735.962	2300.55
736.148	2351.75
736.333	2337.41
736.519	2179.72
736.705	2296.46
736.89	2239.11
737.076	2206.35
737.262	2245.26
737.447	2306.7
737.633	2237.06
737.819	2265.74
738.004	2175.63
738.19	2134.67
738.375	2204.3
738.561	2216.58
738.747	2208.39
738.932	2175.63
739.118	2212.49
739.303	2159.24
739.489	2157.19
739.674	2194.06
739.859	2194.06
740.045	2120.33
740.23	2163.34
740.416	2189.96
740.601	2130.57
740.786	2085.51
740.972	2134.67
741.157	2089.61
741.342	2005.64
741.528	2038.41
741.713	2204.3
741.898	2142.86
742.084	2038.41
742.269	2042.51
742.454	2052.75
742.639	2132.62
742.824	2007.69
743.01	2085.51
743.195	2173.58
743.38	2028.17
743.565	1970.83
743.75	1958.54
743.935	2028.17
744.12	1997.45
744.305	1911.44
744.49	1946.25
744.675	1972.88
744.86	1876.62
745.045	1862.29
745.23	1870.48
745.415	1860.24
745.6	1905.29
745.785	1809.04
745.97	1852.05
746.155	1901.2
746.34	1809.04
746.525	1821.33
746.71	1837.71
746.895	1718.93
747.079	1737.36
747.264	1780.37
747.449	1692.3
747.634	1817.23
747.819	1798.8
748.003	1786.51
748.188	1729.17
748.373	1737.36
748.557	1700.5
748.742	1645.2
748.927	1587.86
749.111	1653.39
749.296	1589.91
749.481	1686.16
749.665	1634.96
749.85	1608.34
750.034	1700.5
750.219	1632.91
750.404	1591.95
750.588	1585.81
750.773	1532.56
750.957	1634.96
751.141	1561.23
751.326	1555.09
751.51	1530.52
751.695	1567.38
751.879	1475.22
752.064	1534.61
752.248	1520.28
752.432	1534.61
752.617	1514.13
752.801	1462.93
752.985	1522.32
753.17	1434.26
753.354	1436.31
753.538	1407.64
753.722	1421.97
753.907	1352.34
754.091	1473.17
754.275	1354.39
754.459	1323.67
754.643	1407.64
754.828	1415.83
755.012	1346.2
755.196	1409.69
755.38	1280.66
755.564	1262.23
755.748	1303.19
755.932	1299.09
756.116	1307.29
756.3	1290.9
756.484	1331.86
756.668	1258.14
756.852	1280.66
757.036	1251.99
757.22	1331.86
757.404	1272.47
757.588	1186.46
757.772	1260.18
757.956	1282.71
758.14	1200.79
758.323	1251.99
758.507	1217.18
758.691	1120.92
758.875	1198.74
759.059	1174.17
759.242	1194.65
759.426	1198.74
759.61	1149.59
759.794	1090.2
759.977	1116.83
760.161	1174.17
760.345	1157.79
760.528	1190.55
760.712	1069.72
760.895	1106.59
761.079	1104.54
761.263	1036.95
761.446	989.85
761.63	1004.19
761.813	987.8
761.997	1024.67
762.18	1069.72
762.364	1082.01
762.547	961.18
762.731	1014.43
762.914	1049.24
763.098	1010.33
763.281	1039
763.464	1122.97
763.648	987.8
763.831	969.37
764.015	965.28
764.198	1020.57
764.381	981.66
764.564	991.9
764.748	1022.62
764.931	971.42
765.114	920.22
765.297	1004.19
765.481	957.08
765.664	936.6
765.847	879.26
766.03	1002.14
766.213	930.46
766.397	912.03
766.58	907.93
766.763	989.85
766.946	936.6
767.129	899.74
767.312	922.27
767.495	952.99
767.678	826.01
767.861	893.6
768.044	922.27
768.227	969.37
768.41	905.88
768.593	873.12
768.776	928.41
768.959	897.69
769.142	932.51
769.324	873.12
769.507	864.93
769.69	848.54
769.873	854.69
770.056	926.36
770.239	856.73
770.421	873.12
770.604	789.15
770.787	830.11
770.97	826.01
771.152	815.77
771.335	879.26
771.518	860.83
771.7	801.44
771.883	897.69
772.066	821.92
772.248	797.34
772.431	834.21
772.613	797.34
772.796	844.45
772.978	860.83
773.161	797.34
773.343	905.88
773.526	807.58
773.708	772.77
773.891	770.72
774.073	838.3
774.256	653.98
774.438	836.25
774.621	727.71
774.803	684.7
774.985	692.9
775.168	723.62
775.35	737.95
775.532	750.24
775.715	742.05
775.897	686.75
776.079	670.37
776.261	645.79
776.444	696.99
776.626	709.28
776.808	682.66
776.99	699.04
777.173	686.75
777.355	760.48
777.537	653.98
777.719	680.61
777.901	641.7
778.083	696.99
778.265	682.66
778.447	692.9
778.629	602.79
778.811	656.03
778.993	678.56
779.175	606.88
779.357	541.35
779.539	514.72
779.721	572.07
779.903	684.7
780.085	590.5
780.267	561.83
780.449	637.6
780.631	639.65
780.812	533.15
780.994	582.31
781.176	506.53
781.358	545.44
781.54	637.6
781.721	520.87
781.903	547.49
782.085	592.55
782.267	549.54
782.448	584.35
782.63	514.72
782.812	604.83
782.993	512.67
783.175	504.48
783.357	496.29
783.538	543.39
783.72	502.44
783.901	447.14
784.083	518.82
784.264	518.82
784.446	455.33
784.627	520.87
784.809	481.96
784.99	492.2
785.172	504.48
785.353	432.8
785.535	436.9
785.716	520.87
785.897	477.86
786.079	479.91
786.26	436.9
786.441	531.11
786.623	441
786.804	484
786.985	387.75
787.167	492.2
787.348	449.19
787.529	453.28
787.71	441
787.891	445.09
788.073	389.8
788.254	406.18
788.435	447.14
788.616	332.45
788.797	369.32
788.978	379.56
789.159	375.46
789.34	469.67
789.522	397.99
789.703	436.9
789.884	359.08
790.065	357.03
790.246	467.62
790.427	432.8
790.607	361.13
790.788	428.71
790.969	328.36
791.15	361.13
791.331	344.74
791.512	383.65
791.693	334.5
791.874	338.6
792.054	469.67
792.235	367.27
792.416	344.74
792.597	336.55
792.778	357.03
792.958	340.65
793.139	322.21
793.32	395.94
793.5	371.37
793.681	397.99
793.862	311.97
794.042	307.88
794.223	311.97
794.404	336.55
794.584	367.27
794.765	207.53
794.945	275.11
795.126	385.7
795.306	334.5
795.487	334.5
795.667	277.16
795.848	318.12
796.028	314.02
796.209	303.78
796.389	365.22
796.57	340.65
796.75	277.16
796.93	377.51
797.111	215.72
797.291	314.02
797.471	232.1
797.652	324.26
797.832	242.34
798.012	357.03
798.192	238.25
798.373	258.73
798.553	316.07
798.733	271.01
798.913	207.53
799.093	295.59
799.274	297.64
799.454	266.92
799.634	307.88
799.814	303.78
799.994	246.44
800.174	283.3
800.354	318.12
800.534	260.77
800.714	283.3
800.894	225.96
801.074	166.57
801.254	232.1
801.434	264.87
801.614	199.34
801.794	201.38
801.974	617.12
802.154	340.65
802.334	242.34
802.514	338.6
802.693	318.12
802.873	242.34
803.053	283.3
803.233	244.39
803.413	193.19
803.592	277.16
803.772	182.95
803.952	215.72
804.131	185
804.311	221.86
804.491	340.65
804.67	164.52
804.85	236.2
805.03	275.11
805.209	230.06
805.389	205.48
805.568	207.53
805.748	221.86
805.928	152.23
806.107	195.24
806.287	193.19
806.466	264.87
806.646	219.82
806.825	199.34
807.004	209.58
807.184	191.14
807.363	191.14
807.543	170.66
807.722	207.53
807.901	197.29
808.081	154.28
808.26	207.53
808.439	156.33
808.619	160.42
808.798	219.82
808.977	141.99
809.156	223.91
809.336	250.53
809.515	205.48
809.694	164.52
809.873	180.9
810.052	246.44
810.231	248.49
810.411	189.1
810.59	174.76
810.769	174.76
810.948	195.24
811.127	117.42
811.306	199.34
811.485	211.62
811.664	123.56
811.843	219.82
812.022	172.71
812.201	213.67
812.38	223.91
812.559	217.77
812.737	135.85
812.916	166.57
813.095	127.66
813.274	199.34
813.453	223.91
813.632	154.28
813.811	217.77
813.989	170.66
814.168	217.77
814.347	119.46
814.526	176.81
814.704	144.04
814.883	209.58
815.062	174.76
815.24	180.9
815.419	135.85
815.598	189.1
815.776	123.56
815.955	86.7
816.133	131.75
816.312	105.13
816.49	88.75
816.669	98.99
816.847	178.86
817.026	174.76
817.204	152.23
817.383	156.33
817.561	115.37
817.74	139.94
817.918	170.66
818.097	209.58
818.275	146.09
818.453	127.66
818.632	154.28
818.81	86.7
818.988	205.48
819.167	53.93
819.345	119.46
819.523	150.18
819.701	144.04
819.879	127.66
820.058	139.94
820.236	146.09
820.414	113.32
820.592	117.42
820.77	137.9
820.948	141.99
821.127	150.18
821.305	258.73
821.483	150.18
821.661	84.65
821.839	168.62
822.017	144.04
822.195	103.08
822.373	152.23
822.551	45.74
822.729	180.9
822.907	156.33
823.085	82.6
823.262	115.37
823.44	101.03
823.618	168.62
823.796	152.23
823.974	109.23
824.152	117.42
824.329	82.6
824.507	70.31
824.685	107.18
824.863	166.57
825.04	131.75
825.218	96.94
825.396	86.7
825.574	86.7
825.751	98.99
825.929	101.03
826.107	121.51
826.284	113.32
826.462	129.7
826.639	70.31
826.817	152.23
826.994	105.13
827.172	82.6
827.349	101.03
827.527	117.42
827.704	144.04
827.882	125.61
828.059	101.03
828.237	58.03
828.414	70.31
828.591	23.21
828.769	115.37
828.946	135.85
829.124	125.61
829.301	131.75
829.478	92.84
829.655	64.17
829.833	62.12
830.01	41.64
830.187	109.23
830.364	31.4
830.542	144.04
830.719	152.23
830.896	29.35
831.073	101.03
831.25	123.56
831.427	62.12
831.604	105.13
831.782	80.55
831.959	111.27
832.136	60.07
832.313	74.41
832.49	101.03
832.667	39.59
832.844	0.68
833.021	92.84
833.198	72.36
833.374	113.32
833.551	107.18
833.728	82.6
833.905	98.99
834.082	41.64
834.259	127.66
834.436	105.13
834.612	70.31
834.789	107.18
834.966	39.59
835.143	76.46
835.319	72.36
835.496	90.79
835.673	127.66
835.85	139.94
836.026	88.75
836.203	101.03
836.38	33.45
836.556	72.36
836.733	135.85
836.909	109.23
837.086	53.93
837.262	92.84
837.439	76.46
837.616	88.75
837.792	105.13
837.968	96.94
838.145	-15.7
838.321	72.36
838.498	137.9
838.674	-1.37
838.851	78.51
839.027	84.65
839.203	76.46
839.38	119.46
839.556	47.79
839.732	96.94
839.909	96.94
840.085	70.31
840.261	47.79
840.437	103.08
840.614	62.12
840.79	98.99
840.966	25.26
841.142	144.04
841.318	64.17
841.494	107.18
841.671	68.27
841.847	80.55
842.023	117.42
842.199	86.7
842.375	123.56
842.551	39.59
842.727	-5.46
842.903	131.75
843.079	27.31
843.255	17.07
843.431	47.79
843.607	103.08
843.783	4.78
843.959	72.36
844.134	35.5
844.31	103.08
844.486	-7.51
844.662	64.17
844.838	49.83
845.013	94.89
845.189	78.51
845.365	53.93
845.541	43.69
845.716	137.9
845.892	160.42
846.068	51.88
846.244	60.07
846.419	43.69
846.595	45.74
846.77	39.59
846.946	6.83
847.122	103.08
847.297	53.93
847.473	55.98
847.648	35.5
847.824	137.9
847.999	82.6
848.175	35.5
848.35	43.69
848.526	133.8
848.701	105.13
848.876	41.64
849.052	86.7
849.227	70.31
849.403	88.75
849.578	101.03
849.753	33.45
849.929	125.61
850.104	41.64
850.279	101.03
850.454	90.79
850.63	74.41
850.805	111.27
850.98	66.22
851.155	0.68
851.33	109.23
851.505	0.68
851.681	125.61
851.856	25.26
852.031	92.84
852.206	60.07
852.381	86.7
852.556	58.03
852.731	101.03
852.906	86.7
853.081	82.6
853.256	74.41
853.431	58.03
853.606	62.12
853.781	-19.8
853.956	58.03
854.131	76.46
854.305	10.92
854.48	80.55
854.655	49.83
854.83	-5.46
855.005	35.5
855.18	129.7
855.354	6.83
855.529	29.35
855.704	10.92
855.879	-17.75
856.053	31.4
856.228	53.93
856.403	-3.41
856.577	41.64
856.752	-15.7
856.926	72.36
857.101	43.69
857.276	78.51
857.45	12.97
857.625	90.79
857.799	6.83
857.974	107.18
858.148	19.11
858.323	43.69
858.497	19.11
858.672	53.93
858.846	-3.41
859.02	29.35
859.195	29.35
859.369	23.21
859.543	29.35
859.718	60.07
859.892	72.36
860.066	45.74
860.241	74.41
860.415	23.21
860.589	23.21
860.763	90.79
860.938	62.12
861.112	62.12
861.286	-13.65
861.46	27.31
861.634	15.02
861.808	64.17
861.982	-7.51
862.157	27.31
862.331	4.78
862.505	19.11
862.679	19.11
862.853	31.4
863.027	64.17
863.201	41.64
863.375	-3.41
863.549	113.32
863.722	94.89
863.896	82.6
864.07	-21.84
864.244	23.21
864.418	70.31
864.592	70.31
864.766	2.73
864.939	86.7
865.113	35.5
865.287	27.31
865.461	76.46
865.634	10.92
865.808	8.87
865.982	76.46
866.156	-19.8
866.329	10.92
866.503	33.45
866.676	76.46
866.85	-5.46
867.024	84.65
867.197	25.26
867.371	88.75
867.544	68.27
867.718	23.21
867.891	31.4
868.065	10.92
868.238	66.22
868.412	39.59
868.585	-25.94
868.759	45.74
868.932	31.4
869.105	88.75
869.279	62.12
869.452	8.87
869.625	15.02
869.799	62.12
869.972	72.36
870.145	64.17
870.319	21.16
870.492	51.88
870.665	96.94
870.838	-30.04
871.011	27.31
871.185	74.41
871.358	-23.89
871.531	37.55
871.704	53.93
871.877	-3.41
872.05	12.97
872.223	15.02
872.396	0.68
872.569	-7.51
872.742	-3.41
872.915	92.84
873.088	41.64
873.261	0.68
873.434	10.92
873.607	49.83
873.78	8.87
873.953	92.84
874.126	144.04
874.299	29.35
874.471	43.69
874.644	-30.04
874.817	80.55
874.99	72.36
875.163	-27.99
875.335	68.27
875.508	78.51
875.681	76.46
875.853	0.68
876.026	-34.13
876.199	49.83
876.371	60.07
876.544	27.31
876.717	43.69
876.889	78.51
877.062	2.73
877.234	-1.37
877.407	0.68
877.579	-5.46
877.752	35.5
877.924	51.88
878.097	-5.46
878.269	31.4
878.442	70.31
878.614	37.55
878.786	21.16
878.959	39.59
879.131	-3.41
879.303	-13.65
879.476	37.55
879.648	31.4
879.82	68.27
879.993	-13.65
880.165	-15.7
880.337	-19.8
880.509	76.46
880.681	19.11
880.854	-17.75
881.026	66.22
881.198	37.55
881.37	35.5
881.542	21.16
881.714	-21.84
881.886	6.83
882.058	25.26
882.23	103.08
882.402	6.83
882.574	-21.84
882.746	64.17
882.918	62.12
883.09	-21.84
883.262	8.87
883.434	51.88
883.606	-44.37
883.778	29.35
883.95	35.5
884.122	12.97
884.293	41.64
884.465	4.78
884.637	62.12
884.809	45.74
884.98	78.51
885.152	76.46
885.324	51.88
885.496	-9.56
885.667	-40.28
885.839	41.64
886.011	31.4
886.182	47.79
886.354	62.12
886.525	-1.37
886.697	60.07
886.869	29.35
887.04	-46.42
887.212	-52.56
887.383	90.79
887.555	29.35
887.726	39.59
887.897	62.12
888.069	62.12
888.24	27.31
888.412	25.26
888.583	21.16
888.754	47.79
888.926	-30.04
889.097	82.6
889.268	-50.52
889.44	55.98
889.611	-13.65
889.782	58.03
889.953	-46.42
890.125	-30.04
890.296	31.4
890.467	-71
890.638	78.51
890.809	25.26
890.98	-40.28
891.151	23.21
891.323	35.5
891.494	17.07
891.665	15.02
891.836	68.27
892.007	45.74
892.178	41.64
892.349	96.94
892.52	39.59
892.691	6.83
892.862	-21.84
893.032	74.41
893.203	60.07
893.374	2.73
893.545	15.02
893.716	-46.42
893.887	84.65
894.057	-44.37
894.228	2.73
894.399	29.35
894.57	2.73
894.74	-3.41
894.911	-79.19
895.082	17.07
895.253	33.45
895.423	-19.8
895.594	4.78
895.764	0.68
895.935	-19.8
896.106	45.74
896.276	-1.37
896.447	31.4
896.617	25.26
896.788	82.6
896.958	98.99
897.129	-27.99
897.299	76.46
897.47	-30.04
897.64	-9.56
897.81	62.12
897.981	101.03
898.151	15.02
898.322	64.17
898.492	25.26
898.662	27.31
898.832	10.92
899.003	68.27
899.173	-32.08
899.343	41.64
899.513	27.31
